3997.45528	0.02485
3996.16951	0.02492
3994.88374	0.02486
3993.59798	0.02463
3992.31221	0.02442
3991.02644	0.02457
3989.74067	0.02510
3988.45490	0.02566
3987.16913	0.02591
3985.88336	0.02582
3984.59759	0.02564
3983.31183	0.02564
3982.02606	0.02588
3980.74029	0.02626
3979.45452	0.02668
3978.16875	0.02708
3976.88298	0.02738
3975.59721	0.02748
3974.31144	0.02735
3973.02567	0.02717
3971.73991	0.02719
3970.45414	0.02741
3969.16837	0.02747
3967.88260	0.02700
3966.59683	0.02602
3965.31106	0.02498
3964.02529	0.02432
3962.73952	0.02420
3961.45376	0.02444
3960.16799	0.02470
3958.88222	0.02468
3957.59645	0.02432
3956.31068	0.02378
3955.02491	0.02341
3953.73914	0.02350
3952.45337	0.02404
3951.16760	0.02470
3949.88184	0.02516
3948.59607	0.02543
3947.31030	0.02579
3946.02453	0.02633
3944.73876	0.02676
3943.45299	0.02675
3942.16722	0.02630
3940.88145	0.02568
3939.59569	0.02518
3938.30992	0.02506
3937.02415	0.02543
3935.73838	0.02612
3934.45261	0.02671
3933.16684	0.02681
3931.88107	0.02633
3930.59530	0.02547
3929.30953	0.02458
3928.02377	0.02401
3926.73800	0.02392
3925.45223	0.02430
3924.16646	0.02502
3922.88069	0.02576
3921.59492	0.02616
3920.30915	0.02603
3919.02338	0.02552
3917.73762	0.02500
3916.45185	0.02487
3915.16608	0.02517
3913.88031	0.02562
3912.59454	0.02588
3911.30877	0.02576
3910.02300	0.02527
3908.73723	0.02459
3907.45146	0.02411
3906.16570	0.02415
3904.87993	0.02474
3903.59416	0.02554
3902.30839	0.02610
3901.02262	0.02625
3899.73685	0.02612
3898.45108	0.02595
3897.16531	0.02583
3895.87955	0.02578
3894.59378	0.02567
3893.30801	0.02535
3892.02224	0.02489
3890.73647	0.02470
3889.45070	0.02495
3888.16493	0.02519
3886.87916	0.02495
3885.59339	0.02441
3884.30763	0.02409
3883.02186	0.02413
3881.73609	0.02432
3880.45032	0.02447
3879.16455	0.02463
3877.87878	0.02481
3876.59301	0.02507
3875.30724	0.02559
3874.02148	0.02650
3872.73571	0.02751
3871.44994	0.02807
3870.16417	0.02811
3868.87840	0.02796
3867.59263	0.02769
3866.30686	0.02715
3865.02109	0.02638
3863.73532	0.02566
3862.44956	0.02513
3861.16379	0.02487
3859.87802	0.02485
3858.59225	0.02500
3857.30648	0.02518
3856.02071	0.02531
3854.73494	0.02558
3853.44917	0.02633
3852.16341	0.02739
3850.87764	0.02809
3849.59187	0.02802
3848.30610	0.02741
3847.02033	0.02660
3845.73456	0.02572
3844.44879	0.02479
3843.16302	0.02400
3841.87725	0.02362
3840.59149	0.02362
3839.30572	0.02374
3838.01995	0.02379
3836.73418	0.02382
3835.44841	0.02390
3834.16264	0.02417
3832.87687	0.02473
3831.59110	0.02546
3830.30534	0.02600
3829.01957	0.02604
3827.73380	0.02563
3826.44803	0.02515
3825.16226	0.02478
3823.87649	0.02435
3822.59072	0.02377
3821.30495	0.02339
3820.01918	0.02351
3818.73342	0.02388
3817.44765	0.02415
3816.16188	0.02439
3814.87611	0.02477
3813.59034	0.02508
3812.30457	0.02507
3811.01880	0.02475
3809.73303	0.02410
3808.44726	0.02322
3807.16150	0.02256
3805.87573	0.02250
3804.58996	0.02265
3803.30419	0.02253
3802.01842	0.02233
3800.73265	0.02269
3799.44688	0.02362
3798.16111	0.02461
3796.87535	0.02540
3795.58958	0.02594
3794.30381	0.02610
3793.01804	0.02578
3791.73227	0.02519
3790.44650	0.02463
3789.16073	0.02424
3787.87496	0.02397
3786.58919	0.02381
3785.30343	0.02382
3784.01766	0.02407
3782.73189	0.02444
3781.44612	0.02473
3780.16035	0.02487
3778.87458	0.02496
3777.58881	0.02505
3776.30304	0.02504
3775.01728	0.02483
3773.73151	0.02442
3772.44574	0.02382
3771.15997	0.02313
3769.87420	0.02263
3768.58843	0.02255
3767.30266	0.02279
3766.01689	0.02308
3764.73112	0.02336
3763.44536	0.02374
3762.15959	0.02439
3760.87382	0.02526
3759.58805	0.02594
3758.30228	0.02597
3757.01651	0.02535
3755.73074	0.02461
3754.44497	0.02418
3753.15921	0.02404
3751.87344	0.02391
3750.58767	0.02370
3749.30190	0.02371
3748.01613	0.02405
3746.73036	0.02424
3745.44459	0.02400
3744.15882	0.02382
3742.87305	0.02406
3741.58729	0.02430
3740.30152	0.02410
3739.01575	0.02349
3737.72998	0.02267
3736.44421	0.02206
3735.15844	0.02204
3733.87267	0.02251
3732.58690	0.02315
3731.30114	0.02370
3730.01537	0.02395
3728.72960	0.02374
3727.44383	0.02322
3726.15806	0.02272
3724.87229	0.02235
3723.58652	0.02208
3722.30075	0.02206
3721.01498	0.02239
3719.72922	0.02296
3718.44345	0.02347
3717.15768	0.02382
3715.87191	0.02413
3714.58614	0.02450
3713.30037	0.02482
3712.01460	0.02474
3710.72883	0.02399
3709.44307	0.02272
3708.15730	0.02155
3706.87153	0.02107
3705.58576	0.02134
3704.29999	0.02191
3703.01422	0.02236
3701.72845	0.02254
3700.44268	0.02250
3699.15691	0.02228
3697.87115	0.02192
3696.58538	0.02160
3695.29961	0.02152
3694.01384	0.02172
3692.72807	0.02207
3691.44230	0.02236
3690.15653	0.02245
3688.87076	0.02244
3687.58500	0.02248
3686.29923	0.02249
3685.01346	0.02231
3683.72769	0.02203
3682.44192	0.02184
3681.15615	0.02192
3679.87038	0.02253
3678.58461	0.02358
3677.29884	0.02449
3676.01308	0.02479
3674.72731	0.02448
3673.44154	0.02376
3672.15577	0.02294
3670.87000	0.02251
3669.58423	0.02268
3668.29846	0.02303
3667.01269	0.02307
3665.72693	0.02291
3664.44116	0.02287
3663.15539	0.02299
3661.86962	0.02317
3660.58385	0.02341
3659.29808	0.02378
3658.01231	0.02418
3656.72654	0.02452
3655.44077	0.02478
3654.15501	0.02488
3652.86924	0.02477
3651.58347	0.02462
3650.29770	0.02473
3649.01193	0.02510
3647.72616	0.02540
3646.44039	0.02532
3645.15462	0.02488
3643.86886	0.02442
3642.58309	0.02422
3641.29732	0.02430
3640.01155	0.02449
3638.72578	0.02469
3637.44001	0.02489
3636.15424	0.02504
3634.86847	0.02512
3633.58270	0.02524
3632.29694	0.02556
3631.01117	0.02608
3629.72540	0.02677
3628.43963	0.02759
3627.15386	0.02831
3625.86809	0.02856
3624.58232	0.02821
3623.29655	0.02748
3622.01079	0.02677
3620.72502	0.02646
3619.43925	0.02676
3618.15348	0.02746
3616.86771	0.02806
3615.58194	0.02824
3614.29617	0.02815
3613.01040	0.02805
3611.72463	0.02802
3610.43887	0.02796
3609.15310	0.02786
3607.86733	0.02786
3606.58156	0.02796
3605.29579	0.02799
3604.01002	0.02781
3602.72425	0.02752
3601.43848	0.02747
3600.15272	0.02791
3598.86695	0.02877
3597.58118	0.02970
3596.29541	0.03043
3595.00964	0.03088
3593.72387	0.03104
3592.43810	0.03094
3591.15233	0.03070
3589.86656	0.03053
3588.58080	0.03057
3587.29503	0.03081
3586.00926	0.03109
3584.72349	0.03126
3583.43772	0.03121
3582.15195	0.03088
3580.86618	0.03036
3579.58041	0.02992
3578.29464	0.02981
3577.00888	0.03010
3575.72311	0.03065
3574.43734	0.03120
3573.15157	0.03150
3571.86580	0.03144
3570.58003	0.03119
3569.29426	0.03110
3568.00849	0.03122
3566.72273	0.03132
3565.43696	0.03119
3564.15119	0.03090
3562.86542	0.03060
3561.57965	0.03036
3560.29388	0.03024
3559.00811	0.03037
3557.72234	0.03079
3556.43657	0.03132
3555.15081	0.03182
3553.86504	0.03220
3552.57927	0.03240
3551.29350	0.03234
3550.00773	0.03207
3548.72196	0.03192
3547.43619	0.03224
3546.15042	0.03308
3544.86466	0.03407
3543.57889	0.03474
3542.29312	0.03481
3541.00735	0.03436
3539.72158	0.03368
3538.43581	0.03309
3537.15004	0.03281
3535.86427	0.03286
3534.57850	0.03309
3533.29274	0.03334
3532.00697	0.03350
3530.72120	0.03360
3529.43543	0.03372
3528.14966	0.03387
3526.86389	0.03401
3525.57812	0.03406
3524.29235	0.03406
3523.00659	0.03417
3521.72082	0.03448
3520.43505	0.03496
3519.14928	0.03552
3517.86351	0.03614
3516.57774	0.03678
3515.29197	0.03736
3514.00620	0.03774
3512.72043	0.03777
3511.43467	0.03747
3510.14890	0.03705
3508.86313	0.03685
3507.57736	0.03699
3506.29159	0.03730
3505.00582	0.03751
3503.72005	0.03758
3502.43428	0.03765
3501.14852	0.03788
3499.86275	0.03824
3498.57698	0.03849
3497.29121	0.03833
3496.00544	0.03772
3494.71967	0.03698
3493.43390	0.03656
3492.14813	0.03670
3490.86236	0.03729
3489.57660	0.03798
3488.29083	0.03846
3487.00506	0.03860
3485.71929	0.03841
3484.43352	0.03806
3483.14775	0.03772
3481.86198	0.03750
3480.57621	0.03741
3479.29045	0.03743
3478.00468	0.03757
3476.71891	0.03786
3475.43314	0.03829
3474.14737	0.03869
3472.86160	0.03881
3471.57583	0.03855
3470.29006	0.03808
3469.00429	0.03776
3467.71853	0.03786
3466.43276	0.03836
3465.14699	0.03893
3463.86122	0.03929
3462.57545	0.03935
3461.28968	0.03929
3460.00391	0.03932
3458.71814	0.03962
3457.43238	0.04016
3456.14661	0.04070
3454.86084	0.04092
3453.57507	0.04060
3452.28930	0.03989
3451.00353	0.03919
3449.71776	0.03894
3448.43199	0.03926
3447.14622	0.03988
3445.86046	0.04034
3444.57469	0.04038
3443.28892	0.04006
3442.00315	0.03966
3440.71738	0.03935
3439.43161	0.03914
3438.14584	0.03897
3436.86007	0.03879
3435.57431	0.03864
3434.28854	0.03873
3433.00277	0.03932
3431.71700	0.04045
3430.43123	0.04174
3429.14546	0.04269
3427.85969	0.04304
3426.57392	0.04289
3425.28815	0.04244
3424.00239	0.04185
3422.71662	0.04128
3421.43085	0.04094
3420.14508	0.04095
3418.85931	0.04119
3417.57354	0.04145
3416.28777	0.04164
3415.00200	0.04178
3413.71624	0.04192
3412.43047	0.04203
3411.14470	0.04214
3409.85893	0.04226
3408.57316	0.04237
3407.28739	0.04243
3406.00162	0.04243
3404.71585	0.04242
3403.43008	0.04249
3402.14432	0.04271
3400.85855	0.04304
3399.57278	0.04326
3398.28701	0.04314
3397.00124	0.04272
3395.71547	0.04232
3394.42970	0.04230
3393.14393	0.04269
3391.85817	0.04318
3390.57240	0.04342
3389.28663	0.04330
3388.00086	0.04293
3386.71509	0.04258
3385.42932	0.04250
3384.14355	0.04277
3382.85778	0.04328
3381.57201	0.04377
3380.28625	0.04400
3379.00048	0.04393
3377.71471	0.04373
3376.42894	0.04362
3375.14317	0.04362
3373.85740	0.04363
3372.57163	0.04355
3371.28586	0.04340
3370.00010	0.04329
3368.71433	0.04326
3367.42856	0.04329
3366.14279	0.04332
3364.85702	0.04334
3363.57125	0.04339
3362.28548	0.04348
3360.99971	0.04357
3359.71394	0.04366
3358.42818	0.04378
3357.14241	0.04397
3355.85664	0.04417
3354.57087	0.04431
3353.28510	0.04438
3351.99933	0.04446
3350.71356	0.04456
3349.42779	0.04455
3348.14202	0.04432
3346.85626	0.04385
3345.57049	0.04329
3344.28472	0.04275
3342.99895	0.04227
3341.71318	0.04189
3340.42741	0.04173
3339.14164	0.04183
3337.85587	0.04204
3336.57011	0.04209
3335.28434	0.04191
3333.99857	0.04172
3332.71280	0.04189
3331.42703	0.04251
3330.14126	0.04328
3328.85549	0.04374
3327.56972	0.04367
3326.28395	0.04323
3324.99819	0.04282
3323.71242	0.04265
3322.42665	0.04266
3321.14088	0.04271
3319.85511	0.04278
3318.56934	0.04294
3317.28357	0.04315
3315.99780	0.04339
3314.71204	0.04361
3313.42627	0.04380
3312.14050	0.04396
3310.85473	0.04412
3309.56896	0.04427
3308.28319	0.04435
3306.99742	0.04433
3305.71165	0.04423
3304.42588	0.04402
3303.14012	0.04365
3301.85435	0.04312
3300.56858	0.04260
3299.28281	0.04227
3297.99704	0.04213
3296.71127	0.04207
3295.42550	0.04197
3294.13973	0.04180
3292.85397	0.04158
3291.56820	0.04139
3290.28243	0.04135
3288.99666	0.04154
3287.71089	0.04192
3286.42512	0.04225
3285.13935	0.04230
3283.85358	0.04204
3282.56781	0.04167
3281.28205	0.04145
3279.99628	0.04150
3278.71051	0.04175
3277.42474	0.04201
3276.13897	0.04211
3274.85320	0.04200
3273.56743	0.04177
3272.28166	0.04156
3270.99590	0.04145
3269.71013	0.04141
3268.42436	0.04134
3267.13859	0.04118
3265.85282	0.04106
3264.56705	0.04119
3263.28128	0.04161
3261.99551	0.04216
3260.70974	0.04260
3259.42398	0.04276
3258.13821	0.04268
3256.85244	0.04248
3255.56667	0.04227
3254.28090	0.04208
3252.99513	0.04196
3251.70936	0.04196
3250.42359	0.04201
3249.13783	0.04195
3247.85206	0.04167
3246.56629	0.04126
3245.28052	0.04096
3243.99475	0.04093
3242.70898	0.04110
3241.42321	0.04127
3240.13744	0.04127
3238.85167	0.04110
3237.56591	0.04083
3236.28014	0.04057
3234.99437	0.04034
3233.70860	0.04017
3232.42283	0.04008
3231.13706	0.04009
3229.85129	0.04021
3228.56552	0.04044
3227.27976	0.04066
3225.99399	0.04080
3224.70822	0.04086
3223.42245	0.04096
3222.13668	0.04118
3220.85091	0.04143
3219.56514	0.04154
3218.27937	0.04142
3216.99360	0.04105
3215.70784	0.04053
3214.42207	0.04006
3213.13630	0.03984
3211.85053	0.03988
3210.56476	0.03998
3209.27899	0.03997
3207.99322	0.03986
3206.70745	0.03979
3205.42169	0.03987
3204.13592	0.04010
3202.85015	0.04035
3201.56438	0.04049
3200.27861	0.04044
3198.99284	0.04021
3197.70707	0.03989
3196.42130	0.03957
3195.13553	0.03930
3193.84977	0.03913
3192.56400	0.03901
3191.27823	0.03896
3189.99246	0.03904
3188.70669	0.03929
3187.42092	0.03962
3186.13515	0.03985
3184.84938	0.03986
3183.56362	0.03974
3182.27785	0.03961
3180.99208	0.03953
3179.70631	0.03938
3178.42054	0.03903
3177.13477	0.03849
3175.84900	0.03794
3174.56323	0.03764
3173.27746	0.03773
3171.99170	0.03813
3170.70593	0.03863
3169.42016	0.03896
3168.13439	0.03900
3166.84862	0.03874
3165.56285	0.03826
3164.27708	0.03769
3162.99131	0.03722
3161.70555	0.03708
3160.41978	0.03733
3159.13401	0.03776
3157.84824	0.03801
3156.56247	0.03794
3155.27670	0.03769
3153.99093	0.03751
3152.70516	0.03746
3151.41939	0.03746
3150.13363	0.03739
3148.84786	0.03725
3147.56209	0.03715
3146.27632	0.03720
3144.99055	0.03741
3143.70478	0.03764
3142.41901	0.03773
3141.13324	0.03752
3139.84748	0.03705
3138.56171	0.03652
3137.27594	0.03614
3135.99017	0.03600
3134.70440	0.03606
3133.41863	0.03623
3132.13286	0.03643
3130.84709	0.03663
3129.56132	0.03671
3128.27556	0.03658
3126.98979	0.03624
3125.70402	0.03585
3124.41825	0.03559
3123.13248	0.03548
3121.84671	0.03553
3120.56094	0.03575
3119.27517	0.03612
3117.98940	0.03652
3116.70364	0.03677
3115.41787	0.03676
3114.13210	0.03645
3112.84633	0.03592
3111.56056	0.03536
3110.27479	0.03495
3108.98902	0.03478
3107.70325	0.03488
3106.41749	0.03518
3105.13172	0.03559
3103.84595	0.03599
3102.56018	0.03626
3101.27441	0.03643
3099.98864	0.03648
3098.70287	0.03634
3097.41710	0.03592
3096.13133	0.03530
3094.84557	0.03476
3093.55980	0.03457
3092.27403	0.03474
3090.98826	0.03510
3089.70249	0.03547
3088.41672	0.03576
3087.13095	0.03588
3085.84518	0.03565
3084.55942	0.03507
3083.27365	0.03444
3081.98788	0.03415
3080.70211	0.03432
3079.41634	0.03473
3078.13057	0.03513
3076.84480	0.03536
3075.55903	0.03540
3074.27326	0.03524
3072.98750	0.03485
3071.70173	0.03430
3070.41596	0.03377
3069.13019	0.03343
3067.84442	0.03335
3066.55865	0.03342
3065.27288	0.03357
3063.98711	0.03379
3062.70135	0.03406
3061.41558	0.03431
3060.12981	0.03442
3058.84404	0.03437
3057.55827	0.03420
3056.27250	0.03398
3054.98673	0.03374
3053.70096	0.03350
3052.41519	0.03330
3051.12943	0.03319
3049.84366	0.03320
3048.55789	0.03334
3047.27212	0.03363
3045.98635	0.03400
3044.70058	0.03426
3043.41481	0.03416
3042.12904	0.03362
3040.84328	0.03289
3039.55751	0.03238
3038.27174	0.03231
3036.98597	0.03259
3035.70020	0.03288
3034.41443	0.03296
3033.12866	0.03286
3031.84289	0.03269
3030.55712	0.03253
3029.27136	0.03236
3027.98559	0.03218
3026.69982	0.03202
3025.41405	0.03197
3024.12828	0.03199
3022.84251	0.03200
3021.55674	0.03189
3020.27097	0.03168
3018.98521	0.03151
3017.69944	0.03152
3016.41367	0.03173
3015.12790	0.03201
3013.84213	0.03217
3012.55636	0.03208
3011.27059	0.03182
3009.98482	0.03161
3008.69905	0.03171
3007.41329	0.03212
3006.12752	0.03265
3004.84175	0.03298
3003.55598	0.03293
3002.27021	0.03248
3000.98444	0.03185
2999.69867	0.03137
2998.41290	0.03131
2997.12714	0.03156
2995.84137	0.03177
2994.55560	0.03163
2993.26983	0.03119
2991.98406	0.03077
2990.69829	0.03069
2989.41252	0.03101
2988.12675	0.03149
2986.84098	0.03179
2985.55522	0.03176
2984.26945	0.03155
2982.98368	0.03151
2981.69791	0.03184
2980.41214	0.03242
2979.12637	0.03292
2977.84060	0.03310
2976.55483	0.03297
2975.26907	0.03272
2973.98330	0.03253
2972.69753	0.03257
2971.41176	0.03287
2970.12599	0.03332
2968.84022	0.03376
2967.55445	0.03414
2966.26868	0.03446
2964.98291	0.03475
2963.69715	0.03500
2962.41138	0.03524
2961.12561	0.03554
2959.83984	0.03593
2958.55407	0.03638
2957.26830	0.03682
2955.98253	0.03721
2954.69676	0.03751
2953.41100	0.03769
2952.12523	0.03777
2950.83946	0.03780
2949.55369	0.03784
2948.26792	0.03792
2946.98215	0.03795
2945.69638	0.03779
2944.41061	0.03737
2943.12484	0.03682
2941.83908	0.03638
2940.55331	0.03624
2939.26754	0.03636
2937.98177	0.03655
2936.69600	0.03671
2935.41023	0.03693
2934.12446	0.03735
2932.83869	0.03794
2931.55293	0.03853
2930.26716	0.03898
2928.98139	0.03931
2927.69562	0.03958
2926.40985	0.03974
2925.12408	0.03970
2923.83831	0.03942
2922.55254	0.03894
2921.26677	0.03839
2919.98101	0.03793
2918.69524	0.03767
2917.40947	0.03761
2916.12370	0.03757
2914.83793	0.03741
2913.55216	0.03715
2912.26639	0.03694
2910.98062	0.03681
2909.69486	0.03669
2908.40909	0.03653
2907.12332	0.03635
2905.83755	0.03617
2904.55178	0.03591
2903.26601	0.03556
2901.98024	0.03519
2900.69447	0.03485
2899.40870	0.03455
2898.12294	0.03430
2896.83717	0.03414
2895.55140	0.03409
2894.26563	0.03407
2892.97986	0.03395
2891.69409	0.03366
2890.40832	0.03327
2889.12255	0.03286
2887.83678	0.03252
2886.55102	0.03231
2885.26525	0.03222
2883.97948	0.03222
2882.69371	0.03222
2881.40794	0.03221
2880.12217	0.03223
2878.83640	0.03239
2877.55063	0.03267
2876.26487	0.03291
2874.97910	0.03293
2873.69333	0.03273
2872.40756	0.03258
2871.12179	0.03276
2869.83602	0.03322
2868.55025	0.03364
2867.26448	0.03372
2865.97871	0.03346
2864.69295	0.03312
2863.40718	0.03289
2862.12141	0.03280
2860.83564	0.03276
2859.54987	0.03265
2858.26410	0.03244
2856.97833	0.03212
2855.69256	0.03173
2854.40680	0.03140
2853.12103	0.03117
2851.83526	0.03102
2850.54949	0.03086
2849.26372	0.03070
2847.97795	0.03062
2846.69218	0.03060
2845.40641	0.03053
2844.12064	0.03036
2842.83488	0.03021
2841.54911	0.03019
2840.26334	0.03026
2838.97757	0.03020
2837.69180	0.02985
2836.40603	0.02922
2835.12026	0.02849
2833.83449	0.02787
2832.54873	0.02748
2831.26296	0.02734
2829.97719	0.02736
2828.69142	0.02740
2827.40565	0.02738
2826.11988	0.02730
2824.83411	0.02720
2823.54834	0.02703
2822.26257	0.02676
2820.97681	0.02645
2819.69104	0.02624
2818.40527	0.02622
2817.11950	0.02626
2815.83373	0.02619
2814.54796	0.02593
2813.26219	0.02563
2811.97642	0.02549
2810.69066	0.02554
2809.40489	0.02565
2808.11912	0.02562
2806.83335	0.02544
2805.54758	0.02518
2804.26181	0.02498
2802.97604	0.02492
2801.69027	0.02500
2800.40450	0.02517
2799.11874	0.02535
2797.83297	0.02548
2796.54720	0.02552
2795.26143	0.02549
2793.97566	0.02538
2792.68989	0.02520
2791.40412	0.02495
2790.11835	0.02474
2788.83259	0.02471
2787.54682	0.02486
2786.26105	0.02502
2784.97528	0.02504
2783.68951	0.02488
2782.40374	0.02467
2781.11797	0.02450
2779.83220	0.02434
2778.54643	0.02415
2777.26067	0.02398
2775.97490	0.02392
2774.68913	0.02400
2773.40336	0.02425
2772.11759	0.02460
2770.83182	0.02490
2769.54605	0.02493
2768.26028	0.02463
2766.97452	0.02416
2765.68875	0.02386
2764.40298	0.02388
2763.11721	0.02409
2761.83144	0.02425
2760.54567	0.02418
2759.25990	0.02397
2757.97413	0.02380
2756.68836	0.02379
2755.40260	0.02389
2754.11683	0.02398
2752.83106	0.02395
2751.54529	0.02376
2750.25952	0.02349
2748.97375	0.02331
2747.68798	0.02331
2746.40221	0.02346
2745.11645	0.02361
2743.83068	0.02362
2742.54491	0.02353
2741.25914	0.02347
2739.97337	0.02352
2738.68760	0.02365
2737.40183	0.02373
2736.11606	0.02372
2734.83029	0.02370
2733.54453	0.02372
2732.25876	0.02376
2730.97299	0.02376
2729.68722	0.02370
2728.40145	0.02361
2727.11568	0.02351
2725.82991	0.02334
2724.54414	0.02309
2723.25838	0.02281
2721.97261	0.02257
2720.68684	0.02242
2719.40107	0.02235
2718.11530	0.02234
2716.82953	0.02234
2715.54376	0.02235
2714.25799	0.02235
2712.97222	0.02239
2711.68646	0.02251
2710.40069	0.02271
2709.11492	0.02288
2707.82915	0.02287
2706.54338	0.02263
2705.25761	0.02230
2703.97184	0.02209
2702.68607	0.02218
2701.40031	0.02250
2700.11454	0.02281
2698.82877	0.02292
2697.54300	0.02283
2696.25723	0.02269
2694.97146	0.02258
2693.68569	0.02246
2692.39992	0.02231
2691.11415	0.02215
2689.82839	0.02208
2688.54262	0.02210
2687.25685	0.02215
2685.97108	0.02223
2684.68531	0.02230
2683.39954	0.02231
2682.11377	0.02220
2680.82800	0.02196
2679.54224	0.02169
2678.25647	0.02149
2676.97070	0.02141
2675.68493	0.02138
2674.39916	0.02135
2673.11339	0.02132
2671.82762	0.02132
2670.54185	0.02134
2669.25608	0.02134
2667.97032	0.02134
2666.68455	0.02139
2665.39878	0.02156
2664.11301	0.02180
2662.82724	0.02197
2661.54147	0.02199
2660.25570	0.02187
2658.96993	0.02175
2657.68417	0.02172
2656.39840	0.02176
2655.11263	0.02175
2653.82686	0.02158
2652.54109	0.02128
2651.25532	0.02096
2649.96955	0.02079
2648.68378	0.02086
2647.39801	0.02109
2646.11225	0.02130
2644.82648	0.02135
2643.54071	0.02129
2642.25494	0.02119
2640.96917	0.02112
2639.68340	0.02108
2638.39763	0.02100
2637.11186	0.02073
2635.82609	0.02023
2634.54033	0.01965
2633.25456	0.01931
2631.96879	0.01935
2630.68302	0.01968
2629.39725	0.02003
2628.11148	0.02024
2626.82571	0.02031
2625.53994	0.02035
2624.25418	0.02034
2622.96841	0.02021
2621.68264	0.01998
2620.39687	0.01976
2619.11110	0.01963
2617.82533	0.01953
2616.53956	0.01936
2615.25379	0.01916
2613.96802	0.01900
2612.68226	0.01891
2611.39649	0.01888
2610.11072	0.01883
2608.82495	0.01870
2607.53918	0.01849
2606.25341	0.01832
2604.96764	0.01832
2603.68187	0.01845
2602.39611	0.01856
2601.11034	0.01858
2599.82457	0.01861
2598.53880	0.01872
2597.25303	0.01878
2595.96726	0.01865
2594.68149	0.01837
2593.39572	0.01812
2592.10995	0.01801
2590.82419	0.01805
2589.53842	0.01814
2588.25265	0.01814
2586.96688	0.01789
2585.68111	0.01749
2584.39534	0.01711
2583.10957	0.01686
2581.82380	0.01665
2580.53804	0.01637
2579.25227	0.01612
2577.96650	0.01614
2576.68073	0.01658
2575.39496	0.01729
2574.10919	0.01787
2572.82342	0.01801
2571.53765	0.01776
2570.25188	0.01742
2568.96612	0.01723
2567.68035	0.01714
2566.39458	0.01701
2565.10881	0.01685
2563.82304	0.01686
2562.53727	0.01714
2561.25150	0.01746
2559.96573	0.01753
2558.67997	0.01728
2557.39420	0.01696
2556.10843	0.01680
2554.82266	0.01680
2553.53689	0.01685
2552.25112	0.01694
2550.96535	0.01716
2549.67958	0.01746
2548.39381	0.01773
2547.10805	0.01784
2545.82228	0.01777
2544.53651	0.01764
2543.25074	0.01759
2541.96497	0.01766
2540.67920	0.01776
2539.39343	0.01780
2538.10766	0.01765
2536.82190	0.01730
2535.53613	0.01682
2534.25036	0.01637
2532.96459	0.01610
2531.67882	0.01605
2530.39305	0.01617
2529.10728	0.01628
2527.82151	0.01622
2526.53574	0.01610
2525.24998	0.01612
2523.96421	0.01640
2522.67844	0.01674
2521.39267	0.01687
2520.10690	0.01666
2518.82113	0.01631
2517.53536	0.01613
2516.24959	0.01623
2514.96383	0.01646
2513.67806	0.01660
2512.39229	0.01666
2511.10652	0.01672
2509.82075	0.01672
2508.53498	0.01655
2507.24921	0.01624
2505.96344	0.01595
2504.67767	0.01584
2503.39191	0.01600
2502.10614	0.01633
2500.82037	0.01659
2499.53460	0.01653
2498.24883	0.01616
2496.96306	0.01577
2495.67729	0.01568
2494.39152	0.01592
2493.10576	0.01625
2491.81999	0.01640
2490.53422	0.01638
2489.24845	0.01630
2487.96268	0.01624
2486.67691	0.01617
2485.39114	0.01610
2484.10537	0.01611
2482.81960	0.01613
2481.53384	0.01603
2480.24807	0.01575
2478.96230	0.01547
2477.67653	0.01537
2476.39076	0.01540
2475.10499	0.01543
2473.81922	0.01539
2472.53345	0.01538
2471.24769	0.01556
2469.96192	0.01594
2468.67615	0.01636
2467.39038	0.01654
2466.10461	0.01628
2464.81884	0.01566
2463.53307	0.01498
2462.24730	0.01457
2460.96153	0.01460
2459.67577	0.01500
2458.39000	0.01549
2457.10423	0.01574
2455.81846	0.01567
2454.53269	0.01543
2453.24692	0.01525
2451.96115	0.01522
2450.67538	0.01534
2449.38962	0.01567
2448.10385	0.01612
2446.81808	0.01638
2445.53231	0.01619
2444.24654	0.01567
2442.96077	0.01519
2441.67500	0.01497
2440.38923	0.01486
2439.10346	0.01467
2437.81770	0.01446
2436.53193	0.01439
2435.24616	0.01456
2433.96039	0.01491
2432.67462	0.01530
2431.38885	0.01561
2430.10308	0.01575
2428.81731	0.01563
2427.53155	0.01536
2426.24578	0.01511
2424.96001	0.01499
2423.67424	0.01499
2422.38847	0.01511
2421.10270	0.01530
2419.81693	0.01547
2418.53116	0.01544
2417.24539	0.01520
2415.95963	0.01484
2414.67386	0.01448
2413.38809	0.01423
2412.10232	0.01420
2410.81655	0.01449
2409.53078	0.01499
2408.24501	0.01546
2406.95924	0.01571
2405.67347	0.01575
2404.38771	0.01569
2403.10194	0.01562
2401.81617	0.01554
2400.53040	0.01545
2399.24463	0.01539
2397.95886	0.01533
2396.67309	0.01523
2395.38732	0.01504
2394.10156	0.01477
2392.81579	0.01453
2391.53002	0.01436
2390.24425	0.01430
2388.95848	0.01434
2387.67271	0.01442
2386.38694	0.01448
2385.10117	0.01443
2383.81540	0.01429
2382.52964	0.01414
2381.24387	0.01413
2379.95810	0.01428
2378.67233	0.01450
2377.38656	0.01468
2376.10079	0.01477
2374.81502	0.01481
2373.52925	0.01486
2372.24349	0.01493
2370.95772	0.01495
2369.67195	0.01492
2368.38618	0.01485
2367.10041	0.01474
2365.81464	0.01456
2364.52887	0.01435
2363.24310	0.01426
2361.95733	0.01436
2360.67157	0.01457
2359.38580	0.01477
2358.10003	0.01494
2356.81426	0.01514
2355.52849	0.01536
2354.24272	0.01549
2352.95695	0.01549
2351.67118	0.01543
2350.38542	0.01542
2349.09965	0.01542
2347.81388	0.01538
2346.52811	0.01531
2345.24234	0.01532
2343.95657	0.01544
2342.67080	0.01557
2341.38503	0.01556
2340.09926	0.01535
2338.81350	0.01505
2337.52773	0.01483
2336.24196	0.01481
2334.95619	0.01494
2333.67042	0.01508
2332.38465	0.01515
2331.09888	0.01515
2329.81311	0.01515
2328.52735	0.01524
2327.24158	0.01547
2325.95581	0.01583
2324.67004	0.01615
2323.38427	0.01626
2322.09850	0.01614
2320.81273	0.01588
2319.52696	0.01565
2318.24119	0.01546
2316.95543	0.01525
2315.66966	0.01500
2314.38389	0.01479
2313.09812	0.01475
2311.81235	0.01484
2310.52658	0.01489
2309.24081	0.01467
2307.95504	0.01421
2306.66928	0.01375
2305.38351	0.01356
2304.09774	0.01375
2302.81197	0.01418
2301.52620	0.01457
2300.24043	0.01468
2298.95466	0.01439
2297.66889	0.01383
2296.38312	0.01334
2295.09736	0.01330
2293.81159	0.01377
2292.52582	0.01446
2291.24005	0.01504
2289.95428	0.01535
2288.66851	0.01547
2287.38274	0.01544
2286.09697	0.01527
2284.81121	0.01493
2283.52544	0.01450
2282.23967	0.01407
2280.95390	0.01371
2279.66813	0.01347
2278.38236	0.01342
2277.09659	0.01356
2275.81082	0.01382
2274.52505	0.01408
2273.23929	0.01427
2271.95352	0.01439
2270.66775	0.01442
2269.38198	0.01432
2268.09621	0.01405
2266.81044	0.01358
2265.52467	0.01293
2264.23890	0.01222
2262.95314	0.01168
2261.66737	0.01152
2260.38160	0.01175
2259.09583	0.01213
2257.81006	0.01237
2256.52429	0.01231
2255.23852	0.01204
2253.95275	0.01173
2252.66698	0.01147
2251.38122	0.01121
2250.09545	0.01100
2248.80968	0.01104
2247.52391	0.01139
2246.23814	0.01205
2244.95237	0.01271
2243.66660	0.01307
2242.38083	0.01306
2241.09507	0.01278
2239.80930	0.01242
2238.52353	0.01210
2237.23776	0.01177
2235.95199	0.01135
2234.66622	0.01089
2233.38045	0.01062
2232.09468	0.01065
2230.80891	0.01081
2229.52315	0.01086
2228.23738	0.01079
2226.95161	0.01068
2225.66584	0.01053
2224.38007	0.01020
2223.09430	0.00959
2221.80853	0.00879
2220.52276	0.00811
2219.23700	0.00784
2217.95123	0.00798
2216.66546	0.00822
2215.37969	0.00827
2214.09392	0.00829
2212.80815	0.00857
2211.52238	0.00899
2210.23661	0.00908
2208.95084	0.00865
2207.66508	0.00802
2206.37931	0.00767
2205.09354	0.00766
2203.80777	0.00760
2202.52200	0.00703
2201.23623	0.00581
2199.95046	0.00444
2198.66469	0.00389
2197.37893	0.00460
2196.09316	0.00592
2194.80739	0.00683
2193.52162	0.00707
2192.23585	0.00720
2190.95008	0.00760
2189.66431	0.00800
2188.37854	0.00813
2187.09277	0.00817
2185.80701	0.00837
2184.52124	0.00851
2183.23547	0.00816
2181.94970	0.00723
2180.66393	0.00613
2179.37816	0.00539
2178.09239	0.00524
2176.80662	0.00567
2175.52085	0.00659
2174.23509	0.00788
2172.94932	0.00910
2171.66355	0.00961
2170.37778	0.00917
2169.09201	0.00820
2167.80624	0.00724
2166.52047	0.00653
2165.23470	0.00590
2163.94894	0.00511
2162.66317	0.00404
2161.37740	0.00268
2160.09163	0.00122
2158.80586	0.00006
2157.52009	-0.00029
2156.23432	0.00033
2154.94855	0.00154
2153.66278	0.00266
2152.37702	0.00325
2151.09125	0.00330
2149.80548	0.00312
2148.51971	0.00303
2147.23394	0.00318
2145.94817	0.00345
2144.66240	0.00371
2143.37663	0.00405
2142.09087	0.00463
2140.80510	0.00536
2139.51933	0.00594
2138.23356	0.00622
2136.94779	0.00635
2135.66202	0.00646
2134.37625	0.00647
2133.09048	0.00626
2131.80471	0.00580
2130.51895	0.00515
2129.23318	0.00455
2127.94741	0.00438
2126.66164	0.00493
2125.37587	0.00598
2124.09010	0.00698
2122.80433	0.00746
2121.51856	0.00740
2120.23280	0.00713
2118.94703	0.00697
2117.66126	0.00694
2116.37549	0.00691
2115.08972	0.00680
2113.80395	0.00674
2112.51818	0.00694
2111.23241	0.00756
2109.94664	0.00857
2108.66088	0.00959
2107.37511	0.01005
2106.08934	0.00963
2104.80357	0.00859
2103.51780	0.00755
2102.23203	0.00696
2100.94626	0.00681
2099.66049	0.00748
2098.37473	0.00761
2097.08896	0.00707
2095.80319	0.00624
2094.51742	0.00544
2093.23165	0.00498
2091.94588	0.00502
2090.66011	0.00538
2089.37434	0.00571
2088.08857	0.00573
2086.80281	0.00546
2085.51704	0.00513
2084.23127	0.00498
2082.94550	0.00509
2081.65973	0.00536
2080.37396	0.00564
2079.08819	0.00587
2077.80242	0.00604
2076.51666	0.00616
2075.23089	0.00624
2073.94512	0.00634
2072.65935	0.00648
2071.37358	0.00661
2070.08781	0.00655
2068.80204	0.00621
2067.51627	0.00559
2066.23050	0.00477
2064.94474	0.00385
2063.65897	0.00298
2062.37320	0.00237
2061.08743	0.00211
2059.80166	0.00219
2058.51589	0.00251
2057.23012	0.00288
2055.94435	0.00311
2054.65859	0.00324
2053.37282	0.00348
2052.08705	0.00401
2050.80128	0.00465
2049.51551	0.00494
2048.22974	0.00458
2046.94397	0.00362
2045.65820	0.00239
2044.37243	0.00114
2043.08667	0.00002
2041.80090	-0.00079
2040.51513	-0.00113
2039.22936	-0.00104
2037.94359	-0.00069
2036.65782	-0.00023
2035.37205	0.00020
2034.08628	0.00045
2032.80052	0.00043
2031.51475	0.00032
2030.22898	0.00042
2028.94321	0.00090
2027.65744	0.00164
2026.37167	0.00231
2025.08590	0.00250
2023.80013	0.00202
2022.51436	0.00110
2021.22860	0.00029
2019.94283	0.00010
2018.65706	0.00064
2017.37129	0.00150
2016.08552	0.00209
2014.79975	0.00214
2013.51398	0.00201
2012.22821	0.00230
2010.94245	0.00322
2009.65668	0.00432
2008.37091	0.00492
2007.08514	0.00477
2005.79937	0.00426
2004.51360	0.00411
2003.22783	0.00473
2001.94206	0.00579
2000.65629	0.00647
1999.37053	0.00625
1998.08476	0.00540
1996.79899	0.00474
1995.51322	0.00485
1994.22745	0.00551
1992.94168	0.00611
1991.65591	0.00629
1990.37014	0.00615
1989.08438	0.00584
1987.79861	0.00545
1986.51284	0.00515
1985.22707	0.00525
1983.94130	0.00597
1982.65553	0.00726
1981.36976	0.00875
1980.08399	0.00996
1978.79822	0.01049
1977.51246	0.01021
1976.22669	0.00929
1974.94092	0.00808
1973.65515	0.00703
1972.36938	0.00646
1971.08361	0.00639
1969.79784	0.00653
1968.51207	0.00662
1967.22631	0.00669
1965.94054	0.00697
1964.65477	0.00756
1963.36900	0.00833
1962.08323	0.00897
1960.79746	0.00914
1959.51169	0.00864
1958.22592	0.00754
1956.94015	0.00623
1955.65439	0.00536
1954.36862	0.00538
1953.08285	0.00616
1951.79708	0.00698
1950.51131	0.00721
1949.22554	0.00676
1947.93977	0.00613
1946.65400	0.00591
1945.36823	0.00631
1944.08247	0.00711
1942.79670	0.00794
1941.51093	0.00847
1940.22516	0.00849
1938.93939	0.00802
1937.65362	0.00737
1936.36785	0.00698
1935.08208	0.00718
1933.79632	0.00790
1932.51055	0.00877
1931.22478	0.00938
1929.93901	0.00952
1928.65324	0.00919
1927.36747	0.00852
1926.08170	0.00775
1924.79593	0.00719
1923.51016	0.00701
1922.22440	0.00720
1920.93863	0.00752
1919.65286	0.00775
1918.36709	0.00784
1917.08132	0.00782
1915.79555	0.00774
1914.50978	0.00771
1913.22401	0.00782
1911.93825	0.00810
1910.65248	0.00840
1909.36671	0.00855
1908.08094	0.00851
1906.79517	0.00834
1905.50940	0.00816
1904.22363	0.00806
1902.93786	0.00810
1901.65209	0.00832
1900.36633	0.00866
1899.08056	0.00900
1897.79479	0.00918
1896.50902	0.00918
1895.22325	0.00906
1893.93748	0.00890
1892.65171	0.00868
1891.36594	0.00837
1890.08018	0.00804
1888.79441	0.00781
1887.50864	0.00778
1886.22287	0.00793
1884.93710	0.00823
1883.65133	0.00863
1882.36556	0.00905
1881.07979	0.00939
1879.79402	0.00958
1878.50826	0.00957
1877.22249	0.00938
1875.93672	0.00905
1874.65095	0.00867
1873.36518	0.00839
1872.07941	0.00831
1870.79364	0.00844
1869.50787	0.00864
1868.22211	0.00874
1866.93634	0.00867
1865.65057	0.00856
1864.36480	0.00856
1863.07903	0.00870
1861.79326	0.00889
1860.50749	0.00905
1859.22172	0.00919
1857.93595	0.00931
1856.65019	0.00934
1855.36442	0.00925
1854.07865	0.00908
1852.79288	0.00887
1851.50711	0.00866
1850.22134	0.00853
1848.93557	0.00855
1847.64980	0.00868
1846.36404	0.00878
1845.07827	0.00880
1843.79250	0.00885
1842.50673	0.00900
1841.22096	0.00913
1839.93519	0.00913
1838.64942	0.00901
1837.36365	0.00888
1836.07788	0.00879
1834.79212	0.00876
1833.50635	0.00878
1832.22058	0.00883
1830.93481	0.00887
1829.64904	0.00896
1828.36327	0.00912
1827.07750	0.00932
1825.79173	0.00948
1824.50597	0.00956
1823.22020	0.00952
1821.93443	0.00941
1820.64866	0.00932
1819.36289	0.00930
1818.07712	0.00928
1816.79135	0.00923
1815.50558	0.00918
1814.21981	0.00917
1812.93405	0.00921
1811.64828	0.00926
1810.36251	0.00931
1809.07674	0.00937
1807.79097	0.00944
1806.50520	0.00953
1805.21943	0.00961
1803.93366	0.00964
1802.64790	0.00958
1801.36213	0.00949
1800.07636	0.00946
1798.79059	0.00956
1797.50482	0.00977
1796.21905	0.00997
1794.93328	0.01004
1793.64751	0.00998
1792.36174	0.00991
1791.07598	0.00993
1789.79021	0.00997
1788.50444	0.00999
1787.21867	0.00998
1785.93290	0.00998
1784.64713	0.01000
1783.36136	0.01002
1782.07559	0.01003
1780.78983	0.01005
1779.50406	0.01009
1778.21829	0.01015
1776.93252	0.01019
1775.64675	0.01018
1774.36098	0.01008
1773.07521	0.01001
1771.78944	0.01010
1770.50367	0.01028
1769.21791	0.01038
1767.93214	0.01040
1766.64637	0.01043
1765.36060	0.01051
1764.07483	0.01056
1762.78906	0.01056
1761.50329	0.01058
1760.21752	0.01063
1758.93176	0.01068
1757.64599	0.01072
1756.36022	0.01077
1755.07445	0.01080
1753.78868	0.01076
1752.50291	0.01070
1751.21714	0.01074
1749.93137	0.01086
1748.64560	0.01096
1747.35984	0.01098
1746.07407	0.01101
1744.78830	0.01111
1743.50253	0.01125
1742.21676	0.01135
1740.93099	0.01140
1739.64522	0.01151
1738.35945	0.01173
1737.07369	0.01194
1735.78792	0.01196
1734.50215	0.01188
1733.21638	0.01187
1731.93061	0.01192
1730.64484	0.01190
1729.35907	0.01182
1728.07330	0.01182
1726.78753	0.01190
1725.50177	0.01203
1724.21600	0.01221
1722.93023	0.01246
1721.64446	0.01272
1720.35869	0.01290
1719.07292	0.01299
1717.78715	0.01314
1716.50138	0.01341
1715.21561	0.01368
1713.92985	0.01383
1712.64408	0.01389
1711.35831	0.01397
1710.07254	0.01412
1708.78677	0.01435
1707.50100	0.01462
1706.21523	0.01493
1704.92946	0.01532
1703.64370	0.01570
1702.35793	0.01590
1701.07216	0.01594
1699.78639	0.01607
1698.50062	0.01628
1697.21485	0.01638
1695.92908	0.01642
1694.64331	0.01661
1693.35754	0.01686
1692.07178	0.01697
1690.78601	0.01703
1689.50024	0.01725
1688.21447	0.01764
1686.92870	0.01796
1685.64293	0.01813
1684.35716	0.01829
1683.07139	0.01855
1681.78563	0.01878
1680.49986	0.01893
1679.21409	0.01911
1677.92832	0.01933
1676.64255	0.01953
1675.35678	0.01971
1674.07101	0.01997
1672.78524	0.02028
1671.49947	0.02052
1670.21371	0.02068
1668.92794	0.02083
1667.64217	0.02102
1666.35640	0.02123
1665.07063	0.02140
1663.78486	0.02155
1662.49909	0.02174
1661.21332	0.02196
1659.92756	0.02218
1658.64179	0.02242
1657.35602	0.02273
1656.07025	0.02304
1654.78448	0.02321
1653.49871	0.02333
1652.21294	0.02358
1650.92717	0.02387
1649.64140	0.02393
1648.35564	0.02377
1647.06987	0.02364
1645.78410	0.02370
1644.49833	0.02387
1643.21256	0.02398
1641.92679	0.02399
1640.64102	0.02400
1639.35525	0.02408
1638.06949	0.02418
1636.78372	0.02428
1635.49795	0.02441
1634.21218	0.02460
1632.92641	0.02476
1631.64064	0.02483
1630.35487	0.02492
1629.06910	0.02513
1627.78333	0.02542
1626.49757	0.02568
1625.21180	0.02580
1623.92603	0.02582
1622.64026	0.02587
1621.35449	0.02601
1620.06872	0.02618
1618.78295	0.02631
1617.49718	0.02644
1616.21142	0.02672
1614.92565	0.02709
1613.63988	0.02739
1612.35411	0.02756
1611.06834	0.02770
1609.78257	0.02789
1608.49680	0.02810
1607.21103	0.02829
1605.92526	0.02846
1604.63950	0.02861
1603.35373	0.02878
1602.06796	0.02899
1600.78219	0.02920
1599.49642	0.02940
1598.21065	0.02959
1596.92488	0.02980
1595.63911	0.03003
1594.35335	0.03027
1593.06758	0.03048
1591.78181	0.03065
1590.49604	0.03077
1589.21027	0.03085
1587.92450	0.03091
1586.63873	0.03096
1585.35296	0.03103
1584.06719	0.03111
1582.78143	0.03121
1581.49566	0.03138
1580.20989	0.03162
1578.92412	0.03183
1577.63835	0.03191
1576.35258	0.03193
1575.06681	0.03207
1573.78104	0.03227
1572.49528	0.03238
1571.20951	0.03237
1569.92374	0.03236
1568.63797	0.03243
1567.35220	0.03252
1566.06643	0.03258
1564.78066	0.03268
1563.49489	0.03290
1562.20912	0.03312
1560.92336	0.03320
1559.63759	0.03321
1558.35182	0.03328
1557.06605	0.03338
1555.78028	0.03331
1554.49451	0.03311
1553.20874	0.03293
1551.92297	0.03282
1550.63721	0.03274
1549.35144	0.03273
1548.06567	0.03277
1546.77990	0.03280
1545.49413	0.03278
1544.20836	0.03272
1542.92259	0.03259
1541.63682	0.03234
1540.35105	0.03204
1539.06529	0.03184
1537.77952	0.03175
1536.49375	0.03163
1535.20798	0.03142
1533.92221	0.03125
1532.63644	0.03130
1531.35067	0.03152
1530.06490	0.03181
1528.77914	0.03212
1527.49337	0.03245
1526.20760	0.03279
1524.92183	0.03317
1523.63606	0.03355
1522.35029	0.03397
1521.06452	0.03454
1519.77875	0.03527
1518.49298	0.03600
1517.20722	0.03668
1515.92145	0.03740
1514.63568	0.03819
1513.34991	0.03900
1512.06414	0.03984
1510.77837	0.04076
1509.49260	0.04171
1508.20683	0.04263
1506.92107	0.04357
1505.63530	0.04459
1504.34953	0.04559
1503.06376	0.04642
1501.77799	0.04712
1500.49222	0.04783
1499.20645	0.04857
1497.92068	0.04926
1496.63491	0.04987
1495.34915	0.05048
1494.06338	0.05110
1492.77761	0.05168
1491.49184	0.05224
1490.20607	0.05284
1488.92030	0.05350
1487.63453	0.05420
1486.34876	0.05496
1485.06299	0.05580
1483.77723	0.05673
1482.49146	0.05776
1481.20569	0.05891
1479.91992	0.06010
1478.63415	0.06120
1477.34838	0.06216
1476.06261	0.06299
1474.77684	0.06371
1473.49108	0.06433
1472.20531	0.06488
1470.91954	0.06534
1469.63377	0.06566
1468.34800	0.06587
1467.06223	0.06604
1465.77646	0.06623
1464.49069	0.06649
1463.20492	0.06683
1461.91916	0.06721
1460.63339	0.06762
1459.34762	0.06797
1458.06185	0.06830
1456.77608	0.06872
1455.49031	0.06925
1454.20454	0.06974
1452.91877	0.07005
1451.63301	0.07024
1450.34724	0.07039
1449.06147	0.07050
1447.77570	0.07054
1446.48993	0.07045
1445.20416	0.07019
1443.91839	0.06975
1442.63262	0.06921
1441.34685	0.06866
1440.06109	0.06817
1438.77532	0.06771
1437.48955	0.06731
1436.20378	0.06707
1434.91801	0.06705
1433.63224	0.06722
1432.34647	0.06759
1431.06070	0.06817
1429.77494	0.06897
1428.48917	0.06997
1427.20340	0.07108
1425.91763	0.07227
1424.63186	0.07351
1423.34609	0.07476
1422.06032	0.07592
1420.77455	0.07689
1419.48878	0.07772
1418.20302	0.07846
1416.91725	0.07907
1415.63148	0.07949
1414.34571	0.07972
1413.05994	0.07978
1411.77417	0.07969
1410.48840	0.07940
1409.20263	0.07891
1407.91687	0.07821
1406.63110	0.07733
1405.34533	0.07632
1404.05956	0.07520
1402.77379	0.07397
1401.48802	0.07260
1400.20225	0.07109
1398.91648	0.06950
1397.63071	0.06787
1396.34495	0.06620
1395.05918	0.06448
1393.77341	0.06279
1392.48764	0.06117
1391.20187	0.05961
1389.91610	0.05812
1388.63033	0.05671
1387.34456	0.05536
1386.05880	0.05402
1384.77303	0.05263
1383.48726	0.05117
1382.20149	0.04970
1380.91572	0.04826
1379.62995	0.04685
1378.34418	0.04545
1377.05841	0.04401
1375.77264	0.04251
1374.48688	0.04097
1373.20111	0.03948
1371.91534	0.03806
1370.62957	0.03672
1369.34380	0.03547
1368.05803	0.03434
1366.77226	0.03333
1365.48649	0.03240
1364.20073	0.03150
1362.91496	0.03061
1361.62919	0.02976
1360.34342	0.02895
1359.05765	0.02819
1357.77188	0.02750
1356.48611	0.02690
1355.20034	0.02639
1353.91457	0.02591
1352.62881	0.02543
1351.34304	0.02494
1350.05727	0.02444
1348.77150	0.02393
1347.48573	0.02343
1346.19996	0.02293
1344.91419	0.02246
1343.62842	0.02205
1342.34266	0.02170
1341.05689	0.02141
1339.77112	0.02116
1338.48535	0.02091
1337.19958	0.02065
1335.91381	0.02039
1334.62804	0.02018
1333.34227	0.02000
1332.05650	0.01983
1330.77074	0.01962
1329.48497	0.01935
1328.19920	0.01906
1326.91343	0.01879
1325.62766	0.01857
1324.34189	0.01840
1323.05612	0.01828
1321.77035	0.01816
1320.48459	0.01801
1319.19882	0.01784
1317.91305	0.01768
1316.62728	0.01755
1315.34151	0.01743
1314.05574	0.01732
1312.76997	0.01719
1311.48420	0.01706
1310.19843	0.01697
1308.91267	0.01691
1307.62690	0.01686
1306.34113	0.01680
1305.05536	0.01671
1303.76959	0.01660
1302.48382	0.01648
1301.19805	0.01632
1299.91228	0.01612
1298.62652	0.01591
1297.34075	0.01573
1296.05498	0.01561
1294.76921	0.01554
1293.48344	0.01547
1292.19767	0.01539
1290.91190	0.01531
1289.62613	0.01527
1288.34036	0.01527
1287.05460	0.01530
1285.76883	0.01532
1284.48306	0.01528
1283.19729	0.01517
1281.91152	0.01503
1280.62575	0.01489
1279.33998	0.01479
1278.05421	0.01471
1276.76845	0.01464
1275.48268	0.01458
1274.19691	0.01452
1272.91114	0.01443
1271.62537	0.01435
1270.33960	0.01428
1269.05383	0.01423
1267.76806	0.01422
1266.48229	0.01422
1265.19653	0.01422
1263.91076	0.01419
1262.62499	0.01412
1261.33922	0.01402
1260.05345	0.01390
1258.76768	0.01381
1257.48191	0.01375
1256.19614	0.01372
1254.91037	0.01371
1253.62461	0.01371
1252.33884	0.01371
1251.05307	0.01370
1249.76730	0.01369
1248.48153	0.01365
1247.19576	0.01360
1245.90999	0.01354
1244.62422	0.01348
1243.33846	0.01343
1242.05269	0.01339
1240.76692	0.01336
1239.48115	0.01331
1238.19538	0.01326
1236.90961	0.01321
1235.62384	0.01320
1234.33807	0.01320
1233.05230	0.01323
1231.76654	0.01325
1230.48077	0.01323
1229.19500	0.01315
1227.90923	0.01305
1226.62346	0.01295
1225.33769	0.01289
1224.05192	0.01286
1222.76615	0.01283
1221.48039	0.01280
1220.19462	0.01278
1218.90885	0.01277
1217.62308	0.01275
1216.33731	0.01271
1215.05154	0.01267
1213.76577	0.01264
1212.48000	0.01260
1211.19423	0.01255
1209.90847	0.01251
1208.62270	0.01251
1207.33693	0.01258
1206.05116	0.01268
1204.76539	0.01275
1203.47962	0.01279
1202.19385	0.01279
1200.90808	0.01274
1199.62232	0.01265
1198.33655	0.01269
1197.05078	0.01272
1195.76501	0.01274
1194.47924	0.01274
1193.19347	0.01275
1191.90770	0.01277
1190.62193	0.01280
1189.33616	0.01284
1188.05040	0.01289
1186.76463	0.01298
1185.47886	0.01308
1184.19309	0.01317
1182.90732	0.01323
1181.62155	0.01327
1180.33578	0.01331
1179.05001	0.01334
1177.76425	0.01339
1176.47848	0.01344
1175.19271	0.01347
1173.90694	0.01349
1172.62117	0.01351
1171.33540	0.01356
1170.04963	0.01367
1168.76386	0.01383
1167.47809	0.01400
1166.19233	0.01414
1164.90656	0.01426
1163.62079	0.01439
1162.33502	0.01457
1161.04925	0.01479
1159.76348	0.01506
1158.47771	0.01532
1157.19194	0.01557
1155.90618	0.01578
1154.62041	0.01598
1153.33464	0.01619
1152.04887	0.01643
1150.76310	0.01671
1149.47733	0.01702
1148.19156	0.01735
1146.90579	0.01774
1145.62002	0.01822
1144.33426	0.01881
1143.04849	0.01951
1141.76272	0.02028
1140.47695	0.02109
1139.19118	0.02193
1137.90541	0.02279
1136.61964	0.02374
1135.33387	0.02485
1134.04811	0.02617
1132.76234	0.02769
1131.47657	0.02938
1130.19080	0.03123
1128.90503	0.03326
1127.61926	0.03545
1126.33349	0.03778
1125.04772	0.04024
1123.76195	0.04290
1122.47619	0.04579
1121.19042	0.04888
1119.90465	0.05203
1118.61888	0.05514
1117.33311	0.05817
1116.04734	0.06116
1114.76157	0.06415
1113.47580	0.06710
1112.19004	0.06996
1110.90427	0.07271
1109.61850	0.07536
1108.33273	0.07791
1107.04696	0.08036
1105.76119	0.08274
1104.47542	0.08504
1103.18965	0.08727
1101.90388	0.08940
1100.61812	0.09144
1099.33235	0.09339
1098.04658	0.09524
1096.76081	0.09699
1095.47504	0.09866
1094.18927	0.10029
1092.90350	0.10189
1091.61773	0.10348
1090.33197	0.10505
1089.04620	0.10658
1087.76043	0.10805
1086.47466	0.10950
1085.18889	0.11096
1083.90312	0.11246
1082.61735	0.11400
1081.33158	0.11564
1080.04581	0.11743
1078.76005	0.11941
1077.47428	0.12155
1076.18851	0.12382
1074.90274	0.12620
1073.61697	0.12870
1072.33120	0.13128
1071.04543	0.13392
1069.75966	0.13664
1068.47390	0.13950
1067.18813	0.14256
1065.90236	0.14574
1064.61659	0.14895
1063.33082	0.15214
1062.04505	0.15532
1060.75928	0.15848
1059.47351	0.16157
1058.18774	0.16459
1056.90198	0.16757
1055.61621	0.17055
1054.33044	0.17355
1053.04467	0.17658
1051.75890	0.17967
1050.47313	0.18283
1049.18736	0.18607
1047.90159	0.18940
1046.61583	0.19281
1045.33006	0.19629
1044.04429	0.19979
1042.75852	0.20322
1041.47275	0.20659
1040.18698	0.20995
1038.90121	0.21340
1037.61544	0.21696
1036.32967	0.22059
1035.04391	0.22416
1033.75814	0.22758
1032.47237	0.23075
1031.18660	0.23357
1029.90083	0.23597
1028.61506	0.23795
1027.32929	0.23958
1026.04352	0.24089
1024.75775	0.24185
1023.47199	0.24235
1022.18622	0.24232
1020.90045	0.24176
1019.61468	0.24068
1018.32891	0.23908
1017.04314	0.23698
1015.75737	0.23438
1014.47160	0.23128
1013.18584	0.22767
1011.90007	0.22352
1010.61430	0.21883
1009.32853	0.21361
1008.04276	0.20789
1006.75699	0.20173
1005.47122	0.19521
1004.18545	0.18839
1002.89968	0.18127
1001.61392	0.17385
1000.32815	0.16622
999.04238	0.15855
997.75661	0.15099
996.47084	0.14362
995.18507	0.13646
993.89930	0.12951
992.61353	0.12280
991.32777	0.11641
990.04200	0.11041
988.75623	0.10484
987.47046	0.09968
986.18469	0.09488
984.89892	0.09038
983.61315	0.08619
982.32738	0.08234
981.04161	0.07881
979.75585	0.07557
978.47008	0.07268
977.18431	0.07017
975.89854	0.06805
974.61277	0.06629
973.32700	0.06493
972.04123	0.06401
970.75546	0.06355
969.46970	0.06352
968.18393	0.06390
966.89816	0.06472
965.61239	0.06590
964.32662	0.06723
963.04085	0.06845
961.75508	0.06929
960.46931	0.06953
959.18354	0.06908
957.89778	0.06797
956.61201	0.06629
955.32624	0.06422
954.04047	0.06192
952.75470	0.05960
951.46893	0.05739
950.18316	0.05534
948.89739	0.05339
947.61163	0.05150
946.32586	0.04971
945.04009	0.04805
943.75432	0.04651
942.46855	0.04503
941.18278	0.04360
939.89701	0.04224
938.61124	0.04098
937.32547	0.03981
936.03971	0.03874
934.75394	0.03782
933.46817	0.03706
932.18240	0.03643
930.89663	0.03584
929.61086	0.03526
928.32509	0.03470
927.03932	0.03418
925.75356	0.03368
924.46779	0.03319
923.18202	0.03271
921.89625	0.03226
920.61048	0.03185
919.32471	0.03145
918.03894	0.03107
916.75317	0.03073
915.46740	0.03044
914.18164	0.03021
912.89587	0.03000
911.61010	0.02980
910.32433	0.02958
909.03856	0.02936
907.75279	0.02913
906.46702	0.02884
905.18125	0.02852
903.89549	0.02823
902.60972	0.02802
901.32395	0.02788
900.03818	0.02778
898.75241	0.02768
897.46664	0.02759
896.18087	0.02748
894.89510	0.02740
893.60933	0.02737
892.32357	0.02743
891.03780	0.02756
889.75203	0.02776
888.46626	0.02805
887.18049	0.02854
885.89472	0.02941
884.60895	0.03089
883.32318	0.03306
882.03742	0.03571
880.75165	0.03832
879.46588	0.04036
878.18011	0.04167
876.89434	0.04255
875.60857	0.04349
874.32280	0.04464
873.03703	0.04570
871.75126	0.04620
870.46550	0.04588
869.17973	0.04478
867.89396	0.04312
866.60819	0.04111
865.32242	0.03895
864.03665	0.03679
862.75088	0.03476
861.46511	0.03298
860.17935	0.03149
858.89358	0.03032
857.60781	0.02947
856.32204	0.02885
855.03627	0.02833
853.75050	0.02780
852.46473	0.02727
851.17896	0.02676
849.89319	0.02635
848.60743	0.02605
847.32166	0.02581
846.03589	0.02558
844.75012	0.02536
843.46435	0.02519
842.17858	0.02509
840.89281	0.02504
839.60704	0.02496
838.32128	0.02484
837.03551	0.02466
835.74974	0.02444
834.46397	0.02423
833.17820	0.02408
831.89243	0.02401
830.60666	0.02396
829.32089	0.02390
828.03512	0.02384
826.74936	0.02378
825.46359	0.02372
824.17782	0.02366
822.89205	0.02364
821.60628	0.02367
820.32051	0.02367
819.03474	0.02356
817.74897	0.02338
816.46321	0.02322
815.17744	0.02317
813.89167	0.02320
812.60590	0.02325
811.32013	0.02324
810.03436	0.02318
808.74859	0.02309
807.46282	0.02301
806.17705	0.02299
804.89129	0.02304
803.60552	0.02311
802.31975	0.02314
801.03398	0.02310
799.74821	0.02301
798.46244	0.02292
797.17667	0.02286
795.89090	0.02285
794.60513	0.02288
793.31937	0.02290
792.03360	0.02289
790.74783	0.02290
789.46206	0.02296
788.17629	0.02303
786.89052	0.02301
785.60475	0.02287
784.31898	0.02265
783.03322	0.02247
781.74745	0.02238
780.46168	0.02238
779.17591	0.02249
777.89014	0.02269
776.60437	0.02292
775.31860	0.02309
774.03283	0.02316
772.74706	0.02314
771.46130	0.02309
770.17553	0.02302
768.88976	0.02295
767.60399	0.02288
766.31822	0.02284
765.03245	0.02285
763.74668	0.02289
762.46091	0.02298
761.17515	0.02314
759.88938	0.02337
758.60361	0.02361
757.31784	0.02373
756.03207	0.02364
754.74630	0.02340
753.46053	0.02317
752.17476	0.02304
750.88899	0.02299
749.60323	0.02293
748.31746	0.02281
747.03169	0.02268
745.74592	0.02258
744.46015	0.02249
743.17438	0.02238
741.88861	0.02226
740.60284	0.02222
739.31708	0.02228
738.03131	0.02240
736.74554	0.02251
735.45977	0.02260
734.17400	0.02263
732.88823	0.02253
731.60246	0.02233
730.31669	0.02214
729.03092	0.02203
727.74516	0.02202
726.45939	0.02205
725.17362	0.02207
723.88785	0.02206
722.60208	0.02209
721.31631	0.02218
720.03054	0.02228
718.74477	0.02236
717.45901	0.02241
716.17324	0.02241
714.88747	0.02242
713.60170	0.02244
712.31593	0.02247
711.03016	0.02249
709.74439	0.02248
708.45862	0.02245
707.17285	0.02242
705.88709	0.02241
704.60132	0.02240
703.31555	0.02240
702.02978	0.02242
700.74401	0.02247
699.45824	0.02255
698.17247	0.02265
696.88670	0.02275
695.60094	0.02280
694.31517	0.02277
693.02940	0.02270
691.74363	0.02265
690.45786	0.02269
689.17209	0.02280
687.88632	0.02289
686.60055	0.02288
685.31478	0.02277
684.02902	0.02260
682.74325	0.02245
681.45748	0.02236
680.17171	0.02232
678.88594	0.02232
677.60017	0.02235
676.31440	0.02238
675.02863	0.02242
673.74287	0.02252
672.45710	0.02269
671.17133	0.02294
669.88556	0.02320
668.59979	0.02339
667.31402	0.02346
666.02825	0.02342
664.74248	0.02329
663.45671	0.02312
662.17095	0.02297
660.88518	0.02288
659.59941	0.02287
658.31364	0.02288
657.02787	0.02290
655.74210	0.02293
654.45633	0.02298
653.17056	0.02305
651.88480	0.02312
650.59903	0.02320
649.31326	0.02331
648.02749	0.02345
646.74172	0.02359
645.45595	0.02370
644.17018	0.02375
642.88441	0.02380
641.59864	0.02389
640.31288	0.02407
639.02711	0.02432
637.74134	0.02460
636.45557	0.02489
635.16980	0.02518
633.88403	0.02548
632.59826	0.02578
631.31249	0.02619
630.02673	0.02716
628.74096	0.02852
627.45519	0.02857
626.16942	0.03020
624.88365	0.03286
623.59788	0.03541
622.31211	0.03756
621.02634	0.03968
619.74057	0.04237
618.45481	0.04572
617.16904	0.04890
615.88327	0.05077
614.59750	0.05103
613.31173	0.05074
612.02596	0.05171
610.74019	0.05533
609.45442	0.06170
608.16866	0.06948
606.88289	0.07677
605.59712	0.08221
604.31135	0.08537
603.02558	0.08655
601.73981	0.08618
600.45404	0.08459
599.16827	0.08202
597.88250	0.07875
596.59674	0.07518
595.31097	0.07176
594.02520	0.06892
592.73943	0.06693
591.45366	0.06579
590.16789	0.06531
588.88212	0.06529
587.59635	0.06562
586.31059	0.06632
585.02482	0.06744
583.73905	0.06902
582.45328	0.07105
581.16751	0.07347
579.88174	0.07616
578.59597	0.07899
577.31020	0.08178
576.02443	0.08440
574.73867	0.08679
573.45290	0.08902
572.16713	0.09132
570.88136	0.09389
569.59559	0.09693
568.30982	0.10047
567.02405	0.10429
565.73828	0.10798
564.45251	0.11097
563.16675	0.11281
561.88098	0.11311
560.59521	0.11163
559.30944	0.10831
558.02367	0.10342
556.73790	0.09751
555.45213	0.09118
554.16636	0.08487
552.88060	0.07879
551.59483	0.07306
550.30906	0.06779
549.02329	0.06310
547.73752	0.05903
546.45175	0.05556
545.16598	0.05264
543.88021	0.05018
542.59444	0.04806
541.30868	0.04616
540.02291	0.04443
538.73714	0.04282
537.45137	0.04127
536.16560	0.03978
534.87983	0.03837
533.59406	0.03710
532.30829	0.03602
531.02253	0.03514
529.73676	0.03440
528.45099	0.03370
527.16522	0.03295
525.87945	0.03218
524.59368	0.03144
523.30791	0.03079
522.02214	0.03020
520.73637	0.02960
519.45061	0.02900
518.16484	0.02843
516.87907	0.02791
515.59330	0.02741
514.30753	0.02689
513.02176	0.02638
511.73599	0.02596
510.45022	0.02569
509.16446	0.02555
507.87869	0.02541
506.59292	0.02514
505.30715	0.02471
504.02138	0.02419
502.73561	0.02371
501.44984	0.02337
500.16407	0.02320
498.87830	0.02316
497.59254	0.02315
496.30677	0.02306
495.02100	0.02288
493.73523	0.02268
492.44946	0.02256
491.16369	0.02254
489.87792	0.02256
488.59215	0.02255
487.30639	0.02246
486.02062	0.02237
484.73485	0.02232
483.44908	0.02234
482.16331	0.02241
480.87754	0.02249
479.59177	0.02262
478.30600	0.02286
477.02023	0.02323
475.73447	0.02365
474.44870	0.02402
473.16293	0.02428
471.87716	0.02445
470.59139	0.02456
469.30562	0.02459
468.01985	0.02454
466.73408	0.02440
465.44832	0.02417
464.16255	0.02385
462.87678	0.02346
461.59101	0.02306
460.30524	0.02272
459.01947	0.02249
457.73370	0.02236
456.44793	0.02226
455.16216	0.02215
453.87640	0.02198
452.59063	0.02175
451.30486	0.02148
450.01909	0.02123
448.73332	0.02107
447.44755	0.02100
446.16178	0.02096
444.87601	0.02087
443.59025	0.02072
442.30448	0.02053
441.01871	0.02034
439.73294	0.02013
438.44717	0.01991
437.16140	0.01977
435.87563	0.01973
434.58986	0.01975
433.30409	0.01974
432.01833	0.01968
430.73256	0.01962
429.44679	0.01964
428.16102	0.01970
426.87525	0.01974
425.58948	0.01970
424.30371	0.01960
423.01794	0.01946
421.73218	0.01928
420.44641	0.01906
419.16064	0.01883
417.87487	0.01864
416.58910	0.01850
415.30333	0.01839
414.01756	0.01830
412.73179	0.01824
411.44602	0.01821
410.16026	0.01824
408.87449	0.01832
407.58872	0.01843
406.30295	0.01851
405.01718	0.01855
403.73141	0.01856
402.44564	0.01859
401.15987	0.01867
399.87411	0.01877
