3997.45528	0.06519
3996.16951	0.06491
3994.88374	0.06491
3993.59798	0.06542
3992.31221	0.06644
3991.02644	0.06747
3989.74067	0.06785
3988.45490	0.06741
3987.16913	0.06671
3985.88336	0.06634
3984.59759	0.06630
3983.31183	0.06618
3982.02606	0.06566
3980.74029	0.06490
3979.45452	0.06421
3978.16875	0.06386
3976.88298	0.06389
3975.59721	0.06412
3974.31144	0.06428
3973.02567	0.06423
3971.73991	0.06405
3970.45414	0.06380
3969.16837	0.06353
3967.88260	0.06334
3966.59683	0.06354
3965.31106	0.06427
3964.02529	0.06516
3962.73952	0.06558
3961.45376	0.06527
3960.16799	0.06462
3958.88222	0.06418
3957.59645	0.06401
3956.31068	0.06383
3955.02491	0.06356
3953.73914	0.06353
3952.45337	0.06396
3951.16760	0.06457
3949.88184	0.06478
3948.59607	0.06433
3947.31030	0.06350
3946.02453	0.06274
3944.73876	0.06238
3943.45299	0.06246
3942.16722	0.06293
3940.88145	0.06356
3939.59569	0.06400
3938.30992	0.06392
3937.02415	0.06328
3935.73838	0.06241
3934.45261	0.06179
3933.16684	0.06167
3931.88107	0.06198
3930.59530	0.06247
3929.30953	0.06292
3928.02377	0.06315
3926.73800	0.06310
3925.45223	0.06284
3924.16646	0.06253
3922.88069	0.06228
3921.59492	0.06208
3920.30915	0.06187
3919.02338	0.06159
3917.73762	0.06129
3916.45185	0.06110
3915.16608	0.06113
3913.88031	0.06140
3912.59454	0.06186
3911.30877	0.06241
3910.02300	0.06284
3908.73723	0.06287
3907.45146	0.06251
3906.16570	0.06205
3904.87993	0.06176
3903.59416	0.06159
3902.30839	0.06139
3901.02262	0.06116
3899.73685	0.06104
3898.45108	0.06098
3897.16531	0.06085
3895.87955	0.06065
3894.59378	0.06060
3893.30801	0.06088
3892.02224	0.06139
3890.73647	0.06179
3889.45070	0.06187
3888.16493	0.06167
3886.87916	0.06139
3885.59339	0.06115
3884.30763	0.06098
3883.02186	0.06088
3881.73609	0.06079
3880.45032	0.06066
3879.16455	0.06047
3877.87878	0.06034
3876.59301	0.06039
3875.30724	0.06067
3874.02148	0.06115
3872.73571	0.06176
3871.44994	0.06232
3870.16417	0.06257
3868.87840	0.06247
3867.59263	0.06226
3866.30686	0.06225
3865.02109	0.06243
3863.73532	0.06253
3862.44956	0.06228
3861.16379	0.06179
3859.87802	0.06147
3858.59225	0.06169
3857.30648	0.06240
3856.02071	0.06311
3854.73494	0.06327
3853.44917	0.06277
3852.16341	0.06198
3850.87764	0.06133
3849.59187	0.06093
3848.30610	0.06066
3847.02033	0.06045
3845.73456	0.06032
3844.44879	0.06015
3843.16302	0.05977
3841.87725	0.05912
3840.59149	0.05833
3839.30572	0.05769
3838.01995	0.05750
3836.73418	0.05795
3835.44841	0.05902
3834.16264	0.06027
3832.87687	0.06114
3831.59110	0.06125
3830.30534	0.06066
3829.01957	0.05975
3827.73380	0.05894
3826.44803	0.05855
3825.16226	0.05865
3823.87649	0.05904
3822.59072	0.05940
3821.30495	0.05969
3820.01918	0.06010
3818.73342	0.06071
3817.44765	0.06108
3816.16188	0.06068
3814.87611	0.05958
3813.59034	0.05849
3812.30457	0.05807
3811.01880	0.05834
3809.73303	0.05873
3808.44726	0.05865
3807.16150	0.05805
3805.87573	0.05738
3804.58996	0.05718
3803.30419	0.05746
3802.01842	0.05782
3800.73265	0.05786
3799.44688	0.05748
3798.16111	0.05687
3796.87535	0.05629
3795.58958	0.05591
3794.30381	0.05579
3793.01804	0.05588
3791.73227	0.05606
3790.44650	0.05624
3789.16073	0.05639
3787.87496	0.05646
3786.58919	0.05639
3785.30343	0.05617
3784.01766	0.05589
3782.73189	0.05574
3781.44612	0.05577
3780.16035	0.05584
3778.87458	0.05572
3777.58881	0.05537
3776.30304	0.05504
3775.01728	0.05511
3773.73151	0.05575
3772.44574	0.05664
3771.15997	0.05730
3769.87420	0.05756
3768.58843	0.05770
3767.30266	0.05811
3766.01689	0.05877
3764.73112	0.05933
3763.44536	0.05952
3762.15959	0.05934
3760.87382	0.05892
3759.58805	0.05833
3758.30228	0.05763
3757.01651	0.05698
3755.73074	0.05661
3754.44497	0.05661
3753.15921	0.05686
3751.87344	0.05708
3750.58767	0.05712
3749.30190	0.05705
3748.01613	0.05705
3746.73036	0.05704
3745.44459	0.05670
3744.15882	0.05589
3742.87305	0.05503
3741.58729	0.05477
3740.30152	0.05525
3739.01575	0.05601
3737.72998	0.05645
3736.44421	0.05636
3735.15844	0.05582
3733.87267	0.05501
3732.58690	0.05426
3731.30114	0.05391
3730.01537	0.05406
3728.72960	0.05440
3727.44383	0.05443
3726.15806	0.05393
3724.87229	0.05320
3723.58652	0.05269
3722.30075	0.05263
3721.01498	0.05294
3719.72922	0.05342
3718.44345	0.05384
3717.15768	0.05407
3715.87191	0.05418
3714.58614	0.05444
3713.30037	0.05502
3712.01460	0.05568
3710.72883	0.05596
3709.44307	0.05568
3708.15730	0.05513
3706.87153	0.05481
3705.58576	0.05484
3704.29999	0.05490
3703.01422	0.05474
3701.72845	0.05446
3700.44268	0.05431
3699.15691	0.05423
3697.87115	0.05390
3696.58538	0.05309
3695.29961	0.05188
3694.01384	0.05075
3692.72807	0.05025
3691.44230	0.05056
3690.15653	0.05132
3688.87076	0.05204
3687.58500	0.05240
3686.29923	0.05233
3685.01346	0.05212
3683.72769	0.05207
3682.44192	0.05232
3681.15615	0.05287
3679.87038	0.05363
3678.58461	0.05449
3677.29884	0.05525
3676.01308	0.05558
3674.72731	0.05533
3673.44154	0.05466
3672.15577	0.05394
3670.87000	0.05345
3669.58423	0.05324
3668.29846	0.05316
3667.01269	0.05305
3665.72693	0.05287
3664.44116	0.05264
3663.15539	0.05241
3661.86962	0.05227
3660.58385	0.05239
3659.29808	0.05284
3658.01231	0.05348
3656.72654	0.05404
3655.44077	0.05437
3654.15501	0.05461
3652.86924	0.05495
3651.58347	0.05538
3650.29770	0.05563
3649.01193	0.05545
3647.72616	0.05483
3646.44039	0.05403
3645.15462	0.05342
3643.86886	0.05317
3642.58309	0.05317
3641.29732	0.05315
3640.01155	0.05306
3638.72578	0.05306
3637.44001	0.05326
3636.15424	0.05351
3634.86847	0.05366
3633.58270	0.05384
3632.29694	0.05427
3631.01117	0.05487
3629.72540	0.05530
3628.43963	0.05533
3627.15386	0.05518
3625.86809	0.05524
3624.58232	0.05574
3623.29655	0.05650
3622.01079	0.05708
3620.72502	0.05716
3619.43925	0.05678
3618.15348	0.05630
3616.86771	0.05611
3615.58194	0.05626
3614.29617	0.05647
3613.01040	0.05649
3611.72463	0.05635
3610.43887	0.05633
3609.15310	0.05650
3607.86733	0.05673
3606.58156	0.05692
3605.29579	0.05718
3604.01002	0.05751
3602.72425	0.05759
3601.43848	0.05724
3600.15272	0.05668
3598.86695	0.05635
3597.58118	0.05643
3596.29541	0.05672
3595.00964	0.05696
3593.72387	0.05717
3592.43810	0.05758
3591.15233	0.05830
3589.86656	0.05901
3588.58080	0.05933
3587.29503	0.05924
3586.00926	0.05905
3584.72349	0.05903
3583.43772	0.05929
3582.15195	0.05969
3580.86618	0.06007
3579.58041	0.06031
3578.29464	0.06047
3577.00888	0.06073
3575.72311	0.06133
3574.43734	0.06211
3573.15157	0.06262
3571.86580	0.06249
3570.58003	0.06184
3569.29426	0.06113
3568.00849	0.06071
3566.72273	0.06065
3565.43696	0.06090
3564.15119	0.06140
3562.86542	0.06215
3561.57965	0.06297
3560.29388	0.06355
3559.00811	0.06359
3557.72234	0.06311
3556.43657	0.06242
3555.15081	0.06195
3553.86504	0.06192
3552.57927	0.06232
3551.29350	0.06300
3550.00773	0.06377
3548.72196	0.06447
3547.43619	0.06505
3546.15042	0.06561
3544.86466	0.06621
3543.57889	0.06678
3542.29312	0.06712
3541.00735	0.06716
3539.72158	0.06701
3538.43581	0.06682
3537.15004	0.06657
3535.86427	0.06621
3534.57850	0.06577
3533.29274	0.06539
3532.00697	0.06521
3530.72120	0.06534
3529.43543	0.06579
3528.14966	0.06646
3526.86389	0.06719
3525.57812	0.06775
3524.29235	0.06806
3523.00659	0.06816
3521.72082	0.06820
3520.43505	0.06824
3519.14928	0.06821
3517.86351	0.06807
3516.57774	0.06792
3515.29197	0.06789
3514.00620	0.06801
3512.72043	0.06826
3511.43467	0.06857
3510.14890	0.06896
3508.86313	0.06945
3507.57736	0.06997
3506.29159	0.07032
3505.00582	0.07037
3503.72005	0.07016
3502.43428	0.06985
3501.14852	0.06960
3499.86275	0.06952
3498.57698	0.06964
3497.29121	0.06989
3496.00544	0.07009
3494.71967	0.07011
3493.43390	0.07007
3492.14813	0.07026
3490.86236	0.07081
3489.57660	0.07152
3488.29083	0.07213
3487.00506	0.07251
3485.71929	0.07270
3484.43352	0.07279
3483.14775	0.07278
3481.86198	0.07273
3480.57621	0.07267
3479.29045	0.07260
3478.00468	0.07254
3476.71891	0.07256
3475.43314	0.07274
3474.14737	0.07303
3472.86160	0.07321
3471.57583	0.07310
3470.29006	0.07276
3469.00429	0.07250
3467.71853	0.07258
3466.43276	0.07307
3465.14699	0.07374
3463.86122	0.07428
3462.57545	0.07445
3461.28968	0.07434
3460.00391	0.07429
3458.71814	0.07459
3457.43238	0.07527
3456.14661	0.07603
3454.86084	0.07653
3453.57507	0.07661
3452.28930	0.07634
3451.00353	0.07590
3449.71776	0.07544
3448.43199	0.07506
3447.14622	0.07492
3445.86046	0.07513
3444.57469	0.07560
3443.28892	0.07604
3442.00315	0.07626
3440.71738	0.07627
3439.43161	0.07616
3438.14584	0.07602
3436.86007	0.07591
3435.57431	0.07599
3434.28854	0.07637
3433.00277	0.07695
3431.71700	0.07753
3430.43123	0.07793
3429.14546	0.07807
3427.85969	0.07795
3426.57392	0.07771
3425.28815	0.07762
3424.00239	0.07783
3422.71662	0.07820
3421.43085	0.07842
3420.14508	0.07839
3418.85931	0.07828
3417.57354	0.07834
3416.28777	0.07863
3415.00200	0.07899
3413.71624	0.07912
3412.43047	0.07885
3411.14470	0.07830
3409.85893	0.07781
3408.57316	0.07767
3407.28739	0.07788
3406.00162	0.07824
3404.71585	0.07857
3403.43008	0.07880
3402.14432	0.07898
3400.85855	0.07921
3399.57278	0.07948
3398.28701	0.07968
3397.00124	0.07986
3395.71547	0.08010
3394.42970	0.08042
3393.14393	0.08073
3391.85817	0.08081
3390.57240	0.08059
3389.28663	0.08026
3388.00086	0.08014
3386.71509	0.08036
3385.42932	0.08079
3384.14355	0.08122
3382.85778	0.08153
3381.57201	0.08170
3380.28625	0.08178
3379.00048	0.08184
3377.71471	0.08195
3376.42894	0.08210
3375.14317	0.08229
3373.85740	0.08257
3372.57163	0.08292
3371.28586	0.08321
3370.00010	0.08326
3368.71433	0.08307
3367.42856	0.08281
3366.14279	0.08263
3364.85702	0.08250
3363.57125	0.08230
3362.28548	0.08209
3360.99971	0.08199
3359.71394	0.08211
3358.42818	0.08229
3357.14241	0.08235
3355.85664	0.08229
3354.57087	0.08234
3353.28510	0.08270
3351.99933	0.08331
3350.71356	0.08386
3349.42779	0.08403
3348.14202	0.08377
3346.85626	0.08320
3345.57049	0.08259
3344.28472	0.08218
3342.99895	0.08205
3341.71318	0.08208
3340.42741	0.08206
3339.14164	0.08195
3337.85587	0.08188
3336.57011	0.08205
3335.28434	0.08250
3333.99857	0.08316
3332.71280	0.08391
3331.42703	0.08457
3330.14126	0.08502
3328.85549	0.08527
3327.56972	0.08545
3326.28395	0.08565
3324.99819	0.08571
3323.71242	0.08546
3322.42665	0.08491
3321.14088	0.08437
3319.85511	0.08417
3318.56934	0.08442
3317.28357	0.08491
3315.99780	0.08529
3314.71204	0.08539
3313.42627	0.08532
3312.14050	0.08538
3310.85473	0.08571
3309.56896	0.08617
3308.28319	0.08641
3306.99742	0.08623
3305.71165	0.08577
3304.42588	0.08532
3303.14012	0.08512
3301.85435	0.08520
3300.56858	0.08545
3299.28281	0.08579
3297.99704	0.08613
3296.71127	0.08635
3295.42550	0.08635
3294.13973	0.08612
3292.85397	0.08578
3291.56820	0.08553
3290.28243	0.08542
3288.99666	0.08538
3287.71089	0.08539
3286.42512	0.08554
3285.13935	0.08591
3283.85358	0.08635
3282.56781	0.08657
3281.28205	0.08641
3279.99628	0.08598
3278.71051	0.08552
3277.42474	0.08522
3276.13897	0.08511
3274.85320	0.08511
3273.56743	0.08512
3272.28166	0.08512
3270.99590	0.08509
3269.71013	0.08500
3268.42436	0.08486
3267.13859	0.08471
3265.85282	0.08465
3264.56705	0.08477
3263.28128	0.08507
3261.99551	0.08542
3260.70974	0.08567
3259.42398	0.08570
3258.13821	0.08551
3256.85244	0.08523
3255.56667	0.08501
3254.28090	0.08489
3252.99513	0.08476
3251.70936	0.08452
3250.42359	0.08415
3249.13783	0.08370
3247.85206	0.08326
3246.56629	0.08294
3245.28052	0.08280
3243.99475	0.08286
3242.70898	0.08302
3241.42321	0.08311
3240.13744	0.08297
3238.85167	0.08259
3237.56591	0.08212
3236.28014	0.08172
3234.99437	0.08146
3233.70860	0.08132
3232.42283	0.08129
3231.13706	0.08141
3229.85129	0.08167
3228.56552	0.08196
3227.27976	0.08216
3225.99399	0.08219
3224.70822	0.08209
3223.42245	0.08189
3222.13668	0.08156
3220.85091	0.08117
3219.56514	0.08083
3218.27937	0.08067
3216.99360	0.08074
3215.70784	0.08091
3214.42207	0.08109
3213.13630	0.08119
3211.85053	0.08120
3210.56476	0.08118
3209.27899	0.08113
3207.99322	0.08099
3206.70745	0.08068
3205.42169	0.08030
3204.13592	0.08008
3202.85015	0.08012
3201.56438	0.08027
3200.27861	0.08039
3198.99284	0.08043
3197.70707	0.08043
3196.42130	0.08032
3195.13553	0.08005
3193.84977	0.07971
3192.56400	0.07945
3191.27823	0.07936
3189.99246	0.07936
3188.70669	0.07932
3187.42092	0.07917
3186.13515	0.07901
3184.84938	0.07900
3183.56362	0.07913
3182.27785	0.07922
3180.99208	0.07906
3179.70631	0.07866
3178.42054	0.07818
3177.13477	0.07777
3175.84900	0.07749
3174.56323	0.07735
3173.27746	0.07736
3171.99170	0.07740
3170.70593	0.07726
3169.42016	0.07687
3168.13439	0.07635
3166.84862	0.07597
3165.56285	0.07590
3164.27708	0.07612
3162.99131	0.07639
3161.70555	0.07645
3160.41978	0.07623
3159.13401	0.07586
3157.84824	0.07559
3156.56247	0.07551
3155.27670	0.07556
3153.99093	0.07560
3152.70516	0.07561
3151.41939	0.07567
3150.13363	0.07580
3148.84786	0.07591
3147.56209	0.07582
3146.27632	0.07551
3144.99055	0.07507
3143.70478	0.07466
3142.41901	0.07435
3141.13324	0.07418
3139.84748	0.07416
3138.56171	0.07428
3137.27594	0.07445
3135.99017	0.07454
3134.70440	0.07440
3133.41863	0.07397
3132.13286	0.07338
3130.84709	0.07287
3129.56132	0.07263
3128.27556	0.07262
3126.98979	0.07269
3125.70402	0.07272
3124.41825	0.07272
3123.13248	0.07273
3121.84671	0.07268
3120.56094	0.07253
3119.27517	0.07234
3117.98940	0.07226
3116.70364	0.07233
3115.41787	0.07244
3114.13210	0.07240
3112.84633	0.07216
3111.56056	0.07177
3110.27479	0.07138
3108.98902	0.07110
3107.70325	0.07095
3106.41749	0.07083
3105.13172	0.07064
3103.84595	0.07047
3102.56018	0.07048
3101.27441	0.07078
3099.98864	0.07132
3098.70287	0.07190
3097.41710	0.07229
3096.13133	0.07235
3094.84557	0.07208
3093.55980	0.07168
3092.27403	0.07135
3090.98826	0.07115
3089.70249	0.07102
3088.41672	0.07084
3087.13095	0.07058
3085.84518	0.07030
3084.55942	0.07008
3083.27365	0.06997
3081.98788	0.07004
3080.70211	0.07029
3079.41634	0.07064
3078.13057	0.07095
3076.84480	0.07110
3075.55903	0.07112
3074.27326	0.07106
3072.98750	0.07099
3071.70173	0.07090
3070.41596	0.07081
3069.13019	0.07077
3067.84442	0.07083
3066.55865	0.07101
3065.27288	0.07117
3063.98711	0.07114
3062.70135	0.07088
3061.41558	0.07051
3060.12981	0.07020
3058.84404	0.06997
3057.55827	0.06973
3056.27250	0.06944
3054.98673	0.06912
3053.70096	0.06883
3052.41519	0.06863
3051.12943	0.06855
3049.84366	0.06857
3048.55789	0.06860
3047.27212	0.06854
3045.98635	0.06831
3044.70058	0.06788
3043.41481	0.06735
3042.12904	0.06693
3040.84328	0.06677
3039.55751	0.06681
3038.27174	0.06694
3036.98597	0.06707
3035.70020	0.06717
3034.41443	0.06727
3033.12866	0.06731
3031.84289	0.06725
3030.55712	0.06706
3029.27136	0.06684
3027.98559	0.06673
3026.69982	0.06682
3025.41405	0.06703
3024.12828	0.06720
3022.84251	0.06723
3021.55674	0.06713
3020.27097	0.06696
3018.98521	0.06674
3017.69944	0.06645
3016.41367	0.06606
3015.12790	0.06561
3013.84213	0.06521
3012.55636	0.06501
3011.27059	0.06506
3009.98482	0.06524
3008.69905	0.06531
3007.41329	0.06522
3006.12752	0.06513
3004.84175	0.06520
3003.55598	0.06536
3002.27021	0.06537
3000.98444	0.06508
2999.69867	0.06462
2998.41290	0.06433
2997.12714	0.06431
2995.84137	0.06433
2994.55560	0.06419
2993.26983	0.06391
2991.98406	0.06367
2990.69829	0.06352
2989.41252	0.06347
2988.12675	0.06354
2986.84098	0.06375
2985.55522	0.06409
2984.26945	0.06449
2982.98368	0.06493
2981.69791	0.06544
2980.41214	0.06601
2979.12637	0.06653
2977.84060	0.06685
2976.55483	0.06692
2975.26907	0.06690
2973.98330	0.06706
2972.69753	0.06751
2971.41176	0.06819
2970.12599	0.06901
2968.84022	0.06991
2967.55445	0.07078
2966.26868	0.07146
2964.98291	0.07194
2963.69715	0.07237
2962.41138	0.07290
2961.12561	0.07355
2959.83984	0.07416
2958.55407	0.07467
2957.26830	0.07515
2955.98253	0.07566
2954.69676	0.07618
2953.41100	0.07658
2952.12523	0.07679
2950.83946	0.07676
2949.55369	0.07655
2948.26792	0.07624
2946.98215	0.07595
2945.69638	0.07579
2944.41061	0.07578
2943.12484	0.07588
2941.83908	0.07605
2940.55331	0.07629
2939.26754	0.07663
2937.98177	0.07710
2936.69600	0.07769
2935.41023	0.07833
2934.12446	0.07892
2932.83869	0.07939
2931.55293	0.07979
2930.26716	0.08025
2928.98139	0.08088
2927.69562	0.08165
2926.40985	0.08236
2925.12408	0.08283
2923.83831	0.08297
2922.55254	0.08284
2921.26677	0.08256
2919.98101	0.08220
2918.69524	0.08176
2917.40947	0.08125
2916.12370	0.08075
2914.83793	0.08026
2913.55216	0.07974
2912.26639	0.07919
2910.98062	0.07874
2909.69486	0.07845
2908.40909	0.07822
2907.12332	0.07789
2905.83755	0.07741
2904.55178	0.07686
2903.26601	0.07632
2901.98024	0.07588
2900.69447	0.07558
2899.40870	0.07536
2898.12294	0.07514
2896.83717	0.07488
2895.55140	0.07457
2894.26563	0.07418
2892.97986	0.07365
2891.69409	0.07304
2890.40832	0.07251
2889.12255	0.07216
2887.83678	0.07188
2886.55102	0.07149
2885.26525	0.07094
2883.97948	0.07044
2882.69371	0.07023
2881.40794	0.07034
2880.12217	0.07059
2878.83640	0.07083
2877.55063	0.07105
2876.26487	0.07133
2874.97910	0.07165
2873.69333	0.07194
2872.40756	0.07218
2871.12179	0.07233
2869.83602	0.07238
2868.55025	0.07236
2867.26448	0.07233
2865.97871	0.07236
2864.69295	0.07243
2863.40718	0.07250
2862.12141	0.07251
2860.83564	0.07245
2859.54987	0.07230
2858.26410	0.07212
2856.97833	0.07199
2855.69256	0.07197
2854.40680	0.07200
2853.12103	0.07196
2851.83526	0.07172
2850.54949	0.07128
2849.26372	0.07078
2847.97795	0.07035
2846.69218	0.06995
2845.40641	0.06946
2844.12064	0.06880
2842.83488	0.06804
2841.54911	0.06730
2840.26334	0.06665
2838.97757	0.06611
2837.69180	0.06559
2836.40603	0.06508
2835.12026	0.06460
2833.83449	0.06420
2832.54873	0.06383
2831.26296	0.06343
2829.97719	0.06300
2828.69142	0.06260
2827.40565	0.06224
2826.11988	0.06195
2824.83411	0.06179
2823.54834	0.06177
2822.26257	0.06182
2820.97681	0.06176
2819.69104	0.06148
2818.40527	0.06105
2817.11950	0.06061
2815.83373	0.06026
2814.54796	0.06003
2813.26219	0.05992
2811.97642	0.05989
2810.69066	0.05990
2809.40489	0.05989
2808.11912	0.05976
2806.83335	0.05950
2805.54758	0.05915
2804.26181	0.05877
2802.97604	0.05840
2801.69027	0.05810
2800.40450	0.05792
2799.11874	0.05785
2797.83297	0.05780
2796.54720	0.05770
2795.26143	0.05757
2793.97566	0.05746
2792.68989	0.05737
2791.40412	0.05722
2790.11835	0.05698
2788.83259	0.05673
2787.54682	0.05655
2786.26105	0.05648
2784.97528	0.05645
2783.68951	0.05640
2782.40374	0.05626
2781.11797	0.05607
2779.83220	0.05595
2778.54643	0.05600
2777.26067	0.05611
2775.97490	0.05618
2774.68913	0.05619
2773.40336	0.05617
2772.11759	0.05605
2770.83182	0.05578
2769.54605	0.05545
2768.26028	0.05527
2766.97452	0.05528
2765.68875	0.05529
2764.40298	0.05513
2763.11721	0.05486
2761.83144	0.05464
2760.54567	0.05459
2759.25990	0.05468
2757.97413	0.05483
2756.68836	0.05498
2755.40260	0.05510
2754.11683	0.05517
2752.83106	0.05520
2751.54529	0.05518
2750.25952	0.05511
2748.97375	0.05501
2747.68798	0.05488
2746.40221	0.05477
2745.11645	0.05470
2743.83068	0.05470
2742.54491	0.05470
2741.25914	0.05460
2739.97337	0.05436
2738.68760	0.05399
2737.40183	0.05361
2736.11606	0.05341
2734.83029	0.05347
2733.54453	0.05368
2732.25876	0.05379
2730.97299	0.05370
2729.68722	0.05351
2728.40145	0.05337
2727.11568	0.05327
2725.82991	0.05311
2724.54414	0.05288
2723.25838	0.05269
2721.97261	0.05260
2720.68684	0.05258
2719.40107	0.05255
2718.11530	0.05252
2716.82953	0.05252
2715.54376	0.05255
2714.25799	0.05260
2712.97222	0.05261
2711.68646	0.05260
2710.40069	0.05259
2709.11492	0.05261
2707.82915	0.05265
2706.54338	0.05266
2705.25761	0.05260
2703.97184	0.05241
2702.68607	0.05207
2701.40031	0.05169
2700.11454	0.05139
2698.82877	0.05119
2697.54300	0.05097
2696.25723	0.05061
2694.97146	0.05023
2693.68569	0.05005
2692.39992	0.05017
2691.11415	0.05048
2689.82839	0.05073
2688.54262	0.05078
2687.25685	0.05072
2685.97108	0.05071
2684.68531	0.05084
2683.39954	0.05103
2682.11377	0.05117
2680.82800	0.05123
2679.54224	0.05120
2678.25647	0.05104
2676.97070	0.05076
2675.68493	0.05041
2674.39916	0.05012
2673.11339	0.04995
2671.82762	0.04992
2670.54185	0.05001
2669.25608	0.05019
2667.97032	0.05042
2666.68455	0.05061
2665.39878	0.05071
2664.11301	0.05069
2662.82724	0.05060
2661.54147	0.05051
2660.25570	0.05048
2658.96993	0.05048
2657.68417	0.05041
2656.39840	0.05022
2655.11263	0.04998
2653.82686	0.04981
2652.54109	0.04970
2651.25532	0.04955
2649.96955	0.04929
2648.68378	0.04901
2647.39801	0.04882
2646.11225	0.04874
2644.82648	0.04866
2643.54071	0.04851
2642.25494	0.04835
2640.96917	0.04831
2639.68340	0.04838
2638.39763	0.04845
2637.11186	0.04838
2635.82609	0.04813
2634.54033	0.04778
2633.25456	0.04745
2631.96879	0.04725
2630.68302	0.04716
2629.39725	0.04704
2628.11148	0.04681
2626.82571	0.04652
2625.53994	0.04629
2624.25418	0.04618
2622.96841	0.04615
2621.68264	0.04616
2620.39687	0.04614
2619.11110	0.04602
2617.82533	0.04573
2616.53956	0.04528
2615.25379	0.04478
2613.96802	0.04437
2612.68226	0.04416
2611.39649	0.04413
2610.11072	0.04422
2608.82495	0.04439
2607.53918	0.04455
2606.25341	0.04459
2604.96764	0.04439
2603.68187	0.04398
2602.39611	0.04349
2601.11034	0.04309
2599.82457	0.04286
2598.53880	0.04279
2597.25303	0.04275
2595.96726	0.04265
2594.68149	0.04246
2593.39572	0.04222
2592.10995	0.04200
2590.82419	0.04192
2589.53842	0.04207
2588.25265	0.04234
2586.96688	0.04251
2585.68111	0.04242
2584.39534	0.04208
2583.10957	0.04165
2581.82380	0.04128
2580.53804	0.04103
2579.25227	0.04085
2577.96650	0.04079
2576.68073	0.04093
2575.39496	0.04122
2574.10919	0.04145
2572.82342	0.04139
2571.53765	0.04107
2570.25188	0.04066
2568.96612	0.04031
2567.68035	0.04012
2566.39458	0.04009
2565.10881	0.04010
2563.82304	0.04002
2562.53727	0.03982
2561.25150	0.03967
2559.96573	0.03978
2558.67997	0.04008
2557.39420	0.04024
2556.10843	0.04005
2554.82266	0.03968
2553.53689	0.03951
2552.25112	0.03969
2550.96535	0.04003
2549.67958	0.04030
2548.39381	0.04039
2547.10805	0.04022
2545.82228	0.03984
2544.53651	0.03944
2543.25074	0.03928
2541.96497	0.03943
2540.67920	0.03978
2539.39343	0.04018
2538.10766	0.04051
2536.82190	0.04072
2535.53613	0.04070
2534.25036	0.04039
2532.96459	0.03984
2531.67882	0.03934
2530.39305	0.03920
2529.10728	0.03946
2527.82151	0.03973
2526.53574	0.03959
2525.24998	0.03900
2523.96421	0.03829
2522.67844	0.03785
2521.39267	0.03780
2520.10690	0.03810
2518.82113	0.03863
2517.53536	0.03922
2516.24959	0.03962
2514.96383	0.03966
2513.67806	0.03933
2512.39229	0.03880
2511.10652	0.03825
2509.82075	0.03781
2508.53498	0.03756
2507.24921	0.03751
2505.96344	0.03755
2504.67767	0.03748
2503.39191	0.03724
2502.10614	0.03694
2500.82037	0.03675
2499.53460	0.03674
2498.24883	0.03681
2496.96306	0.03684
2495.67729	0.03680
2494.39152	0.03679
2493.10576	0.03687
2491.81999	0.03700
2490.53422	0.03705
2489.24845	0.03701
2487.96268	0.03699
2486.67691	0.03710
2485.39114	0.03728
2484.10537	0.03739
2482.81960	0.03745
2481.53384	0.03754
2480.24807	0.03761
2478.96230	0.03745
2477.67653	0.03703
2476.39076	0.03664
2475.10499	0.03664
2473.81922	0.03697
2472.53345	0.03725
2471.24769	0.03715
2469.96192	0.03679
2468.67615	0.03659
2467.39038	0.03678
2466.10461	0.03721
2464.81884	0.03751
2463.53307	0.03754
2462.24730	0.03738
2460.96153	0.03715
2459.67577	0.03693
2458.39000	0.03674
2457.10423	0.03666
2455.81846	0.03668
2454.53269	0.03672
2453.24692	0.03674
2451.96115	0.03678
2450.67538	0.03696
2449.38962	0.03721
2448.10385	0.03736
2446.81808	0.03730
2445.53231	0.03708
2444.24654	0.03677
2442.96077	0.03638
2441.67500	0.03596
2440.38923	0.03571
2439.10346	0.03568
2437.81770	0.03569
2436.53193	0.03559
2435.24616	0.03545
2433.96039	0.03548
2432.67462	0.03581
2431.38885	0.03627
2430.10308	0.03655
2428.81731	0.03640
2427.53155	0.03593
2426.24578	0.03547
2424.96001	0.03527
2423.67424	0.03530
2422.38847	0.03538
2421.10270	0.03548
2419.81693	0.03567
2418.53116	0.03593
2417.24539	0.03616
2415.95963	0.03622
2414.67386	0.03604
2413.38809	0.03566
2412.10232	0.03525
2410.81655	0.03498
2409.53078	0.03492
2408.24501	0.03502
2406.95924	0.03518
2405.67347	0.03535
2404.38771	0.03551
2403.10194	0.03562
2401.81617	0.03562
2400.53040	0.03548
2399.24463	0.03525
2397.95886	0.03500
2396.67309	0.03489
2395.38732	0.03490
2394.10156	0.03485
2392.81579	0.03469
2391.53002	0.03452
2390.24425	0.03452
2388.95848	0.03471
2387.67271	0.03497
2386.38694	0.03519
2385.10117	0.03533
2383.81540	0.03537
2382.52964	0.03533
2381.24387	0.03527
2379.95810	0.03525
2378.67233	0.03530
2377.38656	0.03541
2376.10079	0.03554
2374.81502	0.03560
2373.52925	0.03557
2372.24349	0.03540
2370.95772	0.03519
2369.67195	0.03498
2368.38618	0.03490
2367.10041	0.03501
2365.81464	0.03526
2364.52887	0.03540
2363.24310	0.03541
2361.95733	0.03547
2360.67157	0.03580
2359.38580	0.03618
2358.10003	0.03645
2356.81426	0.03652
2355.52849	0.03638
2354.24272	0.03613
2352.95695	0.03599
2351.67118	0.03621
2350.38542	0.03662
2349.09965	0.03687
2347.81388	0.03688
2346.52811	0.03709
2345.24234	0.03736
2343.95657	0.03713
2342.67080	0.03650
2341.38503	0.03643
2340.09926	0.03700
2338.81350	0.03694
2337.52773	0.03619
2336.24196	0.03629
2334.95619	0.03696
2333.67042	0.03652
2332.38465	0.03549
2331.09888	0.03576
2329.81311	0.03625
2328.52735	0.03582
2327.24158	0.03641
2325.95581	0.03763
2324.67004	0.03779
2323.38427	0.03780
2322.09850	0.03787
2320.81273	0.03698
2319.52696	0.03645
2318.24119	0.03641
2316.95543	0.03605
2315.66966	0.03595
2314.38389	0.03595
2313.09812	0.03571
2311.81235	0.03569
2310.52658	0.03554
2309.24081	0.03527
2307.95504	0.03514
2306.66928	0.03502
2305.38351	0.03501
2304.09774	0.03482
2302.81197	0.03430
2301.52620	0.03374
2300.24043	0.03340
2298.95466	0.03352
2297.66889	0.03389
2296.38312	0.03418
2295.09736	0.03423
2293.81159	0.03407
2292.52582	0.03395
2291.24005	0.03393
2289.95428	0.03396
2288.66851	0.03397
2287.38274	0.03397
2286.09697	0.03394
2284.81121	0.03370
2283.52544	0.03305
2282.23967	0.03199
2280.95390	0.03090
2279.66813	0.03018
2278.38236	0.03002
2277.09659	0.03023
2275.81082	0.03047
2274.52505	0.03047
2273.23929	0.03019
2271.95352	0.02986
2270.66775	0.02971
2269.38198	0.02971
2268.09621	0.02966
2266.81044	0.02946
2265.52467	0.02909
2264.23890	0.02859
2262.95314	0.02809
2261.66737	0.02789
2260.38160	0.02820
2259.09583	0.02885
2257.81006	0.02942
2256.52429	0.02959
2255.23852	0.02936
2253.95275	0.02901
2252.66698	0.02877
2251.38122	0.02875
2250.09545	0.02892
2248.80968	0.02910
2247.52391	0.02863
2246.23814	0.02784
2244.95237	0.02713
2243.66660	0.02675
2242.38083	0.02667
2241.09507	0.02663
2239.80930	0.02647
2238.52353	0.02615
2237.23776	0.02576
2235.95199	0.02527
2234.66622	0.02462
2233.38045	0.02392
2232.09468	0.02355
2230.80891	0.02371
2229.52315	0.02410
2228.23738	0.02423
2226.95161	0.02399
2225.66584	0.02374
2224.38007	0.02386
2223.09430	0.02431
2221.80853	0.02468
2220.52276	0.02460
2219.23700	0.02418
2217.95123	0.02387
2216.66546	0.02403
2215.37969	0.02457
2214.09392	0.02511
2212.80815	0.02537
2211.52238	0.02533
2210.23661	0.02509
2208.95084	0.02477
2207.66508	0.02445
2206.37931	0.02404
2205.09354	0.02332
2203.80777	0.02214
2202.52200	0.02084
2201.23623	0.02007
2199.95046	0.02024
2198.66469	0.02109
2197.37893	0.02195
2196.09316	0.02236
2194.80739	0.02233
2193.52162	0.02212
2192.23585	0.02194
2190.95008	0.02177
2189.66431	0.02141
2188.37854	0.02085
2187.09277	0.02034
2185.80701	0.02013
2184.52124	0.01996
2183.23547	0.01933
2181.94970	0.01828
2180.66393	0.01752
2179.37816	0.01765
2178.09239	0.01853
2176.80662	0.01954
2175.52085	0.02020
2174.23509	0.02044
2172.94932	0.02029
2171.66355	0.01970
2170.37778	0.01872
2169.09201	0.01750
2167.80624	0.01615
2166.52047	0.01478
2165.23470	0.01373
2163.94894	0.01331
2162.66317	0.01327
2161.37740	0.01282
2160.09163	0.01152
2158.80586	0.00991
2157.52009	0.00903
2156.23432	0.00950
2154.94855	0.01114
2153.66278	0.01327
2152.37702	0.01508
2151.09125	0.01600
2149.80548	0.01598
2148.51971	0.01551
2147.23394	0.01530
2145.94817	0.01573
2144.66240	0.01662
2143.37663	0.01744
2142.09087	0.01788
2140.80510	0.01792
2139.51933	0.01768
2138.23356	0.01728
2136.94779	0.01690
2135.66202	0.01677
2134.37625	0.01703
2133.09048	0.01769
2131.80471	0.01867
2130.51895	0.01965
2129.23318	0.02016
2127.94741	0.02001
2126.66164	0.01955
2125.37587	0.01941
2124.09010	0.01980
2122.80433	0.02049
2121.51856	0.02117
2120.23280	0.02181
2118.94703	0.02245
2117.66126	0.02291
2116.37549	0.02296
2115.08972	0.02261
2113.80395	0.02216
2112.51818	0.02186
2111.23241	0.02172
2109.94664	0.02162
2108.66088	0.02143
2107.37511	0.02112
2106.08934	0.02077
2104.80357	0.02061
2103.51780	0.02077
2102.23203	0.02117
2100.94626	0.02153
2099.66049	0.02267
2098.37473	0.02280
2097.08896	0.02205
2095.80319	0.02115
2094.51742	0.02054
2093.23165	0.02044
2091.94588	0.02082
2090.66011	0.02136
2089.37434	0.02166
2088.08857	0.02154
2086.80281	0.02117
2085.51704	0.02089
2084.23127	0.02088
2082.94550	0.02104
2081.65973	0.02116
2080.37396	0.02113
2079.08819	0.02098
2077.80242	0.02084
2076.51666	0.02083
2075.23089	0.02092
2073.94512	0.02103
2072.65935	0.02117
2071.37358	0.02151
2070.08781	0.02209
2068.80204	0.02268
2067.51627	0.02283
2066.23050	0.02231
2064.94474	0.02136
2063.65897	0.02038
2062.37320	0.01957
2061.08743	0.01892
2059.80166	0.01845
2058.51589	0.01824
2057.23012	0.01830
2055.94435	0.01851
2054.65859	0.01875
2053.37282	0.01897
2052.08705	0.01891
2050.80128	0.01828
2049.51551	0.01713
2048.22974	0.01618
2046.94397	0.01617
2045.65820	0.01707
2044.37243	0.01807
2043.08667	0.01846
2041.80090	0.01813
2040.51513	0.01742
2039.22936	0.01665
2037.94359	0.01591
2036.65782	0.01511
2035.37205	0.01415
2034.08628	0.01315
2032.80052	0.01242
2031.51475	0.01209
2030.22898	0.01204
2028.94321	0.01207
2027.65744	0.01218
2026.37167	0.01256
2025.08590	0.01327
2023.80013	0.01400
2022.51436	0.01431
2021.22860	0.01405
2019.94283	0.01353
2018.65706	0.01321
2017.37129	0.01327
2016.08552	0.01354
2014.79975	0.01383
2013.51398	0.01420
2012.22821	0.01476
2010.94245	0.01541
2009.65668	0.01588
2008.37091	0.01599
2007.08514	0.01581
2005.79937	0.01556
2004.51360	0.01542
2003.22783	0.01546
2001.94206	0.01566
2000.65629	0.01605
1999.37053	0.01670
1998.08476	0.01765
1996.79899	0.01868
1995.51322	0.01942
1994.22745	0.01956
1992.94168	0.01908
1991.65591	0.01820
1990.37014	0.01722
1989.08438	0.01646
1987.79861	0.01623
1986.51284	0.01662
1985.22707	0.01733
1983.94130	0.01789
1982.65553	0.01811
1981.36976	0.01809
1980.08399	0.01793
1978.79822	0.01764
1977.51246	0.01728
1976.22669	0.01704
1974.94092	0.01690
1973.65515	0.01659
1972.36938	0.01600
1971.08361	0.01552
1969.79784	0.01565
1968.51207	0.01631
1967.22631	0.01690
1965.94054	0.01689
1964.65477	0.01623
1963.36900	0.01524
1962.08323	0.01426
1960.79746	0.01354
1959.51169	0.01326
1958.22592	0.01346
1956.94015	0.01410
1955.65439	0.01504
1954.36862	0.01609
1953.08285	0.01701
1951.79708	0.01761
1950.51131	0.01784
1949.22554	0.01785
1947.93977	0.01786
1946.65400	0.01801
1945.36823	0.01829
1944.08247	0.01856
1942.79670	0.01867
1941.51093	0.01857
1940.22516	0.01841
1938.93939	0.01838
1937.65362	0.01852
1936.36785	0.01868
1935.08208	0.01877
1933.79632	0.01884
1932.51055	0.01904
1931.22478	0.01942
1929.93901	0.01982
1928.65324	0.01995
1927.36747	0.01963
1926.08170	0.01903
1924.79593	0.01854
1923.51016	0.01846
1922.22440	0.01872
1920.93863	0.01907
1919.65286	0.01932
1918.36709	0.01951
1917.08132	0.01975
1915.79555	0.02009
1914.50978	0.02045
1913.22401	0.02071
1911.93825	0.02087
1910.65248	0.02103
1909.36671	0.02126
1908.08094	0.02149
1906.79517	0.02160
1905.50940	0.02150
1904.22363	0.02125
1902.93786	0.02094
1901.65209	0.02065
1900.36633	0.02045
1899.08056	0.02040
1897.79479	0.02055
1896.50902	0.02086
1895.22325	0.02117
1893.93748	0.02131
1892.65171	0.02127
1891.36594	0.02117
1890.08018	0.02112
1888.79441	0.02113
1887.50864	0.02119
1886.22287	0.02123
1884.93710	0.02119
1883.65133	0.02104
1882.36556	0.02083
1881.07979	0.02065
1879.79402	0.02056
1878.50826	0.02050
1877.22249	0.02040
1875.93672	0.02032
1874.65095	0.02039
1873.36518	0.02069
1872.07941	0.02111
1870.79364	0.02148
1869.50787	0.02167
1868.22211	0.02170
1866.93634	0.02158
1865.65057	0.02135
1864.36480	0.02109
1863.07903	0.02092
1861.79326	0.02090
1860.50749	0.02098
1859.22172	0.02107
1857.93595	0.02111
1856.65019	0.02108
1855.36442	0.02100
1854.07865	0.02089
1852.79288	0.02079
1851.50711	0.02074
1850.22134	0.02076
1848.93557	0.02084
1847.64980	0.02097
1846.36404	0.02110
1845.07827	0.02120
1843.79250	0.02119
1842.50673	0.02107
1841.22096	0.02091
1839.93519	0.02080
1838.64942	0.02079
1837.36365	0.02081
1836.07788	0.02084
1834.79212	0.02085
1833.50635	0.02090
1832.22058	0.02102
1830.93481	0.02122
1829.64904	0.02145
1828.36327	0.02164
1827.07750	0.02175
1825.79173	0.02180
1824.50597	0.02182
1823.22020	0.02183
1821.93443	0.02181
1820.64866	0.02171
1819.36289	0.02148
1818.07712	0.02115
1816.79135	0.02080
1815.50558	0.02058
1814.21981	0.02057
1812.93405	0.02073
1811.64828	0.02095
1810.36251	0.02108
1809.07674	0.02107
1807.79097	0.02094
1806.50520	0.02082
1805.21943	0.02078
1803.93366	0.02085
1802.64790	0.02096
1801.36213	0.02104
1800.07636	0.02104
1798.79059	0.02100
1797.50482	0.02097
1796.21905	0.02101
1794.93328	0.02110
1793.64751	0.02122
1792.36174	0.02131
1791.07598	0.02136
1789.79021	0.02137
1788.50444	0.02136
1787.21867	0.02135
1785.93290	0.02135
1784.64713	0.02140
1783.36136	0.02148
1782.07559	0.02153
1780.78983	0.02148
1779.50406	0.02134
1778.21829	0.02121
1776.93252	0.02121
1775.64675	0.02135
1774.36098	0.02155
1773.07521	0.02167
1771.78944	0.02165
1770.50367	0.02156
1769.21791	0.02144
1767.93214	0.02132
1766.64637	0.02122
1765.36060	0.02117
1764.07483	0.02120
1762.78906	0.02125
1761.50329	0.02126
1760.21752	0.02124
1758.93176	0.02122
1757.64599	0.02122
1756.36022	0.02123
1755.07445	0.02127
1753.78868	0.02134
1752.50291	0.02139
1751.21714	0.02138
1749.93137	0.02130
1748.64560	0.02119
1747.35984	0.02112
1746.07407	0.02110
1744.78830	0.02114
1743.50253	0.02125
1742.21676	0.02138
1740.93099	0.02148
1739.64522	0.02155
1738.35945	0.02165
1737.07369	0.02187
1735.78792	0.02218
1734.50215	0.02239
1733.21638	0.02236
1731.93061	0.02214
1730.64484	0.02191
1729.35907	0.02181
1728.07330	0.02185
1726.78753	0.02199
1725.50177	0.02217
1724.21600	0.02235
1722.93023	0.02252
1721.64446	0.02272
1720.35869	0.02299
1719.07292	0.02329
1717.78715	0.02350
1716.50138	0.02357
1715.21561	0.02356
1713.92985	0.02362
1712.64408	0.02385
1711.35831	0.02424
1710.07254	0.02471
1708.78677	0.02522
1707.50100	0.02577
1706.21523	0.02639
1704.92946	0.02711
1703.64370	0.02795
1702.35793	0.02888
1701.07216	0.02984
1699.78639	0.03077
1698.50062	0.03167
1697.21485	0.03256
1695.92908	0.03337
1694.64331	0.03410
1693.35754	0.03482
1692.07178	0.03566
1690.78601	0.03669
1689.50024	0.03788
1688.21447	0.03919
1686.92870	0.04052
1685.64293	0.04174
1684.35716	0.04270
1683.07139	0.04344
1681.78563	0.04412
1680.49986	0.04492
1679.21409	0.04595
1677.92832	0.04715
1676.64255	0.04840
1675.35678	0.04958
1674.07101	0.05064
1672.78524	0.05164
1671.49947	0.05262
1670.21371	0.05359
1668.92794	0.05453
1667.64217	0.05545
1666.35640	0.05643
1665.07063	0.05746
1663.78486	0.05850
1662.49909	0.05946
1661.21332	0.06032
1659.92756	0.06115
1658.64179	0.06206
1657.35602	0.06315
1656.07025	0.06437
1654.78448	0.06550
1653.49871	0.06630
1652.21294	0.06669
1650.92717	0.06690
1649.64140	0.06723
1648.35564	0.06776
1647.06987	0.06832
1645.78410	0.06873
1644.49833	0.06896
1643.21256	0.06908
1641.92679	0.06918
1640.64102	0.06927
1639.35525	0.06940
1638.06949	0.06953
1636.78372	0.06955
1635.49795	0.06931
1634.21218	0.06876
1632.92641	0.06803
1631.64064	0.06727
1630.35487	0.06658
1629.06910	0.06596
1627.78333	0.06534
1626.49757	0.06466
1625.21180	0.06389
1623.92603	0.06301
1622.64026	0.06204
1621.35449	0.06109
1620.06872	0.06022
1618.78295	0.05943
1617.49718	0.05861
1616.21142	0.05765
1614.92565	0.05661
1613.63988	0.05560
1612.35411	0.05470
1611.06834	0.05390
1609.78257	0.05317
1608.49680	0.05250
1607.21103	0.05187
1605.92526	0.05129
1604.63950	0.05075
1603.35373	0.05027
1602.06796	0.04985
1600.78219	0.04950
1599.49642	0.04917
1598.21065	0.04885
1596.92488	0.04856
1595.63911	0.04833
1594.35335	0.04821
1593.06758	0.04816
1591.78181	0.04818
1590.49604	0.04822
1589.21027	0.04827
1587.92450	0.04835
1586.63873	0.04848
1585.35296	0.04866
1584.06719	0.04888
1582.78143	0.04912
1581.49566	0.04941
1580.20989	0.04983
1578.92412	0.05040
1577.63835	0.05103
1576.35258	0.05156
1575.06681	0.05191
1573.78104	0.05218
1572.49528	0.05252
1571.20951	0.05299
1569.92374	0.05352
1568.63797	0.05404
1567.35220	0.05451
1566.06643	0.05498
1564.78066	0.05547
1563.49489	0.05607
1562.20912	0.05680
1560.92336	0.05756
1559.63759	0.05818
1558.35182	0.05851
1557.06605	0.05859
1555.78028	0.05856
1554.49451	0.05856
1553.20874	0.05861
1551.92297	0.05872
1550.63721	0.05890
1549.35144	0.05914
1548.06567	0.05939
1546.77990	0.05958
1545.49413	0.05973
1544.20836	0.05988
1542.92259	0.06007
1541.63682	0.06019
1540.35105	0.06009
1539.06529	0.05972
1537.77952	0.05922
1536.49375	0.05879
1535.20798	0.05849
1533.92221	0.05820
1532.63644	0.05782
1531.35067	0.05740
1530.06490	0.05705
1528.77914	0.05681
1527.49337	0.05662
1526.20760	0.05645
1524.92183	0.05630
1523.63606	0.05617
1522.35029	0.05601
1521.06452	0.05574
1519.77875	0.05537
1518.49298	0.05499
1517.20722	0.05469
1515.92145	0.05444
1514.63568	0.05423
1513.34991	0.05407
1512.06414	0.05403
1510.77837	0.05413
1509.49260	0.05435
1508.20683	0.05455
1506.92107	0.05455
1505.63530	0.05431
1504.34953	0.05394
1503.06376	0.05359
1501.77799	0.05335
1500.49222	0.05320
1499.20645	0.05309
1497.92068	0.05296
1496.63491	0.05278
1495.34915	0.05255
1494.06338	0.05229
1492.77761	0.05207
1491.49184	0.05190
1490.20607	0.05176
1488.92030	0.05164
1487.63453	0.05155
1486.34876	0.05157
1485.06299	0.05170
1483.77723	0.05196
1482.49146	0.05231
1481.20569	0.05275
1479.91992	0.05329
1478.63415	0.05395
1477.34838	0.05476
1476.06261	0.05569
1474.77684	0.05667
1473.49108	0.05759
1472.20531	0.05841
1470.91954	0.05914
1469.63377	0.05989
1468.34800	0.06073
1467.06223	0.06166
1465.77646	0.06261
1464.49069	0.06351
1463.20492	0.06437
1461.91916	0.06525
1460.63339	0.06624
1459.34762	0.06734
1458.06185	0.06848
1456.77608	0.06951
1455.49031	0.07034
1454.20454	0.07097
1452.91877	0.07145
1451.63301	0.07182
1450.34724	0.07210
1449.06147	0.07230
1447.77570	0.07239
1446.48993	0.07235
1445.20416	0.07217
1443.91839	0.07186
1442.63262	0.07146
1441.34685	0.07099
1440.06109	0.07050
1438.77532	0.07000
1437.48955	0.06952
1436.20378	0.06905
1434.91801	0.06859
1433.63224	0.06819
1432.34647	0.06790
1431.06070	0.06773
1429.77494	0.06768
1428.48917	0.06777
1427.20340	0.06800
1425.91763	0.06835
1424.63186	0.06878
1423.34609	0.06931
1422.06032	0.06995
1420.77455	0.07065
1419.48878	0.07129
1418.20302	0.07179
1416.91725	0.07218
1415.63148	0.07250
1414.34571	0.07278
1413.05994	0.07299
1411.77417	0.07310
1410.48840	0.07311
1409.20263	0.07303
1407.91687	0.07284
1406.63110	0.07251
1405.34533	0.07199
1404.05956	0.07131
1402.77379	0.07053
1401.48802	0.06970
1400.20225	0.06885
1398.91648	0.06798
1397.63071	0.06710
1396.34495	0.06619
1395.05918	0.06522
1393.77341	0.06420
1392.48764	0.06317
1391.20187	0.06219
1389.91610	0.06129
1388.63033	0.06047
1387.34456	0.05966
1386.05880	0.05885
1384.77303	0.05804
1383.48726	0.05725
1382.20149	0.05652
1380.91572	0.05583
1379.62995	0.05516
1378.34418	0.05447
1377.05841	0.05373
1375.77264	0.05292
1374.48688	0.05204
1373.20111	0.05110
1371.91534	0.05015
1370.62957	0.04920
1369.34380	0.04828
1368.05803	0.04740
1366.77226	0.04659
1365.48649	0.04583
1364.20073	0.04509
1362.91496	0.04434
1361.62919	0.04357
1360.34342	0.04279
1359.05765	0.04206
1357.77188	0.04143
1356.48611	0.04094
1355.20034	0.04058
1353.91457	0.04029
1352.62881	0.04002
1351.34304	0.03972
1350.05727	0.03940
1348.77150	0.03912
1347.48573	0.03890
1346.19996	0.03873
1344.91419	0.03859
1343.62842	0.03847
1342.34266	0.03839
1341.05689	0.03833
1339.77112	0.03823
1338.48535	0.03809
1337.19958	0.03793
1335.91381	0.03779
1334.62804	0.03764
1333.34227	0.03744
1332.05650	0.03717
1330.77074	0.03689
1329.48497	0.03664
1328.19920	0.03641
1326.91343	0.03620
1325.62766	0.03599
1324.34189	0.03580
1323.05612	0.03561
1321.77035	0.03544
1320.48459	0.03528
1319.19882	0.03514
1317.91305	0.03498
1316.62728	0.03479
1315.34151	0.03457
1314.05574	0.03433
1312.76997	0.03413
1311.48420	0.03394
1310.19843	0.03375
1308.91267	0.03353
1307.62690	0.03329
1306.34113	0.03303
1305.05536	0.03277
1303.76959	0.03253
1302.48382	0.03238
1301.19805	0.03234
1299.91228	0.03235
1298.62652	0.03231
1297.34075	0.03211
1296.05498	0.03181
1294.76921	0.03152
1293.48344	0.03134
1292.19767	0.03129
1290.91190	0.03129
1289.62613	0.03127
1288.34036	0.03122
1287.05460	0.03117
1285.76883	0.03115
1284.48306	0.03112
1283.19729	0.03107
1281.91152	0.03096
1280.62575	0.03083
1279.33998	0.03067
1278.05421	0.03053
1276.76845	0.03042
1275.48268	0.03035
1274.19691	0.03032
1272.91114	0.03027
1271.62537	0.03018
1270.33960	0.03009
1269.05383	0.03001
1267.76806	0.02998
1266.48229	0.02997
1265.19653	0.02995
1263.91076	0.02993
1262.62499	0.02990
1261.33922	0.02988
1260.05345	0.02986
1258.76768	0.02986
1257.48191	0.02988
1256.19614	0.02992
1254.91037	0.02997
1253.62461	0.03003
1252.33884	0.03007
1251.05307	0.03012
1249.76730	0.03018
1248.48153	0.03024
1247.19576	0.03028
1245.90999	0.03029
1244.62422	0.03026
1243.33846	0.03020
1242.05269	0.03013
1240.76692	0.03005
1239.48115	0.02995
1238.19538	0.02985
1236.90961	0.02975
1235.62384	0.02964
1234.33807	0.02952
1233.05230	0.02937
1231.76654	0.02918
1230.48077	0.02896
1229.19500	0.02872
1227.90923	0.02848
1226.62346	0.02824
1225.33769	0.02802
1224.05192	0.02782
1222.76615	0.02760
1221.48039	0.02734
1220.19462	0.02704
1218.90885	0.02672
1217.62308	0.02640
1216.33731	0.02613
1215.05154	0.02592
1213.76577	0.02576
1212.48000	0.02564
1211.19423	0.02557
1209.90847	0.02556
1208.62270	0.02561
1207.33693	0.02571
1206.05116	0.02582
1204.76539	0.02588
1203.47962	0.02591
1202.19385	0.02590
1200.90808	0.02578
1199.62232	0.02553
1198.33655	0.02540
1197.05078	0.02525
1195.76501	0.02512
1194.47924	0.02503
1193.19347	0.02495
1191.90770	0.02483
1190.62193	0.02463
1189.33616	0.02441
1188.05040	0.02420
1186.76463	0.02403
1185.47886	0.02388
1184.19309	0.02377
1182.90732	0.02374
1181.62155	0.02377
1180.33578	0.02380
1179.05001	0.02380
1177.76425	0.02377
1176.47848	0.02376
1175.19271	0.02381
1173.90694	0.02394
1172.62117	0.02408
1171.33540	0.02420
1170.04963	0.02429
1168.76386	0.02438
1167.47809	0.02447
1166.19233	0.02457
1164.90656	0.02465
1163.62079	0.02474
1162.33502	0.02485
1161.04925	0.02499
1159.76348	0.02513
1158.47771	0.02527
1157.19194	0.02542
1155.90618	0.02556
1154.62041	0.02568
1153.33464	0.02573
1152.04887	0.02576
1150.76310	0.02583
1149.47733	0.02602
1148.19156	0.02635
1146.90579	0.02674
1145.62002	0.02710
1144.33426	0.02740
1143.04849	0.02769
1141.76272	0.02801
1140.47695	0.02840
1139.19118	0.02889
1137.90541	0.02944
1136.61964	0.03004
1135.33387	0.03069
1134.04811	0.03145
1132.76234	0.03238
1131.47657	0.03347
1130.19080	0.03468
1128.90503	0.03597
1127.61926	0.03735
1126.33349	0.03884
1125.04772	0.04046
1123.76195	0.04229
1122.47619	0.04432
1121.19042	0.04649
1119.90465	0.04874
1118.61888	0.05107
1117.33311	0.05353
1116.04734	0.05609
1114.76157	0.05861
1113.47580	0.06101
1112.19004	0.06329
1110.90427	0.06555
1109.61850	0.06785
1108.33273	0.07017
1107.04696	0.07238
1105.76119	0.07439
1104.47542	0.07621
1103.18965	0.07794
1101.90388	0.07972
1100.61812	0.08160
1099.33235	0.08349
1098.04658	0.08524
1096.76081	0.08676
1095.47504	0.08808
1094.18927	0.08926
1092.90350	0.09037
1091.61773	0.09145
1090.33197	0.09246
1089.04620	0.09337
1087.76043	0.09419
1086.47466	0.09496
1085.18889	0.09573
1083.90312	0.09651
1082.61735	0.09733
1081.33158	0.09826
1080.04581	0.09937
1078.76005	0.10068
1077.47428	0.10213
1076.18851	0.10367
1074.90274	0.10531
1073.61697	0.10708
1072.33120	0.10898
1071.04543	0.11095
1069.75966	0.11293
1068.47390	0.11489
1067.18813	0.11686
1065.90236	0.11890
1064.61659	0.12107
1063.33082	0.12332
1062.04505	0.12559
1060.75928	0.12785
1059.47351	0.13009
1058.18774	0.13235
1056.90198	0.13462
1055.61621	0.13686
1054.33044	0.13907
1053.04467	0.14129
1051.75890	0.14354
1050.47313	0.14583
1049.18736	0.14809
1047.90159	0.15030
1046.61583	0.15252
1045.33006	0.15484
1044.04429	0.15726
1042.75852	0.15974
1041.47275	0.16219
1040.18698	0.16459
1038.90121	0.16697
1037.61544	0.16935
1036.32967	0.17177
1035.04391	0.17422
1033.75814	0.17664
1032.47237	0.17889
1031.18660	0.18090
1029.90083	0.18265
1028.61506	0.18425
1027.32929	0.18574
1026.04352	0.18711
1024.75775	0.18831
1023.47199	0.18931
1022.18622	0.19006
1020.90045	0.19049
1019.61468	0.19059
1018.32891	0.19040
1017.04314	0.18993
1015.75737	0.18917
1014.47160	0.18812
1013.18584	0.18682
1011.90007	0.18532
1010.61430	0.18361
1009.32853	0.18165
1008.04276	0.17943
1006.75699	0.17699
1005.47122	0.17439
1004.18545	0.17167
1002.89968	0.16886
1001.61392	0.16594
1000.32815	0.16291
999.04238	0.15979
997.75661	0.15659
996.47084	0.15334
995.18507	0.15008
993.89930	0.14681
992.61353	0.14353
991.32777	0.14021
990.04200	0.13689
988.75623	0.13365
987.47046	0.13052
986.18469	0.12751
984.89892	0.12454
983.61315	0.12156
982.32738	0.11856
981.04161	0.11558
979.75585	0.11272
978.47008	0.11002
977.18431	0.10747
975.89854	0.10508
974.61277	0.10284
973.32700	0.10075
972.04123	0.09882
970.75546	0.09710
969.46970	0.09574
968.18393	0.09484
966.89816	0.09442
965.61239	0.09438
964.32662	0.09453
963.04085	0.09473
961.75508	0.09486
960.46931	0.09486
959.18354	0.09459
957.89778	0.09394
956.61201	0.09290
955.32624	0.09163
954.04047	0.09026
952.75470	0.08883
951.46893	0.08730
950.18316	0.08571
948.89739	0.08416
947.61163	0.08272
946.32586	0.08134
945.04009	0.07997
943.75432	0.07857
942.46855	0.07715
941.18278	0.07576
939.89701	0.07443
938.61124	0.07314
937.32547	0.07187
936.03971	0.07064
934.75394	0.06949
933.46817	0.06844
932.18240	0.06746
930.89663	0.06651
929.61086	0.06557
928.32509	0.06467
927.03932	0.06388
925.75356	0.06318
924.46779	0.06255
923.18202	0.06193
921.89625	0.06127
920.61048	0.06057
919.32471	0.05986
918.03894	0.05916
916.75317	0.05851
915.46740	0.05794
914.18164	0.05744
912.89587	0.05697
911.61010	0.05643
910.32433	0.05578
909.03856	0.05508
907.75279	0.05447
906.46702	0.05402
905.18125	0.05365
903.89549	0.05326
902.60972	0.05284
901.32395	0.05243
900.03818	0.05207
898.75241	0.05173
897.46664	0.05135
896.18087	0.05092
894.89510	0.05049
893.60933	0.05010
892.32357	0.04979
891.03780	0.04953
889.75203	0.04927
888.46626	0.04900
887.18049	0.04881
885.89472	0.04883
884.60895	0.04921
883.32318	0.05011
882.03742	0.05144
880.75165	0.05289
879.46588	0.05409
878.18011	0.05486
876.89434	0.05537
875.60857	0.05590
874.32280	0.05656
873.03703	0.05715
871.75126	0.05738
870.46550	0.05711
869.17973	0.05639
867.89396	0.05536
866.60819	0.05419
865.32242	0.05304
864.03665	0.05201
862.75088	0.05107
861.46511	0.05016
860.17935	0.04927
858.89358	0.04847
857.60781	0.04781
856.32204	0.04726
855.03627	0.04675
853.75050	0.04625
852.46473	0.04581
851.17896	0.04547
849.89319	0.04520
848.60743	0.04494
847.32166	0.04466
846.03589	0.04436
844.75012	0.04408
843.46435	0.04380
842.17858	0.04353
840.89281	0.04323
839.60704	0.04291
838.32128	0.04259
837.03551	0.04232
835.74974	0.04213
834.46397	0.04199
833.17820	0.04184
831.89243	0.04169
830.60666	0.04153
829.32089	0.04135
828.03512	0.04116
826.74936	0.04095
825.46359	0.04076
824.17782	0.04062
822.89205	0.04052
821.60628	0.04044
820.32051	0.04034
819.03474	0.04022
817.74897	0.04010
816.46321	0.03999
815.17744	0.03991
813.89167	0.03987
812.60590	0.03982
811.32013	0.03969
810.03436	0.03949
808.74859	0.03930
807.46282	0.03922
806.17705	0.03922
804.89129	0.03923
803.60552	0.03920
802.31975	0.03918
801.03398	0.03924
799.74821	0.03934
798.46244	0.03939
797.17667	0.03935
795.89090	0.03926
794.60513	0.03923
793.31937	0.03926
792.03360	0.03927
790.74783	0.03920
789.46206	0.03909
788.17629	0.03903
786.89052	0.03905
785.60475	0.03914
784.31898	0.03923
783.03322	0.03926
781.74745	0.03924
780.46168	0.03919
779.17591	0.03911
777.89014	0.03899
776.60437	0.03882
775.31860	0.03862
774.03283	0.03851
772.74706	0.03852
771.46130	0.03862
770.17553	0.03872
768.88976	0.03876
767.60399	0.03875
766.31822	0.03877
765.03245	0.03886
763.74668	0.03894
762.46091	0.03893
761.17515	0.03879
759.88938	0.03858
758.60361	0.03845
757.31784	0.03849
756.03207	0.03869
754.74630	0.03890
753.46053	0.03904
752.17476	0.03908
750.88899	0.03909
749.60323	0.03908
748.31746	0.03905
747.03169	0.03898
745.74592	0.03892
744.46015	0.03885
743.17438	0.03874
741.88861	0.03864
740.60284	0.03857
739.31708	0.03852
738.03131	0.03841
736.74554	0.03828
735.45977	0.03825
734.17400	0.03834
732.88823	0.03848
731.60246	0.03854
730.31669	0.03855
729.03092	0.03852
727.74516	0.03850
726.45939	0.03849
725.17362	0.03851
723.88785	0.03851
722.60208	0.03854
721.31631	0.03854
720.03054	0.03852
718.74477	0.03849
717.45901	0.03846
716.17324	0.03840
714.88747	0.03831
713.60170	0.03821
712.31593	0.03813
711.03016	0.03809
709.74439	0.03809
708.45862	0.03808
707.17285	0.03804
705.88709	0.03796
704.60132	0.03788
703.31555	0.03786
702.02978	0.03792
700.74401	0.03805
699.45824	0.03820
698.17247	0.03832
696.88670	0.03837
695.60094	0.03835
694.31517	0.03824
693.02940	0.03808
691.74363	0.03793
690.45786	0.03783
689.17209	0.03777
687.88632	0.03772
686.60055	0.03765
685.31478	0.03758
684.02902	0.03754
682.74325	0.03752
681.45748	0.03747
680.17171	0.03736
678.88594	0.03721
677.60017	0.03710
676.31440	0.03708
675.02863	0.03712
673.74287	0.03715
672.45710	0.03718
671.17133	0.03721
669.88556	0.03729
668.59979	0.03734
667.31402	0.03736
666.02825	0.03745
664.74248	0.03739
663.45671	0.03727
662.17095	0.03712
660.88518	0.03698
659.59941	0.03685
658.31364	0.03673
657.02787	0.03662
655.74210	0.03655
654.45633	0.03655
653.17056	0.03664
651.88480	0.03675
650.59903	0.03683
649.31326	0.03683
648.02749	0.03675
646.74172	0.03666
645.45595	0.03663
644.17018	0.03667
642.88441	0.03674
641.59864	0.03677
640.31288	0.03678
639.02711	0.03684
637.74134	0.03698
636.45557	0.03715
635.16980	0.03729
633.88403	0.03739
632.59826	0.03747
631.31249	0.03769
630.02673	0.03874
628.74096	0.04045
627.45519	0.04015
626.16942	0.04224
624.88365	0.04569
623.59788	0.04840
622.31211	0.04995
621.02634	0.05135
619.74057	0.05361
618.45481	0.05619
617.16904	0.05754
615.88327	0.05694
614.59750	0.05526
613.31173	0.05429
612.02596	0.05565
610.74019	0.05989
609.45442	0.06597
608.16866	0.07186
606.88289	0.07618
605.59712	0.07904
604.31135	0.08115
603.02558	0.08287
601.73981	0.08394
600.45404	0.08394
599.16827	0.08272
597.88250	0.08057
596.59674	0.07793
595.31097	0.07533
594.02520	0.07312
592.73943	0.07147
591.45366	0.07037
590.16789	0.06965
588.88212	0.06923
587.59635	0.06918
586.31059	0.06957
585.02482	0.07039
583.73905	0.07146
582.45328	0.07264
581.16751	0.07397
579.88174	0.07555
578.59597	0.07744
577.31020	0.07950
576.02443	0.08151
574.73867	0.08338
573.45290	0.08518
572.16713	0.08708
570.88136	0.08918
569.59559	0.09148
568.30982	0.09396
567.02405	0.09663
565.73828	0.09939
564.45251	0.10204
563.16675	0.10428
561.88098	0.10584
560.59521	0.10646
559.30944	0.10598
558.02367	0.10440
556.73790	0.10192
555.45213	0.09884
554.16636	0.09543
552.88060	0.09189
551.59483	0.08840
550.30906	0.08508
549.02329	0.08202
547.73752	0.07932
546.45175	0.07705
545.16598	0.07516
543.88021	0.07354
542.59444	0.07204
541.30868	0.07059
540.02291	0.06917
538.73714	0.06779
537.45137	0.06645
536.16560	0.06520
534.87983	0.06407
533.59406	0.06306
532.30829	0.06215
531.02253	0.06129
529.73676	0.06045
528.45099	0.05959
527.16522	0.05873
525.87945	0.05787
524.59368	0.05703
523.30791	0.05619
522.02214	0.05538
520.73637	0.05463
519.45061	0.05394
518.16484	0.05330
516.87907	0.05260
515.59330	0.05177
514.30753	0.05085
513.02176	0.04999
511.73599	0.04927
510.45022	0.04868
509.16446	0.04814
507.87869	0.04760
506.59292	0.04706
505.30715	0.04654
504.02138	0.04607
502.73561	0.04566
501.44984	0.04527
500.16407	0.04481
498.87830	0.04423
497.59254	0.04355
496.30677	0.04290
495.02100	0.04239
493.73523	0.04202
492.44946	0.04173
491.16369	0.04140
489.87792	0.04095
488.59215	0.04045
487.30639	0.04004
486.02062	0.03982
484.73485	0.03975
483.44908	0.03971
482.16331	0.03967
480.87754	0.03968
479.59177	0.03981
478.30600	0.04003
477.02023	0.04026
475.73447	0.04042
474.44870	0.04050
473.16293	0.04056
471.87716	0.04065
470.59139	0.04075
469.30562	0.04080
468.01985	0.04071
466.73408	0.04048
465.44832	0.04019
464.16255	0.03988
462.87678	0.03959
461.59101	0.03930
460.30524	0.03899
459.01947	0.03864
457.73370	0.03828
456.44793	0.03793
455.16216	0.03759
453.87640	0.03720
452.59063	0.03674
451.30486	0.03620
450.01909	0.03566
448.73332	0.03518
447.44755	0.03476
446.16178	0.03442
444.87601	0.03413
443.59025	0.03388
442.30448	0.03366
441.01871	0.03348
439.73294	0.03332
438.44717	0.03319
437.16140	0.03306
435.87563	0.03290
434.58986	0.03271
433.30409	0.03254
432.01833	0.03246
430.73256	0.03244
429.44679	0.03243
428.16102	0.03233
426.87525	0.03214
425.58948	0.03192
424.30371	0.03170
423.01794	0.03151
421.73218	0.03129
420.44641	0.03104
419.16064	0.03075
417.87487	0.03044
416.58910	0.03013
415.30333	0.02983
414.01756	0.02951
412.73179	0.02918
411.44602	0.02882
410.16026	0.02846
408.87449	0.02815
407.58872	0.02792
406.30295	0.02775
405.01718	0.02758
403.73141	0.02740
402.44564	0.02724
401.15987	0.02716
399.87411	0.02717
