3997.45528	0.01162
3996.16951	0.01200
3994.88374	0.01246
3993.59798	0.01287
3992.31221	0.01316
3991.02644	0.01336
3989.74067	0.01360
3988.45490	0.01393
3987.16913	0.01438
3985.88336	0.01480
3984.59759	0.01506
3983.31183	0.01516
3982.02606	0.01528
3980.74029	0.01546
3979.45452	0.01548
3978.16875	0.01523
3976.88298	0.01487
3975.59721	0.01472
3974.31144	0.01491
3973.02567	0.01520
3971.73991	0.01528
3970.45414	0.01498
3969.16837	0.01444
3967.88260	0.01394
3966.59683	0.01368
3965.31106	0.01358
3964.02529	0.01339
3962.73952	0.01296
3961.45376	0.01239
3960.16799	0.01191
3958.88222	0.01168
3957.59645	0.01181
3956.31068	0.01232
3955.02491	0.01302
3953.73914	0.01360
3952.45337	0.01377
3951.16760	0.01362
3949.88184	0.01349
3948.59607	0.01364
3947.31030	0.01411
3946.02453	0.01469
3944.73876	0.01518
3943.45299	0.01537
3942.16722	0.01519
3940.88145	0.01461
3939.59569	0.01378
3938.30992	0.01297
3937.02415	0.01246
3935.73838	0.01228
3934.45261	0.01231
3933.16684	0.01242
3931.88107	0.01249
3930.59530	0.01240
3929.30953	0.01210
3928.02377	0.01181
3926.73800	0.01176
3925.45223	0.01203
3924.16646	0.01253
3922.88069	0.01310
3921.59492	0.01360
3920.30915	0.01392
3919.02338	0.01393
3917.73762	0.01358
3916.45185	0.01304
3915.16608	0.01258
3913.88031	0.01247
3912.59454	0.01280
3911.30877	0.01346
3910.02300	0.01418
3908.73723	0.01474
3907.45146	0.01506
3906.16570	0.01514
3904.87993	0.01498
3903.59416	0.01457
3902.30839	0.01399
3901.02262	0.01352
3899.73685	0.01348
3898.45108	0.01396
3897.16531	0.01466
3895.87955	0.01516
3894.59378	0.01523
3893.30801	0.01482
3892.02224	0.01413
3890.73647	0.01360
3889.45070	0.01338
3888.16493	0.01321
3886.87916	0.01301
3885.59339	0.01321
3884.30763	0.01403
3883.02186	0.01502
3881.73609	0.01562
3880.45032	0.01572
3879.16455	0.01548
3877.87878	0.01498
3876.59301	0.01441
3875.30724	0.01406
3874.02148	0.01403
3872.73571	0.01393
3871.44994	0.01346
3870.16417	0.01314
3868.87840	0.01362
3867.59263	0.01467
3866.30686	0.01553
3865.02109	0.01588
3863.73532	0.01585
3862.44956	0.01561
3861.16379	0.01534
3859.87802	0.01523
3858.59225	0.01527
3857.30648	0.01530
3856.02071	0.01504
3854.73494	0.01454
3853.44917	0.01417
3852.16341	0.01403
3850.87764	0.01390
3849.59187	0.01376
3848.30610	0.01378
3847.02033	0.01394
3845.73456	0.01408
3844.44879	0.01417
3843.16302	0.01427
3841.87725	0.01431
3840.59149	0.01399
3839.30572	0.01327
3838.01995	0.01254
3836.73418	0.01218
3835.44841	0.01199
3834.16264	0.01174
3832.87687	0.01160
3831.59110	0.01187
3830.30534	0.01250
3829.01957	0.01315
3827.73380	0.01369
3826.44803	0.01433
3825.16226	0.01517
3823.87649	0.01581
3822.59072	0.01597
3821.30495	0.01593
3820.01918	0.01604
3818.73342	0.01598
3817.44765	0.01526
3816.16188	0.01412
3814.87611	0.01308
3813.59034	0.01224
3812.30457	0.01169
3811.01880	0.01174
3809.73303	0.01235
3808.44726	0.01298
3807.16150	0.01331
3805.87573	0.01349
3804.58996	0.01366
3803.30419	0.01387
3802.01842	0.01423
3800.73265	0.01464
3799.44688	0.01459
3798.16111	0.01385
3796.87535	0.01299
3795.58958	0.01270
3794.30381	0.01297
3793.01804	0.01338
3791.73227	0.01365
3790.44650	0.01362
3789.16073	0.01327
3787.87496	0.01282
3786.58919	0.01258
3785.30343	0.01261
3784.01766	0.01277
3782.73189	0.01292
3781.44612	0.01298
3780.16035	0.01299
3778.87458	0.01298
3777.58881	0.01290
3776.30304	0.01281
3775.01728	0.01289
3773.73151	0.01328
3772.44574	0.01384
3771.15997	0.01429
3769.87420	0.01449
3768.58843	0.01433
3767.30266	0.01373
3766.01689	0.01296
3764.73112	0.01250
3763.44536	0.01256
3762.15959	0.01291
3760.87382	0.01326
3759.58805	0.01347
3758.30228	0.01354
3757.01651	0.01361
3755.73074	0.01383
3754.44497	0.01414
3753.15921	0.01444
3751.87344	0.01467
3750.58767	0.01472
3749.30190	0.01461
3748.01613	0.01446
3746.73036	0.01395
3745.44459	0.01301
3744.15882	0.01235
3742.87305	0.01236
3741.58729	0.01271
3740.30152	0.01317
3739.01575	0.01372
3737.72998	0.01425
3736.44421	0.01475
3735.15844	0.01523
3733.87267	0.01545
3732.58690	0.01527
3731.30114	0.01489
3730.01537	0.01440
3728.72960	0.01370
3727.44383	0.01299
3726.15806	0.01271
3724.87229	0.01293
3723.58652	0.01321
3722.30075	0.01307
3721.01498	0.01250
3719.72922	0.01196
3718.44345	0.01204
3717.15768	0.01289
3715.87191	0.01408
3714.58614	0.01494
3713.30037	0.01518
3712.01460	0.01495
3710.72883	0.01458
3709.44307	0.01431
3708.15730	0.01419
3706.87153	0.01414
3705.58576	0.01398
3704.29999	0.01369
3703.01422	0.01333
3701.72845	0.01285
3700.44268	0.01220
3699.15691	0.01155
3697.87115	0.01115
3696.58538	0.01124
3695.29961	0.01178
3694.01384	0.01239
3692.72807	0.01262
3691.44230	0.01235
3690.15653	0.01182
3688.87076	0.01151
3687.58500	0.01179
3686.29923	0.01252
3685.01346	0.01313
3683.72769	0.01327
3682.44192	0.01303
3681.15615	0.01272
3679.87038	0.01279
3678.58461	0.01323
3677.29884	0.01357
3676.01308	0.01366
3674.72731	0.01379
3673.44154	0.01394
3672.15577	0.01385
3670.87000	0.01369
3669.58423	0.01389
3668.29846	0.01430
3667.01269	0.01446
3665.72693	0.01436
3664.44116	0.01439
3663.15539	0.01484
3661.86962	0.01557
3660.58385	0.01615
3659.29808	0.01621
3658.01231	0.01582
3656.72654	0.01536
3655.44077	0.01513
3654.15501	0.01501
3652.86924	0.01475
3651.58347	0.01443
3650.29770	0.01433
3649.01193	0.01448
3647.72616	0.01475
3646.44039	0.01503
3645.15462	0.01521
3643.86886	0.01518
3642.58309	0.01498
3641.29732	0.01486
3640.01155	0.01497
3638.72578	0.01516
3637.44001	0.01514
3636.15424	0.01478
3634.86847	0.01430
3633.58270	0.01408
3632.29694	0.01427
3631.01117	0.01471
3629.72540	0.01524
3628.43963	0.01573
3627.15386	0.01586
3625.86809	0.01550
3624.58232	0.01510
3623.29655	0.01510
3622.01079	0.01526
3620.72502	0.01512
3619.43925	0.01460
3618.15348	0.01406
3616.86771	0.01379
3615.58194	0.01387
3614.29617	0.01427
3613.01040	0.01488
3611.72463	0.01548
3610.43887	0.01593
3609.15310	0.01621
3607.86733	0.01641
3606.58156	0.01642
3605.29579	0.01614
3604.01002	0.01573
3602.72425	0.01540
3601.43848	0.01524
3600.15272	0.01526
3598.86695	0.01553
3597.58118	0.01609
3596.29541	0.01675
3595.00964	0.01717
3593.72387	0.01721
3592.43810	0.01705
3591.15233	0.01701
3589.86656	0.01724
3588.58080	0.01757
3587.29503	0.01764
3586.00926	0.01725
3584.72349	0.01667
3583.43772	0.01655
3582.15195	0.01725
3580.86618	0.01846
3579.58041	0.01941
3578.29464	0.01963
3577.00888	0.01937
3575.72311	0.01920
3574.43734	0.01943
3573.15157	0.01989
3571.86580	0.02024
3570.58003	0.02038
3569.29426	0.02044
3568.00849	0.02060
3566.72273	0.02083
3565.43696	0.02085
3564.15119	0.02037
3562.86542	0.01938
3561.57965	0.01818
3560.29388	0.01720
3559.00811	0.01678
3557.72234	0.01696
3556.43657	0.01756
3555.15081	0.01833
3553.86504	0.01908
3552.57927	0.01961
3551.29350	0.01989
3550.00773	0.02004
3548.72196	0.02025
3547.43619	0.02052
3546.15042	0.02065
3544.86466	0.02048
3543.57889	0.02016
3542.29312	0.02004
3541.00735	0.02026
3539.72158	0.02061
3538.43581	0.02074
3537.15004	0.02058
3535.86427	0.02040
3534.57850	0.02040
3533.29274	0.02044
3532.00697	0.02029
3530.72120	0.01996
3529.43543	0.01973
3528.14966	0.01972
3526.86389	0.01974
3525.57812	0.01955
3524.29235	0.01911
3523.00659	0.01858
3521.72082	0.01821
3520.43505	0.01825
3519.14928	0.01883
3517.86351	0.01979
3516.57774	0.02068
3515.29197	0.02112
3514.00620	0.02109
3512.72043	0.02089
3511.43467	0.02073
3510.14890	0.02064
3508.86313	0.02055
3507.57736	0.02044
3506.29159	0.02033
3505.00582	0.02023
3503.72005	0.02021
3502.43428	0.02025
3501.14852	0.02024
3499.86275	0.02016
3498.57698	0.02018
3497.29121	0.02051
3496.00544	0.02101
3494.71967	0.02122
3493.43390	0.02087
3492.14813	0.02023
3490.86236	0.01986
3489.57660	0.02004
3488.29083	0.02047
3487.00506	0.02063
3485.71929	0.02032
3484.43352	0.01987
3483.14775	0.01973
3481.86198	0.02005
3480.57621	0.02054
3479.29045	0.02079
3478.00468	0.02077
3476.71891	0.02080
3475.43314	0.02114
3474.14737	0.02162
3472.86160	0.02184
3471.57583	0.02167
3470.29006	0.02138
3469.00429	0.02128
3467.71853	0.02135
3466.43276	0.02135
3465.14699	0.02118
3463.86122	0.02101
3462.57545	0.02110
3461.28968	0.02150
3460.00391	0.02195
3458.71814	0.02211
3457.43238	0.02189
3456.14661	0.02157
3454.86084	0.02148
3453.57507	0.02170
3452.28930	0.02201
3451.00353	0.02225
3449.71776	0.02240
3448.43199	0.02254
3447.14622	0.02257
3445.86046	0.02232
3444.57469	0.02176
3443.28892	0.02111
3442.00315	0.02067
3440.71738	0.02062
3439.43161	0.02101
3438.14584	0.02172
3436.86007	0.02254
3435.57431	0.02318
3434.28854	0.02354
3433.00277	0.02365
3431.71700	0.02365
3430.43123	0.02368
3429.14546	0.02382
3427.85969	0.02402
3426.57392	0.02413
3425.28815	0.02399
3424.00239	0.02365
3422.71662	0.02337
3421.43085	0.02337
3420.14508	0.02363
3418.85931	0.02400
3417.57354	0.02424
3416.28777	0.02417
3415.00200	0.02374
3413.71624	0.02313
3412.43047	0.02264
3411.14470	0.02248
3409.85893	0.02264
3408.57316	0.02288
3407.28739	0.02302
3406.00162	0.02300
3404.71585	0.02299
3403.43008	0.02311
3402.14432	0.02334
3400.85855	0.02354
3399.57278	0.02367
3398.28701	0.02372
3397.00124	0.02376
3395.71547	0.02382
3394.42970	0.02394
3393.14393	0.02410
3391.85817	0.02424
3390.57240	0.02429
3389.28663	0.02421
3388.00086	0.02403
3386.71509	0.02374
3385.42932	0.02335
3384.14355	0.02298
3382.85778	0.02278
3381.57201	0.02277
3380.28625	0.02285
3379.00048	0.02293
3377.71471	0.02299
3376.42894	0.02304
3375.14317	0.02310
3373.85740	0.02313
3372.57163	0.02315
3371.28586	0.02320
3370.00010	0.02331
3368.71433	0.02344
3367.42856	0.02353
3366.14279	0.02356
3364.85702	0.02356
3363.57125	0.02354
3362.28548	0.02345
3360.99971	0.02330
3359.71394	0.02323
3358.42818	0.02346
3357.14241	0.02397
3355.85664	0.02445
3354.57087	0.02459
3353.28510	0.02434
3351.99933	0.02397
3350.71356	0.02379
3349.42779	0.02387
3348.14202	0.02404
3346.85626	0.02404
3345.57049	0.02382
3344.28472	0.02359
3342.99895	0.02360
3341.71318	0.02398
3340.42741	0.02454
3339.14164	0.02498
3337.85587	0.02512
3336.57011	0.02497
3335.28434	0.02470
3333.99857	0.02448
3332.71280	0.02443
3331.42703	0.02449
3330.14126	0.02449
3328.85549	0.02429
3327.56972	0.02389
3326.28395	0.02347
3324.99819	0.02328
3323.71242	0.02344
3322.42665	0.02382
3321.14088	0.02404
3319.85511	0.02381
3318.56934	0.02312
3317.28357	0.02235
3315.99780	0.02192
3314.71204	0.02198
3313.42627	0.02235
3312.14050	0.02280
3310.85473	0.02320
3309.56896	0.02359
3308.28319	0.02405
3306.99742	0.02463
3305.71165	0.02525
3304.42588	0.02576
3303.14012	0.02590
3301.85435	0.02558
3300.56858	0.02493
3299.28281	0.02428
3297.99704	0.02381
3296.71127	0.02349
3295.42550	0.02319
3294.13973	0.02292
3292.85397	0.02279
3291.56820	0.02287
3290.28243	0.02307
3288.99666	0.02332
3287.71089	0.02364
3286.42512	0.02398
3285.13935	0.02425
3283.85358	0.02434
3282.56781	0.02430
3281.28205	0.02423
3279.99628	0.02420
3278.71051	0.02421
3277.42474	0.02420
3276.13897	0.02412
3274.85320	0.02405
3273.56743	0.02400
3272.28166	0.02394
3270.99590	0.02381
3269.71013	0.02358
3268.42436	0.02329
3267.13859	0.02307
3265.85282	0.02301
3264.56705	0.02311
3263.28128	0.02325
3261.99551	0.02327
3260.70974	0.02316
3259.42398	0.02305
3258.13821	0.02306
3256.85244	0.02314
3255.56667	0.02312
3254.28090	0.02294
3252.99513	0.02273
3251.70936	0.02264
3250.42359	0.02263
3249.13783	0.02252
3247.85206	0.02226
3246.56629	0.02195
3245.28052	0.02170
3243.99475	0.02156
3242.70898	0.02160
3241.42321	0.02191
3240.13744	0.02245
3238.85167	0.02295
3237.56591	0.02313
3236.28014	0.02292
3234.99437	0.02253
3233.70860	0.02221
3232.42283	0.02207
3231.13706	0.02211
3229.85129	0.02223
3228.56552	0.02235
3227.27976	0.02240
3225.99399	0.02244
3224.70822	0.02260
3223.42245	0.02290
3222.13668	0.02318
3220.85091	0.02325
3219.56514	0.02309
3218.27937	0.02290
3216.99360	0.02288
3215.70784	0.02300
3214.42207	0.02306
3213.13630	0.02283
3211.85053	0.02229
3210.56476	0.02167
3209.27899	0.02125
3207.99322	0.02118
3206.70745	0.02142
3205.42169	0.02183
3204.13592	0.02222
3202.85015	0.02244
3201.56438	0.02246
3200.27861	0.02233
3198.99284	0.02226
3197.70707	0.02235
3196.42130	0.02252
3195.13553	0.02254
3193.84977	0.02232
3192.56400	0.02204
3191.27823	0.02193
3189.99246	0.02200
3188.70669	0.02210
3187.42092	0.02212
3186.13515	0.02207
3184.84938	0.02198
3183.56362	0.02188
3182.27785	0.02183
3180.99208	0.02185
3179.70631	0.02190
3178.42054	0.02188
3177.13477	0.02173
3175.84900	0.02150
3174.56323	0.02119
3173.27746	0.02080
3171.99170	0.02041
3170.70593	0.02025
3169.42016	0.02045
3168.13439	0.02095
3166.84862	0.02146
3165.56285	0.02172
3164.27708	0.02163
3162.99131	0.02125
3161.70555	0.02082
3160.41978	0.02059
3159.13401	0.02068
3157.84824	0.02100
3156.56247	0.02136
3155.27670	0.02162
3153.99093	0.02177
3152.70516	0.02181
3151.41939	0.02173
3150.13363	0.02157
3148.84786	0.02141
3147.56209	0.02134
3146.27632	0.02137
3144.99055	0.02142
3143.70478	0.02139
3142.41901	0.02123
3141.13324	0.02094
3139.84748	0.02069
3138.56171	0.02067
3137.27594	0.02096
3135.99017	0.02143
3134.70440	0.02188
3133.41863	0.02218
3132.13286	0.02229
3130.84709	0.02227
3129.56132	0.02214
3128.27556	0.02186
3126.98979	0.02138
3125.70402	0.02078
3124.41825	0.02027
3123.13248	0.01999
3121.84671	0.01985
3120.56094	0.01969
3119.27517	0.01953
3117.98940	0.01954
3116.70364	0.01983
3115.41787	0.02025
3114.13210	0.02051
3112.84633	0.02041
3111.56056	0.02004
3110.27479	0.01973
3108.98902	0.01971
3107.70325	0.01992
3106.41749	0.02012
3105.13172	0.02016
3103.84595	0.02012
3102.56018	0.02011
3101.27441	0.02014
3099.98864	0.02006
3098.70287	0.01975
3097.41710	0.01925
3096.13133	0.01879
3094.84557	0.01860
3093.55980	0.01877
3092.27403	0.01921
3090.98826	0.01973
3089.70249	0.02009
3088.41672	0.02024
3087.13095	0.02033
3085.84518	0.02056
3084.55942	0.02088
3083.27365	0.02104
3081.98788	0.02080
3080.70211	0.02023
3079.41634	0.01968
3078.13057	0.01940
3076.84480	0.01944
3075.55903	0.01959
3074.27326	0.01966
3072.98750	0.01959
3071.70173	0.01949
3070.41596	0.01956
3069.13019	0.01987
3067.84442	0.02027
3066.55865	0.02049
3065.27288	0.02038
3063.98711	0.02004
3062.70135	0.01972
3061.41558	0.01955
3060.12981	0.01951
3058.84404	0.01950
3057.55827	0.01946
3056.27250	0.01942
3054.98673	0.01946
3053.70096	0.01967
3052.41519	0.02001
3051.12943	0.02028
3049.84366	0.02021
3048.55789	0.01979
3047.27212	0.01926
3045.98635	0.01895
3044.70058	0.01892
3043.41481	0.01897
3042.12904	0.01888
3040.84328	0.01870
3039.55751	0.01862
3038.27174	0.01881
3036.98597	0.01920
3035.70020	0.01961
3034.41443	0.01983
3033.12866	0.01981
3031.84289	0.01958
3030.55712	0.01932
3029.27136	0.01915
3027.98559	0.01912
3026.69982	0.01913
3025.41405	0.01905
3024.12828	0.01883
3022.84251	0.01861
3021.55674	0.01852
3020.27097	0.01860
3018.98521	0.01873
3017.69944	0.01880
3016.41367	0.01874
3015.12790	0.01855
3013.84213	0.01830
3012.55636	0.01810
3011.27059	0.01807
3009.98482	0.01825
3008.69905	0.01855
3007.41329	0.01878
3006.12752	0.01883
3004.84175	0.01873
3003.55598	0.01857
3002.27021	0.01840
3000.98444	0.01822
2999.69867	0.01805
2998.41290	0.01795
2997.12714	0.01799
2995.84137	0.01816
2994.55560	0.01840
2993.26983	0.01865
2991.98406	0.01883
2990.69829	0.01889
2989.41252	0.01886
2988.12675	0.01886
2986.84098	0.01897
2985.55522	0.01916
2984.26945	0.01925
2982.98368	0.01915
2981.69791	0.01901
2980.41214	0.01912
2979.12637	0.01954
2977.84060	0.02005
2976.55483	0.02041
2975.26907	0.02062
2973.98330	0.02081
2972.69753	0.02103
2971.41176	0.02120
2970.12599	0.02132
2968.84022	0.02144
2967.55445	0.02162
2966.26868	0.02183
2964.98291	0.02206
2963.69715	0.02226
2962.41138	0.02243
2961.12561	0.02264
2959.83984	0.02298
2958.55407	0.02345
2957.26830	0.02391
2955.98253	0.02429
2954.69676	0.02463
2953.41100	0.02497
2952.12523	0.02520
2950.83946	0.02520
2949.55369	0.02492
2948.26792	0.02453
2946.98215	0.02429
2945.69638	0.02433
2944.41061	0.02449
2943.12484	0.02451
2941.83908	0.02429
2940.55331	0.02397
2939.26754	0.02376
2937.98177	0.02380
2936.69600	0.02409
2935.41023	0.02446
2934.12446	0.02467
2932.83869	0.02467
2931.55293	0.02461
2930.26716	0.02465
2928.98139	0.02483
2927.69562	0.02509
2926.40985	0.02536
2925.12408	0.02553
2923.83831	0.02554
2922.55254	0.02547
2921.26677	0.02549
2919.98101	0.02561
2918.69524	0.02564
2917.40947	0.02537
2916.12370	0.02480
2914.83793	0.02414
2913.55216	0.02366
2912.26639	0.02346
2910.98062	0.02338
2909.69486	0.02323
2908.40909	0.02295
2907.12332	0.02266
2905.83755	0.02244
2904.55178	0.02230
2903.26601	0.02222
2901.98024	0.02218
2900.69447	0.02210
2899.40870	0.02195
2898.12294	0.02181
2896.83717	0.02176
2895.55140	0.02177
2894.26563	0.02178
2892.97986	0.02171
2891.69409	0.02155
2890.40832	0.02128
2889.12255	0.02092
2887.83678	0.02047
2886.55102	0.01999
2885.26525	0.01958
2883.97948	0.01934
2882.69371	0.01926
2881.40794	0.01923
2880.12217	0.01919
2878.83640	0.01923
2877.55063	0.01941
2876.26487	0.01970
2874.97910	0.01997
2873.69333	0.02011
2872.40756	0.02011
2871.12179	0.02004
2869.83602	0.01999
2868.55025	0.02001
2867.26448	0.02007
2865.97871	0.02015
2864.69295	0.02028
2863.40718	0.02041
2862.12141	0.02043
2860.83564	0.02029
2859.54987	0.02006
2858.26410	0.01988
2856.97833	0.01983
2855.69256	0.01988
2854.40680	0.01997
2853.12103	0.02001
2851.83526	0.01991
2850.54949	0.01966
2849.26372	0.01934
2847.97795	0.01912
2846.69218	0.01906
2845.40641	0.01909
2844.12064	0.01906
2842.83488	0.01881
2841.54911	0.01835
2840.26334	0.01783
2838.97757	0.01744
2837.69180	0.01729
2836.40603	0.01728
2835.12026	0.01724
2833.83449	0.01706
2832.54873	0.01675
2831.26296	0.01640
2829.97719	0.01606
2828.69142	0.01579
2827.40565	0.01563
2826.11988	0.01560
2824.83411	0.01562
2823.54834	0.01560
2822.26257	0.01547
2820.97681	0.01529
2819.69104	0.01515
2818.40527	0.01510
2817.11950	0.01513
2815.83373	0.01516
2814.54796	0.01516
2813.26219	0.01513
2811.97642	0.01510
2810.69066	0.01504
2809.40489	0.01491
2808.11912	0.01474
2806.83335	0.01460
2805.54758	0.01455
2804.26181	0.01456
2802.97604	0.01457
2801.69027	0.01454
2800.40450	0.01447
2799.11874	0.01439
2797.83297	0.01432
2796.54720	0.01425
2795.26143	0.01418
2793.97566	0.01414
2792.68989	0.01413
2791.40412	0.01414
2790.11835	0.01412
2788.83259	0.01397
2787.54682	0.01371
2786.26105	0.01352
2784.97528	0.01353
2783.68951	0.01366
2782.40374	0.01370
2781.11797	0.01355
2779.83220	0.01332
2778.54643	0.01315
2777.26067	0.01308
2775.97490	0.01307
2774.68913	0.01313
2773.40336	0.01331
2772.11759	0.01358
2770.83182	0.01382
2769.54605	0.01395
2768.26028	0.01395
2766.97452	0.01384
2765.68875	0.01364
2764.40298	0.01341
2763.11721	0.01332
2761.83144	0.01347
2760.54567	0.01377
2759.25990	0.01403
2757.97413	0.01409
2756.68836	0.01393
2755.40260	0.01361
2754.11683	0.01326
2752.83106	0.01300
2751.54529	0.01289
2750.25952	0.01294
2748.97375	0.01308
2747.68798	0.01322
2746.40221	0.01326
2745.11645	0.01322
2743.83068	0.01319
2742.54491	0.01325
2741.25914	0.01336
2739.97337	0.01345
2738.68760	0.01347
2737.40183	0.01339
2736.11606	0.01322
2734.83029	0.01305
2733.54453	0.01301
2732.25876	0.01317
2730.97299	0.01340
2729.68722	0.01348
2728.40145	0.01332
2727.11568	0.01301
2725.82991	0.01273
2724.54414	0.01258
2723.25838	0.01257
2721.97261	0.01262
2720.68684	0.01264
2719.40107	0.01265
2718.11530	0.01268
2716.82953	0.01276
2715.54376	0.01281
2714.25799	0.01276
2712.97222	0.01262
2711.68646	0.01242
2710.40069	0.01223
2709.11492	0.01209
2707.82915	0.01205
2706.54338	0.01209
2705.25761	0.01217
2703.97184	0.01227
2702.68607	0.01239
2701.40031	0.01257
2700.11454	0.01280
2698.82877	0.01304
2697.54300	0.01316
2696.25723	0.01311
2694.97146	0.01294
2693.68569	0.01272
2692.39992	0.01249
2691.11415	0.01224
2689.82839	0.01198
2688.54262	0.01176
2687.25685	0.01166
2685.97108	0.01170
2684.68531	0.01186
2683.39954	0.01205
2682.11377	0.01216
2680.82800	0.01214
2679.54224	0.01207
2678.25647	0.01209
2676.97070	0.01225
2675.68493	0.01245
2674.39916	0.01252
2673.11339	0.01241
2671.82762	0.01222
2670.54185	0.01208
2669.25608	0.01199
2667.97032	0.01190
2666.68455	0.01180
2665.39878	0.01173
2664.11301	0.01174
2662.82724	0.01181
2661.54147	0.01193
2660.25570	0.01205
2658.96993	0.01210
2657.68417	0.01210
2656.39840	0.01213
2655.11263	0.01224
2653.82686	0.01233
2652.54109	0.01233
2651.25532	0.01228
2649.96955	0.01229
2648.68378	0.01239
2647.39801	0.01245
2646.11225	0.01240
2644.82648	0.01230
2643.54071	0.01219
2642.25494	0.01207
2640.96917	0.01193
2639.68340	0.01180
2638.39763	0.01167
2637.11186	0.01156
2635.82609	0.01147
2634.54033	0.01142
2633.25456	0.01138
2631.96879	0.01131
2630.68302	0.01115
2629.39725	0.01096
2628.11148	0.01089
2626.82571	0.01107
2625.53994	0.01149
2624.25418	0.01193
2622.96841	0.01216
2621.68264	0.01212
2620.39687	0.01188
2619.11110	0.01156
2617.82533	0.01117
2616.53956	0.01074
2615.25379	0.01035
2613.96802	0.01012
2612.68226	0.01011
2611.39649	0.01031
2610.11072	0.01063
2608.82495	0.01094
2607.53918	0.01118
2606.25341	0.01133
2604.96764	0.01138
2603.68187	0.01129
2602.39611	0.01105
2601.11034	0.01068
2599.82457	0.01030
2598.53880	0.01005
2597.25303	0.01000
2595.96726	0.01010
2594.68149	0.01029
2593.39572	0.01050
2592.10995	0.01062
2590.82419	0.01060
2589.53842	0.01048
2588.25265	0.01039
2586.96688	0.01041
2585.68111	0.01052
2584.39534	0.01070
2583.10957	0.01094
2581.82380	0.01118
2580.53804	0.01132
2579.25227	0.01129
2577.96650	0.01113
2576.68073	0.01086
2575.39496	0.01055
2574.10919	0.01024
2572.82342	0.00997
2571.53765	0.00969
2570.25188	0.00942
2568.96612	0.00924
2567.68035	0.00922
2566.39458	0.00932
2565.10881	0.00950
2563.82304	0.00971
2562.53727	0.00993
2561.25150	0.01018
2559.96573	0.01041
2558.67997	0.01057
2557.39420	0.01063
2556.10843	0.01054
2554.82266	0.01028
2553.53689	0.00985
2552.25112	0.00944
2550.96535	0.00926
2549.67958	0.00931
2548.39381	0.00939
2547.10805	0.00945
2545.82228	0.00961
2544.53651	0.00990
2543.25074	0.01016
2541.96497	0.01022
2540.67920	0.01013
2539.39343	0.01002
2538.10766	0.00995
2536.82190	0.00994
2535.53613	0.00987
2534.25036	0.00965
2532.96459	0.00929
2531.67882	0.00896
2530.39305	0.00879
2529.10728	0.00869
2527.82151	0.00854
2526.53574	0.00830
2525.24998	0.00814
2523.96421	0.00822
2522.67844	0.00853
2521.39267	0.00883
2520.10690	0.00889
2518.82113	0.00877
2517.53536	0.00866
2516.24959	0.00867
2514.96383	0.00874
2513.67806	0.00881
2512.39229	0.00884
2511.10652	0.00884
2509.82075	0.00886
2508.53498	0.00897
2507.24921	0.00912
2505.96344	0.00922
2504.67767	0.00923
2503.39191	0.00925
2502.10614	0.00942
2500.82037	0.00969
2499.53460	0.00991
2498.24883	0.00995
2496.96306	0.00986
2495.67729	0.00971
2494.39152	0.00953
2493.10576	0.00925
2491.81999	0.00887
2490.53422	0.00845
2489.24845	0.00816
2487.96268	0.00816
2486.67691	0.00846
2485.39114	0.00889
2484.10537	0.00916
2482.81960	0.00915
2481.53384	0.00899
2480.24807	0.00886
2478.96230	0.00878
2477.67653	0.00865
2476.39076	0.00842
2475.10499	0.00815
2473.81922	0.00797
2472.53345	0.00788
2471.24769	0.00782
2469.96192	0.00776
2468.67615	0.00783
2467.39038	0.00809
2466.10461	0.00847
2464.81884	0.00886
2463.53307	0.00916
2462.24730	0.00939
2460.96153	0.00962
2459.67577	0.00988
2458.39000	0.01006
2457.10423	0.00997
2455.81846	0.00958
2454.53269	0.00908
2453.24692	0.00868
2451.96115	0.00845
2450.67538	0.00838
2449.38962	0.00841
2448.10385	0.00847
2446.81808	0.00844
2445.53231	0.00837
2444.24654	0.00832
2442.96077	0.00832
2441.67500	0.00837
2440.38923	0.00851
2439.10346	0.00871
2437.81770	0.00878
2436.53193	0.00859
2435.24616	0.00827
2433.96039	0.00806
2432.67462	0.00813
2431.38885	0.00839
2430.10308	0.00863
2428.81731	0.00871
2427.53155	0.00860
2426.24578	0.00835
2424.96001	0.00801
2423.67424	0.00766
2422.38847	0.00738
2421.10270	0.00728
2419.81693	0.00739
2418.53116	0.00773
2417.24539	0.00819
2415.95963	0.00854
2414.67386	0.00861
2413.38809	0.00847
2412.10232	0.00841
2410.81655	0.00853
2409.53078	0.00866
2408.24501	0.00859
2406.95924	0.00828
2405.67347	0.00789
2404.38771	0.00759
2403.10194	0.00744
2401.81617	0.00738
2400.53040	0.00730
2399.24463	0.00717
2397.95886	0.00713
2396.67309	0.00727
2395.38732	0.00756
2394.10156	0.00785
2392.81579	0.00797
2391.53002	0.00787
2390.24425	0.00760
2388.95848	0.00732
2387.67271	0.00713
2386.38694	0.00713
2385.10117	0.00734
2383.81540	0.00773
2382.52964	0.00816
2381.24387	0.00846
2379.95810	0.00854
2378.67233	0.00833
2377.38656	0.00812
2376.10079	0.00818
2374.81502	0.00836
2373.52925	0.00807
2372.24349	0.00730
2370.95772	0.00659
2369.67195	0.00631
2368.38618	0.00644
2367.10041	0.00667
2365.81464	0.00701
2364.52887	0.00729
2363.24310	0.00742
2361.95733	0.00733
2360.67157	0.00695
2359.38580	0.00667
2358.10003	0.00683
2356.81426	0.00735
2355.52849	0.00802
2354.24272	0.00867
2352.95695	0.00906
2351.67118	0.00881
2350.38542	0.00831
2349.09965	0.00810
2347.81388	0.00798
2346.52811	0.00753
2345.24234	0.00730
2343.95657	0.00799
2342.67080	0.00931
2341.38503	0.00930
2340.09926	0.00817
2338.81350	0.00820
2337.52773	0.00927
2336.24196	0.00892
2334.95619	0.00786
2333.67042	0.00820
2332.38465	0.00938
2331.09888	0.00872
2329.81311	0.00832
2328.52735	0.00907
2327.24158	0.00911
2325.95581	0.00896
2324.67004	0.00953
2323.38427	0.01009
2322.09850	0.00969
2320.81273	0.00942
2319.52696	0.00905
2318.24119	0.00870
2316.95543	0.00875
2315.66966	0.00882
2314.38389	0.00905
2313.09812	0.00937
2311.81235	0.00944
2310.52658	0.00955
2309.24081	0.00968
2307.95504	0.00948
2306.66928	0.00905
2305.38351	0.00837
2304.09774	0.00777
2302.81197	0.00747
2301.52620	0.00744
2300.24043	0.00768
2298.95466	0.00805
2297.66889	0.00843
2296.38312	0.00864
2295.09736	0.00856
2293.81159	0.00828
2292.52582	0.00800
2291.24005	0.00800
2289.95428	0.00834
2288.66851	0.00892
2287.38274	0.00945
2286.09697	0.00964
2284.81121	0.00929
2283.52544	0.00849
2282.23967	0.00754
2280.95390	0.00687
2279.66813	0.00669
2278.38236	0.00694
2277.09659	0.00738
2275.81082	0.00779
2274.52505	0.00808
2273.23929	0.00822
2271.95352	0.00818
2270.66775	0.00789
2269.38198	0.00744
2268.09621	0.00710
2266.81044	0.00708
2265.52467	0.00745
2264.23890	0.00804
2262.95314	0.00853
2261.66737	0.00857
2260.38160	0.00809
2259.09583	0.00732
2257.81006	0.00669
2256.52429	0.00646
2255.23852	0.00657
2253.95275	0.00679
2252.66698	0.00700
2251.38122	0.00718
2250.09545	0.00730
2248.80968	0.00719
2247.52391	0.00671
2246.23814	0.00627
2244.95237	0.00611
2243.66660	0.00608
2242.38083	0.00582
2241.09507	0.00528
2239.80930	0.00485
2238.52353	0.00501
2237.23776	0.00586
2235.95199	0.00702
2234.66622	0.00792
2233.38045	0.00823
2232.09468	0.00806
2230.80891	0.00779
2229.52315	0.00761
2228.23738	0.00741
2226.95161	0.00697
2225.66584	0.00637
2224.38007	0.00602
2223.09430	0.00622
2221.80853	0.00676
2220.52276	0.00707
2219.23700	0.00676
2217.95123	0.00591
2216.66546	0.00498
2215.37969	0.00432
2214.09392	0.00401
2212.80815	0.00398
2211.52238	0.00424
2210.23661	0.00475
2208.95084	0.00529
2207.66508	0.00559
2206.37931	0.00567
2205.09354	0.00589
2203.80777	0.00636
2202.52200	0.00678
2201.23623	0.00676
2199.95046	0.00627
2198.66469	0.00557
2197.37893	0.00497
2196.09316	0.00477
2194.80739	0.00508
2193.52162	0.00565
2192.23585	0.00605
2190.95008	0.00606
2189.66431	0.00582
2188.37854	0.00550
2187.09277	0.00501
2185.80701	0.00429
2184.52124	0.00344
2183.23547	0.00256
2181.94970	0.00154
2180.66393	0.00045
2179.37816	-0.00021
2178.09239	-0.00001
2176.80662	0.00087
2175.52085	0.00183
2174.23509	0.00257
2172.94932	0.00312
2171.66355	0.00349
2170.37778	0.00359
2169.09201	0.00359
2167.80624	0.00385
2166.52047	0.00455
2165.23470	0.00560
2163.94894	0.00668
2162.66317	0.00719
2161.37740	0.00649
2160.09163	0.00460
2158.80586	0.00264
2157.52009	0.00189
2156.23432	0.00260
2154.94855	0.00382
2153.66278	0.00435
2152.37702	0.00363
2151.09125	0.00211
2149.80548	0.00079
2148.51971	0.00037
2147.23394	0.00065
2145.94817	0.00082
2144.66240	0.00029
2143.37663	-0.00075
2142.09087	-0.00157
2140.80510	-0.00151
2139.51933	-0.00046
2138.23356	0.00121
2136.94779	0.00290
2135.66202	0.00411
2134.37625	0.00447
2133.09048	0.00396
2131.80471	0.00292
2130.51895	0.00185
2129.23318	0.00120
2127.94741	0.00119
2126.66164	0.00183
2125.37587	0.00294
2124.09010	0.00412
2122.80433	0.00487
2121.51856	0.00494
2120.23280	0.00450
2118.94703	0.00405
2117.66126	0.00394
2116.37549	0.00413
2115.08972	0.00431
2113.80395	0.00428
2112.51818	0.00405
2111.23241	0.00372
2109.94664	0.00325
2108.66088	0.00262
2107.37511	0.00205
2106.08934	0.00194
2104.80357	0.00248
2103.51780	0.00341
2102.23203	0.00423
2100.94626	0.00462
2099.66049	0.00558
2098.37473	0.00585
2097.08896	0.00560
2095.80319	0.00518
2094.51742	0.00465
2093.23165	0.00410
2091.94588	0.00379
2090.66011	0.00384
2089.37434	0.00412
2088.08857	0.00433
2086.80281	0.00419
2085.51704	0.00363
2084.23127	0.00289
2082.94550	0.00236
2081.65973	0.00237
2080.37396	0.00298
2079.08819	0.00392
2077.80242	0.00480
2076.51666	0.00530
2075.23089	0.00545
2073.94512	0.00548
2072.65935	0.00551
2071.37358	0.00539
2070.08781	0.00498
2068.80204	0.00429
2067.51627	0.00349
2066.23050	0.00274
2064.94474	0.00222
2063.65897	0.00208
2062.37320	0.00240
2061.08743	0.00310
2059.80166	0.00392
2058.51589	0.00446
2057.23012	0.00442
2055.94435	0.00387
2054.65859	0.00321
2053.37282	0.00285
2052.08705	0.00288
2050.80128	0.00309
2049.51551	0.00317
2048.22974	0.00294
2046.94397	0.00247
2045.65820	0.00211
2044.37243	0.00230
2043.08667	0.00315
2041.80090	0.00422
2040.51513	0.00482
2039.22936	0.00462
2037.94359	0.00399
2036.65782	0.00361
2035.37205	0.00375
2034.08628	0.00397
2032.80052	0.00361
2031.51475	0.00256
2030.22898	0.00151
2028.94321	0.00129
2027.65744	0.00196
2026.37167	0.00268
2025.08590	0.00260
2023.80013	0.00185
2022.51436	0.00132
2021.22860	0.00155
2019.94283	0.00221
2018.65706	0.00277
2017.37129	0.00327
2016.08552	0.00402
2014.79975	0.00494
2013.51398	0.00542
2012.22821	0.00493
2010.94245	0.00356
2009.65668	0.00192
2008.37091	0.00085
2007.08514	0.00080
2005.79937	0.00154
2004.51360	0.00248
2003.22783	0.00322
2001.94206	0.00370
2000.65629	0.00395
1999.37053	0.00392
1998.08476	0.00361
1996.79899	0.00312
1995.51322	0.00267
1994.22745	0.00245
1992.94168	0.00260
1991.65591	0.00314
1990.37014	0.00398
1989.08438	0.00487
1987.79861	0.00540
1986.51284	0.00529
1985.22707	0.00469
1983.94130	0.00423
1982.65553	0.00454
1981.36976	0.00564
1980.08399	0.00689
1978.79822	0.00767
1977.51246	0.00785
1976.22669	0.00770
1974.94092	0.00737
1973.65515	0.00662
1972.36938	0.00528
1971.08361	0.00367
1969.79784	0.00243
1968.51207	0.00201
1967.22631	0.00231
1965.94054	0.00291
1964.65477	0.00345
1963.36900	0.00386
1962.08323	0.00418
1960.79746	0.00443
1959.51169	0.00456
1958.22592	0.00450
1956.94015	0.00419
1955.65439	0.00360
1954.36862	0.00284
1953.08285	0.00220
1951.79708	0.00196
1950.51131	0.00220
1949.22554	0.00276
1947.93977	0.00342
1946.65400	0.00399
1945.36823	0.00434
1944.08247	0.00447
1942.79670	0.00455
1941.51093	0.00481
1940.22516	0.00520
1938.93939	0.00541
1937.65362	0.00516
1936.36785	0.00454
1935.08208	0.00385
1933.79632	0.00341
1932.51055	0.00340
1931.22478	0.00377
1929.93901	0.00431
1928.65324	0.00470
1927.36747	0.00479
1926.08170	0.00468
1924.79593	0.00458
1923.51016	0.00459
1922.22440	0.00467
1920.93863	0.00478
1919.65286	0.00494
1918.36709	0.00520
1917.08132	0.00548
1915.79555	0.00567
1914.50978	0.00570
1913.22401	0.00558
1911.93825	0.00537
1910.65248	0.00517
1909.36671	0.00504
1908.08094	0.00491
1906.79517	0.00467
1905.50940	0.00442
1904.22363	0.00441
1902.93786	0.00468
1901.65209	0.00497
1900.36633	0.00508
1899.08056	0.00503
1897.79479	0.00495
1896.50902	0.00488
1895.22325	0.00475
1893.93748	0.00458
1892.65171	0.00449
1891.36594	0.00455
1890.08018	0.00465
1888.79441	0.00462
1887.50864	0.00446
1886.22287	0.00434
1884.93710	0.00435
1883.65133	0.00440
1882.36556	0.00435
1881.07979	0.00422
1879.79402	0.00421
1878.50826	0.00444
1877.22249	0.00480
1875.93672	0.00508
1874.65095	0.00515
1873.36518	0.00504
1872.07941	0.00487
1870.79364	0.00470
1869.50787	0.00459
1868.22211	0.00457
1866.93634	0.00462
1865.65057	0.00464
1864.36480	0.00454
1863.07903	0.00438
1861.79326	0.00427
1860.50749	0.00433
1859.22172	0.00459
1857.93595	0.00493
1856.65019	0.00522
1855.36442	0.00535
1854.07865	0.00527
1852.79288	0.00506
1851.50711	0.00480
1850.22134	0.00459
1848.93557	0.00444
1847.64980	0.00435
1846.36404	0.00428
1845.07827	0.00421
1843.79250	0.00423
1842.50673	0.00434
1841.22096	0.00451
1839.93519	0.00464
1838.64942	0.00468
1837.36365	0.00462
1836.07788	0.00453
1834.79212	0.00455
1833.50635	0.00469
1832.22058	0.00485
1830.93481	0.00493
1829.64904	0.00499
1828.36327	0.00512
1827.07750	0.00531
1825.79173	0.00549
1824.50597	0.00570
1823.22020	0.00592
1821.93443	0.00609
1820.64866	0.00611
1819.36289	0.00597
1818.07712	0.00572
1816.79135	0.00546
1815.50558	0.00529
1814.21981	0.00518
1812.93405	0.00505
1811.64828	0.00488
1810.36251	0.00472
1809.07674	0.00466
1807.79097	0.00470
1806.50520	0.00478
1805.21943	0.00486
1803.93366	0.00493
1802.64790	0.00498
1801.36213	0.00504
1800.07636	0.00513
1798.79059	0.00522
1797.50482	0.00531
1796.21905	0.00544
1794.93328	0.00555
1793.64751	0.00558
1792.36174	0.00551
1791.07598	0.00543
1789.79021	0.00539
1788.50444	0.00540
1787.21867	0.00539
1785.93290	0.00533
1784.64713	0.00529
1783.36136	0.00531
1782.07559	0.00541
1780.78983	0.00553
1779.50406	0.00563
1778.21829	0.00569
1776.93252	0.00571
1775.64675	0.00570
1774.36098	0.00567
1773.07521	0.00568
1771.78944	0.00580
1770.50367	0.00593
1769.21791	0.00591
1767.93214	0.00578
1766.64637	0.00570
1765.36060	0.00569
1764.07483	0.00569
1762.78906	0.00572
1761.50329	0.00582
1760.21752	0.00596
1758.93176	0.00603
1757.64599	0.00603
1756.36022	0.00608
1755.07445	0.00624
1753.78868	0.00636
1752.50291	0.00636
1751.21714	0.00627
1749.93137	0.00618
1748.64560	0.00608
1747.35984	0.00601
1746.07407	0.00599
1744.78830	0.00606
1743.50253	0.00618
1742.21676	0.00629
1740.93099	0.00634
1739.64522	0.00641
1738.35945	0.00660
1737.07369	0.00679
1735.78792	0.00685
1734.50215	0.00686
1733.21638	0.00700
1731.93061	0.00718
1730.64484	0.00720
1729.35907	0.00707
1728.07330	0.00694
1726.78753	0.00685
1725.50177	0.00676
1724.21600	0.00670
1722.93023	0.00677
1721.64446	0.00699
1720.35869	0.00726
1719.07292	0.00743
1717.78715	0.00755
1716.50138	0.00770
1715.21561	0.00783
1713.92985	0.00787
1712.64408	0.00789
1711.35831	0.00797
1710.07254	0.00814
1708.78677	0.00837
1707.50100	0.00859
1706.21523	0.00876
1704.92946	0.00898
1703.64370	0.00921
1702.35793	0.00933
1701.07216	0.00940
1699.78639	0.00966
1698.50062	0.01003
1697.21485	0.01017
1695.92908	0.01014
1694.64331	0.01025
1693.35754	0.01042
1692.07178	0.01042
1690.78601	0.01033
1689.50024	0.01036
1688.21447	0.01052
1686.92870	0.01065
1685.64293	0.01066
1684.35716	0.01073
1683.07139	0.01094
1681.78563	0.01109
1680.49986	0.01110
1679.21409	0.01111
1677.92832	0.01118
1676.64255	0.01125
1675.35678	0.01133
1674.07101	0.01148
1672.78524	0.01166
1671.49947	0.01177
1670.21371	0.01185
1668.92794	0.01198
1667.64217	0.01213
1666.35640	0.01225
1665.07063	0.01234
1663.78486	0.01242
1662.49909	0.01252
1661.21332	0.01261
1659.92756	0.01270
1658.64179	0.01289
1657.35602	0.01325
1656.07025	0.01363
1654.78448	0.01377
1653.49871	0.01369
1652.21294	0.01369
1650.92717	0.01377
1649.64140	0.01368
1648.35564	0.01347
1647.06987	0.01337
1645.78410	0.01346
1644.49833	0.01361
1643.21256	0.01361
1641.92679	0.01350
1640.64102	0.01345
1639.35525	0.01355
1638.06949	0.01368
1636.78372	0.01372
1635.49795	0.01373
1634.21218	0.01379
1632.92641	0.01385
1631.64064	0.01385
1630.35487	0.01384
1629.06910	0.01387
1627.78333	0.01395
1626.49757	0.01405
1625.21180	0.01411
1623.92603	0.01413
1622.64026	0.01419
1621.35449	0.01433
1620.06872	0.01450
1618.78295	0.01459
1617.49718	0.01459
1616.21142	0.01465
1614.92565	0.01477
1613.63988	0.01484
1612.35411	0.01484
1611.06834	0.01485
1609.78257	0.01488
1608.49680	0.01491
1607.21103	0.01498
1605.92526	0.01509
1604.63950	0.01525
1603.35373	0.01541
1602.06796	0.01556
1600.78219	0.01567
1599.49642	0.01575
1598.21065	0.01581
1596.92488	0.01589
1595.63911	0.01601
1594.35335	0.01616
1593.06758	0.01630
1591.78181	0.01641
1590.49604	0.01649
1589.21027	0.01657
1587.92450	0.01669
1586.63873	0.01683
1585.35296	0.01696
1584.06719	0.01707
1582.78143	0.01720
1581.49566	0.01741
1580.20989	0.01773
1578.92412	0.01801
1577.63835	0.01813
1576.35258	0.01817
1575.06681	0.01831
1573.78104	0.01854
1572.49528	0.01868
1571.20951	0.01870
1569.92374	0.01871
1568.63797	0.01879
1567.35220	0.01891
1566.06643	0.01901
1564.78066	0.01919
1563.49489	0.01949
1562.20912	0.01979
1560.92336	0.01994
1559.63759	0.01998
1558.35182	0.02009
1557.06605	0.02022
1555.78028	0.02020
1554.49451	0.02010
1553.20874	0.02009
1551.92297	0.02015
1550.63721	0.02017
1549.35144	0.02015
1548.06567	0.02015
1546.77990	0.02016
1545.49413	0.02022
1544.20836	0.02037
1542.92259	0.02052
1541.63682	0.02052
1540.35105	0.02035
1539.06529	0.02017
1537.77952	0.02006
1536.49375	0.01993
1535.20798	0.01975
1533.92221	0.01963
1532.63644	0.01969
1531.35067	0.01986
1530.06490	0.02004
1528.77914	0.02024
1527.49337	0.02051
1526.20760	0.02089
1524.92183	0.02135
1523.63606	0.02181
1522.35029	0.02217
1521.06452	0.02252
1519.77875	0.02291
1518.49298	0.02324
1517.20722	0.02352
1515.92145	0.02386
1514.63568	0.02429
1513.34991	0.02476
1512.06414	0.02533
1510.77837	0.02606
1509.49260	0.02686
1508.20683	0.02759
1506.92107	0.02823
1505.63530	0.02885
1504.34953	0.02944
1503.06376	0.02991
1501.77799	0.03030
1500.49222	0.03072
1499.20645	0.03114
1497.92068	0.03148
1496.63491	0.03179
1495.34915	0.03218
1494.06338	0.03265
1492.77761	0.03309
1491.49184	0.03348
1490.20607	0.03386
1488.92030	0.03427
1487.63453	0.03469
1486.34876	0.03513
1485.06299	0.03563
1483.77723	0.03618
1482.49146	0.03679
1481.20569	0.03744
1479.91992	0.03812
1478.63415	0.03877
1477.34838	0.03938
1476.06261	0.03998
1474.77684	0.04051
1473.49108	0.04092
1472.20531	0.04126
1470.91954	0.04155
1469.63377	0.04178
1468.34800	0.04192
1467.06223	0.04200
1465.77646	0.04205
1464.49069	0.04214
1463.20492	0.04229
1461.91916	0.04252
1460.63339	0.04283
1459.34762	0.04319
1458.06185	0.04352
1456.77608	0.04389
1455.49031	0.04434
1454.20454	0.04474
1452.91877	0.04502
1451.63301	0.04518
1450.34724	0.04524
1449.06147	0.04521
1447.77570	0.04513
1446.48993	0.04503
1445.20416	0.04487
1443.91839	0.04460
1442.63262	0.04427
1441.34685	0.04395
1440.06109	0.04368
1438.77532	0.04338
1437.48955	0.04305
1436.20378	0.04283
1434.91801	0.04278
1433.63224	0.04283
1432.34647	0.04295
1431.06070	0.04321
1429.77494	0.04363
1428.48917	0.04418
1427.20340	0.04477
1425.91763	0.04535
1424.63186	0.04598
1423.34609	0.04670
1422.06032	0.04744
1420.77455	0.04808
1419.48878	0.04864
1418.20302	0.04917
1416.91725	0.04964
1415.63148	0.04993
1414.34571	0.05006
1413.05994	0.05011
1411.77417	0.05009
1410.48840	0.04998
1409.20263	0.04973
1407.91687	0.04935
1406.63110	0.04886
1405.34533	0.04831
1404.05956	0.04774
1402.77379	0.04713
1401.48802	0.04642
1400.20225	0.04558
1398.91648	0.04468
1397.63071	0.04375
1396.34495	0.04279
1395.05918	0.04182
1393.77341	0.04089
1392.48764	0.04000
1391.20187	0.03907
1389.91610	0.03809
1388.63033	0.03710
1387.34456	0.03615
1386.05880	0.03526
1384.77303	0.03440
1383.48726	0.03352
1382.20149	0.03264
1380.91572	0.03175
1379.62995	0.03085
1378.34418	0.02991
1377.05841	0.02896
1375.77264	0.02803
1374.48688	0.02712
1373.20111	0.02623
1371.91534	0.02528
1370.62957	0.02428
1369.34380	0.02327
1368.05803	0.02234
1366.77226	0.02156
1365.48649	0.02089
1364.20073	0.02030
1362.91496	0.01975
1361.62919	0.01921
1360.34342	0.01865
1359.05765	0.01812
1357.77188	0.01765
1356.48611	0.01724
1355.20034	0.01686
1353.91457	0.01648
1352.62881	0.01612
1351.34304	0.01579
1350.05727	0.01548
1348.77150	0.01515
1347.48573	0.01479
1346.19996	0.01442
1344.91419	0.01408
1343.62842	0.01379
1342.34266	0.01356
1341.05689	0.01337
1339.77112	0.01322
1338.48535	0.01309
1337.19958	0.01296
1335.91381	0.01279
1334.62804	0.01260
1333.34227	0.01240
1332.05650	0.01222
1330.77074	0.01205
1329.48497	0.01190
1328.19920	0.01177
1326.91343	0.01166
1325.62766	0.01158
1324.34189	0.01150
1323.05612	0.01144
1321.77035	0.01138
1320.48459	0.01133
1319.19882	0.01126
1317.91305	0.01117
1316.62728	0.01105
1315.34151	0.01092
1314.05574	0.01079
1312.76997	0.01068
1311.48420	0.01059
1310.19843	0.01049
1308.91267	0.01038
1307.62690	0.01028
1306.34113	0.01021
1305.05536	0.01018
1303.76959	0.01018
1302.48382	0.01017
1301.19805	0.01012
1299.91228	0.01004
1298.62652	0.00991
1297.34075	0.00975
1296.05498	0.00961
1294.76921	0.00952
1293.48344	0.00946
1292.19767	0.00943
1290.91190	0.00941
1289.62613	0.00939
1288.34036	0.00936
1287.05460	0.00931
1285.76883	0.00921
1284.48306	0.00907
1283.19729	0.00893
1281.91152	0.00881
1280.62575	0.00875
1279.33998	0.00874
1278.05421	0.00878
1276.76845	0.00881
1275.48268	0.00882
1274.19691	0.00878
1272.91114	0.00871
1271.62537	0.00864
1270.33960	0.00857
1269.05383	0.00852
1267.76806	0.00848
1266.48229	0.00848
1265.19653	0.00852
1263.91076	0.00854
1262.62499	0.00852
1261.33922	0.00847
1260.05345	0.00841
1258.76768	0.00837
1257.48191	0.00834
1256.19614	0.00828
1254.91037	0.00823
1253.62461	0.00821
1252.33884	0.00822
1251.05307	0.00823
1249.76730	0.00821
1248.48153	0.00818
1247.19576	0.00814
1245.90999	0.00810
1244.62422	0.00806
1243.33846	0.00801
1242.05269	0.00795
1240.76692	0.00789
1239.48115	0.00785
1238.19538	0.00781
1236.90961	0.00781
1235.62384	0.00784
1234.33807	0.00790
1233.05230	0.00795
1231.76654	0.00794
1230.48077	0.00784
1229.19500	0.00769
1227.90923	0.00752
1226.62346	0.00740
1225.33769	0.00736
1224.05192	0.00737
1222.76615	0.00742
1221.48039	0.00747
1220.19462	0.00749
1218.90885	0.00748
1217.62308	0.00744
1216.33731	0.00737
1215.05154	0.00731
1213.76577	0.00730
1212.48000	0.00734
1211.19423	0.00739
1209.90847	0.00745
1208.62270	0.00749
1207.33693	0.00751
1206.05116	0.00751
1204.76539	0.00749
1203.47962	0.00750
1202.19385	0.00754
1200.90808	0.00754
1199.62232	0.00745
1198.33655	0.00751
1197.05078	0.00756
1195.76501	0.00757
1194.47924	0.00757
1193.19347	0.00757
1191.90770	0.00760
1190.62193	0.00763
1189.33616	0.00762
1188.05040	0.00757
1186.76463	0.00754
1185.47886	0.00757
1184.19309	0.00765
1182.90732	0.00774
1181.62155	0.00778
1180.33578	0.00776
1179.05001	0.00772
1177.76425	0.00772
1176.47848	0.00775
1175.19271	0.00778
1173.90694	0.00779
1172.62117	0.00776
1171.33540	0.00772
1170.04963	0.00770
1168.76386	0.00775
1167.47809	0.00786
1166.19233	0.00797
1164.90656	0.00804
1163.62079	0.00810
1162.33502	0.00817
1161.04925	0.00830
1159.76348	0.00844
1158.47771	0.00856
1157.19194	0.00866
1155.90618	0.00877
1154.62041	0.00890
1153.33464	0.00907
1152.04887	0.00926
1150.76310	0.00945
1149.47733	0.00961
1148.19156	0.00976
1146.90579	0.00990
1145.62002	0.01007
1144.33426	0.01031
1143.04849	0.01061
1141.76272	0.01095
1140.47695	0.01131
1139.19118	0.01171
1137.90541	0.01217
1136.61964	0.01273
1135.33387	0.01339
1134.04811	0.01418
1132.76234	0.01507
1131.47657	0.01603
1130.19080	0.01706
1128.90503	0.01815
1127.61926	0.01934
1126.33349	0.02065
1125.04772	0.02205
1123.76195	0.02351
1122.47619	0.02505
1121.19042	0.02665
1119.90465	0.02829
1118.61888	0.02993
1117.33311	0.03155
1116.04734	0.03320
1114.76157	0.03494
1113.47580	0.03675
1112.19004	0.03857
1110.90427	0.04029
1109.61850	0.04188
1108.33273	0.04339
1107.04696	0.04486
1105.76119	0.04630
1104.47542	0.04773
1103.18965	0.04916
1101.90388	0.05055
1100.61812	0.05189
1099.33235	0.05318
1098.04658	0.05440
1096.76081	0.05553
1095.47504	0.05660
1094.18927	0.05764
1092.90350	0.05866
1091.61773	0.05960
1090.33197	0.06043
1089.04620	0.06119
1087.76043	0.06191
1086.47466	0.06262
1085.18889	0.06331
1083.90312	0.06400
1082.61735	0.06473
1081.33158	0.06555
1080.04581	0.06645
1078.76005	0.06747
1077.47428	0.06861
1076.18851	0.06986
1074.90274	0.07119
1073.61697	0.07261
1072.33120	0.07412
1071.04543	0.07569
1069.75966	0.07723
1068.47390	0.07872
1067.18813	0.08019
1065.90236	0.08170
1064.61659	0.08326
1063.33082	0.08481
1062.04505	0.08634
1060.75928	0.08786
1059.47351	0.08938
1058.18774	0.09088
1056.90198	0.09234
1055.61621	0.09376
1054.33044	0.09511
1053.04467	0.09639
1051.75890	0.09761
1050.47313	0.09884
1049.18736	0.10010
1047.90159	0.10137
1046.61583	0.10264
1045.33006	0.10391
1044.04429	0.10523
1042.75852	0.10659
1041.47275	0.10793
1040.18698	0.10921
1038.90121	0.11039
1037.61544	0.11152
1036.32967	0.11272
1035.04391	0.11401
1033.75814	0.11524
1032.47237	0.11620
1031.18660	0.11680
1029.90083	0.11712
1028.61506	0.11732
1027.32929	0.11746
1026.04352	0.11752
1024.75775	0.11744
1023.47199	0.11723
1022.18622	0.11686
1020.90045	0.11631
1019.61468	0.11554
1018.32891	0.11458
1017.04314	0.11346
1015.75737	0.11219
1014.47160	0.11073
1013.18584	0.10906
1011.90007	0.10721
1010.61430	0.10524
1009.32853	0.10315
1008.04276	0.10095
1006.75699	0.09863
1005.47122	0.09620
1004.18545	0.09368
1002.89968	0.09107
1001.61392	0.08839
1000.32815	0.08570
999.04238	0.08306
997.75661	0.08047
996.47084	0.07786
995.18507	0.07519
993.89930	0.07251
992.61353	0.06992
991.32777	0.06749
990.04200	0.06519
988.75623	0.06296
987.47046	0.06079
986.18469	0.05868
984.89892	0.05664
983.61315	0.05470
982.32738	0.05285
981.04161	0.05109
979.75585	0.04943
978.47008	0.04791
977.18431	0.04655
975.89854	0.04537
974.61277	0.04437
973.32700	0.04356
972.04123	0.04294
970.75546	0.04255
969.46970	0.04240
968.18393	0.04250
966.89816	0.04284
965.61239	0.04339
964.32662	0.04407
963.04085	0.04479
961.75508	0.04538
960.46931	0.04569
959.18354	0.04564
957.89778	0.04516
956.61201	0.04425
955.32624	0.04305
954.04047	0.04172
952.75470	0.04041
951.46893	0.03920
950.18316	0.03807
948.89739	0.03699
947.61163	0.03591
946.32586	0.03483
945.04009	0.03376
943.75432	0.03273
942.46855	0.03176
941.18278	0.03080
939.89701	0.02984
938.61124	0.02891
937.32547	0.02811
936.03971	0.02746
934.75394	0.02694
933.46817	0.02644
932.18240	0.02590
930.89663	0.02532
929.61086	0.02474
928.32509	0.02419
927.03932	0.02369
925.75356	0.02328
924.46779	0.02295
923.18202	0.02266
921.89625	0.02239
920.61048	0.02214
919.32471	0.02193
918.03894	0.02169
916.75317	0.02139
915.46740	0.02106
914.18164	0.02074
912.89587	0.02046
911.61010	0.02023
910.32433	0.02006
909.03856	0.01990
907.75279	0.01971
906.46702	0.01947
905.18125	0.01921
903.89549	0.01897
902.60972	0.01876
901.32395	0.01857
900.03818	0.01840
898.75241	0.01823
897.46664	0.01806
896.18087	0.01797
894.89510	0.01802
893.60933	0.01816
892.32357	0.01829
891.03780	0.01835
889.75203	0.01836
888.46626	0.01843
887.18049	0.01870
885.89472	0.01933
884.60895	0.02047
883.32318	0.02210
882.03742	0.02398
880.75165	0.02573
879.46588	0.02705
878.18011	0.02789
876.89434	0.02847
875.60857	0.02904
874.32280	0.02964
873.03703	0.03015
871.75126	0.03036
870.46550	0.03015
869.17973	0.02952
867.89396	0.02854
866.60819	0.02734
865.32242	0.02603
864.03665	0.02470
862.75088	0.02339
861.46511	0.02218
860.17935	0.02109
858.89358	0.02016
857.60781	0.01940
856.32204	0.01880
855.03627	0.01835
853.75050	0.01802
852.46473	0.01777
851.17896	0.01754
849.89319	0.01731
848.60743	0.01711
847.32166	0.01695
846.03589	0.01682
844.75012	0.01666
843.46435	0.01643
842.17858	0.01619
840.89281	0.01599
839.60704	0.01582
838.32128	0.01566
837.03551	0.01551
835.74974	0.01539
834.46397	0.01531
833.17820	0.01526
831.89243	0.01519
830.60666	0.01510
829.32089	0.01503
828.03512	0.01498
826.74936	0.01493
825.46359	0.01488
824.17782	0.01487
822.89205	0.01487
821.60628	0.01487
820.32051	0.01485
819.03474	0.01484
817.74897	0.01486
816.46321	0.01485
815.17744	0.01474
813.89167	0.01456
812.60590	0.01438
811.32013	0.01424
810.03436	0.01412
808.74859	0.01403
807.46282	0.01397
806.17705	0.01394
804.89129	0.01393
803.60552	0.01389
802.31975	0.01383
801.03398	0.01377
799.74821	0.01376
798.46244	0.01381
797.17667	0.01390
795.89090	0.01400
794.60513	0.01406
793.31937	0.01406
792.03360	0.01405
790.74783	0.01402
789.46206	0.01398
788.17629	0.01391
786.89052	0.01382
785.60475	0.01374
784.31898	0.01368
783.03322	0.01367
781.74745	0.01371
780.46168	0.01376
779.17591	0.01378
777.89014	0.01375
776.60437	0.01371
775.31860	0.01367
774.03283	0.01363
772.74706	0.01353
771.46130	0.01338
770.17553	0.01322
768.88976	0.01310
767.60399	0.01304
766.31822	0.01300
765.03245	0.01296
763.74668	0.01292
762.46091	0.01292
761.17515	0.01301
759.88938	0.01318
758.60361	0.01336
757.31784	0.01350
756.03207	0.01360
754.74630	0.01369
753.46053	0.01379
752.17476	0.01389
750.88899	0.01394
749.60323	0.01387
748.31746	0.01367
747.03169	0.01342
745.74592	0.01323
744.46015	0.01318
743.17438	0.01324
741.88861	0.01330
740.60284	0.01327
739.31708	0.01317
738.03131	0.01309
736.74554	0.01307
735.45977	0.01304
734.17400	0.01299
732.88823	0.01300
731.60246	0.01311
730.31669	0.01328
729.03092	0.01342
727.74516	0.01349
726.45939	0.01353
725.17362	0.01354
723.88785	0.01353
722.60208	0.01357
721.31631	0.01365
720.03054	0.01370
718.74477	0.01369
717.45901	0.01360
716.17324	0.01349
714.88747	0.01339
713.60170	0.01331
712.31593	0.01323
711.03016	0.01316
709.74439	0.01312
708.45862	0.01310
707.17285	0.01309
705.88709	0.01304
704.60132	0.01297
703.31555	0.01291
702.02978	0.01288
700.74401	0.01291
699.45824	0.01298
698.17247	0.01305
696.88670	0.01312
695.60094	0.01316
694.31517	0.01320
693.02940	0.01323
691.74363	0.01322
690.45786	0.01320
689.17209	0.01317
687.88632	0.01317
686.60055	0.01321
685.31478	0.01325
684.02902	0.01326
682.74325	0.01323
681.45748	0.01319
680.17171	0.01319
678.88594	0.01323
677.60017	0.01329
676.31440	0.01330
675.02863	0.01327
673.74287	0.01323
672.45710	0.01324
671.17133	0.01331
669.88556	0.01342
668.59979	0.01355
667.31402	0.01370
666.02825	0.01377
664.74248	0.01380
663.45671	0.01382
662.17095	0.01380
660.88518	0.01373
659.59941	0.01359
658.31364	0.01344
657.02787	0.01334
655.74210	0.01332
654.45633	0.01339
653.17056	0.01351
651.88480	0.01365
650.59903	0.01375
649.31326	0.01379
648.02749	0.01378
646.74172	0.01377
645.45595	0.01380
644.17018	0.01390
642.88441	0.01410
641.59864	0.01436
640.31288	0.01462
639.02711	0.01485
637.74134	0.01503
636.45557	0.01520
635.16980	0.01538
633.88403	0.01556
632.59826	0.01567
631.31249	0.01581
630.02673	0.01658
628.74096	0.01775
627.45519	0.01709
626.16942	0.01875
624.88365	0.02218
623.59788	0.02589
622.31211	0.02915
621.02634	0.03144
619.74057	0.03237
618.45481	0.03205
617.16904	0.03116
615.88327	0.03053
614.59750	0.03062
613.31173	0.03160
612.02596	0.03366
610.74019	0.03691
609.45442	0.04083
608.16866	0.04442
606.88289	0.04725
605.59712	0.04959
604.31135	0.05153
603.02558	0.05255
601.73981	0.05215
600.45404	0.05051
599.16827	0.04823
597.88250	0.04586
596.59674	0.04366
595.31097	0.04174
594.02520	0.04019
592.73943	0.03906
591.45366	0.03836
590.16789	0.03803
588.88212	0.03801
587.59635	0.03823
586.31059	0.03862
585.02482	0.03921
583.73905	0.04007
582.45328	0.04123
581.16751	0.04256
579.88174	0.04389
578.59597	0.04517
577.31020	0.04642
576.02443	0.04772
574.73867	0.04905
573.45290	0.05042
572.16713	0.05184
570.88136	0.05334
569.59559	0.05491
568.30982	0.05651
567.02405	0.05798
565.73828	0.05914
564.45251	0.05986
563.16675	0.06009
561.88098	0.05979
560.59521	0.05890
559.30944	0.05738
558.02367	0.05527
556.73790	0.05274
555.45213	0.05002
554.16636	0.04729
552.88060	0.04466
551.59483	0.04214
550.30906	0.03975
549.02329	0.03749
547.73752	0.03541
546.45175	0.03360
545.16598	0.03210
543.88021	0.03081
542.59444	0.02955
541.30868	0.02824
540.02291	0.02700
538.73714	0.02600
537.45137	0.02527
536.16560	0.02468
534.87983	0.02407
533.59406	0.02338
532.30829	0.02266
531.02253	0.02198
529.73676	0.02134
528.45099	0.02076
527.16522	0.02030
525.87945	0.01994
524.59368	0.01963
523.30791	0.01924
522.02214	0.01875
520.73637	0.01821
519.45061	0.01770
518.16484	0.01731
516.87907	0.01706
515.59330	0.01686
514.30753	0.01656
513.02176	0.01615
511.73599	0.01572
510.45022	0.01542
509.16446	0.01528
507.87869	0.01522
506.59292	0.01511
505.30715	0.01487
504.02138	0.01453
502.73561	0.01416
501.44984	0.01387
500.16407	0.01366
498.87830	0.01351
497.59254	0.01339
496.30677	0.01329
495.02100	0.01318
493.73523	0.01308
492.44946	0.01297
491.16369	0.01284
489.87792	0.01268
488.59215	0.01253
487.30639	0.01245
486.02062	0.01243
484.73485	0.01243
483.44908	0.01243
482.16331	0.01242
480.87754	0.01248
479.59177	0.01264
478.30600	0.01289
477.02023	0.01316
475.73447	0.01337
474.44870	0.01348
473.16293	0.01352
471.87716	0.01356
470.59139	0.01363
469.30562	0.01365
468.01985	0.01356
466.73408	0.01334
465.44832	0.01306
464.16255	0.01278
462.87678	0.01255
461.59101	0.01239
460.30524	0.01230
459.01947	0.01220
457.73370	0.01206
456.44793	0.01183
455.16216	0.01152
453.87640	0.01121
452.59063	0.01098
451.30486	0.01088
450.01909	0.01088
448.73332	0.01092
447.44755	0.01094
446.16178	0.01089
444.87601	0.01079
443.59025	0.01065
442.30448	0.01054
441.01871	0.01049
439.73294	0.01049
438.44717	0.01051
437.16140	0.01051
435.87563	0.01049
434.58986	0.01045
433.30409	0.01041
432.01833	0.01040
430.73256	0.01042
429.44679	0.01042
428.16102	0.01038
426.87525	0.01031
425.58948	0.01025
424.30371	0.01022
423.01794	0.01020
421.73218	0.01016
420.44641	0.01010
419.16064	0.01007
417.87487	0.01007
416.58910	0.01007
415.30333	0.01002
414.01756	0.00992
412.73179	0.00981
411.44602	0.00971
410.16026	0.00966
408.87449	0.00966
407.58872	0.00971
406.30295	0.00979
405.01718	0.00985
403.73141	0.00989
402.44564	0.00994
401.15987	0.01001
399.87411	0.01008
