3997.45528	0.03407
3996.16951	0.03398
3994.88374	0.03442
3993.59798	0.03509
3992.31221	0.03548
3991.02644	0.03550
3989.74067	0.03541
3988.45490	0.03543
3987.16913	0.03558
3985.88336	0.03582
3984.59759	0.03610
3983.31183	0.03633
3982.02606	0.03635
3980.74029	0.03601
3979.45452	0.03534
3978.16875	0.03465
3976.88298	0.03431
3975.59721	0.03443
3974.31144	0.03473
3973.02567	0.03477
3971.73991	0.03437
3970.45414	0.03379
3969.16837	0.03346
3967.88260	0.03363
3966.59683	0.03419
3965.31106	0.03491
3964.02529	0.03553
3962.73952	0.03584
3961.45376	0.03574
3960.16799	0.03541
3958.88222	0.03520
3957.59645	0.03531
3956.31068	0.03554
3955.02491	0.03550
3953.73914	0.03508
3952.45337	0.03444
3951.16760	0.03386
3949.88184	0.03354
3948.59607	0.03359
3947.31030	0.03399
3946.02453	0.03439
3944.73876	0.03426
3943.45299	0.03348
3942.16722	0.03269
3940.88145	0.03266
3939.59569	0.03340
3938.30992	0.03418
3937.02415	0.03434
3935.73838	0.03394
3934.45261	0.03341
3933.16684	0.03308
3931.88107	0.03299
3930.59530	0.03309
3929.30953	0.03335
3928.02377	0.03367
3926.73800	0.03391
3925.45223	0.03392
3924.16646	0.03366
3922.88069	0.03321
3921.59492	0.03278
3920.30915	0.03260
3919.02338	0.03280
3917.73762	0.03324
3916.45185	0.03362
3915.16608	0.03377
3913.88031	0.03390
3912.59454	0.03431
3911.30877	0.03508
3910.02300	0.03586
3908.73723	0.03615
3907.45146	0.03576
3906.16570	0.03504
3904.87993	0.03455
3903.59416	0.03452
3902.30839	0.03469
3901.02262	0.03471
3899.73685	0.03457
3898.45108	0.03453
3897.16531	0.03472
3895.87955	0.03500
3894.59378	0.03524
3893.30801	0.03545
3892.02224	0.03562
3890.73647	0.03561
3889.45070	0.03527
3888.16493	0.03464
3886.87916	0.03392
3885.59339	0.03334
3884.30763	0.03306
3883.02186	0.03319
3881.73609	0.03368
3880.45032	0.03422
3879.16455	0.03441
3877.87878	0.03414
3876.59301	0.03363
3875.30724	0.03316
3874.02148	0.03284
3872.73571	0.03258
3871.44994	0.03240
3870.16417	0.03240
3868.87840	0.03268
3867.59263	0.03320
3866.30686	0.03374
3865.02109	0.03404
3863.73532	0.03392
3862.44956	0.03346
3861.16379	0.03294
3859.87802	0.03267
3858.59225	0.03272
3857.30648	0.03288
3856.02071	0.03284
3854.73494	0.03250
3853.44917	0.03199
3852.16341	0.03159
3850.87764	0.03154
3849.59187	0.03188
3848.30610	0.03234
3847.02033	0.03259
3845.73456	0.03249
3844.44879	0.03219
3843.16302	0.03192
3841.87725	0.03173
3840.59149	0.03155
3839.30572	0.03145
3838.01995	0.03156
3836.73418	0.03192
3835.44841	0.03227
3834.16264	0.03233
3832.87687	0.03203
3831.59110	0.03160
3830.30534	0.03128
3829.01957	0.03117
3827.73380	0.03125
3826.44803	0.03142
3825.16226	0.03157
3823.87649	0.03161
3822.59072	0.03158
3821.30495	0.03162
3820.01918	0.03184
3818.73342	0.03222
3817.44765	0.03266
3816.16188	0.03301
3814.87611	0.03314
3813.59034	0.03303
3812.30457	0.03281
3811.01880	0.03256
3809.73303	0.03219
3808.44726	0.03164
3807.16150	0.03113
3805.87573	0.03104
3804.58996	0.03151
3803.30419	0.03224
3802.01842	0.03279
3800.73265	0.03288
3799.44688	0.03252
3798.16111	0.03194
3796.87535	0.03146
3795.58958	0.03129
3794.30381	0.03136
3793.01804	0.03145
3791.73227	0.03144
3790.44650	0.03156
3789.16073	0.03205
3787.87496	0.03289
3786.58919	0.03373
3785.30343	0.03427
3784.01766	0.03445
3782.73189	0.03440
3781.44612	0.03418
3780.16035	0.03377
3778.87458	0.03309
3777.58881	0.03219
3776.30304	0.03126
3775.01728	0.03069
3773.73151	0.03081
3772.44574	0.03154
3771.15997	0.03232
3769.87420	0.03255
3768.58843	0.03214
3767.30266	0.03152
3766.01689	0.03119
3764.73112	0.03130
3763.44536	0.03162
3762.15959	0.03187
3760.87382	0.03190
3759.58805	0.03173
3758.30228	0.03144
3757.01651	0.03108
3755.73074	0.03061
3754.44497	0.02995
3753.15921	0.02909
3751.87344	0.02824
3750.58767	0.02768
3749.30190	0.02752
3748.01613	0.02765
3746.73036	0.02791
3745.44459	0.02831
3744.15882	0.02896
3742.87305	0.02978
3741.58729	0.03049
3740.30152	0.03085
3739.01575	0.03077
3737.72998	0.03036
3736.44421	0.02983
3735.15844	0.02937
3733.87267	0.02906
3732.58690	0.02888
3731.30114	0.02881
3730.01537	0.02880
3728.72960	0.02877
3727.44383	0.02876
3726.15806	0.02897
3724.87229	0.02948
3723.58652	0.02998
3722.30075	0.03009
3721.01498	0.02973
3719.72922	0.02920
3718.44345	0.02885
3717.15768	0.02880
3715.87191	0.02899
3714.58614	0.02924
3713.30037	0.02940
3712.01460	0.02941
3710.72883	0.02938
3709.44307	0.02942
3708.15730	0.02955
3706.87153	0.02968
3705.58576	0.02973
3704.29999	0.02964
3703.01422	0.02941
3701.72845	0.02908
3700.44268	0.02870
3699.15691	0.02818
3697.87115	0.02749
3696.58538	0.02681
3695.29961	0.02660
3694.01384	0.02715
3692.72807	0.02821
3691.44230	0.02909
3690.15653	0.02931
3688.87076	0.02899
3687.58500	0.02864
3686.29923	0.02862
3685.01346	0.02893
3683.72769	0.02935
3682.44192	0.02960
3681.15615	0.02949
3679.87038	0.02912
3678.58461	0.02878
3677.29884	0.02869
3676.01308	0.02873
3674.72731	0.02862
3673.44154	0.02831
3672.15577	0.02805
3670.87000	0.02807
3669.58423	0.02826
3668.29846	0.02836
3667.01269	0.02832
3665.72693	0.02841
3664.44116	0.02880
3663.15539	0.02933
3661.86962	0.02973
3660.58385	0.02996
3659.29808	0.03025
3658.01231	0.03078
3656.72654	0.03140
3655.44077	0.03175
3654.15501	0.03156
3652.86924	0.03089
3651.58347	0.03015
3650.29770	0.02976
3649.01193	0.02980
3647.72616	0.02996
3646.44039	0.02993
3645.15462	0.02974
3643.86886	0.02965
3642.58309	0.02977
3641.29732	0.03010
3640.01155	0.03068
3638.72578	0.03155
3637.44001	0.03256
3636.15424	0.03335
3634.86847	0.03371
3633.58270	0.03371
3632.29694	0.03337
3631.01117	0.03269
3629.72540	0.03192
3628.43963	0.03153
3627.15386	0.03180
3625.86809	0.03246
3624.58232	0.03300
3623.29655	0.03319
3622.01079	0.03315
3620.72502	0.03308
3619.43925	0.03310
3618.15348	0.03326
3616.86771	0.03360
3615.58194	0.03403
3614.29617	0.03442
3613.01040	0.03453
3611.72463	0.03424
3610.43887	0.03370
3609.15310	0.03335
3607.86733	0.03359
3606.58156	0.03437
3605.29579	0.03523
3604.01002	0.03574
3602.72425	0.03589
3601.43848	0.03597
3600.15272	0.03613
3598.86695	0.03627
3597.58118	0.03625
3596.29541	0.03607
3595.00964	0.03596
3593.72387	0.03615
3592.43810	0.03678
3591.15233	0.03767
3589.86656	0.03849
3588.58080	0.03892
3587.29503	0.03890
3586.00926	0.03875
3584.72349	0.03889
3583.43772	0.03954
3582.15195	0.04053
3580.86618	0.04144
3579.58041	0.04198
3578.29464	0.04217
3577.00888	0.04225
3575.72311	0.04233
3574.43734	0.04228
3573.15157	0.04207
3571.86580	0.04201
3570.58003	0.04255
3569.29426	0.04369
3568.00849	0.04483
3566.72273	0.04525
3565.43696	0.04473
3564.15119	0.04373
3562.86542	0.04294
3561.57965	0.04277
3560.29388	0.04315
3559.00811	0.04367
3557.72234	0.04399
3556.43657	0.04396
3555.15081	0.04364
3553.86504	0.04330
3552.57927	0.04331
3551.29350	0.04395
3550.00773	0.04510
3548.72196	0.04627
3547.43619	0.04697
3546.15042	0.04705
3544.86466	0.04672
3543.57889	0.04631
3542.29312	0.04611
3541.00735	0.04625
3539.72158	0.04675
3538.43581	0.04744
3537.15004	0.04803
3535.86427	0.04829
3534.57850	0.04816
3533.29274	0.04783
3532.00697	0.04759
3530.72120	0.04769
3529.43543	0.04816
3528.14966	0.04883
3526.86389	0.04943
3525.57812	0.04989
3524.29235	0.05028
3523.00659	0.05070
3521.72082	0.05107
3520.43505	0.05122
3519.14928	0.05107
3517.86351	0.05074
3516.57774	0.05050
3515.29197	0.05057
3514.00620	0.05094
3512.72043	0.05140
3511.43467	0.05175
3510.14890	0.05203
3508.86313	0.05244
3507.57736	0.05308
3506.29159	0.05374
3505.00582	0.05412
3503.72005	0.05410
3502.43428	0.05379
3501.14852	0.05341
3499.86275	0.05309
3498.57698	0.05291
3497.29121	0.05293
3496.00544	0.05324
3494.71967	0.05374
3493.43390	0.05417
3492.14813	0.05421
3490.86236	0.05383
3489.57660	0.05336
3488.29083	0.05321
3487.00506	0.05353
3485.71929	0.05415
3484.43352	0.05480
3483.14775	0.05532
3481.86198	0.05563
3480.57621	0.05572
3479.29045	0.05567
3478.00468	0.05565
3476.71891	0.05581
3475.43314	0.05618
3474.14737	0.05673
3472.86160	0.05735
3471.57583	0.05786
3470.29006	0.05808
3469.00429	0.05800
3467.71853	0.05775
3466.43276	0.05746
3465.14699	0.05727
3463.86122	0.05729
3462.57545	0.05753
3461.28968	0.05782
3460.00391	0.05808
3458.71814	0.05839
3457.43238	0.05881
3456.14661	0.05915
3454.86084	0.05918
3453.57507	0.05890
3452.28930	0.05857
3451.00353	0.05834
3449.71776	0.05823
3448.43199	0.05824
3447.14622	0.05851
3445.86046	0.05910
3444.57469	0.05985
3443.28892	0.06043
3442.00315	0.06063
3440.71738	0.06055
3439.43161	0.06044
3438.14584	0.06048
3436.86007	0.06061
3435.57431	0.06068
3434.28854	0.06070
3433.00277	0.06076
3431.71700	0.06085
3430.43123	0.06079
3429.14546	0.06052
3427.85969	0.06023
3426.57392	0.06024
3425.28815	0.06071
3424.00239	0.06153
3422.71662	0.06238
3421.43085	0.06300
3420.14508	0.06321
3418.85931	0.06311
3417.57354	0.06293
3416.28777	0.06289
3415.00200	0.06300
3413.71624	0.06308
3412.43047	0.06311
3411.14470	0.06329
3409.85893	0.06374
3408.57316	0.06427
3407.28739	0.06448
3406.00162	0.06414
3404.71585	0.06347
3403.43008	0.06295
3402.14432	0.06290
3400.85855	0.06317
3399.57278	0.06336
3398.28701	0.06335
3397.00124	0.06331
3395.71547	0.06352
3394.42970	0.06404
3393.14393	0.06460
3391.85817	0.06492
3390.57240	0.06490
3389.28663	0.06471
3388.00086	0.06456
3386.71509	0.06454
3385.42932	0.06459
3384.14355	0.06456
3382.85778	0.06443
3381.57201	0.06434
3380.28625	0.06441
3379.00048	0.06461
3377.71471	0.06482
3376.42894	0.06500
3375.14317	0.06519
3373.85740	0.06542
3372.57163	0.06562
3371.28586	0.06575
3370.00010	0.06587
3368.71433	0.06607
3367.42856	0.06638
3366.14279	0.06680
3364.85702	0.06728
3363.57125	0.06766
3362.28548	0.06771
3360.99971	0.06736
3359.71394	0.06679
3358.42818	0.06631
3357.14241	0.06613
3355.85664	0.06628
3354.57087	0.06655
3353.28510	0.06662
3351.99933	0.06639
3350.71356	0.06606
3349.42779	0.06597
3348.14202	0.06618
3346.85626	0.06636
3345.57049	0.06619
3344.28472	0.06573
3342.99895	0.06532
3341.71318	0.06520
3340.42741	0.06529
3339.14164	0.06547
3337.85587	0.06574
3336.57011	0.06621
3335.28434	0.06679
3333.99857	0.06725
3332.71280	0.06746
3331.42703	0.06750
3330.14126	0.06748
3328.85549	0.06739
3327.56972	0.06712
3326.28395	0.06670
3324.99819	0.06630
3323.71242	0.06610
3322.42665	0.06619
3321.14088	0.06652
3319.85511	0.06693
3318.56934	0.06733
3317.28357	0.06769
3315.99780	0.06802
3314.71204	0.06824
3313.42627	0.06824
3312.14050	0.06806
3310.85473	0.06794
3309.56896	0.06812
3308.28319	0.06855
3306.99742	0.06886
3305.71165	0.06872
3304.42588	0.06820
3303.14012	0.06770
3301.85435	0.06753
3300.56858	0.06769
3299.28281	0.06793
3297.99704	0.06806
3296.71127	0.06807
3295.42550	0.06796
3294.13973	0.06772
3292.85397	0.06735
3291.56820	0.06701
3290.28243	0.06693
3288.99666	0.06715
3287.71089	0.06745
3286.42512	0.06751
3285.13935	0.06725
3283.85358	0.06690
3282.56781	0.06673
3281.28205	0.06680
3279.99628	0.06697
3278.71051	0.06706
3277.42474	0.06709
3276.13897	0.06723
3274.85320	0.06750
3273.56743	0.06778
3272.28166	0.06783
3270.99590	0.06760
3269.71013	0.06724
3268.42436	0.06697
3267.13859	0.06691
3265.85282	0.06701
3264.56705	0.06706
3263.28128	0.06696
3261.99551	0.06680
3260.70974	0.06675
3259.42398	0.06688
3258.13821	0.06711
3256.85244	0.06725
3255.56667	0.06720
3254.28090	0.06690
3252.99513	0.06641
3251.70936	0.06586
3250.42359	0.06544
3249.13783	0.06529
3247.85206	0.06541
3246.56629	0.06564
3245.28052	0.06579
3243.99475	0.06578
3242.70898	0.06567
3241.42321	0.06548
3240.13744	0.06511
3238.85167	0.06447
3237.56591	0.06364
3236.28014	0.06298
3234.99437	0.06289
3233.70860	0.06343
3232.42283	0.06426
3231.13706	0.06490
3229.85129	0.06507
3228.56552	0.06485
3227.27976	0.06451
3225.99399	0.06421
3224.70822	0.06397
3223.42245	0.06373
3222.13668	0.06349
3220.85091	0.06328
3219.56514	0.06309
3218.27937	0.06288
3216.99360	0.06266
3215.70784	0.06241
3214.42207	0.06211
3213.13630	0.06174
3211.85053	0.06140
3210.56476	0.06125
3209.27899	0.06136
3207.99322	0.06165
3206.70745	0.06193
3205.42169	0.06206
3204.13592	0.06203
3202.85015	0.06191
3201.56438	0.06176
3200.27861	0.06161
3198.99284	0.06147
3197.70707	0.06128
3196.42130	0.06102
3195.13553	0.06072
3193.84977	0.06046
3192.56400	0.06028
3191.27823	0.06010
3189.99246	0.05990
3188.70669	0.05972
3187.42092	0.05969
3186.13515	0.05986
3184.84938	0.06015
3183.56362	0.06043
3182.27785	0.06064
3180.99208	0.06082
3179.70631	0.06098
3178.42054	0.06106
3177.13477	0.06097
3175.84900	0.06073
3174.56323	0.06043
3173.27746	0.06020
3171.99170	0.06007
3170.70593	0.05992
3169.42016	0.05964
3168.13439	0.05915
3166.84862	0.05856
3165.56285	0.05807
3164.27708	0.05779
3162.99131	0.05766
3161.70555	0.05757
3160.41978	0.05753
3159.13401	0.05760
3157.84824	0.05767
3156.56247	0.05746
3155.27670	0.05686
3153.99093	0.05608
3152.70516	0.05547
3151.41939	0.05529
3150.13363	0.05554
3148.84786	0.05599
3147.56209	0.05637
3146.27632	0.05652
3144.99055	0.05650
3143.70478	0.05641
3142.41901	0.05624
3141.13324	0.05592
3139.84748	0.05549
3138.56171	0.05512
3137.27594	0.05497
3135.99017	0.05506
3134.70440	0.05525
3133.41863	0.05539
3132.13286	0.05542
3130.84709	0.05537
3129.56132	0.05535
3128.27556	0.05543
3126.98979	0.05560
3125.70402	0.05581
3124.41825	0.05595
3123.13248	0.05601
3121.84671	0.05601
3120.56094	0.05595
3119.27517	0.05576
3117.98940	0.05533
3116.70364	0.05472
3115.41787	0.05413
3114.13210	0.05378
3112.84633	0.05370
3111.56056	0.05377
3110.27479	0.05383
3108.98902	0.05386
3107.70325	0.05396
3106.41749	0.05417
3105.13172	0.05435
3103.84595	0.05425
3102.56018	0.05384
3101.27441	0.05334
3099.98864	0.05302
3098.70287	0.05284
3097.41710	0.05264
3096.13133	0.05238
3094.84557	0.05224
3093.55980	0.05239
3092.27403	0.05272
3090.98826	0.05295
3089.70249	0.05296
3088.41672	0.05282
3087.13095	0.05272
3085.84518	0.05272
3084.55942	0.05275
3083.27365	0.05266
3081.98788	0.05246
3080.70211	0.05229
3079.41634	0.05232
3078.13057	0.05255
3076.84480	0.05282
3075.55903	0.05294
3074.27326	0.05287
3072.98750	0.05270
3071.70173	0.05255
3070.41596	0.05242
3069.13019	0.05226
3067.84442	0.05205
3066.55865	0.05191
3065.27288	0.05189
3063.98711	0.05192
3062.70135	0.05187
3061.41558	0.05170
3060.12981	0.05153
3058.84404	0.05149
3057.55827	0.05153
3056.27250	0.05151
3054.98673	0.05139
3053.70096	0.05125
3052.41519	0.05116
3051.12943	0.05109
3049.84366	0.05091
3048.55789	0.05062
3047.27212	0.05032
3045.98635	0.05008
3044.70058	0.04989
3043.41481	0.04975
3042.12904	0.04968
3040.84328	0.04968
3039.55751	0.04965
3038.27174	0.04945
3036.98597	0.04909
3035.70020	0.04870
3034.41443	0.04842
3033.12866	0.04829
3031.84289	0.04827
3030.55712	0.04830
3029.27136	0.04828
3027.98559	0.04814
3026.69982	0.04790
3025.41405	0.04767
3024.12828	0.04752
3022.84251	0.04745
3021.55674	0.04741
3020.27097	0.04741
3018.98521	0.04740
3017.69944	0.04732
3016.41367	0.04716
3015.12790	0.04699
3013.84213	0.04690
3012.55636	0.04692
3011.27059	0.04704
3009.98482	0.04726
3008.69905	0.04751
3007.41329	0.04766
3006.12752	0.04759
3004.84175	0.04734
3003.55598	0.04710
3002.27021	0.04705
3000.98444	0.04723
2999.69867	0.04752
2998.41290	0.04778
2997.12714	0.04784
2995.84137	0.04767
2994.55560	0.04738
2993.26983	0.04709
2991.98406	0.04686
2990.69829	0.04669
2989.41252	0.04666
2988.12675	0.04680
2986.84098	0.04707
2985.55522	0.04734
2984.26945	0.04747
2982.98368	0.04743
2981.69791	0.04728
2980.41214	0.04709
2979.12637	0.04689
2977.84060	0.04665
2976.55483	0.04638
2975.26907	0.04615
2973.98330	0.04607
2972.69753	0.04619
2971.41176	0.04651
2970.12599	0.04689
2968.84022	0.04722
2967.55445	0.04750
2966.26868	0.04775
2964.98291	0.04793
2963.69715	0.04790
2962.41138	0.04762
2961.12561	0.04727
2959.83984	0.04703
2958.55407	0.04692
2957.26830	0.04684
2955.98253	0.04676
2954.69676	0.04674
2953.41100	0.04686
2952.12523	0.04711
2950.83946	0.04735
2949.55369	0.04751
2948.26792	0.04760
2946.98215	0.04763
2945.69638	0.04754
2944.41061	0.04731
2943.12484	0.04702
2941.83908	0.04675
2940.55331	0.04657
2939.26754	0.04655
2937.98177	0.04670
2936.69600	0.04698
2935.41023	0.04728
2934.12446	0.04748
2932.83869	0.04749
2931.55293	0.04726
2930.26716	0.04686
2928.98139	0.04644
2927.69562	0.04613
2926.40985	0.04597
2925.12408	0.04591
2923.83831	0.04584
2922.55254	0.04573
2921.26677	0.04558
2919.98101	0.04542
2918.69524	0.04529
2917.40947	0.04517
2916.12370	0.04501
2914.83793	0.04478
2913.55216	0.04452
2912.26639	0.04431
2910.98062	0.04428
2909.69486	0.04447
2908.40909	0.04473
2907.12332	0.04486
2905.83755	0.04476
2904.55178	0.04448
2903.26601	0.04421
2901.98024	0.04410
2900.69447	0.04418
2899.40870	0.04441
2898.12294	0.04460
2896.83717	0.04461
2895.55140	0.04438
2894.26563	0.04399
2892.97986	0.04361
2891.69409	0.04333
2890.40832	0.04316
2889.12255	0.04307
2887.83678	0.04305
2886.55102	0.04308
2885.26525	0.04308
2883.97948	0.04304
2882.69371	0.04307
2881.40794	0.04323
2880.12217	0.04346
2878.83640	0.04360
2877.55063	0.04358
2876.26487	0.04346
2874.97910	0.04331
2873.69333	0.04321
2872.40756	0.04317
2871.12179	0.04320
2869.83602	0.04330
2868.55025	0.04340
2867.26448	0.04332
2865.97871	0.04295
2864.69295	0.04236
2863.40718	0.04175
2862.12141	0.04125
2860.83564	0.04082
2859.54987	0.04041
2858.26410	0.04014
2856.97833	0.04014
2855.69256	0.04039
2854.40680	0.04064
2853.12103	0.04065
2851.83526	0.04039
2850.54949	0.04002
2849.26372	0.03974
2847.97795	0.03962
2846.69218	0.03958
2845.40641	0.03960
2844.12064	0.03976
2842.83488	0.04004
2841.54911	0.04026
2840.26334	0.04023
2838.97757	0.03998
2837.69180	0.03973
2836.40603	0.03961
2835.12026	0.03955
2833.83449	0.03947
2832.54873	0.03934
2831.26296	0.03913
2829.97719	0.03882
2828.69142	0.03845
2827.40565	0.03820
2826.11988	0.03819
2824.83411	0.03837
2823.54834	0.03857
2822.26257	0.03866
2820.97681	0.03862
2819.69104	0.03850
2818.40527	0.03838
2817.11950	0.03836
2815.83373	0.03847
2814.54796	0.03861
2813.26219	0.03861
2811.97642	0.03843
2810.69066	0.03816
2809.40489	0.03795
2808.11912	0.03790
2806.83335	0.03798
2805.54758	0.03802
2804.26181	0.03788
2802.97604	0.03763
2801.69027	0.03744
2800.40450	0.03736
2799.11874	0.03732
2797.83297	0.03724
2796.54720	0.03711
2795.26143	0.03697
2793.97566	0.03682
2792.68989	0.03667
2791.40412	0.03656
2790.11835	0.03648
2788.83259	0.03635
2787.54682	0.03610
2786.26105	0.03585
2784.97528	0.03576
2783.68951	0.03594
2782.40374	0.03628
2781.11797	0.03661
2779.83220	0.03680
2778.54643	0.03682
2777.26067	0.03667
2775.97490	0.03646
2774.68913	0.03627
2773.40336	0.03607
2772.11759	0.03580
2770.83182	0.03551
2769.54605	0.03538
2768.26028	0.03547
2766.97452	0.03568
2765.68875	0.03585
2764.40298	0.03591
2763.11721	0.03584
2761.83144	0.03564
2760.54567	0.03533
2759.25990	0.03501
2757.97413	0.03484
2756.68836	0.03483
2755.40260	0.03493
2754.11683	0.03508
2752.83106	0.03521
2751.54529	0.03522
2750.25952	0.03511
2748.97375	0.03500
2747.68798	0.03499
2746.40221	0.03503
2745.11645	0.03492
2743.83068	0.03462
2742.54491	0.03429
2741.25914	0.03412
2739.97337	0.03422
2738.68760	0.03447
2737.40183	0.03466
2736.11606	0.03463
2734.83029	0.03443
2733.54453	0.03423
2732.25876	0.03416
2730.97299	0.03421
2729.68722	0.03426
2728.40145	0.03418
2727.11568	0.03391
2725.82991	0.03355
2724.54414	0.03329
2723.25838	0.03331
2721.97261	0.03362
2720.68684	0.03405
2719.40107	0.03437
2718.11530	0.03442
2716.82953	0.03420
2715.54376	0.03382
2714.25799	0.03346
2712.97222	0.03321
2711.68646	0.03306
2710.40069	0.03300
2709.11492	0.03298
2707.82915	0.03292
2706.54338	0.03276
2705.25761	0.03255
2703.97184	0.03241
2702.68607	0.03241
2701.40031	0.03247
2700.11454	0.03250
2698.82877	0.03254
2697.54300	0.03264
2696.25723	0.03280
2694.97146	0.03296
2693.68569	0.03309
2692.39992	0.03314
2691.11415	0.03312
2689.82839	0.03305
2688.54262	0.03296
2687.25685	0.03287
2685.97108	0.03277
2684.68531	0.03264
2683.39954	0.03252
2682.11377	0.03245
2680.82800	0.03244
2679.54224	0.03241
2678.25647	0.03231
2676.97070	0.03213
2675.68493	0.03200
2674.39916	0.03200
2673.11339	0.03209
2671.82762	0.03219
2670.54185	0.03221
2669.25608	0.03218
2667.97032	0.03215
2666.68455	0.03215
2665.39878	0.03219
2664.11301	0.03226
2662.82724	0.03231
2661.54147	0.03228
2660.25570	0.03214
2658.96993	0.03192
2657.68417	0.03169
2656.39840	0.03151
2655.11263	0.03134
2653.82686	0.03115
2652.54109	0.03100
2651.25532	0.03095
2649.96955	0.03099
2648.68378	0.03104
2647.39801	0.03112
2646.11225	0.03125
2644.82648	0.03145
2643.54071	0.03163
2642.25494	0.03170
2640.96917	0.03157
2639.68340	0.03126
2638.39763	0.03089
2637.11186	0.03058
2635.82609	0.03034
2634.54033	0.03012
2633.25456	0.02993
2631.96879	0.02992
2630.68302	0.03019
2629.39725	0.03055
2628.11148	0.03064
2626.82571	0.03029
2625.53994	0.02971
2624.25418	0.02928
2622.96841	0.02918
2621.68264	0.02925
2620.39687	0.02923
2619.11110	0.02901
2617.82533	0.02868
2616.53956	0.02839
2615.25379	0.02814
2613.96802	0.02785
2612.68226	0.02755
2611.39649	0.02748
2610.11072	0.02776
2608.82495	0.02826
2607.53918	0.02869
2606.25341	0.02891
2604.96764	0.02897
2603.68187	0.02895
2602.39611	0.02890
2601.11034	0.02881
2599.82457	0.02863
2598.53880	0.02832
2597.25303	0.02794
2595.96726	0.02765
2594.68149	0.02754
2593.39572	0.02754
2592.10995	0.02748
2590.82419	0.02730
2589.53842	0.02716
2588.25265	0.02726
2586.96688	0.02763
2585.68111	0.02798
2584.39534	0.02798
2583.10957	0.02754
2581.82380	0.02688
2580.53804	0.02631
2579.25227	0.02600
2577.96650	0.02599
2576.68073	0.02619
2575.39496	0.02642
2574.10919	0.02650
2572.82342	0.02637
2571.53765	0.02613
2570.25188	0.02590
2568.96612	0.02574
2567.68035	0.02566
2566.39458	0.02567
2565.10881	0.02580
2563.82304	0.02604
2562.53727	0.02625
2561.25150	0.02623
2559.96573	0.02591
2558.67997	0.02542
2557.39420	0.02501
2556.10843	0.02485
2554.82266	0.02488
2553.53689	0.02495
2552.25112	0.02502
2550.96535	0.02507
2549.67958	0.02504
2548.39381	0.02487
2547.10805	0.02461
2545.82228	0.02444
2544.53651	0.02449
2543.25074	0.02475
2541.96497	0.02513
2540.67920	0.02550
2539.39343	0.02572
2538.10766	0.02569
2536.82190	0.02543
2535.53613	0.02507
2534.25036	0.02479
2532.96459	0.02459
2531.67882	0.02442
2530.39305	0.02418
2529.10728	0.02393
2527.82151	0.02380
2526.53574	0.02392
2525.24998	0.02427
2523.96421	0.02471
2522.67844	0.02508
2521.39267	0.02526
2520.10690	0.02522
2518.82113	0.02499
2517.53536	0.02465
2516.24959	0.02426
2514.96383	0.02390
2513.67806	0.02363
2512.39229	0.02348
2511.10652	0.02348
2509.82075	0.02363
2508.53498	0.02388
2507.24921	0.02418
2505.96344	0.02448
2504.67767	0.02480
2503.39191	0.02511
2502.10614	0.02528
2500.82037	0.02523
2499.53460	0.02505
2498.24883	0.02490
2496.96306	0.02484
2495.67729	0.02475
2494.39152	0.02451
2493.10576	0.02412
2491.81999	0.02362
2490.53422	0.02308
2489.24845	0.02266
2487.96268	0.02253
2486.67691	0.02276
2485.39114	0.02318
2484.10537	0.02348
2482.81960	0.02348
2481.53384	0.02320
2480.24807	0.02295
2478.96230	0.02303
2477.67653	0.02351
2476.39076	0.02411
2475.10499	0.02447
2473.81922	0.02441
2472.53345	0.02406
2471.24769	0.02367
2469.96192	0.02341
2468.67615	0.02326
2467.39038	0.02312
2466.10461	0.02289
2464.81884	0.02269
2463.53307	0.02269
2462.24730	0.02294
2460.96153	0.02325
2459.67577	0.02340
2458.39000	0.02335
2457.10423	0.02321
2455.81846	0.02306
2454.53269	0.02291
2453.24692	0.02279
2451.96115	0.02284
2450.67538	0.02310
2449.38962	0.02349
2448.10385	0.02386
2446.81808	0.02409
2445.53231	0.02412
2444.24654	0.02391
2442.96077	0.02345
2441.67500	0.02290
2440.38923	0.02247
2439.10346	0.02230
2437.81770	0.02234
2436.53193	0.02248
2435.24616	0.02264
2433.96039	0.02274
2432.67462	0.02266
2431.38885	0.02229
2430.10308	0.02176
2428.81731	0.02137
2427.53155	0.02133
2426.24578	0.02157
2424.96001	0.02192
2423.67424	0.02231
2422.38847	0.02273
2421.10270	0.02307
2419.81693	0.02318
2418.53116	0.02299
2417.24539	0.02258
2415.95963	0.02212
2414.67386	0.02181
2413.38809	0.02168
2412.10232	0.02165
2410.81655	0.02164
2409.53078	0.02171
2408.24501	0.02191
2406.95924	0.02217
2405.67347	0.02237
2404.38771	0.02243
2403.10194	0.02237
2401.81617	0.02220
2400.53040	0.02195
2399.24463	0.02179
2397.95886	0.02177
2396.67309	0.02193
2395.38732	0.02217
2394.10156	0.02235
2392.81579	0.02238
2391.53002	0.02232
2390.24425	0.02223
2388.95848	0.02211
2387.67271	0.02199
2386.38694	0.02190
2385.10117	0.02186
2383.81540	0.02179
2382.52964	0.02158
2381.24387	0.02118
2379.95810	0.02062
2378.67233	0.01996
2377.38656	0.01929
2376.10079	0.01863
2374.81502	0.01794
2373.52925	0.01715
2372.24349	0.01622
2370.95772	0.01519
2369.67195	0.01409
2368.38618	0.01290
2367.10041	0.01169
2365.81464	0.01067
2364.52887	0.01005
2363.24310	0.00989
2361.95733	0.01005
2360.67157	0.01033
2359.38580	0.01063
2358.10003	0.01105
2356.81426	0.01178
2355.52849	0.01291
2354.24272	0.01438
2352.95695	0.01592
2351.67118	0.01725
2350.38542	0.01813
2349.09965	0.01843
2347.81388	0.01818
2346.52811	0.01754
2345.24234	0.01671
2343.95657	0.01583
2342.67080	0.01500
2341.38503	0.01433
2340.09926	0.01391
2338.81350	0.01373
2337.52773	0.01369
2336.24196	0.01363
2334.95619	0.01350
2333.67042	0.01330
2332.38465	0.01312
2331.09888	0.01305
2329.81311	0.01320
2328.52735	0.01366
2327.24158	0.01445
2325.95581	0.01551
2324.67004	0.01662
2323.38427	0.01758
2322.09850	0.01822
2320.81273	0.01858
2319.52696	0.01881
2318.24119	0.01908
2316.95543	0.01944
2315.66966	0.01990
2314.38389	0.02043
2313.09812	0.02096
2311.81235	0.02135
2310.52658	0.02148
2309.24081	0.02133
2307.95504	0.02100
2306.66928	0.02066
2305.38351	0.02044
2304.09774	0.02040
2302.81197	0.02052
2301.52620	0.02072
2300.24043	0.02089
2298.95466	0.02098
2297.66889	0.02096
2296.38312	0.02087
2295.09736	0.02077
2293.81159	0.02072
2292.52582	0.02073
2291.24005	0.02074
2289.95428	0.02072
2288.66851	0.02074
2287.38274	0.02080
2286.09697	0.02084
2284.81121	0.02073
2283.52544	0.02051
2282.23967	0.02041
2280.95390	0.02052
2279.66813	0.02066
2278.38236	0.02054
2277.09659	0.02015
2275.81082	0.01972
2274.52505	0.01945
2273.23929	0.01934
2271.95352	0.01933
2270.66775	0.01937
2269.38198	0.01937
2268.09621	0.01923
2266.81044	0.01894
2265.52467	0.01856
2264.23890	0.01820
2262.95314	0.01793
2261.66737	0.01777
2260.38160	0.01771
2259.09583	0.01781
2257.81006	0.01800
2256.52429	0.01810
2255.23852	0.01800
2253.95275	0.01782
2252.66698	0.01770
2251.38122	0.01756
2250.09545	0.01735
2248.80968	0.01718
2247.52391	0.01668
2246.23814	0.01670
2244.95237	0.01711
2243.66660	0.01735
2242.38083	0.01698
2241.09507	0.01614
2239.80930	0.01543
2238.52353	0.01533
2237.23776	0.01578
2235.95199	0.01627
2234.66622	0.01638
2233.38045	0.01615
2232.09468	0.01586
2230.80891	0.01567
2229.52315	0.01551
2228.23738	0.01529
2226.95161	0.01513
2225.66584	0.01513
2224.38007	0.01532
2223.09430	0.01562
2221.80853	0.01591
2220.52276	0.01595
2219.23700	0.01562
2217.95123	0.01516
2216.66546	0.01501
2215.37969	0.01528
2214.09392	0.01563
2212.80815	0.01567
2211.52238	0.01542
2210.23661	0.01516
2208.95084	0.01508
2207.66508	0.01505
2206.37931	0.01483
2205.09354	0.01441
2203.80777	0.01407
2202.52200	0.01410
2201.23623	0.01451
2199.95046	0.01508
2198.66469	0.01537
2197.37893	0.01497
2196.09316	0.01380
2194.80739	0.01222
2193.52162	0.01078
2192.23585	0.01000
2190.95008	0.01026
2189.66431	0.01159
2188.37854	0.01338
2187.09277	0.01457
2185.80701	0.01454
2184.52124	0.01357
2183.23547	0.01233
2181.94970	0.01112
2180.66393	0.00988
2179.37816	0.00863
2178.09239	0.00778
2176.80662	0.00768
2175.52085	0.00827
2174.23509	0.00915
2172.94932	0.00996
2171.66355	0.01053
2170.37778	0.01069
2169.09201	0.01029
2167.80624	0.00944
2166.52047	0.00860
2165.23470	0.00827
2163.94894	0.00837
2162.66317	0.00818
2161.37740	0.00711
2160.09163	0.00557
2158.80586	0.00471
2157.52009	0.00502
2156.23432	0.00571
2154.94855	0.00579
2153.66278	0.00529
2152.37702	0.00496
2151.09125	0.00527
2149.80548	0.00606
2148.51971	0.00703
2147.23394	0.00827
2145.94817	0.00988
2144.66240	0.01148
2143.37663	0.01221
2142.09087	0.01161
2140.80510	0.01011
2139.51933	0.00871
2138.23356	0.00814
2136.94779	0.00838
2135.66202	0.00900
2134.37625	0.00970
2133.09048	0.01047
2131.80471	0.01126
2130.51895	0.01188
2129.23318	0.01208
2127.94741	0.01193
2126.66164	0.01174
2125.37587	0.01170
2124.09010	0.01180
2122.80433	0.01188
2121.51856	0.01191
2120.23280	0.01199
2118.94703	0.01223
2117.66126	0.01256
2116.37549	0.01271
2115.08972	0.01246
2113.80395	0.01195
2112.51818	0.01158
2111.23241	0.01165
2109.94664	0.01208
2108.66088	0.01266
2107.37511	0.01322
2106.08934	0.01358
2104.80357	0.01348
2103.51780	0.01284
2102.23203	0.01196
2100.94626	0.01139
2099.66049	0.01238
2098.37473	0.01305
2097.08896	0.01306
2095.80319	0.01271
2094.51742	0.01227
2093.23165	0.01199
2091.94588	0.01192
2090.66011	0.01193
2089.37434	0.01185
2088.08857	0.01164
2086.80281	0.01140
2085.51704	0.01127
2084.23127	0.01136
2082.94550	0.01169
2081.65973	0.01211
2080.37396	0.01238
2079.08819	0.01235
2077.80242	0.01216
2076.51666	0.01214
2075.23089	0.01247
2073.94512	0.01299
2072.65935	0.01337
2071.37358	0.01334
2070.08781	0.01291
2068.80204	0.01226
2067.51627	0.01168
2066.23050	0.01138
2064.94474	0.01142
2063.65897	0.01163
2062.37320	0.01164
2061.08743	0.01119
2059.80166	0.01035
2058.51589	0.00948
2057.23012	0.00888
2055.94435	0.00868
2054.65859	0.00887
2053.37282	0.00941
2052.08705	0.01011
2050.80128	0.01075
2049.51551	0.01117
2048.22974	0.01138
2046.94397	0.01137
2045.65820	0.01100
2044.37243	0.01022
2043.08667	0.00934
2041.80090	0.00868
2040.51513	0.00824
2039.22936	0.00766
2037.94359	0.00684
2036.65782	0.00616
2035.37205	0.00617
2034.08628	0.00689
2032.80052	0.00782
2031.51475	0.00842
2030.22898	0.00855
2028.94321	0.00847
2027.65744	0.00844
2026.37167	0.00843
2025.08590	0.00822
2023.80013	0.00777
2022.51436	0.00735
2021.22860	0.00721
2019.94283	0.00734
2018.65706	0.00738
2017.37129	0.00686
2016.08552	0.00570
2014.79975	0.00448
2013.51398	0.00405
2012.22821	0.00467
2010.94245	0.00576
2009.65668	0.00650
2008.37091	0.00667
2007.08514	0.00666
2005.79937	0.00690
2004.51360	0.00738
2003.22783	0.00788
2001.94206	0.00824
2000.65629	0.00851
1999.37053	0.00882
1998.08476	0.00921
1996.79899	0.00956
1995.51322	0.00962
1994.22745	0.00927
1992.94168	0.00870
1991.65591	0.00830
1990.37014	0.00823
1989.08438	0.00828
1987.79861	0.00819
1986.51284	0.00811
1985.22707	0.00843
1983.94130	0.00941
1982.65553	0.01078
1981.36976	0.01197
1980.08399	0.01249
1978.79822	0.01225
1977.51246	0.01146
1976.22669	0.01031
1974.94092	0.00903
1973.65515	0.00802
1972.36938	0.00775
1971.08361	0.00829
1969.79784	0.00914
1968.51207	0.00959
1967.22631	0.00925
1965.94054	0.00827
1964.65477	0.00720
1963.36900	0.00655
1962.08323	0.00655
1960.79746	0.00716
1959.51169	0.00817
1958.22592	0.00925
1956.94015	0.01010
1955.65439	0.01055
1954.36862	0.01076
1953.08285	0.01090
1951.79708	0.01097
1950.51131	0.01082
1949.22554	0.01045
1947.93977	0.01011
1946.65400	0.01006
1945.36823	0.01029
1944.08247	0.01062
1942.79670	0.01094
1941.51093	0.01129
1940.22516	0.01171
1938.93939	0.01209
1937.65362	0.01225
1936.36785	0.01215
1935.08208	0.01196
1933.79632	0.01185
1932.51055	0.01194
1931.22478	0.01223
1929.93901	0.01266
1928.65324	0.01303
1927.36747	0.01309
1926.08170	0.01272
1924.79593	0.01217
1923.51016	0.01184
1922.22440	0.01198
1920.93863	0.01242
1919.65286	0.01279
1918.36709	0.01285
1917.08132	0.01268
1915.79555	0.01254
1914.50978	0.01263
1913.22401	0.01293
1911.93825	0.01329
1910.65248	0.01358
1909.36671	0.01375
1908.08094	0.01383
1906.79517	0.01392
1905.50940	0.01408
1904.22363	0.01433
1902.93786	0.01453
1901.65209	0.01459
1900.36633	0.01453
1899.08056	0.01447
1897.79479	0.01443
1896.50902	0.01433
1895.22325	0.01406
1893.93748	0.01370
1892.65171	0.01339
1891.36594	0.01320
1890.08018	0.01304
1888.79441	0.01282
1887.50864	0.01257
1886.22287	0.01241
1884.93710	0.01240
1883.65133	0.01248
1882.36556	0.01257
1881.07979	0.01262
1879.79402	0.01263
1878.50826	0.01266
1877.22249	0.01275
1875.93672	0.01290
1874.65095	0.01301
1873.36518	0.01304
1872.07941	0.01300
1870.79364	0.01294
1869.50787	0.01288
1868.22211	0.01278
1866.93634	0.01266
1865.65057	0.01261
1864.36480	0.01264
1863.07903	0.01271
1861.79326	0.01275
1860.50749	0.01275
1859.22172	0.01281
1857.93595	0.01298
1856.65019	0.01320
1855.36442	0.01334
1854.07865	0.01333
1852.79288	0.01324
1851.50711	0.01313
1850.22134	0.01304
1848.93557	0.01294
1847.64980	0.01283
1846.36404	0.01276
1845.07827	0.01282
1843.79250	0.01302
1842.50673	0.01324
1841.22096	0.01331
1839.93519	0.01317
1838.64942	0.01293
1837.36365	0.01273
1836.07788	0.01261
1834.79212	0.01258
1833.50635	0.01261
1832.22058	0.01270
1830.93481	0.01280
1829.64904	0.01289
1828.36327	0.01296
1827.07750	0.01306
1825.79173	0.01327
1824.50597	0.01361
1823.22020	0.01398
1821.93443	0.01422
1820.64866	0.01419
1819.36289	0.01390
1818.07712	0.01349
1816.79135	0.01310
1815.50558	0.01284
1814.21981	0.01272
1812.93405	0.01271
1811.64828	0.01274
1810.36251	0.01278
1809.07674	0.01281
1807.79097	0.01285
1806.50520	0.01289
1805.21943	0.01291
1803.93366	0.01290
1802.64790	0.01287
1801.36213	0.01288
1800.07636	0.01295
1798.79059	0.01305
1797.50482	0.01312
1796.21905	0.01311
1794.93328	0.01304
1793.64751	0.01300
1792.36174	0.01306
1791.07598	0.01322
1789.79021	0.01341
1788.50444	0.01356
1787.21867	0.01362
1785.93290	0.01360
1784.64713	0.01352
1783.36136	0.01342
1782.07559	0.01338
1780.78983	0.01343
1779.50406	0.01356
1778.21829	0.01367
1776.93252	0.01369
1775.64675	0.01355
1774.36098	0.01331
1773.07521	0.01310
1771.78944	0.01300
1770.50367	0.01305
1769.21791	0.01318
1767.93214	0.01332
1766.64637	0.01341
1765.36060	0.01343
1764.07483	0.01337
1762.78906	0.01329
1761.50329	0.01324
1760.21752	0.01324
1758.93176	0.01329
1757.64599	0.01336
1756.36022	0.01345
1755.07445	0.01354
1753.78868	0.01355
1752.50291	0.01341
1751.21714	0.01316
1749.93137	0.01292
1748.64560	0.01283
1747.35984	0.01292
1746.07407	0.01311
1744.78830	0.01327
1743.50253	0.01334
1742.21676	0.01336
1740.93099	0.01341
1739.64522	0.01354
1738.35945	0.01369
1737.07369	0.01376
1735.78792	0.01370
1734.50215	0.01360
1733.21638	0.01357
1731.93061	0.01369
1730.64484	0.01391
1729.35907	0.01417
1728.07330	0.01438
1726.78753	0.01454
1725.50177	0.01464
1724.21600	0.01471
1722.93023	0.01475
1721.64446	0.01477
1720.35869	0.01479
1719.07292	0.01483
1717.78715	0.01496
1716.50138	0.01522
1715.21561	0.01558
1713.92985	0.01596
1712.64408	0.01631
1711.35831	0.01664
1710.07254	0.01697
1708.78677	0.01734
1707.50100	0.01775
1706.21523	0.01819
1704.92946	0.01863
1703.64370	0.01905
1702.35793	0.01945
1701.07216	0.01991
1699.78639	0.02052
1698.50062	0.02128
1697.21485	0.02219
1695.92908	0.02323
1694.64331	0.02439
1693.35754	0.02553
1692.07178	0.02656
1690.78601	0.02746
1689.50024	0.02828
1688.21447	0.02907
1686.92870	0.02983
1685.64293	0.03058
1684.35716	0.03141
1683.07139	0.03235
1681.78563	0.03337
1680.49986	0.03439
1679.21409	0.03538
1677.92832	0.03634
1676.64255	0.03728
1675.35678	0.03821
1674.07101	0.03910
1672.78524	0.03987
1671.49947	0.04055
1670.21371	0.04122
1668.92794	0.04200
1667.64217	0.04289
1666.35640	0.04379
1665.07063	0.04457
1663.78486	0.04526
1662.49909	0.04595
1661.21332	0.04670
1659.92756	0.04745
1658.64179	0.04810
1657.35602	0.04857
1656.07025	0.04886
1654.78448	0.04907
1653.49871	0.04934
1652.21294	0.04976
1650.92717	0.05029
1649.64140	0.05075
1648.35564	0.05105
1647.06987	0.05121
1645.78410	0.05134
1644.49833	0.05149
1643.21256	0.05162
1641.92679	0.05167
1640.64102	0.05161
1639.35525	0.05143
1638.06949	0.05118
1636.78372	0.05092
1635.49795	0.05070
1634.21218	0.05048
1632.92641	0.05020
1631.64064	0.04980
1630.35487	0.04929
1629.06910	0.04871
1627.78333	0.04809
1626.49757	0.04740
1625.21180	0.04667
1623.92603	0.04593
1622.64026	0.04523
1621.35449	0.04456
1620.06872	0.04386
1618.78295	0.04310
1617.49718	0.04234
1616.21142	0.04167
1614.92565	0.04112
1613.63988	0.04065
1612.35411	0.04018
1611.06834	0.03968
1609.78257	0.03919
1608.49680	0.03872
1607.21103	0.03831
1605.92526	0.03794
1604.63950	0.03762
1603.35373	0.03734
1602.06796	0.03712
1600.78219	0.03696
1599.49642	0.03682
1598.21065	0.03669
1596.92488	0.03659
1595.63911	0.03654
1594.35335	0.03654
1593.06758	0.03656
1591.78181	0.03656
1590.49604	0.03654
1589.21027	0.03654
1587.92450	0.03660
1586.63873	0.03672
1585.35296	0.03690
1584.06719	0.03709
1582.78143	0.03728
1581.49566	0.03745
1580.20989	0.03760
1578.92412	0.03771
1577.63835	0.03786
1576.35258	0.03815
1575.06681	0.03861
1573.78104	0.03913
1572.49528	0.03960
1571.20951	0.04000
1569.92374	0.04038
1568.63797	0.04081
1567.35220	0.04124
1566.06643	0.04161
1564.78066	0.04188
1563.49489	0.04204
1562.20912	0.04210
1560.92336	0.04212
1559.63759	0.04223
1558.35182	0.04255
1557.06605	0.04304
1555.78028	0.04363
1554.49451	0.04418
1553.20874	0.04465
1551.92297	0.04502
1550.63721	0.04528
1549.35144	0.04545
1548.06567	0.04555
1546.77990	0.04557
1545.49413	0.04550
1544.20836	0.04532
1542.92259	0.04506
1541.63682	0.04479
1540.35105	0.04467
1539.06529	0.04476
1537.77952	0.04500
1536.49375	0.04521
1535.20798	0.04534
1533.92221	0.04540
1532.63644	0.04545
1531.35067	0.04552
1530.06490	0.04558
1528.77914	0.04563
1527.49337	0.04570
1526.20760	0.04580
1524.92183	0.04591
1523.63606	0.04603
1522.35029	0.04619
1521.06452	0.04644
1519.77875	0.04679
1518.49298	0.04719
1517.20722	0.04763
1515.92145	0.04812
1514.63568	0.04864
1513.34991	0.04917
1512.06414	0.04967
1510.77837	0.05009
1509.49260	0.05047
1508.20683	0.05089
1506.92107	0.05149
1505.63530	0.05232
1504.34953	0.05324
1503.06376	0.05407
1501.77799	0.05468
1500.49222	0.05510
1499.20645	0.05544
1497.92068	0.05579
1496.63491	0.05618
1495.34915	0.05659
1494.06338	0.05697
1492.77761	0.05728
1491.49184	0.05758
1490.20607	0.05795
1488.92030	0.05846
1487.63453	0.05911
1486.34876	0.05984
1485.06299	0.06060
1483.77723	0.06136
1482.49146	0.06213
1481.20569	0.06292
1479.91992	0.06373
1478.63415	0.06452
1477.34838	0.06528
1476.06261	0.06600
1474.77684	0.06668
1473.49108	0.06733
1472.20531	0.06797
1470.91954	0.06859
1469.63377	0.06913
1468.34800	0.06958
1467.06223	0.06992
1465.77646	0.07020
1464.49069	0.07049
1463.20492	0.07082
1461.91916	0.07118
1460.63339	0.07155
1459.34762	0.07197
1458.06185	0.07251
1456.77608	0.07319
1455.49031	0.07398
1454.20454	0.07476
1452.91877	0.07545
1451.63301	0.07603
1450.34724	0.07649
1449.06147	0.07682
1447.77570	0.07703
1446.48993	0.07710
1445.20416	0.07703
1443.91839	0.07682
1442.63262	0.07652
1441.34685	0.07619
1440.06109	0.07587
1438.77532	0.07557
1437.48955	0.07533
1436.20378	0.07517
1434.91801	0.07513
1433.63224	0.07521
1432.34647	0.07541
1431.06070	0.07576
1429.77494	0.07628
1428.48917	0.07699
1427.20340	0.07782
1425.91763	0.07870
1424.63186	0.07958
1423.34609	0.08044
1422.06032	0.08129
1420.77455	0.08216
1419.48878	0.08307
1418.20302	0.08399
1416.91725	0.08482
1415.63148	0.08551
1414.34571	0.08603
1413.05994	0.08636
1411.77417	0.08651
1410.48840	0.08644
1409.20263	0.08615
1407.91687	0.08565
1406.63110	0.08497
1405.34533	0.08413
1404.05956	0.08315
1402.77379	0.08206
1401.48802	0.08082
1400.20225	0.07946
1398.91648	0.07798
1397.63071	0.07644
1396.34495	0.07488
1395.05918	0.07332
1393.77341	0.07177
1392.48764	0.07021
1391.20187	0.06862
1389.91610	0.06700
1388.63033	0.06537
1387.34456	0.06374
1386.05880	0.06212
1384.77303	0.06049
1383.48726	0.05886
1382.20149	0.05726
1380.91572	0.05570
1379.62995	0.05417
1378.34418	0.05262
1377.05841	0.05104
1375.77264	0.04948
1374.48688	0.04797
1373.20111	0.04654
1371.91534	0.04515
1370.62957	0.04381
1369.34380	0.04250
1368.05803	0.04126
1366.77226	0.04010
1365.48649	0.03902
1364.20073	0.03802
1362.91496	0.03706
1361.62919	0.03612
1360.34342	0.03521
1359.05765	0.03436
1357.77188	0.03360
1356.48611	0.03297
1355.20034	0.03244
1353.91457	0.03198
1352.62881	0.03155
1351.34304	0.03112
1350.05727	0.03070
1348.77150	0.03031
1347.48573	0.02996
1346.19996	0.02964
1344.91419	0.02935
1343.62842	0.02909
1342.34266	0.02882
1341.05689	0.02853
1339.77112	0.02823
1338.48535	0.02795
1337.19958	0.02772
1335.91381	0.02757
1334.62804	0.02743
1333.34227	0.02727
1332.05650	0.02704
1330.77074	0.02674
1329.48497	0.02644
1328.19920	0.02617
1326.91343	0.02594
1325.62766	0.02574
1324.34189	0.02556
1323.05612	0.02539
1321.77035	0.02523
1320.48459	0.02505
1319.19882	0.02483
1317.91305	0.02457
1316.62728	0.02432
1315.34151	0.02408
1314.05574	0.02387
1312.76997	0.02365
1311.48420	0.02341
1310.19843	0.02315
1308.91267	0.02291
1307.62690	0.02271
1306.34113	0.02256
1305.05536	0.02242
1303.76959	0.02225
1302.48382	0.02205
1301.19805	0.02184
1299.91228	0.02165
1298.62652	0.02148
1297.34075	0.02133
1296.05498	0.02121
1294.76921	0.02111
1293.48344	0.02104
1292.19767	0.02097
1290.91190	0.02090
1289.62613	0.02084
1288.34036	0.02082
1287.05460	0.02081
1285.76883	0.02080
1284.48306	0.02072
1283.19729	0.02058
1281.91152	0.02043
1280.62575	0.02032
1279.33998	0.02027
1278.05421	0.02024
1276.76845	0.02019
1275.48268	0.02011
1274.19691	0.02003
1272.91114	0.01994
1271.62537	0.01984
1270.33960	0.01974
1269.05383	0.01966
1267.76806	0.01967
1266.48229	0.01974
1265.19653	0.01983
1263.91076	0.01987
1262.62499	0.01986
1261.33922	0.01982
1260.05345	0.01978
1258.76768	0.01975
1257.48191	0.01975
1256.19614	0.01978
1254.91037	0.01981
1253.62461	0.01983
1252.33884	0.01980
1251.05307	0.01976
1249.76730	0.01973
1248.48153	0.01972
1247.19576	0.01972
1245.90999	0.01974
1244.62422	0.01979
1243.33846	0.01987
1242.05269	0.01995
1240.76692	0.01997
1239.48115	0.01990
1238.19538	0.01975
1236.90961	0.01959
1235.62384	0.01946
1234.33807	0.01940
1233.05230	0.01937
1231.76654	0.01933
1230.48077	0.01923
1229.19500	0.01909
1227.90923	0.01894
1226.62346	0.01883
1225.33769	0.01876
1224.05192	0.01874
1222.76615	0.01871
1221.48039	0.01866
1220.19462	0.01861
1218.90885	0.01857
1217.62308	0.01856
1216.33731	0.01858
1215.05154	0.01863
1213.76577	0.01870
1212.48000	0.01880
1211.19423	0.01893
1209.90847	0.01909
1208.62270	0.01927
1207.33693	0.01947
1206.05116	0.01968
1204.76539	0.01988
1203.47962	0.02008
1202.19385	0.02028
1200.90808	0.02042
1199.62232	0.02044
1198.33655	0.02059
1197.05078	0.02069
1195.76501	0.02074
1194.47924	0.02075
1193.19347	0.02075
1191.90770	0.02079
1190.62193	0.02085
1189.33616	0.02089
1188.05040	0.02091
1186.76463	0.02093
1185.47886	0.02097
1184.19309	0.02103
1182.90732	0.02113
1181.62155	0.02125
1180.33578	0.02140
1179.05001	0.02154
1177.76425	0.02165
1176.47848	0.02173
1175.19271	0.02180
1173.90694	0.02190
1172.62117	0.02202
1171.33540	0.02216
1170.04963	0.02233
1168.76386	0.02252
1167.47809	0.02275
1166.19233	0.02300
1164.90656	0.02325
1163.62079	0.02349
1162.33502	0.02373
1161.04925	0.02399
1159.76348	0.02430
1158.47771	0.02463
1157.19194	0.02496
1155.90618	0.02527
1154.62041	0.02553
1153.33464	0.02577
1152.04887	0.02605
1150.76310	0.02636
1149.47733	0.02670
1148.19156	0.02705
1146.90579	0.02744
1145.62002	0.02792
1144.33426	0.02849
1143.04849	0.02911
1141.76272	0.02973
1140.47695	0.03039
1139.19118	0.03110
1137.90541	0.03187
1136.61964	0.03271
1135.33387	0.03363
1134.04811	0.03465
1132.76234	0.03578
1131.47657	0.03704
1130.19080	0.03846
1128.90503	0.04008
1127.61926	0.04188
1126.33349	0.04382
1125.04772	0.04584
1123.76195	0.04794
1122.47619	0.05011
1121.19042	0.05235
1119.90465	0.05469
1118.61888	0.05717
1117.33311	0.05975
1116.04734	0.06238
1114.76157	0.06496
1113.47580	0.06747
1112.19004	0.06997
1110.90427	0.07252
1109.61850	0.07511
1108.33273	0.07773
1107.04696	0.08036
1105.76119	0.08298
1104.47542	0.08555
1103.18965	0.08800
1101.90388	0.09034
1100.61812	0.09263
1099.33235	0.09493
1098.04658	0.09724
1096.76081	0.09953
1095.47504	0.10173
1094.18927	0.10379
1092.90350	0.10570
1091.61773	0.10753
1090.33197	0.10931
1089.04620	0.11103
1087.76043	0.11268
1086.47466	0.11431
1085.18889	0.11593
1083.90312	0.11751
1082.61735	0.11907
1081.33158	0.12068
1080.04581	0.12242
1078.76005	0.12435
1077.47428	0.12644
1076.18851	0.12859
1074.90274	0.13076
1073.61697	0.13297
1072.33120	0.13526
1071.04543	0.13768
1069.75966	0.14021
1068.47390	0.14286
1067.18813	0.14558
1065.90236	0.14837
1064.61659	0.15119
1063.33082	0.15402
1062.04505	0.15684
1060.75928	0.15961
1059.47351	0.16233
1058.18774	0.16503
1056.90198	0.16772
1055.61621	0.17036
1054.33044	0.17294
1053.04467	0.17547
1051.75890	0.17798
1050.47313	0.18051
1049.18736	0.18307
1047.90159	0.18566
1046.61583	0.18828
1045.33006	0.19094
1044.04429	0.19368
1042.75852	0.19650
1041.47275	0.19933
1040.18698	0.20213
1038.90121	0.20488
1037.61544	0.20766
1036.32967	0.21049
1035.04391	0.21329
1033.75814	0.21601
1032.47237	0.21861
1031.18660	0.22109
1029.90083	0.22342
1028.61506	0.22556
1027.32929	0.22745
1026.04352	0.22908
1024.75775	0.23043
1023.47199	0.23149
1022.18622	0.23226
1020.90045	0.23280
1019.61468	0.23314
1018.32891	0.23323
1017.04314	0.23299
1015.75737	0.23233
1014.47160	0.23125
1013.18584	0.22979
1011.90007	0.22801
1010.61430	0.22599
1009.32853	0.22373
1008.04276	0.22117
1006.75699	0.21821
1005.47122	0.21482
1004.18545	0.21102
1002.89968	0.20685
1001.61392	0.20237
1000.32815	0.19764
999.04238	0.19277
997.75661	0.18779
996.47084	0.18275
995.18507	0.17764
993.89930	0.17249
992.61353	0.16736
991.32777	0.16231
990.04200	0.15740
988.75623	0.15260
987.47046	0.14782
986.18469	0.14303
984.89892	0.13825
983.61315	0.13357
982.32738	0.12905
981.04161	0.12473
979.75585	0.12060
978.47008	0.11669
977.18431	0.11303
975.89854	0.10964
974.61277	0.10655
973.32700	0.10376
972.04123	0.10133
970.75546	0.09931
969.46970	0.09778
968.18393	0.09686
966.89816	0.09660
965.61239	0.09686
964.32662	0.09738
963.04085	0.09787
961.75508	0.09817
960.46931	0.09823
959.18354	0.09797
957.89778	0.09728
956.61201	0.09606
955.32624	0.09436
954.04047	0.09237
952.75470	0.09026
951.46893	0.08814
950.18316	0.08605
948.89739	0.08400
947.61163	0.08195
946.32586	0.07987
945.04009	0.07779
943.75432	0.07577
942.46855	0.07385
941.18278	0.07199
939.89701	0.07013
938.61124	0.06830
937.32547	0.06660
936.03971	0.06506
934.75394	0.06362
933.46817	0.06222
932.18240	0.06085
930.89663	0.05954
929.61086	0.05833
928.32509	0.05727
927.03932	0.05634
925.75356	0.05549
924.46779	0.05464
923.18202	0.05377
921.89625	0.05290
920.61048	0.05206
919.32471	0.05127
918.03894	0.05053
916.75317	0.04986
915.46740	0.04924
914.18164	0.04865
912.89587	0.04804
911.61010	0.04740
910.32433	0.04677
909.03856	0.04619
907.75279	0.04568
906.46702	0.04519
905.18125	0.04470
903.89549	0.04421
902.60972	0.04375
901.32395	0.04335
900.03818	0.04298
898.75241	0.04263
897.46664	0.04231
896.18087	0.04197
894.89510	0.04155
893.60933	0.04103
892.32357	0.04050
891.03780	0.04013
889.75203	0.04003
888.46626	0.04024
887.18049	0.04073
885.89472	0.04159
884.60895	0.04297
883.32318	0.04495
882.03742	0.04739
880.75165	0.04989
879.46588	0.05199
878.18011	0.05350
876.89434	0.05466
875.60857	0.05583
874.32280	0.05713
873.03703	0.05832
871.75126	0.05899
870.46550	0.05892
869.17973	0.05808
867.89396	0.05661
866.60819	0.05475
865.32242	0.05277
864.03665	0.05082
862.75088	0.04894
861.46511	0.04711
860.17935	0.04543
858.89358	0.04400
857.60781	0.04288
856.32204	0.04203
855.03627	0.04139
853.75050	0.04089
852.46473	0.04044
851.17896	0.03994
849.89319	0.03933
848.60743	0.03864
847.32166	0.03797
846.03589	0.03746
844.75012	0.03712
843.46435	0.03688
842.17858	0.03662
840.89281	0.03633
839.60704	0.03605
838.32128	0.03582
837.03551	0.03564
835.74974	0.03547
834.46397	0.03533
833.17820	0.03521
831.89243	0.03505
830.60666	0.03483
829.32089	0.03456
828.03512	0.03434
826.74936	0.03421
825.46359	0.03414
824.17782	0.03403
822.89205	0.03385
821.60628	0.03367
820.32051	0.03355
819.03474	0.03352
817.74897	0.03353
816.46321	0.03352
815.17744	0.03342
813.89167	0.03321
812.60590	0.03298
811.32013	0.03280
810.03436	0.03270
808.74859	0.03267
807.46282	0.03269
806.17705	0.03272
804.89129	0.03272
803.60552	0.03264
802.31975	0.03253
801.03398	0.03244
799.74821	0.03239
798.46244	0.03236
797.17667	0.03235
795.89090	0.03237
794.60513	0.03239
793.31937	0.03236
792.03360	0.03225
790.74783	0.03211
789.46206	0.03202
788.17629	0.03200
786.89052	0.03202
785.60475	0.03207
784.31898	0.03212
783.03322	0.03213
781.74745	0.03204
780.46168	0.03188
779.17591	0.03174
777.89014	0.03170
776.60437	0.03174
775.31860	0.03181
774.03283	0.03187
772.74706	0.03192
771.46130	0.03200
770.17553	0.03209
768.88976	0.03216
767.60399	0.03217
766.31822	0.03214
765.03245	0.03209
763.74668	0.03204
762.46091	0.03202
761.17515	0.03207
759.88938	0.03216
758.60361	0.03224
757.31784	0.03229
756.03207	0.03233
754.74630	0.03236
753.46053	0.03238
752.17476	0.03238
750.88899	0.03237
749.60323	0.03237
748.31746	0.03236
747.03169	0.03231
745.74592	0.03217
744.46015	0.03197
743.17438	0.03178
741.88861	0.03170
740.60284	0.03179
739.31708	0.03199
738.03131	0.03218
736.74554	0.03224
735.45977	0.03213
734.17400	0.03192
732.88823	0.03171
731.60246	0.03159
730.31669	0.03159
729.03092	0.03170
727.74516	0.03185
726.45939	0.03198
725.17362	0.03204
723.88785	0.03194
722.60208	0.03210
721.31631	0.03240
720.03054	0.03267
718.74477	0.03284
717.45901	0.03289
716.17324	0.03283
714.88747	0.03269
713.60170	0.03252
712.31593	0.03235
711.03016	0.03221
709.74439	0.03210
708.45862	0.03202
707.17285	0.03198
705.88709	0.03195
704.60132	0.03195
703.31555	0.03196
702.02978	0.03199
700.74401	0.03203
699.45824	0.03207
698.17247	0.03213
696.88670	0.03220
695.60094	0.03228
694.31517	0.03234
693.02940	0.03235
691.74363	0.03232
690.45786	0.03226
689.17209	0.03219
687.88632	0.03211
686.60055	0.03200
685.31478	0.03187
684.02902	0.03173
682.74325	0.03164
681.45748	0.03158
680.17171	0.03155
678.88594	0.03153
677.60017	0.03153
676.31440	0.03155
675.02863	0.03162
673.74287	0.03168
672.45710	0.03167
671.17133	0.03149
669.88556	0.03119
668.59979	0.03098
667.31402	0.03102
666.02825	0.03131
664.74248	0.03165
663.45671	0.03188
662.17095	0.03195
660.88518	0.03195
659.59941	0.03194
658.31364	0.03196
657.02787	0.03200
655.74210	0.03207
654.45633	0.03218
653.17056	0.03234
651.88480	0.03251
650.59903	0.03264
649.31326	0.03272
648.02749	0.03284
646.74172	0.03305
645.45595	0.03333
644.17018	0.03359
642.88441	0.03377
641.59864	0.03385
640.31288	0.03387
639.02711	0.03390
637.74134	0.03398
636.45557	0.03415
635.16980	0.03442
633.88403	0.03479
632.59826	0.03519
631.31249	0.03570
630.02673	0.03691
628.74096	0.03853
627.45519	0.03815
626.16942	0.04001
624.88365	0.04343
623.59788	0.04695
622.31211	0.05023
621.02634	0.05317
619.74057	0.05543
618.45481	0.05678
617.16904	0.05744
615.88327	0.05789
614.59750	0.05847
613.31173	0.05948
612.02596	0.06145
610.74019	0.06484
609.45442	0.06951
608.16866	0.07488
606.88289	0.08072
605.59712	0.08693
604.31135	0.09268
603.02558	0.09650
601.73981	0.09755
600.45404	0.09631
599.16827	0.09396
597.88250	0.09143
596.59674	0.08904
595.31097	0.08678
594.02520	0.08463
592.73943	0.08270
591.45366	0.08121
590.16789	0.08030
588.88212	0.07997
587.59635	0.08015
586.31059	0.08076
585.02482	0.08167
583.73905	0.08283
582.45328	0.08425
581.16751	0.08601
579.88174	0.08811
578.59597	0.09049
577.31020	0.09300
576.02443	0.09554
574.73867	0.09805
573.45290	0.10057
572.16713	0.10318
570.88136	0.10592
569.59559	0.10884
568.30982	0.11192
567.02405	0.11511
565.73828	0.11822
564.45251	0.12102
563.16675	0.12319
561.88098	0.12441
560.59521	0.12444
559.30944	0.12318
558.02367	0.12071
556.73790	0.11721
555.45213	0.11294
554.16636	0.10818
552.88060	0.10319
551.59483	0.09823
550.30906	0.09351
549.02329	0.08915
547.73752	0.08519
546.45175	0.08154
545.16598	0.07814
543.88021	0.07506
542.59444	0.07235
541.30868	0.07000
540.02291	0.06790
538.73714	0.06596
537.45137	0.06414
536.16560	0.06242
534.87983	0.06077
533.59406	0.05914
532.30829	0.05751
531.02253	0.05593
529.73676	0.05448
528.45099	0.05323
527.16522	0.05218
525.87945	0.05124
524.59368	0.05026
523.30791	0.04918
522.02214	0.04805
520.73637	0.04699
519.45061	0.04604
518.16484	0.04518
516.87907	0.04436
515.59330	0.04357
514.30753	0.04284
513.02176	0.04214
511.73599	0.04145
510.45022	0.04073
509.16446	0.04005
507.87869	0.03944
506.59292	0.03890
505.30715	0.03834
504.02138	0.03774
502.73561	0.03712
501.44984	0.03657
500.16407	0.03614
498.87830	0.03581
497.59254	0.03551
496.30677	0.03518
495.02100	0.03477
493.73523	0.03429
492.44946	0.03379
491.16369	0.03335
489.87792	0.03305
488.59215	0.03287
487.30639	0.03276
486.02062	0.03262
484.73485	0.03241
483.44908	0.03219
482.16331	0.03201
480.87754	0.03194
479.59177	0.03197
478.30600	0.03204
477.02023	0.03214
475.73447	0.03225
474.44870	0.03239
473.16293	0.03253
471.87716	0.03260
470.59139	0.03251
469.30562	0.03226
468.01985	0.03191
466.73408	0.03157
465.44832	0.03131
464.16255	0.03110
462.87678	0.03090
461.59101	0.03064
460.30524	0.03032
459.01947	0.02997
457.73370	0.02964
456.44793	0.02934
455.16216	0.02904
453.87640	0.02871
452.59063	0.02832
451.30486	0.02791
450.01909	0.02750
448.73332	0.02709
447.44755	0.02671
446.16178	0.02641
444.87601	0.02621
443.59025	0.02609
442.30448	0.02597
441.01871	0.02582
439.73294	0.02563
438.44717	0.02541
437.16140	0.02519
435.87563	0.02497
434.58986	0.02479
433.30409	0.02462
432.01833	0.02447
430.73256	0.02431
429.44679	0.02414
428.16102	0.02395
426.87525	0.02374
425.58948	0.02353
424.30371	0.02331
423.01794	0.02307
421.73218	0.02284
420.44641	0.02266
419.16064	0.02251
417.87487	0.02237
416.58910	0.02220
415.30333	0.02202
414.01756	0.02186
412.73179	0.02174
411.44602	0.02166
410.16026	0.02158
408.87449	0.02151
407.58872	0.02146
406.30295	0.02145
405.01718	0.02148
403.73141	0.02150
402.44564	0.02144
401.15987	0.02132
399.87411	0.02119
