3997.45528	0.07374
3996.16951	0.07365
3994.88374	0.07366
3993.59798	0.07371
3992.31221	0.07368
3991.02644	0.07352
3989.74067	0.07323
3988.45490	0.07285
3987.16913	0.07248
3985.88336	0.07217
3984.59759	0.07195
3983.31183	0.07179
3982.02606	0.07164
3980.74029	0.07142
3979.45452	0.07117
3978.16875	0.07108
3976.88298	0.07130
3975.59721	0.07176
3974.31144	0.07216
3973.02567	0.07219
3971.73991	0.07179
3970.45414	0.07121
3969.16837	0.07084
3967.88260	0.07094
3966.59683	0.07146
3965.31106	0.07204
3964.02529	0.07232
3962.73952	0.07207
3961.45376	0.07126
3960.16799	0.07015
3958.88222	0.06916
3957.59645	0.06859
3956.31068	0.06845
3955.02491	0.06860
3953.73914	0.06904
3952.45337	0.06982
3951.16760	0.07083
3949.88184	0.07171
3948.59607	0.07215
3947.31030	0.07206
3946.02453	0.07151
3944.73876	0.07074
3943.45299	0.07009
3942.16722	0.06989
3940.88145	0.07020
3939.59569	0.07070
3938.30992	0.07092
3937.02415	0.07056
3935.73838	0.06977
3934.45261	0.06900
3933.16684	0.06870
3931.88107	0.06889
3930.59530	0.06918
3929.30953	0.06917
3928.02377	0.06883
3926.73800	0.06842
3925.45223	0.06821
3924.16646	0.06831
3922.88069	0.06856
3921.59492	0.06871
3920.30915	0.06854
3919.02338	0.06800
3917.73762	0.06731
3916.45185	0.06691
3915.16608	0.06699
3913.88031	0.06738
3912.59454	0.06780
3911.30877	0.06806
3910.02300	0.06810
3908.73723	0.06801
3907.45146	0.06800
3906.16570	0.06828
3904.87993	0.06881
3903.59416	0.06935
3902.30839	0.06963
3901.02262	0.06962
3899.73685	0.06949
3898.45108	0.06939
3897.16531	0.06923
3895.87955	0.06890
3894.59378	0.06848
3893.30801	0.06812
3892.02224	0.06793
3890.73647	0.06798
3889.45070	0.06812
3888.16493	0.06798
3886.87916	0.06747
3885.59339	0.06694
3884.30763	0.06665
3883.02186	0.06654
3881.73609	0.06651
3880.45032	0.06657
3879.16455	0.06659
3877.87878	0.06630
3876.59301	0.06575
3875.30724	0.06544
3874.02148	0.06577
3872.73571	0.06645
3871.44994	0.06693
3870.16417	0.06718
3868.87840	0.06752
3867.59263	0.06788
3866.30686	0.06799
3865.02109	0.06781
3863.73532	0.06740
3862.44956	0.06667
3861.16379	0.06577
3859.87802	0.06523
3858.59225	0.06551
3857.30648	0.06643
3856.02071	0.06724
3854.73494	0.06739
3853.44917	0.06712
3852.16341	0.06687
3850.87764	0.06665
3849.59187	0.06640
3848.30610	0.06626
3847.02033	0.06630
3845.73456	0.06643
3844.44879	0.06648
3843.16302	0.06638
3841.87725	0.06614
3840.59149	0.06557
3839.30572	0.06460
3838.01995	0.06356
3836.73418	0.06303
3835.44841	0.06324
3834.16264	0.06390
3832.87687	0.06458
3831.59110	0.06496
3830.30534	0.06494
3829.01957	0.06466
3827.73380	0.06441
3826.44803	0.06438
3825.16226	0.06445
3823.87649	0.06425
3822.59072	0.06380
3821.30495	0.06367
3820.01918	0.06412
3818.73342	0.06459
3817.44765	0.06448
3816.16188	0.06405
3814.87611	0.06373
3813.59034	0.06341
3812.30457	0.06292
3811.01880	0.06243
3809.73303	0.06196
3808.44726	0.06137
3807.16150	0.06101
3805.87573	0.06136
3804.58996	0.06219
3803.30419	0.06279
3802.01842	0.06288
3800.73265	0.06269
3799.44688	0.06230
3798.16111	0.06181
3796.87535	0.06160
3795.58958	0.06185
3794.30381	0.06208
3793.01804	0.06190
3791.73227	0.06147
3790.44650	0.06118
3789.16073	0.06108
3787.87496	0.06096
3786.58919	0.06067
3785.30343	0.06025
3784.01766	0.05987
3782.73189	0.05970
3781.44612	0.05973
3780.16035	0.05985
3778.87458	0.05993
3777.58881	0.05991
3776.30304	0.05997
3775.01728	0.06033
3773.73151	0.06085
3772.44574	0.06107
3771.15997	0.06081
3769.87420	0.06056
3768.58843	0.06080
3767.30266	0.06149
3766.01689	0.06229
3764.73112	0.06295
3763.44536	0.06335
3762.15959	0.06341
3760.87382	0.06316
3759.58805	0.06268
3758.30228	0.06199
3757.01651	0.06122
3755.73074	0.06056
3754.44497	0.06008
3753.15921	0.05993
3751.87344	0.06023
3750.58767	0.06084
3749.30190	0.06146
3748.01613	0.06186
3746.73036	0.06171
3745.44459	0.06117
3744.15882	0.06094
3742.87305	0.06110
3741.58729	0.06100
3740.30152	0.06045
3739.01575	0.05979
3737.72998	0.05924
3736.44421	0.05894
3735.15844	0.05896
3733.87267	0.05912
3732.58690	0.05916
3731.30114	0.05919
3730.01537	0.05942
3728.72960	0.05975
3727.44383	0.05992
3726.15806	0.05965
3724.87229	0.05882
3723.58652	0.05770
3722.30075	0.05687
3721.01498	0.05670
3719.72922	0.05704
3718.44345	0.05759
3717.15768	0.05821
3715.87191	0.05882
3714.58614	0.05929
3713.30037	0.05953
3712.01460	0.05950
3710.72883	0.05920
3709.44307	0.05876
3708.15730	0.05849
3706.87153	0.05868
3705.58576	0.05924
3704.29999	0.05985
3703.01422	0.06019
3701.72845	0.05996
3700.44268	0.05919
3699.15691	0.05818
3697.87115	0.05733
3696.58538	0.05694
3695.29961	0.05710
3694.01384	0.05758
3692.72807	0.05788
3691.44230	0.05776
3690.15653	0.05729
3688.87076	0.05674
3687.58500	0.05641
3686.29923	0.05627
3685.01346	0.05592
3683.72769	0.05541
3682.44192	0.05528
3681.15615	0.05588
3679.87038	0.05712
3678.58461	0.05851
3677.29884	0.05946
3676.01308	0.05997
3674.72731	0.06032
3673.44154	0.06031
3672.15577	0.05966
3670.87000	0.05879
3669.58423	0.05840
3668.29846	0.05848
3667.01269	0.05858
3665.72693	0.05843
3664.44116	0.05792
3663.15539	0.05706
3661.86962	0.05617
3660.58385	0.05580
3659.29808	0.05617
3658.01231	0.05700
3656.72654	0.05790
3655.44077	0.05871
3654.15501	0.05933
3652.86924	0.05971
3651.58347	0.05998
3650.29770	0.06022
3649.01193	0.06024
3647.72616	0.05980
3646.44039	0.05901
3645.15462	0.05812
3643.86886	0.05725
3642.58309	0.05644
3641.29732	0.05580
3640.01155	0.05554
3638.72578	0.05579
3637.44001	0.05646
3636.15424	0.05721
3634.86847	0.05779
3633.58270	0.05827
3632.29694	0.05874
3631.01117	0.05913
3629.72540	0.05943
3628.43963	0.05974
3627.15386	0.06001
3625.86809	0.06013
3624.58232	0.06023
3623.29655	0.06053
3622.01079	0.06090
3620.72502	0.06108
3619.43925	0.06103
3618.15348	0.06087
3616.86771	0.06057
3615.58194	0.06012
3614.29617	0.05962
3613.01040	0.05928
3611.72463	0.05923
3610.43887	0.05952
3609.15310	0.06007
3607.86733	0.06066
3606.58156	0.06095
3605.29579	0.06087
3604.01002	0.06065
3602.72425	0.06052
3601.43848	0.06049
3600.15272	0.06059
3598.86695	0.06094
3597.58118	0.06148
3596.29541	0.06190
3595.00964	0.06212
3593.72387	0.06236
3592.43810	0.06274
3591.15233	0.06303
3589.86656	0.06302
3588.58080	0.06281
3587.29503	0.06256
3586.00926	0.06244
3584.72349	0.06258
3583.43772	0.06290
3582.15195	0.06329
3580.86618	0.06355
3579.58041	0.06348
3578.29464	0.06312
3577.00888	0.06284
3575.72311	0.06301
3574.43734	0.06363
3573.15157	0.06437
3571.86580	0.06476
3570.58003	0.06465
3569.29426	0.06425
3568.00849	0.06395
3566.72273	0.06394
3565.43696	0.06407
3564.15119	0.06415
3562.86542	0.06424
3561.57965	0.06449
3560.29388	0.06491
3559.00811	0.06542
3557.72234	0.06608
3556.43657	0.06693
3555.15081	0.06781
3553.86504	0.06835
3552.57927	0.06837
3551.29350	0.06804
3550.00773	0.06779
3548.72196	0.06795
3547.43619	0.06850
3546.15042	0.06912
3544.86466	0.06948
3543.57889	0.06950
3542.29312	0.06941
3541.00735	0.06944
3539.72158	0.06956
3538.43581	0.06946
3537.15004	0.06889
3535.86427	0.06805
3534.57850	0.06742
3533.29274	0.06733
3532.00697	0.06767
3530.72120	0.06811
3529.43543	0.06849
3528.14966	0.06893
3526.86389	0.06947
3525.57812	0.06996
3524.29235	0.07014
3523.00659	0.06995
3521.72082	0.06958
3520.43505	0.06927
3519.14928	0.06924
3517.86351	0.06955
3516.57774	0.07014
3515.29197	0.07074
3514.00620	0.07110
3512.72043	0.07119
3511.43467	0.07121
3510.14890	0.07145
3508.86313	0.07203
3507.57736	0.07274
3506.29159	0.07322
3505.00582	0.07318
3503.72005	0.07266
3502.43428	0.07202
3501.14852	0.07161
3499.86275	0.07161
3498.57698	0.07198
3497.29121	0.07248
3496.00544	0.07277
3494.71967	0.07263
3493.43390	0.07220
3492.14813	0.07188
3490.86236	0.07199
3489.57660	0.07250
3488.29083	0.07319
3487.00506	0.07388
3485.71929	0.07443
3484.43352	0.07468
3483.14775	0.07457
3481.86198	0.07433
3480.57621	0.07430
3479.29045	0.07459
3478.00468	0.07498
3476.71891	0.07519
3475.43314	0.07512
3474.14737	0.07490
3472.86160	0.07467
3471.57583	0.07452
3470.29006	0.07445
3469.00429	0.07441
3467.71853	0.07445
3466.43276	0.07465
3465.14699	0.07506
3463.86122	0.07556
3462.57545	0.07599
3461.28968	0.07633
3460.00391	0.07666
3458.71814	0.07706
3457.43238	0.07743
3456.14661	0.07762
3454.86084	0.07756
3453.57507	0.07731
3452.28930	0.07709
3451.00353	0.07705
3449.71776	0.07718
3448.43199	0.07733
3447.14622	0.07747
3445.86046	0.07765
3444.57469	0.07785
3443.28892	0.07798
3442.00315	0.07802
3440.71738	0.07807
3439.43161	0.07817
3438.14584	0.07816
3436.86007	0.07785
3435.57431	0.07734
3434.28854	0.07696
3433.00277	0.07692
3431.71700	0.07713
3430.43123	0.07736
3429.14546	0.07748
3427.85969	0.07756
3426.57392	0.07774
3425.28815	0.07806
3424.00239	0.07842
3422.71662	0.07864
3421.43085	0.07871
3420.14508	0.07877
3418.85931	0.07897
3417.57354	0.07931
3416.28777	0.07963
3415.00200	0.07973
3413.71624	0.07956
3412.43047	0.07924
3411.14470	0.07895
3409.85893	0.07890
3408.57316	0.07920
3407.28739	0.07979
3406.00162	0.08046
3404.71585	0.08095
3403.43008	0.08117
3402.14432	0.08120
3400.85855	0.08115
3399.57278	0.08103
3398.28701	0.08072
3397.00124	0.08032
3395.71547	0.08013
3394.42970	0.08039
3393.14393	0.08102
3391.85817	0.08169
3390.57240	0.08209
3389.28663	0.08227
3388.00086	0.08247
3386.71509	0.08277
3385.42932	0.08305
3384.14355	0.08316
3382.85778	0.08302
3381.57201	0.08259
3380.28625	0.08199
3379.00048	0.08154
3377.71471	0.08167
3376.42894	0.08246
3375.14317	0.08352
3373.85740	0.08431
3372.57163	0.08465
3371.28586	0.08470
3370.00010	0.08469
3368.71433	0.08469
3367.42856	0.08461
3366.14279	0.08442
3364.85702	0.08420
3363.57125	0.08404
3362.28548	0.08397
3360.99971	0.08395
3359.71394	0.08393
3358.42818	0.08392
3357.14241	0.08394
3355.85664	0.08405
3354.57087	0.08431
3353.28510	0.08472
3351.99933	0.08521
3350.71356	0.08557
3349.42779	0.08559
3348.14202	0.08516
3346.85626	0.08445
3345.57049	0.08385
3344.28472	0.08366
3342.99895	0.08383
3341.71318	0.08405
3340.42741	0.08400
3339.14164	0.08364
3337.85587	0.08315
3336.57011	0.08276
3335.28434	0.08263
3333.99857	0.08274
3332.71280	0.08304
3331.42703	0.08345
3330.14126	0.08395
3328.85549	0.08457
3327.56972	0.08533
3326.28395	0.08619
3324.99819	0.08691
3323.71242	0.08719
3322.42665	0.08699
3321.14088	0.08655
3319.85511	0.08632
3318.56934	0.08655
3317.28357	0.08712
3315.99780	0.08763
3314.71204	0.08775
3313.42627	0.08753
3312.14050	0.08728
3310.85473	0.08719
3309.56896	0.08709
3308.28319	0.08671
3306.99742	0.08610
3305.71165	0.08569
3304.42588	0.08580
3303.14012	0.08632
3301.85435	0.08683
3300.56858	0.08704
3299.28281	0.08704
3297.99704	0.08712
3296.71127	0.08734
3295.42550	0.08749
3294.13973	0.08733
3292.85397	0.08698
3291.56820	0.08673
3290.28243	0.08667
3288.99666	0.08661
3287.71089	0.08644
3286.42512	0.08631
3285.13935	0.08636
3283.85358	0.08645
3282.56781	0.08636
3281.28205	0.08611
3279.99628	0.08588
3278.71051	0.08574
3277.42474	0.08566
3276.13897	0.08565
3274.85320	0.08584
3273.56743	0.08621
3272.28166	0.08658
3270.99590	0.08671
3269.71013	0.08642
3268.42436	0.08577
3267.13859	0.08508
3265.85282	0.08480
3264.56705	0.08510
3263.28128	0.08569
3261.99551	0.08609
3260.70974	0.08608
3259.42398	0.08578
3258.13821	0.08541
3256.85244	0.08507
3255.56667	0.08467
3254.28090	0.08417
3252.99513	0.08369
3251.70936	0.08347
3250.42359	0.08358
3249.13783	0.08379
3247.85206	0.08379
3246.56629	0.08354
3245.28052	0.08326
3243.99475	0.08318
3242.70898	0.08328
3241.42321	0.08329
3240.13744	0.08304
3238.85167	0.08259
3237.56591	0.08224
3236.28014	0.08214
3234.99437	0.08219
3233.70860	0.08217
3232.42283	0.08203
3231.13706	0.08200
3229.85129	0.08227
3228.56552	0.08281
3227.27976	0.08334
3225.99399	0.08356
3224.70822	0.08339
3223.42245	0.08297
3222.13668	0.08248
3220.85091	0.08199
3219.56514	0.08153
3218.27937	0.08117
3216.99360	0.08095
3215.70784	0.08088
3214.42207	0.08088
3213.13630	0.08086
3211.85053	0.08079
3210.56476	0.08069
3209.27899	0.08065
3207.99322	0.08073
3206.70745	0.08087
3205.42169	0.08101
3204.13592	0.08108
3202.85015	0.08100
3201.56438	0.08070
3200.27861	0.08022
3198.99284	0.07973
3197.70707	0.07940
3196.42130	0.07925
3195.13553	0.07922
3193.84977	0.07922
3192.56400	0.07921
3191.27823	0.07913
3189.99246	0.07900
3188.70669	0.07887
3187.42092	0.07876
3186.13515	0.07866
3184.84938	0.07852
3183.56362	0.07833
3182.27785	0.07814
3180.99208	0.07800
3179.70631	0.07787
3178.42054	0.07768
3177.13477	0.07743
3175.84900	0.07721
3174.56323	0.07711
3173.27746	0.07717
3171.99170	0.07728
3170.70593	0.07725
3169.42016	0.07689
3168.13439	0.07627
3166.84862	0.07572
3165.56285	0.07554
3164.27708	0.07569
3162.99131	0.07583
3161.70555	0.07568
3160.41978	0.07531
3159.13401	0.07501
3157.84824	0.07500
3156.56247	0.07521
3155.27670	0.07534
3153.99093	0.07516
3152.70516	0.07473
3151.41939	0.07429
3150.13363	0.07409
3148.84786	0.07414
3147.56209	0.07426
3146.27632	0.07426
3144.99055	0.07408
3143.70478	0.07377
3142.41901	0.07348
3141.13324	0.07333
3139.84748	0.07336
3138.56171	0.07351
3137.27594	0.07367
3135.99017	0.07370
3134.70440	0.07349
3133.41863	0.07299
3132.13286	0.07234
3130.84709	0.07180
3129.56132	0.07152
3128.27556	0.07141
3126.98979	0.07135
3125.70402	0.07131
3124.41825	0.07139
3123.13248	0.07156
3121.84671	0.07167
3120.56094	0.07155
3119.27517	0.07125
3117.98940	0.07099
3116.70364	0.07092
3115.41787	0.07107
3114.13210	0.07127
3112.84633	0.07132
3111.56056	0.07112
3110.27479	0.07078
3108.98902	0.07052
3107.70325	0.07043
3106.41749	0.07038
3105.13172	0.07024
3103.84595	0.07005
3102.56018	0.06998
3101.27441	0.07013
3099.98864	0.07047
3098.70287	0.07091
3097.41710	0.07127
3096.13133	0.07140
3094.84557	0.07125
3093.55980	0.07099
3092.27403	0.07087
3090.98826	0.07095
3089.70249	0.07104
3088.41672	0.07092
3087.13095	0.07053
3085.84518	0.07005
3084.55942	0.06971
3083.27365	0.06960
3081.98788	0.06968
3080.70211	0.06982
3079.41634	0.06986
3078.13057	0.06973
3076.84480	0.06947
3075.55903	0.06925
3074.27326	0.06920
3072.98750	0.06938
3071.70173	0.06970
3070.41596	0.06998
3069.13019	0.07008
3067.84442	0.06999
3066.55865	0.06980
3065.27288	0.06963
3063.98711	0.06948
3062.70135	0.06927
3061.41558	0.06900
3060.12981	0.06875
3058.84404	0.06857
3057.55827	0.06843
3056.27250	0.06823
3054.98673	0.06793
3053.70096	0.06763
3052.41519	0.06750
3051.12943	0.06758
3049.84366	0.06776
3048.55789	0.06785
3047.27212	0.06772
3045.98635	0.06736
3044.70058	0.06683
3043.41481	0.06633
3042.12904	0.06608
3040.84328	0.06615
3039.55751	0.06640
3038.27174	0.06668
3036.98597	0.06686
3035.70020	0.06695
3034.41443	0.06697
3033.12866	0.06695
3031.84289	0.06685
3030.55712	0.06667
3029.27136	0.06644
3027.98559	0.06627
3026.69982	0.06617
3025.41405	0.06601
3024.12828	0.06570
3022.84251	0.06536
3021.55674	0.06517
3020.27097	0.06513
3018.98521	0.06507
3017.69944	0.06485
3016.41367	0.06449
3015.12790	0.06411
3013.84213	0.06381
3012.55636	0.06366
3011.27059	0.06364
3009.98482	0.06373
3008.69905	0.06382
3007.41329	0.06382
3006.12752	0.06378
3004.84175	0.06374
3003.55598	0.06371
3002.27021	0.06362
3000.98444	0.06349
2999.69867	0.06344
2998.41290	0.06359
2997.12714	0.06382
2995.84137	0.06385
2994.55560	0.06357
2993.26983	0.06312
2991.98406	0.06280
2990.69829	0.06275
2989.41252	0.06294
2988.12675	0.06319
2986.84098	0.06341
2985.55522	0.06362
2984.26945	0.06383
2982.98368	0.06406
2981.69791	0.06436
2980.41214	0.06473
2979.12637	0.06506
2977.84060	0.06518
2976.55483	0.06509
2975.26907	0.06502
2973.98330	0.06519
2972.69753	0.06555
2971.41176	0.06595
2970.12599	0.06632
2968.84022	0.06671
2967.55445	0.06713
2966.26868	0.06756
2964.98291	0.06801
2963.69715	0.06851
2962.41138	0.06898
2961.12561	0.06932
2959.83984	0.06951
2958.55407	0.06971
2957.26830	0.07008
2955.98253	0.07058
2954.69676	0.07107
2953.41100	0.07141
2952.12523	0.07160
2950.83946	0.07164
2949.55369	0.07148
2948.26792	0.07109
2946.98215	0.07062
2945.69638	0.07029
2944.41061	0.07019
2943.12484	0.07019
2941.83908	0.07015
2940.55331	0.07007
2939.26754	0.07011
2937.98177	0.07041
2936.69600	0.07098
2935.41023	0.07174
2934.12446	0.07245
2932.83869	0.07282
2931.55293	0.07279
2930.26716	0.07261
2928.98139	0.07265
2927.69562	0.07303
2926.40985	0.07349
2925.12408	0.07364
2923.83831	0.07340
2922.55254	0.07297
2921.26677	0.07260
2919.98101	0.07232
2918.69524	0.07205
2917.40947	0.07180
2916.12370	0.07164
2914.83793	0.07150
2913.55216	0.07126
2912.26639	0.07087
2910.98062	0.07048
2909.69486	0.07019
2908.40909	0.06991
2907.12332	0.06948
2905.83755	0.06887
2904.55178	0.06826
2903.26601	0.06786
2901.98024	0.06772
2900.69447	0.06770
2899.40870	0.06760
2898.12294	0.06728
2896.83717	0.06684
2895.55140	0.06641
2894.26563	0.06611
2892.97986	0.06589
2891.69409	0.06570
2890.40832	0.06552
2889.12255	0.06531
2887.83678	0.06502
2886.55102	0.06463
2885.26525	0.06421
2883.97948	0.06389
2882.69371	0.06378
2881.40794	0.06391
2880.12217	0.06419
2878.83640	0.06448
2877.55063	0.06467
2876.26487	0.06473
2874.97910	0.06475
2873.69333	0.06484
2872.40756	0.06503
2871.12179	0.06524
2869.83602	0.06531
2868.55025	0.06524
2867.26448	0.06509
2865.97871	0.06490
2864.69295	0.06470
2863.40718	0.06451
2862.12141	0.06437
2860.83564	0.06431
2859.54987	0.06427
2858.26410	0.06417
2856.97833	0.06392
2855.69256	0.06355
2854.40680	0.06315
2853.12103	0.06283
2851.83526	0.06261
2850.54949	0.06243
2849.26372	0.06227
2847.97795	0.06210
2846.69218	0.06190
2845.40641	0.06160
2844.12064	0.06122
2842.83488	0.06079
2841.54911	0.06038
2840.26334	0.06000
2838.97757	0.05962
2837.69180	0.05920
2836.40603	0.05877
2835.12026	0.05838
2833.83449	0.05810
2832.54873	0.05788
2831.26296	0.05761
2829.97719	0.05720
2828.69142	0.05676
2827.40565	0.05642
2826.11988	0.05624
2824.83411	0.05617
2823.54834	0.05613
2822.26257	0.05604
2820.97681	0.05589
2819.69104	0.05568
2818.40527	0.05546
2817.11950	0.05530
2815.83373	0.05524
2814.54796	0.05518
2813.26219	0.05500
2811.97642	0.05467
2810.69066	0.05429
2809.40489	0.05400
2808.11912	0.05383
2806.83335	0.05377
2805.54758	0.05381
2804.26181	0.05390
2802.97604	0.05395
2801.69027	0.05387
2800.40450	0.05367
2799.11874	0.05343
2797.83297	0.05323
2796.54720	0.05305
2795.26143	0.05290
2793.97566	0.05279
2792.68989	0.05269
2791.40412	0.05255
2790.11835	0.05238
2788.83259	0.05226
2787.54682	0.05230
2786.26105	0.05244
2784.97528	0.05254
2783.68951	0.05249
2782.40374	0.05229
2781.11797	0.05210
2779.83220	0.05201
2778.54643	0.05195
2777.26067	0.05173
2775.97490	0.05132
2774.68913	0.05093
2773.40336	0.05076
2772.11759	0.05076
2770.83182	0.05074
2769.54605	0.05062
2768.26028	0.05049
2766.97452	0.05045
2765.68875	0.05045
2764.40298	0.05040
2763.11721	0.05026
2761.83144	0.05008
2760.54567	0.04995
2759.25990	0.04995
2757.97413	0.05009
2756.68836	0.05028
2755.40260	0.05034
2754.11683	0.05020
2752.83106	0.05000
2751.54529	0.04992
2750.25952	0.05009
2748.97375	0.05042
2747.68798	0.05065
2746.40221	0.05060
2745.11645	0.05029
2743.83068	0.04993
2742.54491	0.04964
2741.25914	0.04943
2739.97337	0.04927
2738.68760	0.04914
2737.40183	0.04907
2736.11606	0.04908
2734.83029	0.04919
2733.54453	0.04933
2732.25876	0.04932
2730.97299	0.04911
2729.68722	0.04884
2728.40145	0.04870
2727.11568	0.04867
2725.82991	0.04856
2724.54414	0.04829
2723.25838	0.04796
2721.97261	0.04776
2720.68684	0.04774
2719.40107	0.04782
2718.11530	0.04791
2716.82953	0.04795
2715.54376	0.04796
2714.25799	0.04796
2712.97222	0.04803
2711.68646	0.04818
2710.40069	0.04835
2709.11492	0.04845
2707.82915	0.04840
2706.54338	0.04819
2705.25761	0.04785
2703.97184	0.04745
2702.68607	0.04709
2701.40031	0.04687
2700.11454	0.04684
2698.82877	0.04692
2697.54300	0.04695
2696.25723	0.04682
2694.97146	0.04655
2693.68569	0.04631
2692.39992	0.04625
2691.11415	0.04638
2689.82839	0.04656
2688.54262	0.04662
2687.25685	0.04658
2685.97108	0.04653
2684.68531	0.04654
2683.39954	0.04654
2682.11377	0.04648
2680.82800	0.04637
2679.54224	0.04626
2678.25647	0.04616
2676.97070	0.04608
2675.68493	0.04607
2674.39916	0.04612
2673.11339	0.04615
2671.82762	0.04611
2670.54185	0.04605
2669.25608	0.04604
2667.97032	0.04612
2666.68455	0.04615
2665.39878	0.04603
2664.11301	0.04580
2662.82724	0.04564
2661.54147	0.04568
2660.25570	0.04587
2658.96993	0.04601
2657.68417	0.04593
2656.39840	0.04561
2655.11263	0.04513
2653.82686	0.04470
2652.54109	0.04445
2651.25532	0.04438
2649.96955	0.04436
2648.68378	0.04428
2647.39801	0.04416
2646.11225	0.04404
2644.82648	0.04396
2643.54071	0.04396
2642.25494	0.04403
2640.96917	0.04413
2639.68340	0.04415
2638.39763	0.04401
2637.11186	0.04371
2635.82609	0.04330
2634.54033	0.04288
2633.25456	0.04251
2631.96879	0.04222
2630.68302	0.04202
2629.39725	0.04188
2628.11148	0.04181
2626.82571	0.04179
2625.53994	0.04171
2624.25418	0.04148
2622.96841	0.04117
2621.68264	0.04095
2620.39687	0.04093
2619.11110	0.04099
2617.82533	0.04089
2616.53956	0.04051
2615.25379	0.03997
2613.96802	0.03951
2612.68226	0.03924
2611.39649	0.03905
2610.11072	0.03886
2608.82495	0.03876
2607.53918	0.03895
2606.25341	0.03937
2604.96764	0.03972
2603.68187	0.03973
2602.39611	0.03949
2601.11034	0.03924
2599.82457	0.03913
2598.53880	0.03910
2597.25303	0.03907
2595.96726	0.03904
2594.68149	0.03902
2593.39572	0.03894
2592.10995	0.03872
2590.82419	0.03842
2589.53842	0.03817
2588.25265	0.03803
2586.96688	0.03793
2585.68111	0.03778
2584.39534	0.03760
2583.10957	0.03749
2581.82380	0.03755
2580.53804	0.03775
2579.25227	0.03784
2577.96650	0.03762
2576.68073	0.03725
2575.39496	0.03705
2574.10919	0.03714
2572.82342	0.03734
2571.53765	0.03744
2570.25188	0.03734
2568.96612	0.03703
2567.68035	0.03655
2566.39458	0.03604
2565.10881	0.03573
2563.82304	0.03570
2562.53727	0.03585
2561.25150	0.03602
2559.96573	0.03614
2558.67997	0.03616
2557.39420	0.03604
2556.10843	0.03576
2554.82266	0.03547
2553.53689	0.03539
2552.25112	0.03561
2550.96535	0.03598
2549.67958	0.03633
2548.39381	0.03654
2547.10805	0.03655
2545.82228	0.03635
2544.53651	0.03600
2543.25074	0.03567
2541.96497	0.03552
2540.67920	0.03567
2539.39343	0.03609
2538.10766	0.03664
2536.82190	0.03709
2535.53613	0.03728
2534.25036	0.03717
2532.96459	0.03690
2531.67882	0.03663
2530.39305	0.03648
2529.10728	0.03642
2527.82151	0.03628
2526.53574	0.03595
2525.24998	0.03545
2523.96421	0.03495
2522.67844	0.03457
2521.39267	0.03443
2520.10690	0.03454
2518.82113	0.03485
2517.53536	0.03521
2516.24959	0.03544
2514.96383	0.03551
2513.67806	0.03546
2512.39229	0.03531
2511.10652	0.03510
2509.82075	0.03489
2508.53498	0.03475
2507.24921	0.03460
2505.96344	0.03433
2504.67767	0.03397
2503.39191	0.03370
2502.10614	0.03369
2500.82037	0.03390
2499.53460	0.03412
2498.24883	0.03414
2496.96306	0.03400
2495.67729	0.03390
2494.39152	0.03405
2493.10576	0.03445
2491.81999	0.03489
2490.53422	0.03514
2489.24845	0.03509
2487.96268	0.03476
2486.67691	0.03429
2485.39114	0.03389
2484.10537	0.03377
2482.81960	0.03393
2481.53384	0.03423
2480.24807	0.03442
2478.96230	0.03431
2477.67653	0.03394
2476.39076	0.03353
2475.10499	0.03334
2473.81922	0.03348
2472.53345	0.03377
2471.24769	0.03389
2469.96192	0.03371
2468.67615	0.03340
2467.39038	0.03327
2466.10461	0.03342
2464.81884	0.03370
2463.53307	0.03386
2462.24730	0.03380
2460.96153	0.03357
2459.67577	0.03324
2458.39000	0.03293
2457.10423	0.03280
2455.81846	0.03293
2454.53269	0.03321
2453.24692	0.03337
2451.96115	0.03334
2450.67538	0.03330
2449.38962	0.03351
2448.10385	0.03391
2446.81808	0.03426
2445.53231	0.03431
2444.24654	0.03397
2442.96077	0.03335
2441.67500	0.03275
2440.38923	0.03245
2439.10346	0.03251
2437.81770	0.03265
2436.53193	0.03259
2435.24616	0.03235
2433.96039	0.03220
2432.67462	0.03227
2431.38885	0.03243
2430.10308	0.03242
2428.81731	0.03223
2427.53155	0.03202
2426.24578	0.03191
2424.96001	0.03187
2423.67424	0.03185
2422.38847	0.03193
2421.10270	0.03220
2419.81693	0.03263
2418.53116	0.03303
2417.24539	0.03324
2415.95963	0.03332
2414.67386	0.03334
2413.38809	0.03327
2412.10232	0.03304
2410.81655	0.03270
2409.53078	0.03238
2408.24501	0.03215
2406.95924	0.03199
2405.67347	0.03188
2404.38771	0.03184
2403.10194	0.03189
2401.81617	0.03201
2400.53040	0.03212
2399.24463	0.03206
2397.95886	0.03187
2396.67309	0.03165
2395.38732	0.03145
2394.10156	0.03130
2392.81579	0.03124
2391.53002	0.03134
2390.24425	0.03166
2388.95848	0.03206
2387.67271	0.03233
2386.38694	0.03242
2385.10117	0.03243
2383.81540	0.03247
2382.52964	0.03256
2381.24387	0.03265
2379.95810	0.03271
2378.67233	0.03278
2377.38656	0.03279
2376.10079	0.03264
2374.81502	0.03242
2373.52925	0.03212
2372.24349	0.03180
2370.95772	0.03152
2369.67195	0.03155
2368.38618	0.03179
2367.10041	0.03201
2365.81464	0.03200
2364.52887	0.03204
2363.24310	0.03217
2361.95733	0.03218
2360.67157	0.03175
2359.38580	0.03150
2358.10003	0.03180
2356.81426	0.03245
2355.52849	0.03311
2354.24272	0.03361
2352.95695	0.03372
2351.67118	0.03317
2350.38542	0.03250
2349.09965	0.03257
2347.81388	0.03318
2346.52811	0.03297
2345.24234	0.03228
2343.95657	0.03272
2342.67080	0.03399
2341.38503	0.03352
2340.09926	0.03150
2338.81350	0.03169
2337.52773	0.03396
2336.24196	0.03336
2334.95619	0.03072
2333.67042	0.03122
2332.38465	0.03357
2331.09888	0.03269
2329.81311	0.03160
2328.52735	0.03355
2327.24158	0.03344
2325.95581	0.03209
2324.67004	0.03336
2323.38427	0.03391
2322.09850	0.03277
2320.81273	0.03326
2319.52696	0.03297
2318.24119	0.03195
2316.95543	0.03227
2315.66966	0.03210
2314.38389	0.03164
2313.09812	0.03179
2311.81235	0.03133
2310.52658	0.03100
2309.24081	0.03088
2307.95504	0.03069
2306.66928	0.03092
2305.38351	0.03097
2304.09774	0.03083
2302.81197	0.03061
2301.52620	0.03021
2300.24043	0.02997
2298.95466	0.02982
2297.66889	0.02979
2296.38312	0.02977
2295.09736	0.02967
2293.81159	0.02966
2292.52582	0.02982
2291.24005	0.03012
2289.95428	0.03025
2288.66851	0.03008
2287.38274	0.02977
2286.09697	0.02959
2284.81121	0.02957
2283.52544	0.02948
2282.23967	0.02910
2280.95390	0.02853
2279.66813	0.02806
2278.38236	0.02785
2277.09659	0.02784
2275.81082	0.02784
2274.52505	0.02776
2273.23929	0.02764
2271.95352	0.02747
2270.66775	0.02720
2269.38198	0.02684
2268.09621	0.02649
2266.81044	0.02625
2265.52467	0.02612
2264.23890	0.02608
2262.95314	0.02602
2261.66737	0.02586
2260.38160	0.02566
2259.09583	0.02552
2257.81006	0.02551
2256.52429	0.02571
2255.23852	0.02612
2253.95275	0.02655
2252.66698	0.02678
2251.38122	0.02679
2250.09545	0.02664
2248.80968	0.02635
2247.52391	0.02573
2246.23814	0.02494
2244.95237	0.02434
2243.66660	0.02423
2242.38083	0.02455
2241.09507	0.02485
2239.80930	0.02480
2238.52353	0.02446
2237.23776	0.02410
2235.95199	0.02366
2234.66622	0.02292
2233.38045	0.02194
2232.09468	0.02130
2230.80891	0.02145
2229.52315	0.02218
2228.23738	0.02275
2226.95161	0.02265
2225.66584	0.02200
2224.38007	0.02133
2223.09430	0.02099
2221.80853	0.02094
2220.52276	0.02098
2219.23700	0.02105
2217.95123	0.02129
2216.66546	0.02177
2215.37969	0.02233
2214.09392	0.02273
2212.80815	0.02277
2211.52238	0.02238
2210.23661	0.02167
2208.95084	0.02096
2207.66508	0.02060
2206.37931	0.02077
2205.09354	0.02130
2203.80777	0.02174
2202.52200	0.02170
2201.23623	0.02119
2199.95046	0.02050
2198.66469	0.01993
2197.37893	0.01953
2196.09316	0.01919
2194.80739	0.01883
2193.52162	0.01848
2192.23585	0.01822
2190.95008	0.01798
2189.66431	0.01754
2188.37854	0.01690
2187.09277	0.01645
2185.80701	0.01649
2184.52124	0.01679
2183.23547	0.01685
2181.94970	0.01661
2180.66393	0.01651
2179.37816	0.01686
2178.09239	0.01748
2176.80662	0.01802
2175.52085	0.01823
2174.23509	0.01801
2172.94932	0.01734
2171.66355	0.01625
2170.37778	0.01490
2169.09201	0.01349
2167.80624	0.01215
2166.52047	0.01083
2165.23470	0.00965
2163.94894	0.00905
2162.66317	0.00924
2161.37740	0.00974
2160.09163	0.00971
2158.80586	0.00903
2157.52009	0.00837
2156.23432	0.00827
2154.94855	0.00865
2153.66278	0.00938
2152.37702	0.01055
2151.09125	0.01212
2149.80548	0.01367
2148.51971	0.01466
2147.23394	0.01488
2145.94817	0.01469
2144.66240	0.01464
2143.37663	0.01497
2142.09087	0.01560
2140.80510	0.01635
2139.51933	0.01705
2138.23356	0.01752
2136.94779	0.01749
2135.66202	0.01689
2134.37625	0.01607
2133.09048	0.01567
2131.80471	0.01602
2130.51895	0.01680
2129.23318	0.01737
2127.94741	0.01743
2126.66164	0.01727
2125.37587	0.01737
2124.09010	0.01785
2122.80433	0.01846
2121.51856	0.01902
2120.23280	0.01958
2118.94703	0.02020
2117.66126	0.02074
2116.37549	0.02085
2115.08972	0.02038
2113.80395	0.01950
2112.51818	0.01866
2111.23241	0.01818
2109.94664	0.01811
2108.66088	0.01817
2107.37511	0.01804
2106.08934	0.01755
2104.80357	0.01685
2103.51780	0.01638
2102.23203	0.01650
2100.94626	0.01726
2099.66049	0.01909
2098.37473	0.01998
2097.08896	0.01972
2095.80319	0.01892
2094.51742	0.01821
2093.23165	0.01796
2091.94588	0.01815
2090.66011	0.01841
2089.37434	0.01841
2088.08857	0.01813
2086.80281	0.01782
2085.51704	0.01781
2084.23127	0.01816
2082.94550	0.01870
2081.65973	0.01915
2080.37396	0.01930
2079.08819	0.01902
2077.80242	0.01840
2076.51666	0.01772
2075.23089	0.01722
2073.94512	0.01695
2072.65935	0.01682
2071.37358	0.01692
2070.08781	0.01745
2068.80204	0.01839
2067.51627	0.01935
2066.23050	0.01977
2064.94474	0.01940
2063.65897	0.01844
2062.37320	0.01730
2061.08743	0.01634
2059.80166	0.01569
2058.51589	0.01526
2057.23012	0.01490
2055.94435	0.01457
2054.65859	0.01443
2053.37282	0.01460
2052.08705	0.01483
2050.80128	0.01456
2049.51551	0.01364
2048.22974	0.01263
2046.94397	0.01233
2045.65820	0.01283
2044.37243	0.01357
2043.08667	0.01402
2041.80090	0.01410
2040.51513	0.01393
2039.22936	0.01355
2037.94359	0.01299
2036.65782	0.01237
2035.37205	0.01173
2034.08628	0.01105
2032.80052	0.01037
2031.51475	0.00982
2030.22898	0.00952
2028.94321	0.00942
2027.65744	0.00942
2026.37167	0.00951
2025.08590	0.00977
2023.80013	0.01014
2022.51436	0.01033
2021.22860	0.01012
2019.94283	0.00966
2018.65706	0.00933
2017.37129	0.00938
2016.08552	0.00975
2014.79975	0.01029
2013.51398	0.01092
2012.22821	0.01153
2010.94245	0.01196
2009.65668	0.01226
2008.37091	0.01267
2007.08514	0.01338
2005.79937	0.01431
2004.51360	0.01513
2003.22783	0.01558
2001.94206	0.01558
2000.65629	0.01531
1999.37053	0.01507
1998.08476	0.01505
1996.79899	0.01518
1995.51322	0.01534
1994.22745	0.01551
1992.94168	0.01570
1991.65591	0.01580
1990.37014	0.01569
1989.08438	0.01537
1987.79861	0.01501
1986.51284	0.01470
1985.22707	0.01454
1983.94130	0.01461
1982.65553	0.01497
1981.36976	0.01543
1980.08399	0.01569
1978.79822	0.01570
1977.51246	0.01564
1976.22669	0.01554
1974.94092	0.01511
1973.65515	0.01418
1972.36938	0.01307
1971.08361	0.01244
1969.79784	0.01257
1968.51207	0.01322
1967.22631	0.01395
1965.94054	0.01440
1964.65477	0.01434
1963.36900	0.01370
1962.08323	0.01265
1960.79746	0.01164
1959.51169	0.01108
1958.22592	0.01116
1956.94015	0.01174
1955.65439	0.01256
1954.36862	0.01346
1953.08285	0.01432
1951.79708	0.01506
1950.51131	0.01562
1949.22554	0.01600
1947.93977	0.01624
1946.65400	0.01642
1945.36823	0.01664
1944.08247	0.01700
1942.79670	0.01746
1941.51093	0.01787
1940.22516	0.01796
1938.93939	0.01760
1937.65362	0.01700
1936.36785	0.01653
1935.08208	0.01649
1933.79632	0.01682
1932.51055	0.01728
1931.22478	0.01766
1929.93901	0.01785
1928.65324	0.01781
1927.36747	0.01753
1926.08170	0.01708
1924.79593	0.01664
1923.51016	0.01645
1922.22440	0.01660
1920.93863	0.01696
1919.65286	0.01723
1918.36709	0.01730
1917.08132	0.01732
1915.79555	0.01749
1914.50978	0.01780
1913.22401	0.01808
1911.93825	0.01818
1910.65248	0.01812
1909.36671	0.01803
1908.08094	0.01802
1906.79517	0.01809
1905.50940	0.01824
1904.22363	0.01853
1902.93786	0.01890
1901.65209	0.01919
1900.36633	0.01924
1899.08056	0.01907
1897.79479	0.01886
1896.50902	0.01873
1895.22325	0.01869
1893.93748	0.01873
1892.65171	0.01881
1891.36594	0.01889
1890.08018	0.01894
1888.79441	0.01895
1887.50864	0.01892
1886.22287	0.01877
1884.93710	0.01847
1883.65133	0.01809
1882.36556	0.01779
1881.07979	0.01768
1879.79402	0.01777
1878.50826	0.01797
1877.22249	0.01814
1875.93672	0.01825
1874.65095	0.01829
1873.36518	0.01831
1872.07941	0.01834
1870.79364	0.01836
1869.50787	0.01838
1868.22211	0.01843
1866.93634	0.01848
1865.65057	0.01849
1864.36480	0.01850
1863.07903	0.01858
1861.79326	0.01871
1860.50749	0.01881
1859.22172	0.01880
1857.93595	0.01869
1856.65019	0.01854
1855.36442	0.01841
1854.07865	0.01831
1852.79288	0.01820
1851.50711	0.01806
1850.22134	0.01792
1848.93557	0.01789
1847.64980	0.01800
1846.36404	0.01815
1845.07827	0.01827
1843.79250	0.01839
1842.50673	0.01850
1841.22096	0.01854
1839.93519	0.01847
1838.64942	0.01836
1837.36365	0.01826
1836.07788	0.01816
1834.79212	0.01810
1833.50635	0.01815
1832.22058	0.01833
1830.93481	0.01860
1829.64904	0.01886
1828.36327	0.01902
1827.07750	0.01900
1825.79173	0.01890
1824.50597	0.01889
1823.22020	0.01902
1821.93443	0.01917
1820.64866	0.01925
1819.36289	0.01920
1818.07712	0.01900
1816.79135	0.01871
1815.50558	0.01845
1814.21981	0.01831
1812.93405	0.01830
1811.64828	0.01835
1810.36251	0.01838
1809.07674	0.01834
1807.79097	0.01826
1806.50520	0.01820
1805.21943	0.01817
1803.93366	0.01816
1802.64790	0.01813
1801.36213	0.01807
1800.07636	0.01802
1798.79059	0.01804
1797.50482	0.01818
1796.21905	0.01846
1794.93328	0.01877
1793.64751	0.01896
1792.36174	0.01905
1791.07598	0.01909
1789.79021	0.01908
1788.50444	0.01897
1787.21867	0.01880
1785.93290	0.01869
1784.64713	0.01871
1783.36136	0.01885
1782.07559	0.01897
1780.78983	0.01897
1779.50406	0.01886
1778.21829	0.01874
1776.93252	0.01871
1775.64675	0.01879
1774.36098	0.01889
1773.07521	0.01900
1771.78944	0.01913
1770.50367	0.01922
1769.21791	0.01916
1767.93214	0.01901
1766.64637	0.01893
1765.36060	0.01891
1764.07483	0.01885
1762.78906	0.01874
1761.50329	0.01865
1760.21752	0.01859
1758.93176	0.01849
1757.64599	0.01835
1756.36022	0.01834
1755.07445	0.01852
1753.78868	0.01875
1752.50291	0.01888
1751.21714	0.01892
1749.93137	0.01890
1748.64560	0.01880
1747.35984	0.01864
1746.07407	0.01848
1744.78830	0.01839
1743.50253	0.01838
1742.21676	0.01840
1740.93099	0.01840
1739.64522	0.01845
1738.35945	0.01862
1737.07369	0.01880
1735.78792	0.01882
1734.50215	0.01879
1733.21638	0.01887
1731.93061	0.01899
1730.64484	0.01896
1729.35907	0.01886
1728.07330	0.01886
1726.78753	0.01899
1725.50177	0.01911
1724.21600	0.01920
1722.93023	0.01935
1721.64446	0.01965
1720.35869	0.02000
1719.07292	0.02028
1717.78715	0.02054
1716.50138	0.02082
1715.21561	0.02108
1713.92985	0.02125
1712.64408	0.02141
1711.35831	0.02165
1710.07254	0.02204
1708.78677	0.02257
1707.50100	0.02324
1706.21523	0.02407
1704.92946	0.02512
1703.64370	0.02629
1702.35793	0.02736
1701.07216	0.02837
1699.78639	0.02958
1698.50062	0.03087
1697.21485	0.03193
1695.92908	0.03283
1694.64331	0.03390
1693.35754	0.03510
1692.07178	0.03623
1690.78601	0.03734
1689.50024	0.03866
1688.21447	0.04015
1686.92870	0.04152
1685.64293	0.04269
1684.35716	0.04384
1683.07139	0.04510
1681.78563	0.04628
1680.49986	0.04731
1679.21409	0.04838
1677.92832	0.04957
1676.64255	0.05078
1675.35678	0.05202
1674.07101	0.05334
1672.78524	0.05465
1671.49947	0.05583
1670.21371	0.05690
1668.92794	0.05798
1667.64217	0.05911
1666.35640	0.06025
1665.07063	0.06134
1663.78486	0.06241
1662.49909	0.06349
1661.21332	0.06453
1659.92756	0.06552
1658.64179	0.06657
1657.35602	0.06782
1656.07025	0.06911
1654.78448	0.07014
1653.49871	0.07094
1652.21294	0.07174
1650.92717	0.07252
1649.64140	0.07300
1648.35564	0.07315
1647.06987	0.07326
1645.78410	0.07350
1644.49833	0.07376
1643.21256	0.07386
1641.92679	0.07379
1640.64102	0.07368
1639.35525	0.07359
1638.06949	0.07341
1636.78372	0.07304
1635.49795	0.07250
1634.21218	0.07185
1632.92641	0.07104
1631.64064	0.07005
1630.35487	0.06900
1629.06910	0.06798
1627.78333	0.06700
1626.49757	0.06596
1625.21180	0.06480
1623.92603	0.06355
1622.64026	0.06231
1621.35449	0.06117
1620.06872	0.06003
1618.78295	0.05879
1617.49718	0.05747
1616.21142	0.05623
1614.92565	0.05507
1613.63988	0.05387
1612.35411	0.05262
1611.06834	0.05147
1609.78257	0.05050
1608.49680	0.04966
1607.21103	0.04890
1605.92526	0.04819
1604.63950	0.04754
1603.35373	0.04696
1602.06796	0.04647
1600.78219	0.04606
1599.49642	0.04568
1598.21065	0.04534
1596.92488	0.04505
1595.63911	0.04485
1594.35335	0.04475
1593.06758	0.04475
1591.78181	0.04479
1590.49604	0.04484
1589.21027	0.04490
1587.92450	0.04497
1586.63873	0.04511
1585.35296	0.04529
1584.06719	0.04551
1582.78143	0.04577
1581.49566	0.04619
1580.20989	0.04680
1578.92412	0.04750
1577.63835	0.04812
1576.35258	0.04867
1575.06681	0.04926
1573.78104	0.04984
1572.49528	0.05030
1571.20951	0.05071
1569.92374	0.05122
1568.63797	0.05185
1567.35220	0.05243
1566.06643	0.05290
1564.78066	0.05343
1563.49489	0.05418
1562.20912	0.05503
1560.92336	0.05577
1559.63759	0.05642
1558.35182	0.05710
1557.06605	0.05772
1555.78028	0.05805
1554.49451	0.05820
1553.20874	0.05841
1551.92297	0.05876
1550.63721	0.05913
1549.35144	0.05953
1548.06567	0.05993
1546.77990	0.06029
1545.49413	0.06063
1544.20836	0.06105
1542.92259	0.06147
1541.63682	0.06174
1540.35105	0.06179
1539.06529	0.06174
1537.77952	0.06169
1536.49375	0.06155
1535.20798	0.06131
1533.92221	0.06113
1532.63644	0.06112
1531.35067	0.06115
1530.06490	0.06111
1528.77914	0.06103
1527.49337	0.06104
1526.20760	0.06120
1524.92183	0.06146
1523.63606	0.06165
1522.35029	0.06169
1521.06452	0.06171
1519.77875	0.06180
1518.49298	0.06186
1517.20722	0.06182
1515.92145	0.06181
1514.63568	0.06187
1513.34991	0.06200
1512.06414	0.06228
1510.77837	0.06274
1509.49260	0.06325
1508.20683	0.06362
1506.92107	0.06385
1505.63530	0.06408
1504.34953	0.06428
1503.06376	0.06431
1501.77799	0.06424
1500.49222	0.06426
1499.20645	0.06441
1497.92068	0.06455
1496.63491	0.06459
1495.34915	0.06457
1494.06338	0.06449
1492.77761	0.06436
1491.49184	0.06423
1490.20607	0.06424
1488.92030	0.06439
1487.63453	0.06465
1486.34876	0.06498
1485.06299	0.06541
1483.77723	0.06593
1482.49146	0.06654
1481.20569	0.06725
1479.91992	0.06806
1478.63415	0.06899
1477.34838	0.07005
1476.06261	0.07121
1474.77684	0.07238
1473.49108	0.07345
1472.20531	0.07440
1470.91954	0.07526
1469.63377	0.07599
1468.34800	0.07662
1467.06223	0.07719
1465.77646	0.07776
1464.49069	0.07840
1463.20492	0.07916
1461.91916	0.08001
1460.63339	0.08092
1459.34762	0.08182
1458.06185	0.08270
1456.77608	0.08363
1455.49031	0.08457
1454.20454	0.08530
1452.91877	0.08571
1451.63301	0.08594
1450.34724	0.08610
1449.06147	0.08620
1447.77570	0.08618
1446.48993	0.08602
1445.20416	0.08569
1443.91839	0.08518
1442.63262	0.08459
1441.34685	0.08401
1440.06109	0.08346
1438.77532	0.08289
1437.48955	0.08235
1436.20378	0.08196
1434.91801	0.08173
1433.63224	0.08157
1432.34647	0.08145
1431.06070	0.08152
1429.77494	0.08190
1428.48917	0.08256
1427.20340	0.08341
1425.91763	0.08432
1424.63186	0.08526
1423.34609	0.08629
1422.06032	0.08735
1420.77455	0.08838
1419.48878	0.08937
1418.20302	0.09032
1416.91725	0.09114
1415.63148	0.09176
1414.34571	0.09221
1413.05994	0.09258
1411.77417	0.09289
1410.48840	0.09308
1409.20263	0.09309
1407.91687	0.09287
1406.63110	0.09243
1405.34533	0.09180
1404.05956	0.09103
1402.77379	0.09011
1401.48802	0.08902
1400.20225	0.08780
1398.91648	0.08651
1397.63071	0.08518
1396.34495	0.08379
1395.05918	0.08231
1393.77341	0.08081
1392.48764	0.07930
1391.20187	0.07775
1389.91610	0.07618
1388.63033	0.07465
1387.34456	0.07318
1386.05880	0.07174
1384.77303	0.07028
1383.48726	0.06879
1382.20149	0.06731
1380.91572	0.06592
1379.62995	0.06459
1378.34418	0.06328
1377.05841	0.06194
1375.77264	0.06051
1374.48688	0.05900
1373.20111	0.05747
1371.91534	0.05598
1370.62957	0.05456
1369.34380	0.05322
1368.05803	0.05197
1366.77226	0.05079
1365.48649	0.04967
1364.20073	0.04858
1362.91496	0.04751
1361.62919	0.04644
1360.34342	0.04541
1359.05765	0.04444
1357.77188	0.04361
1356.48611	0.04296
1355.20034	0.04246
1353.91457	0.04202
1352.62881	0.04157
1351.34304	0.04109
1350.05727	0.04062
1348.77150	0.04022
1347.48573	0.03991
1346.19996	0.03964
1344.91419	0.03937
1343.62842	0.03910
1342.34266	0.03884
1341.05689	0.03860
1339.77112	0.03838
1338.48535	0.03816
1337.19958	0.03796
1335.91381	0.03777
1334.62804	0.03757
1333.34227	0.03733
1332.05650	0.03704
1330.77074	0.03671
1329.48497	0.03637
1328.19920	0.03604
1326.91343	0.03574
1325.62766	0.03548
1324.34189	0.03524
1323.05612	0.03502
1321.77035	0.03480
1320.48459	0.03460
1319.19882	0.03443
1317.91305	0.03424
1316.62728	0.03401
1315.34151	0.03374
1314.05574	0.03347
1312.76997	0.03322
1311.48420	0.03297
1310.19843	0.03269
1308.91267	0.03239
1307.62690	0.03208
1306.34113	0.03177
1305.05536	0.03150
1303.76959	0.03130
1302.48382	0.03117
1301.19805	0.03111
1299.91228	0.03105
1298.62652	0.03091
1297.34075	0.03068
1296.05498	0.03040
1294.76921	0.03017
1293.48344	0.03003
1292.19767	0.02996
1290.91190	0.02993
1289.62613	0.02991
1288.34036	0.02992
1287.05460	0.02997
1285.76883	0.03003
1284.48306	0.03009
1283.19729	0.03011
1281.91152	0.03008
1280.62575	0.03000
1279.33998	0.02988
1278.05421	0.02972
1276.76845	0.02955
1275.48268	0.02940
1274.19691	0.02928
1272.91114	0.02919
1271.62537	0.02910
1270.33960	0.02900
1269.05383	0.02886
1267.76806	0.02873
1266.48229	0.02861
1265.19653	0.02852
1263.91076	0.02847
1262.62499	0.02844
1261.33922	0.02844
1260.05345	0.02844
1258.76768	0.02841
1257.48191	0.02835
1256.19614	0.02830
1254.91037	0.02830
1253.62461	0.02836
1252.33884	0.02847
1251.05307	0.02858
1249.76730	0.02865
1248.48153	0.02867
1247.19576	0.02863
1245.90999	0.02857
1244.62422	0.02851
1243.33846	0.02845
1242.05269	0.02839
1240.76692	0.02831
1239.48115	0.02819
1238.19538	0.02805
1236.90961	0.02789
1235.62384	0.02772
1234.33807	0.02752
1233.05230	0.02728
1231.76654	0.02702
1230.48077	0.02676
1229.19500	0.02652
1227.90923	0.02630
1226.62346	0.02607
1225.33769	0.02583
1224.05192	0.02556
1222.76615	0.02526
1221.48039	0.02491
1220.19462	0.02454
1218.90885	0.02415
1217.62308	0.02379
1216.33731	0.02350
1215.05154	0.02329
1213.76577	0.02313
1212.48000	0.02298
1211.19423	0.02283
1209.90847	0.02272
1208.62270	0.02265
1207.33693	0.02263
1206.05116	0.02265
1204.76539	0.02268
1203.47962	0.02269
1202.19385	0.02265
1200.90808	0.02251
1199.62232	0.02225
1198.33655	0.02210
1197.05078	0.02193
1195.76501	0.02176
1194.47924	0.02161
1193.19347	0.02147
1191.90770	0.02129
1190.62193	0.02105
1189.33616	0.02078
1188.05040	0.02052
1186.76463	0.02028
1185.47886	0.02010
1184.19309	0.02002
1182.90732	0.02001
1181.62155	0.02003
1180.33578	0.02001
1179.05001	0.01995
1177.76425	0.01985
1176.47848	0.01975
1175.19271	0.01969
1173.90694	0.01967
1172.62117	0.01967
1171.33540	0.01971
1170.04963	0.01979
1168.76386	0.01992
1167.47809	0.02006
1166.19233	0.02020
1164.90656	0.02030
1163.62079	0.02038
1162.33502	0.02046
1161.04925	0.02057
1159.76348	0.02068
1158.47771	0.02078
1157.19194	0.02088
1155.90618	0.02102
1154.62041	0.02119
1153.33464	0.02134
1152.04887	0.02146
1150.76310	0.02159
1149.47733	0.02178
1148.19156	0.02207
1146.90579	0.02241
1145.62002	0.02278
1144.33426	0.02315
1143.04849	0.02353
1141.76272	0.02398
1140.47695	0.02457
1139.19118	0.02532
1137.90541	0.02618
1136.61964	0.02710
1135.33387	0.02809
1134.04811	0.02920
1132.76234	0.03047
1131.47657	0.03188
1130.19080	0.03339
1128.90503	0.03503
1127.61926	0.03685
1126.33349	0.03890
1125.04772	0.04118
1123.76195	0.04370
1122.47619	0.04639
1121.19042	0.04916
1119.90465	0.05199
1118.61888	0.05493
1117.33311	0.05802
1116.04734	0.06122
1114.76157	0.06441
1113.47580	0.06749
1112.19004	0.07044
1110.90427	0.07329
1109.61850	0.07610
1108.33273	0.07890
1107.04696	0.08168
1105.76119	0.08440
1104.47542	0.08699
1103.18965	0.08943
1101.90388	0.09172
1100.61812	0.09389
1099.33235	0.09600
1098.04658	0.09807
1096.76081	0.10010
1095.47504	0.10204
1094.18927	0.10384
1092.90350	0.10549
1091.61773	0.10703
1090.33197	0.10849
1089.04620	0.10984
1087.76043	0.11107
1086.47466	0.11226
1085.18889	0.11347
1083.90312	0.11474
1082.61735	0.11609
1081.33158	0.11759
1080.04581	0.11927
1078.76005	0.12117
1077.47428	0.12325
1076.18851	0.12547
1074.90274	0.12779
1073.61697	0.13020
1072.33120	0.13273
1071.04543	0.13539
1069.75966	0.13816
1068.47390	0.14099
1067.18813	0.14387
1065.90236	0.14680
1064.61659	0.14978
1063.33082	0.15281
1062.04505	0.15588
1060.75928	0.15901
1059.47351	0.16218
1058.18774	0.16531
1056.90198	0.16836
1055.61621	0.17134
1054.33044	0.17431
1053.04467	0.17731
1051.75890	0.18033
1050.47313	0.18337
1049.18736	0.18643
1047.90159	0.18955
1046.61583	0.19276
1045.33006	0.19605
1044.04429	0.19937
1042.75852	0.20262
1041.47275	0.20576
1040.18698	0.20880
1038.90121	0.21185
1037.61544	0.21503
1036.32967	0.21833
1035.04391	0.22164
1033.75814	0.22483
1032.47237	0.22775
1031.18660	0.23037
1029.90083	0.23272
1028.61506	0.23487
1027.32929	0.23684
1026.04352	0.23861
1024.75775	0.24009
1023.47199	0.24124
1022.18622	0.24200
1020.90045	0.24236
1019.61468	0.24234
1018.32891	0.24195
1017.04314	0.24117
1015.75737	0.23996
1014.47160	0.23834
1013.18584	0.23641
1011.90007	0.23419
1010.61430	0.23166
1009.32853	0.22877
1008.04276	0.22551
1006.75699	0.22190
1005.47122	0.21797
1004.18545	0.21369
1002.89968	0.20905
1001.61392	0.20412
1000.32815	0.19899
999.04238	0.19375
997.75661	0.18850
996.47084	0.18326
995.18507	0.17801
993.89930	0.17276
992.61353	0.16753
991.32777	0.16235
990.04200	0.15724
988.75623	0.15224
987.47046	0.14741
986.18469	0.14280
984.89892	0.13838
983.61315	0.13406
982.32738	0.12979
981.04161	0.12564
979.75585	0.12171
978.47008	0.11810
977.18431	0.11483
975.89854	0.11188
974.61277	0.10923
973.32700	0.10682
972.04123	0.10470
970.75546	0.10300
969.46970	0.10190
968.18393	0.10149
966.89816	0.10171
965.61239	0.10234
964.32662	0.10312
963.04085	0.10382
961.75508	0.10425
960.46931	0.10425
959.18354	0.10370
957.89778	0.10258
956.61201	0.10098
955.32624	0.09906
954.04047	0.09693
952.75470	0.09467
951.46893	0.09240
950.18316	0.09022
948.89739	0.08818
947.61163	0.08623
946.32586	0.08432
945.04009	0.08244
943.75432	0.08065
942.46855	0.07892
941.18278	0.07719
939.89701	0.07544
938.61124	0.07374
937.32547	0.07214
936.03971	0.07066
934.75394	0.06933
933.46817	0.06815
932.18240	0.06712
930.89663	0.06616
929.61086	0.06518
928.32509	0.06418
927.03932	0.06319
925.75356	0.06228
924.46779	0.06145
923.18202	0.06063
921.89625	0.05979
920.61048	0.05897
919.32471	0.05822
918.03894	0.05757
916.75317	0.05698
915.46740	0.05637
914.18164	0.05569
912.89587	0.05499
911.61010	0.05432
910.32433	0.05368
909.03856	0.05304
907.75279	0.05242
906.46702	0.05189
905.18125	0.05149
903.89549	0.05115
902.60972	0.05076
901.32395	0.05029
900.03818	0.04983
898.75241	0.04943
897.46664	0.04908
896.18087	0.04871
894.89510	0.04829
893.60933	0.04788
892.32357	0.04761
891.03780	0.04749
889.75203	0.04745
888.46626	0.04746
887.18049	0.04762
885.89472	0.04813
884.60895	0.04924
883.32318	0.05107
882.03742	0.05344
880.75165	0.05586
879.46588	0.05783
878.18011	0.05916
876.89434	0.06005
875.60857	0.06087
874.32280	0.06183
873.03703	0.06272
871.75126	0.06318
870.46550	0.06295
869.17973	0.06203
867.89396	0.06064
866.60819	0.05901
865.32242	0.05733
864.03665	0.05575
862.75088	0.05433
861.46511	0.05305
860.17935	0.05186
858.89358	0.05071
857.60781	0.04960
856.32204	0.04858
855.03627	0.04768
853.75050	0.04688
852.46473	0.04618
851.17896	0.04562
849.89319	0.04519
848.60743	0.04483
847.32166	0.04445
846.03589	0.04407
844.75012	0.04373
843.46435	0.04346
842.17858	0.04322
840.89281	0.04292
839.60704	0.04253
838.32128	0.04211
837.03551	0.04173
835.74974	0.04144
834.46397	0.04122
833.17820	0.04101
831.89243	0.04076
830.60666	0.04051
829.32089	0.04029
828.03512	0.04010
826.74936	0.03992
825.46359	0.03976
824.17782	0.03963
822.89205	0.03954
821.60628	0.03947
820.32051	0.03938
819.03474	0.03926
817.74897	0.03914
816.46321	0.03905
815.17744	0.03898
813.89167	0.03887
812.60590	0.03870
811.32013	0.03852
810.03436	0.03839
808.74859	0.03833
807.46282	0.03828
806.17705	0.03816
804.89129	0.03800
803.60552	0.03786
802.31975	0.03781
801.03398	0.03785
799.74821	0.03794
798.46244	0.03798
797.17667	0.03794
795.89090	0.03786
794.60513	0.03781
793.31937	0.03782
792.03360	0.03784
790.74783	0.03782
789.46206	0.03777
788.17629	0.03775
786.89052	0.03778
785.60475	0.03782
784.31898	0.03783
783.03322	0.03777
781.74745	0.03763
780.46168	0.03745
779.17591	0.03730
777.89014	0.03721
776.60437	0.03720
775.31860	0.03721
774.03283	0.03723
772.74706	0.03724
771.46130	0.03720
770.17553	0.03714
768.88976	0.03710
767.60399	0.03712
766.31822	0.03721
765.03245	0.03734
763.74668	0.03743
762.46091	0.03742
761.17515	0.03729
759.88938	0.03709
758.60361	0.03695
757.31784	0.03699
756.03207	0.03719
754.74630	0.03744
753.46053	0.03757
752.17476	0.03753
750.88899	0.03738
749.60323	0.03725
748.31746	0.03725
747.03169	0.03738
745.74592	0.03753
744.46015	0.03755
743.17438	0.03744
741.88861	0.03731
740.60284	0.03723
739.31708	0.03718
738.03131	0.03716
736.74554	0.03723
735.45977	0.03734
734.17400	0.03741
732.88823	0.03739
731.60246	0.03737
730.31669	0.03742
729.03092	0.03751
727.74516	0.03756
726.45939	0.03754
725.17362	0.03748
723.88785	0.03737
722.60208	0.03731
721.31631	0.03730
720.03054	0.03736
718.74477	0.03745
717.45901	0.03753
716.17324	0.03753
714.88747	0.03749
713.60170	0.03744
712.31593	0.03745
711.03016	0.03749
709.74439	0.03754
708.45862	0.03757
707.17285	0.03756
705.88709	0.03748
704.60132	0.03736
703.31555	0.03723
702.02978	0.03717
700.74401	0.03718
699.45824	0.03726
698.17247	0.03736
696.88670	0.03740
695.60094	0.03738
694.31517	0.03731
693.02940	0.03725
691.74363	0.03720
690.45786	0.03714
689.17209	0.03704
687.88632	0.03694
686.60055	0.03690
685.31478	0.03692
684.02902	0.03694
682.74325	0.03688
681.45748	0.03674
680.17171	0.03660
678.88594	0.03652
677.60017	0.03649
676.31440	0.03647
675.02863	0.03645
673.74287	0.03646
672.45710	0.03651
671.17133	0.03659
669.88556	0.03669
668.59979	0.03687
667.31402	0.03712
666.02825	0.03706
664.74248	0.03699
663.45671	0.03683
662.17095	0.03659
660.88518	0.03636
659.59941	0.03616
658.31364	0.03601
657.02787	0.03589
655.74210	0.03588
654.45633	0.03596
653.17056	0.03611
651.88480	0.03622
650.59903	0.03625
649.31326	0.03622
648.02749	0.03615
646.74172	0.03609
645.45595	0.03609
644.17018	0.03618
642.88441	0.03633
641.59864	0.03649
640.31288	0.03666
639.02711	0.03687
637.74134	0.03714
636.45557	0.03745
635.16980	0.03776
633.88403	0.03802
632.59826	0.03822
631.31249	0.03847
630.02673	0.03935
628.74096	0.04058
627.45519	0.04005
626.16942	0.04155
624.88365	0.04439
623.59788	0.04691
622.31211	0.04871
621.02634	0.05049
619.74057	0.05320
618.45481	0.05662
617.16904	0.05946
615.88327	0.06084
614.59750	0.06127
613.31173	0.06231
612.02596	0.06534
610.74019	0.07061
609.45442	0.07711
608.16866	0.08335
606.88289	0.08843
605.59712	0.09234
604.31135	0.09550
603.02558	0.09813
601.73981	0.09982
600.45404	0.09998
599.16827	0.09838
597.88250	0.09545
596.59674	0.09186
595.31097	0.08828
594.02520	0.08518
592.73943	0.08277
591.45366	0.08106
590.16789	0.07993
588.88212	0.07929
587.59635	0.07913
586.31059	0.07955
585.02482	0.08056
583.73905	0.08204
582.45328	0.08383
581.16751	0.08590
579.88174	0.08835
578.59597	0.09118
577.31020	0.09423
576.02443	0.09719
574.73867	0.09985
573.45290	0.10226
572.16713	0.10469
570.88136	0.10742
569.59559	0.11058
568.30982	0.11406
567.02405	0.11769
565.73828	0.12127
564.45251	0.12454
563.16675	0.12711
561.88098	0.12856
560.59521	0.12857
559.30944	0.12702
558.02367	0.12407
556.73790	0.12008
555.45213	0.11546
554.16636	0.11049
552.88060	0.10536
551.59483	0.10023
550.30906	0.09533
549.02329	0.09083
547.73752	0.08686
546.45175	0.08346
545.16598	0.08057
543.88021	0.07810
542.59444	0.07586
541.30868	0.07376
540.02291	0.07176
538.73714	0.06983
537.45137	0.06793
536.16560	0.06606
534.87983	0.06428
533.59406	0.06267
532.30829	0.06126
531.02253	0.06000
529.73676	0.05885
528.45099	0.05775
527.16522	0.05668
525.87945	0.05565
524.59368	0.05467
523.30791	0.05376
522.02214	0.05291
520.73637	0.05212
519.45061	0.05132
518.16484	0.05044
516.87907	0.04942
515.59330	0.04833
514.30753	0.04733
513.02176	0.04654
511.73599	0.04596
510.45022	0.04540
509.16446	0.04472
507.87869	0.04396
506.59292	0.04325
505.30715	0.04272
504.02138	0.04231
502.73561	0.04188
501.44984	0.04133
500.16407	0.04066
498.87830	0.03994
497.59254	0.03926
496.30677	0.03875
495.02100	0.03845
493.73523	0.03830
492.44946	0.03819
491.16369	0.03800
489.87792	0.03770
488.59215	0.03733
487.30639	0.03700
486.02062	0.03679
484.73485	0.03667
483.44908	0.03656
482.16331	0.03642
480.87754	0.03626
479.59177	0.03618
478.30600	0.03625
477.02023	0.03649
475.73447	0.03681
474.44870	0.03707
473.16293	0.03723
471.87716	0.03733
470.59139	0.03744
469.30562	0.03753
468.01985	0.03751
466.73408	0.03731
465.44832	0.03695
464.16255	0.03648
462.87678	0.03598
461.59101	0.03553
460.30524	0.03512
459.01947	0.03474
457.73370	0.03437
456.44793	0.03400
455.16216	0.03359
453.87640	0.03314
452.59063	0.03268
451.30486	0.03225
450.01909	0.03187
448.73332	0.03152
447.44755	0.03121
446.16178	0.03095
444.87601	0.03076
443.59025	0.03062
442.30448	0.03049
441.01871	0.03033
439.73294	0.03015
438.44717	0.03000
437.16140	0.02988
435.87563	0.02976
434.58986	0.02961
433.30409	0.02939
432.01833	0.02917
430.73256	0.02897
429.44679	0.02882
428.16102	0.02870
426.87525	0.02861
425.58948	0.02853
424.30371	0.02847
423.01794	0.02838
421.73218	0.02823
420.44641	0.02804
419.16064	0.02789
417.87487	0.02780
416.58910	0.02769
415.30333	0.02747
414.01756	0.02718
412.73179	0.02686
411.44602	0.02660
410.16026	0.02641
408.87449	0.02629
407.58872	0.02622
406.30295	0.02615
405.01718	0.02608
403.73141	0.02601
402.44564	0.02599
401.15987	0.02605
399.87411	0.02615
