3997.45528	0.01535
3996.16951	0.01536
3994.88374	0.01531
3993.59798	0.01515
3992.31221	0.01493
3991.02644	0.01468
3989.74067	0.01436
3988.45490	0.01414
3987.16913	0.01446
3985.88336	0.01566
3984.59759	0.01740
3983.31183	0.01874
3982.02606	0.01891
3980.74029	0.01796
3979.45452	0.01656
3978.16875	0.01551
3976.88298	0.01513
3975.59721	0.01528
3974.31144	0.01559
3973.02567	0.01579
3971.73991	0.01585
3970.45414	0.01581
3969.16837	0.01567
3967.88260	0.01537
3966.59683	0.01496
3965.31106	0.01458
3964.02529	0.01443
3962.73952	0.01456
3961.45376	0.01481
3960.16799	0.01497
3958.88222	0.01489
3957.59645	0.01465
3956.31068	0.01446
3955.02491	0.01451
3953.73914	0.01477
3952.45337	0.01502
3951.16760	0.01506
3949.88184	0.01482
3948.59607	0.01447
3947.31030	0.01426
3946.02453	0.01437
3944.73876	0.01471
3943.45299	0.01501
3942.16722	0.01512
3940.88145	0.01517
3939.59569	0.01532
3938.30992	0.01548
3937.02415	0.01541
3935.73838	0.01512
3934.45261	0.01481
3933.16684	0.01472
3931.88107	0.01490
3930.59530	0.01530
3929.30953	0.01571
3928.02377	0.01591
3926.73800	0.01589
3925.45223	0.01585
3924.16646	0.01600
3922.88069	0.01628
3921.59492	0.01650
3920.30915	0.01656
3919.02338	0.01641
3917.73762	0.01603
3916.45185	0.01548
3915.16608	0.01501
3913.88031	0.01487
3912.59454	0.01513
3911.30877	0.01560
3910.02300	0.01601
3908.73723	0.01619
3907.45146	0.01612
3906.16570	0.01594
3904.87993	0.01589
3903.59416	0.01610
3902.30839	0.01642
3901.02262	0.01646
3899.73685	0.01597
3898.45108	0.01514
3897.16531	0.01446
3895.87955	0.01429
3894.59378	0.01457
3893.30801	0.01504
3892.02224	0.01545
3890.73647	0.01560
3889.45070	0.01541
3888.16493	0.01503
3886.87916	0.01478
3885.59339	0.01475
3884.30763	0.01470
3883.02186	0.01444
3881.73609	0.01412
3880.45032	0.01403
3879.16455	0.01421
3877.87878	0.01450
3876.59301	0.01478
3875.30724	0.01502
3874.02148	0.01512
3872.73571	0.01490
3871.44994	0.01437
3870.16417	0.01378
3868.87840	0.01342
3867.59263	0.01328
3866.30686	0.01316
3865.02109	0.01300
3863.73532	0.01294
3862.44956	0.01316
3861.16379	0.01365
3859.87802	0.01431
3858.59225	0.01498
3857.30648	0.01546
3856.02071	0.01550
3854.73494	0.01506
3853.44917	0.01439
3852.16341	0.01386
3850.87764	0.01368
3849.59187	0.01382
3848.30610	0.01423
3847.02033	0.01488
3845.73456	0.01559
3844.44879	0.01598
3843.16302	0.01577
3841.87725	0.01510
3840.59149	0.01445
3839.30572	0.01423
3838.01995	0.01440
3836.73418	0.01471
3835.44841	0.01493
3834.16264	0.01504
3832.87687	0.01499
3831.59110	0.01471
3830.30534	0.01429
3829.01957	0.01400
3827.73380	0.01400
3826.44803	0.01414
3825.16226	0.01409
3823.87649	0.01375
3822.59072	0.01337
3821.30495	0.01333
3820.01918	0.01374
3818.73342	0.01434
3817.44765	0.01469
3816.16188	0.01453
3814.87611	0.01402
3813.59034	0.01358
3812.30457	0.01356
3811.01880	0.01395
3809.73303	0.01450
3808.44726	0.01485
3807.16150	0.01482
3805.87573	0.01445
3804.58996	0.01387
3803.30419	0.01324
3802.01842	0.01272
3800.73265	0.01243
3799.44688	0.01245
3798.16111	0.01277
3796.87535	0.01337
3795.58958	0.01411
3794.30381	0.01478
3793.01804	0.01517
3791.73227	0.01516
3790.44650	0.01486
3789.16073	0.01440
3787.87496	0.01398
3786.58919	0.01374
3785.30343	0.01380
3784.01766	0.01422
3782.73189	0.01486
3781.44612	0.01543
3780.16035	0.01562
3778.87458	0.01525
3777.58881	0.01443
3776.30304	0.01355
3775.01728	0.01305
3773.73151	0.01311
3772.44574	0.01352
3771.15997	0.01385
3769.87420	0.01381
3768.58843	0.01343
3767.30266	0.01300
3766.01689	0.01281
3764.73112	0.01295
3763.44536	0.01337
3762.15959	0.01390
3760.87382	0.01434
3759.58805	0.01461
3758.30228	0.01471
3757.01651	0.01467
3755.73074	0.01447
3754.44497	0.01409
3753.15921	0.01369
3751.87344	0.01356
3750.58767	0.01378
3749.30190	0.01412
3748.01613	0.01430
3746.73036	0.01445
3745.44459	0.01485
3744.15882	0.01545
3742.87305	0.01581
3741.58729	0.01564
3740.30152	0.01518
3739.01575	0.01489
3737.72998	0.01485
3736.44421	0.01475
3735.15844	0.01434
3733.87267	0.01388
3732.58690	0.01384
3731.30114	0.01430
3730.01537	0.01479
3728.72960	0.01484
3727.44383	0.01449
3726.15806	0.01405
3724.87229	0.01374
3723.58652	0.01362
3722.30075	0.01368
3721.01498	0.01379
3719.72922	0.01371
3718.44345	0.01332
3717.15768	0.01288
3715.87191	0.01273
3714.58614	0.01293
3713.30037	0.01314
3712.01460	0.01307
3710.72883	0.01284
3709.44307	0.01282
3708.15730	0.01317
3706.87153	0.01366
3705.58576	0.01397
3704.29999	0.01393
3703.01422	0.01359
3701.72845	0.01306
3700.44268	0.01252
3699.15691	0.01230
3697.87115	0.01258
3696.58538	0.01327
3695.29961	0.01409
3694.01384	0.01468
3692.72807	0.01482
3691.44230	0.01458
3690.15653	0.01425
3688.87076	0.01411
3687.58500	0.01429
3686.29923	0.01476
3685.01346	0.01544
3683.72769	0.01611
3682.44192	0.01647
3681.15615	0.01622
3679.87038	0.01523
3678.58461	0.01377
3677.29884	0.01249
3676.01308	0.01195
3674.72731	0.01218
3673.44154	0.01268
3672.15577	0.01296
3670.87000	0.01287
3669.58423	0.01258
3668.29846	0.01230
3667.01269	0.01218
3665.72693	0.01219
3664.44116	0.01216
3663.15539	0.01194
3661.86962	0.01164
3660.58385	0.01162
3659.29808	0.01212
3658.01231	0.01288
3656.72654	0.01341
3655.44077	0.01350
3654.15501	0.01340
3652.86924	0.01348
3651.58347	0.01383
3650.29770	0.01420
3649.01193	0.01423
3647.72616	0.01373
3646.44039	0.01287
3645.15462	0.01205
3643.86886	0.01162
3642.58309	0.01165
3641.29732	0.01195
3640.01155	0.01225
3638.72578	0.01235
3637.44001	0.01230
3636.15424	0.01231
3634.86847	0.01245
3633.58270	0.01267
3632.29694	0.01285
3631.01117	0.01286
3629.72540	0.01261
3628.43963	0.01225
3627.15386	0.01210
3625.86809	0.01241
3624.58232	0.01307
3623.29655	0.01379
3622.01079	0.01431
3620.72502	0.01448
3619.43925	0.01427
3618.15348	0.01388
3616.86771	0.01365
3615.58194	0.01379
3614.29617	0.01411
3613.01040	0.01415
3611.72463	0.01367
3610.43887	0.01293
3609.15310	0.01236
3607.86733	0.01214
3606.58156	0.01213
3605.29579	0.01214
3604.01002	0.01213
3602.72425	0.01214
3601.43848	0.01222
3600.15272	0.01233
3598.86695	0.01243
3597.58118	0.01254
3596.29541	0.01276
3595.00964	0.01320
3593.72387	0.01374
3592.43810	0.01406
3591.15233	0.01397
3589.86656	0.01370
3588.58080	0.01362
3587.29503	0.01384
3586.00926	0.01408
3584.72349	0.01407
3583.43772	0.01389
3582.15195	0.01380
3580.86618	0.01388
3579.58041	0.01393
3578.29464	0.01368
3577.00888	0.01311
3575.72311	0.01254
3574.43734	0.01233
3573.15157	0.01265
3571.86580	0.01330
3570.58003	0.01390
3569.29426	0.01412
3568.00849	0.01387
3566.72273	0.01338
3565.43696	0.01308
3564.15119	0.01328
3562.86542	0.01379
3561.57965	0.01414
3560.29388	0.01409
3559.00811	0.01384
3557.72234	0.01373
3556.43657	0.01387
3555.15081	0.01411
3553.86504	0.01423
3552.57927	0.01415
3551.29350	0.01387
3550.00773	0.01346
3548.72196	0.01300
3547.43619	0.01271
3546.15042	0.01281
3544.86466	0.01328
3543.57889	0.01377
3542.29312	0.01393
3541.00735	0.01376
3539.72158	0.01356
3538.43581	0.01354
3537.15004	0.01358
3535.86427	0.01340
3534.57850	0.01295
3533.29274	0.01255
3532.00697	0.01257
3530.72120	0.01313
3529.43543	0.01392
3528.14966	0.01447
3526.86389	0.01455
3525.57812	0.01437
3524.29235	0.01434
3523.00659	0.01464
3521.72082	0.01510
3520.43505	0.01542
3519.14928	0.01545
3517.86351	0.01527
3516.57774	0.01503
3515.29197	0.01480
3514.00620	0.01464
3512.72043	0.01463
3511.43467	0.01490
3510.14890	0.01541
3508.86313	0.01592
3507.57736	0.01619
3506.29159	0.01621
3505.00582	0.01613
3503.72005	0.01602
3502.43428	0.01583
3501.14852	0.01556
3499.86275	0.01531
3498.57698	0.01519
3497.29121	0.01519
3496.00544	0.01528
3494.71967	0.01540
3493.43390	0.01556
3492.14813	0.01578
3490.86236	0.01601
3489.57660	0.01609
3488.29083	0.01589
3487.00506	0.01545
3485.71929	0.01499
3484.43352	0.01469
3483.14775	0.01457
3481.86198	0.01462
3480.57621	0.01488
3479.29045	0.01533
3478.00468	0.01582
3476.71891	0.01605
3475.43314	0.01588
3474.14737	0.01546
3472.86160	0.01511
3471.57583	0.01508
3470.29006	0.01531
3469.00429	0.01557
3467.71853	0.01556
3466.43276	0.01519
3465.14699	0.01462
3463.86122	0.01409
3462.57545	0.01380
3461.28968	0.01380
3460.00391	0.01409
3458.71814	0.01460
3457.43238	0.01511
3456.14661	0.01535
3454.86084	0.01522
3453.57507	0.01495
3452.28930	0.01489
3451.00353	0.01517
3449.71776	0.01557
3448.43199	0.01575
3447.14622	0.01566
3445.86046	0.01555
3444.57469	0.01561
3443.28892	0.01581
3442.00315	0.01601
3440.71738	0.01608
3439.43161	0.01593
3438.14584	0.01558
3436.86007	0.01523
3435.57431	0.01515
3434.28854	0.01536
3433.00277	0.01553
3431.71700	0.01534
3430.43123	0.01486
3429.14546	0.01457
3427.85969	0.01479
3426.57392	0.01537
3425.28815	0.01591
3424.00239	0.01619
3422.71662	0.01631
3421.43085	0.01640
3420.14508	0.01639
3418.85931	0.01618
3417.57354	0.01580
3416.28777	0.01538
3415.00200	0.01508
3413.71624	0.01495
3412.43047	0.01491
3411.14470	0.01487
3409.85893	0.01481
3408.57316	0.01490
3407.28739	0.01531
3406.00162	0.01600
3404.71585	0.01666
3403.43008	0.01696
3402.14432	0.01684
3400.85855	0.01648
3399.57278	0.01610
3398.28701	0.01581
3397.00124	0.01568
3395.71547	0.01570
3394.42970	0.01573
3393.14393	0.01558
3391.85817	0.01522
3390.57240	0.01487
3389.28663	0.01482
3388.00086	0.01509
3386.71509	0.01542
3385.42932	0.01559
3384.14355	0.01559
3382.85778	0.01563
3381.57201	0.01586
3380.28625	0.01627
3379.00048	0.01669
3377.71471	0.01688
3376.42894	0.01668
3375.14317	0.01625
3373.85740	0.01595
3372.57163	0.01596
3371.28586	0.01609
3370.00010	0.01606
3368.71433	0.01588
3367.42856	0.01579
3366.14279	0.01594
3364.85702	0.01623
3363.57125	0.01644
3362.28548	0.01647
3360.99971	0.01634
3359.71394	0.01615
3358.42818	0.01600
3357.14241	0.01598
3355.85664	0.01615
3354.57087	0.01652
3353.28510	0.01701
3351.99933	0.01750
3350.71356	0.01786
3349.42779	0.01799
3348.14202	0.01790
3346.85626	0.01770
3345.57049	0.01754
3344.28472	0.01747
3342.99895	0.01740
3341.71318	0.01723
3340.42741	0.01694
3339.14164	0.01660
3337.85587	0.01635
3336.57011	0.01631
3335.28434	0.01649
3333.99857	0.01682
3332.71280	0.01711
3331.42703	0.01718
3330.14126	0.01694
3328.85549	0.01655
3327.56972	0.01641
3326.28395	0.01679
3324.99819	0.01766
3323.71242	0.01866
3322.42665	0.01945
3321.14088	0.01986
3319.85511	0.01988
3318.56934	0.01958
3317.28357	0.01909
3315.99780	0.01864
3314.71204	0.01846
3313.42627	0.01855
3312.14050	0.01870
3310.85473	0.01871
3309.56896	0.01859
3308.28319	0.01848
3306.99742	0.01854
3305.71165	0.01877
3304.42588	0.01907
3303.14012	0.01919
3301.85435	0.01898
3300.56858	0.01852
3299.28281	0.01815
3297.99704	0.01811
3296.71127	0.01834
3295.42550	0.01855
3294.13973	0.01856
3292.85397	0.01838
3291.56820	0.01810
3290.28243	0.01780
3288.99666	0.01752
3287.71089	0.01731
3286.42512	0.01726
3285.13935	0.01744
3283.85358	0.01782
3282.56781	0.01826
3281.28205	0.01863
3279.99628	0.01896
3278.71051	0.01935
3277.42474	0.01975
3276.13897	0.01994
3274.85320	0.01982
3273.56743	0.01954
3272.28166	0.01938
3270.99590	0.01949
3269.71013	0.01975
3268.42436	0.01994
3267.13859	0.01995
3265.85282	0.01982
3264.56705	0.01965
3263.28128	0.01943
3261.99551	0.01911
3260.70974	0.01874
3259.42398	0.01853
3258.13821	0.01865
3256.85244	0.01903
3255.56667	0.01933
3254.28090	0.01916
3252.99513	0.01848
3251.70936	0.01766
3250.42359	0.01720
3249.13783	0.01738
3247.85206	0.01811
3246.56629	0.01900
3245.28052	0.01958
3243.99475	0.01955
3242.70898	0.01895
3241.42321	0.01813
3240.13744	0.01750
3238.85167	0.01733
3237.56591	0.01765
3236.28014	0.01829
3234.99437	0.01901
3233.70860	0.01954
3232.42283	0.01979
3231.13706	0.01978
3229.85129	0.01959
3228.56552	0.01930
3227.27976	0.01898
3225.99399	0.01870
3224.70822	0.01854
3223.42245	0.01853
3222.13668	0.01860
3220.85091	0.01865
3219.56514	0.01855
3218.27937	0.01827
3216.99360	0.01792
3215.70784	0.01774
3214.42207	0.01788
3213.13630	0.01827
3211.85053	0.01868
3210.56476	0.01889
3209.27899	0.01884
3207.99322	0.01860
3206.70745	0.01828
3205.42169	0.01802
3204.13592	0.01788
3202.85015	0.01786
3201.56438	0.01784
3200.27861	0.01772
3198.99284	0.01751
3197.70707	0.01731
3196.42130	0.01727
3195.13553	0.01739
3193.84977	0.01760
3192.56400	0.01781
3191.27823	0.01803
3189.99246	0.01826
3188.70669	0.01855
3187.42092	0.01890
3186.13515	0.01923
3184.84938	0.01947
3183.56362	0.01956
3182.27785	0.01950
3180.99208	0.01926
3179.70631	0.01884
3178.42054	0.01837
3177.13477	0.01805
3175.84900	0.01796
3174.56323	0.01802
3173.27746	0.01809
3171.99170	0.01818
3170.70593	0.01838
3169.42016	0.01866
3168.13439	0.01881
3166.84862	0.01867
3165.56285	0.01829
3164.27708	0.01787
3162.99131	0.01756
3161.70555	0.01738
3160.41978	0.01730
3159.13401	0.01735
3157.84824	0.01749
3156.56247	0.01770
3155.27670	0.01795
3153.99093	0.01822
3152.70516	0.01851
3151.41939	0.01878
3150.13363	0.01896
3148.84786	0.01898
3147.56209	0.01882
3146.27632	0.01853
3144.99055	0.01822
3143.70478	0.01806
3142.41901	0.01815
3141.13324	0.01847
3139.84748	0.01884
3138.56171	0.01902
3137.27594	0.01887
3135.99017	0.01850
3134.70440	0.01816
3133.41863	0.01801
3132.13286	0.01798
3130.84709	0.01786
3129.56132	0.01755
3128.27556	0.01717
3126.98979	0.01692
3125.70402	0.01696
3124.41825	0.01727
3123.13248	0.01769
3121.84671	0.01800
3120.56094	0.01808
3119.27517	0.01793
3117.98940	0.01772
3116.70364	0.01769
3115.41787	0.01791
3114.13210	0.01825
3112.84633	0.01848
3111.56056	0.01848
3110.27479	0.01834
3108.98902	0.01820
3107.70325	0.01811
3106.41749	0.01801
3105.13172	0.01784
3103.84595	0.01761
3102.56018	0.01747
3101.27441	0.01750
3099.98864	0.01766
3098.70287	0.01782
3097.41710	0.01791
3096.13133	0.01790
3094.84557	0.01783
3093.55980	0.01776
3092.27403	0.01775
3090.98826	0.01779
3089.70249	0.01779
3088.41672	0.01772
3087.13095	0.01764
3085.84518	0.01761
3084.55942	0.01762
3083.27365	0.01758
3081.98788	0.01749
3080.70211	0.01739
3079.41634	0.01734
3078.13057	0.01741
3076.84480	0.01765
3075.55903	0.01801
3074.27326	0.01834
3072.98750	0.01848
3071.70173	0.01842
3070.41596	0.01828
3069.13019	0.01810
3067.84442	0.01781
3066.55865	0.01737
3065.27288	0.01693
3063.98711	0.01670
3062.70135	0.01673
3061.41558	0.01692
3060.12981	0.01714
3058.84404	0.01729
3057.55827	0.01739
3056.27250	0.01748
3054.98673	0.01759
3053.70096	0.01772
3052.41519	0.01779
3051.12943	0.01775
3049.84366	0.01758
3048.55789	0.01734
3047.27212	0.01720
3045.98635	0.01725
3044.70058	0.01746
3043.41481	0.01772
3042.12904	0.01792
3040.84328	0.01804
3039.55751	0.01805
3038.27174	0.01791
3036.98597	0.01769
3035.70020	0.01750
3034.41443	0.01738
3033.12866	0.01724
3031.84289	0.01699
3030.55712	0.01671
3029.27136	0.01657
3027.98559	0.01661
3026.69982	0.01671
3025.41405	0.01676
3024.12828	0.01681
3022.84251	0.01697
3021.55674	0.01723
3020.27097	0.01744
3018.98521	0.01745
3017.69944	0.01730
3016.41367	0.01709
3015.12790	0.01693
3013.84213	0.01681
3012.55636	0.01671
3011.27059	0.01661
3009.98482	0.01654
3008.69905	0.01653
3007.41329	0.01654
3006.12752	0.01652
3004.84175	0.01650
3003.55598	0.01653
3002.27021	0.01662
3000.98444	0.01666
2999.69867	0.01659
2998.41290	0.01641
2997.12714	0.01624
2995.84137	0.01615
2994.55560	0.01612
2993.26983	0.01610
2991.98406	0.01607
2990.69829	0.01607
2989.41252	0.01614
2988.12675	0.01632
2986.84098	0.01653
2985.55522	0.01667
2984.26945	0.01665
2982.98368	0.01647
2981.69791	0.01624
2980.41214	0.01609
2979.12637	0.01613
2977.84060	0.01636
2976.55483	0.01670
2975.26907	0.01703
2973.98330	0.01724
2972.69753	0.01733
2971.41176	0.01736
2970.12599	0.01738
2968.84022	0.01736
2967.55445	0.01733
2966.26868	0.01738
2964.98291	0.01747
2963.69715	0.01754
2962.41138	0.01756
2961.12561	0.01763
2959.83984	0.01780
2958.55407	0.01803
2957.26830	0.01821
2955.98253	0.01830
2954.69676	0.01828
2953.41100	0.01817
2952.12523	0.01800
2950.83946	0.01778
2949.55369	0.01755
2948.26792	0.01732
2946.98215	0.01717
2945.69638	0.01717
2944.41061	0.01738
2943.12484	0.01770
2941.83908	0.01794
2940.55331	0.01796
2939.26754	0.01782
2937.98177	0.01770
2936.69600	0.01769
2935.41023	0.01775
2934.12446	0.01776
2932.83869	0.01765
2931.55293	0.01747
2930.26716	0.01739
2928.98139	0.01745
2927.69562	0.01753
2926.40985	0.01748
2925.12408	0.01728
2923.83831	0.01706
2922.55254	0.01691
2921.26677	0.01679
2919.98101	0.01672
2918.69524	0.01681
2917.40947	0.01714
2916.12370	0.01754
2914.83793	0.01774
2913.55216	0.01769
2912.26639	0.01754
2910.98062	0.01743
2909.69486	0.01737
2908.40909	0.01730
2907.12332	0.01721
2905.83755	0.01718
2904.55178	0.01731
2903.26601	0.01764
2901.98024	0.01801
2900.69447	0.01815
2899.40870	0.01788
2898.12294	0.01735
2896.83717	0.01686
2895.55140	0.01662
2894.26563	0.01662
2892.97986	0.01675
2891.69409	0.01691
2890.40832	0.01704
2889.12255	0.01713
2887.83678	0.01715
2886.55102	0.01707
2885.26525	0.01688
2883.97948	0.01662
2882.69371	0.01639
2881.40794	0.01632
2880.12217	0.01647
2878.83640	0.01669
2877.55063	0.01676
2876.26487	0.01662
2874.97910	0.01644
2873.69333	0.01638
2872.40756	0.01647
2871.12179	0.01664
2869.83602	0.01687
2868.55025	0.01710
2867.26448	0.01728
2865.97871	0.01733
2864.69295	0.01727
2863.40718	0.01717
2862.12141	0.01710
2860.83564	0.01702
2859.54987	0.01686
2858.26410	0.01661
2856.97833	0.01638
2855.69256	0.01626
2854.40680	0.01628
2853.12103	0.01639
2851.83526	0.01643
2850.54949	0.01628
2849.26372	0.01594
2847.97795	0.01560
2846.69218	0.01542
2845.40641	0.01542
2844.12064	0.01547
2842.83488	0.01551
2841.54911	0.01557
2840.26334	0.01570
2838.97757	0.01588
2837.69180	0.01599
2836.40603	0.01600
2835.12026	0.01595
2833.83449	0.01595
2832.54873	0.01603
2831.26296	0.01609
2829.97719	0.01607
2828.69142	0.01596
2827.40565	0.01580
2826.11988	0.01561
2824.83411	0.01542
2823.54834	0.01531
2822.26257	0.01538
2820.97681	0.01555
2819.69104	0.01570
2818.40527	0.01576
2817.11950	0.01579
2815.83373	0.01582
2814.54796	0.01581
2813.26219	0.01568
2811.97642	0.01549
2810.69066	0.01539
2809.40489	0.01542
2808.11912	0.01548
2806.83335	0.01545
2805.54758	0.01533
2804.26181	0.01521
2802.97604	0.01513
2801.69027	0.01512
2800.40450	0.01511
2799.11874	0.01508
2797.83297	0.01500
2796.54720	0.01489
2795.26143	0.01481
2793.97566	0.01474
2792.68989	0.01467
2791.40412	0.01463
2790.11835	0.01468
2788.83259	0.01482
2787.54682	0.01495
2786.26105	0.01497
2784.97528	0.01484
2783.68951	0.01459
2782.40374	0.01434
2781.11797	0.01421
2779.83220	0.01422
2778.54643	0.01425
2777.26067	0.01419
2775.97490	0.01407
2774.68913	0.01404
2773.40336	0.01420
2772.11759	0.01446
2770.83182	0.01467
2769.54605	0.01480
2768.26028	0.01490
2766.97452	0.01500
2765.68875	0.01508
2764.40298	0.01508
2763.11721	0.01503
2761.83144	0.01492
2760.54567	0.01478
2759.25990	0.01470
2757.97413	0.01474
2756.68836	0.01486
2755.40260	0.01490
2754.11683	0.01479
2752.83106	0.01454
2751.54529	0.01423
2750.25952	0.01394
2748.97375	0.01382
2747.68798	0.01397
2746.40221	0.01429
2745.11645	0.01458
2743.83068	0.01471
2742.54491	0.01472
2741.25914	0.01471
2739.97337	0.01464
2738.68760	0.01444
2737.40183	0.01415
2736.11606	0.01396
2734.83029	0.01396
2733.54453	0.01405
2732.25876	0.01409
2730.97299	0.01405
2729.68722	0.01397
2728.40145	0.01387
2727.11568	0.01376
2725.82991	0.01376
2724.54414	0.01396
2723.25838	0.01429
2721.97261	0.01454
2720.68684	0.01455
2719.40107	0.01440
2718.11530	0.01425
2716.82953	0.01423
2715.54376	0.01428
2714.25799	0.01429
2712.97222	0.01420
2711.68646	0.01400
2710.40069	0.01374
2709.11492	0.01344
2707.82915	0.01319
2706.54338	0.01313
2705.25761	0.01333
2703.97184	0.01367
2702.68607	0.01393
2701.40031	0.01394
2700.11454	0.01376
2698.82877	0.01359
2697.54300	0.01359
2696.25723	0.01377
2694.97146	0.01400
2693.68569	0.01415
2692.39992	0.01414
2691.11415	0.01402
2689.82839	0.01384
2688.54262	0.01365
2687.25685	0.01348
2685.97108	0.01341
2684.68531	0.01347
2683.39954	0.01358
2682.11377	0.01359
2680.82800	0.01345
2679.54224	0.01324
2678.25647	0.01310
2676.97070	0.01308
2675.68493	0.01317
2674.39916	0.01329
2673.11339	0.01340
2671.82762	0.01352
2670.54185	0.01370
2669.25608	0.01395
2667.97032	0.01421
2666.68455	0.01434
2665.39878	0.01428
2664.11301	0.01410
2662.82724	0.01389
2661.54147	0.01366
2660.25570	0.01344
2658.96993	0.01330
2657.68417	0.01327
2656.39840	0.01326
2655.11263	0.01313
2653.82686	0.01295
2652.54109	0.01289
2651.25532	0.01305
2649.96955	0.01332
2648.68378	0.01355
2647.39801	0.01368
2646.11225	0.01374
2644.82648	0.01373
2643.54071	0.01364
2642.25494	0.01349
2640.96917	0.01332
2639.68340	0.01314
2638.39763	0.01296
2637.11186	0.01274
2635.82609	0.01251
2634.54033	0.01239
2633.25456	0.01248
2631.96879	0.01276
2630.68302	0.01297
2629.39725	0.01286
2628.11148	0.01245
2626.82571	0.01200
2625.53994	0.01177
2624.25418	0.01180
2622.96841	0.01201
2621.68264	0.01228
2620.39687	0.01254
2619.11110	0.01272
2617.82533	0.01280
2616.53956	0.01282
2615.25379	0.01282
2613.96802	0.01282
2612.68226	0.01283
2611.39649	0.01276
2610.11072	0.01258
2608.82495	0.01239
2607.53918	0.01234
2606.25341	0.01240
2604.96764	0.01240
2603.68187	0.01227
2602.39611	0.01219
2601.11034	0.01234
2599.82457	0.01261
2598.53880	0.01272
2597.25303	0.01254
2595.96726	0.01218
2594.68149	0.01190
2593.39572	0.01177
2592.10995	0.01168
2590.82419	0.01150
2589.53842	0.01127
2588.25265	0.01111
2586.96688	0.01107
2585.68111	0.01111
2584.39534	0.01123
2583.10957	0.01140
2581.82380	0.01149
2580.53804	0.01135
2579.25227	0.01097
2577.96650	0.01053
2576.68073	0.01021
2575.39496	0.01010
2574.10919	0.01016
2572.82342	0.01040
2571.53765	0.01073
2570.25188	0.01099
2568.96612	0.01103
2567.68035	0.01090
2566.39458	0.01081
2565.10881	0.01081
2563.82304	0.01087
2562.53727	0.01096
2561.25150	0.01111
2559.96573	0.01122
2558.67997	0.01116
2557.39420	0.01094
2556.10843	0.01076
2554.82266	0.01074
2553.53689	0.01078
2552.25112	0.01075
2550.96535	0.01070
2549.67958	0.01077
2548.39381	0.01094
2547.10805	0.01105
2545.82228	0.01095
2544.53651	0.01068
2543.25074	0.01044
2541.96497	0.01043
2540.67920	0.01060
2539.39343	0.01073
2538.10766	0.01057
2536.82190	0.01017
2535.53613	0.00979
2534.25036	0.00962
2532.96459	0.00967
2531.67882	0.00979
2530.39305	0.00993
2529.10728	0.01010
2527.82151	0.01030
2526.53574	0.01048
2525.24998	0.01061
2523.96421	0.01066
2522.67844	0.01064
2521.39267	0.01061
2520.10690	0.01067
2518.82113	0.01087
2517.53536	0.01111
2516.24959	0.01124
2514.96383	0.01114
2513.67806	0.01082
2512.39229	0.01047
2511.10652	0.01024
2509.82075	0.01021
2508.53498	0.01033
2507.24921	0.01058
2505.96344	0.01092
2504.67767	0.01120
2503.39191	0.01121
2502.10614	0.01089
2500.82037	0.01043
2499.53460	0.01012
2498.24883	0.01005
2496.96306	0.01003
2495.67729	0.00982
2494.39152	0.00953
2493.10576	0.00952
2491.81999	0.00993
2490.53422	0.01044
2489.24845	0.01065
2487.96268	0.01049
2486.67691	0.01024
2485.39114	0.01014
2484.10537	0.01018
2482.81960	0.01023
2481.53384	0.01032
2480.24807	0.01050
2478.96230	0.01069
2477.67653	0.01073
2476.39076	0.01060
2475.10499	0.01045
2473.81922	0.01036
2472.53345	0.01031
2471.24769	0.01018
2469.96192	0.00990
2468.67615	0.00956
2467.39038	0.00938
2466.10461	0.00961
2464.81884	0.01025
2463.53307	0.01092
2462.24730	0.01118
2460.96153	0.01096
2459.67577	0.01052
2458.39000	0.01011
2457.10423	0.00983
2455.81846	0.00970
2454.53269	0.00979
2453.24692	0.01013
2451.96115	0.01052
2450.67538	0.01070
2449.38962	0.01059
2448.10385	0.01033
2446.81808	0.01019
2445.53231	0.01029
2444.24654	0.01051
2442.96077	0.01061
2441.67500	0.01039
2440.38923	0.00994
2439.10346	0.00953
2437.81770	0.00934
2436.53193	0.00928
2435.24616	0.00917
2433.96039	0.00896
2432.67462	0.00884
2431.38885	0.00899
2430.10308	0.00934
2428.81731	0.00957
2427.53155	0.00947
2426.24578	0.00921
2424.96001	0.00911
2423.67424	0.00929
2422.38847	0.00956
2421.10270	0.00970
2419.81693	0.00969
2418.53116	0.00960
2417.24539	0.00948
2415.95963	0.00933
2414.67386	0.00921
2413.38809	0.00917
2412.10232	0.00920
2410.81655	0.00924
2409.53078	0.00923
2408.24501	0.00919
2406.95924	0.00918
2405.67347	0.00926
2404.38771	0.00945
2403.10194	0.00972
2401.81617	0.00997
2400.53040	0.01011
2399.24463	0.01006
2397.95886	0.00983
2396.67309	0.00947
2395.38732	0.00912
2394.10156	0.00892
2392.81579	0.00893
2391.53002	0.00912
2390.24425	0.00934
2388.95848	0.00948
2387.67271	0.00954
2386.38694	0.00961
2385.10117	0.00978
2383.81540	0.01005
2382.52964	0.01035
2381.24387	0.01055
2379.95810	0.01060
2378.67233	0.01039
2377.38656	0.01006
2376.10079	0.00990
2374.81502	0.00999
2373.52925	0.01002
2372.24349	0.01001
2370.95772	0.01007
2369.67195	0.01002
2368.38618	0.00983
2367.10041	0.00958
2365.81464	0.00933
2364.52887	0.00906
2363.24310	0.00882
2361.95733	0.00869
2360.67157	0.00875
2359.38580	0.00896
2358.10003	0.00913
2356.81426	0.00926
2355.52849	0.00954
2354.24272	0.00999
2352.95695	0.01035
2351.67118	0.01024
2350.38542	0.01003
2349.09965	0.01009
2347.81388	0.01019
2346.52811	0.01009
2345.24234	0.00996
2343.95657	0.01004
2342.67080	0.01050
2341.38503	0.01042
2340.09926	0.00992
2338.81350	0.00967
2337.52773	0.00964
2336.24196	0.00936
2334.95619	0.00935
2333.67042	0.00975
2332.38465	0.01025
2331.09888	0.00983
2329.81311	0.00968
2328.52735	0.00987
2327.24158	0.01007
2325.95581	0.01058
2324.67004	0.01106
2323.38427	0.01138
2322.09850	0.01105
2320.81273	0.01051
2319.52696	0.01010
2318.24119	0.00989
2316.95543	0.00978
2315.66966	0.00983
2314.38389	0.01005
2313.09812	0.01016
2311.81235	0.01005
2310.52658	0.00989
2309.24081	0.00978
2307.95504	0.00968
2306.66928	0.00948
2305.38351	0.00914
2304.09774	0.00886
2302.81197	0.00887
2301.52620	0.00918
2300.24043	0.00958
2298.95466	0.00979
2297.66889	0.00971
2296.38312	0.00942
2295.09736	0.00908
2293.81159	0.00879
2292.52582	0.00859
2291.24005	0.00856
2289.95428	0.00874
2288.66851	0.00901
2287.38274	0.00928
2286.09697	0.00948
2284.81121	0.00964
2283.52544	0.00974
2282.23967	0.00968
2280.95390	0.00941
2279.66813	0.00893
2278.38236	0.00830
2277.09659	0.00764
2275.81082	0.00710
2274.52505	0.00687
2273.23929	0.00704
2271.95352	0.00753
2270.66775	0.00811
2269.38198	0.00859
2268.09621	0.00879
2266.81044	0.00866
2265.52467	0.00827
2264.23890	0.00784
2262.95314	0.00758
2261.66737	0.00763
2260.38160	0.00793
2259.09583	0.00826
2257.81006	0.00841
2256.52429	0.00829
2255.23852	0.00796
2253.95275	0.00754
2252.66698	0.00720
2251.38122	0.00706
2250.09545	0.00723
2248.80968	0.00759
2247.52391	0.00783
2246.23814	0.00769
2244.95237	0.00742
2243.66660	0.00743
2242.38083	0.00782
2241.09507	0.00823
2239.80930	0.00826
2238.52353	0.00793
2237.23776	0.00759
2235.95199	0.00747
2234.66622	0.00750
2233.38045	0.00746
2232.09468	0.00724
2230.80891	0.00686
2229.52315	0.00636
2228.23738	0.00578
2226.95161	0.00538
2225.66584	0.00547
2224.38007	0.00609
2223.09430	0.00695
2221.80853	0.00759
2220.52276	0.00762
2219.23700	0.00691
2217.95123	0.00578
2216.66546	0.00487
2215.37969	0.00467
2214.09392	0.00514
2212.80815	0.00583
2211.52238	0.00625
2210.23661	0.00617
2208.95084	0.00575
2207.66508	0.00553
2206.37931	0.00587
2205.09354	0.00656
2203.80777	0.00687
2202.52200	0.00631
2201.23623	0.00525
2199.95046	0.00465
2198.66469	0.00502
2197.37893	0.00580
2196.09316	0.00601
2194.80739	0.00538
2193.52162	0.00449
2192.23585	0.00402
2190.95008	0.00407
2189.66431	0.00440
2188.37854	0.00478
2187.09277	0.00512
2185.80701	0.00534
2184.52124	0.00544
2183.23547	0.00548
2181.94970	0.00547
2180.66393	0.00530
2179.37816	0.00476
2178.09239	0.00394
2176.80662	0.00327
2175.52085	0.00312
2174.23509	0.00342
2172.94932	0.00378
2171.66355	0.00399
2170.37778	0.00409
2169.09201	0.00405
2167.80624	0.00362
2166.52047	0.00277
2165.23470	0.00193
2163.94894	0.00174
2162.66317	0.00222
2161.37740	0.00254
2160.09163	0.00178
2158.80586	0.00012
2157.52009	-0.00125
2156.23432	-0.00146
2154.94855	-0.00073
2153.66278	0.00031
2152.37702	0.00129
2151.09125	0.00214
2149.80548	0.00289
2148.51971	0.00349
2147.23394	0.00383
2145.94817	0.00381
2144.66240	0.00354
2143.37663	0.00314
2142.09087	0.00261
2140.80510	0.00196
2139.51933	0.00146
2138.23356	0.00145
2136.94779	0.00189
2135.66202	0.00234
2134.37625	0.00250
2133.09048	0.00246
2131.80471	0.00235
2130.51895	0.00217
2129.23318	0.00202
2127.94741	0.00220
2126.66164	0.00286
2125.37587	0.00370
2124.09010	0.00426
2122.80433	0.00443
2121.51856	0.00453
2120.23280	0.00475
2118.94703	0.00492
2117.66126	0.00475
2116.37549	0.00427
2115.08972	0.00388
2113.80395	0.00394
2112.51818	0.00447
2111.23241	0.00516
2109.94664	0.00567
2108.66088	0.00587
2107.37511	0.00582
2106.08934	0.00566
2104.80357	0.00555
2103.51780	0.00546
2102.23203	0.00513
2100.94626	0.00446
2099.66049	0.00383
2098.37473	0.00343
2097.08896	0.00333
2095.80319	0.00335
2094.51742	0.00326
2093.23165	0.00305
2091.94588	0.00293
2090.66011	0.00310
2089.37434	0.00348
2088.08857	0.00384
2086.80281	0.00402
2085.51704	0.00414
2084.23127	0.00438
2082.94550	0.00471
2081.65973	0.00486
2080.37396	0.00466
2079.08819	0.00428
2077.80242	0.00401
2076.51666	0.00400
2075.23089	0.00415
2073.94512	0.00428
2072.65935	0.00431
2071.37358	0.00429
2070.08781	0.00424
2068.80204	0.00413
2067.51627	0.00399
2066.23050	0.00389
2064.94474	0.00382
2063.65897	0.00375
2062.37320	0.00366
2061.08743	0.00360
2059.80166	0.00348
2058.51589	0.00303
2057.23012	0.00211
2055.94435	0.00104
2054.65859	0.00043
2053.37282	0.00060
2052.08705	0.00133
2050.80128	0.00209
2049.51551	0.00244
2048.22974	0.00221
2046.94397	0.00158
2045.65820	0.00097
2044.37243	0.00082
2043.08667	0.00122
2041.80090	0.00176
2040.51513	0.00188
2039.22936	0.00141
2037.94359	0.00061
2036.65782	-0.00019
2035.37205	-0.00088
2034.08628	-0.00135
2032.80052	-0.00146
2031.51475	-0.00119
2030.22898	-0.00079
2028.94321	-0.00047
2027.65744	-0.00006
2026.37167	0.00077
2025.08590	0.00198
2023.80013	0.00300
2022.51436	0.00321
2021.22860	0.00248
2019.94283	0.00136
2018.65706	0.00052
2017.37129	0.00024
2016.08552	0.00032
2014.79975	0.00051
2013.51398	0.00082
2012.22821	0.00145
2010.94245	0.00242
2009.65668	0.00339
2008.37091	0.00386
2007.08514	0.00361
2005.79937	0.00293
2004.51360	0.00241
2003.22783	0.00232
2001.94206	0.00248
2000.65629	0.00262
1999.37053	0.00279
1998.08476	0.00321
1996.79899	0.00394
1995.51322	0.00475
1994.22745	0.00522
1992.94168	0.00501
1991.65591	0.00416
1990.37014	0.00318
1989.08438	0.00282
1987.79861	0.00341
1986.51284	0.00455
1985.22707	0.00536
1983.94130	0.00521
1982.65553	0.00427
1981.36976	0.00335
1980.08399	0.00324
1978.79822	0.00403
1977.51246	0.00508
1976.22669	0.00566
1974.94092	0.00563
1973.65515	0.00540
1972.36938	0.00535
1971.08361	0.00539
1969.79784	0.00524
1968.51207	0.00488
1967.22631	0.00462
1965.94054	0.00472
1964.65477	0.00507
1963.36900	0.00526
1962.08323	0.00502
1960.79746	0.00446
1959.51169	0.00383
1958.22592	0.00338
1956.94015	0.00311
1955.65439	0.00295
1954.36862	0.00282
1953.08285	0.00278
1951.79708	0.00288
1950.51131	0.00307
1949.22554	0.00323
1947.93977	0.00335
1946.65400	0.00359
1945.36823	0.00404
1944.08247	0.00459
1942.79670	0.00492
1941.51093	0.00486
1940.22516	0.00453
1938.93939	0.00425
1937.65362	0.00423
1936.36785	0.00445
1935.08208	0.00474
1933.79632	0.00497
1932.51055	0.00516
1931.22478	0.00540
1929.93901	0.00570
1928.65324	0.00596
1927.36747	0.00608
1926.08170	0.00611
1924.79593	0.00609
1923.51016	0.00593
1922.22440	0.00556
1920.93863	0.00510
1919.65286	0.00478
1918.36709	0.00469
1917.08132	0.00470
1915.79555	0.00475
1914.50978	0.00494
1913.22401	0.00523
1911.93825	0.00541
1910.65248	0.00527
1909.36671	0.00487
1908.08094	0.00445
1906.79517	0.00423
1905.50940	0.00430
1904.22363	0.00457
1902.93786	0.00480
1901.65209	0.00481
1900.36633	0.00463
1899.08056	0.00446
1897.79479	0.00440
1896.50902	0.00441
1895.22325	0.00449
1893.93748	0.00472
1892.65171	0.00517
1891.36594	0.00573
1890.08018	0.00613
1888.79441	0.00628
1887.50864	0.00629
1886.22287	0.00631
1884.93710	0.00637
1883.65133	0.00632
1882.36556	0.00605
1881.07979	0.00562
1879.79402	0.00526
1878.50826	0.00514
1877.22249	0.00527
1875.93672	0.00548
1874.65095	0.00557
1873.36518	0.00551
1872.07941	0.00540
1870.79364	0.00538
1869.50787	0.00550
1868.22211	0.00574
1866.93634	0.00596
1865.65057	0.00603
1864.36480	0.00588
1863.07903	0.00559
1861.79326	0.00534
1860.50749	0.00531
1859.22172	0.00549
1857.93595	0.00573
1856.65019	0.00586
1855.36442	0.00584
1854.07865	0.00575
1852.79288	0.00568
1851.50711	0.00562
1850.22134	0.00557
1848.93557	0.00555
1847.64980	0.00560
1846.36404	0.00568
1845.07827	0.00574
1843.79250	0.00573
1842.50673	0.00566
1841.22096	0.00556
1839.93519	0.00550
1838.64942	0.00551
1837.36365	0.00555
1836.07788	0.00553
1834.79212	0.00543
1833.50635	0.00533
1832.22058	0.00535
1830.93481	0.00553
1829.64904	0.00578
1828.36327	0.00591
1827.07750	0.00587
1825.79173	0.00576
1824.50597	0.00570
1823.22020	0.00573
1821.93443	0.00578
1820.64866	0.00577
1819.36289	0.00570
1818.07712	0.00560
1816.79135	0.00557
1815.50558	0.00563
1814.21981	0.00575
1812.93405	0.00584
1811.64828	0.00581
1810.36251	0.00570
1809.07674	0.00557
1807.79097	0.00553
1806.50520	0.00560
1805.21943	0.00572
1803.93366	0.00584
1802.64790	0.00591
1801.36213	0.00595
1800.07636	0.00602
1798.79059	0.00613
1797.50482	0.00628
1796.21905	0.00642
1794.93328	0.00646
1793.64751	0.00637
1792.36174	0.00616
1791.07598	0.00593
1789.79021	0.00578
1788.50444	0.00572
1787.21867	0.00568
1785.93290	0.00562
1784.64713	0.00557
1783.36136	0.00557
1782.07559	0.00563
1780.78983	0.00570
1779.50406	0.00571
1778.21829	0.00569
1776.93252	0.00568
1775.64675	0.00571
1774.36098	0.00573
1773.07521	0.00570
1771.78944	0.00562
1770.50367	0.00559
1769.21791	0.00565
1767.93214	0.00581
1766.64637	0.00599
1765.36060	0.00609
1764.07483	0.00608
1762.78906	0.00598
1761.50329	0.00584
1760.21752	0.00572
1758.93176	0.00564
1757.64599	0.00565
1756.36022	0.00573
1755.07445	0.00587
1753.78868	0.00600
1752.50291	0.00605
1751.21714	0.00601
1749.93137	0.00593
1748.64560	0.00585
1747.35984	0.00580
1746.07407	0.00577
1744.78830	0.00573
1743.50253	0.00569
1742.21676	0.00563
1740.93099	0.00556
1739.64522	0.00551
1738.35945	0.00550
1737.07369	0.00554
1735.78792	0.00557
1734.50215	0.00557
1733.21638	0.00558
1731.93061	0.00562
1730.64484	0.00566
1729.35907	0.00568
1728.07330	0.00567
1726.78753	0.00571
1725.50177	0.00584
1724.21600	0.00602
1722.93023	0.00615
1721.64446	0.00617
1720.35869	0.00611
1719.07292	0.00604
1717.78715	0.00603
1716.50138	0.00609
1715.21561	0.00618
1713.92985	0.00623
1712.64408	0.00626
1711.35831	0.00631
1710.07254	0.00644
1708.78677	0.00665
1707.50100	0.00691
1706.21523	0.00719
1704.92946	0.00744
1703.64370	0.00766
1702.35793	0.00784
1701.07216	0.00806
1699.78639	0.00835
1698.50062	0.00871
1697.21485	0.00910
1695.92908	0.00947
1694.64331	0.00982
1693.35754	0.01015
1692.07178	0.01048
1690.78601	0.01086
1689.50024	0.01127
1688.21447	0.01170
1686.92870	0.01212
1685.64293	0.01248
1684.35716	0.01280
1683.07139	0.01309
1681.78563	0.01339
1680.49986	0.01373
1679.21409	0.01411
1677.92832	0.01453
1676.64255	0.01498
1675.35678	0.01543
1674.07101	0.01586
1672.78524	0.01625
1671.49947	0.01656
1670.21371	0.01683
1668.92794	0.01705
1667.64217	0.01728
1666.35640	0.01754
1665.07063	0.01785
1663.78486	0.01820
1662.49909	0.01856
1661.21332	0.01892
1659.92756	0.01925
1658.64179	0.01953
1657.35602	0.01978
1656.07025	0.01997
1654.78448	0.02010
1653.49871	0.02020
1652.21294	0.02032
1650.92717	0.02050
1649.64140	0.02071
1648.35564	0.02087
1647.06987	0.02093
1645.78410	0.02088
1644.49833	0.02081
1643.21256	0.02075
1641.92679	0.02074
1640.64102	0.02077
1639.35525	0.02082
1638.06949	0.02085
1636.78372	0.02081
1635.49795	0.02069
1634.21218	0.02049
1632.92641	0.02026
1631.64064	0.01999
1630.35487	0.01971
1629.06910	0.01942
1627.78333	0.01912
1626.49757	0.01883
1625.21180	0.01851
1623.92603	0.01817
1622.64026	0.01782
1621.35449	0.01750
1620.06872	0.01720
1618.78295	0.01690
1617.49718	0.01657
1616.21142	0.01623
1614.92565	0.01591
1613.63988	0.01563
1612.35411	0.01539
1611.06834	0.01516
1609.78257	0.01495
1608.49680	0.01473
1607.21103	0.01453
1605.92526	0.01438
1604.63950	0.01429
1603.35373	0.01424
1602.06796	0.01418
1600.78219	0.01411
1599.49642	0.01404
1598.21065	0.01399
1596.92488	0.01395
1595.63911	0.01393
1594.35335	0.01394
1593.06758	0.01399
1591.78181	0.01408
1590.49604	0.01414
1589.21027	0.01417
1587.92450	0.01416
1586.63873	0.01419
1585.35296	0.01428
1584.06719	0.01442
1582.78143	0.01457
1581.49566	0.01470
1580.20989	0.01483
1578.92412	0.01498
1577.63835	0.01517
1576.35258	0.01538
1575.06681	0.01561
1573.78104	0.01584
1572.49528	0.01607
1571.20951	0.01628
1569.92374	0.01649
1568.63797	0.01670
1567.35220	0.01695
1566.06643	0.01720
1564.78066	0.01742
1563.49489	0.01757
1562.20912	0.01766
1560.92336	0.01773
1559.63759	0.01784
1558.35182	0.01801
1557.06605	0.01824
1555.78028	0.01850
1554.49451	0.01875
1553.20874	0.01897
1551.92297	0.01914
1550.63721	0.01928
1549.35144	0.01939
1548.06567	0.01949
1546.77990	0.01956
1545.49413	0.01960
1544.20836	0.01964
1542.92259	0.01970
1541.63682	0.01979
1540.35105	0.01991
1539.06529	0.02004
1537.77952	0.02015
1536.49375	0.02024
1535.20798	0.02031
1533.92221	0.02038
1532.63644	0.02045
1531.35067	0.02052
1530.06490	0.02056
1528.77914	0.02059
1527.49337	0.02064
1526.20760	0.02072
1524.92183	0.02083
1523.63606	0.02094
1522.35029	0.02102
1521.06452	0.02110
1519.77875	0.02122
1518.49298	0.02136
1517.20722	0.02152
1515.92145	0.02168
1514.63568	0.02184
1513.34991	0.02202
1512.06414	0.02220
1510.77837	0.02237
1509.49260	0.02253
1508.20683	0.02269
1506.92107	0.02285
1505.63530	0.02300
1504.34953	0.02316
1503.06376	0.02333
1501.77799	0.02350
1500.49222	0.02365
1499.20645	0.02376
1497.92068	0.02381
1496.63491	0.02382
1495.34915	0.02381
1494.06338	0.02382
1492.77761	0.02390
1491.49184	0.02406
1490.20607	0.02428
1488.92030	0.02452
1487.63453	0.02474
1486.34876	0.02494
1485.06299	0.02515
1483.77723	0.02540
1482.49146	0.02568
1481.20569	0.02595
1479.91992	0.02621
1478.63415	0.02648
1477.34838	0.02678
1476.06261	0.02711
1474.77684	0.02744
1473.49108	0.02775
1472.20531	0.02804
1470.91954	0.02830
1469.63377	0.02858
1468.34800	0.02885
1467.06223	0.02912
1465.77646	0.02938
1464.49069	0.02961
1463.20492	0.02983
1461.91916	0.03005
1460.63339	0.03032
1459.34762	0.03066
1458.06185	0.03104
1456.77608	0.03139
1455.49031	0.03168
1454.20454	0.03191
1452.91877	0.03209
1451.63301	0.03221
1450.34724	0.03229
1449.06147	0.03237
1447.77570	0.03250
1446.48993	0.03262
1445.20416	0.03265
1443.91839	0.03255
1442.63262	0.03235
1441.34685	0.03211
1440.06109	0.03190
1438.77532	0.03173
1437.48955	0.03163
1436.20378	0.03158
1434.91801	0.03156
1433.63224	0.03157
1432.34647	0.03160
1431.06070	0.03168
1429.77494	0.03181
1428.48917	0.03201
1427.20340	0.03228
1425.91763	0.03263
1424.63186	0.03304
1423.34609	0.03344
1422.06032	0.03379
1420.77455	0.03406
1419.48878	0.03428
1418.20302	0.03446
1416.91725	0.03462
1415.63148	0.03476
1414.34571	0.03490
1413.05994	0.03503
1411.77417	0.03511
1410.48840	0.03510
1409.20263	0.03498
1407.91687	0.03476
1406.63110	0.03449
1405.34533	0.03423
1404.05956	0.03397
1402.77379	0.03367
1401.48802	0.03328
1400.20225	0.03280
1398.91648	0.03223
1397.63071	0.03164
1396.34495	0.03104
1395.05918	0.03045
1393.77341	0.02983
1392.48764	0.02921
1391.20187	0.02860
1389.91610	0.02804
1388.63033	0.02752
1387.34456	0.02700
1386.05880	0.02644
1384.77303	0.02584
1383.48726	0.02520
1382.20149	0.02458
1380.91572	0.02400
1379.62995	0.02346
1378.34418	0.02295
1377.05841	0.02246
1375.77264	0.02197
1374.48688	0.02144
1373.20111	0.02088
1371.91534	0.02033
1370.62957	0.01982
1369.34380	0.01934
1368.05803	0.01889
1366.77226	0.01846
1365.48649	0.01805
1364.20073	0.01765
1362.91496	0.01726
1361.62919	0.01686
1360.34342	0.01647
1359.05765	0.01614
1357.77188	0.01587
1356.48611	0.01565
1355.20034	0.01544
1353.91457	0.01522
1352.62881	0.01499
1351.34304	0.01477
1350.05727	0.01456
1348.77150	0.01438
1347.48573	0.01423
1346.19996	0.01411
1344.91419	0.01400
1343.62842	0.01391
1342.34266	0.01383
1341.05689	0.01375
1339.77112	0.01367
1338.48535	0.01361
1337.19958	0.01357
1335.91381	0.01352
1334.62804	0.01342
1333.34227	0.01326
1332.05650	0.01307
1330.77074	0.01291
1329.48497	0.01276
1328.19920	0.01263
1326.91343	0.01252
1325.62766	0.01244
1324.34189	0.01238
1323.05612	0.01230
1321.77035	0.01220
1320.48459	0.01208
1319.19882	0.01199
1317.91305	0.01192
1316.62728	0.01185
1315.34151	0.01174
1314.05574	0.01158
1312.76997	0.01141
1311.48420	0.01127
1310.19843	0.01116
1308.91267	0.01108
1307.62690	0.01102
1306.34113	0.01100
1305.05536	0.01102
1303.76959	0.01102
1302.48382	0.01098
1301.19805	0.01088
1299.91228	0.01077
1298.62652	0.01068
1297.34075	0.01064
1296.05498	0.01063
1294.76921	0.01059
1293.48344	0.01048
1292.19767	0.01031
1290.91190	0.01014
1289.62613	0.01005
1288.34036	0.01007
1287.05460	0.01019
1285.76883	0.01032
1284.48306	0.01039
1283.19729	0.01038
1281.91152	0.01031
1280.62575	0.01020
1279.33998	0.01008
1278.05421	0.00998
1276.76845	0.00992
1275.48268	0.00991
1274.19691	0.00992
1272.91114	0.00991
1271.62537	0.00989
1270.33960	0.00988
1269.05383	0.00988
1267.76806	0.00989
1266.48229	0.00993
1265.19653	0.00999
1263.91076	0.01007
1262.62499	0.01012
1261.33922	0.01014
1260.05345	0.01011
1258.76768	0.01004
1257.48191	0.00995
1256.19614	0.00987
1254.91037	0.00979
1253.62461	0.00972
1252.33884	0.00965
1251.05307	0.00959
1249.76730	0.00954
1248.48153	0.00953
1247.19576	0.00956
1245.90999	0.00963
1244.62422	0.00971
1243.33846	0.00977
1242.05269	0.00982
1240.76692	0.00985
1239.48115	0.00985
1238.19538	0.00981
1236.90961	0.00973
1235.62384	0.00967
1234.33807	0.00965
1233.05230	0.00964
1231.76654	0.00959
1230.48077	0.00946
1229.19500	0.00928
1227.90923	0.00913
1226.62346	0.00903
1225.33769	0.00896
1224.05192	0.00888
1222.76615	0.00876
1221.48039	0.00863
1220.19462	0.00852
1218.90885	0.00845
1217.62308	0.00840
1216.33731	0.00833
1215.05154	0.00825
1213.76577	0.00815
1212.48000	0.00807
1211.19423	0.00801
1209.90847	0.00799
1208.62270	0.00798
1207.33693	0.00795
1206.05116	0.00793
1204.76539	0.00792
1203.47962	0.00792
1202.19385	0.00791
1200.90808	0.00790
1199.62232	0.00790
1198.33655	0.00790
1197.05078	0.00785
1195.76501	0.00775
1194.47924	0.00763
1193.19347	0.00755
1191.90770	0.00749
1190.62193	0.00745
1189.33616	0.00742
1188.05040	0.00740
1186.76463	0.00738
1185.47886	0.00735
1184.19309	0.00728
1182.90732	0.00718
1181.62155	0.00707
1180.33578	0.00703
1179.05001	0.00707
1177.76425	0.00718
1176.47848	0.00728
1175.19271	0.00734
1173.90694	0.00738
1172.62117	0.00739
1171.33540	0.00736
1170.04963	0.00728
1168.76386	0.00720
1167.47809	0.00719
1166.19233	0.00722
1164.90656	0.00726
1163.62079	0.00727
1162.33502	0.00727
1161.04925	0.00729
1159.76348	0.00735
1158.47771	0.00745
1157.19194	0.00761
1155.90618	0.00779
1154.62041	0.00796
1153.33464	0.00806
1152.04887	0.00806
1150.76310	0.00803
1149.47733	0.00805
1148.19156	0.00818
1146.90579	0.00840
1145.62002	0.00861
1144.33426	0.00876
1143.04849	0.00887
1141.76272	0.00903
1140.47695	0.00926
1139.19118	0.00956
1137.90541	0.00993
1136.61964	0.01039
1135.33387	0.01091
1134.04811	0.01144
1132.76234	0.01197
1131.47657	0.01257
1130.19080	0.01329
1128.90503	0.01413
1127.61926	0.01504
1126.33349	0.01600
1125.04772	0.01702
1123.76195	0.01814
1122.47619	0.01939
1121.19042	0.02071
1119.90465	0.02206
1118.61888	0.02341
1117.33311	0.02475
1116.04734	0.02608
1114.76157	0.02740
1113.47580	0.02873
1112.19004	0.03011
1110.90427	0.03157
1109.61850	0.03308
1108.33273	0.03457
1107.04696	0.03592
1105.76119	0.03710
1104.47542	0.03819
1103.18965	0.03929
1101.90388	0.04045
1100.61812	0.04157
1099.33235	0.04258
1098.04658	0.04345
1096.76081	0.04428
1095.47504	0.04515
1094.18927	0.04602
1092.90350	0.04683
1091.61773	0.04753
1090.33197	0.04816
1089.04620	0.04883
1087.76043	0.04954
1086.47466	0.05025
1085.18889	0.05090
1083.90312	0.05153
1082.61735	0.05221
1081.33158	0.05300
1080.04581	0.05388
1078.76005	0.05484
1077.47428	0.05590
1076.18851	0.05704
1074.90274	0.05823
1073.61697	0.05941
1072.33120	0.06057
1071.04543	0.06173
1069.75966	0.06289
1068.47390	0.06405
1067.18813	0.06524
1065.90236	0.06648
1064.61659	0.06774
1063.33082	0.06898
1062.04505	0.07018
1060.75928	0.07135
1059.47351	0.07254
1058.18774	0.07376
1056.90198	0.07501
1055.61621	0.07627
1054.33044	0.07752
1053.04467	0.07875
1051.75890	0.07996
1050.47313	0.08115
1049.18736	0.08232
1047.90159	0.08347
1046.61583	0.08459
1045.33006	0.08565
1044.04429	0.08663
1042.75852	0.08755
1041.47275	0.08847
1040.18698	0.08941
1038.90121	0.09036
1037.61544	0.09130
1036.32967	0.09222
1035.04391	0.09313
1033.75814	0.09402
1032.47237	0.09484
1031.18660	0.09549
1029.90083	0.09593
1028.61506	0.09622
1027.32929	0.09642
1026.04352	0.09660
1024.75775	0.09668
1023.47199	0.09655
1022.18622	0.09615
1020.90045	0.09548
1019.61468	0.09465
1018.32891	0.09374
1017.04314	0.09276
1015.75737	0.09163
1014.47160	0.09028
1013.18584	0.08872
1011.90007	0.08705
1010.61430	0.08532
1009.32853	0.08350
1008.04276	0.08154
1006.75699	0.07946
1005.47122	0.07730
1004.18545	0.07515
1002.89968	0.07301
1001.61392	0.07084
1000.32815	0.06863
999.04238	0.06639
997.75661	0.06416
996.47084	0.06194
995.18507	0.05976
993.89930	0.05764
992.61353	0.05561
991.32777	0.05366
990.04200	0.05183
988.75623	0.05009
987.47046	0.04843
986.18469	0.04675
984.89892	0.04503
983.61315	0.04334
982.32738	0.04177
981.04161	0.04039
979.75585	0.03920
978.47008	0.03812
977.18431	0.03708
975.89854	0.03607
974.61277	0.03511
973.32700	0.03426
972.04123	0.03359
970.75546	0.03314
969.46970	0.03290
968.18393	0.03284
966.89816	0.03293
965.61239	0.03315
964.32662	0.03347
963.04085	0.03383
961.75508	0.03412
960.46931	0.03421
959.18354	0.03403
957.89778	0.03360
956.61201	0.03300
955.32624	0.03230
954.04047	0.03159
952.75470	0.03089
951.46893	0.03020
950.18316	0.02951
948.89739	0.02880
947.61163	0.02806
946.32586	0.02732
945.04009	0.02661
943.75432	0.02598
942.46855	0.02546
941.18278	0.02502
939.89701	0.02463
938.61124	0.02422
937.32547	0.02377
936.03971	0.02328
934.75394	0.02277
933.46817	0.02230
932.18240	0.02190
930.89663	0.02155
929.61086	0.02123
928.32509	0.02094
927.03932	0.02069
925.75356	0.02051
924.46779	0.02038
923.18202	0.02023
921.89625	0.02005
920.61048	0.01982
919.32471	0.01954
918.03894	0.01921
916.75317	0.01887
915.46740	0.01855
914.18164	0.01830
912.89587	0.01813
911.61010	0.01803
910.32433	0.01801
909.03856	0.01802
907.75279	0.01801
906.46702	0.01793
905.18125	0.01774
903.89549	0.01746
902.60972	0.01717
901.32395	0.01690
900.03818	0.01670
898.75241	0.01655
897.46664	0.01644
896.18087	0.01638
894.89510	0.01636
893.60933	0.01642
892.32357	0.01651
891.03780	0.01658
889.75203	0.01659
888.46626	0.01662
887.18049	0.01682
885.89472	0.01725
884.60895	0.01791
883.32318	0.01873
882.03742	0.01967
880.75165	0.02060
879.46588	0.02141
878.18011	0.02205
876.89434	0.02254
875.60857	0.02298
874.32280	0.02340
873.03703	0.02372
871.75126	0.02377
870.46550	0.02347
869.17973	0.02289
867.89396	0.02219
866.60819	0.02149
865.32242	0.02081
864.03665	0.02011
862.75088	0.01941
861.46511	0.01875
860.17935	0.01822
858.89358	0.01783
857.60781	0.01755
856.32204	0.01730
855.03627	0.01702
853.75050	0.01673
852.46473	0.01647
851.17896	0.01624
849.89319	0.01602
848.60743	0.01581
847.32166	0.01566
846.03589	0.01559
844.75012	0.01554
843.46435	0.01542
842.17858	0.01521
840.89281	0.01497
839.60704	0.01480
838.32128	0.01472
837.03551	0.01471
835.74974	0.01472
834.46397	0.01475
833.17820	0.01477
831.89243	0.01475
830.60666	0.01469
829.32089	0.01456
828.03512	0.01441
826.74936	0.01430
825.46359	0.01423
824.17782	0.01421
822.89205	0.01422
821.60628	0.01428
820.32051	0.01432
819.03474	0.01428
817.74897	0.01412
816.46321	0.01389
815.17744	0.01367
813.89167	0.01354
812.60590	0.01351
811.32013	0.01354
810.03436	0.01360
808.74859	0.01361
807.46282	0.01360
806.17705	0.01358
804.89129	0.01360
803.60552	0.01363
802.31975	0.01366
801.03398	0.01365
799.74821	0.01358
798.46244	0.01348
797.17667	0.01341
795.89090	0.01339
794.60513	0.01340
793.31937	0.01344
792.03360	0.01349
790.74783	0.01353
789.46206	0.01354
788.17629	0.01354
786.89052	0.01354
785.60475	0.01354
784.31898	0.01355
783.03322	0.01353
781.74745	0.01351
780.46168	0.01349
779.17591	0.01352
777.89014	0.01359
776.60437	0.01366
775.31860	0.01367
774.03283	0.01361
772.74706	0.01352
771.46130	0.01350
770.17553	0.01359
768.88976	0.01373
767.60399	0.01378
766.31822	0.01370
765.03245	0.01353
763.74668	0.01339
762.46091	0.01334
761.17515	0.01336
759.88938	0.01343
758.60361	0.01353
757.31784	0.01360
756.03207	0.01360
754.74630	0.01355
753.46053	0.01351
752.17476	0.01357
750.88899	0.01372
749.60323	0.01387
748.31746	0.01396
747.03169	0.01394
745.74592	0.01380
744.46015	0.01356
743.17438	0.01327
741.88861	0.01305
740.60284	0.01296
739.31708	0.01299
738.03131	0.01310
736.74554	0.01323
735.45977	0.01334
734.17400	0.01343
732.88823	0.01351
731.60246	0.01356
730.31669	0.01356
729.03092	0.01351
727.74516	0.01348
726.45939	0.01354
725.17362	0.01367
723.88785	0.01383
722.60208	0.01402
721.31631	0.01420
720.03054	0.01434
718.74477	0.01442
717.45901	0.01441
716.17324	0.01434
714.88747	0.01427
713.60170	0.01419
712.31593	0.01412
711.03016	0.01407
709.74439	0.01406
708.45862	0.01413
707.17285	0.01423
705.88709	0.01429
704.60132	0.01428
703.31555	0.01422
702.02978	0.01418
700.74401	0.01417
699.45824	0.01418
698.17247	0.01417
696.88670	0.01415
695.60094	0.01412
694.31517	0.01410
693.02940	0.01411
691.74363	0.01413
690.45786	0.01416
689.17209	0.01416
687.88632	0.01414
686.60055	0.01413
685.31478	0.01416
684.02902	0.01424
682.74325	0.01431
681.45748	0.01436
680.17171	0.01435
678.88594	0.01430
677.60017	0.01424
676.31440	0.01419
675.02863	0.01420
673.74287	0.01426
672.45710	0.01434
671.17133	0.01442
669.88556	0.01446
668.59979	0.01446
667.31402	0.01443
666.02825	0.01438
664.74248	0.01434
663.45671	0.01434
662.17095	0.01438
660.88518	0.01442
659.59941	0.01442
658.31364	0.01435
657.02787	0.01424
655.74210	0.01414
654.45633	0.01407
653.17056	0.01407
651.88480	0.01415
650.59903	0.01429
649.31326	0.01441
648.02749	0.01448
646.74172	0.01448
645.45595	0.01448
644.17018	0.01453
642.88441	0.01464
641.59864	0.01478
640.31288	0.01491
639.02711	0.01499
637.74134	0.01503
636.45557	0.01506
635.16980	0.01511
633.88403	0.01521
632.59826	0.01536
631.31249	0.01558
630.02673	0.01594
628.74096	0.01636
627.45519	0.01649
626.16942	0.01662
624.88365	0.01661
623.59788	0.01650
622.31211	0.01677
621.02634	0.01759
619.74057	0.01843
618.45481	0.01887
617.16904	0.01920
615.88327	0.02007
614.59750	0.02180
613.31173	0.02435
612.02596	0.02755
610.74019	0.03092
609.45442	0.03370
608.16866	0.03548
606.88289	0.03667
605.59712	0.03802
604.31135	0.03977
603.02558	0.04147
601.73981	0.04242
600.45404	0.04227
599.16827	0.04120
597.88250	0.03966
596.59674	0.03803
595.31097	0.03654
594.02520	0.03528
592.73943	0.03434
591.45366	0.03374
590.16789	0.03346
588.88212	0.03345
587.59635	0.03369
586.31059	0.03415
585.02482	0.03480
583.73905	0.03559
582.45328	0.03652
581.16751	0.03760
579.88174	0.03883
578.59597	0.04016
577.31020	0.04151
576.02443	0.04277
574.73867	0.04385
573.45290	0.04477
572.16713	0.04568
570.88136	0.04678
569.59559	0.04810
568.30982	0.04955
567.02405	0.05098
565.73828	0.05226
564.45251	0.05323
563.16675	0.05365
561.88098	0.05339
560.59521	0.05246
559.30944	0.05098
558.02367	0.04908
556.73790	0.04682
555.45213	0.04430
554.16636	0.04167
552.88060	0.03914
551.59483	0.03685
550.30906	0.03484
549.02329	0.03311
547.73752	0.03162
546.45175	0.03033
545.16598	0.02919
543.88021	0.02813
542.59444	0.02711
541.30868	0.02615
540.02291	0.02526
538.73714	0.02450
537.45137	0.02391
536.16560	0.02348
534.87983	0.02314
533.59406	0.02277
532.30829	0.02231
531.02253	0.02176
529.73676	0.02120
528.45099	0.02069
527.16522	0.02028
525.87945	0.01996
524.59368	0.01968
523.30791	0.01942
522.02214	0.01916
520.73637	0.01896
519.45061	0.01882
518.16484	0.01869
516.87907	0.01847
515.59330	0.01813
514.30753	0.01769
513.02176	0.01721
511.73599	0.01681
510.45022	0.01652
509.16446	0.01630
507.87869	0.01606
506.59292	0.01575
505.30715	0.01541
504.02138	0.01512
502.73561	0.01494
501.44984	0.01489
500.16407	0.01493
498.87830	0.01499
497.59254	0.01499
496.30677	0.01492
495.02100	0.01478
493.73523	0.01461
492.44946	0.01448
491.16369	0.01443
489.87792	0.01444
488.59215	0.01446
487.30639	0.01440
486.02062	0.01422
484.73485	0.01396
483.44908	0.01375
482.16331	0.01368
480.87754	0.01376
479.59177	0.01393
478.30600	0.01411
477.02023	0.01429
475.73447	0.01448
474.44870	0.01468
473.16293	0.01483
471.87716	0.01487
470.59139	0.01479
469.30562	0.01464
468.01985	0.01449
466.73408	0.01438
465.44832	0.01430
464.16255	0.01421
462.87678	0.01408
461.59101	0.01391
460.30524	0.01379
459.01947	0.01375
457.73370	0.01373
456.44793	0.01363
455.16216	0.01339
453.87640	0.01306
452.59063	0.01275
451.30486	0.01257
450.01909	0.01252
448.73332	0.01256
447.44755	0.01258
446.16178	0.01255
444.87601	0.01247
443.59025	0.01238
442.30448	0.01230
441.01871	0.01221
439.73294	0.01208
438.44717	0.01195
437.16140	0.01186
435.87563	0.01183
434.58986	0.01182
433.30409	0.01180
432.01833	0.01175
430.73256	0.01172
429.44679	0.01173
428.16102	0.01173
426.87525	0.01169
425.58948	0.01160
424.30371	0.01152
423.01794	0.01147
421.73218	0.01144
420.44641	0.01141
419.16064	0.01137
417.87487	0.01131
416.58910	0.01124
415.30333	0.01116
414.01756	0.01109
412.73179	0.01105
411.44602	0.01103
410.16026	0.01100
408.87449	0.01097
407.58872	0.01097
406.30295	0.01098
405.01718	0.01098
403.73141	0.01096
402.44564	0.01091
401.15987	0.01089
399.87411	0.01092
