3997.45528	-0.00025
3996.16951	-0.00068
3994.88374	-0.00140
3993.59798	-0.00215
3992.31221	-0.00251
3991.02644	-0.00232
3989.74067	-0.00170
3988.45490	-0.00089
3987.16913	-0.00013
3985.88336	0.00033
3984.59759	0.00035
3983.31183	0.00012
3982.02606	-0.00000
3980.74029	0.00024
3979.45452	0.00084
3978.16875	0.00161
3976.88298	0.00229
3975.59721	0.00263
3974.31144	0.00245
3973.02567	0.00196
3971.73991	0.00162
3970.45414	0.00171
3969.16837	0.00202
3967.88260	0.00209
3966.59683	0.00176
3965.31106	0.00123
3964.02529	0.00079
3962.73952	0.00057
3961.45376	0.00066
3960.16799	0.00107
3958.88222	0.00169
3957.59645	0.00219
3956.31068	0.00239
3955.02491	0.00245
3953.73914	0.00271
3952.45337	0.00328
3951.16760	0.00394
3949.88184	0.00433
3948.59607	0.00418
3947.31030	0.00352
3946.02453	0.00263
3944.73876	0.00196
3943.45299	0.00185
3942.16722	0.00223
3940.88145	0.00275
3939.59569	0.00308
3938.30992	0.00316
3937.02415	0.00310
3935.73838	0.00295
3934.45261	0.00265
3933.16684	0.00218
3931.88107	0.00176
3930.59530	0.00172
3929.30953	0.00223
3928.02377	0.00315
3926.73800	0.00419
3925.45223	0.00512
3924.16646	0.00578
3922.88069	0.00607
3921.59492	0.00589
3920.30915	0.00523
3919.02338	0.00422
3917.73762	0.00318
3916.45185	0.00239
3915.16608	0.00194
3913.88031	0.00177
3912.59454	0.00183
3911.30877	0.00213
3910.02300	0.00257
3908.73723	0.00293
3907.45146	0.00306
3906.16570	0.00308
3904.87993	0.00318
3903.59416	0.00340
3902.30839	0.00351
3901.02262	0.00333
3899.73685	0.00295
3898.45108	0.00272
3897.16531	0.00286
3895.87955	0.00327
3894.59378	0.00362
3893.30801	0.00372
3892.02224	0.00371
3890.73647	0.00387
3889.45070	0.00433
3888.16493	0.00497
3886.87916	0.00560
3885.59339	0.00617
3884.30763	0.00663
3883.02186	0.00686
3881.73609	0.00667
3880.45032	0.00609
3879.16455	0.00531
3877.87878	0.00462
3876.59301	0.00411
3875.30724	0.00373
3874.02148	0.00341
3872.73571	0.00322
3871.44994	0.00327
3870.16417	0.00359
3868.87840	0.00405
3867.59263	0.00457
3866.30686	0.00511
3865.02109	0.00552
3863.73532	0.00565
3862.44956	0.00554
3861.16379	0.00547
3859.87802	0.00561
3858.59225	0.00584
3857.30648	0.00601
3856.02071	0.00619
3854.73494	0.00658
3853.44917	0.00713
3852.16341	0.00757
3850.87764	0.00775
3849.59187	0.00775
3848.30610	0.00766
3847.02033	0.00744
3845.73456	0.00700
3844.44879	0.00642
3843.16302	0.00587
3841.87725	0.00539
3840.59149	0.00490
3839.30572	0.00438
3838.01995	0.00395
3836.73418	0.00376
3835.44841	0.00381
3834.16264	0.00405
3832.87687	0.00440
3831.59110	0.00483
3830.30534	0.00528
3829.01957	0.00574
3827.73380	0.00619
3826.44803	0.00657
3825.16226	0.00678
3823.87649	0.00683
3822.59072	0.00678
3821.30495	0.00666
3820.01918	0.00645
3818.73342	0.00617
3817.44765	0.00602
3816.16188	0.00627
3814.87611	0.00685
3813.59034	0.00727
3812.30457	0.00697
3811.01880	0.00590
3809.73303	0.00454
3808.44726	0.00357
3807.16150	0.00337
3805.87573	0.00386
3804.58996	0.00458
3803.30419	0.00515
3802.01842	0.00551
3800.73265	0.00586
3799.44688	0.00628
3798.16111	0.00665
3796.87535	0.00682
3795.58958	0.00675
3794.30381	0.00655
3793.01804	0.00641
3791.73227	0.00649
3790.44650	0.00677
3789.16073	0.00707
3787.87496	0.00724
3786.58919	0.00727
3785.30343	0.00723
3784.01766	0.00718
3782.73189	0.00719
3781.44612	0.00733
3780.16035	0.00753
3778.87458	0.00754
3777.58881	0.00715
3776.30304	0.00648
3775.01728	0.00590
3773.73151	0.00568
3772.44574	0.00569
3771.15997	0.00561
3769.87420	0.00543
3768.58843	0.00551
3767.30266	0.00612
3766.01689	0.00704
3764.73112	0.00772
3763.44536	0.00778
3762.15959	0.00734
3760.87382	0.00678
3759.58805	0.00640
3758.30228	0.00618
3757.01651	0.00592
3755.73074	0.00550
3754.44497	0.00511
3753.15921	0.00511
3751.87344	0.00570
3750.58767	0.00664
3749.30190	0.00733
3748.01613	0.00745
3746.73036	0.00710
3745.44459	0.00652
3744.15882	0.00598
3742.87305	0.00550
3741.58729	0.00492
3740.30152	0.00433
3739.01575	0.00401
3737.72998	0.00400
3736.44421	0.00416
3735.15844	0.00418
3733.87267	0.00438
3732.58690	0.00469
3731.30114	0.00481
3730.01537	0.00457
3728.72960	0.00381
3727.44383	0.00315
3726.15806	0.00312
3724.87229	0.00376
3723.58652	0.00470
3722.30075	0.00489
3721.01498	0.00399
3719.72922	0.00288
3718.44345	0.00234
3717.15768	0.00262
3715.87191	0.00345
3714.58614	0.00456
3713.30037	0.00579
3712.01460	0.00631
3710.72883	0.00592
3709.44307	0.00532
3708.15730	0.00467
3706.87153	0.00430
3705.58576	0.00405
3704.29999	0.00375
3703.01422	0.00367
3701.72845	0.00404
3700.44268	0.00478
3699.15691	0.00575
3697.87115	0.00688
3696.58538	0.00798
3695.29961	0.00857
3694.01384	0.00860
3692.72807	0.00802
3691.44230	0.00743
3690.15653	0.00732
3688.87076	0.00732
3687.58500	0.00718
3686.29923	0.00713
3685.01346	0.00703
3683.72769	0.00700
3682.44192	0.00725
3681.15615	0.00757
3679.87038	0.00779
3678.58461	0.00796
3677.29884	0.00810
3676.01308	0.00848
3674.72731	0.00893
3673.44154	0.00890
3672.15577	0.00828
3670.87000	0.00743
3669.58423	0.00690
3668.29846	0.00685
3667.01269	0.00712
3665.72693	0.00759
3664.44116	0.00810
3663.15539	0.00860
3661.86962	0.00899
3660.58385	0.00936
3659.29808	0.00988
3658.01231	0.01051
3656.72654	0.01096
3655.44077	0.01095
3654.15501	0.01056
3652.86924	0.01014
3651.58347	0.01005
3650.29770	0.01035
3649.01193	0.01087
3647.72616	0.01137
3646.44039	0.01185
3645.15462	0.01237
3643.86886	0.01275
3642.58309	0.01280
3641.29732	0.01254
3640.01155	0.01227
3638.72578	0.01225
3637.44001	0.01242
3636.15424	0.01259
3634.86847	0.01277
3633.58270	0.01297
3632.29694	0.01329
3631.01117	0.01365
3629.72540	0.01365
3628.43963	0.01341
3627.15386	0.01323
3625.86809	0.01340
3624.58232	0.01363
3623.29655	0.01400
3622.01079	0.01437
3620.72502	0.01489
3619.43925	0.01532
3618.15348	0.01565
3616.86771	0.01594
3615.58194	0.01613
3614.29617	0.01642
3613.01040	0.01718
3611.72463	0.01844
3610.43887	0.01931
3609.15310	0.01911
3607.86733	0.01820
3606.58156	0.01760
3605.29579	0.01778
3604.01002	0.01845
3602.72425	0.01942
3601.43848	0.02037
3600.15272	0.02100
3598.86695	0.02104
3597.58118	0.02069
3596.29541	0.01996
3595.00964	0.01953
3593.72387	0.01959
3592.43810	0.01953
3591.15233	0.01945
3589.86656	0.01966
3588.58080	0.02006
3587.29503	0.02091
3586.00926	0.02202
3584.72349	0.02304
3583.43772	0.02384
3582.15195	0.02441
3580.86618	0.02476
3579.58041	0.02500
3578.29464	0.02530
3577.00888	0.02573
3575.72311	0.02601
3574.43734	0.02591
3573.15157	0.02550
3571.86580	0.02515
3570.58003	0.02524
3569.29426	0.02571
3568.00849	0.02621
3566.72273	0.02640
3565.43696	0.02630
3564.15119	0.02638
3562.86542	0.02684
3561.57965	0.02750
3560.29388	0.02800
3559.00811	0.02823
3557.72234	0.02830
3556.43657	0.02838
3555.15081	0.02850
3553.86504	0.02866
3552.57927	0.02891
3551.29350	0.02933
3550.00773	0.02983
3548.72196	0.03019
3547.43619	0.03025
3546.15042	0.02999
3544.86466	0.02948
3543.57889	0.02882
3542.29312	0.02822
3541.00735	0.02800
3539.72158	0.02837
3538.43581	0.02925
3537.15004	0.03034
3535.86427	0.03141
3534.57850	0.03223
3533.29274	0.03265
3532.00697	0.03264
3530.72120	0.03245
3529.43543	0.03239
3528.14966	0.03262
3526.86389	0.03307
3525.57812	0.03357
3524.29235	0.03403
3523.00659	0.03446
3521.72082	0.03482
3520.43505	0.03494
3519.14928	0.03463
3517.86351	0.03402
3516.57774	0.03362
3515.29197	0.03393
3514.00620	0.03500
3512.72043	0.03638
3511.43467	0.03750
3510.14890	0.03806
3508.86313	0.03808
3507.57736	0.03778
3506.29159	0.03750
3505.00582	0.03752
3503.72005	0.03789
3502.43428	0.03843
3501.14852	0.03892
3499.86275	0.03924
3498.57698	0.03936
3497.29121	0.03927
3496.00544	0.03908
3494.71967	0.03896
3493.43390	0.03900
3492.14813	0.03907
3490.86236	0.03905
3489.57660	0.03896
3488.29083	0.03898
3487.00506	0.03929
3485.71929	0.03983
3484.43352	0.04039
3483.14775	0.04082
3481.86198	0.04104
3480.57621	0.04102
3479.29045	0.04086
3478.00468	0.04071
3476.71891	0.04076
3475.43314	0.04105
3474.14737	0.04151
3472.86160	0.04197
3471.57583	0.04227
3470.29006	0.04227
3469.00429	0.04204
3467.71853	0.04181
3466.43276	0.04172
3465.14699	0.04175
3463.86122	0.04184
3462.57545	0.04200
3461.28968	0.04222
3460.00391	0.04238
3458.71814	0.04243
3457.43238	0.04251
3456.14661	0.04284
3454.86084	0.04335
3453.57507	0.04374
3452.28930	0.04386
3451.00353	0.04383
3449.71776	0.04387
3448.43199	0.04402
3447.14622	0.04420
3445.86046	0.04434
3444.57469	0.04447
3443.28892	0.04470
3442.00315	0.04514
3440.71738	0.04572
3439.43161	0.04620
3438.14584	0.04629
3436.86007	0.04598
3435.57431	0.04558
3434.28854	0.04542
3433.00277	0.04558
3431.71700	0.04586
3430.43123	0.04613
3429.14546	0.04647
3427.85969	0.04705
3426.57392	0.04782
3425.28815	0.04848
3424.00239	0.04876
3422.71662	0.04866
3421.43085	0.04839
3420.14508	0.04826
3418.85931	0.04839
3417.57354	0.04857
3416.28777	0.04849
3415.00200	0.04806
3413.71624	0.04759
3412.43047	0.04754
3411.14470	0.04804
3409.85893	0.04880
3408.57316	0.04941
3407.28739	0.04975
3406.00162	0.05000
3404.71585	0.05035
3403.43008	0.05064
3402.14432	0.05056
3400.85855	0.04991
3399.57278	0.04878
3398.28701	0.04760
3397.00124	0.04682
3395.71547	0.04671
3394.42970	0.04717
3393.14393	0.04781
3391.85817	0.04826
3390.57240	0.04852
3389.28663	0.04878
3388.00086	0.04922
3386.71509	0.04980
3385.42932	0.05034
3384.14355	0.05070
3382.85778	0.05081
3381.57201	0.05070
3380.28625	0.05043
3379.00048	0.05005
3377.71471	0.04966
3376.42894	0.04939
3375.14317	0.04939
3373.85740	0.04968
3372.57163	0.05014
3371.28586	0.05055
3370.00010	0.05074
3368.71433	0.05072
3367.42856	0.05057
3366.14279	0.05035
3364.85702	0.05010
3363.57125	0.04983
3362.28548	0.04963
3360.99971	0.04951
3359.71394	0.04941
3358.42818	0.04921
3357.14241	0.04888
3355.85664	0.04867
3354.57087	0.04883
3353.28510	0.04939
3351.99933	0.05003
3350.71356	0.05040
3349.42779	0.05038
3348.14202	0.05012
3346.85626	0.04983
3345.57049	0.04961
3344.28472	0.04948
3342.99895	0.04944
3341.71318	0.04949
3340.42741	0.04957
3339.14164	0.04957
3337.85587	0.04948
3336.57011	0.04941
3335.28434	0.04951
3333.99857	0.04980
3332.71280	0.05012
3331.42703	0.05023
3330.14126	0.05004
3328.85549	0.04973
3327.56972	0.04961
3326.28395	0.04987
3324.99819	0.05039
3323.71242	0.05082
3322.42665	0.05090
3321.14088	0.05064
3319.85511	0.05031
3318.56934	0.05007
3317.28357	0.04992
3315.99780	0.04973
3314.71204	0.04948
3313.42627	0.04926
3312.14050	0.04917
3310.85473	0.04925
3309.56896	0.04938
3308.28319	0.04942
3306.99742	0.04931
3305.71165	0.04907
3304.42588	0.04882
3303.14012	0.04865
3301.85435	0.04858
3300.56858	0.04861
3299.28281	0.04869
3297.99704	0.04869
3296.71127	0.04855
3295.42550	0.04832
3294.13973	0.04817
3292.85397	0.04823
3291.56820	0.04846
3290.28243	0.04866
3288.99666	0.04861
3287.71089	0.04819
3286.42512	0.04756
3285.13935	0.04703
3283.85358	0.04677
3282.56781	0.04672
3281.28205	0.04675
3279.99628	0.04684
3278.71051	0.04708
3277.42474	0.04743
3276.13897	0.04774
3274.85320	0.04789
3273.56743	0.04794
3272.28166	0.04800
3270.99590	0.04809
3269.71013	0.04813
3268.42436	0.04801
3267.13859	0.04775
3265.85282	0.04752
3264.56705	0.04750
3263.28128	0.04769
3261.99551	0.04794
3260.70974	0.04807
3259.42398	0.04807
3258.13821	0.04809
3256.85244	0.04824
3255.56667	0.04849
3254.28090	0.04863
3252.99513	0.04847
3251.70936	0.04802
3250.42359	0.04751
3249.13783	0.04716
3247.85206	0.04702
3246.56629	0.04704
3245.28052	0.04713
3243.99475	0.04727
3242.70898	0.04738
3241.42321	0.04735
3240.13744	0.04711
3238.85167	0.04679
3237.56591	0.04660
3236.28014	0.04670
3234.99437	0.04708
3233.70860	0.04754
3232.42283	0.04785
3231.13706	0.04791
3229.85129	0.04784
3228.56552	0.04775
3227.27976	0.04762
3225.99399	0.04735
3224.70822	0.04693
3223.42245	0.04644
3222.13668	0.04596
3220.85091	0.04555
3219.56514	0.04529
3218.27937	0.04523
3216.99360	0.04528
3215.70784	0.04530
3214.42207	0.04523
3213.13630	0.04519
3211.85053	0.04530
3210.56476	0.04552
3209.27899	0.04562
3207.99322	0.04545
3206.70745	0.04509
3205.42169	0.04479
3204.13592	0.04468
3202.85015	0.04465
3201.56438	0.04452
3200.27861	0.04425
3198.99284	0.04399
3197.70707	0.04386
3196.42130	0.04389
3195.13553	0.04399
3193.84977	0.04413
3192.56400	0.04432
3191.27823	0.04453
3189.99246	0.04464
3188.70669	0.04459
3187.42092	0.04444
3186.13515	0.04429
3184.84938	0.04419
3183.56362	0.04409
3182.27785	0.04397
3180.99208	0.04384
3179.70631	0.04370
3178.42054	0.04352
3177.13477	0.04329
3175.84900	0.04311
3174.56323	0.04305
3173.27746	0.04312
3171.99170	0.04322
3170.70593	0.04320
3169.42016	0.04301
3168.13439	0.04273
3166.84862	0.04265
3165.56285	0.04291
3164.27708	0.04328
3162.99131	0.04332
3161.70555	0.04283
3160.41978	0.04210
3159.13401	0.04167
3157.84824	0.04173
3156.56247	0.04208
3155.27670	0.04231
3153.99093	0.04223
3152.70516	0.04187
3151.41939	0.04138
3150.13363	0.04095
3148.84786	0.04070
3147.56209	0.04065
3146.27632	0.04078
3144.99055	0.04095
3143.70478	0.04100
3142.41901	0.04086
3141.13324	0.04064
3139.84748	0.04047
3138.56171	0.04038
3137.27594	0.04020
3135.99017	0.03984
3134.70440	0.03938
3133.41863	0.03908
3132.13286	0.03908
3130.84709	0.03935
3129.56132	0.03967
3128.27556	0.03986
3126.98979	0.03986
3125.70402	0.03979
3124.41825	0.03988
3123.13248	0.04027
3121.84671	0.04084
3120.56094	0.04124
3119.27517	0.04118
3117.98940	0.04068
3116.70364	0.04002
3115.41787	0.03948
3114.13210	0.03912
3112.84633	0.03885
3111.56056	0.03865
3110.27479	0.03860
3108.98902	0.03871
3107.70325	0.03880
3106.41749	0.03871
3105.13172	0.03845
3103.84595	0.03819
3102.56018	0.03809
3101.27441	0.03821
3099.98864	0.03846
3098.70287	0.03867
3097.41710	0.03870
3096.13133	0.03857
3094.84557	0.03845
3093.55980	0.03843
3092.27403	0.03838
3090.98826	0.03817
3089.70249	0.03791
3088.41672	0.03784
3087.13095	0.03803
3085.84518	0.03831
3084.55942	0.03847
3083.27365	0.03838
3081.98788	0.03809
3080.70211	0.03768
3079.41634	0.03735
3078.13057	0.03726
3076.84480	0.03739
3075.55903	0.03752
3074.27326	0.03749
3072.98750	0.03728
3071.70173	0.03701
3070.41596	0.03674
3069.13019	0.03649
3067.84442	0.03629
3066.55865	0.03620
3065.27288	0.03623
3063.98711	0.03634
3062.70135	0.03645
3061.41558	0.03648
3060.12981	0.03636
3058.84404	0.03609
3057.55827	0.03570
3056.27250	0.03529
3054.98673	0.03499
3053.70096	0.03491
3052.41519	0.03508
3051.12943	0.03538
3049.84366	0.03568
3048.55789	0.03585
3047.27212	0.03584
3045.98635	0.03564
3044.70058	0.03526
3043.41481	0.03482
3042.12904	0.03448
3040.84328	0.03435
3039.55751	0.03442
3038.27174	0.03448
3036.98597	0.03436
3035.70020	0.03409
3034.41443	0.03389
3033.12866	0.03399
3031.84289	0.03440
3030.55712	0.03492
3029.27136	0.03527
3027.98559	0.03527
3026.69982	0.03497
3025.41405	0.03453
3024.12828	0.03415
3022.84251	0.03397
3021.55674	0.03406
3020.27097	0.03438
3018.98521	0.03472
3017.69944	0.03486
3016.41367	0.03469
3015.12790	0.03429
3013.84213	0.03389
3012.55636	0.03366
3011.27059	0.03363
3009.98482	0.03369
3008.69905	0.03374
3007.41329	0.03375
3006.12752	0.03370
3004.84175	0.03357
3003.55598	0.03336
3002.27021	0.03313
3000.98444	0.03291
2999.69867	0.03274
2998.41290	0.03264
2997.12714	0.03263
2995.84137	0.03273
2994.55560	0.03290
2993.26983	0.03309
2991.98406	0.03328
2990.69829	0.03341
2989.41252	0.03337
2988.12675	0.03311
2986.84098	0.03277
2985.55522	0.03256
2984.26945	0.03252
2982.98368	0.03257
2981.69791	0.03270
2980.41214	0.03300
2979.12637	0.03350
2977.84060	0.03410
2976.55483	0.03461
2975.26907	0.03493
2973.98330	0.03505
2972.69753	0.03502
2971.41176	0.03497
2970.12599	0.03503
2968.84022	0.03531
2967.55445	0.03573
2966.26868	0.03617
2964.98291	0.03652
2963.69715	0.03678
2962.41138	0.03707
2961.12561	0.03750
2959.83984	0.03804
2958.55407	0.03849
2957.26830	0.03869
2955.98253	0.03859
2954.69676	0.03831
2953.41100	0.03801
2952.12523	0.03781
2950.83946	0.03778
2949.55369	0.03795
2948.26792	0.03829
2946.98215	0.03863
2945.69638	0.03879
2944.41061	0.03866
2943.12484	0.03837
2941.83908	0.03816
2940.55331	0.03823
2939.26754	0.03855
2937.98177	0.03897
2936.69600	0.03927
2935.41023	0.03932
2934.12446	0.03919
2932.83869	0.03911
2931.55293	0.03925
2930.26716	0.03955
2928.98139	0.03977
2927.69562	0.03983
2926.40985	0.03986
2925.12408	0.04003
2923.83831	0.04033
2922.55254	0.04061
2921.26677	0.04079
2919.98101	0.04085
2918.69524	0.04073
2917.40947	0.04036
2916.12370	0.03974
2914.83793	0.03898
2913.55216	0.03829
2912.26639	0.03785
2910.98062	0.03769
2909.69486	0.03770
2908.40909	0.03770
2907.12332	0.03759
2905.83755	0.03744
2904.55178	0.03736
2903.26601	0.03736
2901.98024	0.03733
2900.69447	0.03715
2899.40870	0.03677
2898.12294	0.03624
2896.83717	0.03576
2895.55140	0.03552
2894.26563	0.03552
2892.97986	0.03551
2891.69409	0.03521
2890.40832	0.03464
2889.12255	0.03402
2887.83678	0.03358
2886.55102	0.03337
2885.26525	0.03329
2883.97948	0.03322
2882.69371	0.03308
2881.40794	0.03295
2880.12217	0.03302
2878.83640	0.03342
2877.55063	0.03403
2876.26487	0.03451
2874.97910	0.03464
2873.69333	0.03449
2872.40756	0.03432
2871.12179	0.03424
2869.83602	0.03421
2868.55025	0.03412
2867.26448	0.03396
2865.97871	0.03383
2864.69295	0.03380
2863.40718	0.03390
2862.12141	0.03408
2860.83564	0.03425
2859.54987	0.03437
2858.26410	0.03441
2856.97833	0.03436
2855.69256	0.03424
2854.40680	0.03405
2853.12103	0.03381
2851.83526	0.03359
2850.54949	0.03338
2849.26372	0.03314
2847.97795	0.03281
2846.69218	0.03241
2845.40641	0.03198
2844.12064	0.03157
2842.83488	0.03117
2841.54911	0.03082
2840.26334	0.03055
2838.97757	0.03030
2837.69180	0.03000
2836.40603	0.02967
2835.12026	0.02938
2833.83449	0.02916
2832.54873	0.02890
2831.26296	0.02859
2829.97719	0.02835
2828.69142	0.02831
2827.40565	0.02839
2826.11988	0.02839
2824.83411	0.02820
2823.54834	0.02786
2822.26257	0.02751
2820.97681	0.02722
2819.69104	0.02703
2818.40527	0.02695
2817.11950	0.02699
2815.83373	0.02711
2814.54796	0.02717
2813.26219	0.02705
2811.97642	0.02676
2810.69066	0.02643
2809.40489	0.02626
2808.11912	0.02635
2806.83335	0.02664
2805.54758	0.02690
2804.26181	0.02692
2802.97604	0.02668
2801.69027	0.02637
2800.40450	0.02614
2799.11874	0.02603
2797.83297	0.02599
2796.54720	0.02596
2795.26143	0.02590
2793.97566	0.02577
2792.68989	0.02559
2791.40412	0.02547
2790.11835	0.02552
2788.83259	0.02575
2787.54682	0.02603
2786.26105	0.02619
2784.97528	0.02613
2783.68951	0.02590
2782.40374	0.02557
2781.11797	0.02526
2779.83220	0.02508
2778.54643	0.02503
2777.26067	0.02498
2775.97490	0.02485
2774.68913	0.02468
2773.40336	0.02463
2772.11759	0.02471
2770.83182	0.02477
2769.54605	0.02468
2768.26028	0.02449
2766.97452	0.02433
2765.68875	0.02434
2764.40298	0.02451
2763.11721	0.02474
2761.83144	0.02491
2760.54567	0.02492
2759.25990	0.02480
2757.97413	0.02468
2756.68836	0.02464
2755.40260	0.02464
2754.11683	0.02458
2752.83106	0.02438
2751.54529	0.02410
2750.25952	0.02392
2748.97375	0.02395
2747.68798	0.02413
2746.40221	0.02429
2745.11645	0.02434
2743.83068	0.02434
2742.54491	0.02439
2741.25914	0.02443
2739.97337	0.02433
2738.68760	0.02410
2737.40183	0.02391
2736.11606	0.02390
2734.83029	0.02404
2733.54453	0.02413
2732.25876	0.02403
2730.97299	0.02373
2729.68722	0.02341
2728.40145	0.02331
2727.11568	0.02350
2725.82991	0.02383
2724.54414	0.02402
2723.25838	0.02396
2721.97261	0.02377
2720.68684	0.02366
2719.40107	0.02375
2718.11530	0.02392
2716.82953	0.02402
2715.54376	0.02395
2714.25799	0.02379
2712.97222	0.02357
2711.68646	0.02335
2710.40069	0.02316
2709.11492	0.02300
2707.82915	0.02285
2706.54338	0.02272
2705.25761	0.02266
2703.97184	0.02272
2702.68607	0.02285
2701.40031	0.02299
2700.11454	0.02304
2698.82877	0.02299
2697.54300	0.02290
2696.25723	0.02287
2694.97146	0.02291
2693.68569	0.02295
2692.39992	0.02295
2691.11415	0.02292
2689.82839	0.02287
2688.54262	0.02278
2687.25685	0.02263
2685.97108	0.02244
2684.68531	0.02226
2683.39954	0.02216
2682.11377	0.02222
2680.82800	0.02242
2679.54224	0.02262
2678.25647	0.02267
2676.97070	0.02251
2675.68493	0.02226
2674.39916	0.02206
2673.11339	0.02199
2671.82762	0.02200
2670.54185	0.02205
2669.25608	0.02215
2667.97032	0.02232
2666.68455	0.02253
2665.39878	0.02266
2664.11301	0.02269
2662.82724	0.02266
2661.54147	0.02267
2660.25570	0.02275
2658.96993	0.02287
2657.68417	0.02295
2656.39840	0.02294
2655.11263	0.02282
2653.82686	0.02263
2652.54109	0.02246
2651.25532	0.02237
2649.96955	0.02232
2648.68378	0.02217
2647.39801	0.02191
2646.11225	0.02166
2644.82648	0.02151
2643.54071	0.02145
2642.25494	0.02137
2640.96917	0.02128
2639.68340	0.02123
2638.39763	0.02120
2637.11186	0.02105
2635.82609	0.02077
2634.54033	0.02044
2633.25456	0.02024
2631.96879	0.02020
2630.68302	0.02021
2629.39725	0.02015
2628.11148	0.01993
2626.82571	0.01959
2625.53994	0.01923
2624.25418	0.01898
2622.96841	0.01887
2621.68264	0.01889
2620.39687	0.01900
2619.11110	0.01913
2617.82533	0.01915
2616.53956	0.01904
2615.25379	0.01895
2613.96802	0.01906
2612.68226	0.01931
2611.39649	0.01949
2610.11072	0.01946
2608.82495	0.01922
2607.53918	0.01884
2606.25341	0.01838
2604.96764	0.01790
2603.68187	0.01754
2602.39611	0.01735
2601.11034	0.01730
2599.82457	0.01732
2598.53880	0.01733
2597.25303	0.01729
2595.96726	0.01726
2594.68149	0.01734
2593.39572	0.01758
2592.10995	0.01794
2590.82419	0.01830
2589.53842	0.01854
2588.25265	0.01858
2586.96688	0.01847
2585.68111	0.01833
2584.39534	0.01831
2583.10957	0.01842
2581.82380	0.01847
2580.53804	0.01827
2579.25227	0.01785
2577.96650	0.01736
2576.68073	0.01696
2575.39496	0.01671
2574.10919	0.01656
2572.82342	0.01649
2571.53765	0.01644
2570.25188	0.01634
2568.96612	0.01619
2567.68035	0.01616
2566.39458	0.01640
2565.10881	0.01691
2563.82304	0.01748
2562.53727	0.01788
2561.25150	0.01800
2559.96573	0.01780
2558.67997	0.01737
2557.39420	0.01695
2556.10843	0.01678
2554.82266	0.01684
2553.53689	0.01693
2552.25112	0.01688
2550.96535	0.01670
2549.67958	0.01640
2548.39381	0.01608
2547.10805	0.01585
2545.82228	0.01581
2544.53651	0.01591
2543.25074	0.01603
2541.96497	0.01608
2540.67920	0.01597
2539.39343	0.01578
2538.10766	0.01562
2536.82190	0.01558
2535.53613	0.01557
2534.25036	0.01548
2532.96459	0.01533
2531.67882	0.01528
2530.39305	0.01540
2529.10728	0.01569
2527.82151	0.01604
2526.53574	0.01629
2525.24998	0.01638
2523.96421	0.01640
2522.67844	0.01648
2521.39267	0.01654
2520.10690	0.01639
2518.82113	0.01597
2517.53536	0.01551
2516.24959	0.01528
2514.96383	0.01531
2513.67806	0.01542
2512.39229	0.01547
2511.10652	0.01550
2509.82075	0.01554
2508.53498	0.01556
2507.24921	0.01551
2505.96344	0.01544
2504.67767	0.01546
2503.39191	0.01554
2502.10614	0.01551
2500.82037	0.01530
2499.53460	0.01505
2498.24883	0.01502
2496.96306	0.01533
2495.67729	0.01587
2494.39152	0.01637
2493.10576	0.01661
2491.81999	0.01647
2490.53422	0.01606
2489.24845	0.01563
2487.96268	0.01538
2486.67691	0.01529
2485.39114	0.01520
2484.10537	0.01502
2482.81960	0.01479
2481.53384	0.01459
2480.24807	0.01449
2478.96230	0.01450
2477.67653	0.01458
2476.39076	0.01459
2475.10499	0.01446
2473.81922	0.01436
2472.53345	0.01446
2471.24769	0.01480
2469.96192	0.01521
2468.67615	0.01554
2467.39038	0.01577
2466.10461	0.01592
2464.81884	0.01590
2463.53307	0.01559
2462.24730	0.01505
2460.96153	0.01453
2459.67577	0.01429
2458.39000	0.01448
2457.10423	0.01495
2455.81846	0.01539
2454.53269	0.01548
2453.24692	0.01525
2451.96115	0.01505
2450.67538	0.01516
2449.38962	0.01555
2448.10385	0.01591
2446.81808	0.01594
2445.53231	0.01555
2444.24654	0.01492
2442.96077	0.01431
2441.67500	0.01392
2440.38923	0.01379
2439.10346	0.01386
2437.81770	0.01400
2436.53193	0.01402
2435.24616	0.01389
2433.96039	0.01375
2432.67462	0.01383
2431.38885	0.01409
2430.10308	0.01434
2428.81731	0.01446
2427.53155	0.01451
2426.24578	0.01459
2424.96001	0.01471
2423.67424	0.01488
2422.38847	0.01510
2421.10270	0.01528
2419.81693	0.01529
2418.53116	0.01506
2417.24539	0.01462
2415.95963	0.01414
2414.67386	0.01382
2413.38809	0.01382
2412.10232	0.01416
2410.81655	0.01462
2409.53078	0.01496
2408.24501	0.01502
2406.95924	0.01485
2405.67347	0.01458
2404.38771	0.01428
2403.10194	0.01398
2401.81617	0.01372
2400.53040	0.01363
2399.24463	0.01434
2397.95886	0.01498
2396.67309	0.01526
2395.38732	0.01521
2394.10156	0.01488
2392.81579	0.01430
2391.53002	0.01363
2390.24425	0.01312
2388.95848	0.01294
2387.67271	0.01303
2386.38694	0.01314
2385.10117	0.01304
2383.81540	0.01267
2382.52964	0.01216
2381.24387	0.01162
2379.95810	0.01140
2378.67233	0.01135
2377.38656	0.01103
2376.10079	0.01093
2374.81502	0.01091
2373.52925	0.01021
2372.24349	0.00919
2370.95772	0.00757
2369.67195	0.00693
2368.38618	0.00689
2367.10041	0.00571
2365.81464	0.00391
2364.52887	0.00400
2363.24310	0.00472
2361.95733	0.00407
2360.67157	0.00273
2359.38580	0.00353
2358.10003	0.00542
2356.81426	0.00706
2355.52849	0.00852
2354.24272	0.00900
2352.95695	0.00866
2351.67118	0.00645
2350.38542	0.00106
2349.09965	-0.00249
2347.81388	0.00156
2346.52811	0.00825
2345.24234	0.01066
2343.95657	0.00902
2342.67080	0.00831
2341.38503	0.00931
2340.09926	0.01016
2338.81350	0.01038
2337.52773	0.00955
2336.24196	0.00916
2334.95619	0.00856
2333.67042	0.00708
2332.38465	0.00700
2331.09888	0.00775
2329.81311	0.00810
2328.52735	0.00950
2327.24158	0.01048
2325.95581	0.01062
2324.67004	0.01155
2323.38427	0.01243
2322.09850	0.01259
2320.81273	0.01345
2319.52696	0.01319
2318.24119	0.01174
2316.95543	0.01102
2315.66966	0.01090
2314.38389	0.01124
2313.09812	0.01163
2311.81235	0.01149
2310.52658	0.01168
2309.24081	0.01191
2307.95504	0.01206
2306.66928	0.01277
2305.38351	0.01300
2304.09774	0.01313
2302.81197	0.01348
2301.52620	0.01365
2300.24043	0.01354
2298.95466	0.01291
2297.66889	0.01228
2296.38312	0.01186
2295.09736	0.01173
2293.81159	0.01191
2292.52582	0.01223
2291.24005	0.01277
2289.95428	0.01329
2288.66851	0.01364
2287.38274	0.01368
2286.09697	0.01349
2284.81121	0.01322
2283.52544	0.01308
2282.23967	0.01315
2280.95390	0.01330
2279.66813	0.01347
2278.38236	0.01356
2277.09659	0.01360
2275.81082	0.01350
2274.52505	0.01322
2273.23929	0.01282
2271.95352	0.01237
2270.66775	0.01195
2269.38198	0.01163
2268.09621	0.01149
2266.81044	0.01145
2265.52467	0.01140
2264.23890	0.01125
2262.95314	0.01100
2261.66737	0.01083
2260.38160	0.01076
2259.09583	0.01065
2257.81006	0.01057
2256.52429	0.01062
2255.23852	0.01085
2253.95275	0.01103
2252.66698	0.01103
2251.38122	0.01089
2250.09545	0.01074
2248.80968	0.01072
2247.52391	0.01047
2246.23814	0.01032
2244.95237	0.01037
2243.66660	0.01064
2242.38083	0.01100
2241.09507	0.01128
2239.80930	0.01136
2238.52353	0.01120
2237.23776	0.01085
2235.95199	0.01030
2234.66622	0.00961
2233.38045	0.00898
2232.09468	0.00871
2230.80891	0.00890
2229.52315	0.00932
2228.23738	0.00956
2226.95161	0.00949
2225.66584	0.00925
2224.38007	0.00902
2223.09430	0.00883
2221.80853	0.00861
2220.52276	0.00834
2219.23700	0.00812
2217.95123	0.00815
2216.66546	0.00853
2215.37969	0.00908
2214.09392	0.00926
2212.80815	0.00872
2211.52238	0.00770
2210.23661	0.00695
2208.95084	0.00697
2207.66508	0.00753
2206.37931	0.00804
2205.09354	0.00820
2203.80777	0.00800
2202.52200	0.00741
2201.23623	0.00635
2199.95046	0.00504
2198.66469	0.00400
2197.37893	0.00369
2196.09316	0.00417
2194.80739	0.00501
2193.52162	0.00558
2192.23585	0.00557
2190.95008	0.00517
2189.66431	0.00477
2188.37854	0.00450
2187.09277	0.00417
2185.80701	0.00352
2184.52124	0.00253
2183.23547	0.00173
2181.94970	0.00185
2180.66393	0.00304
2179.37816	0.00448
2178.09239	0.00523
2176.80662	0.00515
2175.52085	0.00474
2174.23509	0.00434
2172.94932	0.00402
2171.66355	0.00385
2170.37778	0.00380
2169.09201	0.00359
2167.80624	0.00288
2166.52047	0.00181
2165.23470	0.00099
2163.94894	0.00093
2162.66317	0.00151
2161.37740	0.00206
2160.09163	0.00190
2158.80586	0.00091
2157.52009	-0.00045
2156.23432	-0.00153
2154.94855	-0.00197
2153.66278	-0.00178
2152.37702	-0.00121
2151.09125	-0.00033
2149.80548	0.00096
2148.51971	0.00260
2147.23394	0.00413
2145.94817	0.00505
2144.66240	0.00530
2143.37663	0.00529
2142.09087	0.00550
2140.80510	0.00610
2139.51933	0.00676
2138.23356	0.00696
2136.94779	0.00649
2135.66202	0.00570
2134.37625	0.00505
2133.09048	0.00467
2131.80471	0.00445
2130.51895	0.00435
2129.23318	0.00450
2127.94741	0.00492
2126.66164	0.00538
2125.37587	0.00559
2124.09010	0.00536
2122.80433	0.00484
2121.51856	0.00445
2120.23280	0.00462
2118.94703	0.00531
2117.66126	0.00601
2116.37549	0.00634
2115.08972	0.00647
2113.80395	0.00671
2112.51818	0.00696
2111.23241	0.00678
2109.94664	0.00607
2108.66088	0.00538
2107.37511	0.00536
2106.08934	0.00600
2104.80357	0.00673
2103.51780	0.00704
2102.23203	0.00689
2100.94626	0.00655
2099.66049	0.00629
2098.37473	0.00571
2097.08896	0.00483
2095.80319	0.00408
2094.51742	0.00392
2093.23165	0.00450
2091.94588	0.00544
2090.66011	0.00612
2089.37434	0.00619
2088.08857	0.00578
2086.80281	0.00528
2085.51704	0.00497
2084.23127	0.00485
2082.94550	0.00478
2081.65973	0.00467
2080.37396	0.00455
2079.08819	0.00446
2077.80242	0.00446
2076.51666	0.00452
2075.23089	0.00453
2073.94512	0.00442
2072.65935	0.00418
2071.37358	0.00393
2070.08781	0.00384
2068.80204	0.00406
2067.51627	0.00461
2066.23050	0.00524
2064.94474	0.00557
2063.65897	0.00541
2062.37320	0.00489
2061.08743	0.00438
2059.80166	0.00409
2058.51589	0.00388
2057.23012	0.00347
2055.94435	0.00275
2054.65859	0.00197
2053.37282	0.00162
2052.08705	0.00190
2050.80128	0.00254
2049.51551	0.00296
2048.22974	0.00275
2046.94397	0.00192
2045.65820	0.00078
2044.37243	-0.00027
2043.08667	-0.00090
2041.80090	-0.00085
2040.51513	-0.00012
2039.22936	0.00093
2037.94359	0.00171
2036.65782	0.00184
2035.37205	0.00155
2034.08628	0.00144
2032.80052	0.00180
2031.51475	0.00224
2030.22898	0.00216
2028.94321	0.00140
2027.65744	0.00035
2026.37167	-0.00052
2025.08590	-0.00099
2023.80013	-0.00101
2022.51436	-0.00058
2021.22860	0.00015
2019.94283	0.00090
2018.65706	0.00140
2017.37129	0.00160
2016.08552	0.00156
2014.79975	0.00134
2013.51398	0.00110
2012.22821	0.00123
2010.94245	0.00193
2009.65668	0.00284
2008.37091	0.00337
2007.08514	0.00339
2005.79937	0.00330
2004.51360	0.00345
2003.22783	0.00383
2001.94206	0.00427
2000.65629	0.00476
1999.37053	0.00528
1998.08476	0.00569
1996.79899	0.00576
1995.51322	0.00536
1994.22745	0.00464
1992.94168	0.00399
1991.65591	0.00377
1990.37014	0.00399
1989.08438	0.00433
1987.79861	0.00453
1986.51284	0.00460
1985.22707	0.00467
1983.94130	0.00480
1982.65553	0.00500
1981.36976	0.00533
1980.08399	0.00574
1978.79822	0.00600
1977.51246	0.00580
1976.22669	0.00512
1974.94092	0.00433
1973.65515	0.00392
1972.36938	0.00421
1971.08361	0.00508
1969.79784	0.00606
1968.51207	0.00660
1967.22631	0.00650
1965.94054	0.00596
1964.65477	0.00534
1963.36900	0.00497
1962.08323	0.00502
1960.79746	0.00542
1959.51169	0.00585
1958.22592	0.00593
1956.94015	0.00564
1955.65439	0.00528
1954.36862	0.00518
1953.08285	0.00537
1951.79708	0.00573
1950.51131	0.00612
1949.22554	0.00640
1947.93977	0.00640
1946.65400	0.00609
1945.36823	0.00566
1944.08247	0.00546
1942.79670	0.00566
1941.51093	0.00613
1940.22516	0.00658
1938.93939	0.00680
1937.65362	0.00683
1936.36785	0.00686
1935.08208	0.00693
1933.79632	0.00696
1932.51055	0.00685
1931.22478	0.00658
1929.93901	0.00624
1928.65324	0.00599
1927.36747	0.00589
1926.08170	0.00594
1924.79593	0.00606
1923.51016	0.00618
1922.22440	0.00633
1920.93863	0.00651
1919.65286	0.00665
1918.36709	0.00664
1917.08132	0.00648
1915.79555	0.00635
1914.50978	0.00646
1913.22401	0.00681
1911.93825	0.00711
1910.65248	0.00711
1909.36671	0.00685
1908.08094	0.00668
1906.79517	0.00680
1905.50940	0.00712
1904.22363	0.00742
1902.93786	0.00766
1901.65209	0.00793
1900.36633	0.00829
1899.08056	0.00865
1897.79479	0.00889
1896.50902	0.00893
1895.22325	0.00878
1893.93748	0.00855
1892.65171	0.00836
1891.36594	0.00834
1890.08018	0.00853
1888.79441	0.00883
1887.50864	0.00912
1886.22287	0.00929
1884.93710	0.00925
1883.65133	0.00896
1882.36556	0.00851
1881.07979	0.00809
1879.79402	0.00786
1878.50826	0.00784
1877.22249	0.00795
1875.93672	0.00809
1874.65095	0.00824
1873.36518	0.00849
1872.07941	0.00886
1870.79364	0.00924
1869.50787	0.00943
1868.22211	0.00931
1866.93634	0.00899
1865.65057	0.00870
1864.36480	0.00861
1863.07903	0.00872
1861.79326	0.00888
1860.50749	0.00896
1859.22172	0.00894
1857.93595	0.00893
1856.65019	0.00898
1855.36442	0.00906
1854.07865	0.00906
1852.79288	0.00894
1851.50711	0.00875
1850.22134	0.00858
1848.93557	0.00852
1847.64980	0.00859
1846.36404	0.00873
1845.07827	0.00880
1843.79250	0.00876
1842.50673	0.00863
1841.22096	0.00849
1839.93519	0.00842
1838.64942	0.00845
1837.36365	0.00855
1836.07788	0.00861
1834.79212	0.00861
1833.50635	0.00860
1832.22058	0.00865
1830.93481	0.00876
1829.64904	0.00884
1828.36327	0.00882
1827.07750	0.00874
1825.79173	0.00868
1824.50597	0.00872
1823.22020	0.00887
1821.93443	0.00904
1820.64866	0.00911
1819.36289	0.00900
1818.07712	0.00880
1816.79135	0.00867
1815.50558	0.00871
1814.21981	0.00890
1812.93405	0.00912
1811.64828	0.00925
1810.36251	0.00927
1809.07674	0.00926
1807.79097	0.00929
1806.50520	0.00934
1805.21943	0.00939
1803.93366	0.00946
1802.64790	0.00956
1801.36213	0.00964
1800.07636	0.00966
1798.79059	0.00961
1797.50482	0.00957
1796.21905	0.00964
1794.93328	0.00983
1793.64751	0.01004
1792.36174	0.01016
1791.07598	0.01013
1789.79021	0.00997
1788.50444	0.00982
1787.21867	0.00978
1785.93290	0.00987
1784.64713	0.01005
1783.36136	0.01024
1782.07559	0.01038
1780.78983	0.01043
1779.50406	0.01040
1778.21829	0.01036
1776.93252	0.01041
1775.64675	0.01059
1774.36098	0.01084
1773.07521	0.01102
1771.78944	0.01107
1770.50367	0.01102
1769.21791	0.01094
1767.93214	0.01087
1766.64637	0.01084
1765.36060	0.01088
1764.07483	0.01099
1762.78906	0.01113
1761.50329	0.01124
1760.21752	0.01129
1758.93176	0.01133
1757.64599	0.01136
1756.36022	0.01142
1755.07445	0.01153
1753.78868	0.01165
1752.50291	0.01173
1751.21714	0.01169
1749.93137	0.01155
1748.64560	0.01139
1747.35984	0.01131
1746.07407	0.01136
1744.78830	0.01146
1743.50253	0.01155
1742.21676	0.01161
1740.93099	0.01169
1739.64522	0.01179
1738.35945	0.01193
1737.07369	0.01215
1735.78792	0.01242
1734.50215	0.01266
1733.21638	0.01280
1731.93061	0.01282
1730.64484	0.01280
1729.35907	0.01280
1728.07330	0.01283
1726.78753	0.01287
1725.50177	0.01295
1724.21600	0.01305
1722.93023	0.01315
1721.64446	0.01332
1720.35869	0.01358
1719.07292	0.01393
1717.78715	0.01426
1716.50138	0.01449
1715.21561	0.01462
1713.92985	0.01473
1712.64408	0.01489
1711.35831	0.01509
1710.07254	0.01531
1708.78677	0.01551
1707.50100	0.01567
1706.21523	0.01584
1704.92946	0.01609
1703.64370	0.01644
1702.35793	0.01684
1701.07216	0.01718
1699.78639	0.01741
1698.50062	0.01756
1697.21485	0.01771
1695.92908	0.01786
1694.64331	0.01796
1693.35754	0.01804
1692.07178	0.01816
1690.78601	0.01836
1689.50024	0.01861
1688.21447	0.01891
1686.92870	0.01926
1685.64293	0.01962
1684.35716	0.01991
1683.07139	0.02005
1681.78563	0.02010
1680.49986	0.02017
1679.21409	0.02035
1677.92832	0.02068
1676.64255	0.02107
1675.35678	0.02144
1674.07101	0.02174
1672.78524	0.02200
1671.49947	0.02227
1670.21371	0.02260
1668.92794	0.02294
1667.64217	0.02325
1666.35640	0.02352
1665.07063	0.02375
1663.78486	0.02393
1662.49909	0.02409
1661.21332	0.02425
1659.92756	0.02445
1658.64179	0.02473
1657.35602	0.02512
1656.07025	0.02560
1654.78448	0.02610
1653.49871	0.02651
1652.21294	0.02671
1650.92717	0.02676
1649.64140	0.02679
1648.35564	0.02688
1647.06987	0.02699
1645.78410	0.02706
1644.49833	0.02709
1643.21256	0.02714
1641.92679	0.02723
1640.64102	0.02738
1639.35525	0.02758
1638.06949	0.02782
1636.78372	0.02808
1635.49795	0.02827
1634.21218	0.02835
1632.92641	0.02838
1631.64064	0.02845
1630.35487	0.02863
1629.06910	0.02889
1627.78333	0.02918
1626.49757	0.02946
1625.21180	0.02972
1623.92603	0.02994
1622.64026	0.03010
1621.35449	0.03021
1620.06872	0.03031
1618.78295	0.03046
1617.49718	0.03065
1616.21142	0.03084
1614.92565	0.03098
1613.63988	0.03110
1612.35411	0.03125
1611.06834	0.03148
1609.78257	0.03178
1608.49680	0.03210
1607.21103	0.03239
1605.92526	0.03263
1604.63950	0.03283
1603.35373	0.03300
1602.06796	0.03318
1600.78219	0.03338
1599.49642	0.03359
1598.21065	0.03377
1596.92488	0.03391
1595.63911	0.03402
1594.35335	0.03413
1593.06758	0.03426
1591.78181	0.03440
1590.49604	0.03452
1589.21027	0.03460
1587.92450	0.03466
1586.63873	0.03472
1585.35296	0.03479
1584.06719	0.03487
1582.78143	0.03495
1581.49566	0.03507
1580.20989	0.03525
1578.92412	0.03550
1577.63835	0.03575
1576.35258	0.03592
1575.06681	0.03598
1573.78104	0.03599
1572.49528	0.03606
1571.20951	0.03621
1569.92374	0.03639
1568.63797	0.03654
1567.35220	0.03661
1566.06643	0.03664
1564.78066	0.03669
1563.49489	0.03682
1562.20912	0.03705
1560.92336	0.03736
1559.63759	0.03764
1558.35182	0.03777
1557.06605	0.03774
1555.78028	0.03763
1554.49451	0.03752
1553.20874	0.03743
1551.92297	0.03735
1550.63721	0.03732
1549.35144	0.03734
1548.06567	0.03746
1546.77990	0.03767
1545.49413	0.03791
1544.20836	0.03812
1542.92259	0.03830
1541.63682	0.03845
1540.35105	0.03855
1539.06529	0.03857
1537.77952	0.03854
1536.49375	0.03853
1535.20798	0.03861
1533.92221	0.03877
1532.63644	0.03900
1531.35067	0.03931
1530.06490	0.03974
1528.77914	0.04031
1527.49337	0.04097
1526.20760	0.04165
1524.92183	0.04234
1523.63606	0.04306
1522.35029	0.04383
1521.06452	0.04464
1519.77875	0.04549
1518.49298	0.04642
1517.20722	0.04744
1515.92145	0.04853
1514.63568	0.04964
1513.34991	0.05076
1512.06414	0.05190
1510.77837	0.05312
1509.49260	0.05446
1508.20683	0.05591
1506.92107	0.05735
1505.63530	0.05863
1504.34953	0.05969
1503.06376	0.06063
1501.77799	0.06157
1500.49222	0.06256
1499.20645	0.06356
1497.92068	0.06453
1496.63491	0.06543
1495.34915	0.06625
1494.06338	0.06703
1492.77761	0.06780
1491.49184	0.06859
1490.20607	0.06942
1488.92030	0.07025
1487.63453	0.07109
1486.34876	0.07197
1485.06299	0.07295
1483.77723	0.07405
1482.49146	0.07525
1481.20569	0.07646
1479.91992	0.07762
1478.63415	0.07870
1477.34838	0.07973
1476.06261	0.08072
1474.77684	0.08169
1473.49108	0.08262
1472.20531	0.08341
1470.91954	0.08401
1469.63377	0.08442
1468.34800	0.08471
1467.06223	0.08495
1465.77646	0.08517
1464.49069	0.08537
1463.20492	0.08558
1461.91916	0.08586
1460.63339	0.08629
1459.34762	0.08692
1458.06185	0.08769
1456.77608	0.08849
1455.49031	0.08921
1454.20454	0.08986
1452.91877	0.09046
1451.63301	0.09103
1450.34724	0.09155
1449.06147	0.09196
1447.77570	0.09221
1446.48993	0.09226
1445.20416	0.09211
1443.91839	0.09182
1442.63262	0.09146
1441.34685	0.09107
1440.06109	0.09070
1438.77532	0.09040
1437.48955	0.09020
1436.20378	0.09011
1434.91801	0.09014
1433.63224	0.09036
1432.34647	0.09080
1431.06070	0.09149
1429.77494	0.09239
1428.48917	0.09344
1427.20340	0.09458
1425.91763	0.09577
1424.63186	0.09697
1423.34609	0.09814
1422.06032	0.09927
1420.77455	0.10033
1419.48878	0.10127
1418.20302	0.10198
1416.91725	0.10239
1415.63148	0.10252
1414.34571	0.10245
1413.05994	0.10223
1411.77417	0.10188
1410.48840	0.10135
1409.20263	0.10061
1407.91687	0.09964
1406.63110	0.09843
1405.34533	0.09703
1404.05956	0.09547
1402.77379	0.09380
1401.48802	0.09203
1400.20225	0.09020
1398.91648	0.08833
1397.63071	0.08641
1396.34495	0.08444
1395.05918	0.08242
1393.77341	0.08033
1392.48764	0.07822
1391.20187	0.07612
1389.91610	0.07408
1388.63033	0.07215
1387.34456	0.07033
1386.05880	0.06857
1384.77303	0.06684
1383.48726	0.06512
1382.20149	0.06347
1380.91572	0.06189
1379.62995	0.06036
1378.34418	0.05881
1377.05841	0.05721
1375.77264	0.05555
1374.48688	0.05383
1373.20111	0.05210
1371.91534	0.05042
1370.62957	0.04883
1369.34380	0.04737
1368.05803	0.04603
1366.77226	0.04477
1365.48649	0.04357
1364.20073	0.04240
1362.91496	0.04128
1361.62919	0.04024
1360.34342	0.03928
1359.05765	0.03839
1357.77188	0.03755
1356.48611	0.03676
1355.20034	0.03601
1353.91457	0.03532
1352.62881	0.03465
1351.34304	0.03398
1350.05727	0.03329
1348.77150	0.03260
1347.48573	0.03196
1346.19996	0.03139
1344.91419	0.03090
1343.62842	0.03045
1342.34266	0.03001
1341.05689	0.02955
1339.77112	0.02909
1338.48535	0.02867
1337.19958	0.02831
1335.91381	0.02799
1334.62804	0.02766
1333.34227	0.02731
1332.05650	0.02695
1330.77074	0.02660
1329.48497	0.02627
1328.19920	0.02594
1326.91343	0.02565
1325.62766	0.02539
1324.34189	0.02516
1323.05612	0.02492
1321.77035	0.02464
1320.48459	0.02433
1319.19882	0.02400
1317.91305	0.02369
1316.62728	0.02341
1315.34151	0.02317
1314.05574	0.02298
1312.76997	0.02282
1311.48420	0.02268
1310.19843	0.02253
1308.91267	0.02236
1307.62690	0.02218
1306.34113	0.02198
1305.05536	0.02177
1303.76959	0.02155
1302.48382	0.02135
1301.19805	0.02119
1299.91228	0.02108
1298.62652	0.02099
1297.34075	0.02088
1296.05498	0.02074
1294.76921	0.02056
1293.48344	0.02037
1292.19767	0.02022
1290.91190	0.02011
1289.62613	0.02002
1288.34036	0.01995
1287.05460	0.01988
1285.76883	0.01981
1284.48306	0.01975
1283.19729	0.01968
1281.91152	0.01961
1280.62575	0.01950
1279.33998	0.01933
1278.05421	0.01915
1276.76845	0.01897
1275.48268	0.01881
1274.19691	0.01867
1272.91114	0.01858
1271.62537	0.01854
1270.33960	0.01853
1269.05383	0.01848
1267.76806	0.01837
1266.48229	0.01824
1265.19653	0.01813
1263.91076	0.01807
1262.62499	0.01804
1261.33922	0.01803
1260.05345	0.01799
1258.76768	0.01792
1257.48191	0.01783
1256.19614	0.01773
1254.91037	0.01767
1253.62461	0.01764
1252.33884	0.01764
1251.05307	0.01764
1249.76730	0.01763
1248.48153	0.01759
1247.19576	0.01749
1245.90999	0.01733
1244.62422	0.01715
1243.33846	0.01703
1242.05269	0.01699
1240.76692	0.01699
1239.48115	0.01696
1238.19538	0.01690
1236.90961	0.01684
1235.62384	0.01681
1234.33807	0.01678
1233.05230	0.01675
1231.76654	0.01671
1230.48077	0.01670
1229.19500	0.01673
1227.90923	0.01678
1226.62346	0.01680
1225.33769	0.01679
1224.05192	0.01677
1222.76615	0.01677
1221.48039	0.01678
1220.19462	0.01676
1218.90885	0.01672
1217.62308	0.01666
1216.33731	0.01665
1215.05154	0.01673
1213.76577	0.01687
1212.48000	0.01700
1211.19423	0.01709
1209.90847	0.01712
1208.62270	0.01715
1207.33693	0.01719
1206.05116	0.01724
1204.76539	0.01730
1203.47962	0.01736
1202.19385	0.01742
1200.90808	0.01748
1199.62232	0.01753
1198.33655	0.01759
1197.05078	0.01762
1195.76501	0.01762
1194.47924	0.01765
1193.19347	0.01773
1191.90770	0.01786
1190.62193	0.01798
1189.33616	0.01808
1188.05040	0.01817
1186.76463	0.01825
1185.47886	0.01831
1184.19309	0.01834
1182.90732	0.01834
1181.62155	0.01834
1180.33578	0.01834
1179.05001	0.01838
1177.76425	0.01848
1176.47848	0.01865
1175.19271	0.01886
1173.90694	0.01907
1172.62117	0.01922
1171.33540	0.01925
1170.04963	0.01920
1168.76386	0.01918
1167.47809	0.01927
1166.19233	0.01949
1164.90656	0.01976
1163.62079	0.02000
1162.33502	0.02017
1161.04925	0.02030
1159.76348	0.02043
1158.47771	0.02065
1157.19194	0.02097
1155.90618	0.02133
1154.62041	0.02163
1153.33464	0.02186
1152.04887	0.02206
1150.76310	0.02232
1149.47733	0.02267
1148.19156	0.02314
1146.90579	0.02368
1145.62002	0.02427
1144.33426	0.02487
1143.04849	0.02547
1141.76272	0.02611
1140.47695	0.02684
1139.19118	0.02770
1137.90541	0.02870
1136.61964	0.02984
1135.33387	0.03108
1134.04811	0.03240
1132.76234	0.03380
1131.47657	0.03536
1130.19080	0.03712
1128.90503	0.03913
1127.61926	0.04138
1126.33349	0.04388
1125.04772	0.04662
1123.76195	0.04951
1122.47619	0.05247
1121.19042	0.05550
1119.90465	0.05862
1118.61888	0.06185
1117.33311	0.06512
1116.04734	0.06844
1114.76157	0.07181
1113.47580	0.07520
1112.19004	0.07848
1110.90427	0.08153
1109.61850	0.08432
1108.33273	0.08696
1107.04696	0.08955
1105.76119	0.09213
1104.47542	0.09462
1103.18965	0.09698
1101.90388	0.09919
1100.61812	0.10133
1099.33235	0.10348
1098.04658	0.10565
1096.76081	0.10782
1095.47504	0.10993
1094.18927	0.11194
1092.90350	0.11385
1091.61773	0.11565
1090.33197	0.11733
1089.04620	0.11886
1087.76043	0.12028
1086.47466	0.12170
1085.18889	0.12325
1083.90312	0.12499
1082.61735	0.12686
1081.33158	0.12883
1080.04581	0.13090
1078.76005	0.13312
1077.47428	0.13553
1076.18851	0.13812
1074.90274	0.14086
1073.61697	0.14374
1072.33120	0.14676
1071.04543	0.14991
1069.75966	0.15317
1068.47390	0.15649
1067.18813	0.15990
1065.90236	0.16342
1064.61659	0.16706
1063.33082	0.17076
1062.04505	0.17443
1060.75928	0.17804
1059.47351	0.18162
1058.18774	0.18518
1056.90198	0.18876
1055.61621	0.19231
1054.33044	0.19580
1053.04467	0.19924
1051.75890	0.20265
1050.47313	0.20610
1049.18736	0.20967
1047.90159	0.21341
1046.61583	0.21732
1045.33006	0.22134
1044.04429	0.22535
1042.75852	0.22923
1041.47275	0.23299
1040.18698	0.23673
1038.90121	0.24061
1037.61544	0.24465
1036.32967	0.24875
1035.04391	0.25276
1033.75814	0.25659
1032.47237	0.26015
1031.18660	0.26338
1029.90083	0.26624
1028.61506	0.26872
1027.32929	0.27086
1026.04352	0.27268
1024.75775	0.27416
1023.47199	0.27519
1022.18622	0.27567
1020.90045	0.27551
1019.61468	0.27471
1018.32891	0.27322
1017.04314	0.27093
1015.75737	0.26778
1014.47160	0.26382
1013.18584	0.25912
1011.90007	0.25373
1010.61430	0.24762
1009.32853	0.24083
1008.04276	0.23343
1006.75699	0.22548
1005.47122	0.21707
1004.18545	0.20828
1002.89968	0.19926
1001.61392	0.19011
1000.32815	0.18095
999.04238	0.17186
997.75661	0.16293
996.47084	0.15418
995.18507	0.14567
993.89930	0.13747
992.61353	0.12973
991.32777	0.12254
990.04200	0.11595
988.75623	0.10990
987.47046	0.10429
986.18469	0.09906
984.89892	0.09419
983.61315	0.08971
982.32738	0.08565
981.04161	0.08202
979.75585	0.07882
978.47008	0.07599
977.18431	0.07348
975.89854	0.07125
974.61277	0.06933
973.32700	0.06780
972.04123	0.06672
970.75546	0.06615
969.46970	0.06611
968.18393	0.06661
966.89816	0.06758
965.61239	0.06887
964.32662	0.07024
963.04085	0.07142
961.75508	0.07215
960.46931	0.07221
959.18354	0.07146
957.89778	0.06990
956.61201	0.06773
955.32624	0.06524
954.04047	0.06270
952.75470	0.06031
951.46893	0.05813
950.18316	0.05613
948.89739	0.05429
947.61163	0.05255
946.32586	0.05090
945.04009	0.04926
943.75432	0.04761
942.46855	0.04601
941.18278	0.04456
939.89701	0.04331
938.61124	0.04224
937.32547	0.04128
936.03971	0.04039
934.75394	0.03960
933.46817	0.03892
932.18240	0.03834
930.89663	0.03775
929.61086	0.03713
928.32509	0.03650
927.03932	0.03594
925.75356	0.03545
924.46779	0.03499
923.18202	0.03453
921.89625	0.03407
920.61048	0.03366
919.32471	0.03333
918.03894	0.03308
916.75317	0.03285
915.46740	0.03260
914.18164	0.03232
912.89587	0.03201
911.61010	0.03170
910.32433	0.03135
909.03856	0.03098
907.75279	0.03061
906.46702	0.03032
905.18125	0.03012
903.89549	0.02995
902.60972	0.02977
901.32395	0.02959
900.03818	0.02948
898.75241	0.02949
897.46664	0.02957
896.18087	0.02965
894.89510	0.02969
893.60933	0.02980
892.32357	0.03011
891.03780	0.03075
889.75203	0.03174
888.46626	0.03306
887.18049	0.03474
885.89472	0.03687
884.60895	0.03955
883.32318	0.04277
882.03742	0.04625
880.75165	0.04945
879.46588	0.05189
878.18011	0.05350
876.89434	0.05467
875.60857	0.05583
874.32280	0.05703
873.03703	0.05779
871.75126	0.05758
870.46550	0.05621
869.17973	0.05391
867.89396	0.05106
866.60819	0.04796
865.32242	0.04482
864.03665	0.04187
862.75088	0.03931
861.46511	0.03726
860.17935	0.03569
858.89358	0.03448
857.60781	0.03346
856.32204	0.03257
855.03627	0.03182
853.75050	0.03126
852.46473	0.03086
851.17896	0.03055
849.89319	0.03028
848.60743	0.03002
847.32166	0.02977
846.03589	0.02951
844.75012	0.02925
843.46435	0.02903
842.17858	0.02886
840.89281	0.02869
839.60704	0.02847
838.32128	0.02822
837.03551	0.02802
835.74974	0.02792
834.46397	0.02787
833.17820	0.02781
831.89243	0.02771
830.60666	0.02761
829.32089	0.02754
828.03512	0.02747
826.74936	0.02736
825.46359	0.02724
824.17782	0.02713
822.89205	0.02707
821.60628	0.02707
820.32051	0.02714
819.03474	0.02724
817.74897	0.02727
816.46321	0.02718
815.17744	0.02699
813.89167	0.02680
812.60590	0.02667
811.32013	0.02662
810.03436	0.02664
808.74859	0.02671
807.46282	0.02680
806.17705	0.02693
804.89129	0.02708
803.60552	0.02723
802.31975	0.02734
801.03398	0.02739
799.74821	0.02738
798.46244	0.02730
797.17667	0.02719
795.89090	0.02711
794.60513	0.02710
793.31937	0.02715
792.03360	0.02723
790.74783	0.02729
789.46206	0.02734
788.17629	0.02738
786.89052	0.02744
785.60475	0.02749
784.31898	0.02750
783.03322	0.02744
781.74745	0.02732
780.46168	0.02719
779.17591	0.02707
777.89014	0.02698
776.60437	0.02693
775.31860	0.02694
774.03283	0.02700
772.74706	0.02706
771.46130	0.02711
770.17553	0.02717
768.88976	0.02724
767.60399	0.02731
766.31822	0.02734
765.03245	0.02736
763.74668	0.02739
762.46091	0.02742
761.17515	0.02744
759.88938	0.02747
758.60361	0.02753
757.31784	0.02764
756.03207	0.02776
754.74630	0.02785
753.46053	0.02783
752.17476	0.02770
750.88899	0.02757
749.60323	0.02753
748.31746	0.02754
747.03169	0.02749
745.74592	0.02736
744.46015	0.02723
743.17438	0.02714
741.88861	0.02711
740.60284	0.02715
739.31708	0.02726
738.03131	0.02741
736.74554	0.02752
735.45977	0.02759
734.17400	0.02770
732.88823	0.02790
731.60246	0.02817
730.31669	0.02845
729.03092	0.02868
727.74516	0.02886
726.45939	0.02900
725.17362	0.02906
723.88785	0.02883
722.60208	0.02870
721.31631	0.02890
720.03054	0.02905
718.74477	0.02891
717.45901	0.02892
716.17324	0.02899
714.88747	0.02897
713.60170	0.02885
712.31593	0.02867
711.03016	0.02847
709.74439	0.02829
708.45862	0.02815
707.17285	0.02806
705.88709	0.02801
704.60132	0.02797
703.31555	0.02792
702.02978	0.02787
700.74401	0.02781
699.45824	0.02775
698.17247	0.02767
696.88670	0.02759
695.60094	0.02753
694.31517	0.02748
693.02940	0.02744
691.74363	0.02738
690.45786	0.02731
689.17209	0.02723
687.88632	0.02713
686.60055	0.02701
685.31478	0.02685
684.02902	0.02668
682.74325	0.02657
681.45748	0.02652
680.17171	0.02654
678.88594	0.02659
677.60017	0.02668
676.31440	0.02683
675.02863	0.02696
673.74287	0.02677
672.45710	0.02585
671.17133	0.02487
669.88556	0.02649
668.59979	0.03100
667.31402	0.03045
666.02825	0.02669
664.74248	0.02647
663.45671	0.02773
662.17095	0.02830
660.88518	0.02823
659.59941	0.02797
658.31364	0.02778
657.02787	0.02774
655.74210	0.02782
654.45633	0.02787
653.17056	0.02791
651.88480	0.02792
650.59903	0.02800
649.31326	0.02823
648.02749	0.02846
646.74172	0.02876
645.45595	0.02915
644.17018	0.02955
642.88441	0.02993
641.59864	0.03029
640.31288	0.03066
639.02711	0.03105
637.74134	0.03146
636.45557	0.03183
635.16980	0.03217
633.88403	0.03249
632.59826	0.03286
631.31249	0.03338
630.02673	0.03410
628.74096	0.03483
627.45519	0.03530
626.16942	0.03636
624.88365	0.03783
623.59788	0.03944
622.31211	0.04137
621.02634	0.04370
619.74057	0.04624
618.45481	0.04874
617.16904	0.05119
615.88327	0.05356
614.59750	0.05574
613.31173	0.05785
612.02596	0.06040
610.74019	0.06398
609.45442	0.06879
608.16866	0.07442
606.88289	0.08022
605.59712	0.08555
604.31135	0.08969
603.02558	0.09197
601.73981	0.09230
600.45404	0.09112
599.16827	0.08902
597.88250	0.08639
596.59674	0.08343
595.31097	0.08033
594.02520	0.07738
592.73943	0.07487
591.45366	0.07300
590.16789	0.07187
588.88212	0.07150
587.59635	0.07182
586.31059	0.07278
585.02482	0.07431
583.73905	0.07633
582.45328	0.07867
581.16751	0.08118
579.88174	0.08376
578.59597	0.08639
577.31020	0.08909
576.02443	0.09184
574.73867	0.09455
573.45290	0.09717
572.16713	0.09969
570.88136	0.10232
569.59559	0.10537
568.30982	0.10905
567.02405	0.11323
565.73828	0.11738
564.45251	0.12075
563.16675	0.12263
561.88098	0.12261
560.59521	0.12054
559.30944	0.11655
558.02367	0.11098
556.73790	0.10434
555.45213	0.09715
554.16636	0.08988
552.88060	0.08293
551.59483	0.07662
550.30906	0.07112
549.02329	0.06646
547.73752	0.06257
546.45175	0.05926
545.16598	0.05634
543.88021	0.05370
542.59444	0.05133
541.30868	0.04929
540.02291	0.04760
538.73714	0.04619
537.45137	0.04494
536.16560	0.04382
534.87983	0.04285
533.59406	0.04202
532.30829	0.04127
531.02253	0.04050
529.73676	0.03973
528.45099	0.03900
527.16522	0.03834
525.87945	0.03771
524.59368	0.03708
523.30791	0.03644
522.02214	0.03580
520.73637	0.03517
519.45061	0.03461
518.16484	0.03414
516.87907	0.03372
515.59330	0.03328
514.30753	0.03284
513.02176	0.03250
511.73599	0.03229
510.45022	0.03212
509.16446	0.03191
507.87869	0.03166
506.59292	0.03147
505.30715	0.03134
504.02138	0.03118
502.73561	0.03090
501.44984	0.03052
500.16407	0.03014
498.87830	0.02984
497.59254	0.02963
496.30677	0.02949
495.02100	0.02942
493.73523	0.02946
492.44946	0.02959
491.16369	0.02973
489.87792	0.02975
488.59215	0.02966
487.30639	0.02957
486.02062	0.02962
484.73485	0.02984
483.44908	0.03019
482.16331	0.03057
480.87754	0.03093
479.59177	0.03128
478.30600	0.03163
477.02023	0.03198
475.73447	0.03234
474.44870	0.03272
473.16293	0.03311
471.87716	0.03344
470.59139	0.03369
469.30562	0.03387
468.01985	0.03402
466.73408	0.03414
465.44832	0.03415
464.16255	0.03398
462.87678	0.03367
461.59101	0.03330
460.30524	0.03295
459.01947	0.03273
457.73370	0.03265
456.44793	0.03269
455.16216	0.03275
453.87640	0.03277
452.59063	0.03271
451.30486	0.03257
450.01909	0.03234
448.73332	0.03203
447.44755	0.03163
446.16178	0.03119
444.87601	0.03077
443.59025	0.03041
442.30448	0.03015
441.01871	0.02995
439.73294	0.02978
438.44717	0.02960
437.16140	0.02942
435.87563	0.02926
434.58986	0.02912
433.30409	0.02900
432.01833	0.02894
430.73256	0.02893
429.44679	0.02898
428.16102	0.02903
426.87525	0.02904
425.58948	0.02899
424.30371	0.02885
423.01794	0.02865
421.73218	0.02843
420.44641	0.02823
419.16064	0.02810
417.87487	0.02804
416.58910	0.02802
415.30333	0.02800
414.01756	0.02793
412.73179	0.02782
411.44602	0.02770
410.16026	0.02763
408.87449	0.02763
407.58872	0.02774
406.30295	0.02794
405.01718	0.02818
403.73141	0.02841
402.44564	0.02863
401.15987	0.02888
399.87411	0.02916
