3997.45528	0.04479
3996.16951	0.04561
3994.88374	0.04615
3993.59798	0.04636
3992.31221	0.04638
3991.02644	0.04635
3989.74067	0.04620
3988.45490	0.04587
3987.16913	0.04533
3985.88336	0.04466
3984.59759	0.04402
3983.31183	0.04356
3982.02606	0.04337
3980.74029	0.04340
3979.45452	0.04346
3978.16875	0.04332
3976.88298	0.04290
3975.59721	0.04233
3974.31144	0.04188
3973.02567	0.04162
3971.73991	0.04145
3970.45414	0.04130
3969.16837	0.04126
3967.88260	0.04150
3966.59683	0.04202
3965.31106	0.04270
3964.02529	0.04333
3962.73952	0.04364
3961.45376	0.04358
3960.16799	0.04338
3958.88222	0.04331
3957.59645	0.04334
3956.31068	0.04327
3955.02491	0.04302
3953.73914	0.04275
3952.45337	0.04257
3951.16760	0.04246
3949.88184	0.04232
3948.59607	0.04214
3947.31030	0.04206
3946.02453	0.04220
3944.73876	0.04254
3943.45299	0.04286
3942.16722	0.04289
3940.88145	0.04256
3939.59569	0.04209
3938.30992	0.04186
3937.02415	0.04208
3935.73838	0.04264
3934.45261	0.04324
3933.16684	0.04371
3931.88107	0.04396
3930.59530	0.04391
3929.30953	0.04351
3928.02377	0.04287
3926.73800	0.04217
3925.45223	0.04157
3924.16646	0.04115
3922.88069	0.04098
3921.59492	0.04115
3920.30915	0.04164
3919.02338	0.04219
3917.73762	0.04243
3916.45185	0.04216
3915.16608	0.04157
3913.88031	0.04113
3912.59454	0.04112
3911.30877	0.04134
3910.02300	0.04143
3908.73723	0.04134
3907.45146	0.04130
3906.16570	0.04142
3904.87993	0.04150
3903.59416	0.04132
3902.30839	0.04098
3901.02262	0.04091
3899.73685	0.04137
3898.45108	0.04217
3897.16531	0.04269
3895.87955	0.04249
3894.59378	0.04169
3893.30801	0.04100
3892.02224	0.04105
3890.73647	0.04179
3889.45070	0.04250
3888.16493	0.04260
3886.87916	0.04214
3885.59339	0.04162
3884.30763	0.04135
3883.02186	0.04128
3881.73609	0.04133
3880.45032	0.04157
3879.16455	0.04205
3877.87878	0.04251
3876.59301	0.04255
3875.30724	0.04198
3874.02148	0.04113
3872.73571	0.04059
3871.44994	0.04072
3870.16417	0.04145
3868.87840	0.04237
3867.59263	0.04303
3866.30686	0.04313
3865.02109	0.04258
3863.73532	0.04161
3862.44956	0.04066
3861.16379	0.04004
3859.87802	0.03976
3858.59225	0.03959
3857.30648	0.03943
3856.02071	0.03941
3854.73494	0.03971
3853.44917	0.04024
3852.16341	0.04069
3850.87764	0.04081
3849.59187	0.04058
3848.30610	0.04012
3847.02033	0.03962
3845.73456	0.03924
3844.44879	0.03908
3843.16302	0.03920
3841.87725	0.03958
3840.59149	0.04012
3839.30572	0.04063
3838.01995	0.04095
3836.73418	0.04108
3835.44841	0.04109
3834.16264	0.04091
3832.87687	0.04045
3831.59110	0.03986
3830.30534	0.03957
3829.01957	0.03983
3827.73380	0.04034
3826.44803	0.04060
3825.16226	0.04037
3823.87649	0.03984
3822.59072	0.03940
3821.30495	0.03932
3820.01918	0.03964
3818.73342	0.04026
3817.44765	0.04095
3816.16188	0.04145
3814.87611	0.04157
3813.59034	0.04128
3812.30457	0.04064
3811.01880	0.03973
3809.73303	0.03875
3808.44726	0.03805
3807.16150	0.03798
3805.87573	0.03860
3804.58996	0.03959
3803.30419	0.04049
3802.01842	0.04097
3800.73265	0.04084
3799.44688	0.04010
3798.16111	0.03898
3796.87535	0.03792
3795.58958	0.03727
3794.30381	0.03714
3793.01804	0.03740
3791.73227	0.03786
3790.44650	0.03834
3789.16073	0.03874
3787.87496	0.03900
3786.58919	0.03911
3785.30343	0.03910
3784.01766	0.03902
3782.73189	0.03895
3781.44612	0.03886
3780.16035	0.03871
3778.87458	0.03853
3777.58881	0.03840
3776.30304	0.03834
3775.01728	0.03824
3773.73151	0.03813
3772.44574	0.03825
3771.15997	0.03887
3769.87420	0.03984
3768.58843	0.04053
3767.30266	0.04039
3766.01689	0.03942
3764.73112	0.03816
3763.44536	0.03727
3762.15959	0.03711
3760.87382	0.03757
3759.58805	0.03829
3758.30228	0.03884
3757.01651	0.03896
3755.73074	0.03863
3754.44497	0.03797
3753.15921	0.03722
3751.87344	0.03667
3750.58767	0.03661
3749.30190	0.03715
3748.01613	0.03800
3746.73036	0.03880
3745.44459	0.03934
3744.15882	0.03925
3742.87305	0.03856
3741.58729	0.03793
3740.30152	0.03775
3739.01575	0.03782
3737.72998	0.03776
3736.44421	0.03739
3735.15844	0.03700
3733.87267	0.03646
3732.58690	0.03608
3731.30114	0.03603
3730.01537	0.03619
3728.72960	0.03676
3727.44383	0.03732
3726.15806	0.03764
3724.87229	0.03760
3723.58652	0.03700
3722.30075	0.03659
3721.01498	0.03676
3719.72922	0.03704
3718.44345	0.03722
3717.15768	0.03728
3715.87191	0.03725
3714.58614	0.03688
3713.30037	0.03600
3712.01460	0.03566
3710.72883	0.03610
3709.44307	0.03650
3708.15730	0.03697
3706.87153	0.03731
3705.58576	0.03751
3704.29999	0.03764
3703.01422	0.03759
3701.72845	0.03736
3700.44268	0.03707
3699.15691	0.03677
3697.87115	0.03663
3696.58538	0.03667
3695.29961	0.03682
3694.01384	0.03669
3692.72807	0.03679
3691.44230	0.03708
3690.15653	0.03707
3688.87076	0.03677
3687.58500	0.03630
3686.29923	0.03595
3685.01346	0.03633
3683.72769	0.03720
3682.44192	0.03795
3681.15615	0.03831
3679.87038	0.03811
3678.58461	0.03738
3677.29884	0.03669
3676.01308	0.03631
3674.72731	0.03610
3673.44154	0.03579
3672.15577	0.03532
3670.87000	0.03501
3669.58423	0.03520
3668.29846	0.03588
3667.01269	0.03673
3665.72693	0.03737
3664.44116	0.03764
3663.15539	0.03749
3661.86962	0.03710
3660.58385	0.03664
3659.29808	0.03620
3658.01231	0.03590
3656.72654	0.03590
3655.44077	0.03627
3654.15501	0.03686
3652.86924	0.03743
3651.58347	0.03772
3650.29770	0.03769
3649.01193	0.03752
3647.72616	0.03756
3646.44039	0.03790
3645.15462	0.03833
3643.86886	0.03866
3642.58309	0.03871
3641.29732	0.03848
3640.01155	0.03815
3638.72578	0.03789
3637.44001	0.03785
3636.15424	0.03804
3634.86847	0.03820
3633.58270	0.03831
3632.29694	0.03823
3631.01117	0.03800
3629.72540	0.03805
3628.43963	0.03827
3627.15386	0.03835
3625.86809	0.03810
3624.58232	0.03812
3623.29655	0.03841
3622.01079	0.03911
3620.72502	0.03988
3619.43925	0.04084
3618.15348	0.04173
3616.86771	0.04232
3615.58194	0.04292
3614.29617	0.04361
3613.01040	0.04379
3611.72463	0.04291
3610.43887	0.04167
3609.15310	0.04096
3607.86733	0.04093
3606.58156	0.04098
3605.29579	0.04098
3604.01002	0.04128
3602.72425	0.04180
3601.43848	0.04249
3600.15272	0.04304
3598.86695	0.04305
3597.58118	0.04232
3596.29541	0.04174
3595.00964	0.04146
3593.72387	0.04164
3592.43810	0.04289
3591.15233	0.04437
3589.86656	0.04528
3588.58080	0.04579
3587.29503	0.04568
3586.00926	0.04520
3584.72349	0.04460
3583.43772	0.04390
3582.15195	0.04327
3580.86618	0.04315
3579.58041	0.04357
3578.29464	0.04425
3577.00888	0.04485
3575.72311	0.04525
3574.43734	0.04549
3573.15157	0.04564
3571.86580	0.04571
3570.58003	0.04580
3569.29426	0.04607
3568.00849	0.04648
3566.72273	0.04678
3565.43696	0.04675
3564.15119	0.04624
3562.86542	0.04559
3561.57965	0.04518
3560.29388	0.04513
3559.00811	0.04537
3557.72234	0.04574
3556.43657	0.04619
3555.15081	0.04672
3553.86504	0.04738
3552.57927	0.04815
3551.29350	0.04890
3550.00773	0.04943
3548.72196	0.04960
3547.43619	0.04941
3546.15042	0.04902
3544.86466	0.04861
3543.57889	0.04840
3542.29312	0.04858
3541.00735	0.04917
3539.72158	0.04995
3538.43581	0.05048
3537.15004	0.05048
3535.86427	0.05000
3534.57850	0.04942
3533.29274	0.04917
3532.00697	0.04937
3530.72120	0.04989
3529.43543	0.05059
3528.14966	0.05134
3526.86389	0.05208
3525.57812	0.05263
3524.29235	0.05290
3523.00659	0.05292
3521.72082	0.05277
3520.43505	0.05250
3519.14928	0.05211
3517.86351	0.05173
3516.57774	0.05149
3515.29197	0.05136
3514.00620	0.05125
3512.72043	0.05104
3511.43467	0.05074
3510.14890	0.05043
3508.86313	0.05021
3507.57736	0.05025
3506.29159	0.05065
3505.00582	0.05137
3503.72005	0.05223
3502.43428	0.05302
3501.14852	0.05356
3499.86275	0.05382
3498.57698	0.05388
3497.29121	0.05383
3496.00544	0.05373
3494.71967	0.05366
3493.43390	0.05373
3492.14813	0.05396
3490.86236	0.05425
3489.57660	0.05443
3488.29083	0.05445
3487.00506	0.05435
3485.71929	0.05421
3484.43352	0.05411
3483.14775	0.05417
3481.86198	0.05445
3480.57621	0.05486
3479.29045	0.05521
3478.00468	0.05542
3476.71891	0.05550
3475.43314	0.05555
3474.14737	0.05561
3472.86160	0.05568
3471.57583	0.05571
3470.29006	0.05560
3469.00429	0.05536
3467.71853	0.05509
3466.43276	0.05497
3465.14699	0.05506
3463.86122	0.05533
3462.57545	0.05564
3461.28968	0.05593
3460.00391	0.05619
3458.71814	0.05647
3457.43238	0.05675
3456.14661	0.05692
3454.86084	0.05690
3453.57507	0.05676
3452.28930	0.05665
3451.00353	0.05668
3449.71776	0.05685
3448.43199	0.05710
3447.14622	0.05737
3445.86046	0.05764
3444.57469	0.05787
3443.28892	0.05796
3442.00315	0.05789
3440.71738	0.05783
3439.43161	0.05798
3438.14584	0.05831
3436.86007	0.05853
3435.57431	0.05846
3434.28854	0.05825
3433.00277	0.05817
3431.71700	0.05835
3430.43123	0.05866
3429.14546	0.05898
3427.85969	0.05935
3426.57392	0.05991
3425.28815	0.06059
3424.00239	0.06112
3422.71662	0.06121
3421.43085	0.06089
3420.14508	0.06047
3418.85931	0.06015
3417.57354	0.05990
3416.28777	0.05959
3415.00200	0.05929
3413.71624	0.05921
3412.43047	0.05936
3411.14470	0.05956
3409.85893	0.05960
3408.57316	0.05954
3407.28739	0.05958
3406.00162	0.05986
3404.71585	0.06033
3403.43008	0.06091
3402.14432	0.06155
3400.85855	0.06214
3399.57278	0.06243
3398.28701	0.06219
3397.00124	0.06151
3395.71547	0.06080
3394.42970	0.06040
3393.14393	0.06029
3391.85817	0.06033
3390.57240	0.06050
3389.28663	0.06088
3388.00086	0.06142
3386.71509	0.06185
3385.42932	0.06196
3384.14355	0.06181
3382.85778	0.06160
3381.57201	0.06144
3380.28625	0.06132
3379.00048	0.06117
3377.71471	0.06101
3376.42894	0.06091
3375.14317	0.06096
3373.85740	0.06129
3372.57163	0.06197
3371.28586	0.06286
3370.00010	0.06355
3368.71433	0.06361
3367.42856	0.06293
3366.14279	0.06182
3364.85702	0.06081
3363.57125	0.06021
3362.28548	0.06003
3360.99971	0.06012
3359.71394	0.06041
3358.42818	0.06086
3357.14241	0.06134
3355.85664	0.06162
3354.57087	0.06159
3353.28510	0.06132
3351.99933	0.06108
3350.71356	0.06111
3349.42779	0.06156
3348.14202	0.06238
3346.85626	0.06329
3345.57049	0.06391
3344.28472	0.06396
3342.99895	0.06351
3341.71318	0.06288
3340.42741	0.06233
3339.14164	0.06184
3337.85587	0.06128
3336.57011	0.06068
3335.28434	0.06033
3333.99857	0.06043
3332.71280	0.06090
3331.42703	0.06142
3330.14126	0.06175
3328.85549	0.06186
3327.56972	0.06187
3326.28395	0.06184
3324.99819	0.06169
3323.71242	0.06123
3322.42665	0.06051
3321.14088	0.05992
3319.85511	0.05988
3318.56934	0.06038
3317.28357	0.06102
3315.99780	0.06137
3314.71204	0.06132
3313.42627	0.06106
3312.14050	0.06077
3310.85473	0.06054
3309.56896	0.06031
3308.28319	0.06011
3306.99742	0.06005
3305.71165	0.06018
3304.42588	0.06037
3303.14012	0.06036
3301.85435	0.06007
3300.56858	0.05968
3299.28281	0.05946
3297.99704	0.05952
3296.71127	0.05984
3295.42550	0.06027
3294.13973	0.06068
3292.85397	0.06090
3291.56820	0.06084
3290.28243	0.06063
3288.99666	0.06046
3287.71089	0.06038
3286.42512	0.06027
3285.13935	0.05998
3283.85358	0.05953
3282.56781	0.05905
3281.28205	0.05872
3279.99628	0.05869
3278.71051	0.05898
3277.42474	0.05946
3276.13897	0.05991
3274.85320	0.06024
3273.56743	0.06046
3272.28166	0.06056
3270.99590	0.06053
3269.71013	0.06045
3268.42436	0.06047
3267.13859	0.06065
3265.85282	0.06088
3264.56705	0.06099
3263.28128	0.06084
3261.99551	0.06047
3260.70974	0.05997
3259.42398	0.05947
3258.13821	0.05910
3256.85244	0.05898
3255.56667	0.05914
3254.28090	0.05941
3252.99513	0.05956
3251.70936	0.05955
3250.42359	0.05953
3249.13783	0.05962
3247.85206	0.05969
3246.56629	0.05948
3245.28052	0.05904
3243.99475	0.05870
3242.70898	0.05868
3241.42321	0.05881
3240.13744	0.05869
3238.85167	0.05813
3237.56591	0.05735
3236.28014	0.05677
3234.99437	0.05671
3233.70860	0.05716
3232.42283	0.05790
3231.13706	0.05852
3229.85129	0.05873
3228.56552	0.05852
3227.27976	0.05818
3225.99399	0.05807
3224.70822	0.05821
3223.42245	0.05829
3222.13668	0.05801
3220.85091	0.05744
3219.56514	0.05692
3218.27937	0.05669
3216.99360	0.05660
3215.70784	0.05640
3214.42207	0.05608
3213.13630	0.05593
3211.85053	0.05608
3210.56476	0.05634
3209.27899	0.05632
3207.99322	0.05584
3206.70745	0.05504
3205.42169	0.05430
3204.13592	0.05399
3202.85015	0.05422
3201.56438	0.05474
3200.27861	0.05517
3198.99284	0.05533
3197.70707	0.05532
3196.42130	0.05535
3195.13553	0.05543
3193.84977	0.05547
3192.56400	0.05543
3191.27823	0.05535
3189.99246	0.05530
3188.70669	0.05519
3187.42092	0.05496
3186.13515	0.05463
3184.84938	0.05434
3183.56362	0.05422
3182.27785	0.05425
3180.99208	0.05429
3179.70631	0.05419
3178.42054	0.05398
3177.13477	0.05376
3175.84900	0.05361
3174.56323	0.05349
3173.27746	0.05340
3171.99170	0.05346
3170.70593	0.05371
3169.42016	0.05398
3168.13439	0.05403
3166.84862	0.05377
3165.56285	0.05328
3164.27708	0.05272
3162.99131	0.05225
3161.70555	0.05203
3160.41978	0.05210
3159.13401	0.05238
3157.84824	0.05274
3156.56247	0.05305
3155.27670	0.05309
3153.99093	0.05272
3152.70516	0.05199
3151.41939	0.05130
3150.13363	0.05103
3148.84786	0.05123
3147.56209	0.05164
3146.27632	0.05194
3144.99055	0.05202
3143.70478	0.05194
3142.41901	0.05175
3141.13324	0.05149
3139.84748	0.05123
3138.56171	0.05108
3137.27594	0.05103
3135.99017	0.05102
3134.70440	0.05108
3133.41863	0.05121
3132.13286	0.05134
3130.84709	0.05135
3129.56132	0.05123
3128.27556	0.05118
3126.98979	0.05131
3125.70402	0.05146
3124.41825	0.05137
3123.13248	0.05093
3121.84671	0.05034
3120.56094	0.04984
3119.27517	0.04959
3117.98940	0.04959
3116.70364	0.04974
3115.41787	0.04991
3114.13210	0.05001
3112.84633	0.05008
3111.56056	0.05012
3110.27479	0.05008
3108.98902	0.04989
3107.70325	0.04964
3106.41749	0.04951
3105.13172	0.04960
3103.84595	0.04980
3102.56018	0.04995
3101.27441	0.04999
3099.98864	0.05003
3098.70287	0.05012
3097.41710	0.05017
3096.13133	0.05002
3094.84557	0.04959
3093.55980	0.04897
3092.27403	0.04838
3090.98826	0.04799
3089.70249	0.04783
3088.41672	0.04780
3087.13095	0.04786
3085.84518	0.04801
3084.55942	0.04821
3083.27365	0.04833
3081.98788	0.04836
3080.70211	0.04840
3079.41634	0.04852
3078.13057	0.04859
3076.84480	0.04846
3075.55903	0.04807
3074.27326	0.04755
3072.98750	0.04706
3071.70173	0.04671
3070.41596	0.04659
3069.13019	0.04666
3067.84442	0.04679
3066.55865	0.04686
3065.27288	0.04692
3063.98711	0.04708
3062.70135	0.04735
3061.41558	0.04759
3060.12981	0.04770
3058.84404	0.04765
3057.55827	0.04750
3056.27250	0.04727
3054.98673	0.04696
3053.70096	0.04659
3052.41519	0.04626
3051.12943	0.04606
3049.84366	0.04599
3048.55789	0.04596
3047.27212	0.04585
3045.98635	0.04566
3044.70058	0.04547
3043.41481	0.04536
3042.12904	0.04530
3040.84328	0.04514
3039.55751	0.04486
3038.27174	0.04462
3036.98597	0.04455
3035.70020	0.04466
3034.41443	0.04484
3033.12866	0.04502
3031.84289	0.04520
3030.55712	0.04531
3029.27136	0.04526
3027.98559	0.04501
3026.69982	0.04473
3025.41405	0.04461
3024.12828	0.04467
3022.84251	0.04474
3021.55674	0.04467
3020.27097	0.04444
3018.98521	0.04416
3017.69944	0.04401
3016.41367	0.04407
3015.12790	0.04423
3013.84213	0.04428
3012.55636	0.04415
3011.27059	0.04392
3009.98482	0.04372
3008.69905	0.04358
3007.41329	0.04343
3006.12752	0.04320
3004.84175	0.04295
3003.55598	0.04280
3002.27021	0.04285
3000.98444	0.04310
2999.69867	0.04341
2998.41290	0.04359
2997.12714	0.04355
2995.84137	0.04336
2994.55560	0.04317
2993.26983	0.04308
2991.98406	0.04312
2990.69829	0.04331
2989.41252	0.04365
2988.12675	0.04400
2986.84098	0.04411
2985.55522	0.04384
2984.26945	0.04343
2982.98368	0.04329
2981.69791	0.04358
2980.41214	0.04413
2979.12637	0.04460
2977.84060	0.04487
2976.55483	0.04507
2975.26907	0.04546
2973.98330	0.04609
2972.69753	0.04675
2971.41176	0.04714
2970.12599	0.04720
2968.84022	0.04719
2967.55445	0.04748
2966.26868	0.04815
2964.98291	0.04905
2963.69715	0.04992
2962.41138	0.05065
2961.12561	0.05131
2959.83984	0.05205
2958.55407	0.05294
2957.26830	0.05387
2955.98253	0.05468
2954.69676	0.05526
2953.41100	0.05561
2952.12523	0.05574
2950.83946	0.05569
2949.55369	0.05549
2948.26792	0.05519
2946.98215	0.05484
2945.69638	0.05451
2944.41061	0.05427
2943.12484	0.05420
2941.83908	0.05433
2940.55331	0.05464
2939.26754	0.05513
2937.98177	0.05582
2936.69600	0.05671
2935.41023	0.05761
2934.12446	0.05834
2932.83869	0.05882
2931.55293	0.05909
2930.26716	0.05926
2928.98139	0.05938
2927.69562	0.05954
2926.40985	0.05981
2925.12408	0.06018
2923.83831	0.06059
2922.55254	0.06095
2921.26677	0.06113
2919.98101	0.06103
2918.69524	0.06069
2917.40947	0.06025
2916.12370	0.05987
2914.83793	0.05959
2913.55216	0.05922
2912.26639	0.05858
2910.98062	0.05773
2909.69486	0.05692
2908.40909	0.05632
2907.12332	0.05584
2905.83755	0.05538
2904.55178	0.05497
2903.26601	0.05464
2901.98024	0.05433
2900.69447	0.05392
2899.40870	0.05348
2898.12294	0.05313
2896.83717	0.05287
2895.55140	0.05259
2894.26563	0.05221
2892.97986	0.05181
2891.69409	0.05149
2890.40832	0.05128
2889.12255	0.05105
2887.83678	0.05072
2886.55102	0.05029
2885.26525	0.04986
2883.97948	0.04957
2882.69371	0.04950
2881.40794	0.04953
2880.12217	0.04949
2878.83640	0.04937
2877.55063	0.04936
2876.26487	0.04960
2874.97910	0.05005
2873.69333	0.05049
2872.40756	0.05078
2871.12179	0.05095
2869.83602	0.05112
2868.55025	0.05139
2867.26448	0.05167
2865.97871	0.05178
2864.69295	0.05159
2863.40718	0.05116
2862.12141	0.05073
2860.83564	0.05050
2859.54987	0.05049
2858.26410	0.05053
2856.97833	0.05043
2855.69256	0.05019
2854.40680	0.04996
2853.12103	0.04987
2851.83526	0.04987
2850.54949	0.04979
2849.26372	0.04946
2847.97795	0.04886
2846.69218	0.04816
2845.40641	0.04755
2844.12064	0.04709
2842.83488	0.04671
2841.54911	0.04634
2840.26334	0.04596
2838.97757	0.04553
2837.69180	0.04502
2836.40603	0.04437
2835.12026	0.04364
2833.83449	0.04298
2832.54873	0.04249
2831.26296	0.04221
2829.97719	0.04209
2828.69142	0.04203
2827.40565	0.04194
2826.11988	0.04171
2824.83411	0.04136
2823.54834	0.04100
2822.26257	0.04072
2820.97681	0.04050
2819.69104	0.04026
2818.40527	0.03995
2817.11950	0.03968
2815.83373	0.03948
2814.54796	0.03933
2813.26219	0.03919
2811.97642	0.03909
2810.69066	0.03906
2809.40489	0.03909
2808.11912	0.03910
2806.83335	0.03903
2805.54758	0.03885
2804.26181	0.03859
2802.97604	0.03831
2801.69027	0.03818
2800.40450	0.03827
2799.11874	0.03848
2797.83297	0.03858
2796.54720	0.03844
2795.26143	0.03815
2793.97566	0.03788
2792.68989	0.03775
2791.40412	0.03767
2790.11835	0.03751
2788.83259	0.03725
2787.54682	0.03704
2786.26105	0.03699
2784.97528	0.03706
2783.68951	0.03712
2782.40374	0.03715
2781.11797	0.03721
2779.83220	0.03731
2778.54643	0.03739
2777.26067	0.03742
2775.97490	0.03739
2774.68913	0.03730
2773.40336	0.03716
2772.11759	0.03707
2770.83182	0.03709
2769.54605	0.03717
2768.26028	0.03717
2766.97452	0.03705
2765.68875	0.03685
2764.40298	0.03666
2763.11721	0.03653
2761.83144	0.03644
2760.54567	0.03639
2759.25990	0.03638
2757.97413	0.03640
2756.68836	0.03641
2755.40260	0.03635
2754.11683	0.03619
2752.83106	0.03599
2751.54529	0.03584
2750.25952	0.03576
2748.97375	0.03571
2747.68798	0.03565
2746.40221	0.03561
2745.11645	0.03562
2743.83068	0.03565
2742.54491	0.03568
2741.25914	0.03567
2739.97337	0.03562
2738.68760	0.03554
2737.40183	0.03545
2736.11606	0.03539
2734.83029	0.03533
2733.54453	0.03524
2732.25876	0.03515
2730.97299	0.03510
2729.68722	0.03508
2728.40145	0.03509
2727.11568	0.03509
2725.82991	0.03503
2724.54414	0.03491
2723.25838	0.03479
2721.97261	0.03478
2720.68684	0.03487
2719.40107	0.03497
2718.11530	0.03497
2716.82953	0.03484
2715.54376	0.03464
2714.25799	0.03448
2712.97222	0.03442
2711.68646	0.03448
2710.40069	0.03453
2709.11492	0.03449
2707.82915	0.03434
2706.54338	0.03412
2705.25761	0.03389
2703.97184	0.03371
2702.68607	0.03364
2701.40031	0.03371
2700.11454	0.03384
2698.82877	0.03393
2697.54300	0.03394
2696.25723	0.03393
2694.97146	0.03392
2693.68569	0.03386
2692.39992	0.03369
2691.11415	0.03346
2689.82839	0.03329
2688.54262	0.03329
2687.25685	0.03343
2685.97108	0.03357
2684.68531	0.03359
2683.39954	0.03348
2682.11377	0.03330
2680.82800	0.03316
2679.54224	0.03309
2678.25647	0.03311
2676.97070	0.03314
2675.68493	0.03310
2674.39916	0.03294
2673.11339	0.03272
2671.82762	0.03256
2670.54185	0.03259
2669.25608	0.03278
2667.97032	0.03300
2666.68455	0.03311
2665.39878	0.03313
2664.11301	0.03314
2662.82724	0.03318
2661.54147	0.03322
2660.25570	0.03320
2658.96993	0.03311
2657.68417	0.03301
2656.39840	0.03297
2655.11263	0.03302
2653.82686	0.03310
2652.54109	0.03316
2651.25532	0.03320
2649.96955	0.03324
2648.68378	0.03326
2647.39801	0.03322
2646.11225	0.03307
2644.82648	0.03283
2643.54071	0.03255
2642.25494	0.03228
2640.96917	0.03203
2639.68340	0.03177
2638.39763	0.03156
2637.11186	0.03141
2635.82609	0.03126
2634.54033	0.03110
2633.25456	0.03096
2631.96879	0.03090
2630.68302	0.03087
2629.39725	0.03078
2628.11148	0.03066
2626.82571	0.03052
2625.53994	0.03031
2624.25418	0.02997
2622.96841	0.02957
2621.68264	0.02936
2620.39687	0.02951
2619.11110	0.02983
2617.82533	0.02997
2616.53956	0.02974
2615.25379	0.02932
2613.96802	0.02893
2612.68226	0.02866
2611.39649	0.02846
2610.11072	0.02834
2608.82495	0.02837
2607.53918	0.02859
2606.25341	0.02896
2604.96764	0.02934
2603.68187	0.02953
2602.39611	0.02941
2601.11034	0.02899
2599.82457	0.02839
2598.53880	0.02781
2597.25303	0.02740
2595.96726	0.02719
2594.68149	0.02713
2593.39572	0.02718
2592.10995	0.02736
2590.82419	0.02764
2589.53842	0.02795
2588.25265	0.02815
2586.96688	0.02815
2585.68111	0.02795
2584.39534	0.02773
2583.10957	0.02772
2581.82380	0.02797
2580.53804	0.02820
2579.25227	0.02804
2577.96650	0.02746
2576.68073	0.02680
2575.39496	0.02649
2574.10919	0.02661
2572.82342	0.02682
2571.53765	0.02679
2570.25188	0.02652
2568.96612	0.02631
2567.68035	0.02641
2566.39458	0.02674
2565.10881	0.02704
2563.82304	0.02706
2562.53727	0.02685
2561.25150	0.02661
2559.96573	0.02650
2558.67997	0.02651
2557.39420	0.02652
2556.10843	0.02651
2554.82266	0.02655
2553.53689	0.02665
2552.25112	0.02672
2550.96535	0.02669
2549.67958	0.02660
2548.39381	0.02658
2547.10805	0.02667
2545.82228	0.02671
2544.53651	0.02660
2543.25074	0.02645
2541.96497	0.02641
2540.67920	0.02638
2539.39343	0.02612
2538.10766	0.02557
2536.82190	0.02492
2535.53613	0.02443
2534.25036	0.02427
2532.96459	0.02446
2531.67882	0.02483
2530.39305	0.02514
2529.10728	0.02522
2527.82151	0.02510
2526.53574	0.02494
2525.24998	0.02485
2523.96421	0.02488
2522.67844	0.02498
2521.39267	0.02511
2520.10690	0.02526
2518.82113	0.02542
2517.53536	0.02547
2516.24959	0.02540
2514.96383	0.02534
2513.67806	0.02539
2512.39229	0.02546
2511.10652	0.02539
2509.82075	0.02521
2508.53498	0.02505
2507.24921	0.02495
2505.96344	0.02484
2504.67767	0.02475
2503.39191	0.02477
2502.10614	0.02487
2500.82037	0.02488
2499.53460	0.02472
2498.24883	0.02451
2496.96306	0.02443
2495.67729	0.02457
2494.39152	0.02483
2493.10576	0.02502
2491.81999	0.02495
2490.53422	0.02460
2489.24845	0.02414
2487.96268	0.02384
2486.67691	0.02388
2485.39114	0.02427
2484.10537	0.02478
2482.81960	0.02516
2481.53384	0.02524
2480.24807	0.02507
2478.96230	0.02473
2477.67653	0.02429
2476.39076	0.02387
2475.10499	0.02369
2473.81922	0.02387
2472.53345	0.02423
2471.24769	0.02442
2469.96192	0.02431
2468.67615	0.02406
2467.39038	0.02391
2466.10461	0.02393
2464.81884	0.02403
2463.53307	0.02411
2462.24730	0.02413
2460.96153	0.02409
2459.67577	0.02401
2458.39000	0.02400
2457.10423	0.02417
2455.81846	0.02443
2454.53269	0.02455
2453.24692	0.02442
2451.96115	0.02418
2450.67538	0.02409
2449.38962	0.02427
2448.10385	0.02460
2446.81808	0.02479
2445.53231	0.02461
2444.24654	0.02409
2442.96077	0.02350
2441.67500	0.02314
2440.38923	0.02303
2439.10346	0.02299
2437.81770	0.02286
2436.53193	0.02271
2435.24616	0.02274
2433.96039	0.02297
2432.67462	0.02317
2431.38885	0.02314
2430.10308	0.02298
2428.81731	0.02290
2427.53155	0.02297
2426.24578	0.02297
2424.96001	0.02274
2423.67424	0.02242
2422.38847	0.02233
2421.10270	0.02260
2419.81693	0.02304
2418.53116	0.02335
2417.24539	0.02341
2415.95963	0.02333
2414.67386	0.02325
2413.38809	0.02324
2412.10232	0.02330
2410.81655	0.02343
2409.53078	0.02356
2408.24501	0.02365
2406.95924	0.02369
2405.67347	0.02368
2404.38771	0.02362
2403.10194	0.02346
2401.81617	0.02321
2400.53040	0.02289
2399.24463	0.02248
2397.95886	0.02211
2396.67309	0.02192
2395.38732	0.02200
2394.10156	0.02232
2392.81579	0.02277
2391.53002	0.02315
2390.24425	0.02333
2388.95848	0.02333
2387.67271	0.02338
2386.38694	0.02367
2385.10117	0.02416
2383.81540	0.02471
2382.52964	0.02511
2381.24387	0.02540
2379.95810	0.02523
2378.67233	0.02485
2377.38656	0.02480
2376.10079	0.02403
2374.81502	0.02277
2373.52925	0.02234
2372.24349	0.02257
2370.95772	0.02379
2369.67195	0.02338
2368.38618	0.02207
2367.10041	0.02330
2365.81464	0.02582
2364.52887	0.02514
2363.24310	0.02319
2361.95733	0.02426
2360.67157	0.02756
2359.38580	0.02846
2358.10003	0.02806
2356.81426	0.02745
2355.52849	0.02547
2354.24272	0.02347
2352.95695	0.02246
2351.67118	0.02581
2350.38542	0.03552
2349.09965	0.04119
2347.81388	0.03302
2346.52811	0.02022
2345.24234	0.01599
2343.95657	0.01988
2342.67080	0.02325
2341.38503	0.02463
2340.09926	0.02630
2338.81350	0.02769
2337.52773	0.02894
2336.24196	0.02807
2334.95619	0.02686
2333.67042	0.02712
2332.38465	0.02606
2331.09888	0.02495
2329.81311	0.02542
2328.52735	0.02503
2327.24158	0.02552
2325.95581	0.02704
2324.67004	0.02684
2323.38427	0.02606
2322.09850	0.02544
2320.81273	0.02355
2319.52696	0.02302
2318.24119	0.02455
2316.95543	0.02565
2315.66966	0.02559
2314.38389	0.02483
2313.09812	0.02434
2311.81235	0.02416
2310.52658	0.02367
2309.24081	0.02344
2307.95504	0.02343
2306.66928	0.02324
2305.38351	0.02350
2304.09774	0.02370
2302.81197	0.02334
2301.52620	0.02286
2300.24043	0.02276
2298.95466	0.02308
2297.66889	0.02330
2296.38312	0.02312
2295.09736	0.02252
2293.81159	0.02187
2292.52582	0.02155
2291.24005	0.02151
2289.95428	0.02168
2288.66851	0.02182
2287.38274	0.02178
2286.09697	0.02149
2284.81121	0.02120
2283.52544	0.02099
2282.23967	0.02084
2280.95390	0.02076
2279.66813	0.02066
2278.38236	0.02056
2277.09659	0.02044
2275.81082	0.02050
2274.52505	0.02072
2273.23929	0.02089
2271.95352	0.02090
2270.66775	0.02081
2269.38198	0.02066
2268.09621	0.02038
2266.81044	0.01998
2265.52467	0.01947
2264.23890	0.01903
2262.95314	0.01888
2261.66737	0.01894
2260.38160	0.01912
2259.09583	0.01935
2257.81006	0.01940
2256.52429	0.01932
2255.23852	0.01918
2253.95275	0.01898
2252.66698	0.01848
2251.38122	0.01751
2250.09545	0.01630
2248.80968	0.01528
2247.52391	0.01490
2246.23814	0.01536
2244.95237	0.01646
2243.66660	0.01760
2242.38083	0.01819
2241.09507	0.01811
2239.80930	0.01773
2238.52353	0.01745
2237.23776	0.01734
2235.95199	0.01716
2234.66622	0.01675
2233.38045	0.01619
2232.09468	0.01572
2230.80891	0.01544
2229.52315	0.01518
2228.23738	0.01481
2226.95161	0.01449
2225.66584	0.01451
2224.38007	0.01478
2223.09430	0.01476
2221.80853	0.01411
2220.52276	0.01328
2219.23700	0.01318
2217.95123	0.01416
2216.66546	0.01565
2215.37969	0.01681
2214.09392	0.01728
2212.80815	0.01727
2211.52238	0.01702
2210.23661	0.01656
2208.95084	0.01607
2207.66508	0.01602
2206.37931	0.01675
2205.09354	0.01788
2203.80777	0.01858
2202.52200	0.01849
2201.23623	0.01793
2199.95046	0.01721
2198.66469	0.01610
2197.37893	0.01441
2196.09316	0.01260
2194.80739	0.01148
2193.52162	0.01147
2192.23585	0.01215
2190.95008	0.01276
2189.66431	0.01284
2188.37854	0.01252
2187.09277	0.01232
2185.80701	0.01254
2184.52124	0.01295
2183.23547	0.01298
2181.94970	0.01235
2180.66393	0.01144
2179.37816	0.01092
2178.09239	0.01103
2176.80662	0.01129
2175.52085	0.01117
2174.23509	0.01078
2172.94932	0.01055
2171.66355	0.01053
2170.37778	0.01045
2169.09201	0.01031
2167.80624	0.01044
2166.52047	0.01091
2165.23470	0.01134
2163.94894	0.01137
2162.66317	0.01099
2161.37740	0.01038
2160.09163	0.00960
2158.80586	0.00874
2157.52009	0.00798
2156.23432	0.00757
2154.94855	0.00757
2153.66278	0.00791
2152.37702	0.00842
2151.09125	0.00886
2149.80548	0.00917
2148.51971	0.00952
2147.23394	0.01015
2145.94817	0.01101
2144.66240	0.01165
2143.37663	0.01167
2142.09087	0.01113
2140.80510	0.01053
2139.51933	0.01024
2138.23356	0.01014
2136.94779	0.00989
2135.66202	0.00946
2134.37625	0.00924
2133.09048	0.00956
2131.80471	0.01025
2130.51895	0.01092
2129.23318	0.01135
2127.94741	0.01165
2126.66164	0.01192
2125.37587	0.01219
2124.09010	0.01244
2122.80433	0.01276
2121.51856	0.01321
2120.23280	0.01374
2118.94703	0.01421
2117.66126	0.01447
2116.37549	0.01447
2115.08972	0.01427
2113.80395	0.01410
2112.51818	0.01415
2111.23241	0.01445
2109.94664	0.01471
2108.66088	0.01453
2107.37511	0.01383
2106.08934	0.01300
2104.80357	0.01257
2103.51780	0.01262
2102.23203	0.01270
2100.94626	0.01243
2099.66049	0.01195
2098.37473	0.01166
2097.08896	0.01169
2095.80319	0.01189
2094.51742	0.01207
2093.23165	0.01224
2091.94588	0.01256
2090.66011	0.01303
2089.37434	0.01349
2088.08857	0.01377
2086.80281	0.01378
2085.51704	0.01354
2084.23127	0.01309
2082.94550	0.01252
2081.65973	0.01197
2080.37396	0.01164
2079.08819	0.01161
2077.80242	0.01173
2076.51666	0.01171
2075.23089	0.01134
2073.94512	0.01069
2072.65935	0.01014
2071.37358	0.01008
2070.08781	0.01053
2068.80204	0.01107
2067.51627	0.01118
2066.23050	0.01074
2064.94474	0.01007
2063.65897	0.00953
2062.37320	0.00920
2061.08743	0.00894
2059.80166	0.00870
2058.51589	0.00853
2057.23012	0.00844
2055.94435	0.00836
2054.65859	0.00823
2053.37282	0.00804
2052.08705	0.00786
2050.80128	0.00763
2049.51551	0.00731
2048.22974	0.00697
2046.94397	0.00678
2045.65820	0.00677
2044.37243	0.00672
2043.08667	0.00641
2041.80090	0.00597
2040.51513	0.00580
2039.22936	0.00605
2037.94359	0.00643
2036.65782	0.00651
2035.37205	0.00615
2034.08628	0.00558
2032.80052	0.00507
2031.51475	0.00474
2030.22898	0.00460
2028.94321	0.00465
2027.65744	0.00495
2026.37167	0.00544
2025.08590	0.00600
2023.80013	0.00648
2022.51436	0.00692
2021.22860	0.00741
2019.94283	0.00795
2018.65706	0.00831
2017.37129	0.00834
2016.08552	0.00817
2014.79975	0.00802
2013.51398	0.00798
2012.22821	0.00798
2010.94245	0.00791
2009.65668	0.00781
2008.37091	0.00775
2007.08514	0.00769
2005.79937	0.00742
2004.51360	0.00686
2003.22783	0.00635
2001.94206	0.00643
2000.65629	0.00733
1999.37053	0.00872
1998.08476	0.00987
1996.79899	0.01021
1995.51322	0.00975
1994.22745	0.00899
1992.94168	0.00848
1991.65591	0.00844
1990.37014	0.00867
1989.08438	0.00883
1987.79861	0.00890
1986.51284	0.00908
1985.22707	0.00953
1983.94130	0.01008
1982.65553	0.01049
1981.36976	0.01064
1980.08399	0.01057
1978.79822	0.01028
1977.51246	0.00972
1976.22669	0.00903
1974.94092	0.00855
1973.65515	0.00845
1972.36938	0.00851
1971.08361	0.00844
1969.79784	0.00833
1968.51207	0.00842
1967.22631	0.00876
1965.94054	0.00903
1964.65477	0.00893
1963.36900	0.00852
1962.08323	0.00813
1960.79746	0.00809
1959.51169	0.00847
1958.22592	0.00907
1956.94015	0.00965
1955.65439	0.01012
1954.36862	0.01049
1953.08285	0.01073
1951.79708	0.01067
1950.51131	0.01028
1949.22554	0.00981
1947.93977	0.00965
1946.65400	0.01007
1945.36823	0.01101
1944.08247	0.01217
1942.79670	0.01312
1941.51093	0.01354
1940.22516	0.01338
1938.93939	0.01292
1937.65362	0.01242
1936.36785	0.01192
1935.08208	0.01142
1933.79632	0.01110
1932.51055	0.01122
1931.22478	0.01177
1929.93901	0.01247
1928.65324	0.01305
1927.36747	0.01343
1926.08170	0.01360
1924.79593	0.01348
1923.51016	0.01306
1922.22440	0.01248
1920.93863	0.01200
1919.65286	0.01182
1918.36709	0.01191
1917.08132	0.01214
1915.79555	0.01235
1914.50978	0.01249
1913.22401	0.01259
1911.93825	0.01267
1910.65248	0.01269
1909.36671	0.01264
1908.08094	0.01258
1906.79517	0.01254
1905.50940	0.01249
1904.22363	0.01234
1902.93786	0.01214
1901.65209	0.01208
1900.36633	0.01239
1899.08056	0.01304
1897.79479	0.01372
1896.50902	0.01410
1895.22325	0.01407
1893.93748	0.01376
1892.65171	0.01340
1891.36594	0.01314
1890.08018	0.01301
1888.79441	0.01300
1887.50864	0.01310
1886.22287	0.01324
1884.93710	0.01332
1883.65133	0.01323
1882.36556	0.01303
1881.07979	0.01286
1879.79402	0.01284
1878.50826	0.01300
1877.22249	0.01329
1875.93672	0.01362
1874.65095	0.01386
1873.36518	0.01383
1872.07941	0.01349
1870.79364	0.01295
1869.50787	0.01246
1868.22211	0.01225
1866.93634	0.01240
1865.65057	0.01277
1864.36480	0.01320
1863.07903	0.01356
1861.79326	0.01381
1860.50749	0.01398
1859.22172	0.01409
1857.93595	0.01411
1856.65019	0.01403
1855.36442	0.01388
1854.07865	0.01375
1852.79288	0.01367
1851.50711	0.01358
1850.22134	0.01343
1848.93557	0.01327
1847.64980	0.01321
1846.36404	0.01331
1845.07827	0.01347
1843.79250	0.01360
1842.50673	0.01364
1841.22096	0.01360
1839.93519	0.01354
1838.64942	0.01349
1837.36365	0.01350
1836.07788	0.01356
1834.79212	0.01365
1833.50635	0.01374
1832.22058	0.01384
1830.93481	0.01397
1829.64904	0.01405
1828.36327	0.01403
1827.07750	0.01394
1825.79173	0.01389
1824.50597	0.01398
1823.22020	0.01417
1821.93443	0.01428
1820.64866	0.01415
1819.36289	0.01383
1818.07712	0.01356
1816.79135	0.01355
1815.50558	0.01378
1814.21981	0.01405
1812.93405	0.01420
1811.64828	0.01419
1810.36251	0.01410
1809.07674	0.01403
1807.79097	0.01403
1806.50520	0.01411
1805.21943	0.01422
1803.93366	0.01433
1802.64790	0.01441
1801.36213	0.01449
1800.07636	0.01453
1798.79059	0.01450
1797.50482	0.01441
1796.21905	0.01432
1794.93328	0.01429
1793.64751	0.01432
1792.36174	0.01438
1791.07598	0.01441
1789.79021	0.01440
1788.50444	0.01435
1787.21867	0.01423
1785.93290	0.01409
1784.64713	0.01400
1783.36136	0.01404
1782.07559	0.01416
1780.78983	0.01430
1779.50406	0.01440
1778.21829	0.01452
1776.93252	0.01470
1775.64675	0.01495
1774.36098	0.01520
1773.07521	0.01535
1771.78944	0.01540
1770.50367	0.01542
1769.21791	0.01547
1767.93214	0.01558
1766.64637	0.01573
1765.36060	0.01586
1764.07483	0.01592
1762.78906	0.01589
1761.50329	0.01577
1760.21752	0.01563
1758.93176	0.01555
1757.64599	0.01558
1756.36022	0.01569
1755.07445	0.01581
1753.78868	0.01588
1752.50291	0.01592
1751.21714	0.01599
1749.93137	0.01608
1748.64560	0.01616
1747.35984	0.01617
1746.07407	0.01609
1744.78830	0.01598
1743.50253	0.01590
1742.21676	0.01588
1740.93099	0.01595
1739.64522	0.01608
1738.35945	0.01622
1737.07369	0.01634
1735.78792	0.01641
1734.50215	0.01645
1733.21638	0.01646
1731.93061	0.01646
1730.64484	0.01654
1729.35907	0.01674
1728.07330	0.01707
1726.78753	0.01744
1725.50177	0.01774
1724.21600	0.01793
1722.93023	0.01801
1721.64446	0.01805
1720.35869	0.01815
1719.07292	0.01835
1717.78715	0.01867
1716.50138	0.01904
1715.21561	0.01940
1713.92985	0.01973
1712.64408	0.02003
1711.35831	0.02030
1710.07254	0.02054
1708.78677	0.02080
1707.50100	0.02112
1706.21523	0.02150
1704.92946	0.02188
1703.64370	0.02219
1702.35793	0.02240
1701.07216	0.02258
1699.78639	0.02277
1698.50062	0.02305
1697.21485	0.02345
1695.92908	0.02396
1694.64331	0.02449
1693.35754	0.02497
1692.07178	0.02535
1690.78601	0.02565
1689.50024	0.02589
1688.21447	0.02607
1686.92870	0.02621
1685.64293	0.02635
1684.35716	0.02656
1683.07139	0.02691
1681.78563	0.02739
1680.49986	0.02792
1679.21409	0.02841
1677.92832	0.02881
1676.64255	0.02915
1675.35678	0.02949
1674.07101	0.02987
1672.78524	0.03027
1671.49947	0.03065
1670.21371	0.03103
1668.92794	0.03141
1667.64217	0.03183
1666.35640	0.03227
1665.07063	0.03269
1663.78486	0.03307
1662.49909	0.03340
1661.21332	0.03369
1659.92756	0.03394
1658.64179	0.03415
1657.35602	0.03430
1656.07025	0.03439
1654.78448	0.03448
1653.49871	0.03463
1652.21294	0.03486
1650.92717	0.03508
1649.64140	0.03526
1648.35564	0.03540
1647.06987	0.03552
1645.78410	0.03566
1644.49833	0.03576
1643.21256	0.03580
1641.92679	0.03577
1640.64102	0.03571
1639.35525	0.03570
1638.06949	0.03572
1636.78372	0.03576
1635.49795	0.03579
1634.21218	0.03580
1632.92641	0.03585
1631.64064	0.03595
1630.35487	0.03605
1629.06910	0.03610
1627.78333	0.03609
1626.49757	0.03602
1625.21180	0.03594
1623.92603	0.03584
1622.64026	0.03571
1621.35449	0.03558
1620.06872	0.03549
1618.78295	0.03548
1617.49718	0.03553
1616.21142	0.03563
1614.92565	0.03572
1613.63988	0.03580
1612.35411	0.03586
1611.06834	0.03593
1609.78257	0.03601
1608.49680	0.03610
1607.21103	0.03620
1605.92526	0.03630
1604.63950	0.03637
1603.35373	0.03643
1602.06796	0.03647
1600.78219	0.03654
1599.49642	0.03665
1598.21065	0.03679
1596.92488	0.03695
1595.63911	0.03714
1594.35335	0.03732
1593.06758	0.03745
1591.78181	0.03752
1590.49604	0.03754
1589.21027	0.03760
1587.92450	0.03775
1586.63873	0.03800
1585.35296	0.03825
1584.06719	0.03845
1582.78143	0.03858
1581.49566	0.03867
1580.20989	0.03878
1578.92412	0.03892
1577.63835	0.03912
1576.35258	0.03935
1575.06681	0.03958
1573.78104	0.03979
1572.49528	0.03996
1571.20951	0.04011
1569.92374	0.04025
1568.63797	0.04037
1567.35220	0.04046
1566.06643	0.04053
1564.78066	0.04058
1563.49489	0.04061
1562.20912	0.04060
1560.92336	0.04054
1559.63759	0.04045
1558.35182	0.04038
1557.06605	0.04034
1555.78028	0.04033
1554.49451	0.04035
1553.20874	0.04036
1551.92297	0.04035
1550.63721	0.04028
1549.35144	0.04016
1548.06567	0.03999
1546.77990	0.03980
1545.49413	0.03961
1544.20836	0.03942
1542.92259	0.03919
1541.63682	0.03891
1540.35105	0.03864
1539.06529	0.03840
1537.77952	0.03820
1536.49375	0.03797
1535.20798	0.03772
1533.92221	0.03747
1532.63644	0.03727
1531.35067	0.03715
1530.06490	0.03710
1528.77914	0.03713
1527.49337	0.03722
1526.20760	0.03737
1524.92183	0.03753
1523.63606	0.03768
1522.35029	0.03787
1521.06452	0.03815
1519.77875	0.03851
1518.49298	0.03893
1517.20722	0.03937
1515.92145	0.03986
1514.63568	0.04041
1513.34991	0.04105
1512.06414	0.04174
1510.77837	0.04244
1509.49260	0.04312
1508.20683	0.04378
1506.92107	0.04442
1505.63530	0.04507
1504.34953	0.04572
1503.06376	0.04635
1501.77799	0.04695
1500.49222	0.04752
1499.20645	0.04804
1497.92068	0.04850
1496.63491	0.04891
1495.34915	0.04929
1494.06338	0.04966
1492.77761	0.05006
1491.49184	0.05048
1490.20607	0.05092
1488.92030	0.05139
1487.63453	0.05190
1486.34876	0.05250
1485.06299	0.05319
1483.77723	0.05393
1482.49146	0.05469
1481.20569	0.05546
1479.91992	0.05625
1478.63415	0.05707
1477.34838	0.05790
1476.06261	0.05875
1474.77684	0.05959
1473.49108	0.06041
1472.20531	0.06115
1470.91954	0.06181
1469.63377	0.06238
1468.34800	0.06290
1467.06223	0.06338
1465.77646	0.06381
1464.49069	0.06417
1463.20492	0.06449
1461.91916	0.06478
1460.63339	0.06507
1459.34762	0.06542
1458.06185	0.06585
1456.77608	0.06634
1455.49031	0.06678
1454.20454	0.06710
1452.91877	0.06732
1451.63301	0.06752
1450.34724	0.06776
1449.06147	0.06801
1447.77570	0.06821
1446.48993	0.06832
1445.20416	0.06832
1443.91839	0.06820
1442.63262	0.06795
1441.34685	0.06762
1440.06109	0.06726
1438.77532	0.06693
1437.48955	0.06669
1436.20378	0.06658
1434.91801	0.06661
1433.63224	0.06680
1432.34647	0.06716
1431.06070	0.06770
1429.77494	0.06841
1428.48917	0.06926
1427.20340	0.07017
1425.91763	0.07112
1424.63186	0.07207
1423.34609	0.07298
1422.06032	0.07383
1420.77455	0.07464
1419.48878	0.07544
1418.20302	0.07619
1416.91725	0.07683
1415.63148	0.07732
1414.34571	0.07768
1413.05994	0.07793
1411.77417	0.07808
1410.48840	0.07810
1409.20263	0.07796
1407.91687	0.07764
1406.63110	0.07713
1405.34533	0.07646
1404.05956	0.07566
1402.77379	0.07476
1401.48802	0.07378
1400.20225	0.07271
1398.91648	0.07158
1397.63071	0.07044
1396.34495	0.06932
1395.05918	0.06822
1393.77341	0.06710
1392.48764	0.06591
1391.20187	0.06468
1389.91610	0.06345
1388.63033	0.06228
1387.34456	0.06119
1386.05880	0.06018
1384.77303	0.05924
1383.48726	0.05831
1382.20149	0.05734
1380.91572	0.05633
1379.62995	0.05529
1378.34418	0.05425
1377.05841	0.05321
1375.77264	0.05213
1374.48688	0.05095
1373.20111	0.04966
1371.91534	0.04831
1370.62957	0.04700
1369.34380	0.04580
1368.05803	0.04473
1366.77226	0.04376
1365.48649	0.04281
1364.20073	0.04185
1362.91496	0.04086
1361.62919	0.03989
1360.34342	0.03897
1359.05765	0.03812
1357.77188	0.03733
1356.48611	0.03658
1355.20034	0.03587
1353.91457	0.03523
1352.62881	0.03466
1351.34304	0.03417
1350.05727	0.03372
1348.77150	0.03325
1347.48573	0.03277
1346.19996	0.03229
1344.91419	0.03184
1343.62842	0.03140
1342.34266	0.03098
1341.05689	0.03059
1339.77112	0.03026
1338.48535	0.02999
1337.19958	0.02974
1335.91381	0.02949
1334.62804	0.02922
1333.34227	0.02894
1332.05650	0.02866
1330.77074	0.02840
1329.48497	0.02816
1328.19920	0.02796
1326.91343	0.02778
1325.62766	0.02762
1324.34189	0.02748
1323.05612	0.02735
1321.77035	0.02718
1320.48459	0.02698
1319.19882	0.02674
1317.91305	0.02649
1316.62728	0.02622
1315.34151	0.02593
1314.05574	0.02562
1312.76997	0.02534
1311.48420	0.02513
1310.19843	0.02500
1308.91267	0.02490
1307.62690	0.02478
1306.34113	0.02460
1305.05536	0.02437
1303.76959	0.02417
1302.48382	0.02406
1301.19805	0.02401
1299.91228	0.02396
1298.62652	0.02383
1297.34075	0.02365
1296.05498	0.02348
1294.76921	0.02334
1293.48344	0.02324
1292.19767	0.02314
1290.91190	0.02302
1289.62613	0.02288
1288.34036	0.02273
1287.05460	0.02263
1285.76883	0.02258
1284.48306	0.02254
1283.19729	0.02247
1281.91152	0.02235
1280.62575	0.02221
1279.33998	0.02210
1278.05421	0.02203
1276.76845	0.02200
1275.48268	0.02197
1274.19691	0.02189
1272.91114	0.02180
1271.62537	0.02172
1270.33960	0.02165
1269.05383	0.02157
1267.76806	0.02147
1266.48229	0.02134
1265.19653	0.02121
1263.91076	0.02111
1262.62499	0.02106
1261.33922	0.02102
1260.05345	0.02096
1258.76768	0.02084
1257.48191	0.02070
1256.19614	0.02059
1254.91037	0.02054
1253.62461	0.02056
1252.33884	0.02062
1251.05307	0.02067
1249.76730	0.02067
1248.48153	0.02063
1247.19576	0.02061
1245.90999	0.02061
1244.62422	0.02061
1243.33846	0.02057
1242.05269	0.02046
1240.76692	0.02031
1239.48115	0.02019
1238.19538	0.02015
1236.90961	0.02013
1235.62384	0.02010
1234.33807	0.02005
1233.05230	0.02000
1231.76654	0.01997
1230.48077	0.01994
1229.19500	0.01987
1227.90923	0.01976
1226.62346	0.01965
1225.33769	0.01955
1224.05192	0.01945
1222.76615	0.01935
1221.48039	0.01924
1220.19462	0.01915
1218.90885	0.01911
1217.62308	0.01913
1216.33731	0.01919
1215.05154	0.01925
1213.76577	0.01930
1212.48000	0.01935
1211.19423	0.01939
1209.90847	0.01943
1208.62270	0.01946
1207.33693	0.01949
1206.05116	0.01955
1204.76539	0.01962
1203.47962	0.01969
1202.19385	0.01975
1200.90808	0.01981
1199.62232	0.01987
1198.33655	0.01991
1197.05078	0.01993
1195.76501	0.01993
1194.47924	0.01994
1193.19347	0.01992
1191.90770	0.01987
1190.62193	0.01978
1189.33616	0.01970
1188.05040	0.01967
1186.76463	0.01970
1185.47886	0.01976
1184.19309	0.01986
1182.90732	0.01996
1181.62155	0.02003
1180.33578	0.02006
1179.05001	0.02007
1177.76425	0.02011
1176.47848	0.02019
1175.19271	0.02025
1173.90694	0.02030
1172.62117	0.02036
1171.33540	0.02045
1170.04963	0.02056
1168.76386	0.02063
1167.47809	0.02067
1166.19233	0.02069
1164.90656	0.02073
1163.62079	0.02082
1162.33502	0.02091
1161.04925	0.02100
1159.76348	0.02109
1158.47771	0.02120
1157.19194	0.02128
1155.90618	0.02132
1154.62041	0.02138
1153.33464	0.02153
1152.04887	0.02178
1150.76310	0.02202
1149.47733	0.02219
1148.19156	0.02232
1146.90579	0.02250
1145.62002	0.02277
1144.33426	0.02314
1143.04849	0.02358
1141.76272	0.02406
1140.47695	0.02459
1139.19118	0.02517
1137.90541	0.02582
1136.61964	0.02657
1135.33387	0.02739
1134.04811	0.02827
1132.76234	0.02923
1131.47657	0.03037
1130.19080	0.03176
1128.90503	0.03340
1127.61926	0.03522
1126.33349	0.03717
1125.04772	0.03925
1123.76195	0.04144
1122.47619	0.04374
1121.19042	0.04613
1119.90465	0.04859
1118.61888	0.05108
1117.33311	0.05359
1116.04734	0.05610
1114.76157	0.05861
1113.47580	0.06112
1112.19004	0.06363
1110.90427	0.06611
1109.61850	0.06846
1108.33273	0.07062
1107.04696	0.07263
1105.76119	0.07459
1104.47542	0.07654
1103.18965	0.07847
1101.90388	0.08036
1100.61812	0.08219
1099.33235	0.08395
1098.04658	0.08561
1096.76081	0.08716
1095.47504	0.08860
1094.18927	0.08992
1092.90350	0.09115
1091.61773	0.09231
1090.33197	0.09344
1089.04620	0.09452
1087.76043	0.09559
1086.47466	0.09664
1085.18889	0.09767
1083.90312	0.09868
1082.61735	0.09972
1081.33158	0.10086
1080.04581	0.10215
1078.76005	0.10357
1077.47428	0.10512
1076.18851	0.10681
1074.90274	0.10863
1073.61697	0.11055
1072.33120	0.11251
1071.04543	0.11446
1069.75966	0.11640
1068.47390	0.11845
1067.18813	0.12068
1065.90236	0.12307
1064.61659	0.12549
1063.33082	0.12787
1062.04505	0.13025
1060.75928	0.13265
1059.47351	0.13502
1058.18774	0.13727
1056.90198	0.13935
1055.61621	0.14135
1054.33044	0.14338
1053.04467	0.14551
1051.75890	0.14778
1050.47313	0.15017
1049.18736	0.15262
1047.90159	0.15510
1046.61583	0.15756
1045.33006	0.16004
1044.04429	0.16257
1042.75852	0.16512
1041.47275	0.16767
1040.18698	0.17020
1038.90121	0.17276
1037.61544	0.17537
1036.32967	0.17800
1035.04391	0.18052
1033.75814	0.18281
1032.47237	0.18490
1031.18660	0.18682
1029.90083	0.18860
1028.61506	0.19020
1027.32929	0.19154
1026.04352	0.19260
1024.75775	0.19340
1023.47199	0.19393
1022.18622	0.19419
1020.90045	0.19414
1019.61468	0.19375
1018.32891	0.19300
1017.04314	0.19188
1015.75737	0.19042
1014.47160	0.18867
1013.18584	0.18665
1011.90007	0.18433
1010.61430	0.18166
1009.32853	0.17862
1008.04276	0.17523
1006.75699	0.17154
1005.47122	0.16758
1004.18545	0.16341
1002.89968	0.15906
1001.61392	0.15455
1000.32815	0.14986
999.04238	0.14503
997.75661	0.14018
996.47084	0.13544
995.18507	0.13084
993.89930	0.12630
992.61353	0.12179
991.32777	0.11736
990.04200	0.11313
988.75623	0.10915
987.47046	0.10543
986.18469	0.10190
984.89892	0.09852
983.61315	0.09527
982.32738	0.09219
981.04161	0.08931
979.75585	0.08661
978.47008	0.08403
977.18431	0.08157
975.89854	0.07932
974.61277	0.07737
973.32700	0.07578
972.04123	0.07458
970.75546	0.07377
969.46970	0.07329
968.18393	0.07310
966.89816	0.07321
965.61239	0.07364
964.32662	0.07432
963.04085	0.07502
961.75508	0.07552
960.46931	0.07563
959.18354	0.07533
957.89778	0.07463
956.61201	0.07352
955.32624	0.07206
954.04047	0.07038
952.75470	0.06866
951.46893	0.06701
950.18316	0.06544
948.89739	0.06391
947.61163	0.06243
946.32586	0.06105
945.04009	0.05977
943.75432	0.05848
942.46855	0.05712
941.18278	0.05573
939.89701	0.05440
938.61124	0.05324
937.32547	0.05226
936.03971	0.05140
934.75394	0.05060
933.46817	0.04978
932.18240	0.04892
930.89663	0.04809
929.61086	0.04733
928.32509	0.04667
927.03932	0.04604
925.75356	0.04543
924.46779	0.04484
923.18202	0.04427
921.89625	0.04371
920.61048	0.04314
919.32471	0.04257
918.03894	0.04206
916.75317	0.04166
915.46740	0.04136
914.18164	0.04107
912.89587	0.04072
911.61010	0.04036
910.32433	0.04006
909.03856	0.03988
907.75279	0.03971
906.46702	0.03944
905.18125	0.03902
903.89549	0.03854
902.60972	0.03808
901.32395	0.03768
900.03818	0.03731
898.75241	0.03698
897.46664	0.03667
896.18087	0.03638
894.89510	0.03611
893.60933	0.03586
892.32357	0.03566
891.03780	0.03554
889.75203	0.03548
888.46626	0.03550
887.18049	0.03570
885.89472	0.03626
884.60895	0.03731
883.32318	0.03880
882.03742	0.04053
880.75165	0.04226
879.46588	0.04375
878.18011	0.04495
876.89434	0.04601
875.60857	0.04717
874.32280	0.04847
873.03703	0.04964
871.75126	0.05030
870.46550	0.05024
869.17973	0.04955
867.89396	0.04839
866.60819	0.04690
865.32242	0.04517
864.03665	0.04336
862.75088	0.04165
861.46511	0.04017
860.17935	0.03894
858.89358	0.03794
857.60781	0.03718
856.32204	0.03661
855.03627	0.03614
853.75050	0.03566
852.46473	0.03516
851.17896	0.03470
849.89319	0.03431
848.60743	0.03397
847.32166	0.03368
846.03589	0.03344
844.75012	0.03326
843.46435	0.03310
842.17858	0.03294
840.89281	0.03276
839.60704	0.03255
838.32128	0.03233
837.03551	0.03211
835.74974	0.03192
834.46397	0.03173
833.17820	0.03155
831.89243	0.03138
830.60666	0.03123
829.32089	0.03115
828.03512	0.03112
826.74936	0.03112
825.46359	0.03110
824.17782	0.03105
822.89205	0.03094
821.60628	0.03081
820.32051	0.03072
819.03474	0.03069
817.74897	0.03072
816.46321	0.03077
815.17744	0.03081
813.89167	0.03082
812.60590	0.03080
811.32013	0.03078
810.03436	0.03074
808.74859	0.03066
807.46282	0.03052
806.17705	0.03037
804.89129	0.03030
803.60552	0.03034
802.31975	0.03048
801.03398	0.03063
799.74821	0.03073
798.46244	0.03078
797.17667	0.03078
795.89090	0.03073
794.60513	0.03063
793.31937	0.03049
792.03360	0.03034
790.74783	0.03023
789.46206	0.03018
788.17629	0.03020
786.89052	0.03029
785.60475	0.03038
784.31898	0.03045
783.03322	0.03046
781.74745	0.03041
780.46168	0.03030
779.17591	0.03015
777.89014	0.02998
776.60437	0.02984
775.31860	0.02978
774.03283	0.02983
772.74706	0.02994
771.46130	0.03001
770.17553	0.02999
768.88976	0.02988
767.60399	0.02977
766.31822	0.02972
765.03245	0.02973
763.74668	0.02974
762.46091	0.02970
761.17515	0.02961
759.88938	0.02951
758.60361	0.02943
757.31784	0.02942
756.03207	0.02955
754.74630	0.02982
753.46053	0.03012
752.17476	0.03028
750.88899	0.03018
749.60323	0.02992
748.31746	0.02969
747.03169	0.02960
745.74592	0.02961
744.46015	0.02961
743.17438	0.02957
741.88861	0.02951
740.60284	0.02948
739.31708	0.02941
738.03131	0.02928
736.74554	0.02914
735.45977	0.02905
734.17400	0.02904
732.88823	0.02907
731.60246	0.02908
730.31669	0.02900
729.03092	0.02884
727.74516	0.02867
726.45939	0.02859
725.17362	0.02862
723.88785	0.02890
722.60208	0.02911
721.31631	0.02885
720.03054	0.02874
718.74477	0.02914
717.45901	0.02921
716.17324	0.02903
714.88747	0.02893
713.60170	0.02893
712.31593	0.02896
711.03016	0.02897
709.74439	0.02897
708.45862	0.02897
707.17285	0.02900
705.88709	0.02905
704.60132	0.02912
703.31555	0.02920
702.02978	0.02930
700.74401	0.02944
699.45824	0.02961
698.17247	0.02980
696.88670	0.02996
695.60094	0.03009
694.31517	0.03021
693.02940	0.03036
691.74363	0.03053
690.45786	0.03073
689.17209	0.03094
687.88632	0.03109
686.60055	0.03116
685.31478	0.03118
684.02902	0.03117
682.74325	0.03116
681.45748	0.03116
680.17171	0.03116
678.88594	0.03110
677.60017	0.03092
676.31440	0.03063
675.02863	0.03049
673.74287	0.03131
672.45710	0.03394
671.17133	0.03661
669.88556	0.03339
668.59979	0.02434
667.31402	0.02591
666.02825	0.03480
664.74248	0.03595
663.45671	0.03254
662.17095	0.03013
660.88518	0.02945
659.59941	0.02962
658.31364	0.02999
657.02787	0.03027
655.74210	0.03037
654.45633	0.03040
653.17056	0.03033
651.88480	0.03024
650.59903	0.03011
649.31326	0.02993
648.02749	0.02988
646.74172	0.02982
645.45595	0.02963
644.17018	0.02944
642.88441	0.02931
641.59864	0.02924
640.31288	0.02919
639.02711	0.02912
637.74134	0.02904
636.45557	0.02900
635.16980	0.02904
633.88403	0.02915
632.59826	0.02932
631.31249	0.02953
630.02673	0.02977
628.74096	0.03012
627.45519	0.03063
626.16942	0.03130
624.88365	0.03224
623.59788	0.03344
622.31211	0.03466
621.02634	0.03574
619.74057	0.03702
618.45481	0.03887
617.16904	0.04092
615.88327	0.04251
614.59750	0.04348
613.31173	0.04437
612.02596	0.04602
610.74019	0.04934
609.45442	0.05480
608.16866	0.06181
606.88289	0.06881
605.59712	0.07413
604.31135	0.07685
603.02558	0.07716
601.73981	0.07613
600.45404	0.07470
599.16827	0.07318
597.88250	0.07144
596.59674	0.06945
595.31097	0.06735
594.02520	0.06538
592.73943	0.06374
591.45366	0.06253
590.16789	0.06177
588.88212	0.06143
587.59635	0.06146
586.31059	0.06190
585.02482	0.06276
583.73905	0.06408
582.45328	0.06578
581.16751	0.06775
579.88174	0.06986
578.59597	0.07201
577.31020	0.07404
576.02443	0.07586
574.73867	0.07746
573.45290	0.07896
572.16713	0.08048
570.88136	0.08213
569.59559	0.08404
568.30982	0.08632
567.02405	0.08903
565.73828	0.09198
564.45251	0.09479
563.16675	0.09692
561.88098	0.09795
560.59521	0.09766
559.30944	0.09607
558.02367	0.09339
556.73790	0.08992
555.45213	0.08592
554.16636	0.08164
552.88060	0.07728
551.59483	0.07303
550.30906	0.06902
549.02329	0.06539
547.73752	0.06226
546.45175	0.05962
545.16598	0.05735
543.88021	0.05529
542.59444	0.05339
541.30868	0.05167
540.02291	0.05021
538.73714	0.04901
537.45137	0.04804
536.16560	0.04715
534.87983	0.04623
533.59406	0.04520
532.30829	0.04409
531.02253	0.04302
529.73676	0.04207
528.45099	0.04128
527.16522	0.04059
525.87945	0.03996
524.59368	0.03937
523.30791	0.03887
522.02214	0.03844
520.73637	0.03802
519.45061	0.03751
518.16484	0.03690
516.87907	0.03626
515.59330	0.03570
514.30753	0.03524
513.02176	0.03485
511.73599	0.03448
510.45022	0.03414
509.16446	0.03382
507.87869	0.03351
506.59292	0.03315
505.30715	0.03275
504.02138	0.03236
502.73561	0.03205
501.44984	0.03183
500.16407	0.03164
498.87830	0.03141
497.59254	0.03112
496.30677	0.03083
495.02100	0.03056
493.73523	0.03034
492.44946	0.03015
491.16369	0.02997
489.87792	0.02980
488.59215	0.02966
487.30639	0.02955
486.02062	0.02946
484.73485	0.02941
483.44908	0.02942
482.16331	0.02950
480.87754	0.02961
479.59177	0.02970
478.30600	0.02980
477.02023	0.02994
475.73447	0.03017
474.44870	0.03046
473.16293	0.03075
471.87716	0.03101
470.59139	0.03119
469.30562	0.03123
468.01985	0.03108
466.73408	0.03077
465.44832	0.03037
464.16255	0.03001
462.87678	0.02973
461.59101	0.02954
460.30524	0.02936
459.01947	0.02914
457.73370	0.02885
456.44793	0.02848
455.16216	0.02806
453.87640	0.02764
452.59063	0.02726
451.30486	0.02697
450.01909	0.02676
448.73332	0.02663
447.44755	0.02652
446.16178	0.02641
444.87601	0.02630
443.59025	0.02616
442.30448	0.02599
441.01871	0.02580
439.73294	0.02562
438.44717	0.02544
437.16140	0.02526
435.87563	0.02512
434.58986	0.02503
433.30409	0.02499
432.01833	0.02496
430.73256	0.02488
429.44679	0.02473
428.16102	0.02454
426.87525	0.02433
425.58948	0.02409
424.30371	0.02382
423.01794	0.02354
421.73218	0.02329
420.44641	0.02313
419.16064	0.02303
417.87487	0.02292
416.58910	0.02278
415.30333	0.02260
414.01756	0.02241
412.73179	0.02223
411.44602	0.02207
410.16026	0.02192
408.87449	0.02181
407.58872	0.02173
406.30295	0.02165
405.01718	0.02157
403.73141	0.02147
402.44564	0.02139
401.15987	0.02135
399.87411	0.02136
