3997.45528	0.05233
3996.16951	0.05211
3994.88374	0.05165
3993.59798	0.05087
3992.31221	0.05000
3991.02644	0.04942
3989.74067	0.04936
3988.45490	0.04973
3987.16913	0.05028
3985.88336	0.05074
3984.59759	0.05086
3983.31183	0.05048
3982.02606	0.04972
3980.74029	0.04904
3979.45452	0.04891
3978.16875	0.04942
3976.88298	0.05022
3975.59721	0.05078
3974.31144	0.05073
3973.02567	0.05004
3971.73991	0.04899
3970.45414	0.04801
3969.16837	0.04748
3967.88260	0.04755
3966.59683	0.04823
3965.31106	0.04928
3964.02529	0.05029
3962.73952	0.05077
3961.45376	0.05049
3960.16799	0.04963
3958.88222	0.04864
3957.59645	0.04792
3956.31068	0.04752
3955.02491	0.04736
3953.73914	0.04745
3952.45337	0.04788
3951.16760	0.04859
3949.88184	0.04931
3948.59607	0.04972
3947.31030	0.04964
3946.02453	0.04914
3944.73876	0.04851
3943.45299	0.04820
3942.16722	0.04849
3940.88145	0.04915
3939.59569	0.04958
3938.30992	0.04943
3937.02415	0.04879
3935.73838	0.04807
3934.45261	0.04763
3933.16684	0.04753
3931.88107	0.04756
3930.59530	0.04742
3929.30953	0.04702
3928.02377	0.04658
3926.73800	0.04634
3925.45223	0.04634
3924.16646	0.04647
3922.88069	0.04657
3921.59492	0.04646
3920.30915	0.04605
3919.02338	0.04537
3917.73762	0.04470
3916.45185	0.04453
3915.16608	0.04502
3913.88031	0.04589
3912.59454	0.04677
3911.30877	0.04741
3910.02300	0.04773
3908.73723	0.04777
3907.45146	0.04769
3906.16570	0.04768
3904.87993	0.04789
3903.59416	0.04830
3902.30839	0.04864
3901.02262	0.04860
3899.73685	0.04825
3898.45108	0.04787
3897.16531	0.04768
3895.87955	0.04770
3894.59378	0.04790
3893.30801	0.04805
3892.02224	0.04802
3890.73647	0.04796
3889.45070	0.04797
3888.16493	0.04776
3886.87916	0.04721
3885.59339	0.04669
3884.30763	0.04638
3883.02186	0.04602
3881.73609	0.04550
3880.45032	0.04514
3879.16455	0.04519
3877.87878	0.04552
3876.59301	0.04600
3875.30724	0.04674
3874.02148	0.04772
3872.73571	0.04836
3871.44994	0.04814
3870.16417	0.04750
3868.87840	0.04715
3867.59263	0.04693
3866.30686	0.04639
3865.02109	0.04572
3863.73532	0.04532
3862.44956	0.04511
3861.16379	0.04493
3859.87802	0.04493
3858.59225	0.04537
3857.30648	0.04608
3856.02071	0.04654
3854.73494	0.04660
3853.44917	0.04671
3852.16341	0.04703
3850.87764	0.04710
3849.59187	0.04673
3848.30610	0.04631
3847.02033	0.04618
3845.73456	0.04634
3844.44879	0.04669
3843.16302	0.04711
3841.87725	0.04732
3840.59149	0.04672
3839.30572	0.04518
3838.01995	0.04352
3836.73418	0.04281
3835.44841	0.04322
3834.16264	0.04406
3832.87687	0.04465
3831.59110	0.04478
3830.30534	0.04450
3829.01957	0.04395
3827.73380	0.04341
3826.44803	0.04324
3825.16226	0.04351
3823.87649	0.04377
3822.59072	0.04386
3821.30495	0.04434
3820.01918	0.04556
3818.73342	0.04670
3817.44765	0.04687
3816.16188	0.04633
3814.87611	0.04575
3813.59034	0.04501
3812.30457	0.04404
3811.01880	0.04336
3809.73303	0.04318
3808.44726	0.04313
3807.16150	0.04314
3805.87573	0.04342
3804.58996	0.04361
3803.30419	0.04328
3802.01842	0.04278
3800.73265	0.04276
3799.44688	0.04293
3798.16111	0.04266
3796.87535	0.04214
3795.58958	0.04198
3794.30381	0.04218
3793.01804	0.04241
3791.73227	0.04266
3790.44650	0.04301
3789.16073	0.04325
3787.87496	0.04307
3786.58919	0.04240
3785.30343	0.04162
3784.01766	0.04126
3782.73189	0.04153
3781.44612	0.04212
3780.16035	0.04260
3778.87458	0.04278
3777.58881	0.04270
3776.30304	0.04256
3775.01728	0.04260
3773.73151	0.04280
3772.44574	0.04279
3771.15997	0.04239
3769.87420	0.04192
3768.58843	0.04180
3767.30266	0.04210
3766.01689	0.04281
3764.73112	0.04386
3763.44536	0.04481
3762.15959	0.04500
3760.87382	0.04431
3759.58805	0.04325
3758.30228	0.04251
3757.01651	0.04250
3755.73074	0.04302
3754.44497	0.04341
3753.15921	0.04335
3751.87344	0.04309
3750.58767	0.04293
3749.30190	0.04310
3748.01613	0.04352
3746.73036	0.04348
3745.44459	0.04278
3744.15882	0.04227
3742.87305	0.04227
3741.58729	0.04215
3740.30152	0.04187
3739.01575	0.04179
3737.72998	0.04184
3736.44421	0.04192
3735.15844	0.04211
3733.87267	0.04217
3732.58690	0.04192
3731.30114	0.04166
3730.01537	0.04162
3728.72960	0.04153
3727.44383	0.04121
3726.15806	0.04084
3724.87229	0.04057
3723.58652	0.04043
3722.30075	0.04047
3721.01498	0.04072
3719.72922	0.04107
3718.44345	0.04142
3717.15768	0.04184
3715.87191	0.04227
3714.58614	0.04257
3713.30037	0.04277
3712.01460	0.04299
3710.72883	0.04307
3709.44307	0.04275
3708.15730	0.04223
3706.87153	0.04201
3705.58576	0.04226
3704.29999	0.04251
3703.01422	0.04235
3701.72845	0.04178
3700.44268	0.04104
3699.15691	0.04017
3697.87115	0.03931
3696.58538	0.03881
3695.29961	0.03882
3694.01384	0.03922
3692.72807	0.03984
3691.44230	0.04045
3690.15653	0.04067
3688.87076	0.04046
3687.58500	0.04008
3686.29923	0.03948
3685.01346	0.03858
3683.72769	0.03792
3682.44192	0.03817
3681.15615	0.03942
3679.87038	0.04121
3678.58461	0.04279
3677.29884	0.04361
3676.01308	0.04394
3674.72731	0.04428
3673.44154	0.04427
3672.15577	0.04340
3670.87000	0.04232
3669.58423	0.04204
3668.29846	0.04228
3667.01269	0.04204
3665.72693	0.04099
3664.44116	0.03960
3663.15539	0.03847
3661.86962	0.03798
3660.58385	0.03816
3659.29808	0.03870
3658.01231	0.03924
3656.72654	0.03974
3655.44077	0.04041
3654.15501	0.04110
3652.86924	0.04138
3651.58347	0.04125
3650.29770	0.04112
3649.01193	0.04127
3647.72616	0.04153
3646.44039	0.04156
3645.15462	0.04117
3643.86886	0.04041
3642.58309	0.03951
3641.29732	0.03878
3640.01155	0.03849
3638.72578	0.03875
3637.44001	0.03935
3636.15424	0.03988
3634.86847	0.04010
3633.58270	0.04022
3632.29694	0.04034
3631.01117	0.04023
3629.72540	0.03993
3628.43963	0.03993
3627.15386	0.04039
3625.86809	0.04098
3624.58232	0.04149
3623.29655	0.04183
3622.01079	0.04172
3620.72502	0.04112
3619.43925	0.04059
3618.15348	0.04064
3616.86771	0.04109
3615.58194	0.04140
3614.29617	0.04149
3613.01040	0.04178
3611.72463	0.04247
3610.43887	0.04324
3609.15310	0.04356
3607.86733	0.04316
3606.58156	0.04230
3605.29579	0.04166
3604.01002	0.04178
3602.72425	0.04258
3601.43848	0.04341
3600.15272	0.04389
3598.86695	0.04398
3597.58118	0.04389
3596.29541	0.04373
3595.00964	0.04356
3593.72387	0.04345
3592.43810	0.04356
3591.15233	0.04388
3589.86656	0.04414
3588.58080	0.04419
3587.29503	0.04409
3586.00926	0.04395
3584.72349	0.04379
3583.43772	0.04355
3582.15195	0.04332
3580.86618	0.04338
3579.58041	0.04391
3578.29464	0.04474
3577.00888	0.04543
3575.72311	0.04567
3574.43734	0.04552
3573.15157	0.04525
3571.86580	0.04502
3570.58003	0.04487
3569.29426	0.04483
3568.00849	0.04498
3566.72273	0.04525
3565.43696	0.04538
3564.15119	0.04529
3562.86542	0.04522
3561.57965	0.04540
3560.29388	0.04575
3559.00811	0.04592
3557.72234	0.04582
3556.43657	0.04567
3555.15081	0.04576
3553.86504	0.04611
3552.57927	0.04652
3551.29350	0.04677
3550.00773	0.04686
3548.72196	0.04697
3547.43619	0.04736
3546.15042	0.04804
3544.86466	0.04878
3543.57889	0.04930
3542.29312	0.04951
3541.00735	0.04948
3539.72158	0.04922
3538.43581	0.04864
3537.15004	0.04773
3535.86427	0.04680
3534.57850	0.04624
3533.29274	0.04626
3532.00697	0.04668
3530.72120	0.04721
3529.43543	0.04780
3528.14966	0.04853
3526.86389	0.04934
3525.57812	0.04994
3524.29235	0.05006
3523.00659	0.04971
3521.72082	0.04921
3520.43505	0.04890
3519.14928	0.04900
3517.86351	0.04947
3516.57774	0.05008
3515.29197	0.05057
3514.00620	0.05077
3512.72043	0.05062
3511.43467	0.05020
3510.14890	0.04982
3508.86313	0.04980
3507.57736	0.05014
3506.29159	0.05054
3505.00582	0.05071
3503.72005	0.05059
3502.43428	0.05029
3501.14852	0.04994
3499.86275	0.04974
3498.57698	0.04988
3497.29121	0.05032
3496.00544	0.05074
3494.71967	0.05087
3493.43390	0.05077
3492.14813	0.05071
3490.86236	0.05088
3489.57660	0.05129
3488.29083	0.05187
3487.00506	0.05251
3485.71929	0.05296
3484.43352	0.05297
3483.14775	0.05254
3481.86198	0.05206
3480.57621	0.05194
3479.29045	0.05228
3478.00468	0.05284
3476.71891	0.05330
3475.43314	0.05354
3474.14737	0.05358
3472.86160	0.05352
3471.57583	0.05343
3470.29006	0.05327
3469.00429	0.05306
3467.71853	0.05287
3466.43276	0.05281
3465.14699	0.05293
3463.86122	0.05313
3462.57545	0.05329
3461.28968	0.05338
3460.00391	0.05349
3458.71814	0.05371
3457.43238	0.05404
3456.14661	0.05441
3454.86084	0.05471
3453.57507	0.05484
3452.28930	0.05481
3451.00353	0.05470
3449.71776	0.05456
3448.43199	0.05439
3447.14622	0.05420
3445.86046	0.05411
3444.57469	0.05422
3443.28892	0.05456
3442.00315	0.05503
3440.71738	0.05538
3439.43161	0.05539
3438.14584	0.05501
3436.86007	0.05448
3435.57431	0.05420
3434.28854	0.05442
3433.00277	0.05506
3431.71700	0.05575
3430.43123	0.05617
3429.14546	0.05624
3427.85969	0.05608
3426.57392	0.05584
3425.28815	0.05564
3424.00239	0.05551
3422.71662	0.05534
3421.43085	0.05500
3420.14508	0.05460
3418.85931	0.05450
3417.57354	0.05499
3416.28777	0.05597
3415.00200	0.05698
3413.71624	0.05748
3412.43047	0.05730
3411.14470	0.05668
3409.85893	0.05608
3408.57316	0.05585
3407.28739	0.05607
3406.00162	0.05653
3404.71585	0.05689
3403.43008	0.05688
3402.14432	0.05660
3400.85855	0.05635
3399.57278	0.05637
3398.28701	0.05648
3397.00124	0.05649
3395.71547	0.05634
3394.42970	0.05613
3393.14393	0.05604
3391.85817	0.05620
3390.57240	0.05666
3389.28663	0.05732
3388.00086	0.05796
3386.71509	0.05829
3385.42932	0.05821
3384.14355	0.05788
3382.85778	0.05761
3381.57201	0.05759
3380.28625	0.05776
3379.00048	0.05794
3377.71471	0.05803
3376.42894	0.05808
3375.14317	0.05819
3373.85740	0.05847
3372.57163	0.05893
3371.28586	0.05939
3370.00010	0.05961
3368.71433	0.05948
3367.42856	0.05909
3366.14279	0.05869
3364.85702	0.05845
3363.57125	0.05838
3362.28548	0.05837
3360.99971	0.05834
3359.71394	0.05828
3358.42818	0.05825
3357.14241	0.05829
3355.85664	0.05844
3354.57087	0.05866
3353.28510	0.05890
3351.99933	0.05916
3350.71356	0.05943
3349.42779	0.05956
3348.14202	0.05941
3346.85626	0.05897
3345.57049	0.05850
3344.28472	0.05828
3342.99895	0.05833
3341.71318	0.05840
3340.42741	0.05828
3339.14164	0.05794
3337.85587	0.05756
3336.57011	0.05733
3335.28434	0.05735
3333.99857	0.05774
3332.71280	0.05856
3331.42703	0.05960
3330.14126	0.06041
3328.85549	0.06061
3327.56972	0.06026
3326.28395	0.05983
3324.99819	0.05972
3323.71242	0.05998
3322.42665	0.06037
3321.14088	0.06071
3319.85511	0.06097
3318.56934	0.06116
3317.28357	0.06127
3315.99780	0.06125
3314.71204	0.06117
3313.42627	0.06116
3312.14050	0.06131
3310.85473	0.06148
3309.56896	0.06142
3308.28319	0.06098
3306.99742	0.06038
3305.71165	0.06001
3304.42588	0.06005
3303.14012	0.06034
3301.85435	0.06057
3300.56858	0.06061
3299.28281	0.06057
3297.99704	0.06064
3296.71127	0.06086
3295.42550	0.06107
3294.13973	0.06110
3292.85397	0.06089
3291.56820	0.06060
3290.28243	0.06040
3288.99666	0.06036
3287.71089	0.06053
3286.42512	0.06089
3285.13935	0.06131
3283.85358	0.06148
3282.56781	0.06123
3281.28205	0.06071
3279.99628	0.06024
3278.71051	0.06003
3277.42474	0.06008
3276.13897	0.06029
3274.85320	0.06060
3273.56743	0.06094
3272.28166	0.06121
3270.99590	0.06128
3269.71013	0.06105
3268.42436	0.06055
3267.13859	0.06004
3265.85282	0.05981
3264.56705	0.05995
3263.28128	0.06032
3261.99551	0.06076
3260.70974	0.06112
3259.42398	0.06122
3258.13821	0.06088
3256.85244	0.06018
3255.56667	0.05950
3254.28090	0.05923
3252.99513	0.05945
3251.70936	0.05987
3250.42359	0.06007
3249.13783	0.05984
3247.85206	0.05932
3246.56629	0.05880
3245.28052	0.05855
3243.99475	0.05860
3242.70898	0.05879
3241.42321	0.05887
3240.13744	0.05872
3238.85167	0.05840
3237.56591	0.05812
3236.28014	0.05802
3234.99437	0.05800
3233.70860	0.05789
3232.42283	0.05769
3231.13706	0.05756
3229.85129	0.05761
3228.56552	0.05776
3227.27976	0.05781
3225.99399	0.05768
3224.70822	0.05750
3223.42245	0.05743
3222.13668	0.05750
3220.85091	0.05761
3219.56514	0.05768
3218.27937	0.05770
3216.99360	0.05771
3215.70784	0.05771
3214.42207	0.05762
3213.13630	0.05745
3211.85053	0.05729
3210.56476	0.05725
3209.27899	0.05728
3207.99322	0.05719
3206.70745	0.05684
3205.42169	0.05631
3204.13592	0.05579
3202.85015	0.05545
3201.56438	0.05531
3200.27861	0.05532
3198.99284	0.05547
3197.70707	0.05572
3196.42130	0.05597
3195.13553	0.05606
3193.84977	0.05591
3192.56400	0.05558
3191.27823	0.05525
3189.99246	0.05510
3188.70669	0.05512
3187.42092	0.05515
3186.13515	0.05507
3184.84938	0.05494
3183.56362	0.05491
3182.27785	0.05505
3180.99208	0.05524
3179.70631	0.05528
3178.42054	0.05504
3177.13477	0.05462
3175.84900	0.05422
3174.56323	0.05400
3173.27746	0.05398
3171.99170	0.05404
3170.70593	0.05399
3169.42016	0.05368
3168.13439	0.05315
3166.84862	0.05263
3165.56285	0.05237
3164.27708	0.05239
3162.99131	0.05251
3161.70555	0.05251
3160.41978	0.05235
3159.13401	0.05212
3157.84824	0.05198
3156.56247	0.05203
3155.27670	0.05229
3153.99093	0.05261
3152.70516	0.05276
3151.41939	0.05264
3150.13363	0.05237
3148.84786	0.05219
3147.56209	0.05210
3146.27632	0.05193
3144.99055	0.05151
3143.70478	0.05097
3142.41901	0.05056
3141.13324	0.05047
3139.84748	0.05064
3138.56171	0.05082
3137.27594	0.05078
3135.99017	0.05055
3134.70440	0.05028
3133.41863	0.05000
3132.13286	0.04966
3130.84709	0.04927
3129.56132	0.04893
3128.27556	0.04875
3126.98979	0.04871
3125.70402	0.04876
3124.41825	0.04888
3123.13248	0.04904
3121.84671	0.04917
3120.56094	0.04928
3119.27517	0.04943
3117.98940	0.04969
3116.70364	0.04999
3115.41787	0.05022
3114.13210	0.05030
3112.84633	0.05020
3111.56056	0.04998
3110.27479	0.04970
3108.98902	0.04939
3107.70325	0.04902
3106.41749	0.04854
3105.13172	0.04805
3103.84595	0.04773
3102.56018	0.04771
3101.27441	0.04795
3099.98864	0.04835
3098.70287	0.04886
3097.41710	0.04941
3096.13133	0.04985
3094.84557	0.05001
3093.55980	0.04995
3092.27403	0.04987
3090.98826	0.04989
3089.70249	0.04993
3088.41672	0.04977
3087.13095	0.04937
3085.84518	0.04886
3084.55942	0.04846
3083.27365	0.04824
3081.98788	0.04822
3080.70211	0.04835
3079.41634	0.04855
3078.13057	0.04869
3076.84480	0.04873
3075.55903	0.04873
3074.27326	0.04878
3072.98750	0.04889
3071.70173	0.04899
3070.41596	0.04900
3069.13019	0.04889
3067.84442	0.04867
3066.55865	0.04840
3065.27288	0.04816
3063.98711	0.04798
3062.70135	0.04787
3061.41558	0.04782
3060.12981	0.04774
3058.84404	0.04759
3057.55827	0.04740
3056.27250	0.04730
3054.98673	0.04733
3053.70096	0.04736
3052.41519	0.04725
3051.12943	0.04698
3049.84366	0.04669
3048.55789	0.04650
3047.27212	0.04645
3045.98635	0.04647
3044.70058	0.04645
3043.41481	0.04634
3042.12904	0.04618
3040.84328	0.04602
3039.55751	0.04589
3038.27174	0.04581
3036.98597	0.04583
3035.70020	0.04598
3034.41443	0.04620
3033.12866	0.04634
3031.84289	0.04625
3030.55712	0.04588
3029.27136	0.04542
3027.98559	0.04517
3026.69982	0.04524
3025.41405	0.04550
3024.12828	0.04567
3022.84251	0.04562
3021.55674	0.04547
3020.27097	0.04538
3018.98521	0.04541
3017.69944	0.04547
3016.41367	0.04542
3015.12790	0.04517
3013.84213	0.04474
3012.55636	0.04428
3011.27059	0.04398
3009.98482	0.04396
3008.69905	0.04414
3007.41329	0.04430
3006.12752	0.04436
3004.84175	0.04437
3003.55598	0.04442
3002.27021	0.04455
3000.98444	0.04468
2999.69867	0.04473
2998.41290	0.04464
2997.12714	0.04446
2995.84137	0.04423
2994.55560	0.04403
2993.26983	0.04390
2991.98406	0.04385
2990.69829	0.04385
2989.41252	0.04386
2988.12675	0.04383
2986.84098	0.04373
2985.55522	0.04359
2984.26945	0.04352
2982.98368	0.04368
2981.69791	0.04414
2980.41214	0.04474
2979.12637	0.04517
2977.84060	0.04519
2976.55483	0.04487
2975.26907	0.04455
2973.98330	0.04449
2972.69753	0.04468
2971.41176	0.04497
2970.12599	0.04528
2968.84022	0.04563
2967.55445	0.04601
2966.26868	0.04640
2964.98291	0.04674
2963.69715	0.04697
2962.41138	0.04703
2961.12561	0.04695
2959.83984	0.04686
2958.55407	0.04684
2957.26830	0.04692
2955.98253	0.04705
2954.69676	0.04720
2953.41100	0.04736
2952.12523	0.04753
2950.83946	0.04772
2949.55369	0.04786
2948.26792	0.04784
2946.98215	0.04765
2945.69638	0.04741
2944.41061	0.04723
2943.12484	0.04707
2941.83908	0.04689
2940.55331	0.04675
2939.26754	0.04680
2937.98177	0.04709
2936.69600	0.04751
2935.41023	0.04787
2934.12446	0.04805
2932.83869	0.04805
2931.55293	0.04801
2930.26716	0.04809
2928.98139	0.04837
2927.69562	0.04873
2926.40985	0.04895
2925.12408	0.04892
2923.83831	0.04871
2922.55254	0.04851
2921.26677	0.04838
2919.98101	0.04823
2918.69524	0.04800
2917.40947	0.04778
2916.12370	0.04766
2914.83793	0.04756
2913.55216	0.04736
2912.26639	0.04710
2910.98062	0.04691
2909.69486	0.04682
2908.40909	0.04665
2907.12332	0.04635
2905.83755	0.04601
2904.55178	0.04583
2903.26601	0.04580
2901.98024	0.04579
2900.69447	0.04566
2899.40870	0.04538
2898.12294	0.04505
2896.83717	0.04477
2895.55140	0.04458
2894.26563	0.04446
2892.97986	0.04440
2891.69409	0.04442
2890.40832	0.04450
2889.12255	0.04444
2887.83678	0.04407
2886.55102	0.04346
2885.26525	0.04286
2883.97948	0.04252
2882.69371	0.04247
2881.40794	0.04263
2880.12217	0.04294
2878.83640	0.04334
2877.55063	0.04375
2876.26487	0.04401
2874.97910	0.04405
2873.69333	0.04393
2872.40756	0.04379
2871.12179	0.04370
2869.83602	0.04357
2868.55025	0.04332
2867.26448	0.04303
2865.97871	0.04283
2864.69295	0.04280
2863.40718	0.04291
2862.12141	0.04312
2860.83564	0.04331
2859.54987	0.04329
2858.26410	0.04294
2856.97833	0.04237
2855.69256	0.04183
2854.40680	0.04154
2853.12103	0.04150
2851.83526	0.04151
2850.54949	0.04141
2849.26372	0.04119
2847.97795	0.04097
2846.69218	0.04079
2845.40641	0.04060
2844.12064	0.04030
2842.83488	0.03996
2841.54911	0.03969
2840.26334	0.03955
2838.97757	0.03949
2837.69180	0.03936
2836.40603	0.03912
2835.12026	0.03887
2833.83449	0.03873
2832.54873	0.03872
2831.26296	0.03871
2829.97719	0.03865
2828.69142	0.03862
2827.40565	0.03865
2826.11988	0.03866
2824.83411	0.03856
2823.54834	0.03836
2822.26257	0.03817
2820.97681	0.03800
2819.69104	0.03781
2818.40527	0.03755
2817.11950	0.03729
2815.83373	0.03717
2814.54796	0.03719
2813.26219	0.03724
2811.97642	0.03720
2810.69066	0.03709
2809.40489	0.03698
2808.11912	0.03694
2806.83335	0.03695
2805.54758	0.03692
2804.26181	0.03680
2802.97604	0.03659
2801.69027	0.03639
2800.40450	0.03627
2799.11874	0.03624
2797.83297	0.03623
2796.54720	0.03614
2795.26143	0.03596
2793.97566	0.03579
2792.68989	0.03568
2791.40412	0.03561
2790.11835	0.03552
2788.83259	0.03542
2787.54682	0.03539
2786.26105	0.03545
2784.97528	0.03553
2783.68951	0.03552
2782.40374	0.03542
2781.11797	0.03532
2779.83220	0.03534
2778.54643	0.03547
2777.26067	0.03553
2775.97490	0.03543
2774.68913	0.03524
2773.40336	0.03511
2772.11759	0.03506
2770.83182	0.03497
2769.54605	0.03478
2768.26028	0.03456
2766.97452	0.03437
2765.68875	0.03418
2764.40298	0.03397
2763.11721	0.03377
2761.83144	0.03364
2760.54567	0.03362
2759.25990	0.03376
2757.97413	0.03407
2756.68836	0.03447
2755.40260	0.03477
2754.11683	0.03485
2752.83106	0.03475
2751.54529	0.03459
2750.25952	0.03445
2748.97375	0.03433
2747.68798	0.03420
2746.40221	0.03407
2745.11645	0.03398
2743.83068	0.03396
2742.54491	0.03401
2741.25914	0.03405
2739.97337	0.03397
2738.68760	0.03375
2737.40183	0.03346
2736.11606	0.03320
2734.83029	0.03307
2733.54453	0.03308
2732.25876	0.03317
2730.97299	0.03324
2729.68722	0.03322
2728.40145	0.03312
2727.11568	0.03299
2725.82991	0.03281
2724.54414	0.03263
2723.25838	0.03254
2721.97261	0.03266
2720.68684	0.03289
2719.40107	0.03308
2718.11530	0.03311
2716.82953	0.03299
2715.54376	0.03278
2714.25799	0.03259
2712.97222	0.03248
2711.68646	0.03248
2710.40069	0.03250
2709.11492	0.03251
2707.82915	0.03255
2706.54338	0.03262
2705.25761	0.03259
2703.97184	0.03236
2702.68607	0.03203
2701.40031	0.03179
2700.11454	0.03175
2698.82877	0.03183
2697.54300	0.03186
2696.25723	0.03175
2694.97146	0.03154
2693.68569	0.03137
2692.39992	0.03137
2691.11415	0.03153
2689.82839	0.03174
2688.54262	0.03186
2687.25685	0.03191
2685.97108	0.03195
2684.68531	0.03199
2683.39954	0.03198
2682.11377	0.03187
2680.82800	0.03171
2679.54224	0.03156
2678.25647	0.03144
2676.97070	0.03134
2675.68493	0.03127
2674.39916	0.03124
2673.11339	0.03124
2671.82762	0.03121
2670.54185	0.03115
2669.25608	0.03112
2667.97032	0.03115
2666.68455	0.03118
2665.39878	0.03112
2664.11301	0.03096
2662.82724	0.03082
2661.54147	0.03079
2660.25570	0.03083
2658.96993	0.03080
2657.68417	0.03069
2656.39840	0.03060
2655.11263	0.03062
2653.82686	0.03071
2652.54109	0.03078
2651.25532	0.03075
2649.96955	0.03064
2648.68378	0.03052
2647.39801	0.03048
2646.11225	0.03053
2644.82648	0.03060
2643.54071	0.03061
2642.25494	0.03058
2640.96917	0.03053
2639.68340	0.03043
2638.39763	0.03026
2637.11186	0.03006
2635.82609	0.02988
2634.54033	0.02972
2633.25456	0.02955
2631.96879	0.02938
2630.68302	0.02925
2629.39725	0.02916
2628.11148	0.02906
2626.82571	0.02892
2625.53994	0.02877
2624.25418	0.02868
2622.96841	0.02873
2621.68264	0.02890
2620.39687	0.02903
2619.11110	0.02898
2617.82533	0.02871
2616.53956	0.02831
2615.25379	0.02785
2613.96802	0.02742
2612.68226	0.02710
2611.39649	0.02694
2610.11072	0.02702
2608.82495	0.02738
2607.53918	0.02790
2606.25341	0.02830
2604.96764	0.02830
2603.68187	0.02795
2602.39611	0.02749
2601.11034	0.02718
2599.82457	0.02709
2598.53880	0.02711
2597.25303	0.02708
2595.96726	0.02699
2594.68149	0.02691
2593.39572	0.02693
2592.10995	0.02703
2590.82419	0.02713
2589.53842	0.02716
2588.25265	0.02705
2586.96688	0.02678
2585.68111	0.02643
2584.39534	0.02611
2583.10957	0.02591
2581.82380	0.02587
2580.53804	0.02590
2579.25227	0.02589
2577.96650	0.02581
2576.68073	0.02574
2575.39496	0.02575
2574.10919	0.02575
2572.82342	0.02565
2571.53765	0.02547
2570.25188	0.02529
2568.96612	0.02514
2567.68035	0.02497
2566.39458	0.02479
2565.10881	0.02467
2563.82304	0.02464
2562.53727	0.02472
2561.25150	0.02500
2559.96573	0.02553
2558.67997	0.02612
2557.39420	0.02641
2556.10843	0.02621
2554.82266	0.02574
2553.53689	0.02542
2552.25112	0.02539
2550.96535	0.02545
2549.67958	0.02538
2548.39381	0.02523
2547.10805	0.02508
2545.82228	0.02496
2544.53651	0.02487
2543.25074	0.02486
2541.96497	0.02496
2540.67920	0.02510
2539.39343	0.02524
2538.10766	0.02534
2536.82190	0.02541
2535.53613	0.02541
2534.25036	0.02533
2532.96459	0.02517
2531.67882	0.02491
2530.39305	0.02460
2529.10728	0.02427
2527.82151	0.02398
2526.53574	0.02374
2525.24998	0.02356
2523.96421	0.02338
2522.67844	0.02315
2521.39267	0.02299
2520.10690	0.02314
2518.82113	0.02371
2517.53536	0.02444
2516.24959	0.02493
2514.96383	0.02500
2513.67806	0.02482
2512.39229	0.02458
2511.10652	0.02434
2509.82075	0.02409
2508.53498	0.02395
2507.24921	0.02398
2505.96344	0.02408
2504.67767	0.02416
2503.39191	0.02421
2502.10614	0.02422
2500.82037	0.02416
2499.53460	0.02395
2498.24883	0.02366
2496.96306	0.02341
2495.67729	0.02336
2494.39152	0.02358
2493.10576	0.02397
2491.81999	0.02424
2490.53422	0.02414
2489.24845	0.02372
2487.96268	0.02328
2486.67691	0.02308
2485.39114	0.02318
2484.10537	0.02347
2482.81960	0.02381
2481.53384	0.02408
2480.24807	0.02417
2478.96230	0.02404
2477.67653	0.02378
2476.39076	0.02352
2475.10499	0.02340
2473.81922	0.02344
2472.53345	0.02350
2471.24769	0.02337
2469.96192	0.02300
2468.67615	0.02264
2467.39038	0.02267
2466.10461	0.02309
2464.81884	0.02356
2463.53307	0.02371
2462.24730	0.02351
2460.96153	0.02313
2459.67577	0.02276
2458.39000	0.02248
2457.10423	0.02242
2455.81846	0.02264
2454.53269	0.02306
2453.24692	0.02338
2451.96115	0.02338
2450.67538	0.02308
2449.38962	0.02273
2448.10385	0.02257
2446.81808	0.02261
2445.53231	0.02272
2444.24654	0.02267
2442.96077	0.02242
2441.67500	0.02211
2440.38923	0.02194
2439.10346	0.02194
2437.81770	0.02191
2436.53193	0.02175
2435.24616	0.02160
2433.96039	0.02172
2432.67462	0.02217
2431.38885	0.02270
2430.10308	0.02304
2428.81731	0.02307
2427.53155	0.02289
2426.24578	0.02263
2424.96001	0.02237
2423.67424	0.02211
2422.38847	0.02195
2421.10270	0.02197
2419.81693	0.02222
2418.53116	0.02259
2417.24539	0.02291
2415.95963	0.02303
2414.67386	0.02293
2413.38809	0.02275
2412.10232	0.02260
2410.81655	0.02254
2409.53078	0.02248
2408.24501	0.02234
2406.95924	0.02210
2405.67347	0.02189
2404.38771	0.02181
2403.10194	0.02183
2401.81617	0.02186
2400.53040	0.02185
2399.24463	0.02184
2397.95886	0.02188
2396.67309	0.02190
2395.38732	0.02178
2394.10156	0.02149
2392.81579	0.02115
2391.53002	0.02098
2390.24425	0.02113
2388.95848	0.02150
2387.67271	0.02186
2386.38694	0.02202
2385.10117	0.02200
2383.81540	0.02193
2382.52964	0.02192
2381.24387	0.02205
2379.95810	0.02224
2378.67233	0.02252
2377.38656	0.02265
2376.10079	0.02236
2374.81502	0.02183
2373.52925	0.02174
2372.24349	0.02196
2370.95772	0.02208
2369.67195	0.02214
2368.38618	0.02213
2367.10041	0.02207
2365.81464	0.02207
2364.52887	0.02219
2363.24310	0.02239
2361.95733	0.02255
2360.67157	0.02257
2359.38580	0.02258
2358.10003	0.02279
2356.81426	0.02310
2355.52849	0.02312
2354.24272	0.02263
2352.95695	0.02197
2351.67118	0.02195
2350.38542	0.02227
2349.09965	0.02243
2347.81388	0.02258
2346.52811	0.02281
2345.24234	0.02290
2343.95657	0.02278
2342.67080	0.02230
2341.38503	0.02255
2340.09926	0.02303
2338.81350	0.02303
2337.52773	0.02279
2336.24196	0.02295
2334.95619	0.02280
2333.67042	0.02236
2332.38465	0.02184
2331.09888	0.02244
2329.81311	0.02259
2328.52735	0.02268
2327.24158	0.02320
2325.95581	0.02349
2324.67004	0.02371
2323.38427	0.02340
2322.09850	0.02318
2320.81273	0.02300
2319.52696	0.02282
2318.24119	0.02274
2316.95543	0.02290
2315.66966	0.02298
2314.38389	0.02274
2313.09812	0.02239
2311.81235	0.02199
2310.52658	0.02159
2309.24081	0.02134
2307.95504	0.02132
2306.66928	0.02147
2305.38351	0.02160
2304.09774	0.02151
2302.81197	0.02116
2301.52620	0.02074
2300.24043	0.02044
2298.95466	0.02037
2297.66889	0.02047
2296.38312	0.02056
2295.09736	0.02055
2293.81159	0.02054
2292.52582	0.02069
2291.24005	0.02094
2289.95428	0.02110
2288.66851	0.02103
2287.38274	0.02085
2286.09697	0.02069
2284.81121	0.02047
2283.52544	0.01994
2282.23967	0.01908
2280.95390	0.01827
2279.66813	0.01791
2278.38236	0.01812
2277.09659	0.01865
2275.81082	0.01920
2274.52505	0.01962
2273.23929	0.01995
2271.95352	0.02021
2270.66775	0.02023
2269.38198	0.01981
2268.09621	0.01898
2266.81044	0.01813
2265.52467	0.01765
2264.23890	0.01761
2262.95314	0.01782
2261.66737	0.01816
2260.38160	0.01855
2259.09583	0.01884
2257.81006	0.01887
2256.52429	0.01868
2255.23852	0.01846
2253.95275	0.01830
2252.66698	0.01811
2251.38122	0.01787
2250.09545	0.01769
2248.80968	0.01760
2247.52391	0.01737
2246.23814	0.01710
2244.95237	0.01708
2243.66660	0.01745
2242.38083	0.01797
2241.09507	0.01820
2239.80930	0.01797
2238.52353	0.01742
2237.23776	0.01680
2235.95199	0.01626
2234.66622	0.01597
2233.38045	0.01608
2232.09468	0.01664
2230.80891	0.01737
2229.52315	0.01764
2228.23738	0.01705
2226.95161	0.01586
2225.66584	0.01490
2224.38007	0.01476
2223.09430	0.01524
2221.80853	0.01558
2220.52276	0.01539
2219.23700	0.01498
2217.95123	0.01495
2216.66546	0.01552
2215.37969	0.01642
2214.09392	0.01726
2212.80815	0.01782
2211.52238	0.01789
2210.23661	0.01734
2208.95084	0.01635
2207.66508	0.01536
2206.37931	0.01472
2205.09354	0.01441
2203.80777	0.01415
2202.52200	0.01378
2201.23623	0.01356
2199.95046	0.01393
2198.66469	0.01485
2197.37893	0.01556
2196.09316	0.01523
2194.80739	0.01385
2193.52162	0.01230
2192.23585	0.01142
2190.95008	0.01126
2189.66431	0.01121
2188.37854	0.01085
2187.09277	0.01047
2185.80701	0.01054
2184.52124	0.01102
2183.23547	0.01137
2181.94970	0.01130
2180.66393	0.01112
2179.37816	0.01117
2178.09239	0.01139
2176.80662	0.01159
2175.52085	0.01185
2174.23509	0.01225
2172.94932	0.01239
2171.66355	0.01171
2170.37778	0.01005
2169.09201	0.00792
2167.80624	0.00597
2166.52047	0.00460
2165.23470	0.00407
2163.94894	0.00443
2162.66317	0.00528
2161.37740	0.00569
2160.09163	0.00510
2158.80586	0.00413
2157.52009	0.00403
2156.23432	0.00525
2154.94855	0.00690
2153.66278	0.00779
2152.37702	0.00759
2151.09125	0.00693
2149.80548	0.00667
2148.51971	0.00710
2147.23394	0.00790
2145.94817	0.00864
2144.66240	0.00922
2143.37663	0.00980
2142.09087	0.01046
2140.80510	0.01105
2139.51933	0.01128
2138.23356	0.01097
2136.94779	0.01024
2135.66202	0.00947
2134.37625	0.00926
2133.09048	0.01003
2131.80471	0.01156
2130.51895	0.01286
2129.23318	0.01313
2127.94741	0.01254
2126.66164	0.01205
2125.37587	0.01232
2124.09010	0.01307
2122.80433	0.01368
2121.51856	0.01382
2120.23280	0.01360
2118.94703	0.01315
2117.66126	0.01257
2116.37549	0.01198
2115.08972	0.01157
2113.80395	0.01146
2112.51818	0.01167
2111.23241	0.01209
2109.94664	0.01251
2108.66088	0.01265
2107.37511	0.01242
2106.08934	0.01199
2104.80357	0.01165
2103.51780	0.01151
2102.23203	0.01156
2100.94626	0.01184
2099.66049	0.01388
2098.37473	0.01493
2097.08896	0.01484
2095.80319	0.01428
2094.51742	0.01361
2093.23165	0.01309
2091.94588	0.01278
2090.66011	0.01260
2089.37434	0.01239
2088.08857	0.01212
2086.80281	0.01196
2085.51704	0.01211
2084.23127	0.01264
2082.94550	0.01335
2081.65973	0.01393
2080.37396	0.01411
2079.08819	0.01374
2077.80242	0.01291
2076.51666	0.01195
2075.23089	0.01130
2073.94512	0.01117
2072.65935	0.01140
2071.37358	0.01177
2070.08781	0.01222
2068.80204	0.01280
2067.51627	0.01337
2066.23050	0.01359
2064.94474	0.01327
2063.65897	0.01258
2062.37320	0.01185
2061.08743	0.01126
2059.80166	0.01087
2058.51589	0.01056
2057.23012	0.01018
2055.94435	0.00969
2054.65859	0.00930
2053.37282	0.00935
2052.08705	0.00984
2050.80128	0.01036
2049.51551	0.01055
2048.22974	0.01055
2046.94397	0.01069
2045.65820	0.01097
2044.37243	0.01110
2043.08667	0.01103
2041.80090	0.01109
2040.51513	0.01156
2039.22936	0.01224
2037.94359	0.01264
2036.65782	0.01244
2035.37205	0.01172
2034.08628	0.01077
2032.80052	0.00985
2031.51475	0.00904
2030.22898	0.00838
2028.94321	0.00792
2027.65744	0.00782
2026.37167	0.00816
2025.08590	0.00878
2023.80013	0.00926
2022.51436	0.00919
2021.22860	0.00845
2019.94283	0.00724
2018.65706	0.00611
2017.37129	0.00564
2016.08552	0.00607
2014.79975	0.00718
2013.51398	0.00851
2012.22821	0.00972
2010.94245	0.01069
2009.65668	0.01135
2008.37091	0.01160
2007.08514	0.01144
2005.79937	0.01102
2004.51360	0.01052
2003.22783	0.00999
2001.94206	0.00933
2000.65629	0.00854
1999.37053	0.00795
1998.08476	0.00806
1996.79899	0.00906
1995.51322	0.01053
1994.22745	0.01173
1992.94168	0.01212
1991.65591	0.01170
1990.37014	0.01085
1989.08438	0.01011
1987.79861	0.00988
1986.51284	0.01014
1985.22707	0.01055
1983.94130	0.01088
1982.65553	0.01126
1981.36976	0.01187
1980.08399	0.01263
1978.79822	0.01331
1977.51246	0.01386
1976.22669	0.01433
1974.94092	0.01467
1973.65515	0.01471
1972.36938	0.01434
1971.08361	0.01358
1969.79784	0.01259
1968.51207	0.01160
1967.22631	0.01086
1965.94054	0.01054
1964.65477	0.01066
1963.36900	0.01109
1962.08323	0.01160
1960.79746	0.01190
1959.51169	0.01189
1958.22592	0.01166
1956.94015	0.01141
1955.65439	0.01129
1954.36862	0.01126
1953.08285	0.01127
1951.79708	0.01132
1950.51131	0.01150
1949.22554	0.01184
1947.93977	0.01230
1946.65400	0.01280
1945.36823	0.01321
1944.08247	0.01345
1942.79670	0.01355
1941.51093	0.01361
1940.22516	0.01364
1938.93939	0.01353
1937.65362	0.01332
1936.36785	0.01314
1935.08208	0.01305
1933.79632	0.01302
1932.51055	0.01302
1931.22478	0.01309
1929.93901	0.01318
1928.65324	0.01317
1927.36747	0.01301
1926.08170	0.01278
1924.79593	0.01260
1923.51016	0.01250
1922.22440	0.01246
1920.93863	0.01246
1919.65286	0.01248
1918.36709	0.01258
1917.08132	0.01281
1915.79555	0.01314
1914.50978	0.01347
1913.22401	0.01373
1911.93825	0.01391
1910.65248	0.01410
1909.36671	0.01434
1908.08094	0.01454
1906.79517	0.01458
1905.50940	0.01443
1904.22363	0.01420
1902.93786	0.01404
1901.65209	0.01394
1900.36633	0.01388
1899.08056	0.01387
1897.79479	0.01398
1896.50902	0.01420
1895.22325	0.01447
1893.93748	0.01465
1892.65171	0.01461
1891.36594	0.01436
1890.08018	0.01405
1888.79441	0.01381
1887.50864	0.01362
1886.22287	0.01337
1884.93710	0.01304
1883.65133	0.01271
1882.36556	0.01245
1881.07979	0.01233
1879.79402	0.01241
1878.50826	0.01263
1877.22249	0.01284
1875.93672	0.01292
1874.65095	0.01298
1873.36518	0.01317
1872.07941	0.01345
1870.79364	0.01363
1869.50787	0.01361
1868.22211	0.01349
1866.93634	0.01332
1865.65057	0.01314
1864.36480	0.01302
1863.07903	0.01306
1861.79326	0.01329
1860.50749	0.01359
1859.22172	0.01381
1857.93595	0.01387
1856.65019	0.01380
1855.36442	0.01366
1854.07865	0.01351
1852.79288	0.01334
1851.50711	0.01316
1850.22134	0.01306
1848.93557	0.01316
1847.64980	0.01345
1846.36404	0.01370
1845.07827	0.01378
1843.79250	0.01380
1842.50673	0.01387
1841.22096	0.01393
1839.93519	0.01393
1838.64942	0.01391
1837.36365	0.01387
1836.07788	0.01379
1834.79212	0.01371
1833.50635	0.01371
1832.22058	0.01381
1830.93481	0.01399
1829.64904	0.01425
1828.36327	0.01450
1827.07750	0.01459
1825.79173	0.01451
1824.50597	0.01447
1823.22020	0.01458
1821.93443	0.01474
1820.64866	0.01478
1819.36289	0.01459
1818.07712	0.01413
1816.79135	0.01357
1815.50558	0.01312
1814.21981	0.01290
1812.93405	0.01284
1811.64828	0.01278
1810.36251	0.01264
1809.07674	0.01244
1807.79097	0.01234
1806.50520	0.01243
1805.21943	0.01265
1803.93366	0.01285
1802.64790	0.01292
1801.36213	0.01289
1800.07636	0.01287
1798.79059	0.01294
1797.50482	0.01310
1796.21905	0.01334
1794.93328	0.01353
1793.64751	0.01361
1792.36174	0.01365
1791.07598	0.01372
1789.79021	0.01376
1788.50444	0.01371
1787.21867	0.01360
1785.93290	0.01354
1784.64713	0.01363
1783.36136	0.01383
1782.07559	0.01399
1780.78983	0.01402
1779.50406	0.01392
1778.21829	0.01377
1776.93252	0.01365
1775.64675	0.01362
1774.36098	0.01363
1773.07521	0.01369
1771.78944	0.01383
1770.50367	0.01391
1769.21791	0.01380
1767.93214	0.01363
1766.64637	0.01364
1765.36060	0.01378
1764.07483	0.01379
1762.78906	0.01363
1761.50329	0.01346
1760.21752	0.01337
1758.93176	0.01331
1757.64599	0.01323
1756.36022	0.01328
1755.07445	0.01346
1753.78868	0.01362
1752.50291	0.01365
1751.21714	0.01364
1749.93137	0.01369
1748.64560	0.01370
1747.35984	0.01362
1746.07407	0.01349
1744.78830	0.01340
1743.50253	0.01340
1742.21676	0.01345
1740.93099	0.01350
1739.64522	0.01364
1738.35945	0.01394
1737.07369	0.01422
1735.78792	0.01423
1734.50215	0.01414
1733.21638	0.01416
1731.93061	0.01418
1730.64484	0.01397
1729.35907	0.01365
1728.07330	0.01352
1726.78753	0.01362
1725.50177	0.01377
1724.21600	0.01391
1722.93023	0.01415
1721.64446	0.01454
1720.35869	0.01496
1719.07292	0.01523
1717.78715	0.01543
1716.50138	0.01566
1715.21561	0.01582
1713.92985	0.01583
1712.64408	0.01583
1711.35831	0.01594
1710.07254	0.01620
1708.78677	0.01658
1707.50100	0.01703
1706.21523	0.01760
1704.92946	0.01841
1703.64370	0.01931
1702.35793	0.02002
1701.07216	0.02067
1699.78639	0.02172
1698.50062	0.02301
1697.21485	0.02396
1695.92908	0.02457
1694.64331	0.02529
1693.35754	0.02611
1692.07178	0.02676
1690.78601	0.02741
1689.50024	0.02839
1688.21447	0.02969
1686.92870	0.03088
1685.64293	0.03179
1684.35716	0.03268
1683.07139	0.03369
1681.78563	0.03455
1680.49986	0.03518
1679.21409	0.03590
1677.92832	0.03685
1676.64255	0.03786
1675.35678	0.03889
1674.07101	0.03998
1672.78524	0.04099
1671.49947	0.04174
1670.21371	0.04235
1668.92794	0.04301
1667.64217	0.04379
1666.35640	0.04459
1665.07063	0.04532
1663.78486	0.04602
1662.49909	0.04678
1661.21332	0.04757
1659.92756	0.04834
1658.64179	0.04921
1657.35602	0.05036
1656.07025	0.05155
1654.78448	0.05236
1653.49871	0.05288
1652.21294	0.05352
1650.92717	0.05422
1649.64140	0.05454
1648.35564	0.05443
1647.06987	0.05434
1645.78410	0.05450
1644.49833	0.05472
1643.21256	0.05474
1641.92679	0.05459
1640.64102	0.05450
1639.35525	0.05458
1638.06949	0.05462
1636.78372	0.05444
1635.49795	0.05411
1634.21218	0.05373
1632.92641	0.05321
1631.64064	0.05247
1630.35487	0.05167
1629.06910	0.05095
1627.78333	0.05033
1626.49757	0.04971
1625.21180	0.04896
1623.92603	0.04811
1622.64026	0.04733
1621.35449	0.04668
1620.06872	0.04599
1618.78295	0.04509
1617.49718	0.04408
1616.21142	0.04321
1614.92565	0.04249
1613.63988	0.04172
1612.35411	0.04088
1611.06834	0.04012
1609.78257	0.03951
1608.49680	0.03898
1607.21103	0.03845
1605.92526	0.03795
1604.63950	0.03750
1603.35373	0.03713
1602.06796	0.03687
1600.78219	0.03667
1599.49642	0.03650
1598.21065	0.03631
1596.92488	0.03614
1595.63911	0.03599
1594.35335	0.03590
1593.06758	0.03587
1591.78181	0.03587
1590.49604	0.03588
1589.21027	0.03589
1587.92450	0.03592
1586.63873	0.03600
1585.35296	0.03613
1584.06719	0.03630
1582.78143	0.03652
1581.49566	0.03687
1580.20989	0.03739
1578.92412	0.03798
1577.63835	0.03841
1576.35258	0.03878
1575.06681	0.03926
1573.78104	0.03972
1572.49528	0.03995
1571.20951	0.04005
1569.92374	0.04028
1568.63797	0.04071
1567.35220	0.04120
1566.06643	0.04164
1564.78066	0.04219
1563.49489	0.04298
1562.20912	0.04378
1560.92336	0.04431
1559.63759	0.04464
1558.35182	0.04502
1557.06605	0.04535
1555.78028	0.04533
1554.49451	0.04511
1553.20874	0.04508
1551.92297	0.04528
1550.63721	0.04551
1549.35144	0.04573
1548.06567	0.04596
1546.77990	0.04617
1545.49413	0.04639
1544.20836	0.04672
1542.92259	0.04706
1541.63682	0.04720
1540.35105	0.04708
1539.06529	0.04691
1537.77952	0.04678
1536.49375	0.04653
1535.20798	0.04607
1533.92221	0.04563
1532.63644	0.04543
1531.35067	0.04536
1530.06490	0.04525
1528.77914	0.04511
1527.49337	0.04504
1526.20760	0.04513
1524.92183	0.04531
1523.63606	0.04537
1522.35029	0.04522
1521.06452	0.04508
1519.77875	0.04504
1518.49298	0.04490
1517.20722	0.04459
1515.92145	0.04431
1514.63568	0.04418
1513.34991	0.04416
1512.06414	0.04432
1510.77837	0.04472
1509.49260	0.04514
1508.20683	0.04533
1506.92107	0.04531
1505.63530	0.04529
1504.34953	0.04528
1503.06376	0.04508
1501.77799	0.04476
1500.49222	0.04458
1499.20645	0.04458
1497.92068	0.04461
1496.63491	0.04458
1495.34915	0.04456
1494.06338	0.04454
1492.77761	0.04444
1491.49184	0.04430
1490.20607	0.04427
1488.92030	0.04435
1487.63453	0.04446
1486.34876	0.04459
1485.06299	0.04477
1483.77723	0.04499
1482.49146	0.04528
1481.20569	0.04568
1479.91992	0.04623
1478.63415	0.04692
1477.34838	0.04771
1476.06261	0.04853
1474.77684	0.04927
1473.49108	0.04984
1472.20531	0.05037
1470.91954	0.05092
1469.63377	0.05144
1468.34800	0.05186
1467.06223	0.05221
1465.77646	0.05258
1464.49069	0.05308
1463.20492	0.05373
1461.91916	0.05454
1460.63339	0.05540
1459.34762	0.05618
1458.06185	0.05683
1456.77608	0.05753
1455.49031	0.05835
1454.20454	0.05903
1452.91877	0.05939
1451.63301	0.05954
1450.34724	0.05962
1449.06147	0.05964
1447.77570	0.05957
1446.48993	0.05943
1445.20416	0.05920
1443.91839	0.05890
1442.63262	0.05864
1441.34685	0.05850
1440.06109	0.05845
1438.77532	0.05833
1437.48955	0.05811
1436.20378	0.05795
1434.91801	0.05788
1433.63224	0.05777
1432.34647	0.05758
1431.06070	0.05749
1429.77494	0.05763
1428.48917	0.05796
1427.20340	0.05839
1425.91763	0.05883
1424.63186	0.05935
1423.34609	0.05999
1422.06032	0.06065
1420.77455	0.06121
1419.48878	0.06173
1418.20302	0.06228
1416.91725	0.06276
1415.63148	0.06305
1414.34571	0.06318
1413.05994	0.06328
1411.77417	0.06338
1410.48840	0.06346
1409.20263	0.06347
1407.91687	0.06335
1406.63110	0.06304
1405.34533	0.06256
1404.05956	0.06199
1402.77379	0.06135
1401.48802	0.06063
1400.20225	0.05984
1398.91648	0.05905
1397.63071	0.05824
1396.34495	0.05733
1395.05918	0.05629
1393.77341	0.05526
1392.48764	0.05430
1391.20187	0.05336
1389.91610	0.05238
1388.63033	0.05135
1387.34456	0.05033
1386.05880	0.04936
1384.77303	0.04839
1383.48726	0.04739
1382.20149	0.04642
1380.91572	0.04551
1379.62995	0.04466
1378.34418	0.04387
1377.05841	0.04306
1375.77264	0.04218
1374.48688	0.04125
1373.20111	0.04032
1371.91534	0.03943
1370.62957	0.03854
1369.34380	0.03766
1368.05803	0.03683
1366.77226	0.03609
1365.48649	0.03541
1364.20073	0.03476
1362.91496	0.03413
1361.62919	0.03351
1360.34342	0.03289
1359.05765	0.03224
1357.77188	0.03163
1356.48611	0.03113
1355.20034	0.03076
1353.91457	0.03047
1352.62881	0.03021
1351.34304	0.02998
1350.05727	0.02977
1348.77150	0.02961
1347.48573	0.02947
1346.19996	0.02932
1344.91419	0.02916
1343.62842	0.02898
1342.34266	0.02882
1341.05689	0.02867
1339.77112	0.02856
1338.48535	0.02846
1337.19958	0.02835
1335.91381	0.02820
1334.62804	0.02799
1333.34227	0.02774
1332.05650	0.02748
1330.77074	0.02722
1329.48497	0.02699
1328.19920	0.02675
1326.91343	0.02653
1325.62766	0.02632
1324.34189	0.02616
1323.05612	0.02604
1321.77035	0.02594
1320.48459	0.02582
1319.19882	0.02567
1317.91305	0.02548
1316.62728	0.02526
1315.34151	0.02500
1314.05574	0.02474
1312.76997	0.02451
1311.48420	0.02431
1310.19843	0.02413
1308.91267	0.02395
1307.62690	0.02376
1306.34113	0.02354
1305.05536	0.02332
1303.76959	0.02315
1302.48382	0.02305
1301.19805	0.02301
1299.91228	0.02298
1298.62652	0.02288
1297.34075	0.02270
1296.05498	0.02245
1294.76921	0.02221
1293.48344	0.02206
1292.19767	0.02203
1290.91190	0.02208
1289.62613	0.02213
1288.34036	0.02212
1287.05460	0.02207
1285.76883	0.02201
1284.48306	0.02196
1283.19729	0.02194
1281.91152	0.02192
1280.62575	0.02188
1279.33998	0.02183
1278.05421	0.02176
1276.76845	0.02170
1275.48268	0.02164
1274.19691	0.02157
1272.91114	0.02150
1271.62537	0.02142
1270.33960	0.02133
1269.05383	0.02125
1267.76806	0.02120
1266.48229	0.02118
1265.19653	0.02116
1263.91076	0.02113
1262.62499	0.02107
1261.33922	0.02102
1260.05345	0.02098
1258.76768	0.02097
1257.48191	0.02097
1256.19614	0.02100
1254.91037	0.02106
1253.62461	0.02114
1252.33884	0.02122
1251.05307	0.02126
1249.76730	0.02126
1248.48153	0.02121
1247.19576	0.02113
1245.90999	0.02108
1244.62422	0.02107
1243.33846	0.02109
1242.05269	0.02110
1240.76692	0.02107
1239.48115	0.02099
1238.19538	0.02089
1236.90961	0.02081
1235.62384	0.02073
1234.33807	0.02063
1233.05230	0.02050
1231.76654	0.02032
1230.48077	0.02008
1229.19500	0.01982
1227.90923	0.01959
1226.62346	0.01940
1225.33769	0.01923
1224.05192	0.01905
1222.76615	0.01883
1221.48039	0.01858
1220.19462	0.01831
1218.90885	0.01804
1217.62308	0.01778
1216.33731	0.01754
1215.05154	0.01734
1213.76577	0.01718
1212.48000	0.01706
1211.19423	0.01696
1209.90847	0.01690
1208.62270	0.01690
1207.33693	0.01696
1206.05116	0.01706
1204.76539	0.01715
1203.47962	0.01719
1202.19385	0.01718
1200.90808	0.01703
1199.62232	0.01671
1198.33655	0.01660
1197.05078	0.01647
1195.76501	0.01636
1194.47924	0.01630
1193.19347	0.01628
1191.90770	0.01624
1190.62193	0.01612
1189.33616	0.01593
1188.05040	0.01572
1186.76463	0.01553
1185.47886	0.01536
1184.19309	0.01522
1182.90732	0.01510
1181.62155	0.01500
1180.33578	0.01493
1179.05001	0.01492
1177.76425	0.01496
1176.47848	0.01502
1175.19271	0.01508
1173.90694	0.01512
1172.62117	0.01516
1171.33540	0.01516
1170.04963	0.01515
1168.76386	0.01514
1167.47809	0.01518
1166.19233	0.01527
1164.90656	0.01539
1163.62079	0.01551
1162.33502	0.01562
1161.04925	0.01572
1159.76348	0.01583
1158.47771	0.01597
1157.19194	0.01611
1155.90618	0.01624
1154.62041	0.01636
1153.33464	0.01647
1152.04887	0.01657
1150.76310	0.01667
1149.47733	0.01683
1148.19156	0.01707
1146.90579	0.01740
1145.62002	0.01776
1144.33426	0.01809
1143.04849	0.01839
1141.76272	0.01872
1140.47695	0.01916
1139.19118	0.01972
1137.90541	0.02035
1136.61964	0.02101
1135.33387	0.02171
1134.04811	0.02251
1132.76234	0.02341
1131.47657	0.02441
1130.19080	0.02550
1128.90503	0.02672
1127.61926	0.02808
1126.33349	0.02959
1125.04772	0.03122
1123.76195	0.03295
1122.47619	0.03478
1121.19042	0.03665
1119.90465	0.03858
1118.61888	0.04059
1117.33311	0.04270
1116.04734	0.04484
1114.76157	0.04696
1113.47580	0.04901
1112.19004	0.05102
1110.90427	0.05303
1109.61850	0.05508
1108.33273	0.05716
1107.04696	0.05919
1105.76119	0.06107
1104.47542	0.06276
1103.18965	0.06434
1101.90388	0.06592
1100.61812	0.06753
1099.33235	0.06912
1098.04658	0.07061
1096.76081	0.07198
1095.47504	0.07321
1094.18927	0.07431
1092.90350	0.07533
1091.61773	0.07633
1090.33197	0.07735
1089.04620	0.07834
1087.76043	0.07929
1086.47466	0.08024
1085.18889	0.08119
1083.90312	0.08216
1082.61735	0.08315
1081.33158	0.08421
1080.04581	0.08537
1078.76005	0.08662
1077.47428	0.08796
1076.18851	0.08935
1074.90274	0.09082
1073.61697	0.09238
1072.33120	0.09410
1071.04543	0.09597
1069.75966	0.09795
1068.47390	0.09997
1067.18813	0.10198
1065.90236	0.10398
1064.61659	0.10598
1063.33082	0.10802
1062.04505	0.11010
1060.75928	0.11220
1059.47351	0.11429
1058.18774	0.11632
1056.90198	0.11827
1055.61621	0.12015
1054.33044	0.12198
1053.04467	0.12382
1051.75890	0.12571
1050.47313	0.12767
1049.18736	0.12966
1047.90159	0.13165
1046.61583	0.13363
1045.33006	0.13560
1044.04429	0.13754
1042.75852	0.13947
1041.47275	0.14142
1040.18698	0.14346
1038.90121	0.14555
1037.61544	0.14760
1036.32967	0.14957
1035.04391	0.15148
1033.75814	0.15337
1032.47237	0.15515
1031.18660	0.15673
1029.90083	0.15812
1028.61506	0.15938
1027.32929	0.16050
1026.04352	0.16140
1024.75775	0.16204
1023.47199	0.16244
1022.18622	0.16260
1020.90045	0.16250
1019.61468	0.16216
1018.32891	0.16162
1017.04314	0.16089
1015.75737	0.15992
1014.47160	0.15866
1013.18584	0.15711
1011.90007	0.15527
1010.61430	0.15320
1009.32853	0.15090
1008.04276	0.14847
1006.75699	0.14596
1005.47122	0.14344
1004.18545	0.14089
1002.89968	0.13821
1001.61392	0.13533
1000.32815	0.13226
999.04238	0.12913
997.75661	0.12607
996.47084	0.12314
995.18507	0.12031
993.89930	0.11750
992.61353	0.11464
991.32777	0.11170
990.04200	0.10871
988.75623	0.10573
987.47046	0.10284
986.18469	0.10011
984.89892	0.09753
983.61315	0.09504
982.32738	0.09252
981.04161	0.08996
979.75585	0.08743
978.47008	0.08508
977.18431	0.08295
975.89854	0.08101
974.61277	0.07920
973.32700	0.07747
972.04123	0.07588
970.75546	0.07454
969.46970	0.07360
968.18393	0.07309
966.89816	0.07298
965.61239	0.07316
964.32662	0.07343
963.04085	0.07362
961.75508	0.07367
960.46931	0.07356
959.18354	0.07328
957.89778	0.07278
956.61201	0.07199
955.32624	0.07089
954.04047	0.06959
952.75470	0.06819
951.46893	0.06682
950.18316	0.06548
948.89739	0.06419
947.61163	0.06295
946.32586	0.06177
945.04009	0.06066
943.75432	0.05957
942.46855	0.05844
941.18278	0.05726
939.89701	0.05611
938.61124	0.05504
937.32547	0.05406
936.03971	0.05311
934.75394	0.05217
933.46817	0.05124
932.18240	0.05038
930.89663	0.04959
929.61086	0.04883
928.32509	0.04803
927.03932	0.04723
925.75356	0.04649
924.46779	0.04588
923.18202	0.04536
921.89625	0.04486
920.61048	0.04432
919.32471	0.04375
918.03894	0.04317
916.75317	0.04262
915.46740	0.04208
914.18164	0.04156
912.89587	0.04107
911.61010	0.04062
910.32433	0.04016
909.03856	0.03966
907.75279	0.03914
906.46702	0.03865
905.18125	0.03820
903.89549	0.03773
902.60972	0.03723
901.32395	0.03675
900.03818	0.03640
898.75241	0.03620
897.46664	0.03608
896.18087	0.03589
894.89510	0.03558
893.60933	0.03523
892.32357	0.03499
891.03780	0.03488
889.75203	0.03482
888.46626	0.03479
887.18049	0.03485
885.89472	0.03510
884.60895	0.03566
883.32318	0.03663
882.03742	0.03798
880.75165	0.03942
879.46588	0.04062
878.18011	0.04142
876.89434	0.04200
875.60857	0.04263
874.32280	0.04344
873.03703	0.04422
871.75126	0.04464
870.46550	0.04452
869.17973	0.04389
867.89396	0.04296
866.60819	0.04189
865.32242	0.04081
864.03665	0.03978
862.75088	0.03885
861.46511	0.03800
860.17935	0.03716
858.89358	0.03632
857.60781	0.03553
856.32204	0.03484
855.03627	0.03427
853.75050	0.03383
852.46473	0.03349
851.17896	0.03319
849.89319	0.03291
848.60743	0.03260
847.32166	0.03228
846.03589	0.03199
844.75012	0.03174
843.46435	0.03157
842.17858	0.03144
840.89281	0.03129
839.60704	0.03104
838.32128	0.03069
837.03551	0.03033
835.74974	0.03007
834.46397	0.02994
833.17820	0.02988
831.89243	0.02983
830.60666	0.02971
829.32089	0.02953
828.03512	0.02933
826.74936	0.02913
825.46359	0.02895
824.17782	0.02881
822.89205	0.02873
821.60628	0.02873
820.32051	0.02879
819.03474	0.02887
817.74897	0.02894
816.46321	0.02896
815.17744	0.02888
813.89167	0.02871
812.60590	0.02852
811.32013	0.02836
810.03436	0.02825
808.74859	0.02818
807.46282	0.02817
806.17705	0.02818
804.89129	0.02819
803.60552	0.02814
802.31975	0.02804
801.03398	0.02794
799.74821	0.02788
798.46244	0.02784
797.17667	0.02782
795.89090	0.02785
794.60513	0.02794
793.31937	0.02803
792.03360	0.02806
790.74783	0.02803
789.46206	0.02800
788.17629	0.02799
786.89052	0.02802
785.60475	0.02808
784.31898	0.02813
783.03322	0.02815
781.74745	0.02810
780.46168	0.02797
779.17591	0.02783
777.89014	0.02769
776.60437	0.02759
775.31860	0.02754
774.03283	0.02757
772.74706	0.02766
771.46130	0.02773
770.17553	0.02774
768.88976	0.02774
767.60399	0.02778
766.31822	0.02790
765.03245	0.02805
763.74668	0.02820
762.46091	0.02826
761.17515	0.02821
759.88938	0.02807
758.60361	0.02795
757.31784	0.02795
756.03207	0.02805
754.74630	0.02815
753.46053	0.02817
752.17476	0.02813
750.88899	0.02810
749.60323	0.02811
748.31746	0.02812
747.03169	0.02812
745.74592	0.02811
744.46015	0.02808
743.17438	0.02802
741.88861	0.02791
740.60284	0.02777
739.31708	0.02759
738.03131	0.02742
736.74554	0.02735
735.45977	0.02744
734.17400	0.02763
732.88823	0.02780
731.60246	0.02791
730.31669	0.02802
729.03092	0.02819
727.74516	0.02834
726.45939	0.02841
725.17362	0.02841
723.88785	0.02833
722.60208	0.02828
721.31631	0.02822
720.03054	0.02814
718.74477	0.02808
717.45901	0.02808
716.17324	0.02813
714.88747	0.02820
713.60170	0.02827
712.31593	0.02833
711.03016	0.02839
709.74439	0.02842
708.45862	0.02844
707.17285	0.02843
705.88709	0.02836
704.60132	0.02824
703.31555	0.02812
702.02978	0.02804
700.74401	0.02802
699.45824	0.02806
698.17247	0.02812
696.88670	0.02819
695.60094	0.02826
694.31517	0.02831
693.02940	0.02833
691.74363	0.02833
690.45786	0.02831
689.17209	0.02830
687.88632	0.02829
686.60055	0.02824
685.31478	0.02818
684.02902	0.02813
682.74325	0.02812
681.45748	0.02810
680.17171	0.02804
678.88594	0.02796
677.60017	0.02790
676.31440	0.02790
675.02863	0.02790
673.74287	0.02791
672.45710	0.02794
671.17133	0.02801
669.88556	0.02812
668.59979	0.02823
667.31402	0.02828
666.02825	0.02824
664.74248	0.02811
663.45671	0.02790
662.17095	0.02768
660.88518	0.02752
659.59941	0.02748
658.31364	0.02757
657.02787	0.02768
655.74210	0.02774
654.45633	0.02770
653.17056	0.02762
651.88480	0.02753
650.59903	0.02748
649.31326	0.02743
648.02749	0.02736
646.74172	0.02729
645.45595	0.02726
644.17018	0.02726
642.88441	0.02727
641.59864	0.02728
640.31288	0.02727
639.02711	0.02729
637.74134	0.02739
636.45557	0.02757
635.16980	0.02775
633.88403	0.02788
632.59826	0.02791
631.31249	0.02808
630.02673	0.02933
628.74096	0.03124
627.45519	0.03001
626.16942	0.03233
624.88365	0.03705
623.59788	0.04142
622.31211	0.04455
621.02634	0.04670
619.74057	0.04839
618.45481	0.04946
617.16904	0.04915
615.88327	0.04730
614.59750	0.04506
613.31173	0.04438
612.02596	0.04656
610.74019	0.05137
609.45442	0.05736
608.16866	0.06300
606.88289	0.06758
605.59712	0.07096
604.31135	0.07317
603.02558	0.07424
601.73981	0.07429
600.45404	0.07347
599.16827	0.07192
597.88250	0.06984
596.59674	0.06745
595.31097	0.06505
594.02520	0.06288
592.73943	0.06115
591.45366	0.05995
590.16789	0.05926
588.88212	0.05899
587.59635	0.05909
586.31059	0.05953
585.02482	0.06031
583.73905	0.06139
582.45328	0.06268
581.16751	0.06418
579.88174	0.06589
578.59597	0.06781
577.31020	0.06984
576.02443	0.07185
574.73867	0.07368
573.45290	0.07537
572.16713	0.07704
570.88136	0.07889
569.59559	0.08097
568.30982	0.08327
567.02405	0.08569
565.73828	0.08805
564.45251	0.09015
563.16675	0.09177
561.88098	0.09265
560.59521	0.09257
559.30944	0.09149
558.02367	0.08953
556.73790	0.08693
555.45213	0.08394
554.16636	0.08070
552.88060	0.07734
551.59483	0.07398
550.30906	0.07081
549.02329	0.06798
547.73752	0.06554
546.45175	0.06344
545.16598	0.06157
543.88021	0.05980
542.59444	0.05810
541.30868	0.05648
540.02291	0.05502
538.73714	0.05372
537.45137	0.05253
536.16560	0.05137
534.87983	0.05018
533.59406	0.04893
532.30829	0.04773
531.02253	0.04667
529.73676	0.04578
528.45099	0.04502
527.16522	0.04431
525.87945	0.04358
524.59368	0.04281
523.30791	0.04203
522.02214	0.04129
520.73637	0.04069
519.45061	0.04025
518.16484	0.03985
516.87907	0.03930
515.59330	0.03851
514.30753	0.03760
513.02176	0.03681
511.73599	0.03630
510.45022	0.03601
509.16446	0.03578
507.87869	0.03550
506.59292	0.03518
505.30715	0.03483
504.02138	0.03445
502.73561	0.03402
501.44984	0.03354
500.16407	0.03300
498.87830	0.03240
497.59254	0.03178
496.30677	0.03125
495.02100	0.03088
493.73523	0.03071
492.44946	0.03064
491.16369	0.03053
489.87792	0.03026
488.59215	0.02986
487.30639	0.02952
486.02062	0.02936
484.73485	0.02938
483.44908	0.02948
482.16331	0.02954
480.87754	0.02951
479.59177	0.02939
478.30600	0.02925
477.02023	0.02916
475.73447	0.02918
474.44870	0.02928
473.16293	0.02944
471.87716	0.02961
470.59139	0.02976
469.30562	0.02985
468.01985	0.02984
466.73408	0.02972
465.44832	0.02949
464.16255	0.02915
462.87678	0.02874
461.59101	0.02833
460.30524	0.02795
459.01947	0.02761
457.73370	0.02731
456.44793	0.02703
455.16216	0.02671
453.87640	0.02634
452.59063	0.02595
451.30486	0.02559
450.01909	0.02528
448.73332	0.02502
447.44755	0.02479
446.16178	0.02457
444.87601	0.02435
443.59025	0.02416
442.30448	0.02400
441.01871	0.02387
439.73294	0.02374
438.44717	0.02359
437.16140	0.02342
435.87563	0.02324
434.58986	0.02308
433.30409	0.02291
432.01833	0.02273
430.73256	0.02257
429.44679	0.02244
428.16102	0.02232
426.87525	0.02219
425.58948	0.02205
424.30371	0.02191
423.01794	0.02177
421.73218	0.02162
420.44641	0.02142
419.16064	0.02122
417.87487	0.02106
416.58910	0.02091
415.30333	0.02073
414.01756	0.02055
412.73179	0.02035
411.44602	0.02014
410.16026	0.01994
408.87449	0.01978
407.58872	0.01965
406.30295	0.01953
405.01718	0.01941
403.73141	0.01932
402.44564	0.01928
401.15987	0.01930
399.87411	0.01935
