3997.45528	0.01330
3996.16951	0.01336
3994.88374	0.01298
3993.59798	0.01220
3992.31221	0.01153
3991.02644	0.01150
3989.74067	0.01226
3988.45490	0.01342
3987.16913	0.01427
3985.88336	0.01441
3984.59759	0.01410
3983.31183	0.01394
3982.02606	0.01409
3980.74029	0.01424
3979.45452	0.01414
3978.16875	0.01401
3976.88298	0.01419
3975.59721	0.01465
3974.31144	0.01505
3973.02567	0.01517
3971.73991	0.01502
3970.45414	0.01466
3969.16837	0.01403
3967.88260	0.01317
3966.59683	0.01232
3965.31106	0.01186
3964.02529	0.01203
3962.73952	0.01286
3961.45376	0.01413
3960.16799	0.01542
3958.88222	0.01620
3957.59645	0.01612
3956.31068	0.01533
3955.02491	0.01438
3953.73914	0.01384
3952.45337	0.01377
3951.16760	0.01386
3949.88184	0.01378
3948.59607	0.01362
3947.31030	0.01367
3946.02453	0.01405
3944.73876	0.01459
3943.45299	0.01510
3942.16722	0.01546
3940.88145	0.01562
3939.59569	0.01556
3938.30992	0.01530
3937.02415	0.01503
3935.73838	0.01494
3934.45261	0.01502
3933.16684	0.01511
3931.88107	0.01504
3930.59530	0.01479
3929.30953	0.01447
3928.02377	0.01428
3926.73800	0.01442
3925.45223	0.01490
3924.16646	0.01547
3922.88069	0.01581
3921.59492	0.01574
3920.30915	0.01535
3919.02338	0.01493
3917.73762	0.01475
3916.45185	0.01482
3915.16608	0.01487
3913.88031	0.01475
3912.59454	0.01457
3911.30877	0.01459
3910.02300	0.01487
3908.73723	0.01520
3907.45146	0.01538
3906.16570	0.01542
3904.87993	0.01541
3903.59416	0.01540
3902.30839	0.01550
3901.02262	0.01579
3899.73685	0.01608
3898.45108	0.01603
3897.16531	0.01554
3895.87955	0.01489
3894.59378	0.01446
3893.30801	0.01434
3892.02224	0.01437
3890.73647	0.01439
3889.45070	0.01454
3888.16493	0.01496
3886.87916	0.01522
3885.59339	0.01476
3884.30763	0.01368
3883.02186	0.01274
3881.73609	0.01242
3880.45032	0.01256
3879.16455	0.01290
3877.87878	0.01354
3876.59301	0.01450
3875.30724	0.01551
3874.02148	0.01623
3872.73571	0.01662
3871.44994	0.01682
3870.16417	0.01669
3868.87840	0.01626
3867.59263	0.01603
3866.30686	0.01637
3865.02109	0.01699
3863.73532	0.01741
3862.44956	0.01747
3861.16379	0.01725
3859.87802	0.01679
3858.59225	0.01620
3857.30648	0.01586
3856.02071	0.01612
3854.73494	0.01682
3853.44917	0.01731
3852.16341	0.01717
3850.87764	0.01662
3849.59187	0.01604
3848.30610	0.01559
3847.02033	0.01523
3845.73456	0.01484
3844.44879	0.01436
3843.16302	0.01397
3841.87725	0.01394
3840.59149	0.01444
3839.30572	0.01516
3838.01995	0.01552
3836.73418	0.01524
3835.44841	0.01469
3834.16264	0.01445
3832.87687	0.01481
3831.59110	0.01559
3830.30534	0.01644
3829.01957	0.01701
3827.73380	0.01714
3826.44803	0.01677
3825.16226	0.01610
3823.87649	0.01552
3822.59072	0.01526
3821.30495	0.01507
3820.01918	0.01474
3818.73342	0.01451
3817.44765	0.01454
3816.16188	0.01451
3814.87611	0.01419
3813.59034	0.01401
3812.30457	0.01439
3811.01880	0.01512
3809.73303	0.01579
3808.44726	0.01625
3807.16150	0.01636
3805.87573	0.01605
3804.58996	0.01552
3803.30419	0.01508
3802.01842	0.01480
3800.73265	0.01467
3799.44688	0.01498
3798.16111	0.01585
3796.87535	0.01687
3795.58958	0.01745
3794.30381	0.01751
3793.01804	0.01730
3791.73227	0.01704
3790.44650	0.01684
3789.16073	0.01679
3787.87496	0.01694
3786.58919	0.01724
3785.30343	0.01745
3784.01766	0.01734
3782.73189	0.01690
3781.44612	0.01633
3780.16035	0.01579
3778.87458	0.01532
3777.58881	0.01500
3776.30304	0.01493
3775.01728	0.01503
3773.73151	0.01509
3772.44574	0.01497
3771.15997	0.01466
3769.87420	0.01420
3768.58843	0.01375
3767.30266	0.01351
3766.01689	0.01353
3764.73112	0.01370
3763.44536	0.01405
3762.15959	0.01462
3760.87382	0.01521
3759.58805	0.01547
3758.30228	0.01530
3757.01651	0.01490
3755.73074	0.01457
3754.44497	0.01447
3753.15921	0.01444
3751.87344	0.01420
3750.58767	0.01379
3749.30190	0.01351
3748.01613	0.01367
3746.73036	0.01437
3745.44459	0.01515
3744.15882	0.01528
3742.87305	0.01474
3741.58729	0.01424
3740.30152	0.01403
3739.01575	0.01378
3737.72998	0.01332
3736.44421	0.01282
3735.15844	0.01257
3733.87267	0.01281
3732.58690	0.01344
3731.30114	0.01408
3730.01537	0.01452
3728.72960	0.01485
3727.44383	0.01512
3726.15806	0.01527
3724.87229	0.01532
3723.58652	0.01542
3722.30075	0.01558
3721.01498	0.01574
3719.72922	0.01583
3718.44345	0.01573
3717.15768	0.01537
3715.87191	0.01491
3714.58614	0.01471
3713.30037	0.01481
3712.01460	0.01494
3710.72883	0.01486
3709.44307	0.01473
3708.15730	0.01480
3706.87153	0.01504
3705.58576	0.01527
3704.29999	0.01534
3703.01422	0.01522
3701.72845	0.01498
3700.44268	0.01464
3699.15691	0.01421
3697.87115	0.01372
3696.58538	0.01320
3695.29961	0.01276
3694.01384	0.01262
3692.72807	0.01291
3691.44230	0.01343
3690.15653	0.01383
3688.87076	0.01396
3687.58500	0.01394
3686.29923	0.01399
3685.01346	0.01413
3683.72769	0.01402
3682.44192	0.01348
3681.15615	0.01294
3679.87038	0.01299
3678.58461	0.01381
3677.29884	0.01494
3676.01308	0.01548
3674.72731	0.01501
3673.44154	0.01426
3672.15577	0.01424
3670.87000	0.01493
3669.58423	0.01549
3668.29846	0.01553
3667.01269	0.01548
3665.72693	0.01574
3664.44116	0.01620
3663.15539	0.01649
3661.86962	0.01639
3660.58385	0.01610
3659.29808	0.01590
3658.01231	0.01581
3656.72654	0.01559
3655.44077	0.01512
3654.15501	0.01466
3652.86924	0.01458
3651.58347	0.01500
3650.29770	0.01578
3649.01193	0.01670
3647.72616	0.01745
3646.44039	0.01770
3645.15462	0.01747
3643.86886	0.01714
3642.58309	0.01715
3641.29732	0.01750
3640.01155	0.01786
3638.72578	0.01794
3637.44001	0.01781
3636.15424	0.01769
3634.86847	0.01762
3633.58270	0.01749
3632.29694	0.01743
3631.01117	0.01782
3629.72540	0.01875
3628.43963	0.01975
3627.15386	0.02040
3625.86809	0.02053
3624.58232	0.02014
3623.29655	0.01942
3622.01079	0.01893
3620.72502	0.01912
3619.43925	0.01988
3618.15348	0.02056
3616.86771	0.02072
3615.58194	0.02051
3614.29617	0.02047
3613.01040	0.02097
3611.72463	0.02186
3610.43887	0.02254
3609.15310	0.02258
3607.86733	0.02210
3606.58156	0.02167
3605.29579	0.02161
3604.01002	0.02182
3602.72425	0.02214
3601.43848	0.02264
3600.15272	0.02335
3598.86695	0.02403
3597.58118	0.02442
3596.29541	0.02458
3595.00964	0.02476
3593.72387	0.02499
3592.43810	0.02514
3591.15233	0.02520
3589.86656	0.02536
3588.58080	0.02576
3587.29503	0.02632
3586.00926	0.02674
3584.72349	0.02682
3583.43772	0.02657
3582.15195	0.02618
3580.86618	0.02582
3579.58041	0.02569
3578.29464	0.02582
3577.00888	0.02605
3575.72311	0.02619
3574.43734	0.02622
3573.15157	0.02623
3571.86580	0.02649
3570.58003	0.02721
3569.29426	0.02841
3568.00849	0.02969
3566.72273	0.03051
3565.43696	0.03071
3564.15119	0.03046
3562.86542	0.02998
3561.57965	0.02932
3560.29388	0.02864
3559.00811	0.02816
3557.72234	0.02804
3556.43657	0.02825
3555.15081	0.02871
3553.86504	0.02933
3552.57927	0.02988
3551.29350	0.03010
3550.00773	0.02994
3548.72196	0.02964
3547.43619	0.02950
3546.15042	0.02970
3544.86466	0.03025
3543.57889	0.03101
3542.29312	0.03169
3541.00735	0.03204
3539.72158	0.03205
3538.43581	0.03198
3537.15004	0.03203
3535.86427	0.03226
3534.57850	0.03260
3533.29274	0.03296
3532.00697	0.03318
3530.72120	0.03315
3529.43543	0.03286
3528.14966	0.03249
3526.86389	0.03227
3525.57812	0.03235
3524.29235	0.03267
3523.00659	0.03308
3521.72082	0.03352
3520.43505	0.03407
3519.14928	0.03475
3517.86351	0.03540
3516.57774	0.03584
3515.29197	0.03601
3514.00620	0.03596
3512.72043	0.03579
3511.43467	0.03564
3510.14890	0.03562
3508.86313	0.03566
3507.57736	0.03557
3506.29159	0.03535
3505.00582	0.03528
3503.72005	0.03554
3502.43428	0.03608
3501.14852	0.03669
3499.86275	0.03724
3498.57698	0.03765
3497.29121	0.03779
3496.00544	0.03760
3494.71967	0.03722
3493.43390	0.03698
3492.14813	0.03714
3490.86236	0.03768
3489.57660	0.03837
3488.29083	0.03897
3487.00506	0.03932
3485.71929	0.03931
3484.43352	0.03896
3483.14775	0.03845
3481.86198	0.03807
3480.57621	0.03799
3479.29045	0.03812
3478.00468	0.03824
3476.71891	0.03821
3475.43314	0.03807
3474.14737	0.03789
3472.86160	0.03776
3471.57583	0.03780
3470.29006	0.03807
3469.00429	0.03855
3467.71853	0.03904
3466.43276	0.03930
3465.14699	0.03928
3463.86122	0.03920
3462.57545	0.03931
3461.28968	0.03972
3460.00391	0.04028
3458.71814	0.04085
3457.43238	0.04138
3456.14661	0.04178
3454.86084	0.04187
3453.57507	0.04160
3452.28930	0.04123
3451.00353	0.04116
3449.71776	0.04151
3448.43199	0.04201
3447.14622	0.04227
3445.86046	0.04216
3444.57469	0.04183
3443.28892	0.04150
3442.00315	0.04130
3440.71738	0.04127
3439.43161	0.04141
3438.14584	0.04170
3436.86007	0.04201
3435.57431	0.04218
3434.28854	0.04213
3433.00277	0.04196
3431.71700	0.04193
3430.43123	0.04220
3429.14546	0.04276
3427.85969	0.04339
3426.57392	0.04381
3425.28815	0.04389
3424.00239	0.04363
3422.71662	0.04317
3421.43085	0.04275
3420.14508	0.04264
3418.85931	0.04291
3417.57354	0.04334
3416.28777	0.04359
3415.00200	0.04354
3413.71624	0.04335
3412.43047	0.04324
3411.14470	0.04330
3409.85893	0.04349
3408.57316	0.04378
3407.28739	0.04411
3406.00162	0.04440
3404.71585	0.04455
3403.43008	0.04459
3402.14432	0.04462
3400.85855	0.04476
3399.57278	0.04502
3398.28701	0.04535
3397.00124	0.04566
3395.71547	0.04590
3394.42970	0.04616
3393.14393	0.04651
3391.85817	0.04683
3390.57240	0.04687
3389.28663	0.04658
3388.00086	0.04617
3386.71509	0.04594
3385.42932	0.04601
3384.14355	0.04634
3382.85778	0.04682
3381.57201	0.04726
3380.28625	0.04743
3379.00048	0.04717
3377.71471	0.04658
3376.42894	0.04598
3375.14317	0.04563
3373.85740	0.04555
3372.57163	0.04560
3371.28586	0.04568
3370.00010	0.04587
3368.71433	0.04625
3367.42856	0.04666
3366.14279	0.04677
3364.85702	0.04650
3363.57125	0.04612
3362.28548	0.04607
3360.99971	0.04646
3359.71394	0.04709
3358.42818	0.04769
3357.14241	0.04803
3355.85664	0.04804
3354.57087	0.04777
3353.28510	0.04740
3351.99933	0.04725
3350.71356	0.04751
3349.42779	0.04807
3348.14202	0.04859
3346.85626	0.04876
3345.57049	0.04852
3344.28472	0.04804
3342.99895	0.04753
3341.71318	0.04718
3340.42741	0.04709
3339.14164	0.04717
3337.85587	0.04717
3336.57011	0.04686
3335.28434	0.04631
3333.99857	0.04587
3332.71280	0.04593
3331.42703	0.04660
3330.14126	0.04768
3328.85549	0.04866
3327.56972	0.04911
3326.28395	0.04892
3324.99819	0.04836
3323.71242	0.04778
3322.42665	0.04740
3321.14088	0.04724
3319.85511	0.04719
3318.56934	0.04715
3317.28357	0.04712
3315.99780	0.04726
3314.71204	0.04769
3313.42627	0.04828
3312.14050	0.04872
3310.85473	0.04882
3309.56896	0.04860
3308.28319	0.04818
3306.99742	0.04769
3305.71165	0.04723
3304.42588	0.04694
3303.14012	0.04682
3301.85435	0.04673
3300.56858	0.04656
3299.28281	0.04638
3297.99704	0.04638
3296.71127	0.04659
3295.42550	0.04691
3294.13973	0.04717
3292.85397	0.04735
3291.56820	0.04757
3290.28243	0.04785
3288.99666	0.04805
3287.71089	0.04792
3286.42512	0.04741
3285.13935	0.04675
3283.85358	0.04623
3282.56781	0.04602
3281.28205	0.04612
3279.99628	0.04650
3278.71051	0.04702
3277.42474	0.04748
3276.13897	0.04767
3274.85320	0.04752
3273.56743	0.04719
3272.28166	0.04686
3270.99590	0.04665
3269.71013	0.04658
3268.42436	0.04656
3267.13859	0.04658
3265.85282	0.04668
3264.56705	0.04697
3263.28128	0.04743
3261.99551	0.04788
3260.70974	0.04811
3259.42398	0.04801
3258.13821	0.04770
3256.85244	0.04731
3255.56667	0.04691
3254.28090	0.04653
3252.99513	0.04633
3251.70936	0.04644
3250.42359	0.04681
3249.13783	0.04722
3247.85206	0.04748
3246.56629	0.04762
3245.28052	0.04771
3243.99475	0.04777
3242.70898	0.04779
3241.42321	0.04771
3240.13744	0.04751
3238.85167	0.04719
3237.56591	0.04686
3236.28014	0.04665
3234.99437	0.04657
3233.70860	0.04654
3232.42283	0.04648
3231.13706	0.04640
3229.85129	0.04631
3228.56552	0.04620
3227.27976	0.04604
3225.99399	0.04582
3224.70822	0.04554
3223.42245	0.04529
3222.13668	0.04516
3220.85091	0.04524
3219.56514	0.04546
3218.27937	0.04562
3216.99360	0.04558
3215.70784	0.04538
3214.42207	0.04520
3213.13630	0.04520
3211.85053	0.04537
3210.56476	0.04560
3209.27899	0.04581
3207.99322	0.04600
3206.70745	0.04626
3205.42169	0.04661
3204.13592	0.04697
3202.85015	0.04721
3201.56438	0.04721
3200.27861	0.04690
3198.99284	0.04633
3197.70707	0.04567
3196.42130	0.04517
3195.13553	0.04494
3193.84977	0.04487
3192.56400	0.04473
3191.27823	0.04454
3189.99246	0.04452
3188.70669	0.04485
3187.42092	0.04534
3186.13515	0.04566
3184.84938	0.04565
3183.56362	0.04549
3182.27785	0.04537
3180.99208	0.04526
3179.70631	0.04502
3178.42054	0.04460
3177.13477	0.04414
3175.84900	0.04380
3174.56323	0.04370
3173.27746	0.04378
3171.99170	0.04397
3170.70593	0.04416
3169.42016	0.04427
3168.13439	0.04420
3166.84862	0.04392
3165.56285	0.04347
3164.27708	0.04302
3162.99131	0.04274
3161.70555	0.04276
3160.41978	0.04303
3159.13401	0.04332
3157.84824	0.04339
3156.56247	0.04327
3155.27670	0.04311
3153.99093	0.04310
3152.70516	0.04322
3151.41939	0.04341
3150.13363	0.04358
3148.84786	0.04367
3147.56209	0.04364
3146.27632	0.04353
3144.99055	0.04340
3143.70478	0.04331
3142.41901	0.04321
3141.13324	0.04305
3139.84748	0.04287
3138.56171	0.04274
3137.27594	0.04274
3135.99017	0.04281
3134.70440	0.04276
3133.41863	0.04251
3132.13286	0.04214
3130.84709	0.04186
3129.56132	0.04186
3128.27556	0.04209
3126.98979	0.04235
3125.70402	0.04244
3124.41825	0.04232
3123.13248	0.04209
3121.84671	0.04186
3120.56094	0.04174
3119.27517	0.04181
3117.98940	0.04213
3116.70364	0.04262
3115.41787	0.04303
3114.13210	0.04311
3112.84633	0.04286
3111.56056	0.04254
3110.27479	0.04238
3108.98902	0.04232
3107.70325	0.04219
3106.41749	0.04197
3105.13172	0.04181
3103.84595	0.04184
3102.56018	0.04194
3101.27441	0.04188
3099.98864	0.04157
3098.70287	0.04118
3097.41710	0.04096
3096.13133	0.04101
3094.84557	0.04123
3093.55980	0.04142
3092.27403	0.04144
3090.98826	0.04132
3089.70249	0.04113
3088.41672	0.04100
3087.13095	0.04092
3085.84518	0.04078
3084.55942	0.04053
3083.27365	0.04030
3081.98788	0.04031
3080.70211	0.04057
3079.41634	0.04089
3078.13057	0.04100
3076.84480	0.04084
3075.55903	0.04058
3074.27326	0.04047
3072.98750	0.04056
3071.70173	0.04070
3070.41596	0.04071
3069.13019	0.04057
3067.84442	0.04036
3066.55865	0.04019
3065.27288	0.04016
3063.98711	0.04026
3062.70135	0.04036
3061.41558	0.04033
3060.12981	0.04018
3058.84404	0.04005
3057.55827	0.03999
3056.27250	0.03994
3054.98673	0.03983
3053.70096	0.03968
3052.41519	0.03959
3051.12943	0.03962
3049.84366	0.03969
3048.55789	0.03976
3047.27212	0.03980
3045.98635	0.03984
3044.70058	0.03981
3043.41481	0.03958
3042.12904	0.03914
3040.84328	0.03869
3039.55751	0.03850
3038.27174	0.03866
3036.98597	0.03899
3035.70020	0.03924
3034.41443	0.03930
3033.12866	0.03918
3031.84289	0.03899
3030.55712	0.03879
3029.27136	0.03856
3027.98559	0.03827
3026.69982	0.03797
3025.41405	0.03776
3024.12828	0.03769
3022.84251	0.03774
3021.55674	0.03783
3020.27097	0.03792
3018.98521	0.03801
3017.69944	0.03808
3016.41367	0.03811
3015.12790	0.03809
3013.84213	0.03802
3012.55636	0.03791
3011.27059	0.03775
3009.98482	0.03758
3008.69905	0.03749
3007.41329	0.03761
3006.12752	0.03791
3004.84175	0.03827
3003.55598	0.03849
3002.27021	0.03845
3000.98444	0.03810
2999.69867	0.03752
2998.41290	0.03700
2997.12714	0.03683
2995.84137	0.03700
2994.55560	0.03716
2993.26983	0.03698
2991.98406	0.03657
2990.69829	0.03631
2989.41252	0.03642
2988.12675	0.03669
2986.84098	0.03680
2985.55522	0.03670
2984.26945	0.03660
2982.98368	0.03672
2981.69791	0.03708
2980.41214	0.03759
2979.12637	0.03808
2977.84060	0.03842
2976.55483	0.03861
2975.26907	0.03872
2973.98330	0.03889
2972.69753	0.03922
2971.41176	0.03961
2970.12599	0.03988
2968.84022	0.03992
2967.55445	0.03979
2966.26868	0.03972
2964.98291	0.03990
2963.69715	0.04039
2962.41138	0.04104
2961.12561	0.04169
2959.83984	0.04221
2958.55407	0.04263
2957.26830	0.04303
2955.98253	0.04347
2954.69676	0.04394
2953.41100	0.04438
2952.12523	0.04473
2950.83946	0.04494
2949.55369	0.04495
2948.26792	0.04478
2946.98215	0.04452
2945.69638	0.04428
2944.41061	0.04403
2943.12484	0.04380
2941.83908	0.04362
2940.55331	0.04358
2939.26754	0.04368
2937.98177	0.04388
2936.69600	0.04413
2935.41023	0.04447
2934.12446	0.04495
2932.83869	0.04555
2931.55293	0.04614
2930.26716	0.04658
2928.98139	0.04682
2927.69562	0.04698
2926.40985	0.04712
2925.12408	0.04720
2923.83831	0.04706
2922.55254	0.04664
2921.26677	0.04600
2919.98101	0.04535
2918.69524	0.04494
2917.40947	0.04483
2916.12370	0.04487
2914.83793	0.04484
2913.55216	0.04471
2912.26639	0.04458
2910.98062	0.04457
2909.69486	0.04463
2908.40909	0.04463
2907.12332	0.04444
2905.83755	0.04400
2904.55178	0.04339
2903.26601	0.04281
2901.98024	0.04242
2900.69447	0.04224
2899.40870	0.04208
2898.12294	0.04179
2896.83717	0.04138
2895.55140	0.04101
2894.26563	0.04070
2892.97986	0.04036
2891.69409	0.03993
2890.40832	0.03954
2889.12255	0.03936
2887.83678	0.03945
2886.55102	0.03970
2885.26525	0.03990
2883.97948	0.03991
2882.69371	0.03971
2881.40794	0.03941
2880.12217	0.03917
2878.83640	0.03910
2877.55063	0.03918
2876.26487	0.03934
2874.97910	0.03946
2873.69333	0.03954
2872.40756	0.03964
2871.12179	0.03983
2869.83602	0.04012
2868.55025	0.04039
2867.26448	0.04049
2865.97871	0.04032
2864.69295	0.03994
2863.40718	0.03950
2862.12141	0.03911
2860.83564	0.03879
2859.54987	0.03857
2858.26410	0.03850
2856.97833	0.03856
2855.69256	0.03866
2854.40680	0.03866
2853.12103	0.03845
2851.83526	0.03806
2850.54949	0.03758
2849.26372	0.03718
2847.97795	0.03696
2846.69218	0.03690
2845.40641	0.03689
2844.12064	0.03681
2842.83488	0.03668
2841.54911	0.03653
2840.26334	0.03629
2838.97757	0.03588
2837.69180	0.03529
2836.40603	0.03468
2835.12026	0.03418
2833.83449	0.03380
2832.54873	0.03343
2831.26296	0.03311
2829.97719	0.03292
2828.69142	0.03290
2827.40565	0.03293
2826.11988	0.03290
2824.83411	0.03278
2823.54834	0.03259
2822.26257	0.03231
2820.97681	0.03194
2819.69104	0.03157
2818.40527	0.03132
2817.11950	0.03121
2815.83373	0.03113
2814.54796	0.03105
2813.26219	0.03102
2811.97642	0.03106
2810.69066	0.03110
2809.40489	0.03112
2808.11912	0.03107
2806.83335	0.03088
2805.54758	0.03057
2804.26181	0.03030
2802.97604	0.03022
2801.69027	0.03030
2800.40450	0.03035
2799.11874	0.03022
2797.83297	0.02997
2796.54720	0.02982
2795.26143	0.02989
2793.97566	0.03012
2792.68989	0.03035
2791.40412	0.03046
2790.11835	0.03044
2788.83259	0.03032
2787.54682	0.03014
2786.26105	0.02997
2784.97528	0.02985
2783.68951	0.02976
2782.40374	0.02967
2781.11797	0.02951
2779.83220	0.02928
2778.54643	0.02901
2777.26067	0.02877
2775.97490	0.02859
2774.68913	0.02851
2773.40336	0.02855
2772.11759	0.02867
2770.83182	0.02877
2769.54605	0.02878
2768.26028	0.02871
2766.97452	0.02861
2765.68875	0.02852
2764.40298	0.02847
2763.11721	0.02851
2761.83144	0.02859
2760.54567	0.02862
2759.25990	0.02855
2757.97413	0.02847
2756.68836	0.02846
2755.40260	0.02852
2754.11683	0.02857
2752.83106	0.02853
2751.54529	0.02837
2750.25952	0.02814
2748.97375	0.02798
2747.68798	0.02794
2746.40221	0.02798
2745.11645	0.02803
2743.83068	0.02805
2742.54491	0.02803
2741.25914	0.02798
2739.97337	0.02788
2738.68760	0.02777
2737.40183	0.02767
2736.11606	0.02765
2734.83029	0.02771
2733.54453	0.02779
2732.25876	0.02783
2730.97299	0.02782
2729.68722	0.02782
2728.40145	0.02780
2727.11568	0.02771
2725.82991	0.02755
2724.54414	0.02741
2723.25838	0.02735
2721.97261	0.02729
2720.68684	0.02711
2719.40107	0.02681
2718.11530	0.02652
2716.82953	0.02636
2715.54376	0.02635
2714.25799	0.02640
2712.97222	0.02642
2711.68646	0.02639
2710.40069	0.02632
2709.11492	0.02627
2707.82915	0.02629
2706.54338	0.02637
2705.25761	0.02645
2703.97184	0.02651
2702.68607	0.02656
2701.40031	0.02659
2700.11454	0.02659
2698.82877	0.02657
2697.54300	0.02656
2696.25723	0.02660
2694.97146	0.02662
2693.68569	0.02651
2692.39992	0.02625
2691.11415	0.02593
2689.82839	0.02566
2688.54262	0.02554
2687.25685	0.02554
2685.97108	0.02561
2684.68531	0.02568
2683.39954	0.02573
2682.11377	0.02576
2680.82800	0.02577
2679.54224	0.02574
2678.25647	0.02561
2676.97070	0.02540
2675.68493	0.02520
2674.39916	0.02512
2673.11339	0.02519
2671.82762	0.02531
2670.54185	0.02536
2669.25608	0.02530
2667.97032	0.02520
2666.68455	0.02518
2665.39878	0.02526
2664.11301	0.02541
2662.82724	0.02554
2661.54147	0.02558
2660.25570	0.02550
2658.96993	0.02532
2657.68417	0.02512
2656.39840	0.02496
2655.11263	0.02486
2653.82686	0.02478
2652.54109	0.02469
2651.25532	0.02459
2649.96955	0.02453
2648.68378	0.02455
2647.39801	0.02463
2646.11225	0.02470
2644.82648	0.02466
2643.54071	0.02449
2642.25494	0.02428
2640.96917	0.02418
2639.68340	0.02425
2638.39763	0.02436
2637.11186	0.02432
2635.82609	0.02405
2634.54033	0.02364
2633.25456	0.02328
2631.96879	0.02303
2630.68302	0.02288
2629.39725	0.02275
2628.11148	0.02263
2626.82571	0.02255
2625.53994	0.02251
2624.25418	0.02249
2622.96841	0.02246
2621.68264	0.02254
2620.39687	0.02280
2619.11110	0.02313
2617.82533	0.02328
2616.53956	0.02311
2615.25379	0.02267
2613.96802	0.02211
2612.68226	0.02157
2611.39649	0.02115
2610.11072	0.02093
2608.82495	0.02091
2607.53918	0.02099
2606.25341	0.02102
2604.96764	0.02096
2603.68187	0.02088
2602.39611	0.02085
2601.11034	0.02090
2599.82457	0.02101
2598.53880	0.02106
2597.25303	0.02094
2595.96726	0.02070
2594.68149	0.02049
2593.39572	0.02040
2592.10995	0.02040
2590.82419	0.02043
2589.53842	0.02049
2588.25265	0.02057
2586.96688	0.02058
2585.68111	0.02047
2584.39534	0.02024
2583.10957	0.01995
2581.82380	0.01964
2580.53804	0.01939
2579.25227	0.01927
2577.96650	0.01940
2576.68073	0.01976
2575.39496	0.02015
2574.10919	0.02025
2572.82342	0.01996
2571.53765	0.01946
2570.25188	0.01906
2568.96612	0.01888
2567.68035	0.01882
2566.39458	0.01877
2565.10881	0.01864
2563.82304	0.01845
2562.53727	0.01834
2561.25150	0.01838
2559.96573	0.01851
2558.67997	0.01859
2557.39420	0.01860
2556.10843	0.01865
2554.82266	0.01883
2553.53689	0.01904
2552.25112	0.01904
2550.96535	0.01872
2549.67958	0.01829
2548.39381	0.01815
2547.10805	0.01847
2545.82228	0.01894
2544.53651	0.01917
2543.25074	0.01902
2541.96497	0.01874
2540.67920	0.01866
2539.39343	0.01887
2538.10766	0.01915
2536.82190	0.01920
2535.53613	0.01894
2534.25036	0.01857
2532.96459	0.01839
2531.67882	0.01841
2530.39305	0.01840
2529.10728	0.01814
2527.82151	0.01768
2526.53574	0.01736
2525.24998	0.01740
2523.96421	0.01775
2522.67844	0.01807
2521.39267	0.01803
2520.10690	0.01761
2518.82113	0.01710
2517.53536	0.01689
2516.24959	0.01713
2514.96383	0.01761
2513.67806	0.01803
2512.39229	0.01823
2511.10652	0.01819
2509.82075	0.01797
2508.53498	0.01767
2507.24921	0.01743
2505.96344	0.01739
2504.67767	0.01755
2503.39191	0.01790
2502.10614	0.01839
2500.82037	0.01881
2499.53460	0.01889
2498.24883	0.01845
2496.96306	0.01770
2495.67729	0.01706
2494.39152	0.01681
2493.10576	0.01690
2491.81999	0.01712
2490.53422	0.01734
2489.24845	0.01755
2487.96268	0.01772
2486.67691	0.01781
2485.39114	0.01787
2484.10537	0.01797
2482.81960	0.01808
2481.53384	0.01810
2480.24807	0.01793
2478.96230	0.01759
2477.67653	0.01724
2476.39076	0.01701
2475.10499	0.01688
2473.81922	0.01674
2472.53345	0.01659
2471.24769	0.01652
2469.96192	0.01650
2468.67615	0.01647
2467.39038	0.01641
2466.10461	0.01637
2464.81884	0.01635
2463.53307	0.01631
2462.24730	0.01631
2460.96153	0.01652
2459.67577	0.01705
2458.39000	0.01771
2457.10423	0.01819
2455.81846	0.01829
2454.53269	0.01807
2453.24692	0.01774
2451.96115	0.01747
2450.67538	0.01731
2449.38962	0.01728
2448.10385	0.01734
2446.81808	0.01733
2445.53231	0.01712
2444.24654	0.01679
2442.96077	0.01659
2441.67500	0.01664
2440.38923	0.01679
2439.10346	0.01686
2437.81770	0.01685
2436.53193	0.01688
2435.24616	0.01696
2433.96039	0.01698
2432.67462	0.01691
2431.38885	0.01682
2430.10308	0.01675
2428.81731	0.01669
2427.53155	0.01668
2426.24578	0.01676
2424.96001	0.01688
2423.67424	0.01691
2422.38847	0.01679
2421.10270	0.01665
2419.81693	0.01659
2418.53116	0.01659
2417.24539	0.01657
2415.95963	0.01649
2414.67386	0.01631
2413.38809	0.01607
2412.10232	0.01589
2410.81655	0.01595
2409.53078	0.01629
2408.24501	0.01678
2406.95924	0.01717
2405.67347	0.01731
2404.38771	0.01723
2403.10194	0.01702
2401.81617	0.01681
2400.53040	0.01665
2399.24463	0.01661
2397.95886	0.01670
2396.67309	0.01683
2395.38732	0.01686
2394.10156	0.01677
2392.81579	0.01666
2391.53002	0.01672
2390.24425	0.01695
2388.95848	0.01719
2387.67271	0.01727
2386.38694	0.01712
2385.10117	0.01680
2383.81540	0.01643
2382.52964	0.01613
2381.24387	0.01600
2379.95810	0.01604
2378.67233	0.01617
2377.38656	0.01631
2376.10079	0.01637
2374.81502	0.01628
2373.52925	0.01614
2372.24349	0.01604
2370.95772	0.01599
2369.67195	0.01576
2368.38618	0.01537
2367.10041	0.01497
2365.81464	0.01475
2364.52887	0.01469
2363.24310	0.01481
2361.95733	0.01516
2360.67157	0.01571
2359.38580	0.01609
2358.10003	0.01615
2356.81426	0.01607
2355.52849	0.01605
2354.24272	0.01612
2352.95695	0.01631
2351.67118	0.01674
2350.38542	0.01715
2349.09965	0.01715
2347.81388	0.01682
2346.52811	0.01681
2345.24234	0.01698
2343.95657	0.01663
2342.67080	0.01589
2341.38503	0.01590
2340.09926	0.01655
2338.81350	0.01613
2337.52773	0.01480
2336.24196	0.01492
2334.95619	0.01616
2333.67042	0.01614
2332.38465	0.01541
2331.09888	0.01627
2329.81311	0.01725
2328.52735	0.01686
2327.24158	0.01743
2325.95581	0.01849
2324.67004	0.01810
2323.38427	0.01768
2322.09850	0.01777
2320.81273	0.01715
2319.52696	0.01707
2318.24119	0.01743
2316.95543	0.01716
2315.66966	0.01702
2314.38389	0.01696
2313.09812	0.01668
2311.81235	0.01676
2310.52658	0.01682
2309.24081	0.01678
2307.95504	0.01678
2306.66928	0.01663
2305.38351	0.01660
2304.09774	0.01666
2302.81197	0.01671
2301.52620	0.01677
2300.24043	0.01668
2298.95466	0.01648
2297.66889	0.01621
2296.38312	0.01601
2295.09736	0.01599
2293.81159	0.01611
2292.52582	0.01629
2291.24005	0.01643
2289.95428	0.01655
2288.66851	0.01662
2287.38274	0.01658
2286.09697	0.01638
2284.81121	0.01607
2283.52544	0.01576
2282.23967	0.01556
2280.95390	0.01552
2279.66813	0.01555
2278.38236	0.01553
2277.09659	0.01533
2275.81082	0.01498
2274.52505	0.01462
2273.23929	0.01440
2271.95352	0.01439
2270.66775	0.01440
2269.38198	0.01423
2268.09621	0.01383
2266.81044	0.01339
2265.52467	0.01305
2264.23890	0.01284
2262.95314	0.01285
2261.66737	0.01320
2260.38160	0.01388
2259.09583	0.01468
2257.81006	0.01520
2256.52429	0.01510
2255.23852	0.01433
2253.95275	0.01325
2252.66698	0.01225
2251.38122	0.01145
2250.09545	0.01088
2248.80968	0.01070
2247.52391	0.01122
2246.23814	0.01222
2244.95237	0.01321
2243.66660	0.01380
2242.38083	0.01389
2241.09507	0.01350
2239.80930	0.01278
2238.52353	0.01199
2237.23776	0.01133
2235.95199	0.01074
2234.66622	0.01016
2233.38045	0.00980
2232.09468	0.00990
2230.80891	0.01035
2229.52315	0.01079
2228.23738	0.01097
2226.95161	0.01089
2225.66584	0.01067
2224.38007	0.01039
2223.09430	0.01010
2221.80853	0.00977
2220.52276	0.00945
2219.23700	0.00927
2217.95123	0.00932
2216.66546	0.00944
2215.37969	0.00951
2214.09392	0.00965
2212.80815	0.00990
2211.52238	0.00985
2210.23661	0.00908
2208.95084	0.00788
2207.66508	0.00715
2206.37931	0.00748
2205.09354	0.00859
2203.80777	0.00967
2202.52200	0.01000
2201.23623	0.00949
2199.95046	0.00869
2198.66469	0.00843
2197.37893	0.00905
2196.09316	0.01009
2194.80739	0.01075
2193.52162	0.01051
2192.23585	0.00946
2190.95008	0.00805
2189.66431	0.00686
2188.37854	0.00629
2187.09277	0.00638
2185.80701	0.00673
2184.52124	0.00694
2183.23547	0.00691
2181.94970	0.00684
2180.66393	0.00687
2179.37816	0.00698
2178.09239	0.00711
2176.80662	0.00727
2175.52085	0.00750
2174.23509	0.00773
2172.94932	0.00783
2171.66355	0.00766
2170.37778	0.00721
2169.09201	0.00660
2167.80624	0.00619
2166.52047	0.00642
2165.23470	0.00745
2163.94894	0.00862
2162.66317	0.00871
2161.37740	0.00691
2160.09163	0.00368
2158.80586	0.00060
2157.52009	-0.00083
2156.23432	-0.00039
2154.94855	0.00101
2153.66278	0.00231
2152.37702	0.00306
2151.09125	0.00345
2149.80548	0.00383
2148.51971	0.00442
2147.23394	0.00513
2145.94817	0.00570
2144.66240	0.00597
2143.37663	0.00617
2142.09087	0.00660
2140.80510	0.00712
2139.51933	0.00727
2138.23356	0.00695
2136.94779	0.00651
2135.66202	0.00634
2134.37625	0.00648
2133.09048	0.00677
2131.80471	0.00696
2130.51895	0.00675
2129.23318	0.00610
2127.94741	0.00545
2126.66164	0.00541
2125.37587	0.00618
2124.09010	0.00738
2122.80433	0.00851
2121.51856	0.00940
2120.23280	0.01006
2118.94703	0.01044
2117.66126	0.01043
2116.37549	0.01002
2115.08972	0.00941
2113.80395	0.00883
2112.51818	0.00844
2111.23241	0.00836
2109.94664	0.00859
2108.66088	0.00892
2107.37511	0.00900
2106.08934	0.00871
2104.80357	0.00828
2103.51780	0.00804
2102.23203	0.00802
2100.94626	0.00819
2099.66049	0.01019
2098.37473	0.01124
2097.08896	0.01116
2095.80319	0.01043
2094.51742	0.00935
2093.23165	0.00832
2091.94588	0.00770
2090.66011	0.00751
2089.37434	0.00753
2088.08857	0.00756
2086.80281	0.00758
2085.51704	0.00769
2084.23127	0.00798
2082.94550	0.00844
2081.65973	0.00900
2080.37396	0.00953
2079.08819	0.00992
2077.80242	0.01014
2076.51666	0.01021
2075.23089	0.01021
2073.94512	0.01022
2072.65935	0.01031
2071.37358	0.01049
2070.08781	0.01069
2068.80204	0.01077
2067.51627	0.01066
2066.23050	0.01037
2064.94474	0.00990
2063.65897	0.00923
2062.37320	0.00845
2061.08743	0.00772
2059.80166	0.00712
2058.51589	0.00653
2057.23012	0.00581
2055.94435	0.00503
2054.65859	0.00452
2053.37282	0.00468
2052.08705	0.00568
2050.80128	0.00720
2049.51551	0.00858
2048.22974	0.00920
2046.94397	0.00897
2045.65820	0.00819
2044.37243	0.00727
2043.08667	0.00637
2041.80090	0.00543
2040.51513	0.00442
2039.22936	0.00357
2037.94359	0.00329
2036.65782	0.00386
2035.37205	0.00510
2034.08628	0.00640
2032.80052	0.00715
2031.51475	0.00722
2030.22898	0.00691
2028.94321	0.00668
2027.65744	0.00666
2026.37167	0.00660
2025.08590	0.00609
2023.80013	0.00510
2022.51436	0.00415
2021.22860	0.00388
2019.94283	0.00447
2018.65706	0.00550
2017.37129	0.00631
2016.08552	0.00647
2014.79975	0.00610
2013.51398	0.00563
2012.22821	0.00558
2010.94245	0.00615
2009.65668	0.00723
2008.37091	0.00845
2007.08514	0.00934
2005.79937	0.00955
2004.51360	0.00917
2003.22783	0.00863
2001.94206	0.00822
2000.65629	0.00782
1999.37053	0.00716
1998.08476	0.00633
1996.79899	0.00575
1995.51322	0.00576
1994.22745	0.00626
1992.94168	0.00672
1991.65591	0.00669
1990.37014	0.00608
1989.08438	0.00527
1987.79861	0.00488
1986.51284	0.00536
1985.22707	0.00665
1983.94130	0.00831
1982.65553	0.01004
1981.36976	0.01177
1980.08399	0.01340
1978.79822	0.01442
1977.51246	0.01430
1976.22669	0.01311
1974.94092	0.01153
1973.65515	0.01038
1972.36938	0.01014
1971.08361	0.01065
1969.79784	0.01125
1968.51207	0.01124
1967.22631	0.01039
1965.94054	0.00917
1964.65477	0.00828
1963.36900	0.00815
1962.08323	0.00860
1960.79746	0.00912
1959.51169	0.00929
1958.22592	0.00903
1956.94015	0.00862
1955.65439	0.00849
1954.36862	0.00886
1953.08285	0.00951
1951.79708	0.00993
1950.51131	0.00980
1949.22554	0.00922
1947.93977	0.00863
1946.65400	0.00840
1945.36823	0.00874
1944.08247	0.00953
1942.79670	0.01041
1941.51093	0.01087
1940.22516	0.01067
1938.93939	0.00993
1937.65362	0.00908
1936.36785	0.00860
1935.08208	0.00871
1933.79632	0.00931
1932.51055	0.01002
1931.22478	0.01052
1929.93901	0.01064
1928.65324	0.01041
1927.36747	0.00996
1926.08170	0.00950
1924.79593	0.00923
1923.51016	0.00917
1922.22440	0.00922
1920.93863	0.00931
1919.65286	0.00949
1918.36709	0.00977
1917.08132	0.01003
1915.79555	0.01011
1914.50978	0.01003
1913.22401	0.00993
1911.93825	0.00996
1910.65248	0.01009
1909.36671	0.01022
1908.08094	0.01026
1906.79517	0.01020
1905.50940	0.01008
1904.22363	0.00996
1902.93786	0.00992
1901.65209	0.01001
1900.36633	0.01019
1899.08056	0.01036
1897.79479	0.01048
1896.50902	0.01058
1895.22325	0.01068
1893.93748	0.01073
1892.65171	0.01067
1891.36594	0.01052
1890.08018	0.01037
1888.79441	0.01030
1887.50864	0.01034
1886.22287	0.01041
1884.93710	0.01047
1883.65133	0.01052
1882.36556	0.01067
1881.07979	0.01093
1879.79402	0.01121
1878.50826	0.01137
1877.22249	0.01135
1875.93672	0.01118
1874.65095	0.01090
1873.36518	0.01053
1872.07941	0.01022
1870.79364	0.01006
1869.50787	0.01008
1868.22211	0.01016
1866.93634	0.01022
1865.65057	0.01025
1864.36480	0.01026
1863.07903	0.01024
1861.79326	0.01020
1860.50749	0.01014
1859.22172	0.01012
1857.93595	0.01014
1856.65019	0.01020
1855.36442	0.01030
1854.07865	0.01043
1852.79288	0.01058
1851.50711	0.01068
1850.22134	0.01068
1848.93557	0.01057
1847.64980	0.01046
1846.36404	0.01051
1845.07827	0.01071
1843.79250	0.01086
1842.50673	0.01083
1841.22096	0.01068
1839.93519	0.01057
1838.64942	0.01049
1837.36365	0.01039
1836.07788	0.01024
1834.79212	0.01008
1833.50635	0.01003
1832.22058	0.01015
1830.93481	0.01034
1829.64904	0.01045
1828.36327	0.01048
1827.07750	0.01059
1825.79173	0.01088
1824.50597	0.01129
1823.22020	0.01169
1821.93443	0.01195
1820.64866	0.01202
1819.36289	0.01183
1818.07712	0.01142
1816.79135	0.01093
1815.50558	0.01054
1814.21981	0.01036
1812.93405	0.01034
1811.64828	0.01036
1810.36251	0.01035
1809.07674	0.01032
1807.79097	0.01034
1806.50520	0.01041
1805.21943	0.01046
1803.93366	0.01044
1802.64790	0.01038
1801.36213	0.01035
1800.07636	0.01041
1798.79059	0.01059
1797.50482	0.01083
1796.21905	0.01103
1794.93328	0.01119
1793.64751	0.01133
1792.36174	0.01146
1791.07598	0.01152
1789.79021	0.01150
1788.50444	0.01143
1787.21867	0.01137
1785.93290	0.01135
1784.64713	0.01135
1783.36136	0.01138
1782.07559	0.01143
1780.78983	0.01147
1779.50406	0.01145
1778.21829	0.01138
1776.93252	0.01130
1775.64675	0.01130
1774.36098	0.01139
1773.07521	0.01152
1771.78944	0.01156
1770.50367	0.01153
1769.21791	0.01148
1767.93214	0.01142
1766.64637	0.01133
1765.36060	0.01129
1764.07483	0.01143
1762.78906	0.01167
1761.50329	0.01187
1760.21752	0.01195
1758.93176	0.01199
1757.64599	0.01201
1756.36022	0.01193
1755.07445	0.01176
1753.78868	0.01163
1752.50291	0.01166
1751.21714	0.01177
1749.93137	0.01188
1748.64560	0.01198
1747.35984	0.01210
1746.07407	0.01221
1744.78830	0.01231
1743.50253	0.01240
1742.21676	0.01250
1740.93099	0.01262
1739.64522	0.01265
1738.35945	0.01255
1737.07369	0.01248
1735.78792	0.01258
1734.50215	0.01271
1733.21638	0.01270
1731.93061	0.01259
1730.64484	0.01259
1729.35907	0.01270
1728.07330	0.01279
1726.78753	0.01283
1725.50177	0.01292
1724.21600	0.01308
1722.93023	0.01327
1721.64446	0.01345
1720.35869	0.01370
1719.07292	0.01406
1717.78715	0.01439
1716.50138	0.01453
1715.21561	0.01454
1713.92985	0.01454
1712.64408	0.01463
1711.35831	0.01480
1710.07254	0.01503
1708.78677	0.01530
1707.50100	0.01559
1706.21523	0.01585
1704.92946	0.01607
1703.64370	0.01632
1702.35793	0.01674
1701.07216	0.01718
1699.78639	0.01739
1698.50062	0.01745
1697.21485	0.01763
1695.92908	0.01785
1694.64331	0.01786
1693.35754	0.01776
1692.07178	0.01783
1690.78601	0.01808
1689.50024	0.01833
1688.21447	0.01859
1686.92870	0.01900
1685.64293	0.01953
1684.35716	0.01986
1683.07139	0.01986
1681.78563	0.01978
1680.49986	0.01987
1679.21409	0.02013
1677.92832	0.02048
1676.64255	0.02088
1675.35678	0.02120
1674.07101	0.02140
1672.78524	0.02159
1671.49947	0.02188
1670.21371	0.02219
1668.92794	0.02236
1667.64217	0.02243
1666.35640	0.02256
1665.07063	0.02286
1663.78486	0.02324
1662.49909	0.02352
1661.21332	0.02365
1659.92756	0.02368
1658.64179	0.02365
1657.35602	0.02365
1656.07025	0.02387
1654.78448	0.02443
1653.49871	0.02500
1652.21294	0.02513
1650.92717	0.02487
1649.64140	0.02470
1648.35564	0.02487
1647.06987	0.02519
1645.78410	0.02536
1644.49833	0.02536
1643.21256	0.02531
1641.92679	0.02530
1640.64102	0.02531
1639.35525	0.02536
1638.06949	0.02555
1636.78372	0.02586
1635.49795	0.02608
1634.21218	0.02607
1632.92641	0.02595
1631.64064	0.02594
1630.35487	0.02608
1629.06910	0.02628
1627.78333	0.02643
1626.49757	0.02653
1625.21180	0.02665
1623.92603	0.02676
1622.64026	0.02680
1621.35449	0.02674
1620.06872	0.02675
1618.78295	0.02694
1617.49718	0.02720
1616.21142	0.02732
1614.92565	0.02729
1613.63988	0.02733
1612.35411	0.02754
1611.06834	0.02783
1609.78257	0.02808
1608.49680	0.02826
1607.21103	0.02837
1605.92526	0.02845
1604.63950	0.02852
1603.35373	0.02860
1602.06796	0.02873
1600.78219	0.02886
1599.49642	0.02900
1598.21065	0.02913
1596.92488	0.02928
1595.63911	0.02943
1594.35335	0.02957
1593.06758	0.02970
1591.78181	0.02983
1590.49604	0.02999
1589.21027	0.03015
1587.92450	0.03030
1586.63873	0.03043
1585.35296	0.03055
1584.06719	0.03068
1582.78143	0.03080
1581.49566	0.03087
1580.20989	0.03094
1578.92412	0.03112
1577.63835	0.03144
1576.35258	0.03173
1575.06681	0.03181
1573.78104	0.03175
1572.49528	0.03180
1571.20951	0.03200
1569.92374	0.03224
1568.63797	0.03239
1567.35220	0.03249
1566.06643	0.03259
1564.78066	0.03266
1563.49489	0.03271
1562.20912	0.03290
1560.92336	0.03330
1559.63759	0.03370
1558.35182	0.03380
1557.06605	0.03369
1555.78028	0.03366
1554.49451	0.03379
1553.20874	0.03394
1551.92297	0.03402
1550.63721	0.03410
1549.35144	0.03418
1548.06567	0.03426
1546.77990	0.03433
1545.49413	0.03434
1544.20836	0.03428
1542.92259	0.03421
1541.63682	0.03423
1540.35105	0.03429
1539.06529	0.03420
1537.77952	0.03399
1536.49375	0.03385
1535.20798	0.03394
1533.92221	0.03415
1532.63644	0.03430
1531.35067	0.03439
1530.06490	0.03453
1528.77914	0.03477
1527.49337	0.03507
1526.20760	0.03538
1524.92183	0.03570
1523.63606	0.03614
1522.35029	0.03669
1521.06452	0.03722
1519.77875	0.03767
1518.49298	0.03816
1517.20722	0.03879
1515.92145	0.03950
1514.63568	0.04021
1513.34991	0.04091
1512.06414	0.04161
1510.77837	0.04234
1509.49260	0.04321
1508.20683	0.04427
1506.92107	0.04533
1505.63530	0.04614
1504.34953	0.04670
1503.06376	0.04722
1501.77799	0.04785
1500.49222	0.04854
1499.20645	0.04923
1497.92068	0.04991
1496.63491	0.05047
1495.34915	0.05089
1494.06338	0.05125
1492.77761	0.05172
1491.49184	0.05233
1490.20607	0.05300
1488.92030	0.05364
1487.63453	0.05427
1486.34876	0.05490
1485.06299	0.05557
1483.77723	0.05629
1482.49146	0.05705
1481.20569	0.05783
1479.91992	0.05860
1478.63415	0.05934
1477.34838	0.06004
1476.06261	0.06066
1474.77684	0.06126
1473.49108	0.06184
1472.20531	0.06234
1470.91954	0.06274
1469.63377	0.06309
1468.34800	0.06347
1467.06223	0.06389
1465.77646	0.06426
1464.49069	0.06452
1463.20492	0.06469
1461.91916	0.06488
1460.63339	0.06520
1459.34762	0.06567
1458.06185	0.06623
1456.77608	0.06670
1455.49031	0.06697
1454.20454	0.06710
1452.91877	0.06720
1451.63301	0.06727
1450.34724	0.06732
1449.06147	0.06738
1447.77570	0.06742
1446.48993	0.06738
1445.20416	0.06725
1443.91839	0.06708
1442.63262	0.06689
1441.34685	0.06670
1440.06109	0.06655
1438.77532	0.06651
1437.48955	0.06656
1436.20378	0.06662
1434.91801	0.06670
1433.63224	0.06695
1432.34647	0.06742
1431.06070	0.06807
1429.77494	0.06882
1428.48917	0.06965
1427.20340	0.07055
1425.91763	0.07151
1424.63186	0.07248
1423.34609	0.07341
1422.06032	0.07436
1420.77455	0.07530
1419.48878	0.07615
1418.20302	0.07679
1416.91725	0.07728
1415.63148	0.07770
1414.34571	0.07804
1413.05994	0.07825
1411.77417	0.07831
1410.48840	0.07821
1409.20263	0.07795
1407.91687	0.07755
1406.63110	0.07702
1405.34533	0.07637
1404.05956	0.07558
1402.77379	0.07466
1401.48802	0.07364
1400.20225	0.07252
1398.91648	0.07128
1397.63071	0.06995
1396.34495	0.06861
1395.05918	0.06727
1393.77341	0.06588
1392.48764	0.06443
1391.20187	0.06297
1389.91610	0.06157
1388.63033	0.06025
1387.34456	0.05895
1386.05880	0.05762
1384.77303	0.05629
1383.48726	0.05498
1382.20149	0.05373
1380.91572	0.05249
1379.62995	0.05123
1378.34418	0.04987
1377.05841	0.04840
1375.77264	0.04688
1374.48688	0.04540
1373.20111	0.04399
1371.91534	0.04265
1370.62957	0.04137
1369.34380	0.04012
1368.05803	0.03890
1366.77226	0.03772
1365.48649	0.03660
1364.20073	0.03554
1362.91496	0.03453
1361.62919	0.03357
1360.34342	0.03265
1359.05765	0.03178
1357.77188	0.03098
1356.48611	0.03025
1355.20034	0.02956
1353.91457	0.02890
1352.62881	0.02828
1351.34304	0.02771
1350.05727	0.02718
1348.77150	0.02667
1347.48573	0.02614
1346.19996	0.02561
1344.91419	0.02509
1343.62842	0.02461
1342.34266	0.02417
1341.05689	0.02378
1339.77112	0.02344
1338.48535	0.02315
1337.19958	0.02292
1335.91381	0.02271
1334.62804	0.02251
1333.34227	0.02228
1332.05650	0.02199
1330.77074	0.02169
1329.48497	0.02140
1328.19920	0.02116
1326.91343	0.02096
1325.62766	0.02078
1324.34189	0.02061
1323.05612	0.02045
1321.77035	0.02031
1320.48459	0.02015
1319.19882	0.01996
1317.91305	0.01979
1316.62728	0.01965
1315.34151	0.01955
1314.05574	0.01945
1312.76997	0.01933
1311.48420	0.01919
1310.19843	0.01908
1308.91267	0.01901
1307.62690	0.01896
1306.34113	0.01890
1305.05536	0.01886
1303.76959	0.01884
1302.48382	0.01879
1301.19805	0.01867
1299.91228	0.01848
1298.62652	0.01826
1297.34075	0.01805
1296.05498	0.01789
1294.76921	0.01775
1293.48344	0.01763
1292.19767	0.01752
1290.91190	0.01741
1289.62613	0.01731
1288.34036	0.01723
1287.05460	0.01717
1285.76883	0.01710
1284.48306	0.01700
1283.19729	0.01689
1281.91152	0.01677
1280.62575	0.01665
1279.33998	0.01655
1278.05421	0.01646
1276.76845	0.01639
1275.48268	0.01631
1274.19691	0.01621
1272.91114	0.01612
1271.62537	0.01604
1270.33960	0.01596
1269.05383	0.01589
1267.76806	0.01582
1266.48229	0.01575
1265.19653	0.01568
1263.91076	0.01561
1262.62499	0.01552
1261.33922	0.01543
1260.05345	0.01534
1258.76768	0.01524
1257.48191	0.01514
1256.19614	0.01506
1254.91037	0.01501
1253.62461	0.01499
1252.33884	0.01495
1251.05307	0.01490
1249.76730	0.01483
1248.48153	0.01475
1247.19576	0.01468
1245.90999	0.01459
1244.62422	0.01449
1243.33846	0.01435
1242.05269	0.01421
1240.76692	0.01410
1239.48115	0.01405
1238.19538	0.01406
1236.90961	0.01408
1235.62384	0.01405
1234.33807	0.01396
1233.05230	0.01386
1231.76654	0.01378
1230.48077	0.01371
1229.19500	0.01366
1227.90923	0.01363
1226.62346	0.01362
1225.33769	0.01361
1224.05192	0.01356
1222.76615	0.01346
1221.48039	0.01334
1220.19462	0.01323
1218.90885	0.01316
1217.62308	0.01310
1216.33731	0.01304
1215.05154	0.01296
1213.76577	0.01288
1212.48000	0.01281
1211.19423	0.01275
1209.90847	0.01275
1208.62270	0.01280
1207.33693	0.01292
1206.05116	0.01303
1204.76539	0.01310
1203.47962	0.01312
1202.19385	0.01311
1200.90808	0.01301
1199.62232	0.01277
1198.33655	0.01276
1197.05078	0.01272
1195.76501	0.01268
1194.47924	0.01265
1193.19347	0.01265
1191.90770	0.01266
1190.62193	0.01267
1189.33616	0.01266
1188.05040	0.01263
1186.76463	0.01258
1185.47886	0.01256
1184.19309	0.01259
1182.90732	0.01264
1181.62155	0.01270
1180.33578	0.01273
1179.05001	0.01275
1177.76425	0.01276
1176.47848	0.01278
1175.19271	0.01281
1173.90694	0.01285
1172.62117	0.01291
1171.33540	0.01297
1170.04963	0.01303
1168.76386	0.01313
1167.47809	0.01329
1166.19233	0.01351
1164.90656	0.01375
1163.62079	0.01399
1162.33502	0.01419
1161.04925	0.01436
1159.76348	0.01452
1158.47771	0.01474
1157.19194	0.01502
1155.90618	0.01532
1154.62041	0.01563
1153.33464	0.01596
1152.04887	0.01631
1150.76310	0.01665
1149.47733	0.01696
1148.19156	0.01729
1146.90579	0.01770
1145.62002	0.01825
1144.33426	0.01890
1143.04849	0.01957
1141.76272	0.02021
1140.47695	0.02085
1139.19118	0.02155
1137.90541	0.02235
1136.61964	0.02331
1135.33387	0.02442
1134.04811	0.02568
1132.76234	0.02703
1131.47657	0.02845
1130.19080	0.02998
1128.90503	0.03169
1127.61926	0.03357
1126.33349	0.03558
1125.04772	0.03764
1123.76195	0.03975
1122.47619	0.04193
1121.19042	0.04422
1119.90465	0.04660
1118.61888	0.04900
1117.33311	0.05137
1116.04734	0.05374
1114.76157	0.05611
1113.47580	0.05847
1112.19004	0.06081
1110.90427	0.06314
1109.61850	0.06542
1108.33273	0.06765
1107.04696	0.06981
1105.76119	0.07189
1104.47542	0.07391
1103.18965	0.07587
1101.90388	0.07776
1100.61812	0.07956
1099.33235	0.08122
1098.04658	0.08275
1096.76081	0.08421
1095.47504	0.08564
1094.18927	0.08707
1092.90350	0.08849
1091.61773	0.08987
1090.33197	0.09120
1089.04620	0.09245
1087.76043	0.09364
1086.47466	0.09478
1085.18889	0.09588
1083.90312	0.09703
1082.61735	0.09829
1081.33158	0.09971
1080.04581	0.10128
1078.76005	0.10295
1077.47428	0.10467
1076.18851	0.10644
1074.90274	0.10827
1073.61697	0.11014
1072.33120	0.11203
1071.04543	0.11390
1069.75966	0.11579
1068.47390	0.11774
1067.18813	0.11979
1065.90236	0.12191
1064.61659	0.12407
1063.33082	0.12622
1062.04505	0.12831
1060.75928	0.13032
1059.47351	0.13225
1058.18774	0.13412
1056.90198	0.13596
1055.61621	0.13779
1054.33044	0.13964
1053.04467	0.14154
1051.75890	0.14350
1050.47313	0.14550
1049.18736	0.14752
1047.90159	0.14956
1046.61583	0.15165
1045.33006	0.15380
1044.04429	0.15602
1042.75852	0.15829
1041.47275	0.16057
1040.18698	0.16282
1038.90121	0.16503
1037.61544	0.16723
1036.32967	0.16945
1035.04391	0.17167
1033.75814	0.17380
1032.47237	0.17572
1031.18660	0.17736
1029.90083	0.17871
1028.61506	0.17985
1027.32929	0.18086
1026.04352	0.18177
1024.75775	0.18250
1023.47199	0.18294
1022.18622	0.18304
1020.90045	0.18279
1019.61468	0.18228
1018.32891	0.18157
1017.04314	0.18065
1015.75737	0.17946
1014.47160	0.17800
1013.18584	0.17626
1011.90007	0.17428
1010.61430	0.17205
1009.32853	0.16955
1008.04276	0.16680
1006.75699	0.16388
1005.47122	0.16085
1004.18545	0.15770
1002.89968	0.15434
1001.61392	0.15065
1000.32815	0.14663
999.04238	0.14240
997.75661	0.13807
996.47084	0.13372
995.18507	0.12936
993.89930	0.12499
992.61353	0.12062
991.32777	0.11630
990.04200	0.11210
988.75623	0.10807
987.47046	0.10416
986.18469	0.10034
984.89892	0.09663
983.61315	0.09309
982.32738	0.08980
981.04161	0.08676
979.75585	0.08389
978.47008	0.08116
977.18431	0.07861
975.89854	0.07632
974.61277	0.07434
973.32700	0.07273
972.04123	0.07151
970.75546	0.07072
969.46970	0.07033
968.18393	0.07031
966.89816	0.07061
965.61239	0.07112
964.32662	0.07170
963.04085	0.07221
961.75508	0.07251
960.46931	0.07252
959.18354	0.07218
957.89778	0.07146
956.61201	0.07036
955.32624	0.06894
954.04047	0.06729
952.75470	0.06550
951.46893	0.06362
950.18316	0.06173
948.89739	0.05991
947.61163	0.05817
946.32586	0.05653
945.04009	0.05499
943.75432	0.05354
942.46855	0.05216
941.18278	0.05082
939.89701	0.04953
938.61124	0.04829
937.32547	0.04714
936.03971	0.04608
934.75394	0.04511
933.46817	0.04419
932.18240	0.04330
930.89663	0.04246
929.61086	0.04166
928.32509	0.04093
927.03932	0.04026
925.75356	0.03964
924.46779	0.03907
923.18202	0.03853
921.89625	0.03804
920.61048	0.03761
919.32471	0.03721
918.03894	0.03679
916.75317	0.03630
915.46740	0.03576
914.18164	0.03527
912.89587	0.03492
911.61010	0.03468
910.32433	0.03450
909.03856	0.03429
907.75279	0.03401
906.46702	0.03366
905.18125	0.03331
903.89549	0.03304
902.60972	0.03292
901.32395	0.03289
900.03818	0.03282
898.75241	0.03265
897.46664	0.03237
896.18087	0.03207
894.89510	0.03183
893.60933	0.03175
892.32357	0.03181
891.03780	0.03196
889.75203	0.03216
888.46626	0.03246
887.18049	0.03297
885.89472	0.03383
884.60895	0.03519
883.32318	0.03711
882.03742	0.03947
880.75165	0.04188
879.46588	0.04388
878.18011	0.04524
876.89434	0.04612
875.60857	0.04688
874.32280	0.04772
873.03703	0.04851
871.75126	0.04896
870.46550	0.04884
869.17973	0.04814
867.89396	0.04697
866.60819	0.04545
865.32242	0.04371
864.03665	0.04191
862.75088	0.04020
861.46511	0.03872
860.17935	0.03750
858.89358	0.03647
857.60781	0.03552
856.32204	0.03461
855.03627	0.03375
853.75050	0.03301
852.46473	0.03244
851.17896	0.03206
849.89319	0.03182
848.60743	0.03160
847.32166	0.03130
846.03589	0.03087
844.75012	0.03041
843.46435	0.03007
842.17858	0.02987
840.89281	0.02978
839.60704	0.02969
838.32128	0.02958
837.03551	0.02943
835.74974	0.02923
834.46397	0.02902
833.17820	0.02887
831.89243	0.02880
830.60666	0.02875
829.32089	0.02864
828.03512	0.02851
826.74936	0.02840
825.46359	0.02834
824.17782	0.02830
822.89205	0.02823
821.60628	0.02815
820.32051	0.02804
819.03474	0.02790
817.74897	0.02776
816.46321	0.02768
815.17744	0.02772
813.89167	0.02784
812.60590	0.02799
811.32013	0.02806
810.03436	0.02799
808.74859	0.02780
807.46282	0.02753
806.17705	0.02731
804.89129	0.02721
803.60552	0.02722
802.31975	0.02727
801.03398	0.02729
799.74821	0.02724
798.46244	0.02717
797.17667	0.02710
795.89090	0.02706
794.60513	0.02704
793.31937	0.02701
792.03360	0.02695
790.74783	0.02691
789.46206	0.02687
788.17629	0.02682
786.89052	0.02673
785.60475	0.02660
784.31898	0.02647
783.03322	0.02632
781.74745	0.02618
780.46168	0.02614
779.17591	0.02628
777.89014	0.02655
776.60437	0.02681
775.31860	0.02694
774.03283	0.02693
772.74706	0.02685
771.46130	0.02675
770.17553	0.02664
768.88976	0.02653
767.60399	0.02643
766.31822	0.02638
765.03245	0.02639
763.74668	0.02646
762.46091	0.02658
761.17515	0.02671
759.88938	0.02682
758.60361	0.02687
757.31784	0.02682
756.03207	0.02669
754.74630	0.02654
753.46053	0.02647
752.17476	0.02651
750.88899	0.02660
749.60323	0.02663
748.31746	0.02656
747.03169	0.02645
745.74592	0.02639
744.46015	0.02641
743.17438	0.02643
741.88861	0.02639
740.60284	0.02625
739.31708	0.02605
738.03131	0.02588
736.74554	0.02587
735.45977	0.02602
734.17400	0.02622
732.88823	0.02629
731.60246	0.02615
730.31669	0.02592
729.03092	0.02578
727.74516	0.02582
726.45939	0.02596
725.17362	0.02609
723.88785	0.02618
722.60208	0.02621
721.31631	0.02617
720.03054	0.02605
718.74477	0.02587
717.45901	0.02571
716.17324	0.02566
714.88747	0.02572
713.60170	0.02585
712.31593	0.02596
711.03016	0.02597
709.74439	0.02590
708.45862	0.02579
707.17285	0.02569
705.88709	0.02562
704.60132	0.02555
703.31555	0.02549
702.02978	0.02545
700.74401	0.02546
699.45824	0.02548
698.17247	0.02551
696.88670	0.02553
695.60094	0.02552
694.31517	0.02548
693.02940	0.02540
691.74363	0.02531
690.45786	0.02525
689.17209	0.02525
687.88632	0.02526
686.60055	0.02523
685.31478	0.02512
684.02902	0.02494
682.74325	0.02474
681.45748	0.02458
680.17171	0.02448
678.88594	0.02445
677.60017	0.02447
676.31440	0.02451
675.02863	0.02456
673.74287	0.02463
672.45710	0.02474
671.17133	0.02489
669.88556	0.02505
668.59979	0.02510
667.31402	0.02503
666.02825	0.02500
664.74248	0.02488
663.45671	0.02469
662.17095	0.02449
660.88518	0.02431
659.59941	0.02415
658.31364	0.02404
657.02787	0.02397
655.74210	0.02395
654.45633	0.02397
653.17056	0.02401
651.88480	0.02403
650.59903	0.02402
649.31326	0.02401
648.02749	0.02402
646.74172	0.02405
645.45595	0.02410
644.17018	0.02411
642.88441	0.02409
641.59864	0.02410
640.31288	0.02417
639.02711	0.02432
637.74134	0.02451
636.45557	0.02476
635.16980	0.02508
633.88403	0.02545
632.59826	0.02582
631.31249	0.02640
630.02673	0.02822
628.74096	0.03081
627.45519	0.03009
626.16942	0.03305
624.88365	0.03849
623.59788	0.04372
622.31211	0.04780
621.02634	0.05043
619.74057	0.05177
618.45481	0.05240
617.16904	0.05282
615.88327	0.05317
614.59750	0.05357
613.31173	0.05451
612.02596	0.05655
610.74019	0.05975
609.45442	0.06354
608.16866	0.06739
606.88289	0.07120
605.59712	0.07486
604.31135	0.07782
603.02558	0.07936
601.73981	0.07919
600.45404	0.07771
599.16827	0.07556
597.88250	0.07314
596.59674	0.07062
595.31097	0.06817
594.02520	0.06603
592.73943	0.06441
591.45366	0.06335
590.16789	0.06279
588.88212	0.06265
587.59635	0.06290
586.31059	0.06347
585.02482	0.06428
583.73905	0.06533
582.45328	0.06667
581.16751	0.06833
579.88174	0.07021
578.59597	0.07219
577.31020	0.07414
576.02443	0.07598
574.73867	0.07766
573.45290	0.07923
572.16713	0.08082
570.88136	0.08263
569.59559	0.08481
568.30982	0.08732
567.02405	0.08990
565.73828	0.09227
564.45251	0.09418
563.16675	0.09551
561.88098	0.09615
560.59521	0.09587
559.30944	0.09448
558.02367	0.09190
556.73790	0.08838
555.45213	0.08436
554.16636	0.08022
552.88060	0.07617
551.59483	0.07229
550.30906	0.06868
549.02329	0.06546
547.73752	0.06266
546.45175	0.06015
545.16598	0.05774
543.88021	0.05538
542.59444	0.05312
541.30868	0.05106
540.02291	0.04924
538.73714	0.04762
537.45137	0.04612
536.16560	0.04469
534.87983	0.04334
533.59406	0.04210
532.30829	0.04097
531.02253	0.03993
529.73676	0.03896
528.45099	0.03806
527.16522	0.03720
525.87945	0.03641
524.59368	0.03567
523.30791	0.03496
522.02214	0.03424
520.73637	0.03347
519.45061	0.03266
518.16484	0.03189
516.87907	0.03122
515.59330	0.03064
514.30753	0.03010
513.02176	0.02954
511.73599	0.02897
510.45022	0.02845
509.16446	0.02803
507.87869	0.02768
506.59292	0.02727
505.30715	0.02674
504.02138	0.02616
502.73561	0.02570
501.44984	0.02542
500.16407	0.02528
498.87830	0.02516
497.59254	0.02498
496.30677	0.02474
495.02100	0.02446
493.73523	0.02417
492.44946	0.02391
491.16369	0.02370
489.87792	0.02353
488.59215	0.02338
487.30639	0.02324
486.02062	0.02315
484.73485	0.02310
483.44908	0.02306
482.16331	0.02302
480.87754	0.02295
479.59177	0.02291
478.30600	0.02292
477.02023	0.02302
475.73447	0.02317
474.44870	0.02336
473.16293	0.02355
471.87716	0.02372
470.59139	0.02381
469.30562	0.02378
468.01985	0.02363
466.73408	0.02340
465.44832	0.02314
464.16255	0.02287
462.87678	0.02261
461.59101	0.02237
460.30524	0.02221
459.01947	0.02210
457.73370	0.02200
456.44793	0.02187
455.16216	0.02169
453.87640	0.02151
452.59063	0.02133
451.30486	0.02115
450.01909	0.02099
448.73332	0.02086
447.44755	0.02078
446.16178	0.02072
444.87601	0.02064
443.59025	0.02050
442.30448	0.02033
441.01871	0.02015
439.73294	0.02003
438.44717	0.02000
437.16140	0.02004
435.87563	0.02012
434.58986	0.02018
433.30409	0.02020
432.01833	0.02019
430.73256	0.02020
429.44679	0.02023
428.16102	0.02024
426.87525	0.02021
425.58948	0.02017
424.30371	0.02015
423.01794	0.02016
421.73218	0.02016
420.44641	0.02010
419.16064	0.01997
417.87487	0.01981
416.58910	0.01970
415.30333	0.01968
414.01756	0.01970
412.73179	0.01967
411.44602	0.01959
410.16026	0.01953
408.87449	0.01955
407.58872	0.01966
406.30295	0.01980
405.01718	0.01991
403.73141	0.01996
402.44564	0.01998
401.15987	0.02001
399.87411	0.02007
