3997.45528	0.03858
3996.16951	0.03856
3994.88374	0.03887
3993.59798	0.03944
3992.31221	0.03983
3991.02644	0.03959
3989.74067	0.03875
3988.45490	0.03775
3987.16913	0.03704
3985.88336	0.03672
3984.59759	0.03666
3983.31183	0.03680
3982.02606	0.03719
3980.74029	0.03774
3979.45452	0.03824
3978.16875	0.03849
3976.88298	0.03855
3975.59721	0.03859
3974.31144	0.03872
3973.02567	0.03879
3971.73991	0.03857
3970.45414	0.03806
3969.16837	0.03752
3967.88260	0.03727
3966.59683	0.03741
3965.31106	0.03778
3964.02529	0.03818
3962.73952	0.03848
3961.45376	0.03855
3960.16799	0.03824
3958.88222	0.03753
3957.59645	0.03668
3956.31068	0.03604
3955.02491	0.03574
3953.73914	0.03564
3952.45337	0.03557
3951.16760	0.03563
3949.88184	0.03599
3948.59607	0.03659
3947.31030	0.03711
3946.02453	0.03717
3944.73876	0.03673
3943.45299	0.03615
3942.16722	0.03578
3940.88145	0.03568
3939.59569	0.03567
3938.30992	0.03558
3937.02415	0.03537
3935.73838	0.03510
3934.45261	0.03497
3933.16684	0.03523
3931.88107	0.03595
3930.59530	0.03689
3929.30953	0.03776
3928.02377	0.03828
3926.73800	0.03830
3925.45223	0.03784
3924.16646	0.03714
3922.88069	0.03652
3921.59492	0.03623
3920.30915	0.03627
3919.02338	0.03647
3917.73762	0.03659
3916.45185	0.03645
3915.16608	0.03600
3913.88031	0.03537
3912.59454	0.03487
3911.30877	0.03469
3910.02300	0.03470
3908.73723	0.03457
3907.45146	0.03423
3906.16570	0.03394
3904.87993	0.03395
3903.59416	0.03409
3902.30839	0.03399
3901.02262	0.03356
3899.73685	0.03308
3898.45108	0.03292
3897.16531	0.03316
3895.87955	0.03357
3894.59378	0.03392
3893.30801	0.03423
3892.02224	0.03458
3890.73647	0.03496
3889.45070	0.03522
3888.16493	0.03537
3886.87916	0.03559
3885.59339	0.03597
3884.30763	0.03631
3883.02186	0.03632
3881.73609	0.03596
3880.45032	0.03553
3879.16455	0.03538
3877.87878	0.03555
3876.59301	0.03571
3875.30724	0.03560
3874.02148	0.03533
3872.73571	0.03530
3871.44994	0.03576
3870.16417	0.03649
3868.87840	0.03690
3867.59263	0.03651
3866.30686	0.03547
3865.02109	0.03444
3863.73532	0.03407
3862.44956	0.03444
3861.16379	0.03508
3859.87802	0.03544
3858.59225	0.03535
3857.30648	0.03495
3856.02071	0.03445
3854.73494	0.03409
3853.44917	0.03406
3852.16341	0.03447
3850.87764	0.03514
3849.59187	0.03565
3848.30610	0.03573
3847.02033	0.03548
3845.73456	0.03523
3844.44879	0.03517
3843.16302	0.03528
3841.87725	0.03536
3840.59149	0.03522
3839.30572	0.03479
3838.01995	0.03426
3836.73418	0.03394
3835.44841	0.03403
3834.16264	0.03440
3832.87687	0.03483
3831.59110	0.03512
3830.30534	0.03518
3829.01957	0.03502
3827.73380	0.03482
3826.44803	0.03477
3825.16226	0.03491
3823.87649	0.03505
3822.59072	0.03500
3821.30495	0.03474
3820.01918	0.03439
3818.73342	0.03413
3817.44765	0.03408
3816.16188	0.03423
3814.87611	0.03436
3813.59034	0.03425
3812.30457	0.03398
3811.01880	0.03380
3809.73303	0.03387
3808.44726	0.03399
3807.16150	0.03389
3805.87573	0.03358
3804.58996	0.03334
3803.30419	0.03346
3802.01842	0.03389
3800.73265	0.03425
3799.44688	0.03416
3798.16111	0.03359
3796.87535	0.03284
3795.58958	0.03223
3794.30381	0.03189
3793.01804	0.03172
3791.73227	0.03167
3790.44650	0.03182
3789.16073	0.03223
3787.87496	0.03273
3786.58919	0.03305
3785.30343	0.03312
3784.01766	0.03306
3782.73189	0.03309
3781.44612	0.03325
3780.16035	0.03335
3778.87458	0.03321
3777.58881	0.03292
3776.30304	0.03279
3775.01728	0.03300
3773.73151	0.03338
3772.44574	0.03362
3771.15997	0.03350
3769.87420	0.03299
3768.58843	0.03215
3767.30266	0.03116
3766.01689	0.03034
3764.73112	0.02999
3763.44536	0.03016
3762.15959	0.03066
3760.87382	0.03120
3759.58805	0.03151
3758.30228	0.03149
3757.01651	0.03128
3755.73074	0.03111
3754.44497	0.03105
3753.15921	0.03095
3751.87344	0.03071
3750.58767	0.03051
3749.30190	0.03068
3748.01613	0.03132
3746.73036	0.03209
3745.44459	0.03261
3744.15882	0.03279
3742.87305	0.03281
3741.58729	0.03284
3740.30152	0.03285
3739.01575	0.03271
3737.72998	0.03235
3736.44421	0.03185
3735.15844	0.03151
3733.87267	0.03150
3732.58690	0.03167
3731.30114	0.03162
3730.01537	0.03104
3728.72960	0.03023
3727.44383	0.02982
3726.15806	0.03018
3724.87229	0.03107
3723.58652	0.03183
3722.30075	0.03196
3721.01498	0.03141
3719.72922	0.03057
3718.44345	0.03001
3717.15768	0.03002
3715.87191	0.03036
3714.58614	0.03042
3713.30037	0.02986
3712.01460	0.02901
3710.72883	0.02839
3709.44307	0.02816
3708.15730	0.02817
3706.87153	0.02841
3705.58576	0.02893
3704.29999	0.02956
3703.01422	0.02996
3701.72845	0.03017
3700.44268	0.03030
3699.15691	0.03038
3697.87115	0.03063
3696.58538	0.03121
3695.29961	0.03167
3694.01384	0.03161
3692.72807	0.03144
3691.44230	0.03129
3690.15653	0.03087
3688.87076	0.03029
3687.58500	0.02991
3686.29923	0.02981
3685.01346	0.03011
3683.72769	0.03071
3682.44192	0.03119
3681.15615	0.03125
3679.87038	0.03060
3678.58461	0.02926
3677.29884	0.02785
3676.01308	0.02703
3674.72731	0.02705
3673.44154	0.02761
3672.15577	0.02814
3670.87000	0.02838
3669.58423	0.02841
3668.29846	0.02840
3667.01269	0.02844
3665.72693	0.02853
3664.44116	0.02878
3663.15539	0.02920
3661.86962	0.02969
3660.58385	0.03001
3659.29808	0.03007
3658.01231	0.02996
3656.72654	0.02968
3655.44077	0.02921
3654.15501	0.02858
3652.86924	0.02801
3651.58347	0.02780
3650.29770	0.02808
3649.01193	0.02870
3647.72616	0.02929
3646.44039	0.02954
3645.15462	0.02941
3643.86886	0.02911
3642.58309	0.02883
3641.29732	0.02862
3640.01155	0.02840
3638.72578	0.02812
3637.44001	0.02772
3636.15424	0.02725
3634.86847	0.02690
3633.58270	0.02683
3632.29694	0.02705
3631.01117	0.02736
3629.72540	0.02757
3628.43963	0.02756
3627.15386	0.02735
3625.86809	0.02713
3624.58232	0.02728
3623.29655	0.02806
3622.01079	0.02921
3620.72502	0.03008
3619.43925	0.03025
3618.15348	0.02987
3616.86771	0.02950
3615.58194	0.02940
3614.29617	0.02946
3613.01040	0.02945
3611.72463	0.02929
3610.43887	0.02909
3609.15310	0.02908
3607.86733	0.02943
3606.58156	0.03006
3605.29579	0.03063
3604.01002	0.03075
3602.72425	0.03037
3601.43848	0.02990
3600.15272	0.02970
3598.86695	0.02972
3597.58118	0.02970
3596.29541	0.02962
3595.00964	0.02947
3593.72387	0.02907
3592.43810	0.02853
3591.15233	0.02825
3589.86656	0.02827
3588.58080	0.02841
3587.29503	0.02862
3586.00926	0.02880
3584.72349	0.02880
3583.43772	0.02865
3582.15195	0.02840
3580.86618	0.02811
3579.58041	0.02804
3578.29464	0.02829
3577.00888	0.02865
3575.72311	0.02900
3574.43734	0.02937
3573.15157	0.02980
3571.86580	0.03024
3570.58003	0.03045
3569.29426	0.03030
3568.00849	0.02993
3566.72273	0.02959
3565.43696	0.02946
3564.15119	0.02956
3562.86542	0.02975
3561.57965	0.02988
3560.29388	0.02985
3559.00811	0.02968
3557.72234	0.02948
3556.43657	0.02934
3555.15081	0.02934
3553.86504	0.02951
3552.57927	0.02982
3551.29350	0.03009
3550.00773	0.03010
3548.72196	0.02989
3547.43619	0.02965
3546.15042	0.02951
3544.86466	0.02941
3543.57889	0.02925
3542.29312	0.02906
3541.00735	0.02892
3539.72158	0.02882
3538.43581	0.02871
3537.15004	0.02860
3535.86427	0.02857
3534.57850	0.02865
3533.29274	0.02879
3532.00697	0.02894
3530.72120	0.02897
3529.43543	0.02881
3528.14966	0.02851
3526.86389	0.02830
3525.57812	0.02843
3524.29235	0.02885
3523.00659	0.02923
3521.72082	0.02933
3520.43505	0.02915
3519.14928	0.02887
3517.86351	0.02858
3516.57774	0.02832
3515.29197	0.02815
3514.00620	0.02817
3512.72043	0.02842
3511.43467	0.02889
3510.14890	0.02949
3508.86313	0.02999
3507.57736	0.03012
3506.29159	0.02969
3505.00582	0.02881
3503.72005	0.02790
3502.43428	0.02734
3501.14852	0.02729
3499.86275	0.02760
3498.57698	0.02807
3497.29121	0.02853
3496.00544	0.02885
3494.71967	0.02888
3493.43390	0.02858
3492.14813	0.02813
3490.86236	0.02786
3489.57660	0.02791
3488.29083	0.02824
3487.00506	0.02873
3485.71929	0.02929
3484.43352	0.02973
3483.14775	0.02983
3481.86198	0.02957
3480.57621	0.02927
3479.29045	0.02927
3478.00468	0.02967
3476.71891	0.03021
3475.43314	0.03056
3474.14737	0.03055
3472.86160	0.03023
3471.57583	0.02974
3470.29006	0.02919
3469.00429	0.02871
3467.71853	0.02843
3466.43276	0.02835
3465.14699	0.02832
3463.86122	0.02816
3462.57545	0.02786
3461.28968	0.02758
3460.00391	0.02743
3458.71814	0.02737
3457.43238	0.02730
3456.14661	0.02717
3454.86084	0.02704
3453.57507	0.02700
3452.28930	0.02706
3451.00353	0.02719
3449.71776	0.02732
3448.43199	0.02739
3447.14622	0.02745
3445.86046	0.02758
3444.57469	0.02786
3443.28892	0.02822
3442.00315	0.02848
3440.71738	0.02852
3439.43161	0.02833
3438.14584	0.02803
3436.86007	0.02773
3435.57431	0.02752
3434.28854	0.02746
3433.00277	0.02749
3431.71700	0.02754
3430.43123	0.02763
3429.14546	0.02790
3427.85969	0.02844
3426.57392	0.02907
3425.28815	0.02949
3424.00239	0.02950
3422.71662	0.02920
3421.43085	0.02886
3420.14508	0.02862
3418.85931	0.02850
3417.57354	0.02848
3416.28777	0.02850
3415.00200	0.02847
3413.71624	0.02839
3412.43047	0.02839
3411.14470	0.02860
3409.85893	0.02895
3408.57316	0.02921
3407.28739	0.02926
3406.00162	0.02926
3404.71585	0.02948
3403.43008	0.02994
3402.14432	0.03032
3400.85855	0.03030
3399.57278	0.02999
3398.28701	0.02975
3397.00124	0.02980
3395.71547	0.02998
3394.42970	0.02999
3393.14393	0.02976
3391.85817	0.02945
3390.57240	0.02928
3389.28663	0.02938
3388.00086	0.02976
3386.71509	0.03030
3385.42932	0.03088
3384.14355	0.03140
3382.85778	0.03182
3381.57201	0.03201
3380.28625	0.03184
3379.00048	0.03133
3377.71471	0.03078
3376.42894	0.03049
3375.14317	0.03054
3373.85740	0.03080
3372.57163	0.03108
3371.28586	0.03136
3370.00010	0.03163
3368.71433	0.03180
3367.42856	0.03182
3366.14279	0.03181
3364.85702	0.03195
3363.57125	0.03217
3362.28548	0.03229
3360.99971	0.03220
3359.71394	0.03197
3358.42818	0.03175
3357.14241	0.03159
3355.85664	0.03156
3354.57087	0.03170
3353.28510	0.03202
3351.99933	0.03233
3350.71356	0.03248
3349.42779	0.03252
3348.14202	0.03267
3346.85626	0.03310
3345.57049	0.03362
3344.28472	0.03391
3342.99895	0.03381
3341.71318	0.03357
3340.42741	0.03363
3339.14164	0.03424
3337.85587	0.03517
3336.57011	0.03591
3335.28434	0.03611
3333.99857	0.03578
3332.71280	0.03527
3331.42703	0.03489
3330.14126	0.03473
3328.85549	0.03474
3327.56972	0.03489
3326.28395	0.03520
3324.99819	0.03564
3323.71242	0.03609
3322.42665	0.03632
3321.14088	0.03621
3319.85511	0.03583
3318.56934	0.03545
3317.28357	0.03543
3315.99780	0.03594
3314.71204	0.03680
3313.42627	0.03760
3312.14050	0.03803
3310.85473	0.03812
3309.56896	0.03808
3308.28319	0.03808
3306.99742	0.03814
3305.71165	0.03828
3304.42588	0.03851
3303.14012	0.03882
3301.85435	0.03907
3300.56858	0.03913
3299.28281	0.03902
3297.99704	0.03883
3296.71127	0.03869
3295.42550	0.03864
3294.13973	0.03872
3292.85397	0.03889
3291.56820	0.03905
3290.28243	0.03902
3288.99666	0.03875
3287.71089	0.03838
3286.42512	0.03816
3285.13935	0.03828
3283.85358	0.03870
3282.56781	0.03921
3281.28205	0.03958
3279.99628	0.03969
3278.71051	0.03955
3277.42474	0.03929
3276.13897	0.03907
3274.85320	0.03905
3273.56743	0.03929
3272.28166	0.03971
3270.99590	0.04010
3269.71013	0.04029
3268.42436	0.04022
3267.13859	0.04000
3265.85282	0.03975
3264.56705	0.03950
3263.28128	0.03925
3261.99551	0.03905
3260.70974	0.03902
3259.42398	0.03926
3258.13821	0.03970
3256.85244	0.04014
3255.56667	0.04038
3254.28090	0.04036
3252.99513	0.04013
3251.70936	0.03985
3250.42359	0.03962
3249.13783	0.03951
3247.85206	0.03953
3246.56629	0.03970
3245.28052	0.04001
3243.99475	0.04034
3242.70898	0.04054
3241.42321	0.04056
3240.13744	0.04056
3238.85167	0.04071
3237.56591	0.04097
3236.28014	0.04104
3234.99437	0.04070
3233.70860	0.04016
3232.42283	0.03982
3231.13706	0.03986
3229.85129	0.04002
3228.56552	0.03999
3227.27976	0.03976
3225.99399	0.03957
3224.70822	0.03952
3223.42245	0.03954
3222.13668	0.03958
3220.85091	0.03972
3219.56514	0.04006
3218.27937	0.04054
3216.99360	0.04100
3215.70784	0.04124
3214.42207	0.04115
3213.13630	0.04081
3211.85053	0.04040
3210.56476	0.04010
3209.27899	0.03998
3207.99322	0.04003
3206.70745	0.04027
3205.42169	0.04066
3204.13592	0.04100
3202.85015	0.04110
3201.56438	0.04096
3200.27861	0.04080
3198.99284	0.04088
3197.70707	0.04128
3196.42130	0.04183
3195.13553	0.04223
3193.84977	0.04224
3192.56400	0.04186
3191.27823	0.04135
3189.99246	0.04102
3188.70669	0.04102
3187.42092	0.04123
3186.13515	0.04137
3184.84938	0.04132
3183.56362	0.04119
3182.27785	0.04117
3180.99208	0.04136
3179.70631	0.04167
3178.42054	0.04194
3177.13477	0.04203
3175.84900	0.04183
3174.56323	0.04134
3173.27746	0.04074
3171.99170	0.04023
3170.70593	0.03993
3169.42016	0.03992
3168.13439	0.04015
3166.84862	0.04048
3165.56285	0.04069
3164.27708	0.04067
3162.99131	0.04055
3161.70555	0.04054
3160.41978	0.04073
3159.13401	0.04102
3157.84824	0.04120
3156.56247	0.04123
3155.27670	0.04120
3153.99093	0.04118
3152.70516	0.04116
3151.41939	0.04107
3150.13363	0.04091
3148.84786	0.04068
3147.56209	0.04042
3146.27632	0.04020
3144.99055	0.04018
3143.70478	0.04047
3142.41901	0.04104
3141.13324	0.04166
3139.84748	0.04206
3138.56171	0.04210
3137.27594	0.04183
3135.99017	0.04141
3134.70440	0.04091
3133.41863	0.04033
3132.13286	0.03968
3130.84709	0.03910
3129.56132	0.03882
3128.27556	0.03894
3126.98979	0.03933
3125.70402	0.03972
3124.41825	0.03987
3123.13248	0.03978
3121.84671	0.03962
3120.56094	0.03953
3119.27517	0.03956
3117.98940	0.03964
3116.70364	0.03974
3115.41787	0.03992
3114.13210	0.04030
3112.84633	0.04087
3111.56056	0.04139
3110.27479	0.04162
3108.98902	0.04157
3107.70325	0.04141
3106.41749	0.04132
3105.13172	0.04132
3103.84595	0.04132
3102.56018	0.04123
3101.27441	0.04103
3099.98864	0.04081
3098.70287	0.04081
3097.41710	0.04114
3096.13133	0.04164
3094.84557	0.04198
3093.55980	0.04196
3092.27403	0.04162
3090.98826	0.04115
3089.70249	0.04071
3088.41672	0.04031
3087.13095	0.03991
3085.84518	0.03959
3084.55942	0.03951
3083.27365	0.03985
3081.98788	0.04053
3080.70211	0.04130
3079.41634	0.04187
3078.13057	0.04212
3076.84480	0.04213
3075.55903	0.04206
3074.27326	0.04208
3072.98750	0.04223
3071.70173	0.04242
3070.41596	0.04249
3069.13019	0.04233
3067.84442	0.04199
3066.55865	0.04168
3065.27288	0.04155
3063.98711	0.04164
3062.70135	0.04183
3061.41558	0.04196
3060.12981	0.04190
3058.84404	0.04166
3057.55827	0.04136
3056.27250	0.04116
3054.98673	0.04106
3053.70096	0.04095
3052.41519	0.04073
3051.12943	0.04041
3049.84366	0.04011
3048.55789	0.03995
3047.27212	0.03999
3045.98635	0.04021
3044.70058	0.04051
3043.41481	0.04076
3042.12904	0.04088
3040.84328	0.04092
3039.55751	0.04101
3038.27174	0.04112
3036.98597	0.04111
3035.70020	0.04083
3034.41443	0.04034
3033.12866	0.03987
3031.84289	0.03959
3030.55712	0.03953
3029.27136	0.03963
3027.98559	0.03978
3026.69982	0.03990
3025.41405	0.03999
3024.12828	0.04004
3022.84251	0.04005
3021.55674	0.03992
3020.27097	0.03959
3018.98521	0.03914
3017.69944	0.03875
3016.41367	0.03850
3015.12790	0.03832
3013.84213	0.03811
3012.55636	0.03791
3011.27059	0.03785
3009.98482	0.03799
3008.69905	0.03824
3007.41329	0.03851
3006.12752	0.03876
3004.84175	0.03894
3003.55598	0.03896
3002.27021	0.03878
3000.98444	0.03848
2999.69867	0.03816
2998.41290	0.03786
2997.12714	0.03752
2995.84137	0.03719
2994.55560	0.03700
2993.26983	0.03698
2991.98406	0.03704
2990.69829	0.03706
2989.41252	0.03697
2988.12675	0.03677
2986.84098	0.03651
2985.55522	0.03633
2984.26945	0.03632
2982.98368	0.03638
2981.69791	0.03635
2980.41214	0.03613
2979.12637	0.03571
2977.84060	0.03519
2976.55483	0.03471
2975.26907	0.03443
2973.98330	0.03435
2972.69753	0.03428
2971.41176	0.03399
2970.12599	0.03345
2968.84022	0.03285
2967.55445	0.03244
2966.26868	0.03229
2964.98291	0.03227
2963.69715	0.03216
2962.41138	0.03186
2961.12561	0.03144
2959.83984	0.03105
2958.55407	0.03077
2957.26830	0.03065
2955.98253	0.03064
2954.69676	0.03065
2953.41100	0.03054
2952.12523	0.03021
2950.83946	0.02971
2949.55369	0.02922
2948.26792	0.02885
2946.98215	0.02856
2945.69638	0.02824
2944.41061	0.02784
2943.12484	0.02738
2941.83908	0.02674
2940.55331	0.02582
2939.26754	0.02461
2937.98177	0.02337
2936.69600	0.02235
2935.41023	0.02160
2934.12446	0.02094
2932.83869	0.02021
2931.55293	0.01939
2930.26716	0.01856
2928.98139	0.01780
2927.69562	0.01708
2926.40985	0.01639
2925.12408	0.01576
2923.83831	0.01526
2922.55254	0.01498
2921.26677	0.01500
2919.98101	0.01529
2918.69524	0.01580
2917.40947	0.01652
2916.12370	0.01748
2914.83793	0.01872
2913.55216	0.02014
2912.26639	0.02157
2910.98062	0.02281
2909.69486	0.02381
2908.40909	0.02453
2907.12332	0.02507
2905.83755	0.02559
2904.55178	0.02625
2903.26601	0.02702
2901.98024	0.02774
2900.69447	0.02825
2899.40870	0.02859
2898.12294	0.02890
2896.83717	0.02926
2895.55140	0.02961
2894.26563	0.02991
2892.97986	0.03017
2891.69409	0.03042
2890.40832	0.03064
2889.12255	0.03068
2887.83678	0.03046
2886.55102	0.03009
2885.26525	0.02975
2883.97948	0.02958
2882.69371	0.02959
2881.40794	0.02973
2880.12217	0.02991
2878.83640	0.03006
2877.55063	0.03014
2876.26487	0.03011
2874.97910	0.02998
2873.69333	0.02980
2872.40756	0.02963
2871.12179	0.02958
2869.83602	0.02964
2868.55025	0.02967
2867.26448	0.02951
2865.97871	0.02911
2864.69295	0.02842
2863.40718	0.02743
2862.12141	0.02624
2860.83564	0.02510
2859.54987	0.02426
2858.26410	0.02369
2856.97833	0.02315
2855.69256	0.02244
2854.40680	0.02158
2853.12103	0.02080
2851.83526	0.02039
2850.54949	0.02064
2849.26372	0.02165
2847.97795	0.02324
2846.69218	0.02507
2845.40641	0.02679
2844.12064	0.02817
2842.83488	0.02919
2841.54911	0.02998
2840.26334	0.03065
2838.97757	0.03122
2837.69180	0.03160
2836.40603	0.03181
2835.12026	0.03197
2833.83449	0.03226
2832.54873	0.03271
2831.26296	0.03319
2829.97719	0.03347
2828.69142	0.03346
2827.40565	0.03331
2826.11988	0.03322
2824.83411	0.03325
2823.54834	0.03330
2822.26257	0.03328
2820.97681	0.03317
2819.69104	0.03301
2818.40527	0.03278
2817.11950	0.03248
2815.83373	0.03220
2814.54796	0.03206
2813.26219	0.03210
2811.97642	0.03226
2810.69066	0.03242
2809.40489	0.03256
2808.11912	0.03272
2806.83335	0.03289
2805.54758	0.03303
2804.26181	0.03310
2802.97604	0.03306
2801.69027	0.03296
2800.40450	0.03288
2799.11874	0.03286
2797.83297	0.03286
2796.54720	0.03280
2795.26143	0.03271
2793.97566	0.03267
2792.68989	0.03269
2791.40412	0.03274
2790.11835	0.03275
2788.83259	0.03271
2787.54682	0.03265
2786.26105	0.03258
2784.97528	0.03252
2783.68951	0.03242
2782.40374	0.03226
2781.11797	0.03210
2779.83220	0.03201
2778.54643	0.03203
2777.26067	0.03215
2775.97490	0.03231
2774.68913	0.03242
2773.40336	0.03245
2772.11759	0.03239
2770.83182	0.03231
2769.54605	0.03223
2768.26028	0.03212
2766.97452	0.03192
2765.68875	0.03164
2764.40298	0.03141
2763.11721	0.03141
2761.83144	0.03160
2760.54567	0.03179
2759.25990	0.03179
2757.97413	0.03162
2756.68836	0.03142
2755.40260	0.03131
2754.11683	0.03131
2752.83106	0.03138
2751.54529	0.03141
2750.25952	0.03132
2748.97375	0.03112
2747.68798	0.03097
2746.40221	0.03098
2745.11645	0.03112
2743.83068	0.03127
2742.54491	0.03134
2741.25914	0.03130
2739.97337	0.03124
2738.68760	0.03122
2737.40183	0.03124
2736.11606	0.03126
2734.83029	0.03123
2733.54453	0.03116
2732.25876	0.03109
2730.97299	0.03098
2729.68722	0.03079
2728.40145	0.03059
2727.11568	0.03052
2725.82991	0.03064
2724.54414	0.03083
2723.25838	0.03095
2721.97261	0.03095
2720.68684	0.03091
2719.40107	0.03086
2718.11530	0.03083
2716.82953	0.03081
2715.54376	0.03080
2714.25799	0.03076
2712.97222	0.03071
2711.68646	0.03067
2710.40069	0.03064
2709.11492	0.03059
2707.82915	0.03050
2706.54338	0.03041
2705.25761	0.03039
2703.97184	0.03053
2702.68607	0.03078
2701.40031	0.03100
2700.11454	0.03104
2698.82877	0.03083
2697.54300	0.03045
2696.25723	0.03004
2694.97146	0.02978
2693.68569	0.02973
2692.39992	0.02985
2691.11415	0.02995
2689.82839	0.02989
2688.54262	0.02971
2687.25685	0.02952
2685.97108	0.02940
2684.68531	0.02928
2683.39954	0.02910
2682.11377	0.02893
2680.82800	0.02891
2679.54224	0.02903
2678.25647	0.02920
2676.97070	0.02937
2675.68493	0.02949
2674.39916	0.02950
2673.11339	0.02935
2671.82762	0.02910
2670.54185	0.02887
2669.25608	0.02877
2667.97032	0.02879
2666.68455	0.02893
2665.39878	0.02912
2664.11301	0.02926
2662.82724	0.02926
2661.54147	0.02917
2660.25570	0.02914
2658.96993	0.02925
2657.68417	0.02942
2656.39840	0.02948
2655.11263	0.02935
2653.82686	0.02915
2652.54109	0.02902
2651.25532	0.02900
2649.96955	0.02905
2648.68378	0.02914
2647.39801	0.02919
2646.11225	0.02907
2644.82648	0.02876
2643.54071	0.02838
2642.25494	0.02811
2640.96917	0.02797
2639.68340	0.02789
2638.39763	0.02776
2637.11186	0.02760
2635.82609	0.02747
2634.54033	0.02737
2633.25456	0.02725
2631.96879	0.02711
2630.68302	0.02706
2629.39725	0.02718
2628.11148	0.02738
2626.82571	0.02745
2625.53994	0.02724
2624.25418	0.02687
2622.96841	0.02660
2621.68264	0.02654
2620.39687	0.02656
2619.11110	0.02648
2617.82533	0.02630
2616.53956	0.02615
2615.25379	0.02605
2613.96802	0.02592
2612.68226	0.02574
2611.39649	0.02564
2610.11072	0.02571
2608.82495	0.02595
2607.53918	0.02621
2606.25341	0.02635
2604.96764	0.02632
2603.68187	0.02621
2602.39611	0.02609
2601.11034	0.02591
2599.82457	0.02569
2598.53880	0.02557
2597.25303	0.02563
2595.96726	0.02570
2594.68149	0.02562
2593.39572	0.02541
2592.10995	0.02519
2590.82419	0.02506
2589.53842	0.02494
2588.25265	0.02471
2586.96688	0.02431
2585.68111	0.02391
2584.39534	0.02378
2583.10957	0.02407
2581.82380	0.02461
2580.53804	0.02508
2579.25227	0.02529
2577.96650	0.02530
2576.68073	0.02522
2575.39496	0.02512
2574.10919	0.02501
2572.82342	0.02494
2571.53765	0.02493
2570.25188	0.02492
2568.96612	0.02473
2567.68035	0.02429
2566.39458	0.02376
2565.10881	0.02350
2563.82304	0.02368
2562.53727	0.02410
2561.25150	0.02441
2559.96573	0.02434
2558.67997	0.02388
2557.39420	0.02327
2556.10843	0.02283
2554.82266	0.02284
2553.53689	0.02329
2552.25112	0.02388
2550.96535	0.02431
2549.67958	0.02448
2548.39381	0.02439
2547.10805	0.02413
2545.82228	0.02384
2544.53651	0.02366
2543.25074	0.02362
2541.96497	0.02362
2540.67920	0.02361
2539.39343	0.02359
2538.10766	0.02359
2536.82190	0.02362
2535.53613	0.02366
2534.25036	0.02366
2532.96459	0.02348
2531.67882	0.02303
2530.39305	0.02246
2529.10728	0.02212
2527.82151	0.02225
2526.53574	0.02272
2525.24998	0.02317
2523.96421	0.02335
2522.67844	0.02324
2521.39267	0.02305
2520.10690	0.02294
2518.82113	0.02300
2517.53536	0.02321
2516.24959	0.02350
2514.96383	0.02363
2513.67806	0.02343
2512.39229	0.02297
2511.10652	0.02254
2509.82075	0.02232
2508.53498	0.02228
2507.24921	0.02230
2505.96344	0.02231
2504.67767	0.02226
2503.39191	0.02212
2502.10614	0.02190
2500.82037	0.02158
2499.53460	0.02117
2498.24883	0.02081
2496.96306	0.02071
2495.67729	0.02096
2494.39152	0.02134
2493.10576	0.02162
2491.81999	0.02175
2490.53422	0.02190
2489.24845	0.02217
2487.96268	0.02252
2486.67691	0.02279
2485.39114	0.02290
2484.10537	0.02285
2482.81960	0.02273
2481.53384	0.02263
2480.24807	0.02268
2478.96230	0.02291
2477.67653	0.02324
2476.39076	0.02346
2475.10499	0.02342
2473.81922	0.02310
2472.53345	0.02261
2471.24769	0.02218
2469.96192	0.02194
2468.67615	0.02193
2467.39038	0.02209
2466.10461	0.02228
2464.81884	0.02239
2463.53307	0.02236
2462.24730	0.02214
2460.96153	0.02176
2459.67577	0.02139
2458.39000	0.02120
2457.10423	0.02120
2455.81846	0.02121
2454.53269	0.02114
2453.24692	0.02108
2451.96115	0.02116
2450.67538	0.02127
2449.38962	0.02126
2448.10385	0.02114
2446.81808	0.02114
2445.53231	0.02138
2444.24654	0.02167
2442.96077	0.02174
2441.67500	0.02155
2440.38923	0.02133
2439.10346	0.02134
2437.81770	0.02159
2436.53193	0.02186
2435.24616	0.02193
2433.96039	0.02181
2432.67462	0.02162
2431.38885	0.02148
2430.10308	0.02145
2428.81731	0.02151
2427.53155	0.02158
2426.24578	0.02157
2424.96001	0.02146
2423.67424	0.02139
2422.38847	0.02144
2421.10270	0.02159
2419.81693	0.02165
2418.53116	0.02145
2417.24539	0.02094
2415.95963	0.02034
2414.67386	0.01995
2413.38809	0.02001
2412.10232	0.02052
2410.81655	0.02123
2409.53078	0.02175
2408.24501	0.02180
2406.95924	0.02144
2405.67347	0.02096
2404.38771	0.02061
2403.10194	0.02047
2401.81617	0.02055
2400.53040	0.02081
2399.24463	0.02104
2397.95886	0.02123
2396.67309	0.02125
2395.38732	0.02103
2394.10156	0.02064
2392.81579	0.02020
2391.53002	0.01986
2390.24425	0.01975
2388.95848	0.01989
2387.67271	0.02019
2386.38694	0.02055
2385.10117	0.02090
2383.81540	0.02123
2382.52964	0.02151
2381.24387	0.02175
2379.95810	0.02197
2378.67233	0.02210
2377.38656	0.02210
2376.10079	0.02206
2374.81502	0.02183
2373.52925	0.02175
2372.24349	0.02199
2370.95772	0.02229
2369.67195	0.02203
2368.38618	0.02151
2367.10041	0.02140
2365.81464	0.02168
2364.52887	0.02182
2363.24310	0.02184
2361.95733	0.02243
2360.67157	0.02427
2359.38580	0.02587
2358.10003	0.02591
2356.81426	0.02449
2355.52849	0.02242
2354.24272	0.02046
2352.95695	0.01961
2351.67118	0.02071
2350.38542	0.02234
2349.09965	0.02250
2347.81388	0.02180
2346.52811	0.02295
2345.24234	0.02445
2343.95657	0.02243
2342.67080	0.01841
2341.38503	0.01902
2340.09926	0.02375
2338.81350	0.02355
2337.52773	0.01850
2336.24196	0.01949
2334.95619	0.02474
2333.67042	0.02308
2332.38465	0.01784
2331.09888	0.01998
2329.81311	0.02271
2328.52735	0.01907
2327.24158	0.01988
2325.95581	0.02370
2324.67004	0.02220
2323.38427	0.02167
2322.09850	0.02395
2320.81273	0.02235
2319.52696	0.02202
2318.24119	0.02328
2316.95543	0.02209
2315.66966	0.02201
2314.38389	0.02255
2313.09812	0.02160
2311.81235	0.02154
2310.52658	0.02113
2309.24081	0.02054
2307.95504	0.02070
2306.66928	0.02047
2305.38351	0.02061
2304.09774	0.02077
2302.81197	0.02069
2301.52620	0.02086
2300.24043	0.02089
2298.95466	0.02096
2297.66889	0.02082
2296.38312	0.02043
2295.09736	0.02004
2293.81159	0.01972
2292.52582	0.01965
2291.24005	0.01967
2289.95428	0.01980
2288.66851	0.02002
2287.38274	0.02032
2286.09697	0.02060
2284.81121	0.02064
2283.52544	0.02028
2282.23967	0.01955
2280.95390	0.01870
2279.66813	0.01801
2278.38236	0.01764
2277.09659	0.01758
2275.81082	0.01771
2274.52505	0.01783
2273.23929	0.01784
2271.95352	0.01783
2270.66775	0.01797
2269.38198	0.01818
2268.09621	0.01822
2266.81044	0.01809
2265.52467	0.01791
2264.23890	0.01761
2262.95314	0.01723
2261.66737	0.01697
2260.38160	0.01684
2259.09583	0.01673
2257.81006	0.01663
2256.52429	0.01652
2255.23852	0.01646
2253.95275	0.01667
2252.66698	0.01715
2251.38122	0.01763
2250.09545	0.01797
2248.80968	0.01810
2247.52391	0.01780
2246.23814	0.01737
2244.95237	0.01688
2243.66660	0.01638
2242.38083	0.01596
2241.09507	0.01572
2239.80930	0.01574
2238.52353	0.01609
2237.23776	0.01681
2235.95199	0.01763
2234.66622	0.01799
2233.38045	0.01736
2232.09468	0.01581
2230.80891	0.01411
2229.52315	0.01308
2228.23738	0.01293
2226.95161	0.01331
2225.66584	0.01377
2224.38007	0.01406
2223.09430	0.01407
2221.80853	0.01382
2220.52276	0.01342
2219.23700	0.01303
2217.95123	0.01277
2216.66546	0.01271
2215.37969	0.01297
2214.09392	0.01349
2212.80815	0.01387
2211.52238	0.01359
2210.23661	0.01265
2208.95084	0.01176
2207.66508	0.01172
2206.37931	0.01258
2205.09354	0.01351
2203.80777	0.01360
2202.52200	0.01271
2201.23623	0.01149
2199.95046	0.01066
2198.66469	0.01054
2197.37893	0.01092
2196.09316	0.01144
2194.80739	0.01186
2193.52162	0.01199
2192.23585	0.01175
2190.95008	0.01129
2189.66431	0.01111
2188.37854	0.01175
2187.09277	0.01322
2185.80701	0.01486
2184.52124	0.01588
2183.23547	0.01605
2181.94970	0.01572
2180.66393	0.01527
2179.37816	0.01478
2178.09239	0.01418
2176.80662	0.01350
2175.52085	0.01284
2174.23509	0.01224
2172.94932	0.01168
2171.66355	0.01118
2170.37778	0.01080
2169.09201	0.01054
2167.80624	0.01033
2166.52047	0.01024
2165.23470	0.01048
2163.94894	0.01088
2162.66317	0.01083
2161.37740	0.00969
2160.09163	0.00765
2158.80586	0.00574
2157.52009	0.00496
2156.23432	0.00533
2154.94855	0.00606
2153.66278	0.00642
2152.37702	0.00641
2151.09125	0.00668
2149.80548	0.00771
2148.51971	0.00916
2147.23394	0.01012
2145.94817	0.00992
2144.66240	0.00876
2143.37663	0.00760
2142.09087	0.00739
2140.80510	0.00839
2139.51933	0.00995
2138.23356	0.01114
2136.94779	0.01150
2135.66202	0.01125
2134.37625	0.01090
2133.09048	0.01081
2131.80471	0.01105
2130.51895	0.01154
2129.23318	0.01212
2127.94741	0.01256
2126.66164	0.01269
2125.37587	0.01255
2124.09010	0.01241
2122.80433	0.01244
2121.51856	0.01249
2120.23280	0.01230
2118.94703	0.01192
2117.66126	0.01169
2116.37549	0.01183
2115.08972	0.01226
2113.80395	0.01271
2112.51818	0.01295
2111.23241	0.01293
2109.94664	0.01264
2108.66088	0.01213
2107.37511	0.01154
2106.08934	0.01111
2104.80357	0.01106
2103.51780	0.01132
2102.23203	0.01160
2100.94626	0.01165
2099.66049	0.01126
2098.37473	0.01095
2097.08896	0.01075
2095.80319	0.01046
2094.51742	0.00998
2093.23165	0.00946
2091.94588	0.00917
2090.66011	0.00931
2089.37434	0.00978
2088.08857	0.01025
2086.80281	0.01040
2085.51704	0.01018
2084.23127	0.00981
2082.94550	0.00959
2081.65973	0.00970
2080.37396	0.01006
2079.08819	0.01051
2077.80242	0.01091
2076.51666	0.01110
2075.23089	0.01095
2073.94512	0.01044
2072.65935	0.00985
2071.37358	0.00952
2070.08781	0.00964
2068.80204	0.01013
2067.51627	0.01075
2066.23050	0.01118
2064.94474	0.01115
2063.65897	0.01057
2062.37320	0.00970
2061.08743	0.00897
2059.80166	0.00864
2058.51589	0.00867
2057.23012	0.00889
2055.94435	0.00919
2054.65859	0.00949
2053.37282	0.00957
2052.08705	0.00911
2050.80128	0.00805
2049.51551	0.00683
2048.22974	0.00616
2046.94397	0.00641
2045.65820	0.00731
2044.37243	0.00820
2043.08667	0.00862
2041.80090	0.00843
2040.51513	0.00762
2039.22936	0.00616
2037.94359	0.00408
2036.65782	0.00169
2035.37205	-0.00030
2034.08628	-0.00113
2032.80052	-0.00047
2031.51475	0.00130
2030.22898	0.00338
2028.94321	0.00504
2027.65744	0.00597
2026.37167	0.00614
2025.08590	0.00577
2023.80013	0.00516
2022.51436	0.00475
2021.22860	0.00486
2019.94283	0.00544
2018.65706	0.00601
2017.37129	0.00619
2016.08552	0.00606
2014.79975	0.00595
2013.51398	0.00595
2012.22821	0.00593
2010.94245	0.00599
2009.65668	0.00647
2008.37091	0.00745
2007.08514	0.00856
2005.79937	0.00935
2004.51360	0.00967
2003.22783	0.00966
2001.94206	0.00945
2000.65629	0.00915
1999.37053	0.00879
1998.08476	0.00839
1996.79899	0.00806
1995.51322	0.00795
1994.22745	0.00816
1992.94168	0.00871
1991.65591	0.00953
1990.37014	0.01044
1989.08438	0.01109
1987.79861	0.01105
1986.51284	0.01012
1985.22707	0.00859
1983.94130	0.00711
1982.65553	0.00634
1981.36976	0.00662
1980.08399	0.00781
1978.79822	0.00929
1977.51246	0.01029
1976.22669	0.01044
1974.94092	0.01006
1973.65515	0.00982
1972.36938	0.01003
1971.08361	0.01050
1969.79784	0.01088
1968.51207	0.01102
1967.22631	0.01089
1965.94054	0.01038
1964.65477	0.00941
1963.36900	0.00827
1962.08323	0.00754
1960.79746	0.00763
1959.51169	0.00839
1958.22592	0.00928
1956.94015	0.00979
1955.65439	0.00981
1954.36862	0.00951
1953.08285	0.00909
1951.79708	0.00872
1950.51131	0.00852
1949.22554	0.00855
1947.93977	0.00875
1946.65400	0.00899
1945.36823	0.00920
1944.08247	0.00941
1942.79670	0.00973
1941.51093	0.01016
1940.22516	0.01061
1938.93939	0.01093
1937.65362	0.01106
1936.36785	0.01108
1935.08208	0.01103
1933.79632	0.01085
1932.51055	0.01049
1931.22478	0.01011
1929.93901	0.00995
1928.65324	0.01010
1927.36747	0.01036
1926.08170	0.01053
1924.79593	0.01058
1923.51016	0.01054
1922.22440	0.01037
1920.93863	0.01003
1919.65286	0.00965
1918.36709	0.00956
1917.08132	0.00995
1915.79555	0.01067
1914.50978	0.01135
1913.22401	0.01165
1911.93825	0.01148
1910.65248	0.01110
1909.36671	0.01084
1908.08094	0.01091
1906.79517	0.01132
1905.50940	0.01182
1904.22363	0.01209
1902.93786	0.01194
1901.65209	0.01145
1900.36633	0.01093
1899.08056	0.01063
1897.79479	0.01062
1896.50902	0.01081
1895.22325	0.01109
1893.93748	0.01131
1892.65171	0.01138
1891.36594	0.01130
1890.08018	0.01118
1888.79441	0.01116
1887.50864	0.01124
1886.22287	0.01133
1884.93710	0.01131
1883.65133	0.01118
1882.36556	0.01104
1881.07979	0.01101
1879.79402	0.01115
1878.50826	0.01140
1877.22249	0.01170
1875.93672	0.01194
1874.65095	0.01202
1873.36518	0.01192
1872.07941	0.01173
1870.79364	0.01167
1869.50787	0.01186
1868.22211	0.01218
1866.93634	0.01235
1865.65057	0.01218
1864.36480	0.01177
1863.07903	0.01137
1861.79326	0.01114
1860.50749	0.01109
1859.22172	0.01117
1857.93595	0.01135
1856.65019	0.01159
1855.36442	0.01187
1854.07865	0.01213
1852.79288	0.01231
1851.50711	0.01238
1850.22134	0.01238
1848.93557	0.01236
1847.64980	0.01232
1846.36404	0.01220
1845.07827	0.01199
1843.79250	0.01176
1842.50673	0.01163
1841.22096	0.01165
1839.93519	0.01182
1838.64942	0.01201
1837.36365	0.01212
1836.07788	0.01209
1834.79212	0.01196
1833.50635	0.01188
1832.22058	0.01189
1830.93481	0.01195
1829.64904	0.01199
1828.36327	0.01200
1827.07750	0.01203
1825.79173	0.01208
1824.50597	0.01210
1823.22020	0.01205
1821.93443	0.01194
1820.64866	0.01179
1819.36289	0.01160
1818.07712	0.01146
1816.79135	0.01148
1815.50558	0.01171
1814.21981	0.01205
1812.93405	0.01231
1811.64828	0.01240
1810.36251	0.01237
1809.07674	0.01230
1807.79097	0.01226
1806.50520	0.01222
1805.21943	0.01214
1803.93366	0.01200
1802.64790	0.01184
1801.36213	0.01171
1800.07636	0.01161
1798.79059	0.01153
1797.50482	0.01149
1796.21905	0.01151
1794.93328	0.01162
1793.64751	0.01179
1792.36174	0.01195
1791.07598	0.01205
1789.79021	0.01207
1788.50444	0.01202
1787.21867	0.01190
1785.93290	0.01173
1784.64713	0.01158
1783.36136	0.01149
1782.07559	0.01150
1780.78983	0.01157
1779.50406	0.01164
1778.21829	0.01169
1776.93252	0.01168
1775.64675	0.01158
1774.36098	0.01138
1773.07521	0.01117
1771.78944	0.01103
1770.50367	0.01103
1769.21791	0.01113
1767.93214	0.01123
1766.64637	0.01127
1765.36060	0.01122
1764.07483	0.01106
1762.78906	0.01081
1761.50329	0.01052
1760.21752	0.01025
1758.93176	0.01005
1757.64599	0.00989
1756.36022	0.00976
1755.07445	0.00962
1753.78868	0.00942
1752.50291	0.00916
1751.21714	0.00888
1749.93137	0.00860
1748.64560	0.00832
1747.35984	0.00801
1746.07407	0.00768
1744.78830	0.00738
1743.50253	0.00717
1742.21676	0.00702
1740.93099	0.00684
1739.64522	0.00659
1738.35945	0.00628
1737.07369	0.00597
1735.78792	0.00569
1734.50215	0.00548
1733.21638	0.00535
1731.93061	0.00529
1730.64484	0.00528
1729.35907	0.00532
1728.07330	0.00544
1726.78753	0.00565
1725.50177	0.00595
1724.21600	0.00631
1722.93023	0.00669
1721.64446	0.00707
1720.35869	0.00744
1719.07292	0.00774
1717.78715	0.00797
1716.50138	0.00817
1715.21561	0.00846
1713.92985	0.00893
1712.64408	0.00954
1711.35831	0.01023
1710.07254	0.01088
1708.78677	0.01148
1707.50100	0.01205
1706.21523	0.01259
1704.92946	0.01312
1703.64370	0.01365
1702.35793	0.01424
1701.07216	0.01497
1699.78639	0.01585
1698.50062	0.01682
1697.21485	0.01779
1695.92908	0.01872
1694.64331	0.01963
1693.35754	0.02058
1692.07178	0.02158
1690.78601	0.02257
1689.50024	0.02349
1688.21447	0.02431
1686.92870	0.02504
1685.64293	0.02576
1684.35716	0.02651
1683.07139	0.02729
1681.78563	0.02805
1680.49986	0.02878
1679.21409	0.02947
1677.92832	0.03014
1676.64255	0.03081
1675.35678	0.03150
1674.07101	0.03223
1672.78524	0.03301
1671.49947	0.03379
1670.21371	0.03451
1668.92794	0.03516
1667.64217	0.03573
1666.35640	0.03627
1665.07063	0.03681
1663.78486	0.03742
1662.49909	0.03811
1661.21332	0.03889
1659.92756	0.03971
1658.64179	0.04050
1657.35602	0.04119
1656.07025	0.04180
1654.78448	0.04238
1653.49871	0.04301
1652.21294	0.04366
1650.92717	0.04424
1649.64140	0.04465
1648.35564	0.04491
1647.06987	0.04516
1645.78410	0.04548
1644.49833	0.04589
1643.21256	0.04631
1641.92679	0.04665
1640.64102	0.04684
1639.35525	0.04689
1638.06949	0.04683
1636.78372	0.04671
1635.49795	0.04656
1634.21218	0.04638
1632.92641	0.04615
1631.64064	0.04583
1630.35487	0.04537
1629.06910	0.04480
1627.78333	0.04416
1626.49757	0.04349
1625.21180	0.04280
1623.92603	0.04206
1622.64026	0.04126
1621.35449	0.04042
1620.06872	0.03954
1618.78295	0.03865
1617.49718	0.03780
1616.21142	0.03702
1614.92565	0.03630
1613.63988	0.03560
1612.35411	0.03488
1611.06834	0.03412
1609.78257	0.03337
1608.49680	0.03266
1607.21103	0.03201
1605.92526	0.03142
1604.63950	0.03086
1603.35373	0.03031
1602.06796	0.02982
1600.78219	0.02942
1599.49642	0.02916
1598.21065	0.02905
1596.92488	0.02904
1595.63911	0.02907
1594.35335	0.02911
1593.06758	0.02916
1591.78181	0.02923
1590.49604	0.02935
1589.21027	0.02951
1587.92450	0.02970
1586.63873	0.02996
1585.35296	0.03028
1584.06719	0.03066
1582.78143	0.03108
1581.49566	0.03151
1580.20989	0.03194
1578.92412	0.03236
1577.63835	0.03283
1576.35258	0.03335
1575.06681	0.03394
1573.78104	0.03456
1572.49528	0.03520
1571.20951	0.03585
1569.92374	0.03654
1568.63797	0.03722
1567.35220	0.03787
1566.06643	0.03846
1564.78066	0.03900
1563.49489	0.03949
1562.20912	0.03993
1560.92336	0.04036
1559.63759	0.04079
1558.35182	0.04126
1557.06605	0.04176
1555.78028	0.04228
1554.49451	0.04279
1553.20874	0.04326
1551.92297	0.04367
1550.63721	0.04403
1549.35144	0.04430
1548.06567	0.04450
1546.77990	0.04461
1545.49413	0.04468
1544.20836	0.04475
1542.92259	0.04480
1541.63682	0.04484
1540.35105	0.04486
1539.06529	0.04485
1537.77952	0.04482
1536.49375	0.04480
1535.20798	0.04478
1533.92221	0.04476
1532.63644	0.04474
1531.35067	0.04472
1530.06490	0.04469
1528.77914	0.04465
1527.49337	0.04460
1526.20760	0.04454
1524.92183	0.04448
1523.63606	0.04442
1522.35029	0.04439
1521.06452	0.04439
1519.77875	0.04441
1518.49298	0.04445
1517.20722	0.04449
1515.92145	0.04452
1514.63568	0.04456
1513.34991	0.04463
1512.06414	0.04474
1510.77837	0.04487
1509.49260	0.04500
1508.20683	0.04511
1506.92107	0.04522
1505.63530	0.04534
1504.34953	0.04546
1503.06376	0.04558
1501.77799	0.04570
1500.49222	0.04579
1499.20645	0.04584
1497.92068	0.04585
1496.63491	0.04584
1495.34915	0.04583
1494.06338	0.04579
1492.77761	0.04573
1491.49184	0.04565
1490.20607	0.04563
1488.92030	0.04570
1487.63453	0.04588
1486.34876	0.04612
1485.06299	0.04636
1483.77723	0.04659
1482.49146	0.04687
1481.20569	0.04724
1479.91992	0.04771
1478.63415	0.04823
1477.34838	0.04876
1476.06261	0.04924
1474.77684	0.04965
1473.49108	0.04998
1472.20531	0.05025
1470.91954	0.05045
1469.63377	0.05061
1468.34800	0.05079
1467.06223	0.05107
1465.77646	0.05147
1464.49069	0.05197
1463.20492	0.05253
1461.91916	0.05310
1460.63339	0.05365
1459.34762	0.05419
1458.06185	0.05473
1456.77608	0.05528
1455.49031	0.05585
1454.20454	0.05638
1452.91877	0.05683
1451.63301	0.05721
1450.34724	0.05757
1449.06147	0.05791
1447.77570	0.05817
1446.48993	0.05830
1445.20416	0.05827
1443.91839	0.05815
1442.63262	0.05798
1441.34685	0.05779
1440.06109	0.05759
1438.77532	0.05742
1437.48955	0.05731
1436.20378	0.05728
1434.91801	0.05733
1433.63224	0.05744
1432.34647	0.05763
1431.06070	0.05792
1429.77494	0.05833
1428.48917	0.05884
1427.20340	0.05943
1425.91763	0.06004
1424.63186	0.06065
1423.34609	0.06125
1422.06032	0.06188
1420.77455	0.06253
1419.48878	0.06321
1418.20302	0.06386
1416.91725	0.06442
1415.63148	0.06485
1414.34571	0.06516
1413.05994	0.06532
1411.77417	0.06535
1410.48840	0.06526
1409.20263	0.06511
1407.91687	0.06492
1406.63110	0.06470
1405.34533	0.06437
1404.05956	0.06388
1402.77379	0.06320
1401.48802	0.06237
1400.20225	0.06144
1398.91648	0.06044
1397.63071	0.05940
1396.34495	0.05834
1395.05918	0.05728
1393.77341	0.05621
1392.48764	0.05514
1391.20187	0.05406
1389.91610	0.05294
1388.63033	0.05178
1387.34456	0.05056
1386.05880	0.04933
1384.77303	0.04812
1383.48726	0.04694
1382.20149	0.04579
1380.91572	0.04464
1379.62995	0.04350
1378.34418	0.04238
1377.05841	0.04128
1375.77264	0.04021
1374.48688	0.03916
1373.20111	0.03815
1371.91534	0.03715
1370.62957	0.03615
1369.34380	0.03515
1368.05803	0.03420
1366.77226	0.03331
1365.48649	0.03248
1364.20073	0.03171
1362.91496	0.03098
1361.62919	0.03032
1360.34342	0.02973
1359.05765	0.02920
1357.77188	0.02871
1356.48611	0.02827
1355.20034	0.02788
1353.91457	0.02753
1352.62881	0.02720
1351.34304	0.02690
1350.05727	0.02665
1348.77150	0.02645
1347.48573	0.02626
1346.19996	0.02606
1344.91419	0.02584
1343.62842	0.02563
1342.34266	0.02546
1341.05689	0.02532
1339.77112	0.02515
1338.48535	0.02493
1337.19958	0.02466
1335.91381	0.02438
1334.62804	0.02413
1333.34227	0.02391
1332.05650	0.02368
1330.77074	0.02342
1329.48497	0.02311
1328.19920	0.02278
1326.91343	0.02249
1325.62766	0.02223
1324.34189	0.02201
1323.05612	0.02179
1321.77035	0.02158
1320.48459	0.02137
1319.19882	0.02118
1317.91305	0.02100
1316.62728	0.02084
1315.34151	0.02070
1314.05574	0.02057
1312.76997	0.02043
1311.48420	0.02026
1310.19843	0.02009
1308.91267	0.01993
1307.62690	0.01978
1306.34113	0.01961
1305.05536	0.01939
1303.76959	0.01914
1302.48382	0.01889
1301.19805	0.01869
1299.91228	0.01851
1298.62652	0.01833
1297.34075	0.01813
1296.05498	0.01787
1294.76921	0.01758
1293.48344	0.01725
1292.19767	0.01693
1290.91190	0.01666
1289.62613	0.01642
1288.34036	0.01619
1287.05460	0.01591
1285.76883	0.01557
1284.48306	0.01521
1283.19729	0.01486
1281.91152	0.01458
1280.62575	0.01439
1279.33998	0.01431
1278.05421	0.01436
1276.76845	0.01451
1275.48268	0.01473
1274.19691	0.01496
1272.91114	0.01517
1271.62537	0.01530
1270.33960	0.01534
1269.05383	0.01531
1267.76806	0.01527
1266.48229	0.01525
1265.19653	0.01527
1263.91076	0.01531
1262.62499	0.01535
1261.33922	0.01541
1260.05345	0.01550
1258.76768	0.01562
1257.48191	0.01575
1256.19614	0.01587
1254.91037	0.01599
1253.62461	0.01611
1252.33884	0.01621
1251.05307	0.01629
1249.76730	0.01632
1248.48153	0.01636
1247.19576	0.01642
1245.90999	0.01652
1244.62422	0.01663
1243.33846	0.01669
1242.05269	0.01669
1240.76692	0.01665
1239.48115	0.01659
1238.19538	0.01652
1236.90961	0.01646
1235.62384	0.01639
1234.33807	0.01633
1233.05230	0.01630
1231.76654	0.01627
1230.48077	0.01620
1229.19500	0.01601
1227.90923	0.01570
1226.62346	0.01534
1225.33769	0.01500
1224.05192	0.01472
1222.76615	0.01452
1221.48039	0.01437
1220.19462	0.01424
1218.90885	0.01408
1217.62308	0.01388
1216.33731	0.01368
1215.05154	0.01351
1213.76577	0.01338
1212.48000	0.01329
1211.19423	0.01325
1209.90847	0.01323
1208.62270	0.01321
1207.33693	0.01318
1206.05116	0.01311
1204.76539	0.01302
1203.47962	0.01293
1202.19385	0.01285
1200.90808	0.01280
1199.62232	0.01278
1198.33655	0.01272
1197.05078	0.01263
1195.76501	0.01252
1194.47924	0.01240
1193.19347	0.01226
1191.90770	0.01211
1190.62193	0.01191
1189.33616	0.01167
1188.05040	0.01143
1186.76463	0.01122
1185.47886	0.01107
1184.19309	0.01097
1182.90732	0.01091
1181.62155	0.01089
1180.33578	0.01088
1179.05001	0.01087
1177.76425	0.01083
1176.47848	0.01074
1175.19271	0.01061
1173.90694	0.01046
1172.62117	0.01033
1171.33540	0.01023
1170.04963	0.01015
1168.76386	0.01004
1167.47809	0.00989
1166.19233	0.00973
1164.90656	0.00957
1163.62079	0.00946
1162.33502	0.00940
1161.04925	0.00940
1159.76348	0.00946
1158.47771	0.00960
1157.19194	0.00982
1155.90618	0.01014
1154.62041	0.01051
1153.33464	0.01092
1152.04887	0.01134
1150.76310	0.01171
1149.47733	0.01204
1148.19156	0.01234
1146.90579	0.01266
1145.62002	0.01299
1144.33426	0.01336
1143.04849	0.01378
1141.76272	0.01426
1140.47695	0.01475
1139.19118	0.01525
1137.90541	0.01575
1136.61964	0.01631
1135.33387	0.01698
1134.04811	0.01778
1132.76234	0.01870
1131.47657	0.01968
1130.19080	0.02072
1128.90503	0.02184
1127.61926	0.02311
1126.33349	0.02460
1125.04772	0.02631
1123.76195	0.02821
1122.47619	0.03020
1121.19042	0.03227
1119.90465	0.03443
1118.61888	0.03667
1117.33311	0.03895
1116.04734	0.04120
1114.76157	0.04340
1113.47580	0.04552
1112.19004	0.04758
1110.90427	0.04956
1109.61850	0.05152
1108.33273	0.05350
1107.04696	0.05552
1105.76119	0.05756
1104.47542	0.05956
1103.18965	0.06147
1101.90388	0.06328
1100.61812	0.06497
1099.33235	0.06654
1098.04658	0.06802
1096.76081	0.06946
1095.47504	0.07093
1094.18927	0.07238
1092.90350	0.07376
1091.61773	0.07500
1090.33197	0.07614
1089.04620	0.07724
1087.76043	0.07837
1086.47466	0.07955
1085.18889	0.08079
1083.90312	0.08208
1082.61735	0.08338
1081.33158	0.08471
1080.04581	0.08609
1078.76005	0.08760
1077.47428	0.08923
1076.18851	0.09093
1074.90274	0.09265
1073.61697	0.09439
1072.33120	0.09619
1071.04543	0.09810
1069.75966	0.10011
1068.47390	0.10218
1067.18813	0.10427
1065.90236	0.10641
1064.61659	0.10863
1063.33082	0.11091
1062.04505	0.11319
1060.75928	0.11545
1059.47351	0.11771
1058.18774	0.11995
1056.90198	0.12213
1055.61621	0.12424
1054.33044	0.12629
1053.04467	0.12831
1051.75890	0.13032
1050.47313	0.13235
1049.18736	0.13445
1047.90159	0.13666
1046.61583	0.13900
1045.33006	0.14140
1044.04429	0.14378
1042.75852	0.14611
1041.47275	0.14842
1040.18698	0.15074
1038.90121	0.15308
1037.61544	0.15545
1036.32967	0.15777
1035.04391	0.16002
1033.75814	0.16218
1032.47237	0.16425
1031.18660	0.16618
1029.90083	0.16791
1028.61506	0.16942
1027.32929	0.17068
1026.04352	0.17172
1024.75775	0.17255
1023.47199	0.17317
1022.18622	0.17360
1020.90045	0.17384
1019.61468	0.17387
1018.32891	0.17364
1017.04314	0.17310
1015.75737	0.17223
1014.47160	0.17104
1013.18584	0.16958
1011.90007	0.16788
1010.61430	0.16593
1009.32853	0.16370
1008.04276	0.16122
1006.75699	0.15854
1005.47122	0.15567
1004.18545	0.15262
1002.89968	0.14943
1001.61392	0.14615
1000.32815	0.14277
999.04238	0.13929
997.75661	0.13569
996.47084	0.13198
995.18507	0.12819
993.89930	0.12436
992.61353	0.12058
991.32777	0.11688
990.04200	0.11327
988.75623	0.10974
987.47046	0.10628
986.18469	0.10291
984.89892	0.09964
983.61315	0.09650
982.32738	0.09348
981.04161	0.09059
979.75585	0.08784
978.47008	0.08524
977.18431	0.08279
975.89854	0.08051
974.61277	0.07845
973.32700	0.07662
972.04123	0.07506
970.75546	0.07386
969.46970	0.07311
968.18393	0.07280
966.89816	0.07285
965.61239	0.07310
964.32662	0.07341
963.04085	0.07370
961.75508	0.07390
960.46931	0.07389
959.18354	0.07356
957.89778	0.07284
956.61201	0.07177
955.32624	0.07045
954.04047	0.06900
952.75470	0.06751
951.46893	0.06600
950.18316	0.06448
948.89739	0.06293
947.61163	0.06140
946.32586	0.05992
945.04009	0.05852
943.75432	0.05718
942.46855	0.05586
941.18278	0.05460
939.89701	0.05342
938.61124	0.05237
937.32547	0.05140
936.03971	0.05042
934.75394	0.04939
933.46817	0.04834
932.18240	0.04735
930.89663	0.04652
929.61086	0.04583
928.32509	0.04518
927.03932	0.04451
925.75356	0.04380
924.46779	0.04311
923.18202	0.04249
921.89625	0.04196
920.61048	0.04149
919.32471	0.04104
918.03894	0.04058
916.75317	0.04010
915.46740	0.03963
914.18164	0.03919
912.89587	0.03874
911.61010	0.03830
910.32433	0.03793
909.03856	0.03766
907.75279	0.03744
906.46702	0.03713
905.18125	0.03667
903.89549	0.03613
902.60972	0.03563
901.32395	0.03526
900.03818	0.03502
898.75241	0.03487
897.46664	0.03476
896.18087	0.03460
894.89510	0.03433
893.60933	0.03399
892.32357	0.03365
891.03780	0.03339
889.75203	0.03322
888.46626	0.03315
887.18049	0.03327
885.89472	0.03370
884.60895	0.03457
883.32318	0.03589
882.03742	0.03751
880.75165	0.03912
879.46588	0.04044
878.18011	0.04138
876.89434	0.04208
875.60857	0.04276
874.32280	0.04348
873.03703	0.04412
871.75126	0.04449
870.46550	0.04447
869.17973	0.04403
867.89396	0.04324
866.60819	0.04222
865.32242	0.04104
864.03665	0.03978
862.75088	0.03854
861.46511	0.03744
860.17935	0.03651
858.89358	0.03568
857.60781	0.03489
856.32204	0.03412
855.03627	0.03345
853.75050	0.03290
852.46473	0.03246
851.17896	0.03207
849.89319	0.03169
848.60743	0.03130
847.32166	0.03094
846.03589	0.03060
844.75012	0.03030
843.46435	0.03000
842.17858	0.02976
840.89281	0.02961
839.60704	0.02957
838.32128	0.02956
837.03551	0.02948
835.74974	0.02929
834.46397	0.02902
833.17820	0.02879
831.89243	0.02865
830.60666	0.02859
829.32089	0.02858
828.03512	0.02858
826.74936	0.02853
825.46359	0.02843
824.17782	0.02830
822.89205	0.02820
821.60628	0.02816
820.32051	0.02812
819.03474	0.02806
817.74897	0.02800
816.46321	0.02798
815.17744	0.02805
813.89167	0.02819
812.60590	0.02834
811.32013	0.02840
810.03436	0.02833
808.74859	0.02817
807.46282	0.02799
806.17705	0.02786
804.89129	0.02781
803.60552	0.02783
802.31975	0.02790
801.03398	0.02800
799.74821	0.02805
798.46244	0.02805
797.17667	0.02802
795.89090	0.02799
794.60513	0.02797
793.31937	0.02794
792.03360	0.02790
790.74783	0.02785
789.46206	0.02782
788.17629	0.02778
786.89052	0.02772
785.60475	0.02761
784.31898	0.02747
783.03322	0.02734
781.74745	0.02725
780.46168	0.02721
779.17591	0.02726
777.89014	0.02739
776.60437	0.02758
775.31860	0.02775
774.03283	0.02785
772.74706	0.02788
771.46130	0.02788
770.17553	0.02787
768.88976	0.02786
767.60399	0.02782
766.31822	0.02782
765.03245	0.02789
763.74668	0.02800
762.46091	0.02808
761.17515	0.02813
759.88938	0.02816
758.60361	0.02822
757.31784	0.02826
756.03207	0.02825
754.74630	0.02823
753.46053	0.02825
752.17476	0.02833
750.88899	0.02838
749.60323	0.02838
748.31746	0.02834
747.03169	0.02833
745.74592	0.02832
744.46015	0.02826
743.17438	0.02812
741.88861	0.02793
740.60284	0.02778
739.31708	0.02774
738.03131	0.02783
736.74554	0.02799
735.45977	0.02816
734.17400	0.02832
732.88823	0.02841
731.60246	0.02842
730.31669	0.02836
729.03092	0.02831
727.74516	0.02831
726.45939	0.02835
725.17362	0.02836
723.88785	0.02829
722.60208	0.02829
721.31631	0.02832
720.03054	0.02833
718.74477	0.02834
717.45901	0.02836
716.17324	0.02835
714.88747	0.02828
713.60170	0.02814
712.31593	0.02800
711.03016	0.02794
709.74439	0.02801
708.45862	0.02819
707.17285	0.02842
705.88709	0.02858
704.60132	0.02866
703.31555	0.02868
702.02978	0.02871
700.74401	0.02876
699.45824	0.02879
698.17247	0.02874
696.88670	0.02865
695.60094	0.02859
694.31517	0.02856
693.02940	0.02855
691.74363	0.02853
690.45786	0.02852
689.17209	0.02855
687.88632	0.02855
686.60055	0.02846
685.31478	0.02827
684.02902	0.02813
682.74325	0.02813
681.45748	0.02822
680.17171	0.02824
678.88594	0.02814
677.60017	0.02803
676.31440	0.02805
675.02863	0.02815
673.74287	0.02824
672.45710	0.02831
671.17133	0.02842
669.88556	0.02865
668.59979	0.02872
667.31402	0.02842
666.02825	0.02841
664.74248	0.02828
663.45671	0.02810
662.17095	0.02796
660.88518	0.02785
659.59941	0.02778
658.31364	0.02776
657.02787	0.02778
655.74210	0.02776
654.45633	0.02766
653.17056	0.02749
651.88480	0.02733
650.59903	0.02722
649.31326	0.02721
648.02749	0.02727
646.74172	0.02732
645.45595	0.02735
644.17018	0.02734
642.88441	0.02727
641.59864	0.02720
640.31288	0.02715
639.02711	0.02715
637.74134	0.02723
636.45557	0.02736
635.16980	0.02751
633.88403	0.02766
632.59826	0.02781
631.31249	0.02794
630.02673	0.02789
628.74096	0.02774
627.45519	0.02810
626.16942	0.02823
624.88365	0.02847
623.59788	0.02912
622.31211	0.03008
621.02634	0.03130
619.74057	0.03292
618.45481	0.03509
617.16904	0.03793
615.88327	0.04158
614.59750	0.04595
613.31173	0.05051
612.02596	0.05458
610.74019	0.05771
609.45442	0.05989
608.16866	0.06142
606.88289	0.06276
605.59712	0.06440
604.31135	0.06648
603.02558	0.06868
601.73981	0.07040
600.45404	0.07116
599.16827	0.07085
597.88250	0.06962
596.59674	0.06780
595.31097	0.06575
594.02520	0.06381
592.73943	0.06214
591.45366	0.06083
590.16789	0.05990
588.88212	0.05941
587.59635	0.05937
586.31059	0.05978
585.02482	0.06061
583.73905	0.06185
582.45328	0.06341
581.16751	0.06514
579.88174	0.06689
578.59597	0.06859
577.31020	0.07031
576.02443	0.07212
574.73867	0.07401
573.45290	0.07588
572.16713	0.07767
570.88136	0.07951
569.59559	0.08160
568.30982	0.08406
567.02405	0.08678
565.73828	0.08954
564.45251	0.09209
563.16675	0.09421
561.88098	0.09561
560.59521	0.09594
559.30944	0.09507
558.02367	0.09316
556.73790	0.09046
555.45213	0.08722
554.16636	0.08362
552.88060	0.07987
551.59483	0.07620
550.30906	0.07282
549.02329	0.06981
547.73752	0.06715
546.45175	0.06475
545.16598	0.06250
543.88021	0.06033
542.59444	0.05828
541.30868	0.05638
540.02291	0.05465
538.73714	0.05306
537.45137	0.05161
536.16560	0.05029
534.87983	0.04916
533.59406	0.04818
532.30829	0.04728
531.02253	0.04636
529.73676	0.04541
528.45099	0.04449
527.16522	0.04366
525.87945	0.04287
524.59368	0.04206
523.30791	0.04121
522.02214	0.04041
520.73637	0.03970
519.45061	0.03903
518.16484	0.03832
516.87907	0.03756
515.59330	0.03685
514.30753	0.03625
513.02176	0.03575
511.73599	0.03529
510.45022	0.03483
509.16446	0.03438
507.87869	0.03395
506.59292	0.03354
505.30715	0.03317
504.02138	0.03288
502.73561	0.03268
501.44984	0.03247
500.16407	0.03215
498.87830	0.03169
497.59254	0.03114
496.30677	0.03058
495.02100	0.03007
493.73523	0.02964
492.44946	0.02929
491.16369	0.02899
489.87792	0.02873
488.59215	0.02852
487.30639	0.02836
486.02062	0.02826
484.73485	0.02824
483.44908	0.02828
482.16331	0.02835
480.87754	0.02843
479.59177	0.02848
478.30600	0.02849
477.02023	0.02846
475.73447	0.02839
474.44870	0.02831
473.16293	0.02824
471.87716	0.02815
470.59139	0.02800
469.30562	0.02778
468.01985	0.02753
466.73408	0.02732
465.44832	0.02719
464.16255	0.02709
462.87678	0.02693
461.59101	0.02666
460.30524	0.02632
459.01947	0.02597
457.73370	0.02564
456.44793	0.02535
455.16216	0.02507
453.87640	0.02482
452.59063	0.02460
451.30486	0.02439
450.01909	0.02417
448.73332	0.02394
447.44755	0.02371
446.16178	0.02352
444.87601	0.02341
443.59025	0.02336
442.30448	0.02331
441.01871	0.02321
439.73294	0.02303
438.44717	0.02281
437.16140	0.02259
435.87563	0.02240
434.58986	0.02224
433.30409	0.02214
432.01833	0.02212
430.73256	0.02213
429.44679	0.02210
428.16102	0.02198
426.87525	0.02176
425.58948	0.02150
424.30371	0.02128
423.01794	0.02114
421.73218	0.02108
420.44641	0.02103
419.16064	0.02095
417.87487	0.02081
416.58910	0.02060
415.30333	0.02038
414.01756	0.02019
412.73179	0.02004
411.44602	0.01996
410.16026	0.01992
408.87449	0.01990
407.58872	0.01988
406.30295	0.01987
405.01718	0.01987
403.73141	0.01990
402.44564	0.01994
401.15987	0.01998
399.87411	0.02001
