3997.45528	0.05231
3996.16951	0.05191
3994.88374	0.05155
3993.59798	0.05145
3992.31221	0.05153
3991.02644	0.05147
3989.74067	0.05109
3988.45490	0.05068
3987.16913	0.05066
3985.88336	0.05117
3984.59759	0.05192
3983.31183	0.05239
3982.02606	0.05229
3980.74029	0.05167
3979.45452	0.05078
3978.16875	0.04985
3976.88298	0.04897
3975.59721	0.04819
3974.31144	0.04772
3973.02567	0.04791
3971.73991	0.04895
3970.45414	0.05055
3969.16837	0.05195
3967.88260	0.05243
3966.59683	0.05183
3965.31106	0.05067
3964.02529	0.04974
3962.73952	0.04953
3961.45376	0.04992
3960.16799	0.05032
3958.88222	0.05014
3957.59645	0.04926
3956.31068	0.04801
3955.02491	0.04680
3953.73914	0.04585
3952.45337	0.04522
3951.16760	0.04500
3949.88184	0.04528
3948.59607	0.04593
3947.31030	0.04666
3946.02453	0.04720
3944.73876	0.04741
3943.45299	0.04725
3942.16722	0.04683
3940.88145	0.04639
3939.59569	0.04622
3938.30992	0.04647
3937.02415	0.04707
3935.73838	0.04780
3934.45261	0.04842
3933.16684	0.04880
3931.88107	0.04893
3930.59530	0.04881
3929.30953	0.04855
3928.02377	0.04837
3926.73800	0.04845
3925.45223	0.04863
3924.16646	0.04861
3922.88069	0.04834
3921.59492	0.04807
3920.30915	0.04801
3919.02338	0.04810
3917.73762	0.04819
3916.45185	0.04817
3915.16608	0.04794
3913.88031	0.04745
3912.59454	0.04674
3911.30877	0.04598
3910.02300	0.04541
3908.73723	0.04522
3907.45146	0.04542
3906.16570	0.04571
3904.87993	0.04583
3903.59416	0.04580
3902.30839	0.04597
3901.02262	0.04657
3899.73685	0.04727
3898.45108	0.04741
3897.16531	0.04663
3895.87955	0.04525
3894.59378	0.04407
3893.30801	0.04367
3892.02224	0.04403
3890.73647	0.04463
3889.45070	0.04505
3888.16493	0.04518
3886.87916	0.04522
3885.59339	0.04535
3884.30763	0.04559
3883.02186	0.04575
3881.73609	0.04560
3880.45032	0.04511
3879.16455	0.04459
3877.87878	0.04446
3876.59301	0.04486
3875.30724	0.04545
3874.02148	0.04568
3872.73571	0.04532
3871.44994	0.04465
3870.16417	0.04426
3868.87840	0.04458
3867.59263	0.04547
3866.30686	0.04639
3865.02109	0.04682
3863.73532	0.04666
3862.44956	0.04631
3861.16379	0.04619
3859.87802	0.04631
3858.59225	0.04633
3857.30648	0.04605
3856.02071	0.04573
3854.73494	0.04581
3853.44917	0.04635
3852.16341	0.04687
3850.87764	0.04696
3849.59187	0.04661
3848.30610	0.04611
3847.02033	0.04559
3845.73456	0.04503
3844.44879	0.04448
3843.16302	0.04408
3841.87725	0.04400
3840.59149	0.04424
3839.30572	0.04473
3838.01995	0.04545
3836.73418	0.04621
3835.44841	0.04664
3834.16264	0.04632
3832.87687	0.04523
3831.59110	0.04383
3830.30534	0.04271
3829.01957	0.04217
3827.73380	0.04221
3826.44803	0.04269
3825.16226	0.04336
3823.87649	0.04387
3822.59072	0.04384
3821.30495	0.04321
3820.01918	0.04230
3818.73342	0.04159
3817.44765	0.04134
3816.16188	0.04156
3814.87611	0.04212
3813.59034	0.04293
3812.30457	0.04385
3811.01880	0.04460
3809.73303	0.04480
3808.44726	0.04430
3807.16150	0.04331
3805.87573	0.04230
3804.58996	0.04166
3803.30419	0.04150
3802.01842	0.04166
3800.73265	0.04189
3799.44688	0.04205
3798.16111	0.04211
3796.87535	0.04214
3795.58958	0.04213
3794.30381	0.04196
3793.01804	0.04155
3791.73227	0.04108
3790.44650	0.04086
3789.16073	0.04099
3787.87496	0.04129
3786.58919	0.04152
3785.30343	0.04160
3784.01766	0.04160
3782.73189	0.04158
3781.44612	0.04152
3780.16035	0.04136
3778.87458	0.04114
3777.58881	0.04098
3776.30304	0.04105
3775.01728	0.04137
3773.73151	0.04185
3772.44574	0.04237
3771.15997	0.04284
3769.87420	0.04317
3768.58843	0.04328
3767.30266	0.04322
3766.01689	0.04308
3764.73112	0.04285
3763.44536	0.04243
3762.15959	0.04188
3760.87382	0.04147
3759.58805	0.04143
3758.30228	0.04163
3757.01651	0.04163
3755.73074	0.04121
3754.44497	0.04054
3753.15921	0.04011
3751.87344	0.04027
3750.58767	0.04090
3749.30190	0.04160
3748.01613	0.04215
3746.73036	0.04266
3745.44459	0.04327
3744.15882	0.04372
3742.87305	0.04362
3741.58729	0.04300
3740.30152	0.04233
3739.01575	0.04198
3737.72998	0.04191
3736.44421	0.04179
3735.15844	0.04142
3733.87267	0.04086
3732.58690	0.04035
3731.30114	0.04016
3730.01537	0.04033
3728.72960	0.04059
3727.44383	0.04070
3726.15806	0.04068
3724.87229	0.04069
3723.58652	0.04083
3722.30075	0.04103
3721.01498	0.04121
3719.72922	0.04134
3718.44345	0.04143
3717.15768	0.04145
3715.87191	0.04130
3714.58614	0.04093
3713.30037	0.04030
3712.01460	0.03945
3710.72883	0.03849
3709.44307	0.03777
3708.15730	0.03770
3706.87153	0.03830
3705.58576	0.03907
3704.29999	0.03941
3703.01422	0.03923
3701.72845	0.03902
3700.44268	0.03926
3699.15691	0.03998
3697.87115	0.04071
3696.58538	0.04098
3695.29961	0.04077
3694.01384	0.04042
3692.72807	0.04016
3691.44230	0.03984
3690.15653	0.03923
3688.87076	0.03861
3687.58500	0.03849
3686.29923	0.03903
3685.01346	0.03978
3683.72769	0.04013
3682.44192	0.03988
3681.15615	0.03927
3679.87038	0.03865
3678.58461	0.03829
3677.29884	0.03835
3676.01308	0.03881
3674.72731	0.03955
3673.44154	0.04046
3672.15577	0.04138
3670.87000	0.04209
3669.58423	0.04231
3668.29846	0.04187
3667.01269	0.04088
3665.72693	0.03977
3664.44116	0.03912
3663.15539	0.03931
3661.86962	0.04018
3660.58385	0.04114
3659.29808	0.04169
3658.01231	0.04181
3656.72654	0.04188
3655.44077	0.04211
3654.15501	0.04247
3652.86924	0.04278
3651.58347	0.04297
3650.29770	0.04312
3649.01193	0.04327
3647.72616	0.04333
3646.44039	0.04322
3645.15462	0.04305
3643.86886	0.04305
3642.58309	0.04327
3641.29732	0.04357
3640.01155	0.04384
3638.72578	0.04414
3637.44001	0.04444
3636.15424	0.04450
3634.86847	0.04404
3633.58270	0.04318
3632.29694	0.04242
3631.01117	0.04225
3629.72540	0.04284
3628.43963	0.04394
3627.15386	0.04516
3625.86809	0.04613
3624.58232	0.04673
3623.29655	0.04710
3622.01079	0.04759
3620.72502	0.04837
3619.43925	0.04918
3618.15348	0.04955
3616.86771	0.04928
3615.58194	0.04861
3614.29617	0.04794
3613.01040	0.04745
3611.72463	0.04720
3610.43887	0.04730
3609.15310	0.04786
3607.86733	0.04873
3606.58156	0.04951
3605.29579	0.04979
3604.01002	0.04961
3602.72425	0.04946
3601.43848	0.04983
3600.15272	0.05074
3598.86695	0.05174
3597.58118	0.05244
3596.29541	0.05279
3595.00964	0.05298
3593.72387	0.05300
3592.43810	0.05270
3591.15233	0.05227
3589.86656	0.05222
3588.58080	0.05279
3587.29503	0.05355
3586.00926	0.05388
3584.72349	0.05373
3583.43772	0.05356
3582.15195	0.05369
3580.86618	0.05395
3579.58041	0.05395
3578.29464	0.05367
3577.00888	0.05347
3575.72311	0.05377
3574.43734	0.05470
3573.15157	0.05599
3571.86580	0.05716
3570.58003	0.05781
3569.29426	0.05786
3568.00849	0.05743
3566.72273	0.05691
3565.43696	0.05669
3564.15119	0.05695
3562.86542	0.05756
3561.57965	0.05814
3560.29388	0.05842
3559.00811	0.05830
3557.72234	0.05791
3556.43657	0.05749
3555.15081	0.05724
3553.86504	0.05728
3552.57927	0.05753
3551.29350	0.05776
3550.00773	0.05779
3548.72196	0.05773
3547.43619	0.05790
3546.15042	0.05849
3544.86466	0.05926
3543.57889	0.05976
3542.29312	0.05983
3541.00735	0.05972
3539.72158	0.05972
3538.43581	0.05980
3537.15004	0.05972
3535.86427	0.05936
3534.57850	0.05887
3533.29274	0.05860
3532.00697	0.05880
3530.72120	0.05943
3529.43543	0.06029
3528.14966	0.06118
3526.86389	0.06197
3525.57812	0.06254
3524.29235	0.06272
3523.00659	0.06253
3521.72082	0.06221
3520.43505	0.06204
3519.14928	0.06213
3517.86351	0.06245
3516.57774	0.06284
3515.29197	0.06315
3514.00620	0.06328
3512.72043	0.06327
3511.43467	0.06324
3510.14890	0.06324
3508.86313	0.06331
3507.57736	0.06357
3506.29159	0.06411
3505.00582	0.06482
3503.72005	0.06544
3502.43428	0.06576
3501.14852	0.06578
3499.86275	0.06563
3498.57698	0.06532
3497.29121	0.06483
3496.00544	0.06425
3494.71967	0.06387
3493.43390	0.06399
3492.14813	0.06465
3490.86236	0.06562
3489.57660	0.06655
3488.29083	0.06716
3487.00506	0.06729
3485.71929	0.06691
3484.43352	0.06612
3483.14775	0.06515
3481.86198	0.06440
3480.57621	0.06425
3479.29045	0.06481
3478.00468	0.06579
3476.71891	0.06675
3475.43314	0.06736
3474.14737	0.06767
3472.86160	0.06789
3471.57583	0.06821
3470.29006	0.06862
3469.00429	0.06905
3467.71853	0.06951
3466.43276	0.07004
3465.14699	0.07050
3463.86122	0.07060
3462.57545	0.07027
3461.28968	0.06981
3460.00391	0.06967
3458.71814	0.06999
3457.43238	0.07055
3456.14661	0.07111
3454.86084	0.07154
3453.57507	0.07174
3452.28930	0.07157
3451.00353	0.07106
3449.71776	0.07049
3448.43199	0.07023
3447.14622	0.07045
3445.86046	0.07105
3444.57469	0.07178
3443.28892	0.07237
3442.00315	0.07270
3440.71738	0.07282
3439.43161	0.07275
3438.14584	0.07242
3436.86007	0.07182
3435.57431	0.07115
3434.28854	0.07080
3433.00277	0.07095
3431.71700	0.07150
3430.43123	0.07224
3429.14546	0.07302
3427.85969	0.07375
3426.57392	0.07433
3425.28815	0.07469
3424.00239	0.07481
3422.71662	0.07469
3421.43085	0.07434
3420.14508	0.07386
3418.85931	0.07346
3417.57354	0.07328
3416.28777	0.07334
3415.00200	0.07355
3413.71624	0.07373
3412.43047	0.07374
3411.14470	0.07356
3409.85893	0.07336
3408.57316	0.07333
3407.28739	0.07347
3406.00162	0.07365
3404.71585	0.07380
3403.43008	0.07393
3402.14432	0.07398
3400.85855	0.07387
3399.57278	0.07372
3398.28701	0.07370
3397.00124	0.07394
3395.71547	0.07437
3394.42970	0.07480
3393.14393	0.07507
3391.85817	0.07519
3390.57240	0.07523
3389.28663	0.07516
3388.00086	0.07490
3386.71509	0.07441
3385.42932	0.07383
3384.14355	0.07344
3382.85778	0.07344
3381.57201	0.07373
3380.28625	0.07405
3379.00048	0.07423
3377.71471	0.07439
3376.42894	0.07466
3375.14317	0.07495
3373.85740	0.07498
3372.57163	0.07469
3371.28586	0.07433
3370.00010	0.07423
3368.71433	0.07458
3367.42856	0.07529
3366.14279	0.07608
3364.85702	0.07655
3363.57125	0.07651
3362.28548	0.07608
3360.99971	0.07558
3359.71394	0.07528
3358.42818	0.07518
3357.14241	0.07520
3355.85664	0.07528
3354.57087	0.07539
3353.28510	0.07546
3351.99933	0.07551
3350.71356	0.07559
3349.42779	0.07568
3348.14202	0.07562
3346.85626	0.07519
3345.57049	0.07442
3344.28472	0.07365
3342.99895	0.07329
3341.71318	0.07353
3340.42741	0.07420
3339.14164	0.07496
3337.85587	0.07551
3336.57011	0.07576
3335.28434	0.07573
3333.99857	0.07552
3332.71280	0.07531
3331.42703	0.07528
3330.14126	0.07543
3328.85549	0.07565
3327.56972	0.07577
3326.28395	0.07572
3324.99819	0.07545
3323.71242	0.07496
3322.42665	0.07432
3321.14088	0.07379
3319.85511	0.07363
3318.56934	0.07393
3317.28357	0.07455
3315.99780	0.07518
3314.71204	0.07558
3313.42627	0.07570
3312.14050	0.07558
3310.85473	0.07527
3309.56896	0.07483
3308.28319	0.07435
3306.99742	0.07389
3305.71165	0.07342
3304.42588	0.07290
3303.14012	0.07246
3301.85435	0.07235
3300.56858	0.07266
3299.28281	0.07313
3297.99704	0.07339
3296.71127	0.07331
3295.42550	0.07315
3294.13973	0.07319
3292.85397	0.07353
3291.56820	0.07401
3290.28243	0.07430
3288.99666	0.07409
3287.71089	0.07332
3286.42512	0.07227
3285.13935	0.07144
3283.85358	0.07110
3282.56781	0.07122
3281.28205	0.07153
3279.99628	0.07185
3278.71051	0.07211
3277.42474	0.07226
3276.13897	0.07219
3274.85320	0.07182
3273.56743	0.07127
3272.28166	0.07080
3270.99590	0.07064
3269.71013	0.07077
3268.42436	0.07097
3267.13859	0.07107
3265.85282	0.07106
3264.56705	0.07104
3263.28128	0.07104
3261.99551	0.07115
3260.70974	0.07150
3259.42398	0.07213
3258.13821	0.07278
3256.85244	0.07307
3255.56667	0.07284
3254.28090	0.07224
3252.99513	0.07159
3251.70936	0.07111
3250.42359	0.07087
3249.13783	0.07093
3247.85206	0.07129
3246.56629	0.07180
3245.28052	0.07220
3243.99475	0.07229
3242.70898	0.07207
3241.42321	0.07170
3240.13744	0.07138
3238.85167	0.07118
3237.56591	0.07102
3236.28014	0.07076
3234.99437	0.07029
3233.70860	0.06966
3232.42283	0.06905
3231.13706	0.06871
3229.85129	0.06878
3228.56552	0.06913
3227.27976	0.06949
3225.99399	0.06970
3224.70822	0.06981
3223.42245	0.06996
3222.13668	0.07024
3220.85091	0.07060
3219.56514	0.07092
3218.27937	0.07109
3216.99360	0.07106
3215.70784	0.07080
3214.42207	0.07026
3213.13630	0.06945
3211.85053	0.06857
3210.56476	0.06795
3209.27899	0.06771
3207.99322	0.06768
3206.70745	0.06762
3205.42169	0.06751
3204.13592	0.06761
3202.85015	0.06812
3201.56438	0.06887
3200.27861	0.06944
3198.99284	0.06957
3197.70707	0.06935
3196.42130	0.06907
3195.13553	0.06887
3193.84977	0.06868
3192.56400	0.06843
3191.27823	0.06816
3189.99246	0.06801
3188.70669	0.06799
3187.42092	0.06800
3186.13515	0.06785
3184.84938	0.06748
3183.56362	0.06704
3182.27785	0.06675
3180.99208	0.06678
3179.70631	0.06708
3178.42054	0.06745
3177.13477	0.06769
3175.84900	0.06768
3174.56323	0.06743
3173.27746	0.06700
3171.99170	0.06645
3170.70593	0.06584
3169.42016	0.06530
3168.13439	0.06495
3166.84862	0.06488
3165.56285	0.06506
3164.27708	0.06545
3162.99131	0.06584
3161.70555	0.06599
3160.41978	0.06576
3159.13401	0.06528
3157.84824	0.06488
3156.56247	0.06481
3155.27670	0.06507
3153.99093	0.06538
3152.70516	0.06553
3151.41939	0.06546
3150.13363	0.06530
3148.84786	0.06510
3147.56209	0.06483
3146.27632	0.06451
3144.99055	0.06423
3143.70478	0.06400
3142.41901	0.06381
3141.13324	0.06368
3139.84748	0.06373
3138.56171	0.06395
3137.27594	0.06422
3135.99017	0.06442
3134.70440	0.06452
3133.41863	0.06457
3132.13286	0.06455
3130.84709	0.06442
3129.56132	0.06414
3128.27556	0.06374
3126.98979	0.06328
3125.70402	0.06294
3124.41825	0.06283
3123.13248	0.06292
3121.84671	0.06308
3120.56094	0.06317
3119.27517	0.06313
3117.98940	0.06301
3116.70364	0.06286
3115.41787	0.06268
3114.13210	0.06239
3112.84633	0.06195
3111.56056	0.06144
3110.27479	0.06104
3108.98902	0.06088
3107.70325	0.06091
3106.41749	0.06105
3105.13172	0.06112
3103.84595	0.06097
3102.56018	0.06059
3101.27441	0.06019
3099.98864	0.06000
3098.70287	0.06008
3097.41710	0.06029
3096.13133	0.06044
3094.84557	0.06042
3093.55980	0.06017
3092.27403	0.05969
3090.98826	0.05910
3089.70249	0.05859
3088.41672	0.05835
3087.13095	0.05842
3085.84518	0.05867
3084.55942	0.05894
3083.27365	0.05905
3081.98788	0.05893
3080.70211	0.05866
3079.41634	0.05834
3078.13057	0.05804
3076.84480	0.05781
3075.55903	0.05777
3074.27326	0.05804
3072.98750	0.05853
3071.70173	0.05894
3070.41596	0.05907
3069.13019	0.05896
3067.84442	0.05878
3066.55865	0.05854
3065.27288	0.05813
3063.98711	0.05756
3062.70135	0.05706
3061.41558	0.05682
3060.12981	0.05684
3058.84404	0.05694
3057.55827	0.05693
3056.27250	0.05675
3054.98673	0.05645
3053.70096	0.05624
3052.41519	0.05627
3051.12943	0.05652
3049.84366	0.05677
3048.55789	0.05675
3047.27212	0.05641
3045.98635	0.05589
3044.70058	0.05542
3043.41481	0.05517
3042.12904	0.05517
3040.84328	0.05531
3039.55751	0.05543
3038.27174	0.05543
3036.98597	0.05528
3035.70020	0.05499
3034.41443	0.05459
3033.12866	0.05421
3031.84289	0.05404
3030.55712	0.05413
3029.27136	0.05435
3027.98559	0.05450
3026.69982	0.05449
3025.41405	0.05436
3024.12828	0.05419
3022.84251	0.05406
3021.55674	0.05401
3020.27097	0.05402
3018.98521	0.05402
3017.69944	0.05392
3016.41367	0.05374
3015.12790	0.05354
3013.84213	0.05339
3012.55636	0.05326
3011.27059	0.05311
3009.98482	0.05296
3008.69905	0.05287
3007.41329	0.05284
3006.12752	0.05278
3004.84175	0.05261
3003.55598	0.05235
3002.27021	0.05208
3000.98444	0.05190
2999.69867	0.05196
2998.41290	0.05212
2997.12714	0.05229
2995.84137	0.05229
2994.55560	0.05209
2993.26983	0.05184
2991.98406	0.05168
2990.69829	0.05156
2989.41252	0.05145
2988.12675	0.05146
2986.84098	0.05171
2985.55522	0.05211
2984.26945	0.05253
2982.98368	0.05297
2981.69791	0.05348
2980.41214	0.05403
2979.12637	0.05451
2977.84060	0.05481
2976.55483	0.05495
2975.26907	0.05503
2973.98330	0.05517
2972.69753	0.05554
2971.41176	0.05623
2970.12599	0.05717
2968.84022	0.05818
2967.55445	0.05903
2966.26868	0.05965
2964.98291	0.06010
2963.69715	0.06042
2962.41138	0.06065
2961.12561	0.06085
2959.83984	0.06106
2958.55407	0.06136
2957.26830	0.06182
2955.98253	0.06246
2954.69676	0.06319
2953.41100	0.06379
2952.12523	0.06409
2950.83946	0.06407
2949.55369	0.06389
2948.26792	0.06372
2946.98215	0.06365
2945.69638	0.06366
2944.41061	0.06364
2943.12484	0.06354
2941.83908	0.06338
2940.55331	0.06325
2939.26754	0.06329
2937.98177	0.06358
2936.69600	0.06405
2935.41023	0.06453
2934.12446	0.06486
2932.83869	0.06508
2931.55293	0.06532
2930.26716	0.06568
2928.98139	0.06616
2927.69562	0.06660
2926.40985	0.06685
2925.12408	0.06688
2923.83831	0.06677
2922.55254	0.06660
2921.26677	0.06638
2919.98101	0.06610
2918.69524	0.06578
2917.40947	0.06540
2916.12370	0.06492
2914.83793	0.06431
2913.55216	0.06361
2912.26639	0.06291
2910.98062	0.06238
2909.69486	0.06208
2908.40909	0.06188
2907.12332	0.06160
2905.83755	0.06115
2904.55178	0.06060
2903.26601	0.06003
2901.98024	0.05942
2900.69447	0.05873
2899.40870	0.05804
2898.12294	0.05751
2896.83717	0.05712
2895.55140	0.05673
2894.26563	0.05624
2892.97986	0.05569
2891.69409	0.05525
2890.40832	0.05499
2889.12255	0.05481
2887.83678	0.05454
2886.55102	0.05414
2885.26525	0.05375
2883.97948	0.05350
2882.69371	0.05339
2881.40794	0.05336
2880.12217	0.05348
2878.83640	0.05381
2877.55063	0.05426
2876.26487	0.05463
2874.97910	0.05478
2873.69333	0.05474
2872.40756	0.05462
2871.12179	0.05451
2869.83602	0.05444
2868.55025	0.05439
2867.26448	0.05434
2865.97871	0.05431
2864.69295	0.05435
2863.40718	0.05441
2862.12141	0.05430
2860.83564	0.05397
2859.54987	0.05358
2858.26410	0.05334
2856.97833	0.05328
2855.69256	0.05323
2854.40680	0.05305
2853.12103	0.05269
2851.83526	0.05219
2850.54949	0.05164
2849.26372	0.05116
2847.97795	0.05076
2846.69218	0.05029
2845.40641	0.04969
2844.12064	0.04910
2842.83488	0.04866
2841.54911	0.04830
2840.26334	0.04781
2838.97757	0.04716
2837.69180	0.04651
2836.40603	0.04599
2835.12026	0.04560
2833.83449	0.04519
2832.54873	0.04464
2831.26296	0.04395
2829.97719	0.04325
2828.69142	0.04275
2827.40565	0.04254
2826.11988	0.04256
2824.83411	0.04266
2823.54834	0.04268
2822.26257	0.04253
2820.97681	0.04218
2819.69104	0.04172
2818.40527	0.04128
2817.11950	0.04099
2815.83373	0.04085
2814.54796	0.04078
2813.26219	0.04071
2811.97642	0.04066
2810.69066	0.04063
2809.40489	0.04055
2808.11912	0.04034
2806.83335	0.04001
2805.54758	0.03962
2804.26181	0.03927
2802.97604	0.03912
2801.69027	0.03921
2800.40450	0.03937
2799.11874	0.03932
2797.83297	0.03895
2796.54720	0.03846
2795.26143	0.03815
2793.97566	0.03813
2792.68989	0.03825
2791.40412	0.03835
2790.11835	0.03839
2788.83259	0.03837
2787.54682	0.03830
2786.26105	0.03821
2784.97528	0.03810
2783.68951	0.03795
2782.40374	0.03775
2781.11797	0.03755
2779.83220	0.03747
2778.54643	0.03754
2777.26067	0.03769
2775.97490	0.03778
2774.68913	0.03777
2773.40336	0.03769
2772.11759	0.03758
2770.83182	0.03741
2769.54605	0.03717
2768.26028	0.03689
2766.97452	0.03662
2765.68875	0.03642
2764.40298	0.03634
2763.11721	0.03637
2761.83144	0.03643
2760.54567	0.03643
2759.25990	0.03632
2757.97413	0.03617
2756.68836	0.03602
2755.40260	0.03592
2754.11683	0.03593
2752.83106	0.03603
2751.54529	0.03618
2750.25952	0.03629
2748.97375	0.03627
2747.68798	0.03617
2746.40221	0.03602
2745.11645	0.03584
2743.83068	0.03563
2742.54491	0.03544
2741.25914	0.03538
2739.97337	0.03548
2738.68760	0.03565
2737.40183	0.03575
2736.11606	0.03569
2734.83029	0.03550
2733.54453	0.03522
2732.25876	0.03492
2730.97299	0.03467
2729.68722	0.03457
2728.40145	0.03462
2727.11568	0.03473
2725.82991	0.03482
2724.54414	0.03482
2723.25838	0.03464
2721.97261	0.03430
2720.68684	0.03396
2719.40107	0.03384
2718.11530	0.03398
2716.82953	0.03421
2715.54376	0.03432
2714.25799	0.03425
2712.97222	0.03410
2711.68646	0.03393
2710.40069	0.03381
2709.11492	0.03373
2707.82915	0.03369
2706.54338	0.03372
2705.25761	0.03383
2703.97184	0.03399
2702.68607	0.03411
2701.40031	0.03407
2700.11454	0.03387
2698.82877	0.03362
2697.54300	0.03344
2696.25723	0.03338
2694.97146	0.03338
2693.68569	0.03338
2692.39992	0.03338
2691.11415	0.03338
2689.82839	0.03334
2688.54262	0.03322
2687.25685	0.03308
2685.97108	0.03300
2684.68531	0.03293
2683.39954	0.03282
2682.11377	0.03265
2680.82800	0.03253
2679.54224	0.03248
2678.25647	0.03247
2676.97070	0.03251
2675.68493	0.03261
2674.39916	0.03271
2673.11339	0.03266
2671.82762	0.03242
2670.54185	0.03216
2669.25608	0.03201
2667.97032	0.03198
2666.68455	0.03193
2665.39878	0.03176
2664.11301	0.03151
2662.82724	0.03132
2661.54147	0.03130
2660.25570	0.03144
2658.96993	0.03159
2657.68417	0.03165
2656.39840	0.03159
2655.11263	0.03139
2653.82686	0.03107
2652.54109	0.03075
2651.25532	0.03053
2649.96955	0.03038
2648.68378	0.03022
2647.39801	0.03008
2646.11225	0.03000
2644.82648	0.03001
2643.54071	0.03004
2642.25494	0.03003
2640.96917	0.02992
2639.68340	0.02962
2638.39763	0.02920
2637.11186	0.02889
2635.82609	0.02887
2634.54033	0.02908
2633.25456	0.02924
2631.96879	0.02919
2630.68302	0.02897
2629.39725	0.02871
2628.11148	0.02844
2626.82571	0.02816
2625.53994	0.02790
2624.25418	0.02771
2622.96841	0.02764
2621.68264	0.02763
2620.39687	0.02765
2619.11110	0.02768
2617.82533	0.02772
2616.53956	0.02776
2615.25379	0.02776
2613.96802	0.02768
2612.68226	0.02753
2611.39649	0.02735
2610.11072	0.02717
2608.82495	0.02705
2607.53918	0.02707
2606.25341	0.02727
2604.96764	0.02757
2603.68187	0.02771
2602.39611	0.02743
2601.11034	0.02678
2599.82457	0.02612
2598.53880	0.02587
2597.25303	0.02607
2595.96726	0.02639
2594.68149	0.02645
2593.39572	0.02618
2592.10995	0.02584
2590.82419	0.02576
2589.53842	0.02599
2588.25265	0.02630
2586.96688	0.02638
2585.68111	0.02622
2584.39534	0.02603
2583.10957	0.02595
2581.82380	0.02601
2580.53804	0.02608
2579.25227	0.02606
2577.96650	0.02593
2576.68073	0.02577
2575.39496	0.02567
2574.10919	0.02563
2572.82342	0.02557
2571.53765	0.02548
2570.25188	0.02551
2568.96612	0.02581
2567.68035	0.02630
2566.39458	0.02663
2565.10881	0.02647
2563.82304	0.02583
2562.53727	0.02506
2561.25150	0.02456
2559.96573	0.02439
2558.67997	0.02434
2557.39420	0.02425
2556.10843	0.02425
2554.82266	0.02453
2553.53689	0.02498
2552.25112	0.02526
2550.96535	0.02511
2549.67958	0.02469
2548.39381	0.02439
2547.10805	0.02440
2545.82228	0.02463
2544.53651	0.02489
2543.25074	0.02501
2541.96497	0.02485
2540.67920	0.02443
2539.39343	0.02394
2538.10766	0.02369
2536.82190	0.02385
2535.53613	0.02420
2534.25036	0.02430
2532.96459	0.02395
2531.67882	0.02338
2530.39305	0.02307
2529.10728	0.02327
2527.82151	0.02380
2526.53574	0.02422
2525.24998	0.02422
2523.96421	0.02384
2522.67844	0.02334
2521.39267	0.02291
2520.10690	0.02260
2518.82113	0.02243
2517.53536	0.02239
2516.24959	0.02239
2514.96383	0.02238
2513.67806	0.02246
2512.39229	0.02283
2511.10652	0.02343
2509.82075	0.02396
2508.53498	0.02406
2507.24921	0.02366
2505.96344	0.02298
2504.67767	0.02245
2503.39191	0.02234
2502.10614	0.02261
2500.82037	0.02293
2499.53460	0.02302
2498.24883	0.02295
2496.96306	0.02295
2495.67729	0.02311
2494.39152	0.02332
2493.10576	0.02344
2491.81999	0.02343
2490.53422	0.02330
2489.24845	0.02308
2487.96268	0.02297
2486.67691	0.02313
2485.39114	0.02348
2484.10537	0.02364
2482.81960	0.02342
2481.53384	0.02302
2480.24807	0.02277
2478.96230	0.02281
2477.67653	0.02306
2476.39076	0.02344
2475.10499	0.02381
2473.81922	0.02396
2472.53345	0.02366
2471.24769	0.02294
2469.96192	0.02210
2468.67615	0.02150
2467.39038	0.02131
2466.10461	0.02145
2464.81884	0.02176
2463.53307	0.02212
2462.24730	0.02239
2460.96153	0.02243
2459.67577	0.02221
2458.39000	0.02188
2457.10423	0.02159
2455.81846	0.02147
2454.53269	0.02156
2453.24692	0.02184
2451.96115	0.02215
2450.67538	0.02225
2449.38962	0.02208
2448.10385	0.02183
2446.81808	0.02173
2445.53231	0.02186
2444.24654	0.02206
2442.96077	0.02210
2441.67500	0.02182
2440.38923	0.02131
2439.10346	0.02083
2437.81770	0.02067
2436.53193	0.02086
2435.24616	0.02109
2433.96039	0.02112
2432.67462	0.02098
2431.38885	0.02090
2430.10308	0.02102
2428.81731	0.02128
2427.53155	0.02153
2426.24578	0.02166
2424.96001	0.02154
2423.67424	0.02115
2422.38847	0.02061
2421.10270	0.02019
2419.81693	0.02014
2418.53116	0.02045
2417.24539	0.02087
2415.95963	0.02112
2414.67386	0.02110
2413.38809	0.02088
2412.10232	0.02063
2410.81655	0.02056
2409.53078	0.02069
2408.24501	0.02087
2406.95924	0.02083
2405.67347	0.02058
2404.38771	0.02038
2403.10194	0.02047
2401.81617	0.02079
2400.53040	0.02113
2399.24463	0.02110
2397.95886	0.02117
2396.67309	0.02112
2395.38732	0.02096
2394.10156	0.02081
2392.81579	0.02068
2391.53002	0.02055
2390.24425	0.02043
2388.95848	0.02034
2387.67271	0.02029
2386.38694	0.02031
2385.10117	0.02038
2383.81540	0.02042
2382.52964	0.02042
2381.24387	0.02043
2379.95810	0.02051
2378.67233	0.02062
2377.38656	0.02066
2376.10079	0.02064
2374.81502	0.02065
2373.52925	0.02075
2372.24349	0.02087
2370.95772	0.02094
2369.67195	0.02096
2368.38618	0.02103
2367.10041	0.02126
2365.81464	0.02164
2364.52887	0.02206
2363.24310	0.02240
2361.95733	0.02261
2360.67157	0.02270
2359.38580	0.02271
2358.10003	0.02264
2356.81426	0.02248
2355.52849	0.02229
2354.24272	0.02213
2352.95695	0.02204
2351.67118	0.02201
2350.38542	0.02196
2349.09965	0.02186
2347.81388	0.02169
2346.52811	0.02151
2345.24234	0.02139
2343.95657	0.02136
2342.67080	0.02143
2341.38503	0.02157
2340.09926	0.02172
2338.81350	0.02182
2337.52773	0.02185
2336.24196	0.02182
2334.95619	0.02175
2333.67042	0.02157
2332.38465	0.02125
2331.09888	0.02086
2329.81311	0.02063
2328.52735	0.02074
2327.24158	0.02118
2325.95581	0.02170
2324.67004	0.02196
2323.38427	0.02181
2322.09850	0.02141
2320.81273	0.02103
2319.52696	0.02084
2318.24119	0.02081
2316.95543	0.02085
2315.66966	0.02094
2314.38389	0.02107
2313.09812	0.02123
2311.81235	0.02133
2310.52658	0.02132
2309.24081	0.02114
2307.95504	0.02081
2306.66928	0.02039
2305.38351	0.02004
2304.09774	0.01986
2302.81197	0.01985
2301.52620	0.01987
2300.24043	0.01983
2298.95466	0.01973
2297.66889	0.01959
2296.38312	0.01945
2295.09736	0.01937
2293.81159	0.01941
2292.52582	0.01958
2291.24005	0.01972
2289.95428	0.01965
2288.66851	0.01934
2287.38274	0.01891
2286.09697	0.01847
2284.81121	0.01807
2283.52544	0.01777
2282.23967	0.01759
2280.95390	0.01748
2279.66813	0.01730
2278.38236	0.01702
2277.09659	0.01673
2275.81082	0.01655
2274.52505	0.01650
2273.23929	0.01656
2271.95352	0.01665
2270.66775	0.01665
2269.38198	0.01652
2268.09621	0.01642
2266.81044	0.01661
2265.52467	0.01713
2264.23890	0.01763
2262.95314	0.01767
2261.66737	0.01717
2260.38160	0.01648
2259.09583	0.01610
2257.81006	0.01625
2256.52429	0.01675
2255.23852	0.01721
2253.95275	0.01731
2252.66698	0.01698
2251.38122	0.01656
2250.09545	0.01647
2248.80968	0.01668
2247.52391	0.01714
2246.23814	0.01725
2244.95237	0.01670
2243.66660	0.01568
2242.38083	0.01455
2241.09507	0.01359
2239.80930	0.01300
2238.52353	0.01293
2237.23776	0.01328
2235.95199	0.01367
2234.66622	0.01384
2233.38045	0.01383
2232.09468	0.01391
2230.80891	0.01412
2229.52315	0.01420
2228.23738	0.01392
2226.95161	0.01338
2225.66584	0.01280
2224.38007	0.01233
2223.09430	0.01211
2221.80853	0.01234
2220.52276	0.01303
2219.23700	0.01371
2217.95123	0.01386
2216.66546	0.01350
2215.37969	0.01309
2214.09392	0.01289
2212.80815	0.01274
2211.52238	0.01244
2210.23661	0.01208
2208.95084	0.01189
2207.66508	0.01204
2206.37931	0.01248
2205.09354	0.01289
2203.80777	0.01294
2202.52200	0.01250
2201.23623	0.01185
2199.95046	0.01145
2198.66469	0.01169
2197.37893	0.01241
2196.09316	0.01291
2194.80739	0.01257
2193.52162	0.01146
2192.23585	0.01032
2190.95008	0.00983
2189.66431	0.01016
2188.37854	0.01101
2187.09277	0.01186
2185.80701	0.01218
2184.52124	0.01174
2183.23547	0.01070
2181.94970	0.00951
2180.66393	0.00858
2179.37816	0.00798
2178.09239	0.00759
2176.80662	0.00731
2175.52085	0.00725
2174.23509	0.00757
2172.94932	0.00815
2171.66355	0.00855
2170.37778	0.00833
2169.09201	0.00752
2167.80624	0.00661
2166.52047	0.00624
2165.23470	0.00670
2163.94894	0.00763
2162.66317	0.00815
2161.37740	0.00752
2160.09163	0.00591
2158.80586	0.00435
2157.52009	0.00380
2156.23432	0.00428
2154.94855	0.00521
2153.66278	0.00608
2152.37702	0.00667
2151.09125	0.00691
2149.80548	0.00688
2148.51971	0.00684
2147.23394	0.00702
2145.94817	0.00733
2144.66240	0.00756
2143.37663	0.00770
2142.09087	0.00789
2140.80510	0.00821
2139.51933	0.00849
2138.23356	0.00859
2136.94779	0.00862
2135.66202	0.00885
2134.37625	0.00948
2133.09048	0.01039
2131.80471	0.01122
2130.51895	0.01164
2129.23318	0.01160
2127.94741	0.01142
2126.66164	0.01142
2125.37587	0.01160
2124.09010	0.01162
2122.80433	0.01112
2121.51856	0.01030
2120.23280	0.00979
2118.94703	0.01007
2117.66126	0.01095
2116.37549	0.01182
2115.08972	0.01223
2113.80395	0.01219
2112.51818	0.01194
2111.23241	0.01172
2109.94664	0.01167
2108.66088	0.01184
2107.37511	0.01202
2106.08934	0.01185
2104.80357	0.01119
2103.51780	0.01036
2102.23203	0.00976
2100.94626	0.00952
2099.66049	0.00888
2098.37473	0.00846
2097.08896	0.00821
2095.80319	0.00797
2094.51742	0.00788
2093.23165	0.00816
2091.94588	0.00879
2090.66011	0.00947
2089.37434	0.00980
2088.08857	0.00961
2086.80281	0.00905
2085.51704	0.00854
2084.23127	0.00836
2082.94550	0.00857
2081.65973	0.00898
2080.37396	0.00929
2079.08819	0.00916
2077.80242	0.00845
2076.51666	0.00737
2075.23089	0.00634
2073.94512	0.00574
2072.65935	0.00573
2071.37358	0.00622
2070.08781	0.00693
2068.80204	0.00751
2067.51627	0.00770
2066.23050	0.00748
2064.94474	0.00712
2063.65897	0.00694
2062.37320	0.00723
2061.08743	0.00798
2059.80166	0.00883
2058.51589	0.00934
2057.23012	0.00929
2055.94435	0.00882
2054.65859	0.00821
2053.37282	0.00752
2052.08705	0.00664
2050.80128	0.00551
2049.51551	0.00442
2048.22974	0.00365
2046.94397	0.00314
2045.65820	0.00258
2044.37243	0.00181
2043.08667	0.00108
2041.80090	0.00070
2040.51513	0.00068
2039.22936	0.00080
2037.94359	0.00089
2036.65782	0.00102
2035.37205	0.00135
2034.08628	0.00191
2032.80052	0.00254
2031.51475	0.00297
2030.22898	0.00317
2028.94321	0.00333
2027.65744	0.00363
2026.37167	0.00400
2025.08590	0.00426
2023.80013	0.00441
2022.51436	0.00465
2021.22860	0.00500
2019.94283	0.00503
2018.65706	0.00427
2017.37129	0.00275
2016.08552	0.00115
2014.79975	0.00021
2013.51398	0.00017
2012.22821	0.00067
2010.94245	0.00126
2009.65668	0.00190
2008.37091	0.00290
2007.08514	0.00444
2005.79937	0.00597
2004.51360	0.00664
2003.22783	0.00615
2001.94206	0.00516
2000.65629	0.00468
1999.37053	0.00521
1998.08476	0.00646
1996.79899	0.00781
1995.51322	0.00874
1994.22745	0.00908
1992.94168	0.00885
1991.65591	0.00809
1990.37014	0.00688
1989.08438	0.00549
1987.79861	0.00436
1986.51284	0.00389
1985.22707	0.00413
1983.94130	0.00458
1982.65553	0.00457
1981.36976	0.00374
1980.08399	0.00241
1978.79822	0.00135
1977.51246	0.00109
1976.22669	0.00154
1974.94092	0.00221
1973.65515	0.00266
1972.36938	0.00285
1971.08361	0.00308
1969.79784	0.00367
1968.51207	0.00461
1967.22631	0.00554
1965.94054	0.00608
1964.65477	0.00621
1963.36900	0.00617
1962.08323	0.00621
1960.79746	0.00637
1959.51169	0.00662
1958.22592	0.00696
1956.94015	0.00737
1955.65439	0.00771
1954.36862	0.00775
1953.08285	0.00750
1951.79708	0.00731
1950.51131	0.00755
1949.22554	0.00821
1947.93977	0.00884
1946.65400	0.00902
1945.36823	0.00879
1944.08247	0.00862
1942.79670	0.00884
1941.51093	0.00931
1940.22516	0.00957
1938.93939	0.00947
1937.65362	0.00925
1936.36785	0.00919
1935.08208	0.00927
1933.79632	0.00936
1932.51055	0.00944
1931.22478	0.00966
1929.93901	0.01009
1928.65324	0.01056
1927.36747	0.01084
1926.08170	0.01081
1924.79593	0.01064
1923.51016	0.01057
1922.22440	0.01063
1920.93863	0.01060
1919.65286	0.01037
1918.36709	0.01008
1917.08132	0.00997
1915.79555	0.01009
1914.50978	0.01029
1913.22401	0.01045
1911.93825	0.01062
1910.65248	0.01085
1909.36671	0.01102
1908.08094	0.01094
1906.79517	0.01062
1905.50940	0.01028
1904.22363	0.01009
1902.93786	0.01005
1901.65209	0.01010
1900.36633	0.01022
1899.08056	0.01044
1897.79479	0.01070
1896.50902	0.01089
1895.22325	0.01090
1893.93748	0.01066
1892.65171	0.01026
1891.36594	0.00989
1890.08018	0.00976
1888.79441	0.00997
1887.50864	0.01039
1886.22287	0.01081
1884.93710	0.01107
1883.65133	0.01116
1882.36556	0.01111
1881.07979	0.01096
1879.79402	0.01076
1878.50826	0.01053
1877.22249	0.01030
1875.93672	0.01010
1874.65095	0.00998
1873.36518	0.01005
1872.07941	0.01034
1870.79364	0.01077
1869.50787	0.01110
1868.22211	0.01115
1866.93634	0.01091
1865.65057	0.01054
1864.36480	0.01022
1863.07903	0.01007
1861.79326	0.01010
1860.50749	0.01028
1859.22172	0.01053
1857.93595	0.01076
1856.65019	0.01091
1855.36442	0.01098
1854.07865	0.01100
1852.79288	0.01095
1851.50711	0.01084
1850.22134	0.01073
1848.93557	0.01063
1847.64980	0.01057
1846.36404	0.01054
1845.07827	0.01056
1843.79250	0.01068
1842.50673	0.01086
1841.22096	0.01102
1839.93519	0.01113
1838.64942	0.01124
1837.36365	0.01139
1836.07788	0.01153
1834.79212	0.01155
1833.50635	0.01145
1832.22058	0.01135
1830.93481	0.01134
1829.64904	0.01141
1828.36327	0.01149
1827.07750	0.01147
1825.79173	0.01134
1824.50597	0.01113
1823.22020	0.01091
1821.93443	0.01078
1820.64866	0.01076
1819.36289	0.01086
1818.07712	0.01105
1816.79135	0.01130
1815.50558	0.01157
1814.21981	0.01181
1812.93405	0.01201
1811.64828	0.01221
1810.36251	0.01243
1809.07674	0.01259
1807.79097	0.01261
1806.50520	0.01253
1805.21943	0.01241
1803.93366	0.01230
1802.64790	0.01219
1801.36213	0.01206
1800.07636	0.01193
1798.79059	0.01187
1797.50482	0.01188
1796.21905	0.01190
1794.93328	0.01191
1793.64751	0.01192
1792.36174	0.01201
1791.07598	0.01217
1789.79021	0.01234
1788.50444	0.01244
1787.21867	0.01249
1785.93290	0.01255
1784.64713	0.01266
1783.36136	0.01276
1782.07559	0.01278
1780.78983	0.01271
1779.50406	0.01260
1778.21829	0.01251
1776.93252	0.01246
1775.64675	0.01248
1774.36098	0.01261
1773.07521	0.01282
1771.78944	0.01307
1770.50367	0.01332
1769.21791	0.01357
1767.93214	0.01382
1766.64637	0.01402
1765.36060	0.01410
1764.07483	0.01403
1762.78906	0.01390
1761.50329	0.01384
1760.21752	0.01392
1758.93176	0.01405
1757.64599	0.01409
1756.36022	0.01399
1755.07445	0.01381
1753.78868	0.01369
1752.50291	0.01370
1751.21714	0.01382
1749.93137	0.01400
1748.64560	0.01419
1747.35984	0.01435
1746.07407	0.01445
1744.78830	0.01447
1743.50253	0.01443
1742.21676	0.01441
1740.93099	0.01444
1739.64522	0.01453
1738.35945	0.01463
1737.07369	0.01473
1735.78792	0.01484
1734.50215	0.01501
1733.21638	0.01525
1731.93061	0.01548
1730.64484	0.01563
1729.35907	0.01571
1728.07330	0.01577
1726.78753	0.01588
1725.50177	0.01607
1724.21600	0.01631
1722.93023	0.01654
1721.64446	0.01670
1720.35869	0.01682
1719.07292	0.01696
1717.78715	0.01720
1716.50138	0.01754
1715.21561	0.01788
1713.92985	0.01814
1712.64408	0.01832
1711.35831	0.01847
1710.07254	0.01863
1708.78677	0.01884
1707.50100	0.01911
1706.21523	0.01941
1704.92946	0.01972
1703.64370	0.02000
1702.35793	0.02029
1701.07216	0.02060
1699.78639	0.02093
1698.50062	0.02123
1697.21485	0.02153
1695.92908	0.02185
1694.64331	0.02218
1693.35754	0.02245
1692.07178	0.02262
1690.78601	0.02271
1689.50024	0.02280
1688.21447	0.02293
1686.92870	0.02309
1685.64293	0.02331
1684.35716	0.02364
1683.07139	0.02407
1681.78563	0.02453
1680.49986	0.02491
1679.21409	0.02518
1677.92832	0.02540
1676.64255	0.02564
1675.35678	0.02597
1674.07101	0.02632
1672.78524	0.02663
1671.49947	0.02685
1670.21371	0.02704
1668.92794	0.02726
1667.64217	0.02750
1666.35640	0.02774
1665.07063	0.02794
1663.78486	0.02811
1662.49909	0.02829
1661.21332	0.02848
1659.92756	0.02864
1658.64179	0.02870
1657.35602	0.02865
1656.07025	0.02854
1654.78448	0.02850
1653.49871	0.02862
1652.21294	0.02891
1650.92717	0.02925
1649.64140	0.02951
1648.35564	0.02968
1647.06987	0.02983
1645.78410	0.03000
1644.49833	0.03015
1643.21256	0.03022
1641.92679	0.03020
1640.64102	0.03014
1639.35525	0.03010
1638.06949	0.03013
1636.78372	0.03021
1635.49795	0.03033
1634.21218	0.03048
1632.92641	0.03068
1631.64064	0.03089
1630.35487	0.03112
1629.06910	0.03134
1627.78333	0.03151
1626.49757	0.03162
1625.21180	0.03166
1623.92603	0.03170
1622.64026	0.03177
1621.35449	0.03187
1620.06872	0.03200
1618.78295	0.03217
1617.49718	0.03241
1616.21142	0.03271
1614.92565	0.03299
1613.63988	0.03318
1612.35411	0.03328
1611.06834	0.03337
1609.78257	0.03351
1608.49680	0.03369
1607.21103	0.03389
1605.92526	0.03406
1604.63950	0.03419
1603.35373	0.03430
1602.06796	0.03443
1600.78219	0.03459
1599.49642	0.03479
1598.21065	0.03501
1596.92488	0.03526
1595.63911	0.03549
1594.35335	0.03566
1593.06758	0.03576
1591.78181	0.03582
1590.49604	0.03591
1589.21027	0.03604
1587.92450	0.03618
1586.63873	0.03632
1585.35296	0.03643
1584.06719	0.03654
1582.78143	0.03667
1581.49566	0.03683
1580.20989	0.03700
1578.92412	0.03718
1577.63835	0.03737
1576.35258	0.03760
1575.06681	0.03785
1573.78104	0.03807
1572.49528	0.03825
1571.20951	0.03841
1569.92374	0.03859
1568.63797	0.03879
1567.35220	0.03901
1566.06643	0.03921
1564.78066	0.03935
1563.49489	0.03939
1562.20912	0.03937
1560.92336	0.03941
1559.63759	0.03961
1558.35182	0.03996
1557.06605	0.04037
1555.78028	0.04073
1554.49451	0.04102
1553.20874	0.04128
1551.92297	0.04151
1550.63721	0.04169
1549.35144	0.04184
1548.06567	0.04195
1546.77990	0.04201
1545.49413	0.04199
1544.20836	0.04190
1542.92259	0.04178
1541.63682	0.04169
1540.35105	0.04168
1539.06529	0.04174
1537.77952	0.04180
1536.49375	0.04181
1535.20798	0.04184
1533.92221	0.04197
1532.63644	0.04224
1531.35067	0.04258
1530.06490	0.04293
1528.77914	0.04329
1527.49337	0.04369
1526.20760	0.04418
1524.92183	0.04474
1523.63606	0.04537
1522.35029	0.04605
1521.06452	0.04682
1519.77875	0.04766
1518.49298	0.04857
1517.20722	0.04954
1515.92145	0.05058
1514.63568	0.05167
1513.34991	0.05277
1512.06414	0.05388
1510.77837	0.05501
1509.49260	0.05618
1508.20683	0.05743
1506.92107	0.05875
1505.63530	0.06009
1504.34953	0.06136
1503.06376	0.06245
1501.77799	0.06337
1500.49222	0.06417
1499.20645	0.06493
1497.92068	0.06571
1496.63491	0.06648
1495.34915	0.06722
1494.06338	0.06790
1492.77761	0.06857
1491.49184	0.06928
1490.20607	0.07007
1488.92030	0.07096
1487.63453	0.07193
1486.34876	0.07298
1485.06299	0.07412
1483.77723	0.07534
1482.49146	0.07662
1481.20569	0.07792
1479.91992	0.07919
1478.63415	0.08041
1477.34838	0.08155
1476.06261	0.08259
1474.77684	0.08352
1473.49108	0.08435
1472.20531	0.08514
1470.91954	0.08589
1469.63377	0.08655
1468.34800	0.08707
1467.06223	0.08744
1465.77646	0.08772
1464.49069	0.08798
1463.20492	0.08823
1461.91916	0.08845
1460.63339	0.08866
1459.34762	0.08893
1458.06185	0.08933
1456.77608	0.08984
1455.49031	0.09038
1454.20454	0.09089
1452.91877	0.09134
1451.63301	0.09173
1450.34724	0.09207
1449.06147	0.09233
1447.77570	0.09248
1446.48993	0.09248
1445.20416	0.09228
1443.91839	0.09189
1442.63262	0.09138
1441.34685	0.09084
1440.06109	0.09039
1438.77532	0.09006
1437.48955	0.08990
1436.20378	0.08988
1434.91801	0.09000
1433.63224	0.09031
1432.34647	0.09086
1431.06070	0.09172
1429.77494	0.09287
1428.48917	0.09422
1427.20340	0.09568
1425.91763	0.09719
1424.63186	0.09870
1423.34609	0.10015
1422.06032	0.10154
1420.77455	0.10283
1419.48878	0.10402
1418.20302	0.10508
1416.91725	0.10595
1415.63148	0.10658
1414.34571	0.10695
1413.05994	0.10706
1411.77417	0.10696
1410.48840	0.10667
1409.20263	0.10619
1407.91687	0.10549
1406.63110	0.10450
1405.34533	0.10322
1404.05956	0.10168
1402.77379	0.09992
1401.48802	0.09799
1400.20225	0.09594
1398.91648	0.09383
1397.63071	0.09168
1396.34495	0.08950
1395.05918	0.08727
1393.77341	0.08502
1392.48764	0.08277
1391.20187	0.08056
1389.91610	0.07838
1388.63033	0.07628
1387.34456	0.07424
1386.05880	0.07226
1384.77303	0.07028
1383.48726	0.06831
1382.20149	0.06636
1380.91572	0.06444
1379.62995	0.06253
1378.34418	0.06059
1377.05841	0.05858
1375.77264	0.05649
1374.48688	0.05438
1373.20111	0.05230
1371.91534	0.05028
1370.62957	0.04837
1369.34380	0.04656
1368.05803	0.04491
1366.77226	0.04339
1365.48649	0.04200
1364.20073	0.04066
1362.91496	0.03935
1361.62919	0.03808
1360.34342	0.03691
1359.05765	0.03585
1357.77188	0.03490
1356.48611	0.03402
1355.20034	0.03319
1353.91457	0.03240
1352.62881	0.03166
1351.34304	0.03096
1350.05727	0.03029
1348.77150	0.02966
1347.48573	0.02906
1346.19996	0.02848
1344.91419	0.02792
1343.62842	0.02738
1342.34266	0.02687
1341.05689	0.02641
1339.77112	0.02601
1338.48535	0.02565
1337.19958	0.02531
1335.91381	0.02500
1334.62804	0.02472
1333.34227	0.02448
1332.05650	0.02426
1330.77074	0.02406
1329.48497	0.02385
1328.19920	0.02361
1326.91343	0.02336
1325.62766	0.02311
1324.34189	0.02287
1323.05612	0.02265
1321.77035	0.02242
1320.48459	0.02219
1319.19882	0.02199
1317.91305	0.02181
1316.62728	0.02165
1315.34151	0.02148
1314.05574	0.02132
1312.76997	0.02115
1311.48420	0.02098
1310.19843	0.02080
1308.91267	0.02064
1307.62690	0.02049
1306.34113	0.02036
1305.05536	0.02025
1303.76959	0.02015
1302.48382	0.02006
1301.19805	0.01999
1299.91228	0.01994
1298.62652	0.01991
1297.34075	0.01983
1296.05498	0.01969
1294.76921	0.01949
1293.48344	0.01929
1292.19767	0.01914
1290.91190	0.01906
1289.62613	0.01902
1288.34036	0.01895
1287.05460	0.01883
1285.76883	0.01868
1284.48306	0.01852
1283.19729	0.01839
1281.91152	0.01829
1280.62575	0.01822
1279.33998	0.01815
1278.05421	0.01808
1276.76845	0.01798
1275.48268	0.01786
1274.19691	0.01775
1272.91114	0.01765
1271.62537	0.01756
1270.33960	0.01749
1269.05383	0.01743
1267.76806	0.01739
1266.48229	0.01736
1265.19653	0.01734
1263.91076	0.01732
1262.62499	0.01728
1261.33922	0.01721
1260.05345	0.01712
1258.76768	0.01704
1257.48191	0.01696
1256.19614	0.01688
1254.91037	0.01679
1253.62461	0.01667
1252.33884	0.01654
1251.05307	0.01640
1249.76730	0.01629
1248.48153	0.01623
1247.19576	0.01620
1245.90999	0.01619
1244.62422	0.01615
1243.33846	0.01607
1242.05269	0.01595
1240.76692	0.01582
1239.48115	0.01569
1238.19538	0.01558
1236.90961	0.01551
1235.62384	0.01550
1234.33807	0.01556
1233.05230	0.01562
1231.76654	0.01565
1230.48077	0.01561
1229.19500	0.01552
1227.90923	0.01541
1226.62346	0.01530
1225.33769	0.01524
1224.05192	0.01521
1222.76615	0.01523
1221.48039	0.01529
1220.19462	0.01538
1218.90885	0.01547
1217.62308	0.01551
1216.33731	0.01549
1215.05154	0.01544
1213.76577	0.01539
1212.48000	0.01536
1211.19423	0.01531
1209.90847	0.01526
1208.62270	0.01520
1207.33693	0.01518
1206.05116	0.01519
1204.76539	0.01525
1203.47962	0.01533
1202.19385	0.01541
1200.90808	0.01552
1199.62232	0.01559
1198.33655	0.01559
1197.05078	0.01559
1195.76501	0.01562
1194.47924	0.01563
1193.19347	0.01562
1191.90770	0.01562
1190.62193	0.01563
1189.33616	0.01566
1188.05040	0.01569
1186.76463	0.01575
1185.47886	0.01584
1184.19309	0.01596
1182.90732	0.01608
1181.62155	0.01618
1180.33578	0.01625
1179.05001	0.01632
1177.76425	0.01641
1176.47848	0.01654
1175.19271	0.01670
1173.90694	0.01690
1172.62117	0.01711
1171.33540	0.01730
1170.04963	0.01746
1168.76386	0.01761
1167.47809	0.01778
1166.19233	0.01799
1164.90656	0.01822
1163.62079	0.01847
1162.33502	0.01875
1161.04925	0.01903
1159.76348	0.01929
1158.47771	0.01957
1157.19194	0.01990
1155.90618	0.02031
1154.62041	0.02078
1153.33464	0.02128
1152.04887	0.02179
1150.76310	0.02237
1149.47733	0.02302
1148.19156	0.02372
1146.90579	0.02441
1145.62002	0.02511
1144.33426	0.02587
1143.04849	0.02675
1141.76272	0.02773
1140.47695	0.02876
1139.19118	0.02984
1137.90541	0.03103
1136.61964	0.03238
1135.33387	0.03393
1134.04811	0.03565
1132.76234	0.03750
1131.47657	0.03946
1130.19080	0.04159
1128.90503	0.04397
1127.61926	0.04660
1126.33349	0.04943
1125.04772	0.05239
1123.76195	0.05548
1122.47619	0.05871
1121.19042	0.06207
1119.90465	0.06550
1118.61888	0.06896
1117.33311	0.07246
1116.04734	0.07596
1114.76157	0.07942
1113.47580	0.08280
1112.19004	0.08611
1110.90427	0.08938
1109.61850	0.09255
1108.33273	0.09558
1107.04696	0.09848
1105.76119	0.10136
1104.47542	0.10427
1103.18965	0.10718
1101.90388	0.11004
1100.61812	0.11284
1099.33235	0.11557
1098.04658	0.11818
1096.76081	0.12066
1095.47504	0.12301
1094.18927	0.12524
1092.90350	0.12734
1091.61773	0.12936
1090.33197	0.13134
1089.04620	0.13330
1087.76043	0.13523
1086.47466	0.13710
1085.18889	0.13893
1083.90312	0.14081
1082.61735	0.14289
1081.33158	0.14520
1080.04581	0.14768
1078.76005	0.15020
1077.47428	0.15272
1076.18851	0.15529
1074.90274	0.15799
1073.61697	0.16082
1072.33120	0.16379
1071.04543	0.16686
1069.75966	0.17001
1068.47390	0.17322
1067.18813	0.17652
1065.90236	0.17999
1064.61659	0.18359
1063.33082	0.18726
1062.04505	0.19093
1060.75928	0.19454
1059.47351	0.19808
1058.18774	0.20151
1056.90198	0.20482
1055.61621	0.20806
1054.33044	0.21130
1053.04467	0.21459
1051.75890	0.21791
1050.47313	0.22127
1049.18736	0.22469
1047.90159	0.22823
1046.61583	0.23192
1045.33006	0.23575
1044.04429	0.23972
1042.75852	0.24380
1041.47275	0.24794
1040.18698	0.25209
1038.90121	0.25624
1037.61544	0.26039
1036.32967	0.26453
1035.04391	0.26860
1033.75814	0.27254
1032.47237	0.27629
1031.18660	0.27982
1029.90083	0.28304
1028.61506	0.28590
1027.32929	0.28838
1026.04352	0.29048
1024.75775	0.29225
1023.47199	0.29371
1022.18622	0.29481
1020.90045	0.29548
1019.61468	0.29566
1018.32891	0.29532
1017.04314	0.29444
1015.75737	0.29302
1014.47160	0.29108
1013.18584	0.28867
1011.90007	0.28580
1010.61430	0.28242
1009.32853	0.27847
1008.04276	0.27398
1006.75699	0.26902
1005.47122	0.26361
1004.18545	0.25771
1002.89968	0.25129
1001.61392	0.24439
1000.32815	0.23713
999.04238	0.22961
997.75661	0.22188
996.47084	0.21402
995.18507	0.20607
993.89930	0.19806
992.61353	0.19006
991.32777	0.18218
990.04200	0.17452
988.75623	0.16713
987.47046	0.15999
986.18469	0.15314
984.89892	0.14658
983.61315	0.14037
982.32738	0.13452
981.04161	0.12905
979.75585	0.12401
978.47008	0.11947
977.18431	0.11542
975.89854	0.11185
974.61277	0.10873
973.32700	0.10611
972.04123	0.10406
970.75546	0.10267
969.46970	0.10198
968.18393	0.10197
966.89816	0.10256
965.61239	0.10359
964.32662	0.10483
963.04085	0.10599
961.75508	0.10681
960.46931	0.10702
959.18354	0.10645
957.89778	0.10506
956.61201	0.10291
955.32624	0.10017
954.04047	0.09712
952.75470	0.09402
951.46893	0.09103
950.18316	0.08813
948.89739	0.08526
947.61163	0.08242
946.32586	0.07966
945.04009	0.07699
943.75432	0.07439
942.46855	0.07187
941.18278	0.06947
939.89701	0.06724
938.61124	0.06520
937.32547	0.06334
936.03971	0.06165
934.75394	0.06015
933.46817	0.05881
932.18240	0.05755
930.89663	0.05631
929.61086	0.05511
928.32509	0.05397
927.03932	0.05293
925.75356	0.05202
924.46779	0.05122
923.18202	0.05050
921.89625	0.04983
920.61048	0.04921
919.32471	0.04860
918.03894	0.04797
916.75317	0.04728
915.46740	0.04659
914.18164	0.04595
912.89587	0.04539
911.61010	0.04489
910.32433	0.04443
909.03856	0.04405
907.75279	0.04376
906.46702	0.04349
905.18125	0.04318
903.89549	0.04282
902.60972	0.04245
901.32395	0.04210
900.03818	0.04179
898.75241	0.04156
897.46664	0.04141
896.18087	0.04134
894.89510	0.04129
893.60933	0.04129
892.32357	0.04135
891.03780	0.04155
889.75203	0.04192
888.46626	0.04257
887.18049	0.04361
885.89472	0.04517
884.60895	0.04738
883.32318	0.05031
882.03742	0.05374
880.75165	0.05712
879.46588	0.05982
878.18011	0.06160
876.89434	0.06279
875.60857	0.06393
874.32280	0.06525
873.03703	0.06645
871.75126	0.06698
870.46550	0.06650
869.17973	0.06507
867.89396	0.06294
866.60819	0.06041
865.32242	0.05768
864.03665	0.05495
862.75088	0.05238
861.46511	0.05007
860.17935	0.04805
858.89358	0.04630
857.60781	0.04481
856.32204	0.04361
855.03627	0.04266
853.75050	0.04191
852.46473	0.04128
851.17896	0.04072
849.89319	0.04022
848.60743	0.03976
847.32166	0.03934
846.03589	0.03898
844.75012	0.03865
843.46435	0.03834
842.17858	0.03802
840.89281	0.03770
839.60704	0.03737
838.32128	0.03703
837.03551	0.03668
835.74974	0.03636
834.46397	0.03609
833.17820	0.03585
831.89243	0.03562
830.60666	0.03541
829.32089	0.03529
828.03512	0.03528
826.74936	0.03535
825.46359	0.03542
824.17782	0.03540
822.89205	0.03529
821.60628	0.03515
820.32051	0.03505
819.03474	0.03496
817.74897	0.03486
816.46321	0.03471
815.17744	0.03456
813.89167	0.03447
812.60590	0.03445
811.32013	0.03442
810.03436	0.03435
808.74859	0.03425
807.46282	0.03415
806.17705	0.03409
804.89129	0.03403
803.60552	0.03393
802.31975	0.03378
801.03398	0.03360
799.74821	0.03344
798.46244	0.03335
797.17667	0.03336
795.89090	0.03343
794.60513	0.03348
793.31937	0.03344
792.03360	0.03333
790.74783	0.03325
789.46206	0.03327
788.17629	0.03334
786.89052	0.03339
785.60475	0.03335
784.31898	0.03324
783.03322	0.03312
781.74745	0.03305
780.46168	0.03306
779.17591	0.03310
777.89014	0.03313
776.60437	0.03311
775.31860	0.03305
774.03283	0.03297
772.74706	0.03281
771.46130	0.03259
770.17553	0.03236
768.88976	0.03222
767.60399	0.03223
766.31822	0.03237
765.03245	0.03253
763.74668	0.03264
762.46091	0.03265
761.17515	0.03263
759.88938	0.03271
758.60361	0.03295
757.31784	0.03328
756.03207	0.03354
754.74630	0.03362
753.46053	0.03354
752.17476	0.03336
750.88899	0.03312
749.60323	0.03290
748.31746	0.03275
747.03169	0.03268
745.74592	0.03261
744.46015	0.03246
743.17438	0.03227
741.88861	0.03215
740.60284	0.03213
739.31708	0.03219
738.03131	0.03229
736.74554	0.03240
735.45977	0.03250
734.17400	0.03261
732.88823	0.03269
731.60246	0.03268
730.31669	0.03261
729.03092	0.03255
727.74516	0.03260
726.45939	0.03271
725.17362	0.03272
723.88785	0.03248
722.60208	0.03235
721.31631	0.03233
720.03054	0.03242
718.74477	0.03258
717.45901	0.03272
716.17324	0.03280
714.88747	0.03281
713.60170	0.03276
712.31593	0.03265
711.03016	0.03249
709.74439	0.03230
708.45862	0.03211
707.17285	0.03193
705.88709	0.03178
704.60132	0.03170
703.31555	0.03170
702.02978	0.03175
700.74401	0.03180
699.45824	0.03183
698.17247	0.03181
696.88670	0.03178
695.60094	0.03177
694.31517	0.03180
693.02940	0.03187
691.74363	0.03194
690.45786	0.03193
689.17209	0.03184
687.88632	0.03171
686.60055	0.03159
685.31478	0.03153
684.02902	0.03148
682.74325	0.03141
681.45748	0.03131
680.17171	0.03120
678.88594	0.03112
677.60017	0.03108
676.31440	0.03105
675.02863	0.03105
673.74287	0.03109
672.45710	0.03119
671.17133	0.03134
669.88556	0.03153
668.59979	0.03173
667.31402	0.03187
666.02825	0.03189
664.74248	0.03178
663.45671	0.03159
662.17095	0.03138
660.88518	0.03123
659.59941	0.03114
658.31364	0.03111
657.02787	0.03111
655.74210	0.03110
654.45633	0.03105
653.17056	0.03099
651.88480	0.03096
650.59903	0.03100
649.31326	0.03109
648.02749	0.03116
646.74172	0.03119
645.45595	0.03122
644.17018	0.03134
642.88441	0.03160
641.59864	0.03200
640.31288	0.03245
639.02711	0.03289
637.74134	0.03330
636.45557	0.03372
635.16980	0.03417
633.88403	0.03465
632.59826	0.03514
631.31249	0.03570
630.02673	0.03607
628.74096	0.03602
627.45519	0.03691
626.16942	0.03657
624.88365	0.03546
623.59788	0.03501
622.31211	0.03654
621.02634	0.04042
619.74057	0.04541
618.45481	0.04991
617.16904	0.05361
615.88327	0.05722
614.59750	0.06149
613.31173	0.06659
612.02596	0.07217
610.74019	0.07774
609.45442	0.08312
608.16866	0.08847
606.88289	0.09369
605.59712	0.09809
604.31135	0.10110
603.02558	0.10275
601.73981	0.10346
600.45404	0.10332
599.16827	0.10218
597.88250	0.10004
596.59674	0.09723
595.31097	0.09416
594.02520	0.09119
592.73943	0.08854
591.45366	0.08642
590.16789	0.08508
588.88212	0.08461
587.59635	0.08498
586.31059	0.08605
585.02482	0.08764
583.73905	0.08966
582.45328	0.09202
581.16751	0.09468
579.88174	0.09759
578.59597	0.10066
577.31020	0.10377
576.02443	0.10679
574.73867	0.10961
573.45290	0.11223
572.16713	0.11478
570.88136	0.11745
569.59559	0.12047
568.30982	0.12399
567.02405	0.12799
565.73828	0.13221
564.45251	0.13619
563.16675	0.13941
561.88098	0.14143
560.59521	0.14189
559.30944	0.14050
558.02367	0.13712
556.73790	0.13194
555.45213	0.12542
554.16636	0.11825
552.88060	0.11105
551.59483	0.10427
550.30906	0.09801
549.02329	0.09224
547.73752	0.08693
546.45175	0.08212
545.16598	0.07782
543.88021	0.07400
542.59444	0.07062
541.30868	0.06769
540.02291	0.06514
538.73714	0.06288
537.45137	0.06076
536.16560	0.05873
534.87983	0.05679
533.59406	0.05498
532.30829	0.05332
531.02253	0.05175
529.73676	0.05025
528.45099	0.04878
527.16522	0.04736
525.87945	0.04602
524.59368	0.04484
523.30791	0.04388
522.02214	0.04307
520.73637	0.04224
519.45061	0.04125
518.16484	0.04010
516.87907	0.03888
515.59330	0.03776
514.30753	0.03684
513.02176	0.03615
511.73599	0.03564
510.45022	0.03525
509.16446	0.03487
507.87869	0.03437
506.59292	0.03374
505.30715	0.03307
504.02138	0.03250
502.73561	0.03210
501.44984	0.03179
500.16407	0.03147
498.87830	0.03108
497.59254	0.03064
496.30677	0.03022
495.02100	0.02989
493.73523	0.02964
492.44946	0.02945
491.16369	0.02928
489.87792	0.02910
488.59215	0.02890
487.30639	0.02873
486.02062	0.02867
484.73485	0.02876
483.44908	0.02896
482.16331	0.02915
480.87754	0.02924
479.59177	0.02930
478.30600	0.02944
477.02023	0.02967
475.73447	0.02995
474.44870	0.03019
473.16293	0.03037
471.87716	0.03054
470.59139	0.03068
469.30562	0.03076
468.01985	0.03071
466.73408	0.03048
465.44832	0.03011
464.16255	0.02970
462.87678	0.02936
461.59101	0.02909
460.30524	0.02882
459.01947	0.02847
457.73370	0.02808
456.44793	0.02773
455.16216	0.02747
453.87640	0.02726
452.59063	0.02705
451.30486	0.02685
450.01909	0.02670
448.73332	0.02661
447.44755	0.02654
446.16178	0.02644
444.87601	0.02629
443.59025	0.02612
442.30448	0.02598
441.01871	0.02588
439.73294	0.02580
438.44717	0.02574
437.16140	0.02569
435.87563	0.02567
434.58986	0.02569
433.30409	0.02573
432.01833	0.02576
430.73256	0.02578
429.44679	0.02578
428.16102	0.02579
426.87525	0.02577
425.58948	0.02570
424.30371	0.02561
423.01794	0.02549
421.73218	0.02536
420.44641	0.02524
419.16064	0.02516
417.87487	0.02515
416.58910	0.02516
415.30333	0.02514
414.01756	0.02508
412.73179	0.02503
411.44602	0.02504
410.16026	0.02512
408.87449	0.02528
407.58872	0.02549
406.30295	0.02571
405.01718	0.02590
403.73141	0.02604
402.44564	0.02612
401.15987	0.02621
399.87411	0.02633
