3997.45528	0.03717
3996.16951	0.03737
3994.88374	0.03755
3993.59798	0.03772
3992.31221	0.03780
3991.02644	0.03763
3989.74067	0.03713
3988.45490	0.03650
3987.16913	0.03599
3985.88336	0.03566
3984.59759	0.03548
3983.31183	0.03556
3982.02606	0.03602
3980.74029	0.03671
3979.45452	0.03714
3978.16875	0.03696
3976.88298	0.03635
3975.59721	0.03589
3974.31144	0.03593
3973.02567	0.03635
3971.73991	0.03670
3970.45414	0.03674
3969.16837	0.03659
3967.88260	0.03659
3966.59683	0.03693
3965.31106	0.03747
3964.02529	0.03785
3962.73952	0.03774
3961.45376	0.03717
3960.16799	0.03654
3958.88222	0.03625
3957.59645	0.03632
3956.31068	0.03646
3955.02491	0.03650
3953.73914	0.03645
3952.45337	0.03642
3951.16760	0.03641
3949.88184	0.03631
3948.59607	0.03606
3947.31030	0.03576
3946.02453	0.03555
3944.73876	0.03546
3943.45299	0.03543
3942.16722	0.03538
3940.88145	0.03519
3939.59569	0.03472
3938.30992	0.03402
3937.02415	0.03337
3935.73838	0.03314
3934.45261	0.03340
3933.16684	0.03393
3931.88107	0.03449
3930.59530	0.03500
3929.30953	0.03549
3928.02377	0.03592
3926.73800	0.03615
3925.45223	0.03614
3924.16646	0.03595
3922.88069	0.03564
3921.59492	0.03528
3920.30915	0.03502
3919.02338	0.03508
3917.73762	0.03542
3916.45185	0.03577
3915.16608	0.03582
3913.88031	0.03544
3912.59454	0.03479
3911.30877	0.03414
3910.02300	0.03369
3908.73723	0.03354
3907.45146	0.03366
3906.16570	0.03389
3904.87993	0.03409
3903.59416	0.03425
3902.30839	0.03447
3901.02262	0.03491
3899.73685	0.03557
3898.45108	0.03624
3897.16531	0.03661
3895.87955	0.03660
3894.59378	0.03639
3893.30801	0.03613
3892.02224	0.03589
3890.73647	0.03584
3889.45070	0.03594
3888.16493	0.03588
3886.87916	0.03549
3885.59339	0.03502
3884.30763	0.03472
3883.02186	0.03461
3881.73609	0.03466
3880.45032	0.03487
3879.16455	0.03507
3877.87878	0.03491
3876.59301	0.03434
3875.30724	0.03386
3874.02148	0.03393
3872.73571	0.03435
3871.44994	0.03465
3870.16417	0.03492
3868.87840	0.03550
3867.59263	0.03617
3866.30686	0.03652
3865.02109	0.03658
3863.73532	0.03665
3862.44956	0.03675
3861.16379	0.03674
3859.87802	0.03653
3858.59225	0.03615
3857.30648	0.03566
3856.02071	0.03510
3854.73494	0.03463
3853.44917	0.03449
3852.16341	0.03449
3850.87764	0.03426
3849.59187	0.03382
3848.30610	0.03347
3847.02033	0.03332
3845.73456	0.03328
3844.44879	0.03334
3843.16302	0.03355
3841.87725	0.03387
3840.59149	0.03406
3839.30572	0.03414
3838.01995	0.03437
3836.73418	0.03475
3835.44841	0.03487
3834.16264	0.03443
3832.87687	0.03378
3831.59110	0.03349
3830.30534	0.03368
3829.01957	0.03396
3827.73380	0.03407
3826.44803	0.03422
3825.16226	0.03453
3823.87649	0.03466
3822.59072	0.03428
3821.30495	0.03379
3820.01918	0.03375
3818.73342	0.03404
3817.44765	0.03413
3816.16188	0.03400
3814.87611	0.03391
3813.59034	0.03383
3812.30457	0.03367
3811.01880	0.03363
3809.73303	0.03380
3808.44726	0.03405
3807.16150	0.03433
3805.87573	0.03457
3804.58996	0.03445
3803.30419	0.03387
3802.01842	0.03326
3800.73265	0.03307
3799.44688	0.03311
3798.16111	0.03304
3796.87535	0.03296
3795.58958	0.03319
3794.30381	0.03368
3793.01804	0.03420
3791.73227	0.03458
3790.44650	0.03465
3789.16073	0.03430
3787.87496	0.03367
3786.58919	0.03310
3785.30343	0.03280
3784.01766	0.03264
3782.73189	0.03232
3781.44612	0.03168
3780.16035	0.03097
3778.87458	0.03064
3777.58881	0.03083
3776.30304	0.03138
3775.01728	0.03205
3773.73151	0.03256
3772.44574	0.03253
3771.15997	0.03180
3769.87420	0.03077
3768.58843	0.03003
3767.30266	0.02987
3766.01689	0.03027
3764.73112	0.03108
3763.44536	0.03202
3762.15959	0.03274
3760.87382	0.03312
3759.58805	0.03328
3758.30228	0.03330
3757.01651	0.03314
3755.73074	0.03272
3754.44497	0.03214
3753.15921	0.03177
3751.87344	0.03192
3750.58767	0.03247
3749.30190	0.03308
3748.01613	0.03336
3746.73036	0.03294
3745.44459	0.03194
3744.15882	0.03114
3742.87305	0.03082
3741.58729	0.03053
3740.30152	0.03009
3739.01575	0.02992
3737.72998	0.03032
3736.44421	0.03129
3735.15844	0.03248
3733.87267	0.03324
3732.58690	0.03329
3731.30114	0.03292
3730.01537	0.03250
3728.72960	0.03207
3727.44383	0.03169
3726.15806	0.03149
3724.87229	0.03155
3723.58652	0.03174
3722.30075	0.03194
3721.01498	0.03211
3719.72922	0.03226
3718.44345	0.03259
3717.15768	0.03328
3715.87191	0.03418
3714.58614	0.03483
3713.30037	0.03491
3712.01460	0.03447
3710.72883	0.03376
3709.44307	0.03296
3708.15730	0.03223
3706.87153	0.03176
3705.58576	0.03166
3704.29999	0.03187
3703.01422	0.03216
3701.72845	0.03227
3700.44268	0.03190
3699.15691	0.03101
3697.87115	0.03009
3696.58538	0.02971
3695.29961	0.02981
3694.01384	0.02979
3692.72807	0.02948
3691.44230	0.02909
3690.15653	0.02886
3688.87076	0.02904
3687.58500	0.02961
3686.29923	0.03023
3685.01346	0.03068
3683.72769	0.03098
3682.44192	0.03104
3681.15615	0.03086
3679.87038	0.03060
3678.58461	0.03046
3677.29884	0.03048
3676.01308	0.03073
3674.72731	0.03137
3673.44154	0.03212
3672.15577	0.03251
3670.87000	0.03256
3669.58423	0.03269
3668.29846	0.03303
3667.01269	0.03344
3665.72693	0.03383
3664.44116	0.03417
3663.15539	0.03444
3661.86962	0.03468
3660.58385	0.03488
3659.29808	0.03483
3658.01231	0.03439
3656.72654	0.03376
3655.44077	0.03339
3654.15501	0.03350
3652.86924	0.03397
3651.58347	0.03463
3650.29770	0.03536
3649.01193	0.03604
3647.72616	0.03657
3646.44039	0.03696
3645.15462	0.03720
3643.86886	0.03723
3642.58309	0.03720
3641.29732	0.03737
3640.01155	0.03785
3638.72578	0.03840
3637.44001	0.03865
3636.15424	0.03847
3634.86847	0.03804
3633.58270	0.03772
3632.29694	0.03767
3631.01117	0.03782
3629.72540	0.03811
3628.43963	0.03854
3627.15386	0.03893
3625.86809	0.03914
3624.58232	0.03936
3623.29655	0.03968
3622.01079	0.03983
3620.72502	0.03959
3619.43925	0.03920
3618.15348	0.03904
3616.86771	0.03926
3615.58194	0.03978
3614.29617	0.04048
3613.01040	0.04121
3611.72463	0.04182
3610.43887	0.04226
3609.15310	0.04263
3607.86733	0.04299
3606.58156	0.04325
3605.29579	0.04321
3604.01002	0.04286
3602.72425	0.04239
3601.43848	0.04217
3600.15272	0.04251
3598.86695	0.04332
3597.58118	0.04421
3596.29541	0.04486
3595.00964	0.04523
3593.72387	0.04546
3592.43810	0.04583
3591.15233	0.04646
3589.86656	0.04721
3588.58080	0.04775
3587.29503	0.04785
3586.00926	0.04743
3584.72349	0.04676
3583.43772	0.04638
3582.15195	0.04673
3580.86618	0.04774
3579.58041	0.04894
3578.29464	0.04981
3577.00888	0.05018
3575.72311	0.05037
3574.43734	0.05081
3573.15157	0.05161
3571.86580	0.05251
3570.58003	0.05311
3569.29426	0.05323
3568.00849	0.05299
3566.72273	0.05265
3565.43696	0.05239
3564.15119	0.05221
3562.86542	0.05204
3561.57965	0.05191
3560.29388	0.05198
3559.00811	0.05230
3557.72234	0.05265
3556.43657	0.05275
3555.15081	0.05260
3553.86504	0.05244
3552.57927	0.05252
3551.29350	0.05289
3550.00773	0.05344
3548.72196	0.05399
3547.43619	0.05440
3546.15042	0.05460
3544.86466	0.05460
3543.57889	0.05452
3542.29312	0.05448
3541.00735	0.05463
3539.72158	0.05495
3538.43581	0.05536
3537.15004	0.05582
3535.86427	0.05638
3534.57850	0.05694
3533.29274	0.05726
3532.00697	0.05725
3530.72120	0.05721
3529.43543	0.05755
3528.14966	0.05835
3526.86389	0.05931
3525.57812	0.06003
3524.29235	0.06023
3523.00659	0.05982
3521.72082	0.05899
3520.43505	0.05817
3519.14928	0.05777
3517.86351	0.05787
3516.57774	0.05825
3515.29197	0.05866
3514.00620	0.05910
3512.72043	0.05970
3511.43467	0.06051
3510.14890	0.06136
3508.86313	0.06204
3507.57736	0.06251
3506.29159	0.06284
3505.00582	0.06312
3503.72005	0.06328
3502.43428	0.06312
3501.14852	0.06259
3499.86275	0.06197
3498.57698	0.06177
3497.29121	0.06223
3496.00544	0.06302
3494.71967	0.06355
3493.43390	0.06356
3492.14813	0.06328
3490.86236	0.06314
3489.57660	0.06335
3488.29083	0.06381
3487.00506	0.06427
3485.71929	0.06460
3484.43352	0.06486
3483.14775	0.06520
3481.86198	0.06561
3480.57621	0.06591
3479.29045	0.06588
3478.00468	0.06554
3476.71891	0.06516
3475.43314	0.06509
3474.14737	0.06545
3472.86160	0.06600
3471.57583	0.06643
3470.29006	0.06664
3469.00429	0.06676
3467.71853	0.06684
3466.43276	0.06678
3465.14699	0.06656
3463.86122	0.06637
3462.57545	0.06641
3461.28968	0.06671
3460.00391	0.06713
3458.71814	0.06757
3457.43238	0.06802
3456.14661	0.06846
3454.86084	0.06884
3453.57507	0.06906
3452.28930	0.06907
3451.00353	0.06888
3449.71776	0.06859
3448.43199	0.06837
3447.14622	0.06825
3445.86046	0.06811
3444.57469	0.06786
3443.28892	0.06762
3442.00315	0.06763
3440.71738	0.06801
3439.43161	0.06874
3438.14584	0.06972
3436.86007	0.07081
3435.57431	0.07174
3434.28854	0.07227
3433.00277	0.07243
3431.71700	0.07247
3430.43123	0.07263
3429.14546	0.07291
3427.85969	0.07312
3426.57392	0.07306
3425.28815	0.07266
3424.00239	0.07206
3422.71662	0.07151
3421.43085	0.07124
3420.14508	0.07139
3418.85931	0.07187
3417.57354	0.07245
3416.28777	0.07282
3415.00200	0.07284
3413.71624	0.07264
3412.43047	0.07249
3411.14470	0.07252
3409.85893	0.07270
3408.57316	0.07288
3407.28739	0.07300
3406.00162	0.07305
3404.71585	0.07308
3403.43008	0.07312
3402.14432	0.07321
3400.85855	0.07338
3399.57278	0.07359
3398.28701	0.07380
3397.00124	0.07401
3395.71547	0.07423
3394.42970	0.07447
3393.14393	0.07472
3391.85817	0.07498
3390.57240	0.07520
3389.28663	0.07535
3388.00086	0.07535
3386.71509	0.07511
3385.42932	0.07469
3384.14355	0.07427
3382.85778	0.07409
3381.57201	0.07421
3380.28625	0.07456
3379.00048	0.07495
3377.71471	0.07518
3376.42894	0.07512
3375.14317	0.07478
3373.85740	0.07430
3372.57163	0.07384
3371.28586	0.07353
3370.00010	0.07345
3368.71433	0.07364
3367.42856	0.07406
3366.14279	0.07457
3364.85702	0.07513
3363.57125	0.07570
3362.28548	0.07615
3360.99971	0.07631
3359.71394	0.07619
3358.42818	0.07596
3357.14241	0.07583
3355.85664	0.07592
3354.57087	0.07617
3353.28510	0.07641
3351.99933	0.07646
3350.71356	0.07627
3349.42779	0.07594
3348.14202	0.07558
3346.85626	0.07522
3345.57049	0.07486
3344.28472	0.07462
3342.99895	0.07462
3341.71318	0.07486
3340.42741	0.07508
3339.14164	0.07504
3337.85587	0.07475
3336.57011	0.07454
3335.28434	0.07467
3333.99857	0.07507
3332.71280	0.07549
3331.42703	0.07577
3330.14126	0.07586
3328.85549	0.07573
3327.56972	0.07535
3326.28395	0.07482
3324.99819	0.07437
3323.71242	0.07419
3322.42665	0.07429
3321.14088	0.07450
3319.85511	0.07462
3318.56934	0.07453
3317.28357	0.07425
3315.99780	0.07389
3314.71204	0.07355
3313.42627	0.07339
3312.14050	0.07360
3310.85473	0.07425
3309.56896	0.07518
3308.28319	0.07600
3306.99742	0.07647
3305.71165	0.07663
3304.42588	0.07662
3303.14012	0.07645
3301.85435	0.07605
3300.56858	0.07544
3299.28281	0.07482
3297.99704	0.07436
3296.71127	0.07412
3295.42550	0.07405
3294.13973	0.07417
3292.85397	0.07447
3291.56820	0.07487
3290.28243	0.07515
3288.99666	0.07518
3287.71089	0.07498
3286.42512	0.07472
3285.13935	0.07451
3283.85358	0.07435
3282.56781	0.07422
3281.28205	0.07412
3279.99628	0.07408
3278.71051	0.07410
3277.42474	0.07421
3276.13897	0.07442
3274.85320	0.07468
3273.56743	0.07484
3272.28166	0.07468
3270.99590	0.07416
3269.71013	0.07353
3268.42436	0.07312
3267.13859	0.07308
3265.85282	0.07327
3264.56705	0.07355
3263.28128	0.07376
3261.99551	0.07383
3260.70974	0.07368
3259.42398	0.07341
3258.13821	0.07325
3256.85244	0.07327
3255.56667	0.07331
3254.28090	0.07316
3252.99513	0.07288
3251.70936	0.07277
3250.42359	0.07300
3249.13783	0.07338
3247.85206	0.07355
3246.56629	0.07333
3245.28052	0.07285
3243.99475	0.07236
3242.70898	0.07200
3241.42321	0.07179
3240.13744	0.07170
3238.85167	0.07168
3237.56591	0.07167
3236.28014	0.07159
3234.99437	0.07148
3233.70860	0.07143
3232.42283	0.07155
3231.13706	0.07178
3229.85129	0.07195
3228.56552	0.07188
3227.27976	0.07166
3225.99399	0.07159
3224.70822	0.07182
3223.42245	0.07218
3222.13668	0.07235
3220.85091	0.07224
3219.56514	0.07207
3218.27937	0.07206
3216.99360	0.07223
3215.70784	0.07232
3214.42207	0.07213
3213.13630	0.07166
3211.85053	0.07104
3210.56476	0.07043
3209.27899	0.06994
3207.99322	0.06972
3206.70745	0.06993
3205.42169	0.07054
3204.13592	0.07124
3202.85015	0.07160
3201.56438	0.07139
3200.27861	0.07080
3198.99284	0.07022
3197.70707	0.06998
3196.42130	0.07011
3195.13553	0.07044
3193.84977	0.07072
3192.56400	0.07082
3191.27823	0.07071
3189.99246	0.07045
3188.70669	0.07016
3187.42092	0.06997
3186.13515	0.06993
3184.84938	0.06995
3183.56362	0.06986
3182.27785	0.06961
3180.99208	0.06920
3179.70631	0.06873
3178.42054	0.06836
3177.13477	0.06830
3175.84900	0.06856
3174.56323	0.06888
3173.27746	0.06891
3171.99170	0.06858
3170.70593	0.06818
3169.42016	0.06803
3168.13439	0.06813
3166.84862	0.06825
3165.56285	0.06817
3164.27708	0.06781
3162.99131	0.06729
3161.70555	0.06687
3160.41978	0.06680
3159.13401	0.06713
3157.84824	0.06766
3156.56247	0.06805
3155.27670	0.06811
3153.99093	0.06792
3152.70516	0.06764
3151.41939	0.06736
3150.13363	0.06707
3148.84786	0.06683
3147.56209	0.06670
3146.27632	0.06664
3144.99055	0.06655
3143.70478	0.06632
3142.41901	0.06598
3141.13324	0.06561
3139.84748	0.06533
3138.56171	0.06529
3137.27594	0.06553
3135.99017	0.06592
3134.70440	0.06630
3133.41863	0.06653
3132.13286	0.06657
3130.84709	0.06642
3129.56132	0.06615
3128.27556	0.06581
3126.98979	0.06542
3125.70402	0.06498
3124.41825	0.06458
3123.13248	0.06427
3121.84671	0.06406
3120.56094	0.06394
3119.27517	0.06397
3117.98940	0.06418
3116.70364	0.06439
3115.41787	0.06437
3114.13210	0.06407
3112.84633	0.06370
3111.56056	0.06350
3110.27479	0.06355
3108.98902	0.06366
3107.70325	0.06361
3106.41749	0.06329
3105.13172	0.06278
3103.84595	0.06230
3102.56018	0.06205
3101.27441	0.06202
3099.98864	0.06200
3098.70287	0.06179
3097.41710	0.06146
3096.13133	0.06126
3094.84557	0.06143
3093.55980	0.06193
3092.27403	0.06253
3090.98826	0.06293
3089.70249	0.06295
3088.41672	0.06265
3087.13095	0.06230
3085.84518	0.06213
3084.55942	0.06216
3083.27365	0.06223
3081.98788	0.06218
3080.70211	0.06195
3079.41634	0.06157
3078.13057	0.06119
3076.84480	0.06087
3075.55903	0.06055
3074.27326	0.06015
3072.98750	0.05971
3071.70173	0.05952
3070.41596	0.05982
3069.13019	0.06048
3067.84442	0.06107
3066.55865	0.06118
3065.27288	0.06071
3063.98711	0.05995
3062.70135	0.05930
3061.41558	0.05893
3060.12981	0.05881
3058.84404	0.05876
3057.55827	0.05874
3056.27250	0.05876
3054.98673	0.05878
3053.70096	0.05872
3052.41519	0.05852
3051.12943	0.05820
3049.84366	0.05780
3048.55789	0.05735
3047.27212	0.05695
3045.98635	0.05676
3044.70058	0.05685
3043.41481	0.05707
3042.12904	0.05720
3040.84328	0.05710
3039.55751	0.05685
3038.27174	0.05663
3036.98597	0.05658
3035.70020	0.05670
3034.41443	0.05692
3033.12866	0.05713
3031.84289	0.05722
3030.55712	0.05708
3029.27136	0.05675
3027.98559	0.05634
3026.69982	0.05597
3025.41405	0.05571
3024.12828	0.05558
3022.84251	0.05558
3021.55674	0.05567
3020.27097	0.05576
3018.98521	0.05574
3017.69944	0.05563
3016.41367	0.05550
3015.12790	0.05540
3013.84213	0.05523
3012.55636	0.05489
3011.27059	0.05442
3009.98482	0.05399
3008.69905	0.05376
3007.41329	0.05370
3006.12752	0.05376
3004.84175	0.05391
3003.55598	0.05411
3002.27021	0.05428
3000.98444	0.05428
2999.69867	0.05405
2998.41290	0.05365
2997.12714	0.05331
2995.84137	0.05322
2994.55560	0.05339
2993.26983	0.05359
2991.98406	0.05359
2990.69829	0.05336
2989.41252	0.05305
2988.12675	0.05290
2986.84098	0.05300
2985.55522	0.05323
2984.26945	0.05336
2982.98368	0.05328
2981.69791	0.05310
2980.41214	0.05303
2979.12637	0.05313
2977.84060	0.05335
2976.55483	0.05364
2975.26907	0.05403
2973.98330	0.05452
2972.69753	0.05498
2971.41176	0.05528
2970.12599	0.05537
2968.84022	0.05530
2967.55445	0.05519
2966.26868	0.05520
2964.98291	0.05546
2963.69715	0.05592
2962.41138	0.05643
2961.12561	0.05685
2959.83984	0.05711
2958.55407	0.05726
2957.26830	0.05744
2955.98253	0.05774
2954.69676	0.05807
2953.41100	0.05819
2952.12523	0.05795
2950.83946	0.05749
2949.55369	0.05704
2948.26792	0.05675
2946.98215	0.05661
2945.69638	0.05656
2944.41061	0.05655
2943.12484	0.05655
2941.83908	0.05651
2940.55331	0.05642
2939.26754	0.05631
2937.98177	0.05632
2936.69600	0.05655
2935.41023	0.05694
2934.12446	0.05725
2932.83869	0.05729
2931.55293	0.05708
2930.26716	0.05675
2928.98139	0.05647
2927.69562	0.05631
2926.40985	0.05629
2925.12408	0.05637
2923.83831	0.05654
2922.55254	0.05678
2921.26677	0.05700
2919.98101	0.05701
2918.69524	0.05667
2917.40947	0.05608
2916.12370	0.05548
2914.83793	0.05508
2913.55216	0.05485
2912.26639	0.05466
2910.98062	0.05441
2909.69486	0.05413
2908.40909	0.05389
2907.12332	0.05370
2905.83755	0.05350
2904.55178	0.05328
2903.26601	0.05308
2901.98024	0.05289
2900.69447	0.05260
2899.40870	0.05221
2898.12294	0.05184
2896.83717	0.05156
2895.55140	0.05132
2894.26563	0.05105
2892.97986	0.05079
2891.69409	0.05062
2890.40832	0.05050
2889.12255	0.05032
2887.83678	0.04999
2886.55102	0.04955
2885.26525	0.04913
2883.97948	0.04883
2882.69371	0.04868
2881.40794	0.04858
2880.12217	0.04849
2878.83640	0.04849
2877.55063	0.04868
2876.26487	0.04902
2874.97910	0.04936
2873.69333	0.04953
2872.40756	0.04946
2871.12179	0.04922
2869.83602	0.04894
2868.55025	0.04866
2867.26448	0.04841
2865.97871	0.04821
2864.69295	0.04812
2863.40718	0.04808
2862.12141	0.04795
2860.83564	0.04769
2859.54987	0.04739
2858.26410	0.04715
2856.97833	0.04698
2855.69256	0.04687
2854.40680	0.04683
2853.12103	0.04683
2851.83526	0.04674
2850.54949	0.04650
2849.26372	0.04613
2847.97795	0.04575
2846.69218	0.04548
2845.40641	0.04533
2844.12064	0.04522
2842.83488	0.04504
2841.54911	0.04471
2840.26334	0.04424
2838.97757	0.04374
2837.69180	0.04335
2836.40603	0.04312
2835.12026	0.04302
2833.83449	0.04292
2832.54873	0.04272
2831.26296	0.04244
2829.97719	0.04213
2828.69142	0.04185
2827.40565	0.04161
2826.11988	0.04141
2824.83411	0.04127
2823.54834	0.04117
2822.26257	0.04110
2820.97681	0.04106
2819.69104	0.04107
2818.40527	0.04109
2817.11950	0.04109
2815.83373	0.04101
2814.54796	0.04089
2813.26219	0.04075
2811.97642	0.04061
2810.69066	0.04043
2809.40489	0.04022
2808.11912	0.04005
2806.83335	0.03996
2805.54758	0.03993
2804.26181	0.03990
2802.97604	0.03985
2801.69027	0.03983
2800.40450	0.03982
2799.11874	0.03971
2797.83297	0.03946
2796.54720	0.03914
2795.26143	0.03889
2793.97566	0.03876
2792.68989	0.03874
2791.40412	0.03877
2790.11835	0.03874
2788.83259	0.03854
2787.54682	0.03819
2786.26105	0.03786
2784.97528	0.03772
2783.68951	0.03779
2782.40374	0.03791
2781.11797	0.03792
2779.83220	0.03777
2778.54643	0.03753
2777.26067	0.03730
2775.97490	0.03717
2774.68913	0.03717
2773.40336	0.03730
2772.11759	0.03751
2770.83182	0.03770
2769.54605	0.03780
2768.26028	0.03777
2766.97452	0.03761
2765.68875	0.03732
2764.40298	0.03699
2763.11721	0.03678
2761.83144	0.03681
2760.54567	0.03695
2759.25990	0.03698
2757.97413	0.03683
2756.68836	0.03662
2755.40260	0.03648
2754.11683	0.03640
2752.83106	0.03633
2751.54529	0.03629
2750.25952	0.03627
2748.97375	0.03628
2747.68798	0.03624
2746.40221	0.03612
2745.11645	0.03599
2743.83068	0.03599
2742.54491	0.03614
2741.25914	0.03637
2739.97337	0.03657
2738.68760	0.03666
2737.40183	0.03653
2736.11606	0.03618
2734.83029	0.03577
2733.54453	0.03558
2732.25876	0.03575
2730.97299	0.03605
2729.68722	0.03613
2728.40145	0.03587
2727.11568	0.03541
2725.82991	0.03497
2724.54414	0.03468
2723.25838	0.03452
2721.97261	0.03447
2720.68684	0.03450
2719.40107	0.03457
2718.11530	0.03464
2716.82953	0.03468
2715.54376	0.03465
2714.25799	0.03453
2712.97222	0.03434
2711.68646	0.03413
2710.40069	0.03397
2709.11492	0.03389
2707.82915	0.03386
2706.54338	0.03382
2705.25761	0.03371
2703.97184	0.03356
2702.68607	0.03347
2701.40031	0.03351
2700.11454	0.03367
2698.82877	0.03387
2697.54300	0.03396
2696.25723	0.03385
2694.97146	0.03358
2693.68569	0.03330
2692.39992	0.03317
2691.11415	0.03323
2689.82839	0.03335
2688.54262	0.03338
2687.25685	0.03328
2685.97108	0.03313
2684.68531	0.03300
2683.39954	0.03288
2682.11377	0.03274
2680.82800	0.03260
2679.54224	0.03255
2678.25647	0.03262
2676.97070	0.03274
2675.68493	0.03274
2674.39916	0.03256
2673.11339	0.03226
2671.82762	0.03201
2670.54185	0.03192
2669.25608	0.03203
2667.97032	0.03222
2666.68455	0.03234
2665.39878	0.03234
2664.11301	0.03227
2662.82724	0.03221
2661.54147	0.03213
2660.25570	0.03200
2658.96993	0.03181
2657.68417	0.03167
2656.39840	0.03164
2655.11263	0.03170
2653.82686	0.03176
2652.54109	0.03177
2651.25532	0.03174
2649.96955	0.03168
2648.68378	0.03156
2647.39801	0.03137
2646.11225	0.03114
2644.82648	0.03091
2643.54071	0.03073
2642.25494	0.03061
2640.96917	0.03053
2639.68340	0.03040
2638.39763	0.03019
2637.11186	0.02991
2635.82609	0.02964
2634.54033	0.02945
2633.25456	0.02935
2631.96879	0.02929
2630.68302	0.02921
2629.39725	0.02908
2628.11148	0.02898
2626.82571	0.02900
2625.53994	0.02914
2624.25418	0.02926
2622.96841	0.02928
2621.68264	0.02924
2620.39687	0.02925
2619.11110	0.02933
2617.82533	0.02936
2616.53956	0.02921
2615.25379	0.02885
2613.96802	0.02839
2612.68226	0.02803
2611.39649	0.02792
2610.11072	0.02808
2608.82495	0.02841
2607.53918	0.02869
2606.25341	0.02869
2604.96764	0.02834
2603.68187	0.02784
2602.39611	0.02745
2601.11034	0.02732
2599.82457	0.02732
2598.53880	0.02724
2597.25303	0.02695
2595.96726	0.02659
2594.68149	0.02640
2593.39572	0.02644
2592.10995	0.02653
2590.82419	0.02644
2589.53842	0.02627
2588.25265	0.02625
2586.96688	0.02647
2585.68111	0.02674
2584.39534	0.02684
2583.10957	0.02679
2581.82380	0.02674
2580.53804	0.02676
2579.25227	0.02678
2577.96650	0.02664
2576.68073	0.02630
2575.39496	0.02590
2574.10919	0.02558
2572.82342	0.02535
2571.53765	0.02509
2570.25188	0.02478
2568.96612	0.02456
2567.68035	0.02456
2566.39458	0.02474
2565.10881	0.02488
2563.82304	0.02483
2562.53727	0.02470
2561.25150	0.02469
2559.96573	0.02487
2558.67997	0.02509
2557.39420	0.02525
2556.10843	0.02540
2554.82266	0.02557
2553.53689	0.02567
2552.25112	0.02553
2550.96535	0.02523
2549.67958	0.02502
2548.39381	0.02502
2547.10805	0.02512
2545.82228	0.02509
2544.53651	0.02481
2543.25074	0.02443
2541.96497	0.02418
2540.67920	0.02423
2539.39343	0.02448
2538.10766	0.02467
2536.82190	0.02465
2535.53613	0.02447
2534.25036	0.02423
2532.96459	0.02402
2531.67882	0.02386
2530.39305	0.02382
2529.10728	0.02386
2527.82151	0.02389
2526.53574	0.02383
2525.24998	0.02378
2523.96421	0.02388
2522.67844	0.02413
2521.39267	0.02433
2520.10690	0.02431
2518.82113	0.02406
2517.53536	0.02372
2516.24959	0.02341
2514.96383	0.02321
2513.67806	0.02316
2512.39229	0.02323
2511.10652	0.02334
2509.82075	0.02336
2508.53498	0.02323
2507.24921	0.02300
2505.96344	0.02287
2504.67767	0.02308
2503.39191	0.02364
2502.10614	0.02431
2500.82037	0.02475
2499.53460	0.02485
2498.24883	0.02474
2496.96306	0.02462
2495.67729	0.02450
2494.39152	0.02420
2493.10576	0.02364
2491.81999	0.02293
2490.53422	0.02229
2489.24845	0.02190
2487.96268	0.02182
2486.67691	0.02209
2485.39114	0.02260
2484.10537	0.02306
2482.81960	0.02326
2481.53384	0.02320
2480.24807	0.02298
2478.96230	0.02271
2477.67653	0.02252
2476.39076	0.02250
2475.10499	0.02265
2473.81922	0.02288
2472.53345	0.02307
2471.24769	0.02311
2469.96192	0.02295
2468.67615	0.02269
2467.39038	0.02242
2466.10461	0.02226
2464.81884	0.02226
2463.53307	0.02244
2462.24730	0.02275
2460.96153	0.02307
2459.67577	0.02329
2458.39000	0.02331
2457.10423	0.02309
2455.81846	0.02270
2454.53269	0.02234
2453.24692	0.02215
2451.96115	0.02205
2450.67538	0.02193
2449.38962	0.02177
2448.10385	0.02165
2446.81808	0.02167
2445.53231	0.02187
2444.24654	0.02217
2442.96077	0.02236
2441.67500	0.02233
2440.38923	0.02217
2439.10346	0.02201
2437.81770	0.02193
2436.53193	0.02187
2435.24616	0.02179
2433.96039	0.02169
2432.67462	0.02157
2431.38885	0.02141
2430.10308	0.02122
2428.81731	0.02109
2427.53155	0.02108
2426.24578	0.02125
2424.96001	0.02149
2423.67424	0.02163
2422.38847	0.02154
2421.10270	0.02120
2419.81693	0.02076
2418.53116	0.02047
2417.24539	0.02050
2415.95963	0.02078
2414.67386	0.02103
2413.38809	0.02107
2412.10232	0.02102
2410.81655	0.02103
2409.53078	0.02109
2408.24501	0.02103
2406.95924	0.02075
2405.67347	0.02041
2404.38771	0.02018
2403.10194	0.02008
2401.81617	0.02000
2400.53040	0.01995
2399.24463	0.02006
2397.95886	0.02017
2396.67309	0.02026
2395.38732	0.02041
2394.10156	0.02071
2392.81579	0.02110
2391.53002	0.02136
2390.24425	0.02130
2388.95848	0.02097
2387.67271	0.02055
2386.38694	0.02024
2385.10117	0.02013
2383.81540	0.02021
2382.52964	0.02046
2381.24387	0.02081
2379.95810	0.02110
2378.67233	0.02124
2377.38656	0.02120
2376.10079	0.02110
2374.81502	0.02092
2373.52925	0.02073
2372.24349	0.02053
2370.95772	0.02041
2369.67195	0.02021
2368.38618	0.02004
2367.10041	0.02001
2365.81464	0.02022
2364.52887	0.02039
2363.24310	0.02053
2361.95733	0.02080
2360.67157	0.02136
2359.38580	0.02170
2358.10003	0.02171
2356.81426	0.02152
2355.52849	0.02127
2354.24272	0.02106
2352.95695	0.02093
2351.67118	0.02115
2350.38542	0.02151
2349.09965	0.02153
2347.81388	0.02121
2346.52811	0.02140
2345.24234	0.02187
2343.95657	0.02159
2342.67080	0.02054
2341.38503	0.02038
2340.09926	0.02134
2338.81350	0.02135
2337.52773	0.02032
2336.24196	0.02089
2334.95619	0.02253
2333.67042	0.02238
2332.38465	0.02109
2331.09888	0.02180
2329.81311	0.02261
2328.52735	0.02147
2327.24158	0.02188
2325.95581	0.02320
2324.67004	0.02268
2323.38427	0.02235
2322.09850	0.02269
2320.81273	0.02156
2319.52696	0.02110
2318.24119	0.02133
2316.95543	0.02077
2315.66966	0.02068
2314.38389	0.02080
2313.09812	0.02046
2311.81235	0.02052
2310.52658	0.02042
2309.24081	0.02030
2307.95504	0.02041
2306.66928	0.02025
2305.38351	0.02009
2304.09774	0.01989
2302.81197	0.01969
2301.52620	0.01980
2300.24043	0.02004
2298.95466	0.02042
2297.66889	0.02071
2296.38312	0.02076
2295.09736	0.02055
2293.81159	0.02010
2292.52582	0.01961
2291.24005	0.01923
2289.95428	0.01917
2288.66851	0.01942
2287.38274	0.01983
2286.09697	0.02004
2284.81121	0.01980
2283.52544	0.01917
2282.23967	0.01855
2280.95390	0.01834
2279.66813	0.01860
2278.38236	0.01907
2277.09659	0.01940
2275.81082	0.01942
2274.52505	0.01913
2273.23929	0.01862
2271.95352	0.01803
2270.66775	0.01745
2269.38198	0.01696
2268.09621	0.01669
2266.81044	0.01671
2265.52467	0.01690
2264.23890	0.01699
2262.95314	0.01689
2261.66737	0.01675
2260.38160	0.01672
2259.09583	0.01680
2257.81006	0.01696
2256.52429	0.01712
2255.23852	0.01719
2253.95275	0.01708
2252.66698	0.01685
2251.38122	0.01666
2250.09545	0.01656
2248.80968	0.01644
2247.52391	0.01645
2246.23814	0.01629
2244.95237	0.01607
2243.66660	0.01590
2242.38083	0.01567
2241.09507	0.01516
2239.80930	0.01442
2238.52353	0.01383
2237.23776	0.01379
2235.95199	0.01424
2234.66622	0.01476
2233.38045	0.01494
2232.09468	0.01474
2230.80891	0.01433
2229.52315	0.01389
2228.23738	0.01342
2226.95161	0.01292
2225.66584	0.01253
2224.38007	0.01242
2223.09430	0.01260
2221.80853	0.01287
2220.52276	0.01302
2219.23700	0.01298
2217.95123	0.01278
2216.66546	0.01255
2215.37969	0.01240
2214.09392	0.01223
2212.80815	0.01189
2211.52238	0.01152
2210.23661	0.01152
2208.95084	0.01205
2207.66508	0.01271
2206.37931	0.01300
2205.09354	0.01282
2203.80777	0.01230
2202.52200	0.01165
2201.23623	0.01111
2199.95046	0.01103
2198.66469	0.01152
2197.37893	0.01234
2196.09316	0.01301
2194.80739	0.01322
2193.52162	0.01294
2192.23585	0.01226
2190.95008	0.01123
2189.66431	0.00991
2188.37854	0.00867
2187.09277	0.00800
2185.80701	0.00807
2184.52124	0.00856
2183.23547	0.00894
2181.94970	0.00893
2180.66393	0.00869
2179.37816	0.00852
2178.09239	0.00850
2176.80662	0.00829
2175.52085	0.00759
2174.23509	0.00666
2172.94932	0.00606
2171.66355	0.00606
2170.37778	0.00641
2169.09201	0.00684
2167.80624	0.00726
2166.52047	0.00761
2165.23470	0.00770
2163.94894	0.00741
2162.66317	0.00666
2161.37740	0.00520
2160.09163	0.00307
2158.80586	0.00116
2157.52009	0.00062
2156.23432	0.00156
2154.94855	0.00314
2153.66278	0.00448
2152.37702	0.00504
2151.09125	0.00459
2149.80548	0.00329
2148.51971	0.00182
2147.23394	0.00093
2145.94817	0.00083
2144.66240	0.00125
2143.37663	0.00197
2142.09087	0.00288
2140.80510	0.00385
2139.51933	0.00480
2138.23356	0.00574
2136.94779	0.00674
2135.66202	0.00762
2134.37625	0.00805
2133.09048	0.00786
2131.80471	0.00722
2130.51895	0.00661
2129.23318	0.00651
2127.94741	0.00706
2126.66164	0.00803
2125.37587	0.00907
2124.09010	0.00986
2122.80433	0.01030
2121.51856	0.01050
2120.23280	0.01059
2118.94703	0.01063
2117.66126	0.01063
2116.37549	0.01065
2115.08972	0.01073
2113.80395	0.01076
2112.51818	0.01058
2111.23241	0.01014
2109.94664	0.00948
2108.66088	0.00867
2107.37511	0.00797
2106.08934	0.00778
2104.80357	0.00827
2103.51780	0.00912
2102.23203	0.00976
2100.94626	0.00992
2099.66049	0.01027
2098.37473	0.01028
2097.08896	0.01018
2095.80319	0.01015
2094.51742	0.01014
2093.23165	0.01009
2091.94588	0.00992
2090.66011	0.00954
2089.37434	0.00903
2088.08857	0.00859
2086.80281	0.00832
2085.51704	0.00815
2084.23127	0.00801
2082.94550	0.00799
2081.65973	0.00823
2080.37396	0.00864
2079.08819	0.00899
2077.80242	0.00912
2076.51666	0.00905
2075.23089	0.00890
2073.94512	0.00870
2072.65935	0.00839
2071.37358	0.00781
2070.08781	0.00693
2068.80204	0.00589
2067.51627	0.00491
2066.23050	0.00421
2064.94474	0.00383
2063.65897	0.00374
2062.37320	0.00393
2061.08743	0.00435
2059.80166	0.00488
2058.51589	0.00532
2057.23012	0.00557
2055.94435	0.00567
2054.65859	0.00576
2053.37282	0.00585
2052.08705	0.00586
2050.80128	0.00576
2049.51551	0.00563
2048.22974	0.00548
2046.94397	0.00515
2045.65820	0.00448
2044.37243	0.00363
2043.08667	0.00298
2041.80090	0.00267
2040.51513	0.00245
2039.22936	0.00208
2037.94359	0.00176
2036.65782	0.00193
2035.37205	0.00258
2034.08628	0.00308
2032.80052	0.00279
2031.51475	0.00177
2030.22898	0.00084
2028.94321	0.00081
2027.65744	0.00170
2026.37167	0.00270
2025.08590	0.00306
2023.80013	0.00286
2022.51436	0.00269
2021.22860	0.00278
2019.94283	0.00279
2018.65706	0.00242
2017.37129	0.00200
2016.08552	0.00222
2014.79975	0.00328
2013.51398	0.00464
2012.22821	0.00540
2010.94245	0.00498
2009.65668	0.00351
2008.37091	0.00176
2007.08514	0.00074
2005.79937	0.00102
2004.51360	0.00233
2003.22783	0.00387
2001.94206	0.00495
2000.65629	0.00546
1999.37053	0.00568
1998.08476	0.00598
1996.79899	0.00660
1995.51322	0.00745
1994.22745	0.00817
1992.94168	0.00840
1991.65591	0.00811
1990.37014	0.00766
1989.08438	0.00734
1987.79861	0.00712
1986.51284	0.00682
1985.22707	0.00649
1983.94130	0.00637
1982.65553	0.00660
1981.36976	0.00688
1980.08399	0.00675
1978.79822	0.00611
1977.51246	0.00542
1976.22669	0.00526
1974.94092	0.00565
1973.65515	0.00608
1972.36938	0.00608
1971.08361	0.00571
1969.79784	0.00537
1968.51207	0.00533
1967.22631	0.00557
1965.94054	0.00587
1964.65477	0.00599
1963.36900	0.00590
1962.08323	0.00581
1960.79746	0.00607
1959.51169	0.00681
1958.22592	0.00772
1956.94015	0.00838
1955.65439	0.00863
1954.36862	0.00867
1953.08285	0.00871
1951.79708	0.00869
1950.51131	0.00847
1949.22554	0.00816
1947.93977	0.00809
1946.65400	0.00844
1945.36823	0.00903
1944.08247	0.00953
1942.79670	0.00988
1941.51093	0.01020
1940.22516	0.01048
1938.93939	0.01052
1937.65362	0.01027
1936.36785	0.00990
1935.08208	0.00961
1933.79632	0.00947
1932.51055	0.00942
1931.22478	0.00950
1929.93901	0.00972
1928.65324	0.00996
1927.36747	0.01000
1926.08170	0.00983
1924.79593	0.00965
1923.51016	0.00970
1922.22440	0.00993
1920.93863	0.01012
1919.65286	0.01012
1918.36709	0.01007
1917.08132	0.01016
1915.79555	0.01038
1914.50978	0.01063
1913.22401	0.01086
1911.93825	0.01107
1910.65248	0.01126
1909.36671	0.01139
1908.08094	0.01141
1906.79517	0.01134
1905.50940	0.01128
1904.22363	0.01135
1902.93786	0.01163
1901.65209	0.01197
1900.36633	0.01220
1899.08056	0.01222
1897.79479	0.01211
1896.50902	0.01196
1895.22325	0.01182
1893.93748	0.01172
1892.65171	0.01171
1891.36594	0.01179
1890.08018	0.01185
1888.79441	0.01179
1887.50864	0.01161
1886.22287	0.01144
1884.93710	0.01136
1883.65133	0.01136
1882.36556	0.01136
1881.07979	0.01134
1879.79402	0.01133
1878.50826	0.01132
1877.22249	0.01129
1875.93672	0.01127
1874.65095	0.01133
1873.36518	0.01149
1872.07941	0.01168
1870.79364	0.01183
1869.50787	0.01192
1868.22211	0.01201
1866.93634	0.01212
1865.65057	0.01220
1864.36480	0.01223
1863.07903	0.01218
1861.79326	0.01206
1860.50749	0.01189
1859.22172	0.01175
1857.93595	0.01170
1856.65019	0.01175
1855.36442	0.01186
1854.07865	0.01190
1852.79288	0.01177
1851.50711	0.01152
1850.22134	0.01132
1848.93557	0.01130
1847.64980	0.01144
1846.36404	0.01156
1845.07827	0.01156
1843.79250	0.01154
1842.50673	0.01160
1841.22096	0.01169
1839.93519	0.01174
1838.64942	0.01173
1837.36365	0.01172
1836.07788	0.01173
1834.79212	0.01179
1833.50635	0.01189
1832.22058	0.01197
1830.93481	0.01201
1829.64904	0.01205
1828.36327	0.01214
1827.07750	0.01223
1825.79173	0.01228
1824.50597	0.01232
1823.22020	0.01237
1821.93443	0.01242
1820.64866	0.01244
1819.36289	0.01240
1818.07712	0.01228
1816.79135	0.01215
1815.50558	0.01209
1814.21981	0.01210
1812.93405	0.01214
1811.64828	0.01215
1810.36251	0.01215
1809.07674	0.01217
1807.79097	0.01226
1806.50520	0.01239
1805.21943	0.01249
1803.93366	0.01255
1802.64790	0.01259
1801.36213	0.01270
1800.07636	0.01286
1798.79059	0.01297
1797.50482	0.01298
1796.21905	0.01296
1794.93328	0.01296
1793.64751	0.01295
1792.36174	0.01293
1791.07598	0.01297
1789.79021	0.01310
1788.50444	0.01324
1787.21867	0.01333
1785.93290	0.01335
1784.64713	0.01337
1783.36136	0.01345
1782.07559	0.01354
1780.78983	0.01360
1779.50406	0.01362
1778.21829	0.01365
1776.93252	0.01372
1775.64675	0.01378
1774.36098	0.01379
1773.07521	0.01378
1771.78944	0.01388
1770.50367	0.01405
1769.21791	0.01418
1767.93214	0.01428
1766.64637	0.01441
1765.36060	0.01455
1764.07483	0.01464
1762.78906	0.01471
1761.50329	0.01484
1760.21752	0.01500
1758.93176	0.01506
1757.64599	0.01501
1756.36022	0.01496
1755.07445	0.01500
1753.78868	0.01505
1752.50291	0.01504
1751.21714	0.01504
1749.93137	0.01506
1748.64560	0.01507
1747.35984	0.01507
1746.07407	0.01513
1744.78830	0.01527
1743.50253	0.01545
1742.21676	0.01558
1740.93099	0.01565
1739.64522	0.01573
1738.35945	0.01590
1737.07369	0.01602
1735.78792	0.01599
1734.50215	0.01596
1733.21638	0.01614
1731.93061	0.01647
1730.64484	0.01673
1729.35907	0.01687
1728.07330	0.01698
1726.78753	0.01708
1725.50177	0.01716
1724.21600	0.01725
1722.93023	0.01743
1721.64446	0.01768
1720.35869	0.01786
1719.07292	0.01793
1717.78715	0.01803
1716.50138	0.01831
1715.21561	0.01872
1713.92985	0.01916
1712.64408	0.01958
1711.35831	0.01999
1710.07254	0.02037
1708.78677	0.02070
1707.50100	0.02094
1706.21523	0.02114
1704.92946	0.02141
1703.64370	0.02172
1702.35793	0.02197
1701.07216	0.02222
1699.78639	0.02271
1698.50062	0.02331
1697.21485	0.02371
1695.92908	0.02393
1694.64331	0.02426
1693.35754	0.02461
1692.07178	0.02482
1690.78601	0.02498
1689.50024	0.02530
1688.21447	0.02577
1686.92870	0.02614
1685.64293	0.02634
1684.35716	0.02660
1683.07139	0.02705
1681.78563	0.02753
1680.49986	0.02789
1679.21409	0.02818
1677.92832	0.02848
1676.64255	0.02876
1675.35678	0.02908
1674.07101	0.02950
1672.78524	0.02990
1671.49947	0.03019
1670.21371	0.03045
1668.92794	0.03081
1667.64217	0.03127
1666.35640	0.03172
1665.07063	0.03208
1663.78486	0.03237
1662.49909	0.03268
1661.21332	0.03303
1659.92756	0.03336
1658.64179	0.03366
1657.35602	0.03400
1656.07025	0.03429
1654.78448	0.03437
1653.49871	0.03438
1652.21294	0.03461
1650.92717	0.03502
1649.64140	0.03527
1648.35564	0.03529
1647.06987	0.03530
1645.78410	0.03548
1644.49833	0.03577
1643.21256	0.03600
1641.92679	0.03612
1640.64102	0.03624
1639.35525	0.03640
1638.06949	0.03653
1636.78372	0.03659
1635.49795	0.03665
1634.21218	0.03679
1632.92641	0.03694
1631.64064	0.03702
1630.35487	0.03708
1629.06910	0.03717
1627.78333	0.03729
1626.49757	0.03741
1625.21180	0.03746
1623.92603	0.03748
1622.64026	0.03757
1621.35449	0.03778
1620.06872	0.03800
1618.78295	0.03811
1617.49718	0.03817
1616.21142	0.03830
1614.92565	0.03850
1613.63988	0.03865
1612.35411	0.03875
1611.06834	0.03889
1609.78257	0.03910
1608.49680	0.03930
1607.21103	0.03947
1605.92526	0.03963
1604.63950	0.03979
1603.35373	0.03996
1602.06796	0.04012
1600.78219	0.04030
1599.49642	0.04049
1598.21065	0.04069
1596.92488	0.04088
1595.63911	0.04107
1594.35335	0.04128
1593.06758	0.04150
1591.78181	0.04172
1590.49604	0.04191
1589.21027	0.04208
1587.92450	0.04225
1586.63873	0.04242
1585.35296	0.04257
1584.06719	0.04272
1582.78143	0.04289
1581.49566	0.04312
1580.20989	0.04342
1578.92412	0.04366
1577.63835	0.04379
1576.35258	0.04392
1575.06681	0.04423
1573.78104	0.04465
1572.49528	0.04494
1571.20951	0.04508
1569.92374	0.04520
1568.63797	0.04540
1567.35220	0.04563
1566.06643	0.04585
1564.78066	0.04609
1563.49489	0.04640
1562.20912	0.04669
1560.92336	0.04687
1559.63759	0.04705
1558.35182	0.04739
1557.06605	0.04778
1555.78028	0.04802
1554.49451	0.04817
1553.20874	0.04842
1551.92297	0.04878
1550.63721	0.04913
1549.35144	0.04944
1548.06567	0.04972
1546.77990	0.04995
1545.49413	0.05019
1544.20836	0.05049
1542.92259	0.05078
1541.63682	0.05098
1540.35105	0.05110
1539.06529	0.05130
1537.77952	0.05163
1536.49375	0.05194
1535.20798	0.05218
1533.92221	0.05246
1532.63644	0.05293
1531.35067	0.05353
1530.06490	0.05416
1528.77914	0.05482
1527.49337	0.05559
1526.20760	0.05652
1524.92183	0.05758
1523.63606	0.05866
1522.35029	0.05972
1521.06452	0.06087
1519.77875	0.06212
1518.49298	0.06336
1517.20722	0.06456
1515.92145	0.06586
1514.63568	0.06730
1513.34991	0.06883
1512.06414	0.07047
1510.77837	0.07224
1509.49260	0.07403
1508.20683	0.07574
1506.92107	0.07738
1505.63530	0.07906
1504.34953	0.08071
1503.06376	0.08217
1501.77799	0.08342
1500.49222	0.08459
1499.20645	0.08569
1497.92068	0.08670
1496.63491	0.08770
1495.34915	0.08877
1494.06338	0.08991
1492.77761	0.09100
1491.49184	0.09202
1490.20607	0.09305
1488.92030	0.09417
1487.63453	0.09541
1486.34876	0.09679
1485.06299	0.09829
1483.77723	0.09982
1482.49146	0.10133
1481.20569	0.10283
1479.91992	0.10434
1478.63415	0.10581
1477.34838	0.10723
1476.06261	0.10852
1474.77684	0.10962
1473.49108	0.11051
1472.20531	0.11125
1470.91954	0.11187
1469.63377	0.11233
1468.34800	0.11261
1467.06223	0.11275
1465.77646	0.11283
1464.49069	0.11296
1463.20492	0.11320
1461.91916	0.11354
1460.63339	0.11394
1459.34762	0.11432
1458.06185	0.11471
1456.77608	0.11519
1455.49031	0.11584
1454.20454	0.11648
1452.91877	0.11701
1451.63301	0.11743
1450.34724	0.11779
1449.06147	0.11804
1447.77570	0.11816
1446.48993	0.11816
1445.20416	0.11802
1443.91839	0.11773
1442.63262	0.11737
1441.34685	0.11700
1440.06109	0.11666
1438.77532	0.11634
1437.48955	0.11614
1436.20378	0.11621
1434.91801	0.11665
1433.63224	0.11736
1432.34647	0.11828
1431.06070	0.11941
1429.77494	0.12079
1428.48917	0.12237
1427.20340	0.12410
1425.91763	0.12594
1424.63186	0.12785
1423.34609	0.12979
1422.06032	0.13164
1420.77455	0.13327
1419.48878	0.13472
1418.20302	0.13602
1416.91725	0.13707
1415.63148	0.13772
1414.34571	0.13803
1413.05994	0.13809
1411.77417	0.13798
1410.48840	0.13763
1409.20263	0.13694
1407.91687	0.13586
1406.63110	0.13444
1405.34533	0.13277
1404.05956	0.13090
1402.77379	0.12881
1401.48802	0.12645
1400.20225	0.12386
1398.91648	0.12116
1397.63071	0.11844
1396.34495	0.11570
1395.05918	0.11295
1393.77341	0.11020
1392.48764	0.10741
1391.20187	0.10457
1389.91610	0.10168
1388.63033	0.09880
1387.34456	0.09601
1386.05880	0.09330
1384.77303	0.09061
1383.48726	0.08788
1382.20149	0.08513
1380.91572	0.08238
1379.62995	0.07963
1378.34418	0.07685
1377.05841	0.07405
1375.77264	0.07126
1374.48688	0.06855
1373.20111	0.06594
1371.91534	0.06342
1370.62957	0.06094
1369.34380	0.05854
1368.05803	0.05631
1366.77226	0.05428
1365.48649	0.05241
1364.20073	0.05066
1362.91496	0.04900
1361.62919	0.04743
1360.34342	0.04594
1359.05765	0.04455
1357.77188	0.04326
1356.48611	0.04207
1355.20034	0.04097
1353.91457	0.03994
1352.62881	0.03895
1351.34304	0.03801
1350.05727	0.03709
1348.77150	0.03622
1347.48573	0.03539
1346.19996	0.03461
1344.91419	0.03384
1343.62842	0.03311
1342.34266	0.03242
1341.05689	0.03180
1339.77112	0.03128
1338.48535	0.03083
1337.19958	0.03041
1335.91381	0.02996
1334.62804	0.02951
1333.34227	0.02907
1332.05650	0.02868
1330.77074	0.02833
1329.48497	0.02800
1328.19920	0.02770
1326.91343	0.02743
1325.62766	0.02723
1324.34189	0.02704
1323.05612	0.02682
1321.77035	0.02654
1320.48459	0.02620
1319.19882	0.02585
1317.91305	0.02552
1316.62728	0.02523
1315.34151	0.02498
1314.05574	0.02477
1312.76997	0.02458
1311.48420	0.02442
1310.19843	0.02426
1308.91267	0.02410
1307.62690	0.02391
1306.34113	0.02370
1305.05536	0.02348
1303.76959	0.02327
1302.48382	0.02306
1301.19805	0.02286
1299.91228	0.02267
1298.62652	0.02251
1297.34075	0.02238
1296.05498	0.02227
1294.76921	0.02219
1293.48344	0.02209
1292.19767	0.02198
1290.91190	0.02186
1289.62613	0.02171
1288.34036	0.02154
1287.05460	0.02135
1285.76883	0.02115
1284.48306	0.02095
1283.19729	0.02080
1281.91152	0.02072
1280.62575	0.02069
1279.33998	0.02069
1278.05421	0.02067
1276.76845	0.02063
1275.48268	0.02055
1274.19691	0.02042
1272.91114	0.02026
1271.62537	0.02010
1270.33960	0.01997
1269.05383	0.01990
1267.76806	0.01985
1266.48229	0.01980
1265.19653	0.01973
1263.91076	0.01963
1262.62499	0.01950
1261.33922	0.01937
1260.05345	0.01928
1258.76768	0.01925
1257.48191	0.01923
1256.19614	0.01920
1254.91037	0.01915
1253.62461	0.01910
1252.33884	0.01904
1251.05307	0.01896
1249.76730	0.01885
1248.48153	0.01872
1247.19576	0.01862
1245.90999	0.01858
1244.62422	0.01859
1243.33846	0.01860
1242.05269	0.01859
1240.76692	0.01853
1239.48115	0.01843
1238.19538	0.01832
1236.90961	0.01822
1235.62384	0.01818
1234.33807	0.01817
1233.05230	0.01815
1231.76654	0.01808
1230.48077	0.01800
1229.19500	0.01793
1227.90923	0.01788
1226.62346	0.01783
1225.33769	0.01776
1224.05192	0.01769
1222.76615	0.01764
1221.48039	0.01762
1220.19462	0.01763
1218.90885	0.01762
1217.62308	0.01758
1216.33731	0.01756
1215.05154	0.01758
1213.76577	0.01761
1212.48000	0.01763
1211.19423	0.01762
1209.90847	0.01760
1208.62270	0.01758
1207.33693	0.01758
1206.05116	0.01756
1204.76539	0.01750
1203.47962	0.01746
1202.19385	0.01746
1200.90808	0.01748
1199.62232	0.01749
1198.33655	0.01758
1197.05078	0.01765
1195.76501	0.01768
1194.47924	0.01769
1193.19347	0.01769
1191.90770	0.01772
1190.62193	0.01775
1189.33616	0.01778
1188.05040	0.01780
1186.76463	0.01784
1185.47886	0.01794
1184.19309	0.01809
1182.90732	0.01824
1181.62155	0.01834
1180.33578	0.01840
1179.05001	0.01846
1177.76425	0.01859
1176.47848	0.01876
1175.19271	0.01895
1173.90694	0.01913
1172.62117	0.01929
1171.33540	0.01945
1170.04963	0.01967
1168.76386	0.01995
1167.47809	0.02029
1166.19233	0.02062
1164.90656	0.02090
1163.62079	0.02116
1162.33502	0.02143
1161.04925	0.02175
1159.76348	0.02213
1158.47771	0.02257
1157.19194	0.02307
1155.90618	0.02363
1154.62041	0.02420
1153.33464	0.02475
1152.04887	0.02530
1150.76310	0.02590
1149.47733	0.02660
1148.19156	0.02741
1146.90579	0.02833
1145.62002	0.02933
1144.33426	0.03041
1143.04849	0.03158
1141.76272	0.03283
1140.47695	0.03416
1139.19118	0.03559
1137.90541	0.03715
1136.61964	0.03888
1135.33387	0.04076
1134.04811	0.04281
1132.76234	0.04504
1131.47657	0.04748
1130.19080	0.05013
1128.90503	0.05299
1127.61926	0.05606
1126.33349	0.05936
1125.04772	0.06292
1123.76195	0.06669
1122.47619	0.07061
1121.19042	0.07463
1119.90465	0.07876
1118.61888	0.08297
1117.33311	0.08725
1116.04734	0.09153
1114.76157	0.09579
1113.47580	0.10003
1112.19004	0.10430
1110.90427	0.10860
1109.61850	0.11293
1108.33273	0.11721
1107.04696	0.12136
1105.76119	0.12535
1104.47542	0.12924
1103.18965	0.13310
1101.90388	0.13695
1100.61812	0.14076
1099.33235	0.14448
1098.04658	0.14808
1096.76081	0.15155
1095.47504	0.15491
1094.18927	0.15820
1092.90350	0.16143
1091.61773	0.16456
1090.33197	0.16755
1089.04620	0.17039
1087.76043	0.17313
1086.47466	0.17583
1085.18889	0.17857
1083.90312	0.18138
1082.61735	0.18430
1081.33158	0.18733
1080.04581	0.19048
1078.76005	0.19379
1077.47428	0.19732
1076.18851	0.20108
1074.90274	0.20508
1073.61697	0.20930
1072.33120	0.21370
1071.04543	0.21822
1069.75966	0.22275
1068.47390	0.22724
1067.18813	0.23176
1065.90236	0.23637
1064.61659	0.24111
1063.33082	0.24596
1062.04505	0.25088
1060.75928	0.25582
1059.47351	0.26073
1058.18774	0.26551
1056.90198	0.27011
1055.61621	0.27458
1054.33044	0.27905
1053.04467	0.28363
1051.75890	0.28837
1050.47313	0.29325
1049.18736	0.29822
1047.90159	0.30329
1046.61583	0.30846
1045.33006	0.31376
1044.04429	0.31925
1042.75852	0.32493
1041.47275	0.33074
1040.18698	0.33660
1038.90121	0.34246
1037.61544	0.34833
1036.32967	0.35423
1035.04391	0.36017
1033.75814	0.36609
1032.47237	0.37184
1031.18660	0.37724
1029.90083	0.38213
1028.61506	0.38642
1027.32929	0.39012
1026.04352	0.39328
1024.75775	0.39597
1023.47199	0.39818
1022.18622	0.39987
1020.90045	0.40099
1019.61468	0.40152
1018.32891	0.40140
1017.04314	0.40055
1015.75737	0.39881
1014.47160	0.39610
1013.18584	0.39246
1011.90007	0.38802
1010.61430	0.38288
1009.32853	0.37699
1008.04276	0.37021
1006.75699	0.36250
1005.47122	0.35390
1004.18545	0.34455
1002.89968	0.33455
1001.61392	0.32399
1000.32815	0.31295
999.04238	0.30156
997.75661	0.28991
996.47084	0.27807
995.18507	0.26607
993.89930	0.25404
992.61353	0.24214
991.32777	0.23054
990.04200	0.21935
988.75623	0.20857
987.47046	0.19817
986.18469	0.18821
984.89892	0.17879
983.61315	0.17001
982.32738	0.16188
981.04161	0.15434
979.75585	0.14739
978.47008	0.14107
977.18431	0.13546
975.89854	0.13060
974.61277	0.12651
973.32700	0.12318
972.04123	0.12059
970.75546	0.11877
969.46970	0.11778
968.18393	0.11763
966.89816	0.11830
965.61239	0.11961
964.32662	0.12127
963.04085	0.12286
961.75508	0.12396
960.46931	0.12423
959.18354	0.12349
957.89778	0.12169
956.61201	0.11897
955.32624	0.11556
954.04047	0.11178
952.75470	0.10787
951.46893	0.10396
950.18316	0.10011
948.89739	0.09635
947.61163	0.09273
946.32586	0.08929
945.04009	0.08601
943.75432	0.08287
942.46855	0.07984
941.18278	0.07695
939.89701	0.07421
938.61124	0.07166
937.32547	0.06936
936.03971	0.06734
934.75394	0.06558
933.46817	0.06398
932.18240	0.06244
930.89663	0.06095
929.61086	0.05958
928.32509	0.05837
927.03932	0.05728
925.75356	0.05623
924.46779	0.05519
923.18202	0.05421
921.89625	0.05332
920.61048	0.05255
919.32471	0.05188
918.03894	0.05124
916.75317	0.05064
915.46740	0.05009
914.18164	0.04963
912.89587	0.04922
911.61010	0.04878
910.32433	0.04830
909.03856	0.04779
907.75279	0.04729
906.46702	0.04685
905.18125	0.04647
903.89549	0.04613
902.60972	0.04583
901.32395	0.04557
900.03818	0.04540
898.75241	0.04533
897.46664	0.04531
896.18087	0.04528
894.89510	0.04526
893.60933	0.04533
892.32357	0.04558
891.03780	0.04606
889.75203	0.04682
888.46626	0.04796
887.18049	0.04969
885.89472	0.05222
884.60895	0.05576
883.32318	0.06026
882.03742	0.06524
880.75165	0.06988
879.46588	0.07349
878.18011	0.07595
876.89434	0.07767
875.60857	0.07922
874.32280	0.08074
873.03703	0.08189
871.75126	0.08212
870.46550	0.08113
869.17973	0.07893
867.89396	0.07581
866.60819	0.07217
865.32242	0.06841
864.03665	0.06481
862.75088	0.06151
861.46511	0.05853
860.17935	0.05589
858.89358	0.05362
857.60781	0.05174
856.32204	0.05019
855.03627	0.04892
853.75050	0.04786
852.46473	0.04695
851.17896	0.04621
849.89319	0.04561
848.60743	0.04516
847.32166	0.04480
846.03589	0.04448
844.75012	0.04413
843.46435	0.04373
842.17858	0.04329
840.89281	0.04289
839.60704	0.04255
838.32128	0.04224
837.03551	0.04192
835.74974	0.04159
834.46397	0.04129
833.17820	0.04104
831.89243	0.04083
830.60666	0.04064
829.32089	0.04046
828.03512	0.04031
826.74936	0.04020
825.46359	0.04014
824.17782	0.04014
822.89205	0.04014
821.60628	0.04012
820.32051	0.04006
819.03474	0.04003
817.74897	0.04004
816.46321	0.04004
815.17744	0.03993
813.89167	0.03969
812.60590	0.03940
811.32013	0.03917
810.03436	0.03905
808.74859	0.03903
807.46282	0.03906
806.17705	0.03907
804.89129	0.03905
803.60552	0.03900
802.31975	0.03893
801.03398	0.03887
799.74821	0.03878
798.46244	0.03867
797.17667	0.03859
795.89090	0.03860
794.60513	0.03871
793.31937	0.03883
792.03360	0.03887
790.74783	0.03883
789.46206	0.03873
788.17629	0.03862
786.89052	0.03853
785.60475	0.03848
784.31898	0.03849
783.03322	0.03853
781.74745	0.03856
780.46168	0.03858
779.17591	0.03856
777.89014	0.03851
776.60437	0.03848
775.31860	0.03851
774.03283	0.03858
772.74706	0.03864
771.46130	0.03862
770.17553	0.03852
768.88976	0.03839
767.60399	0.03826
766.31822	0.03816
765.03245	0.03813
763.74668	0.03816
762.46091	0.03825
761.17515	0.03832
759.88938	0.03836
758.60361	0.03841
757.31784	0.03854
756.03207	0.03876
754.74630	0.03901
753.46053	0.03922
752.17476	0.03933
750.88899	0.03927
749.60323	0.03904
748.31746	0.03873
747.03169	0.03853
745.74592	0.03852
744.46015	0.03862
743.17438	0.03865
741.88861	0.03851
740.60284	0.03830
739.31708	0.03815
738.03131	0.03813
736.74554	0.03820
735.45977	0.03832
734.17400	0.03847
732.88823	0.03864
731.60246	0.03880
730.31669	0.03892
729.03092	0.03900
727.74516	0.03911
726.45939	0.03924
725.17362	0.03935
723.88785	0.03940
722.60208	0.03928
721.31631	0.03911
720.03054	0.03904
718.74477	0.03907
717.45901	0.03912
716.17324	0.03917
714.88747	0.03920
713.60170	0.03919
712.31593	0.03917
711.03016	0.03917
709.74439	0.03916
708.45862	0.03912
707.17285	0.03902
705.88709	0.03890
704.60132	0.03881
703.31555	0.03877
702.02978	0.03876
700.74401	0.03876
699.45824	0.03876
698.17247	0.03876
696.88670	0.03878
695.60094	0.03881
694.31517	0.03883
693.02940	0.03879
691.74363	0.03870
690.45786	0.03860
689.17209	0.03857
687.88632	0.03861
686.60055	0.03866
685.31478	0.03864
684.02902	0.03855
682.74325	0.03843
681.45748	0.03832
680.17171	0.03827
678.88594	0.03827
677.60017	0.03833
676.31440	0.03841
675.02863	0.03850
673.74287	0.03859
672.45710	0.03872
671.17133	0.03891
669.88556	0.03912
668.59979	0.03915
667.31402	0.03918
666.02825	0.03942
664.74248	0.03923
663.45671	0.03890
662.17095	0.03859
660.88518	0.03833
659.59941	0.03814
658.31364	0.03803
657.02787	0.03797
655.74210	0.03796
654.45633	0.03798
653.17056	0.03804
651.88480	0.03814
650.59903	0.03827
649.31326	0.03841
648.02749	0.03852
646.74172	0.03858
645.45595	0.03866
644.17018	0.03884
642.88441	0.03912
641.59864	0.03948
640.31288	0.03989
639.02711	0.04034
637.74134	0.04086
636.45557	0.04148
635.16980	0.04220
633.88403	0.04298
632.59826	0.04374
631.31249	0.04454
630.02673	0.04572
628.74096	0.04715
627.45519	0.04759
626.16942	0.04920
624.88365	0.05165
623.59788	0.05426
622.31211	0.05702
621.02634	0.06006
619.74057	0.06345
618.45481	0.06734
617.16904	0.07168
615.88327	0.07604
614.59750	0.08003
613.31173	0.08412
612.02596	0.08966
610.74019	0.09765
609.45442	0.10744
608.16866	0.11689
606.88289	0.12417
605.59712	0.12898
604.31135	0.13198
603.02558	0.13368
601.73981	0.13394
600.45404	0.13253
599.16827	0.12972
597.88250	0.12616
596.59674	0.12244
595.31097	0.11891
594.02520	0.11580
592.73943	0.11333
591.45366	0.11164
590.16789	0.11071
588.88212	0.11044
587.59635	0.11085
586.31059	0.11199
585.02482	0.11395
583.73905	0.11668
582.45328	0.12003
581.16751	0.12376
579.88174	0.12764
578.59597	0.13157
577.31020	0.13552
576.02443	0.13950
574.73867	0.14346
573.45290	0.14741
572.16713	0.15145
570.88136	0.15576
569.59559	0.16046
568.30982	0.16561
567.02405	0.17113
565.73828	0.17677
564.45251	0.18194
563.16675	0.18576
561.88098	0.18737
560.59521	0.18635
559.30944	0.18284
558.02367	0.17722
556.73790	0.16988
555.45213	0.16124
554.16636	0.15184
552.88060	0.14232
551.59483	0.13324
550.30906	0.12486
549.02329	0.11722
547.73752	0.11028
546.45175	0.10402
545.16598	0.09848
543.88021	0.09353
542.59444	0.08900
541.30868	0.08475
540.02291	0.08085
538.73714	0.07743
537.45137	0.07452
536.16560	0.07198
534.87983	0.06958
533.59406	0.06721
532.30829	0.06489
531.02253	0.06269
529.73676	0.06065
528.45099	0.05879
527.16522	0.05715
525.87945	0.05577
524.59368	0.05456
523.30791	0.05337
522.02214	0.05206
520.73637	0.05066
519.45061	0.04930
518.16484	0.04812
516.87907	0.04717
515.59330	0.04634
514.30753	0.04552
513.02176	0.04464
511.73599	0.04377
510.45022	0.04304
509.16446	0.04245
507.87869	0.04192
506.59292	0.04134
505.30715	0.04073
504.02138	0.04017
502.73561	0.03969
501.44984	0.03922
500.16407	0.03869
498.87830	0.03811
497.59254	0.03756
496.30677	0.03716
495.02100	0.03690
493.73523	0.03668
492.44946	0.03640
491.16369	0.03608
489.87792	0.03576
488.59215	0.03552
487.30639	0.03540
486.02062	0.03540
484.73485	0.03552
483.44908	0.03570
482.16331	0.03591
480.87754	0.03612
479.59177	0.03633
478.30600	0.03652
477.02023	0.03669
475.73447	0.03682
474.44870	0.03693
473.16293	0.03706
471.87716	0.03722
470.59139	0.03737
469.30562	0.03743
468.01985	0.03733
466.73408	0.03708
465.44832	0.03677
464.16255	0.03646
462.87678	0.03616
461.59101	0.03580
460.30524	0.03536
459.01947	0.03488
457.73370	0.03440
456.44793	0.03394
455.16216	0.03350
453.87640	0.03312
452.59063	0.03287
451.30486	0.03280
450.01909	0.03284
448.73332	0.03287
447.44755	0.03283
446.16178	0.03270
444.87601	0.03252
443.59025	0.03234
442.30448	0.03219
441.01871	0.03209
439.73294	0.03206
438.44717	0.03209
437.16140	0.03214
435.87563	0.03216
434.58986	0.03215
433.30409	0.03212
432.01833	0.03212
430.73256	0.03216
429.44679	0.03223
428.16102	0.03228
426.87525	0.03227
425.58948	0.03222
424.30371	0.03218
423.01794	0.03218
421.73218	0.03219
420.44641	0.03217
419.16064	0.03212
417.87487	0.03211
416.58910	0.03214
415.30333	0.03218
414.01756	0.03220
412.73179	0.03221
411.44602	0.03225
410.16026	0.03238
408.87449	0.03258
407.58872	0.03282
406.30295	0.03303
405.01718	0.03322
403.73141	0.03342
402.44564	0.03362
401.15987	0.03381
399.87411	0.03398
