3997.45528	0.01479
3996.16951	0.01464
3994.88374	0.01442
3993.59798	0.01424
3992.31221	0.01441
3991.02644	0.01508
3989.74067	0.01608
3988.45490	0.01701
3987.16913	0.01742
3985.88336	0.01711
3984.59759	0.01624
3983.31183	0.01524
3982.02606	0.01458
3980.74029	0.01454
3979.45452	0.01506
3978.16875	0.01578
3976.88298	0.01620
3975.59721	0.01609
3974.31144	0.01565
3973.02567	0.01527
3971.73991	0.01510
3970.45414	0.01495
3969.16837	0.01470
3967.88260	0.01453
3966.59683	0.01456
3965.31106	0.01471
3964.02529	0.01482
3962.73952	0.01490
3961.45376	0.01498
3960.16799	0.01494
3958.88222	0.01460
3957.59645	0.01414
3956.31068	0.01392
3955.02491	0.01415
3953.73914	0.01462
3952.45337	0.01500
3951.16760	0.01515
3949.88184	0.01514
3948.59607	0.01512
3947.31030	0.01512
3946.02453	0.01503
3944.73876	0.01467
3943.45299	0.01411
3942.16722	0.01364
3940.88145	0.01346
3939.59569	0.01345
3938.30992	0.01336
3937.02415	0.01319
3935.73838	0.01315
3934.45261	0.01327
3933.16684	0.01334
3931.88107	0.01318
3930.59530	0.01291
3929.30953	0.01282
3928.02377	0.01309
3926.73800	0.01361
3925.45223	0.01420
3924.16646	0.01473
3922.88069	0.01511
3921.59492	0.01519
3920.30915	0.01488
3919.02338	0.01437
3917.73762	0.01396
3916.45185	0.01377
3915.16608	0.01364
3913.88031	0.01347
3912.59454	0.01330
3911.30877	0.01327
3910.02300	0.01345
3908.73723	0.01387
3907.45146	0.01443
3906.16570	0.01487
3904.87993	0.01497
3903.59416	0.01477
3902.30839	0.01458
3901.02262	0.01459
3899.73685	0.01473
3898.45108	0.01475
3897.16531	0.01453
3895.87955	0.01426
3894.59378	0.01424
3893.30801	0.01450
3892.02224	0.01474
3890.73647	0.01462
3889.45070	0.01414
3888.16493	0.01356
3886.87916	0.01311
3885.59339	0.01289
3884.30763	0.01294
3883.02186	0.01314
3881.73609	0.01326
3880.45032	0.01322
3879.16455	0.01319
3877.87878	0.01333
3876.59301	0.01358
3875.30724	0.01374
3874.02148	0.01374
3872.73571	0.01366
3871.44994	0.01358
3870.16417	0.01360
3868.87840	0.01382
3867.59263	0.01424
3866.30686	0.01464
3865.02109	0.01472
3863.73532	0.01443
3862.44956	0.01398
3861.16379	0.01366
3859.87802	0.01365
3858.59225	0.01401
3857.30648	0.01457
3856.02071	0.01503
3854.73494	0.01507
3853.44917	0.01464
3852.16341	0.01412
3850.87764	0.01399
3849.59187	0.01434
3848.30610	0.01481
3847.02033	0.01495
3845.73456	0.01461
3844.44879	0.01391
3843.16302	0.01303
3841.87725	0.01209
3840.59149	0.01122
3839.30572	0.01061
3838.01995	0.01047
3836.73418	0.01096
3835.44841	0.01204
3834.16264	0.01337
3832.87687	0.01442
3831.59110	0.01476
3830.30534	0.01442
3829.01957	0.01380
3827.73380	0.01332
3826.44803	0.01317
3825.16226	0.01335
3823.87649	0.01373
3822.59072	0.01414
3821.30495	0.01452
3820.01918	0.01493
3818.73342	0.01543
3817.44765	0.01581
3816.16188	0.01583
3814.87611	0.01546
3813.59034	0.01495
3812.30457	0.01452
3811.01880	0.01418
3809.73303	0.01389
3808.44726	0.01363
3807.16150	0.01351
3805.87573	0.01371
3804.58996	0.01423
3803.30419	0.01476
3802.01842	0.01490
3800.73265	0.01453
3799.44688	0.01399
3798.16111	0.01373
3796.87535	0.01385
3795.58958	0.01409
3794.30381	0.01414
3793.01804	0.01391
3791.73227	0.01360
3790.44650	0.01344
3789.16073	0.01352
3787.87496	0.01372
3786.58919	0.01376
3785.30343	0.01354
3784.01766	0.01323
3782.73189	0.01312
3781.44612	0.01328
3780.16035	0.01350
3778.87458	0.01366
3777.58881	0.01382
3776.30304	0.01409
3775.01728	0.01448
3773.73151	0.01489
3772.44574	0.01526
3771.15997	0.01547
3769.87420	0.01545
3768.58843	0.01521
3767.30266	0.01484
3766.01689	0.01442
3764.73112	0.01401
3763.44536	0.01377
3762.15959	0.01380
3760.87382	0.01397
3759.58805	0.01401
3758.30228	0.01388
3757.01651	0.01378
3755.73074	0.01401
3754.44497	0.01451
3753.15921	0.01488
3751.87344	0.01480
3750.58767	0.01440
3749.30190	0.01413
3748.01613	0.01417
3746.73036	0.01420
3745.44459	0.01380
3744.15882	0.01313
3742.87305	0.01292
3741.58729	0.01366
3740.30152	0.01501
3739.01575	0.01608
3737.72998	0.01627
3736.44421	0.01568
3735.15844	0.01486
3733.87267	0.01427
3732.58690	0.01398
3731.30114	0.01383
3730.01537	0.01362
3728.72960	0.01327
3727.44383	0.01277
3726.15806	0.01214
3724.87229	0.01149
3723.58652	0.01099
3722.30075	0.01080
3721.01498	0.01093
3719.72922	0.01136
3718.44345	0.01207
3717.15768	0.01304
3715.87191	0.01410
3714.58614	0.01486
3713.30037	0.01496
3712.01460	0.01443
3710.72883	0.01375
3709.44307	0.01336
3708.15730	0.01329
3706.87153	0.01316
3705.58576	0.01274
3704.29999	0.01227
3703.01422	0.01225
3701.72845	0.01286
3700.44268	0.01367
3699.15691	0.01410
3697.87115	0.01389
3696.58538	0.01334
3695.29961	0.01290
3694.01384	0.01279
3692.72807	0.01303
3691.44230	0.01352
3690.15653	0.01403
3688.87076	0.01425
3687.58500	0.01411
3686.29923	0.01386
3685.01346	0.01376
3683.72769	0.01382
3682.44192	0.01387
3681.15615	0.01376
3679.87038	0.01347
3678.58461	0.01315
3677.29884	0.01296
3676.01308	0.01308
3674.72731	0.01360
3673.44154	0.01443
3672.15577	0.01529
3670.87000	0.01588
3669.58423	0.01602
3668.29846	0.01574
3667.01269	0.01517
3665.72693	0.01452
3664.44116	0.01403
3663.15539	0.01390
3661.86962	0.01414
3660.58385	0.01457
3659.29808	0.01480
3658.01231	0.01447
3656.72654	0.01360
3655.44077	0.01277
3654.15501	0.01266
3652.86924	0.01337
3651.58347	0.01433
3650.29770	0.01487
3649.01193	0.01492
3647.72616	0.01489
3646.44039	0.01505
3645.15462	0.01511
3643.86886	0.01470
3642.58309	0.01384
3641.29732	0.01301
3640.01155	0.01267
3638.72578	0.01287
3637.44001	0.01335
3636.15424	0.01375
3634.86847	0.01400
3633.58270	0.01426
3632.29694	0.01469
3631.01117	0.01523
3629.72540	0.01560
3628.43963	0.01557
3627.15386	0.01514
3625.86809	0.01460
3624.58232	0.01435
3623.29655	0.01457
3622.01079	0.01507
3620.72502	0.01545
3619.43925	0.01553
3618.15348	0.01536
3616.86771	0.01499
3615.58194	0.01445
3614.29617	0.01397
3613.01040	0.01396
3611.72463	0.01456
3610.43887	0.01547
3609.15310	0.01615
3607.86733	0.01633
3606.58156	0.01612
3605.29579	0.01584
3604.01002	0.01571
3602.72425	0.01572
3601.43848	0.01576
3600.15272	0.01567
3598.86695	0.01535
3597.58118	0.01486
3596.29541	0.01434
3595.00964	0.01400
3593.72387	0.01395
3592.43810	0.01427
3591.15233	0.01489
3589.86656	0.01559
3588.58080	0.01594
3587.29503	0.01564
3586.00926	0.01484
3584.72349	0.01410
3583.43772	0.01384
3582.15195	0.01411
3580.86618	0.01465
3579.58041	0.01517
3578.29464	0.01552
3577.00888	0.01566
3575.72311	0.01566
3574.43734	0.01580
3573.15157	0.01637
3571.86580	0.01735
3570.58003	0.01829
3569.29426	0.01869
3568.00849	0.01844
3566.72273	0.01790
3565.43696	0.01742
3564.15119	0.01714
3562.86542	0.01703
3561.57965	0.01714
3560.29388	0.01754
3559.00811	0.01819
3557.72234	0.01888
3556.43657	0.01931
3555.15081	0.01925
3553.86504	0.01864
3552.57927	0.01756
3551.29350	0.01631
3550.00773	0.01531
3548.72196	0.01498
3547.43619	0.01548
3546.15042	0.01658
3544.86466	0.01776
3543.57889	0.01858
3542.29312	0.01894
3541.00735	0.01899
3539.72158	0.01896
3538.43581	0.01893
3537.15004	0.01891
3535.86427	0.01895
3534.57850	0.01911
3533.29274	0.01935
3532.00697	0.01949
3530.72120	0.01936
3529.43543	0.01903
3528.14966	0.01868
3526.86389	0.01843
3525.57812	0.01821
3524.29235	0.01796
3523.00659	0.01781
3521.72082	0.01797
3520.43505	0.01846
3519.14928	0.01898
3517.86351	0.01916
3516.57774	0.01888
3515.29197	0.01843
3514.00620	0.01824
3512.72043	0.01844
3511.43467	0.01884
3510.14890	0.01906
3508.86313	0.01884
3507.57736	0.01830
3506.29159	0.01785
3505.00582	0.01793
3503.72005	0.01858
3502.43428	0.01940
3501.14852	0.01990
3499.86275	0.01994
3498.57698	0.01979
3497.29121	0.01981
3496.00544	0.02007
3494.71967	0.02039
3493.43390	0.02057
3492.14813	0.02050
3490.86236	0.02019
3489.57660	0.01970
3488.29083	0.01915
3487.00506	0.01873
3485.71929	0.01857
3484.43352	0.01867
3483.14775	0.01892
3481.86198	0.01915
3480.57621	0.01927
3479.29045	0.01939
3478.00468	0.01971
3476.71891	0.02027
3475.43314	0.02086
3474.14737	0.02112
3472.86160	0.02093
3471.57583	0.02046
3470.29006	0.02010
3469.00429	0.02014
3467.71853	0.02061
3466.43276	0.02126
3465.14699	0.02172
3463.86122	0.02179
3462.57545	0.02156
3461.28968	0.02133
3460.00391	0.02135
3458.71814	0.02161
3457.43238	0.02184
3456.14661	0.02167
3454.86084	0.02100
3453.57507	0.02010
3452.28930	0.01951
3451.00353	0.01962
3449.71776	0.02027
3448.43199	0.02101
3447.14622	0.02145
3445.86046	0.02160
3444.57469	0.02161
3443.28892	0.02160
3442.00315	0.02158
3440.71738	0.02165
3439.43161	0.02189
3438.14584	0.02227
3436.86007	0.02255
3435.57431	0.02241
3434.28854	0.02177
3433.00277	0.02084
3431.71700	0.02004
3430.43123	0.01967
3429.14546	0.01973
3427.85969	0.02000
3426.57392	0.02024
3425.28815	0.02037
3424.00239	0.02046
3422.71662	0.02062
3421.43085	0.02084
3420.14508	0.02105
3418.85931	0.02124
3417.57354	0.02146
3416.28777	0.02169
3415.00200	0.02181
3413.71624	0.02168
3412.43047	0.02133
3411.14470	0.02087
3409.85893	0.02042
3408.57316	0.02005
3407.28739	0.01988
3406.00162	0.02009
3404.71585	0.02073
3403.43008	0.02158
3402.14432	0.02233
3400.85855	0.02277
3399.57278	0.02286
3398.28701	0.02272
3397.00124	0.02241
3395.71547	0.02194
3394.42970	0.02151
3393.14393	0.02150
3391.85817	0.02207
3390.57240	0.02292
3389.28663	0.02343
3388.00086	0.02327
3386.71509	0.02271
3385.42932	0.02221
3384.14355	0.02201
3382.85778	0.02207
3381.57201	0.02230
3380.28625	0.02259
3379.00048	0.02278
3377.71471	0.02272
3376.42894	0.02242
3375.14317	0.02205
3373.85740	0.02179
3372.57163	0.02170
3371.28586	0.02182
3370.00010	0.02213
3368.71433	0.02251
3367.42856	0.02280
3366.14279	0.02285
3364.85702	0.02264
3363.57125	0.02223
3362.28548	0.02181
3360.99971	0.02151
3359.71394	0.02141
3358.42818	0.02152
3357.14241	0.02186
3355.85664	0.02237
3354.57087	0.02288
3353.28510	0.02318
3351.99933	0.02315
3350.71356	0.02289
3349.42779	0.02258
3348.14202	0.02237
3346.85626	0.02234
3345.57049	0.02241
3344.28472	0.02250
3342.99895	0.02259
3341.71318	0.02272
3340.42741	0.02286
3339.14164	0.02291
3337.85587	0.02280
3336.57011	0.02258
3335.28434	0.02242
3333.99857	0.02242
3332.71280	0.02254
3331.42703	0.02267
3330.14126	0.02277
3328.85549	0.02279
3327.56972	0.02269
3326.28395	0.02245
3324.99819	0.02213
3323.71242	0.02187
3322.42665	0.02179
3321.14088	0.02186
3319.85511	0.02195
3318.56934	0.02192
3317.28357	0.02184
3315.99780	0.02190
3314.71204	0.02211
3313.42627	0.02227
3312.14050	0.02216
3310.85473	0.02190
3309.56896	0.02171
3308.28319	0.02169
3306.99742	0.02175
3305.71165	0.02182
3304.42588	0.02184
3303.14012	0.02176
3301.85435	0.02154
3300.56858	0.02128
3299.28281	0.02109
3297.99704	0.02100
3296.71127	0.02095
3295.42550	0.02091
3294.13973	0.02085
3292.85397	0.02077
3291.56820	0.02064
3290.28243	0.02052
3288.99666	0.02054
3287.71089	0.02078
3286.42512	0.02114
3285.13935	0.02134
3283.85358	0.02127
3282.56781	0.02108
3281.28205	0.02109
3279.99628	0.02145
3278.71051	0.02201
3277.42474	0.02246
3276.13897	0.02256
3274.85320	0.02230
3273.56743	0.02186
3272.28166	0.02146
3270.99590	0.02122
3269.71013	0.02113
3268.42436	0.02115
3267.13859	0.02123
3265.85282	0.02134
3264.56705	0.02138
3263.28128	0.02131
3261.99551	0.02123
3260.70974	0.02130
3259.42398	0.02161
3258.13821	0.02204
3256.85244	0.02243
3255.56667	0.02262
3254.28090	0.02257
3252.99513	0.02232
3251.70936	0.02193
3250.42359	0.02144
3249.13783	0.02093
3247.85206	0.02054
3246.56629	0.02043
3245.28052	0.02064
3243.99475	0.02101
3242.70898	0.02134
3241.42321	0.02153
3240.13744	0.02160
3238.85167	0.02162
3237.56591	0.02162
3236.28014	0.02157
3234.99437	0.02143
3233.70860	0.02118
3232.42283	0.02086
3231.13706	0.02062
3229.85129	0.02060
3228.56552	0.02074
3227.27976	0.02087
3225.99399	0.02091
3224.70822	0.02088
3223.42245	0.02087
3222.13668	0.02091
3220.85091	0.02093
3219.56514	0.02083
3218.27937	0.02060
3216.99360	0.02034
3215.70784	0.02022
3214.42207	0.02028
3213.13630	0.02036
3211.85053	0.02035
3210.56476	0.02030
3209.27899	0.02031
3207.99322	0.02035
3206.70745	0.02034
3205.42169	0.02033
3204.13592	0.02045
3202.85015	0.02071
3201.56438	0.02098
3200.27861	0.02107
3198.99284	0.02093
3197.70707	0.02063
3196.42130	0.02033
3195.13553	0.02015
3193.84977	0.02002
3192.56400	0.01981
3191.27823	0.01943
3189.99246	0.01904
3188.70669	0.01889
3187.42092	0.01902
3186.13515	0.01923
3184.84938	0.01931
3183.56362	0.01921
3182.27785	0.01909
3180.99208	0.01911
3179.70631	0.01923
3178.42054	0.01929
3177.13477	0.01915
3175.84900	0.01880
3174.56323	0.01847
3173.27746	0.01846
3171.99170	0.01890
3170.70593	0.01962
3169.42016	0.02023
3168.13439	0.02047
3166.84862	0.02032
3165.56285	0.02001
3164.27708	0.01976
3162.99131	0.01968
3161.70555	0.01969
3160.41978	0.01970
3159.13401	0.01970
3157.84824	0.01972
3156.56247	0.01975
3155.27670	0.01967
3153.99093	0.01945
3152.70516	0.01918
3151.41939	0.01898
3150.13363	0.01888
3148.84786	0.01884
3147.56209	0.01880
3146.27632	0.01868
3144.99055	0.01854
3143.70478	0.01849
3142.41901	0.01860
3141.13324	0.01876
3139.84748	0.01875
3138.56171	0.01854
3137.27594	0.01828
3135.99017	0.01818
3134.70440	0.01830
3133.41863	0.01852
3132.13286	0.01868
3130.84709	0.01873
3129.56132	0.01868
3128.27556	0.01863
3126.98979	0.01867
3125.70402	0.01877
3124.41825	0.01885
3123.13248	0.01882
3121.84671	0.01868
3120.56094	0.01845
3119.27517	0.01816
3117.98940	0.01788
3116.70364	0.01776
3115.41787	0.01790
3114.13210	0.01819
3112.84633	0.01844
3111.56056	0.01850
3110.27479	0.01825
3108.98902	0.01766
3107.70325	0.01694
3106.41749	0.01650
3105.13172	0.01665
3103.84595	0.01724
3102.56018	0.01782
3101.27441	0.01811
3099.98864	0.01822
3098.70287	0.01839
3097.41710	0.01866
3096.13133	0.01887
3094.84557	0.01884
3093.55980	0.01855
3092.27403	0.01813
3090.98826	0.01774
3089.70249	0.01746
3088.41672	0.01729
3087.13095	0.01720
3085.84518	0.01721
3084.55942	0.01731
3083.27365	0.01748
3081.98788	0.01765
3080.70211	0.01772
3079.41634	0.01765
3078.13057	0.01751
3076.84480	0.01748
3075.55903	0.01766
3074.27326	0.01792
3072.98750	0.01798
3071.70173	0.01771
3070.41596	0.01727
3069.13019	0.01699
3067.84442	0.01705
3066.55865	0.01727
3065.27288	0.01737
3063.98711	0.01724
3062.70135	0.01708
3061.41558	0.01712
3060.12981	0.01731
3058.84404	0.01736
3057.55827	0.01711
3056.27250	0.01667
3054.98673	0.01633
3053.70096	0.01628
3052.41519	0.01651
3051.12943	0.01683
3049.84366	0.01699
3048.55789	0.01688
3047.27212	0.01656
3045.98635	0.01628
3044.70058	0.01618
3043.41481	0.01623
3042.12904	0.01625
3040.84328	0.01617
3039.55751	0.01607
3038.27174	0.01609
3036.98597	0.01615
3035.70020	0.01607
3034.41443	0.01576
3033.12866	0.01545
3031.84289	0.01539
3030.55712	0.01560
3029.27136	0.01590
3027.98559	0.01612
3026.69982	0.01624
3025.41405	0.01632
3024.12828	0.01637
3022.84251	0.01638
3021.55674	0.01642
3020.27097	0.01656
3018.98521	0.01678
3017.69944	0.01697
3016.41367	0.01699
3015.12790	0.01683
3013.84213	0.01656
3012.55636	0.01631
3011.27059	0.01615
3009.98482	0.01609
3008.69905	0.01603
3007.41329	0.01587
3006.12752	0.01562
3004.84175	0.01544
3003.55598	0.01546
3002.27021	0.01571
3000.98444	0.01607
2999.69867	0.01641
2998.41290	0.01670
2997.12714	0.01674
2995.84137	0.01645
2994.55560	0.01603
2993.26983	0.01576
2991.98406	0.01575
2990.69829	0.01591
2989.41252	0.01606
2988.12675	0.01609
2986.84098	0.01599
2985.55522	0.01586
2984.26945	0.01581
2982.98368	0.01589
2981.69791	0.01602
2980.41214	0.01607
2979.12637	0.01595
2977.84060	0.01566
2976.55483	0.01531
2975.26907	0.01514
2973.98330	0.01533
2972.69753	0.01584
2971.41176	0.01642
2970.12599	0.01679
2968.84022	0.01683
2967.55445	0.01671
2966.26868	0.01672
2964.98291	0.01704
2963.69715	0.01756
2962.41138	0.01803
2961.12561	0.01826
2959.83984	0.01826
2958.55407	0.01819
2957.26830	0.01819
2955.98253	0.01827
2954.69676	0.01834
2953.41100	0.01839
2952.12523	0.01857
2950.83946	0.01895
2949.55369	0.01930
2948.26792	0.01931
2946.98215	0.01902
2945.69638	0.01872
2944.41061	0.01860
2943.12484	0.01857
2941.83908	0.01844
2940.55331	0.01818
2939.26754	0.01790
2937.98177	0.01778
2936.69600	0.01784
2935.41023	0.01801
2934.12446	0.01815
2932.83869	0.01823
2931.55293	0.01832
2930.26716	0.01850
2928.98139	0.01875
2927.69562	0.01904
2926.40985	0.01934
2925.12408	0.01960
2923.83831	0.01970
2922.55254	0.01954
2921.26677	0.01920
2919.98101	0.01891
2918.69524	0.01885
2917.40947	0.01897
2916.12370	0.01907
2914.83793	0.01903
2913.55216	0.01888
2912.26639	0.01869
2910.98062	0.01848
2909.69486	0.01824
2908.40909	0.01790
2907.12332	0.01747
2905.83755	0.01704
2904.55178	0.01671
2903.26601	0.01648
2901.98024	0.01627
2900.69447	0.01609
2899.40870	0.01606
2898.12294	0.01623
2896.83717	0.01642
2895.55140	0.01644
2894.26563	0.01627
2892.97986	0.01611
2891.69409	0.01614
2890.40832	0.01640
2889.12255	0.01677
2887.83678	0.01702
2886.55102	0.01694
2885.26525	0.01657
2883.97948	0.01619
2882.69371	0.01606
2881.40794	0.01620
2880.12217	0.01647
2878.83640	0.01675
2877.55063	0.01703
2876.26487	0.01725
2874.97910	0.01735
2873.69333	0.01728
2872.40756	0.01708
2871.12179	0.01684
2869.83602	0.01659
2868.55025	0.01630
2867.26448	0.01591
2865.97871	0.01545
2864.69295	0.01508
2863.40718	0.01496
2862.12141	0.01509
2860.83564	0.01528
2859.54987	0.01536
2858.26410	0.01534
2856.97833	0.01535
2855.69256	0.01550
2854.40680	0.01581
2853.12103	0.01621
2851.83526	0.01660
2850.54949	0.01686
2849.26372	0.01686
2847.97795	0.01654
2846.69218	0.01595
2845.40641	0.01532
2844.12064	0.01492
2842.83488	0.01480
2841.54911	0.01481
2840.26334	0.01480
2838.97757	0.01470
2837.69180	0.01454
2836.40603	0.01433
2835.12026	0.01409
2833.83449	0.01384
2832.54873	0.01361
2831.26296	0.01345
2829.97719	0.01342
2828.69142	0.01354
2827.40565	0.01364
2826.11988	0.01356
2824.83411	0.01335
2823.54834	0.01320
2822.26257	0.01324
2820.97681	0.01337
2819.69104	0.01345
2818.40527	0.01346
2817.11950	0.01344
2815.83373	0.01336
2814.54796	0.01313
2813.26219	0.01279
2811.97642	0.01252
2810.69066	0.01249
2809.40489	0.01269
2808.11912	0.01292
2806.83335	0.01301
2805.54758	0.01291
2804.26181	0.01268
2802.97604	0.01246
2801.69027	0.01235
2800.40450	0.01239
2799.11874	0.01254
2797.83297	0.01265
2796.54720	0.01262
2795.26143	0.01244
2793.97566	0.01221
2792.68989	0.01198
2791.40412	0.01177
2790.11835	0.01158
2788.83259	0.01142
2787.54682	0.01132
2786.26105	0.01133
2784.97528	0.01149
2783.68951	0.01179
2782.40374	0.01210
2781.11797	0.01224
2779.83220	0.01216
2778.54643	0.01198
2777.26067	0.01186
2775.97490	0.01187
2774.68913	0.01195
2773.40336	0.01197
2772.11759	0.01188
2770.83182	0.01172
2769.54605	0.01161
2768.26028	0.01166
2766.97452	0.01185
2765.68875	0.01203
2764.40298	0.01212
2763.11721	0.01215
2761.83144	0.01218
2760.54567	0.01221
2759.25990	0.01223
2757.97413	0.01224
2756.68836	0.01223
2755.40260	0.01219
2754.11683	0.01211
2752.83106	0.01204
2751.54529	0.01195
2750.25952	0.01181
2748.97375	0.01163
2747.68798	0.01145
2746.40221	0.01131
2745.11645	0.01121
2743.83068	0.01116
2742.54491	0.01124
2741.25914	0.01151
2739.97337	0.01190
2738.68760	0.01225
2737.40183	0.01236
2736.11606	0.01219
2734.83029	0.01190
2733.54453	0.01167
2732.25876	0.01155
2730.97299	0.01154
2729.68722	0.01160
2728.40145	0.01167
2727.11568	0.01167
2725.82991	0.01150
2724.54414	0.01121
2723.25838	0.01097
2721.97261	0.01092
2720.68684	0.01103
2719.40107	0.01116
2718.11530	0.01121
2716.82953	0.01115
2715.54376	0.01104
2714.25799	0.01097
2712.97222	0.01102
2711.68646	0.01112
2710.40069	0.01112
2709.11492	0.01093
2707.82915	0.01065
2706.54338	0.01045
2705.25761	0.01045
2703.97184	0.01065
2702.68607	0.01094
2701.40031	0.01117
2700.11454	0.01123
2698.82877	0.01114
2697.54300	0.01099
2696.25723	0.01091
2694.97146	0.01095
2693.68569	0.01109
2692.39992	0.01121
2691.11415	0.01121
2689.82839	0.01113
2688.54262	0.01110
2687.25685	0.01116
2685.97108	0.01120
2684.68531	0.01112
2683.39954	0.01093
2682.11377	0.01074
2680.82800	0.01068
2679.54224	0.01075
2678.25647	0.01089
2676.97070	0.01100
2675.68493	0.01106
2674.39916	0.01108
2673.11339	0.01105
2671.82762	0.01094
2670.54185	0.01074
2669.25608	0.01051
2667.97032	0.01034
2666.68455	0.01028
2665.39878	0.01033
2664.11301	0.01050
2662.82724	0.01080
2661.54147	0.01122
2660.25570	0.01164
2658.96993	0.01191
2657.68417	0.01195
2656.39840	0.01184
2655.11263	0.01172
2653.82686	0.01169
2652.54109	0.01176
2651.25532	0.01188
2649.96955	0.01200
2648.68378	0.01209
2647.39801	0.01215
2646.11225	0.01217
2644.82648	0.01217
2643.54071	0.01209
2642.25494	0.01194
2640.96917	0.01171
2639.68340	0.01143
2638.39763	0.01113
2637.11186	0.01095
2635.82609	0.01097
2634.54033	0.01113
2633.25456	0.01128
2631.96879	0.01135
2630.68302	0.01138
2629.39725	0.01141
2628.11148	0.01139
2626.82571	0.01127
2625.53994	0.01115
2624.25418	0.01111
2622.96841	0.01115
2621.68264	0.01114
2620.39687	0.01098
2619.11110	0.01069
2617.82533	0.01042
2616.53956	0.01039
2615.25379	0.01068
2613.96802	0.01111
2612.68226	0.01130
2611.39649	0.01105
2610.11072	0.01052
2608.82495	0.01010
2607.53918	0.01005
2606.25341	0.01032
2604.96764	0.01064
2603.68187	0.01078
2602.39611	0.01064
2601.11034	0.01034
2599.82457	0.01013
2598.53880	0.01010
2597.25303	0.01018
2595.96726	0.01022
2594.68149	0.01011
2593.39572	0.00988
2592.10995	0.00968
2590.82419	0.00966
2589.53842	0.00984
2588.25265	0.01003
2586.96688	0.01006
2585.68111	0.00995
2584.39534	0.00982
2583.10957	0.00972
2581.82380	0.00962
2580.53804	0.00950
2579.25227	0.00941
2577.96650	0.00941
2576.68073	0.00957
2575.39496	0.00984
2574.10919	0.00999
2572.82342	0.00981
2571.53765	0.00934
2570.25188	0.00894
2568.96612	0.00891
2567.68035	0.00910
2566.39458	0.00917
2565.10881	0.00897
2563.82304	0.00870
2562.53727	0.00854
2561.25150	0.00845
2559.96573	0.00830
2558.67997	0.00806
2557.39420	0.00781
2556.10843	0.00758
2554.82266	0.00742
2553.53689	0.00741
2552.25112	0.00765
2550.96535	0.00809
2549.67958	0.00853
2548.39381	0.00879
2547.10805	0.00886
2545.82228	0.00886
2544.53651	0.00898
2543.25074	0.00926
2541.96497	0.00962
2540.67920	0.00993
2539.39343	0.01007
2538.10766	0.00986
2536.82190	0.00917
2535.53613	0.00815
2534.25036	0.00727
2532.96459	0.00699
2531.67882	0.00730
2530.39305	0.00784
2529.10728	0.00823
2527.82151	0.00838
2526.53574	0.00837
2525.24998	0.00831
2523.96421	0.00829
2522.67844	0.00838
2521.39267	0.00851
2520.10690	0.00851
2518.82113	0.00830
2517.53536	0.00802
2516.24959	0.00786
2514.96383	0.00782
2513.67806	0.00783
2512.39229	0.00785
2511.10652	0.00794
2509.82075	0.00805
2508.53498	0.00808
2507.24921	0.00801
2505.96344	0.00792
2504.67767	0.00787
2503.39191	0.00790
2502.10614	0.00798
2500.82037	0.00803
2499.53460	0.00800
2498.24883	0.00797
2496.96306	0.00806
2495.67729	0.00825
2494.39152	0.00838
2493.10576	0.00832
2491.81999	0.00809
2490.53422	0.00781
2489.24845	0.00750
2487.96268	0.00718
2486.67691	0.00687
2485.39114	0.00671
2484.10537	0.00681
2482.81960	0.00712
2481.53384	0.00741
2480.24807	0.00745
2478.96230	0.00728
2477.67653	0.00702
2476.39076	0.00677
2475.10499	0.00650
2473.81922	0.00621
2472.53345	0.00603
2471.24769	0.00604
2469.96192	0.00616
2468.67615	0.00631
2467.39038	0.00651
2466.10461	0.00683
2464.81884	0.00726
2463.53307	0.00762
2462.24730	0.00775
2460.96153	0.00763
2459.67577	0.00739
2458.39000	0.00716
2457.10423	0.00697
2455.81846	0.00683
2454.53269	0.00682
2453.24692	0.00704
2451.96115	0.00745
2450.67538	0.00791
2449.38962	0.00821
2448.10385	0.00823
2446.81808	0.00796
2445.53231	0.00756
2444.24654	0.00721
2442.96077	0.00696
2441.67500	0.00684
2440.38923	0.00688
2439.10346	0.00708
2437.81770	0.00732
2436.53193	0.00739
2435.24616	0.00725
2433.96039	0.00704
2432.67462	0.00691
2431.38885	0.00689
2430.10308	0.00688
2428.81731	0.00686
2427.53155	0.00696
2426.24578	0.00721
2424.96001	0.00747
2423.67424	0.00751
2422.38847	0.00721
2421.10270	0.00669
2419.81693	0.00613
2418.53116	0.00578
2417.24539	0.00579
2415.95963	0.00614
2414.67386	0.00662
2413.38809	0.00703
2412.10232	0.00726
2410.81655	0.00723
2409.53078	0.00691
2408.24501	0.00640
2406.95924	0.00597
2405.67347	0.00584
2404.38771	0.00602
2403.10194	0.00636
2401.81617	0.00663
2400.53040	0.00664
2399.24463	0.00647
2397.95886	0.00606
2396.67309	0.00584
2395.38732	0.00602
2394.10156	0.00642
2392.81579	0.00673
2391.53002	0.00675
2390.24425	0.00650
2388.95848	0.00622
2387.67271	0.00615
2386.38694	0.00632
2385.10117	0.00656
2383.81540	0.00666
2382.52964	0.00658
2381.24387	0.00646
2379.95810	0.00641
2378.67233	0.00646
2377.38656	0.00650
2376.10079	0.00642
2374.81502	0.00625
2373.52925	0.00603
2372.24349	0.00583
2370.95772	0.00568
2369.67195	0.00567
2368.38618	0.00581
2367.10041	0.00611
2365.81464	0.00651
2364.52887	0.00684
2363.24310	0.00694
2361.95733	0.00682
2360.67157	0.00662
2359.38580	0.00659
2358.10003	0.00680
2356.81426	0.00710
2355.52849	0.00739
2354.24272	0.00766
2352.95695	0.00785
2351.67118	0.00785
2350.38542	0.00777
2349.09965	0.00777
2347.81388	0.00775
2346.52811	0.00749
2345.24234	0.00721
2343.95657	0.00737
2342.67080	0.00784
2341.38503	0.00787
2340.09926	0.00746
2338.81350	0.00757
2337.52773	0.00824
2336.24196	0.00829
2334.95619	0.00777
2333.67042	0.00782
2332.38465	0.00817
2331.09888	0.00790
2329.81311	0.00789
2328.52735	0.00898
2327.24158	0.00999
2325.95581	0.01074
2324.67004	0.01160
2323.38427	0.01167
2322.09850	0.01094
2320.81273	0.01047
2319.52696	0.01006
2318.24119	0.00968
2316.95543	0.00963
2315.66966	0.00948
2314.38389	0.00927
2313.09812	0.00923
2311.81235	0.00912
2310.52658	0.00901
2309.24081	0.00883
2307.95504	0.00852
2306.66928	0.00833
2305.38351	0.00836
2304.09774	0.00860
2302.81197	0.00888
2301.52620	0.00893
2300.24043	0.00874
2298.95466	0.00837
2297.66889	0.00800
2296.38312	0.00782
2295.09736	0.00798
2293.81159	0.00852
2292.52582	0.00922
2291.24005	0.00977
2289.95428	0.00994
2288.66851	0.00964
2287.38274	0.00903
2286.09697	0.00839
2284.81121	0.00795
2283.52544	0.00777
2282.23967	0.00775
2280.95390	0.00780
2279.66813	0.00796
2278.38236	0.00820
2277.09659	0.00837
2275.81082	0.00833
2274.52505	0.00807
2273.23929	0.00778
2271.95352	0.00766
2270.66775	0.00767
2269.38198	0.00760
2268.09621	0.00729
2266.81044	0.00686
2265.52467	0.00659
2264.23890	0.00658
2262.95314	0.00663
2261.66737	0.00651
2260.38160	0.00632
2259.09583	0.00627
2257.81006	0.00636
2256.52429	0.00634
2255.23852	0.00601
2253.95275	0.00549
2252.66698	0.00506
2251.38122	0.00490
2250.09545	0.00493
2248.80968	0.00512
2247.52391	0.00529
2246.23814	0.00545
2244.95237	0.00576
2243.66660	0.00623
2242.38083	0.00652
2241.09507	0.00629
2239.80930	0.00568
2238.52353	0.00528
2237.23776	0.00556
2235.95199	0.00631
2234.66622	0.00689
2233.38045	0.00688
2232.09468	0.00635
2230.80891	0.00555
2229.52315	0.00463
2228.23738	0.00374
2226.95161	0.00319
2225.66584	0.00328
2224.38007	0.00390
2223.09430	0.00460
2221.80853	0.00500
2220.52276	0.00518
2219.23700	0.00541
2217.95123	0.00572
2216.66546	0.00581
2215.37969	0.00544
2214.09392	0.00475
2212.80815	0.00413
2211.52238	0.00395
2210.23661	0.00437
2208.95084	0.00502
2207.66508	0.00513
2206.37931	0.00414
2205.09354	0.00244
2203.80777	0.00117
2202.52200	0.00118
2201.23623	0.00226
2199.95046	0.00357
2198.66469	0.00441
2197.37893	0.00474
2196.09316	0.00487
2194.80739	0.00491
2193.52162	0.00472
2192.23585	0.00429
2190.95008	0.00389
2189.66431	0.00387
2188.37854	0.00423
2187.09277	0.00453
2185.80701	0.00415
2184.52124	0.00280
2183.23547	0.00105
2181.94970	-0.00010
2180.66393	-0.00010
2179.37816	0.00070
2178.09239	0.00153
2176.80662	0.00201
2175.52085	0.00227
2174.23509	0.00262
2172.94932	0.00317
2171.66355	0.00383
2170.37778	0.00446
2169.09201	0.00500
2167.80624	0.00532
2166.52047	0.00532
2165.23470	0.00504
2163.94894	0.00477
2162.66317	0.00462
2161.37740	0.00413
2160.09163	0.00267
2158.80586	0.00027
2157.52009	-0.00220
2156.23432	-0.00370
2154.94855	-0.00378
2153.66278	-0.00277
2152.37702	-0.00145
2151.09125	-0.00051
2149.80548	-0.00009
2148.51971	0.00002
2147.23394	0.00005
2145.94817	0.00006
2144.66240	0.00004
2143.37663	-0.00010
2142.09087	-0.00043
2140.80510	-0.00085
2139.51933	-0.00097
2138.23356	-0.00043
2136.94779	0.00054
2135.66202	0.00126
2134.37625	0.00126
2133.09048	0.00072
2131.80471	0.00008
2130.51895	-0.00043
2129.23318	-0.00081
2127.94741	-0.00092
2126.66164	-0.00054
2125.37587	0.00031
2124.09010	0.00136
2122.80433	0.00238
2121.51856	0.00325
2120.23280	0.00386
2118.94703	0.00407
2117.66126	0.00390
2116.37549	0.00363
2115.08972	0.00349
2113.80395	0.00354
2112.51818	0.00369
2111.23241	0.00388
2109.94664	0.00392
2108.66088	0.00351
2107.37511	0.00253
2106.08934	0.00141
2104.80357	0.00083
2103.51780	0.00112
2102.23203	0.00196
2100.94626	0.00276
2099.66049	0.00347
2098.37473	0.00377
2097.08896	0.00378
2095.80319	0.00370
2094.51742	0.00360
2093.23165	0.00349
2091.94588	0.00338
2090.66011	0.00325
2089.37434	0.00311
2088.08857	0.00294
2086.80281	0.00273
2085.51704	0.00254
2084.23127	0.00255
2082.94550	0.00292
2081.65973	0.00357
2080.37396	0.00418
2079.08819	0.00450
2077.80242	0.00463
2076.51666	0.00481
2075.23089	0.00502
2073.94512	0.00499
2072.65935	0.00456
2071.37358	0.00396
2070.08781	0.00356
2068.80204	0.00343
2067.51627	0.00330
2066.23050	0.00293
2064.94474	0.00240
2063.65897	0.00205
2062.37320	0.00222
2061.08743	0.00286
2059.80166	0.00365
2058.51589	0.00425
2057.23012	0.00458
2055.94435	0.00477
2054.65859	0.00489
2053.37282	0.00484
2052.08705	0.00437
2050.80128	0.00353
2049.51551	0.00280
2048.22974	0.00283
2046.94397	0.00370
2045.65820	0.00475
2044.37243	0.00515
2043.08667	0.00461
2041.80090	0.00349
2040.51513	0.00237
2039.22936	0.00160
2037.94359	0.00121
2036.65782	0.00111
2035.37205	0.00116
2034.08628	0.00112
2032.80052	0.00084
2031.51475	0.00044
2030.22898	0.00029
2028.94321	0.00064
2027.65744	0.00139
2026.37167	0.00217
2025.08590	0.00264
2023.80013	0.00256
2022.51436	0.00192
2021.22860	0.00100
2019.94283	0.00016
2018.65706	-0.00044
2017.37129	-0.00088
2016.08552	-0.00124
2014.79975	-0.00133
2013.51398	-0.00085
2012.22821	0.00013
2010.94245	0.00102
2009.65668	0.00106
2008.37091	0.00003
2007.08514	-0.00150
2005.79937	-0.00260
2004.51360	-0.00266
2003.22783	-0.00162
2001.94206	0.00014
2000.65629	0.00191
1999.37053	0.00288
1998.08476	0.00273
1996.79899	0.00199
1995.51322	0.00160
1994.22745	0.00197
1992.94168	0.00262
1991.65591	0.00277
1990.37014	0.00221
1989.08438	0.00135
1987.79861	0.00079
1986.51284	0.00074
1985.22707	0.00108
1983.94130	0.00157
1982.65553	0.00211
1981.36976	0.00269
1980.08399	0.00316
1978.79822	0.00333
1977.51246	0.00317
1976.22669	0.00287
1974.94092	0.00255
1973.65515	0.00212
1972.36938	0.00165
1971.08361	0.00140
1969.79784	0.00156
1968.51207	0.00190
1967.22631	0.00213
1965.94054	0.00223
1964.65477	0.00237
1963.36900	0.00257
1962.08323	0.00257
1960.79746	0.00217
1959.51169	0.00142
1958.22592	0.00063
1956.94015	0.00007
1955.65439	-0.00007
1954.36862	0.00024
1953.08285	0.00095
1951.79708	0.00187
1950.51131	0.00274
1949.22554	0.00335
1947.93977	0.00359
1946.65400	0.00348
1945.36823	0.00321
1944.08247	0.00306
1942.79670	0.00322
1941.51093	0.00363
1940.22516	0.00400
1938.93939	0.00404
1937.65362	0.00373
1936.36785	0.00333
1935.08208	0.00312
1933.79632	0.00311
1932.51055	0.00312
1931.22478	0.00305
1929.93901	0.00301
1928.65324	0.00309
1927.36747	0.00318
1926.08170	0.00309
1924.79593	0.00280
1923.51016	0.00259
1922.22440	0.00270
1920.93863	0.00309
1919.65286	0.00340
1918.36709	0.00336
1917.08132	0.00308
1915.79555	0.00293
1914.50978	0.00311
1913.22401	0.00343
1911.93825	0.00355
1910.65248	0.00337
1909.36671	0.00307
1908.08094	0.00289
1906.79517	0.00294
1905.50940	0.00314
1904.22363	0.00334
1902.93786	0.00342
1901.65209	0.00341
1900.36633	0.00339
1899.08056	0.00346
1897.79479	0.00357
1896.50902	0.00356
1895.22325	0.00332
1893.93748	0.00299
1892.65171	0.00285
1891.36594	0.00306
1890.08018	0.00345
1888.79441	0.00365
1887.50864	0.00351
1886.22287	0.00317
1884.93710	0.00289
1883.65133	0.00282
1882.36556	0.00288
1881.07979	0.00298
1879.79402	0.00304
1878.50826	0.00305
1877.22249	0.00302
1875.93672	0.00298
1874.65095	0.00297
1873.36518	0.00301
1872.07941	0.00309
1870.79364	0.00321
1869.50787	0.00335
1868.22211	0.00347
1866.93634	0.00354
1865.65057	0.00360
1864.36480	0.00363
1863.07903	0.00360
1861.79326	0.00350
1860.50749	0.00339
1859.22172	0.00333
1857.93595	0.00333
1856.65019	0.00340
1855.36442	0.00353
1854.07865	0.00366
1852.79288	0.00373
1851.50711	0.00377
1850.22134	0.00383
1848.93557	0.00393
1847.64980	0.00403
1846.36404	0.00407
1845.07827	0.00404
1843.79250	0.00396
1842.50673	0.00383
1841.22096	0.00370
1839.93519	0.00355
1838.64942	0.00341
1837.36365	0.00326
1836.07788	0.00313
1834.79212	0.00309
1833.50635	0.00318
1832.22058	0.00338
1830.93481	0.00362
1829.64904	0.00381
1828.36327	0.00393
1827.07750	0.00404
1825.79173	0.00413
1824.50597	0.00418
1823.22020	0.00415
1821.93443	0.00405
1820.64866	0.00392
1819.36289	0.00376
1818.07712	0.00354
1816.79135	0.00326
1815.50558	0.00301
1814.21981	0.00289
1812.93405	0.00297
1811.64828	0.00319
1810.36251	0.00347
1809.07674	0.00376
1807.79097	0.00401
1806.50520	0.00418
1805.21943	0.00424
1803.93366	0.00420
1802.64790	0.00412
1801.36213	0.00406
1800.07636	0.00404
1798.79059	0.00406
1797.50482	0.00414
1796.21905	0.00427
1794.93328	0.00444
1793.64751	0.00460
1792.36174	0.00465
1791.07598	0.00458
1789.79021	0.00444
1788.50444	0.00433
1787.21867	0.00429
1785.93290	0.00429
1784.64713	0.00430
1783.36136	0.00430
1782.07559	0.00431
1780.78983	0.00430
1779.50406	0.00427
1778.21829	0.00422
1776.93252	0.00422
1775.64675	0.00431
1774.36098	0.00446
1773.07521	0.00460
1771.78944	0.00472
1770.50367	0.00482
1769.21791	0.00489
1767.93214	0.00490
1766.64637	0.00487
1765.36060	0.00485
1764.07483	0.00490
1762.78906	0.00497
1761.50329	0.00501
1760.21752	0.00498
1758.93176	0.00489
1757.64599	0.00477
1756.36022	0.00472
1755.07445	0.00479
1753.78868	0.00496
1752.50291	0.00513
1751.21714	0.00524
1749.93137	0.00532
1748.64560	0.00540
1747.35984	0.00546
1746.07407	0.00544
1744.78830	0.00532
1743.50253	0.00517
1742.21676	0.00510
1740.93099	0.00514
1739.64522	0.00526
1738.35945	0.00543
1737.07369	0.00563
1735.78792	0.00576
1734.50215	0.00574
1733.21638	0.00557
1731.93061	0.00539
1730.64484	0.00530
1729.35907	0.00534
1728.07330	0.00547
1726.78753	0.00563
1725.50177	0.00576
1724.21600	0.00585
1722.93023	0.00593
1721.64446	0.00603
1720.35869	0.00616
1719.07292	0.00627
1717.78715	0.00630
1716.50138	0.00624
1715.21561	0.00618
1713.92985	0.00619
1712.64408	0.00629
1711.35831	0.00646
1710.07254	0.00667
1708.78677	0.00688
1707.50100	0.00704
1706.21523	0.00713
1704.92946	0.00718
1703.64370	0.00727
1702.35793	0.00741
1701.07216	0.00757
1699.78639	0.00769
1698.50062	0.00777
1697.21485	0.00781
1695.92908	0.00780
1694.64331	0.00778
1693.35754	0.00781
1692.07178	0.00790
1690.78601	0.00802
1689.50024	0.00815
1688.21447	0.00834
1686.92870	0.00857
1685.64293	0.00873
1684.35716	0.00874
1683.07139	0.00863
1681.78563	0.00856
1680.49986	0.00862
1679.21409	0.00876
1677.92832	0.00887
1676.64255	0.00892
1675.35678	0.00893
1674.07101	0.00898
1672.78524	0.00912
1671.49947	0.00932
1670.21371	0.00951
1668.92794	0.00964
1667.64217	0.00973
1666.35640	0.00984
1665.07063	0.00995
1663.78486	0.01000
1662.49909	0.00996
1661.21332	0.00989
1659.92756	0.00992
1658.64179	0.01012
1657.35602	0.01049
1656.07025	0.01089
1654.78448	0.01114
1653.49871	0.01112
1652.21294	0.01093
1650.92717	0.01077
1649.64140	0.01079
1648.35564	0.01091
1647.06987	0.01095
1645.78410	0.01084
1644.49833	0.01064
1643.21256	0.01052
1641.92679	0.01056
1640.64102	0.01073
1639.35525	0.01094
1638.06949	0.01109
1636.78372	0.01111
1635.49795	0.01100
1634.21218	0.01087
1632.92641	0.01081
1631.64064	0.01086
1630.35487	0.01097
1629.06910	0.01109
1627.78333	0.01118
1626.49757	0.01122
1625.21180	0.01120
1623.92603	0.01111
1622.64026	0.01099
1621.35449	0.01093
1620.06872	0.01099
1618.78295	0.01113
1617.49718	0.01122
1616.21142	0.01120
1614.92565	0.01112
1613.63988	0.01109
1612.35411	0.01115
1611.06834	0.01123
1609.78257	0.01130
1608.49680	0.01138
1607.21103	0.01148
1605.92526	0.01158
1604.63950	0.01164
1603.35373	0.01165
1602.06796	0.01169
1600.78219	0.01179
1599.49642	0.01191
1598.21065	0.01200
1596.92488	0.01203
1595.63911	0.01204
1594.35335	0.01207
1593.06758	0.01211
1591.78181	0.01216
1590.49604	0.01224
1589.21027	0.01233
1587.92450	0.01246
1586.63873	0.01259
1585.35296	0.01269
1584.06719	0.01274
1582.78143	0.01274
1581.49566	0.01274
1580.20989	0.01279
1578.92412	0.01291
1577.63835	0.01303
1576.35258	0.01311
1575.06681	0.01313
1573.78104	0.01315
1572.49528	0.01321
1571.20951	0.01328
1569.92374	0.01334
1568.63797	0.01336
1567.35220	0.01340
1566.06643	0.01347
1564.78066	0.01360
1563.49489	0.01383
1562.20912	0.01414
1560.92336	0.01443
1559.63759	0.01459
1558.35182	0.01458
1557.06605	0.01444
1555.78028	0.01429
1554.49451	0.01419
1553.20874	0.01415
1551.92297	0.01417
1550.63721	0.01421
1549.35144	0.01424
1548.06567	0.01427
1546.77990	0.01435
1545.49413	0.01453
1544.20836	0.01480
1542.92259	0.01506
1541.63682	0.01523
1540.35105	0.01523
1539.06529	0.01508
1537.77952	0.01491
1536.49375	0.01482
1535.20798	0.01487
1533.92221	0.01502
1532.63644	0.01520
1531.35067	0.01540
1530.06490	0.01558
1528.77914	0.01574
1527.49337	0.01592
1526.20760	0.01613
1524.92183	0.01640
1523.63606	0.01672
1522.35029	0.01704
1521.06452	0.01735
1519.77875	0.01766
1518.49298	0.01799
1517.20722	0.01834
1515.92145	0.01871
1514.63568	0.01910
1513.34991	0.01957
1512.06414	0.02013
1510.77837	0.02080
1509.49260	0.02150
1508.20683	0.02210
1506.92107	0.02249
1505.63530	0.02270
1504.34953	0.02287
1503.06376	0.02313
1501.77799	0.02352
1500.49222	0.02398
1499.20645	0.02437
1497.92068	0.02466
1496.63491	0.02487
1495.34915	0.02508
1494.06338	0.02537
1492.77761	0.02576
1491.49184	0.02619
1490.20607	0.02660
1488.92030	0.02696
1487.63453	0.02727
1486.34876	0.02761
1485.06299	0.02799
1483.77723	0.02843
1482.49146	0.02887
1481.20569	0.02926
1479.91992	0.02957
1478.63415	0.02988
1477.34838	0.03024
1476.06261	0.03067
1474.77684	0.03112
1473.49108	0.03148
1472.20531	0.03168
1470.91954	0.03176
1469.63377	0.03181
1468.34800	0.03191
1467.06223	0.03205
1465.77646	0.03216
1464.49069	0.03218
1463.20492	0.03215
1461.91916	0.03218
1460.63339	0.03239
1459.34762	0.03275
1458.06185	0.03311
1456.77608	0.03335
1455.49031	0.03343
1454.20454	0.03343
1452.91877	0.03345
1451.63301	0.03352
1450.34724	0.03362
1449.06147	0.03371
1447.77570	0.03372
1446.48993	0.03368
1445.20416	0.03362
1443.91839	0.03353
1442.63262	0.03338
1441.34685	0.03320
1440.06109	0.03302
1438.77532	0.03291
1437.48955	0.03286
1436.20378	0.03284
1434.91801	0.03286
1433.63224	0.03297
1432.34647	0.03318
1431.06070	0.03350
1429.77494	0.03389
1428.48917	0.03432
1427.20340	0.03481
1425.91763	0.03538
1424.63186	0.03599
1423.34609	0.03660
1422.06032	0.03718
1420.77455	0.03764
1419.48878	0.03798
1418.20302	0.03818
1416.91725	0.03832
1415.63148	0.03844
1414.34571	0.03851
1413.05994	0.03848
1411.77417	0.03834
1410.48840	0.03811
1409.20263	0.03784
1407.91687	0.03754
1406.63110	0.03714
1405.34533	0.03663
1404.05956	0.03603
1402.77379	0.03540
1401.48802	0.03475
1400.20225	0.03405
1398.91648	0.03330
1397.63071	0.03250
1396.34495	0.03169
1395.05918	0.03089
1393.77341	0.03008
1392.48764	0.02928
1391.20187	0.02853
1389.91610	0.02784
1388.63033	0.02718
1387.34456	0.02651
1386.05880	0.02582
1384.77303	0.02512
1383.48726	0.02443
1382.20149	0.02375
1380.91572	0.02306
1379.62995	0.02235
1378.34418	0.02159
1377.05841	0.02080
1375.77264	0.02000
1374.48688	0.01924
1373.20111	0.01855
1371.91534	0.01794
1370.62957	0.01737
1369.34380	0.01681
1368.05803	0.01622
1366.77226	0.01563
1365.48649	0.01511
1364.20073	0.01468
1362.91496	0.01433
1361.62919	0.01399
1360.34342	0.01362
1359.05765	0.01322
1357.77188	0.01284
1356.48611	0.01251
1355.20034	0.01223
1353.91457	0.01196
1352.62881	0.01169
1351.34304	0.01141
1350.05727	0.01114
1348.77150	0.01092
1347.48573	0.01075
1346.19996	0.01063
1344.91419	0.01053
1343.62842	0.01042
1342.34266	0.01029
1341.05689	0.01012
1339.77112	0.00992
1338.48535	0.00973
1337.19958	0.00959
1335.91381	0.00949
1334.62804	0.00940
1333.34227	0.00930
1332.05650	0.00918
1330.77074	0.00908
1329.48497	0.00900
1328.19920	0.00893
1326.91343	0.00884
1325.62766	0.00872
1324.34189	0.00863
1323.05612	0.00860
1321.77035	0.00864
1320.48459	0.00870
1319.19882	0.00871
1317.91305	0.00863
1316.62728	0.00848
1315.34151	0.00834
1314.05574	0.00826
1312.76997	0.00824
1311.48420	0.00824
1310.19843	0.00820
1308.91267	0.00812
1307.62690	0.00801
1306.34113	0.00791
1305.05536	0.00785
1303.76959	0.00782
1302.48382	0.00781
1301.19805	0.00778
1299.91228	0.00771
1298.62652	0.00763
1297.34075	0.00757
1296.05498	0.00756
1294.76921	0.00757
1293.48344	0.00758
1292.19767	0.00757
1290.91190	0.00754
1289.62613	0.00748
1288.34036	0.00738
1287.05460	0.00725
1285.76883	0.00715
1284.48306	0.00713
1283.19729	0.00717
1281.91152	0.00721
1280.62575	0.00721
1279.33998	0.00714
1278.05421	0.00703
1276.76845	0.00691
1275.48268	0.00682
1274.19691	0.00678
1272.91114	0.00678
1271.62537	0.00683
1270.33960	0.00687
1269.05383	0.00689
1267.76806	0.00688
1266.48229	0.00685
1265.19653	0.00683
1263.91076	0.00681
1262.62499	0.00678
1261.33922	0.00675
1260.05345	0.00673
1258.76768	0.00671
1257.48191	0.00671
1256.19614	0.00669
1254.91037	0.00664
1253.62461	0.00656
1252.33884	0.00648
1251.05307	0.00646
1249.76730	0.00653
1248.48153	0.00662
1247.19576	0.00669
1245.90999	0.00668
1244.62422	0.00661
1243.33846	0.00651
1242.05269	0.00641
1240.76692	0.00633
1239.48115	0.00630
1238.19538	0.00631
1236.90961	0.00634
1235.62384	0.00638
1234.33807	0.00641
1233.05230	0.00643
1231.76654	0.00643
1230.48077	0.00640
1229.19500	0.00635
1227.90923	0.00629
1226.62346	0.00623
1225.33769	0.00618
1224.05192	0.00614
1222.76615	0.00612
1221.48039	0.00613
1220.19462	0.00619
1218.90885	0.00628
1217.62308	0.00634
1216.33731	0.00633
1215.05154	0.00626
1213.76577	0.00619
1212.48000	0.00618
1211.19423	0.00624
1209.90847	0.00630
1208.62270	0.00630
1207.33693	0.00622
1206.05116	0.00611
1204.76539	0.00604
1203.47962	0.00605
1202.19385	0.00613
1200.90808	0.00621
1199.62232	0.00631
1198.33655	0.00642
1197.05078	0.00650
1195.76501	0.00650
1194.47924	0.00642
1193.19347	0.00630
1191.90770	0.00622
1190.62193	0.00621
1189.33616	0.00626
1188.05040	0.00632
1186.76463	0.00636
1185.47886	0.00639
1184.19309	0.00645
1182.90732	0.00654
1181.62155	0.00660
1180.33578	0.00661
1179.05001	0.00658
1177.76425	0.00654
1176.47848	0.00652
1175.19271	0.00655
1173.90694	0.00666
1172.62117	0.00684
1171.33540	0.00704
1170.04963	0.00717
1168.76386	0.00721
1167.47809	0.00717
1166.19233	0.00715
1164.90656	0.00719
1163.62079	0.00729
1162.33502	0.00740
1161.04925	0.00750
1159.76348	0.00759
1158.47771	0.00766
1157.19194	0.00770
1155.90618	0.00777
1154.62041	0.00793
1153.33464	0.00815
1152.04887	0.00837
1150.76310	0.00854
1149.47733	0.00873
1148.19156	0.00898
1146.90579	0.00931
1145.62002	0.00967
1144.33426	0.01002
1143.04849	0.01042
1141.76272	0.01091
1140.47695	0.01146
1139.19118	0.01201
1137.90541	0.01253
1136.61964	0.01307
1135.33387	0.01368
1134.04811	0.01435
1132.76234	0.01508
1131.47657	0.01589
1130.19080	0.01686
1128.90503	0.01802
1127.61926	0.01932
1126.33349	0.02068
1125.04772	0.02208
1123.76195	0.02352
1122.47619	0.02502
1121.19042	0.02656
1119.90465	0.02810
1118.61888	0.02961
1117.33311	0.03109
1116.04734	0.03254
1114.76157	0.03396
1113.47580	0.03538
1112.19004	0.03679
1110.90427	0.03814
1109.61850	0.03942
1108.33273	0.04067
1107.04696	0.04194
1105.76119	0.04317
1104.47542	0.04427
1103.18965	0.04521
1101.90388	0.04606
1100.61812	0.04693
1099.33235	0.04793
1098.04658	0.04902
1096.76081	0.05011
1095.47504	0.05108
1094.18927	0.05189
1092.90350	0.05258
1091.61773	0.05322
1090.33197	0.05388
1089.04620	0.05459
1087.76043	0.05533
1086.47466	0.05612
1085.18889	0.05694
1083.90312	0.05781
1082.61735	0.05872
1081.33158	0.05965
1080.04581	0.06056
1078.76005	0.06147
1077.47428	0.06242
1076.18851	0.06348
1074.90274	0.06468
1073.61697	0.06595
1072.33120	0.06722
1071.04543	0.06845
1069.75966	0.06967
1068.47390	0.07089
1067.18813	0.07214
1065.90236	0.07345
1064.61659	0.07485
1063.33082	0.07635
1062.04505	0.07788
1060.75928	0.07934
1059.47351	0.08069
1058.18774	0.08195
1056.90198	0.08318
1055.61621	0.08442
1054.33044	0.08566
1053.04467	0.08688
1051.75890	0.08808
1050.47313	0.08928
1049.18736	0.09055
1047.90159	0.09192
1046.61583	0.09338
1045.33006	0.09486
1044.04429	0.09631
1042.75852	0.09772
1041.47275	0.09911
1040.18698	0.10050
1038.90121	0.10189
1037.61544	0.10325
1036.32967	0.10455
1035.04391	0.10573
1033.75814	0.10678
1032.47237	0.10768
1031.18660	0.10841
1029.90083	0.10894
1028.61506	0.10929
1027.32929	0.10948
1026.04352	0.10958
1024.75775	0.10956
1023.47199	0.10935
1022.18622	0.10893
1020.90045	0.10829
1019.61468	0.10744
1018.32891	0.10635
1017.04314	0.10503
1015.75737	0.10352
1014.47160	0.10187
1013.18584	0.10007
1011.90007	0.09808
1010.61430	0.09587
1009.32853	0.09348
1008.04276	0.09095
1006.75699	0.08828
1005.47122	0.08544
1004.18545	0.08249
1002.89968	0.07950
1001.61392	0.07649
1000.32815	0.07344
999.04238	0.07035
997.75661	0.06723
996.47084	0.06415
995.18507	0.06118
993.89930	0.05835
992.61353	0.05566
991.32777	0.05307
990.04200	0.05055
988.75623	0.04812
987.47046	0.04586
986.18469	0.04377
984.89892	0.04182
983.61315	0.03997
982.32738	0.03826
981.04161	0.03672
979.75585	0.03536
978.47008	0.03415
977.18431	0.03308
975.89854	0.03213
974.61277	0.03132
973.32700	0.03070
972.04123	0.03026
970.75546	0.03001
969.46970	0.02996
968.18393	0.03012
966.89816	0.03048
965.61239	0.03097
964.32662	0.03149
963.04085	0.03191
961.75508	0.03211
960.46931	0.03204
959.18354	0.03173
957.89778	0.03122
956.61201	0.03051
955.32624	0.02965
954.04047	0.02871
952.75470	0.02775
951.46893	0.02682
950.18316	0.02591
948.89739	0.02502
947.61163	0.02419
946.32586	0.02340
945.04009	0.02264
943.75432	0.02192
942.46855	0.02129
941.18278	0.02076
939.89701	0.02028
938.61124	0.01980
937.32547	0.01932
936.03971	0.01887
934.75394	0.01848
933.46817	0.01810
932.18240	0.01772
930.89663	0.01733
929.61086	0.01697
928.32509	0.01669
927.03932	0.01647
925.75356	0.01628
924.46779	0.01609
923.18202	0.01586
921.89625	0.01565
920.61048	0.01550
919.32471	0.01541
918.03894	0.01535
916.75317	0.01527
915.46740	0.01515
914.18164	0.01500
912.89587	0.01483
911.61010	0.01469
910.32433	0.01458
909.03856	0.01447
907.75279	0.01434
906.46702	0.01421
905.18125	0.01414
903.89549	0.01411
902.60972	0.01404
901.32395	0.01384
900.03818	0.01357
898.75241	0.01332
897.46664	0.01313
896.18087	0.01294
894.89510	0.01276
893.60933	0.01268
892.32357	0.01279
891.03780	0.01308
889.75203	0.01344
888.46626	0.01379
887.18049	0.01417
885.89472	0.01477
884.60895	0.01573
883.32318	0.01701
882.03742	0.01835
880.75165	0.01946
879.46588	0.02016
878.18011	0.02055
876.89434	0.02086
875.60857	0.02132
874.32280	0.02194
873.03703	0.02253
871.75126	0.02281
870.46550	0.02265
869.17973	0.02211
867.89396	0.02132
866.60819	0.02042
865.32242	0.01946
864.03665	0.01851
862.75088	0.01759
861.46511	0.01673
860.17935	0.01597
858.89358	0.01535
857.60781	0.01486
856.32204	0.01447
855.03627	0.01413
853.75050	0.01384
852.46473	0.01363
851.17896	0.01346
849.89319	0.01330
848.60743	0.01315
847.32166	0.01300
846.03589	0.01287
844.75012	0.01273
843.46435	0.01263
842.17858	0.01258
840.89281	0.01261
839.60704	0.01269
838.32128	0.01275
837.03551	0.01275
835.74974	0.01268
834.46397	0.01260
833.17820	0.01257
831.89243	0.01259
830.60666	0.01259
829.32089	0.01253
828.03512	0.01245
826.74936	0.01238
825.46359	0.01237
824.17782	0.01239
822.89205	0.01242
821.60628	0.01241
820.32051	0.01234
819.03474	0.01219
817.74897	0.01197
816.46321	0.01173
815.17744	0.01158
813.89167	0.01158
812.60590	0.01174
811.32013	0.01194
810.03436	0.01205
808.74859	0.01201
807.46282	0.01187
806.17705	0.01176
804.89129	0.01178
803.60552	0.01190
802.31975	0.01203
801.03398	0.01211
799.74821	0.01212
798.46244	0.01207
797.17667	0.01200
795.89090	0.01195
794.60513	0.01195
793.31937	0.01196
792.03360	0.01196
790.74783	0.01191
789.46206	0.01180
788.17629	0.01165
786.89052	0.01155
785.60475	0.01156
784.31898	0.01164
783.03322	0.01170
781.74745	0.01168
780.46168	0.01158
779.17591	0.01148
777.89014	0.01147
776.60437	0.01157
775.31860	0.01173
774.03283	0.01189
772.74706	0.01197
771.46130	0.01193
770.17553	0.01184
768.88976	0.01176
767.60399	0.01173
766.31822	0.01174
765.03245	0.01178
763.74668	0.01187
762.46091	0.01200
761.17515	0.01213
759.88938	0.01224
758.60361	0.01227
757.31784	0.01219
756.03207	0.01200
754.74630	0.01182
753.46053	0.01177
752.17476	0.01185
750.88899	0.01193
749.60323	0.01190
748.31746	0.01183
747.03169	0.01182
745.74592	0.01190
744.46015	0.01203
743.17438	0.01221
741.88861	0.01241
740.60284	0.01257
739.31708	0.01258
738.03131	0.01242
736.74554	0.01212
735.45977	0.01178
734.17400	0.01149
732.88823	0.01129
731.60246	0.01121
730.31669	0.01120
729.03092	0.01121
727.74516	0.01124
726.45939	0.01126
725.17362	0.01129
723.88785	0.01143
722.60208	0.01149
721.31631	0.01151
720.03054	0.01153
718.74477	0.01150
717.45901	0.01143
716.17324	0.01139
714.88747	0.01142
713.60170	0.01152
712.31593	0.01167
711.03016	0.01183
709.74439	0.01197
708.45862	0.01205
707.17285	0.01204
705.88709	0.01197
704.60132	0.01189
703.31555	0.01185
702.02978	0.01185
700.74401	0.01191
699.45824	0.01201
698.17247	0.01214
696.88670	0.01222
695.60094	0.01221
694.31517	0.01211
693.02940	0.01197
691.74363	0.01188
690.45786	0.01189
689.17209	0.01198
687.88632	0.01211
686.60055	0.01223
685.31478	0.01229
684.02902	0.01227
682.74325	0.01221
681.45748	0.01216
680.17171	0.01216
678.88594	0.01216
677.60017	0.01217
676.31440	0.01217
675.02863	0.01221
673.74287	0.01229
672.45710	0.01240
671.17133	0.01249
669.88556	0.01254
668.59979	0.01257
667.31402	0.01260
666.02825	0.01255
664.74248	0.01245
663.45671	0.01232
662.17095	0.01220
660.88518	0.01214
659.59941	0.01212
658.31364	0.01208
657.02787	0.01201
655.74210	0.01191
654.45633	0.01185
653.17056	0.01186
651.88480	0.01193
650.59903	0.01203
649.31326	0.01214
648.02749	0.01222
646.74172	0.01227
645.45595	0.01229
644.17018	0.01230
642.88441	0.01232
641.59864	0.01239
640.31288	0.01251
639.02711	0.01266
637.74134	0.01279
636.45557	0.01292
635.16980	0.01309
633.88403	0.01340
632.59826	0.01383
631.31249	0.01430
630.02673	0.01488
628.74096	0.01573
627.45519	0.01623
626.16942	0.01724
624.88365	0.01865
623.59788	0.02028
622.31211	0.02217
621.02634	0.02419
619.74057	0.02596
618.45481	0.02725
617.16904	0.02802
615.88327	0.02808
614.59750	0.02727
613.31173	0.02595
612.02596	0.02530
610.74019	0.02669
609.45442	0.03055
608.16866	0.03567
606.88289	0.04017
605.59712	0.04294
604.31135	0.04390
603.02558	0.04347
601.73981	0.04217
600.45404	0.04055
599.16827	0.03900
597.88250	0.03767
596.59674	0.03647
595.31097	0.03534
594.02520	0.03441
592.73943	0.03385
591.45366	0.03370
590.16789	0.03381
588.88212	0.03404
587.59635	0.03438
586.31059	0.03487
585.02482	0.03554
583.73905	0.03639
582.45328	0.03734
581.16751	0.03832
579.88174	0.03928
578.59597	0.04022
577.31020	0.04118
576.02443	0.04219
574.73867	0.04323
573.45290	0.04430
572.16713	0.04543
570.88136	0.04673
569.59559	0.04824
568.30982	0.04988
567.02405	0.05150
565.73828	0.05291
564.45251	0.05402
563.16675	0.05474
561.88098	0.05490
560.59521	0.05424
559.30944	0.05260
558.02367	0.05005
556.73790	0.04693
555.45213	0.04364
554.16636	0.04050
552.88060	0.03767
551.59483	0.03515
550.30906	0.03289
549.02329	0.03083
547.73752	0.02897
546.45175	0.02734
545.16598	0.02596
543.88021	0.02481
542.59444	0.02382
541.30868	0.02291
540.02291	0.02205
538.73714	0.02123
537.45137	0.02045
536.16560	0.01973
534.87983	0.01906
533.59406	0.01844
532.30829	0.01785
531.02253	0.01730
529.73676	0.01683
528.45099	0.01647
527.16522	0.01620
525.87945	0.01594
524.59368	0.01562
523.30791	0.01526
522.02214	0.01491
520.73637	0.01463
519.45061	0.01443
518.16484	0.01425
516.87907	0.01404
515.59330	0.01376
514.30753	0.01344
513.02176	0.01320
511.73599	0.01315
510.45022	0.01327
509.16446	0.01341
507.87869	0.01339
506.59292	0.01319
505.30715	0.01293
504.02138	0.01269
502.73561	0.01250
501.44984	0.01230
500.16407	0.01206
498.87830	0.01180
497.59254	0.01156
496.30677	0.01139
495.02100	0.01130
493.73523	0.01127
492.44946	0.01126
491.16369	0.01126
489.87792	0.01127
488.59215	0.01130
487.30639	0.01133
486.02062	0.01133
484.73485	0.01130
483.44908	0.01125
482.16331	0.01123
480.87754	0.01124
479.59177	0.01132
478.30600	0.01149
477.02023	0.01178
475.73447	0.01214
474.44870	0.01250
473.16293	0.01276
471.87716	0.01285
470.59139	0.01279
469.30562	0.01263
468.01985	0.01244
466.73408	0.01227
465.44832	0.01210
464.16255	0.01192
462.87678	0.01174
461.59101	0.01157
460.30524	0.01144
459.01947	0.01134
457.73370	0.01125
456.44793	0.01120
455.16216	0.01117
453.87640	0.01111
452.59063	0.01100
451.30486	0.01082
450.01909	0.01062
448.73332	0.01051
447.44755	0.01052
446.16178	0.01062
444.87601	0.01072
443.59025	0.01073
442.30448	0.01064
441.01871	0.01051
439.73294	0.01041
438.44717	0.01037
437.16140	0.01038
435.87563	0.01041
434.58986	0.01041
433.30409	0.01039
432.01833	0.01038
430.73256	0.01040
429.44679	0.01044
428.16102	0.01049
426.87525	0.01050
425.58948	0.01045
424.30371	0.01037
423.01794	0.01030
421.73218	0.01027
420.44641	0.01025
419.16064	0.01021
417.87487	0.01017
416.58910	0.01017
415.30333	0.01021
414.01756	0.01028
412.73179	0.01036
411.44602	0.01042
410.16026	0.01047
408.87449	0.01050
407.58872	0.01051
406.30295	0.01051
405.01718	0.01050
403.73141	0.01050
402.44564	0.01051
401.15987	0.01051
399.87411	0.01050
