3997.45528	0.04094
3996.16951	0.04151
3994.88374	0.04184
3993.59798	0.04182
3992.31221	0.04156
3991.02644	0.04128
3989.74067	0.04117
3988.45490	0.04124
3987.16913	0.04128
3985.88336	0.04107
3984.59759	0.04064
3983.31183	0.04029
3982.02606	0.04028
3980.74029	0.04055
3979.45452	0.04070
3978.16875	0.04035
3976.88298	0.03951
3975.59721	0.03867
3974.31144	0.03835
3973.02567	0.03867
3971.73991	0.03929
3970.45414	0.03983
3969.16837	0.04018
3967.88260	0.04041
3966.59683	0.04054
3965.31106	0.04055
3964.02529	0.04050
3962.73952	0.04043
3961.45376	0.04032
3960.16799	0.04018
3958.88222	0.04011
3957.59645	0.04024
3956.31068	0.04056
3955.02491	0.04089
3953.73914	0.04106
3952.45337	0.04095
3951.16760	0.04050
3949.88184	0.03993
3948.59607	0.03966
3947.31030	0.03994
3946.02453	0.04048
3944.73876	0.04070
3943.45299	0.04039
3942.16722	0.03979
3940.88145	0.03923
3939.59569	0.03889
3938.30992	0.03900
3937.02415	0.03959
3935.73838	0.04029
3934.45261	0.04071
3933.16684	0.04086
3931.88107	0.04097
3930.59530	0.04098
3929.30953	0.04065
3928.02377	0.04001
3926.73800	0.03931
3925.45223	0.03880
3924.16646	0.03848
3922.88069	0.03830
3921.59492	0.03825
3920.30915	0.03833
3919.02338	0.03836
3917.73762	0.03819
3916.45185	0.03798
3915.16608	0.03797
3913.88031	0.03819
3912.59454	0.03854
3911.30877	0.03889
3910.02300	0.03902
3908.73723	0.03887
3907.45146	0.03852
3906.16570	0.03821
3904.87993	0.03814
3903.59416	0.03823
3902.30839	0.03816
3901.02262	0.03777
3899.73685	0.03743
3898.45108	0.03757
3897.16531	0.03810
3895.87955	0.03852
3894.59378	0.03851
3893.30801	0.03818
3892.02224	0.03806
3890.73647	0.03861
3889.45070	0.03938
3888.16493	0.03924
3886.87916	0.03814
3885.59339	0.03728
3884.30763	0.03737
3883.02186	0.03783
3881.73609	0.03813
3880.45032	0.03871
3879.16455	0.03986
3877.87878	0.04084
3876.59301	0.04081
3875.30724	0.04010
3874.02148	0.03960
3872.73571	0.03952
3871.44994	0.03955
3870.16417	0.03994
3868.87840	0.04084
3867.59263	0.04126
3866.30686	0.04033
3865.02109	0.03868
3863.73532	0.03740
3862.44956	0.03681
3861.16379	0.03673
3859.87802	0.03708
3858.59225	0.03770
3857.30648	0.03788
3856.02071	0.03705
3854.73494	0.03585
3853.44917	0.03580
3852.16341	0.03723
3850.87764	0.03875
3849.59187	0.03918
3848.30610	0.03860
3847.02033	0.03755
3845.73456	0.03638
3844.44879	0.03545
3843.16302	0.03517
3841.87725	0.03555
3840.59149	0.03603
3839.30572	0.03626
3838.01995	0.03659
3836.73418	0.03736
3835.44841	0.03804
3834.16264	0.03788
3832.87687	0.03702
3831.59110	0.03628
3830.30534	0.03616
3829.01957	0.03652
3827.73380	0.03707
3826.44803	0.03773
3825.16226	0.03819
3823.87649	0.03776
3822.59072	0.03652
3821.30495	0.03577
3820.01918	0.03635
3818.73342	0.03734
3817.44765	0.03768
3816.16188	0.03788
3814.87611	0.03863
3813.59034	0.03930
3812.30457	0.03916
3811.01880	0.03851
3809.73303	0.03776
3808.44726	0.03704
3807.16150	0.03698
3805.87573	0.03802
3804.58996	0.03920
3803.30419	0.03931
3802.01842	0.03872
3800.73265	0.03854
3799.44688	0.03855
3798.16111	0.03767
3796.87535	0.03608
3795.58958	0.03482
3794.30381	0.03428
3793.01804	0.03413
3791.73227	0.03419
3790.44650	0.03442
3789.16073	0.03465
3787.87496	0.03466
3786.58919	0.03446
3785.30343	0.03433
3784.01766	0.03445
3782.73189	0.03459
3781.44612	0.03438
3780.16035	0.03392
3778.87458	0.03371
3777.58881	0.03401
3776.30304	0.03466
3775.01728	0.03539
3773.73151	0.03596
3772.44574	0.03611
3771.15997	0.03593
3769.87420	0.03580
3768.58843	0.03567
3767.30266	0.03504
3766.01689	0.03392
3764.73112	0.03310
3763.44536	0.03311
3762.15959	0.03367
3760.87382	0.03439
3759.58805	0.03511
3758.30228	0.03571
3757.01651	0.03617
3755.73074	0.03632
3754.44497	0.03599
3753.15921	0.03540
3751.87344	0.03524
3750.58767	0.03603
3749.30190	0.03778
3748.01613	0.03954
3746.73036	0.03977
3745.44459	0.03848
3744.15882	0.03724
3742.87305	0.03677
3741.58729	0.03635
3740.30152	0.03577
3739.01575	0.03557
3737.72998	0.03595
3736.44421	0.03649
3735.15844	0.03682
3733.87267	0.03628
3732.58690	0.03534
3731.30114	0.03489
3730.01537	0.03478
3728.72960	0.03450
3727.44383	0.03378
3726.15806	0.03339
3724.87229	0.03354
3723.58652	0.03340
3722.30075	0.03302
3721.01498	0.03286
3719.72922	0.03296
3718.44345	0.03352
3717.15768	0.03457
3715.87191	0.03563
3714.58614	0.03576
3713.30037	0.03461
3712.01460	0.03353
3710.72883	0.03321
3709.44307	0.03306
3708.15730	0.03329
3706.87153	0.03367
3705.58576	0.03396
3704.29999	0.03402
3703.01422	0.03391
3701.72845	0.03394
3700.44268	0.03415
3699.15691	0.03419
3697.87115	0.03407
3696.58538	0.03426
3695.29961	0.03495
3694.01384	0.03542
3692.72807	0.03566
3691.44230	0.03543
3690.15653	0.03450
3688.87076	0.03351
3687.58500	0.03308
3686.29923	0.03302
3685.01346	0.03314
3683.72769	0.03326
3682.44192	0.03350
3681.15615	0.03407
3679.87038	0.03466
3678.58461	0.03457
3677.29884	0.03368
3676.01308	0.03293
3674.72731	0.03331
3673.44154	0.03426
3672.15577	0.03444
3670.87000	0.03411
3669.58423	0.03437
3668.29846	0.03525
3667.01269	0.03592
3665.72693	0.03610
3664.44116	0.03609
3663.15539	0.03587
3661.86962	0.03550
3660.58385	0.03517
3659.29808	0.03484
3658.01231	0.03440
3656.72654	0.03407
3655.44077	0.03430
3654.15501	0.03489
3652.86924	0.03509
3651.58347	0.03474
3650.29770	0.03442
3649.01193	0.03460
3647.72616	0.03515
3646.44039	0.03560
3645.15462	0.03571
3643.86886	0.03577
3642.58309	0.03602
3641.29732	0.03638
3640.01155	0.03660
3638.72578	0.03653
3637.44001	0.03629
3636.15424	0.03609
3634.86847	0.03610
3633.58270	0.03666
3632.29694	0.03737
3631.01117	0.03755
3629.72540	0.03758
3628.43963	0.03803
3627.15386	0.03871
3625.86809	0.03871
3624.58232	0.03838
3623.29655	0.03820
3622.01079	0.03855
3620.72502	0.03909
3619.43925	0.03997
3618.15348	0.04087
3616.86771	0.04115
3615.58194	0.04082
3614.29617	0.04057
3613.01040	0.04076
3611.72463	0.04100
3610.43887	0.04104
3609.15310	0.04094
3607.86733	0.04080
3606.58156	0.04049
3605.29579	0.04021
3604.01002	0.04038
3602.72425	0.04081
3601.43848	0.04135
3600.15272	0.04185
3598.86695	0.04214
3597.58118	0.04192
3596.29541	0.04177
3595.00964	0.04172
3593.72387	0.04202
3592.43810	0.04317
3591.15233	0.04423
3589.86656	0.04440
3588.58080	0.04413
3587.29503	0.04365
3586.00926	0.04328
3584.72349	0.04318
3583.43772	0.04325
3582.15195	0.04340
3580.86618	0.04358
3579.58041	0.04369
3578.29464	0.04391
3577.00888	0.04449
3575.72311	0.04541
3574.43734	0.04633
3573.15157	0.04693
3571.86580	0.04719
3570.58003	0.04723
3569.29426	0.04717
3568.00849	0.04714
3566.72273	0.04728
3565.43696	0.04758
3564.15119	0.04773
3562.86542	0.04774
3561.57965	0.04779
3560.29388	0.04806
3559.00811	0.04853
3557.72234	0.04899
3556.43657	0.04926
3555.15081	0.04937
3553.86504	0.04952
3552.57927	0.04986
3551.29350	0.05029
3550.00773	0.05057
3548.72196	0.05064
3547.43619	0.05071
3546.15042	0.05095
3544.86466	0.05124
3543.57889	0.05129
3542.29312	0.05105
3541.00735	0.05069
3539.72158	0.05042
3538.43581	0.05033
3537.15004	0.05054
3535.86427	0.05111
3534.57850	0.05188
3533.29274	0.05248
3532.00697	0.05270
3530.72120	0.05266
3529.43543	0.05266
3528.14966	0.05282
3526.86389	0.05305
3525.57812	0.05327
3524.29235	0.05354
3523.00659	0.05399
3521.72082	0.05452
3520.43505	0.05477
3519.14928	0.05454
3517.86351	0.05406
3516.57774	0.05371
3515.29197	0.05365
3514.00620	0.05363
3512.72043	0.05331
3511.43467	0.05266
3510.14890	0.05201
3508.86313	0.05180
3507.57736	0.05216
3506.29159	0.05291
3505.00582	0.05384
3503.72005	0.05486
3502.43428	0.05594
3501.14852	0.05691
3499.86275	0.05757
3498.57698	0.05783
3497.29121	0.05772
3496.00544	0.05734
3494.71967	0.05686
3493.43390	0.05651
3492.14813	0.05646
3490.86236	0.05665
3489.57660	0.05684
3488.29083	0.05683
3487.00506	0.05668
3485.71929	0.05655
3484.43352	0.05646
3483.14775	0.05637
3481.86198	0.05625
3480.57621	0.05609
3479.29045	0.05597
3478.00468	0.05613
3476.71891	0.05672
3475.43314	0.05759
3474.14737	0.05831
3472.86160	0.05858
3471.57583	0.05851
3470.29006	0.05843
3469.00429	0.05856
3467.71853	0.05879
3466.43276	0.05885
3465.14699	0.05861
3463.86122	0.05826
3462.57545	0.05809
3461.28968	0.05817
3460.00391	0.05836
3458.71814	0.05850
3457.43238	0.05859
3456.14661	0.05857
3454.86084	0.05833
3453.57507	0.05795
3452.28930	0.05774
3451.00353	0.05800
3449.71776	0.05865
3448.43199	0.05930
3447.14622	0.05968
3445.86046	0.05980
3444.57469	0.05992
3443.28892	0.06026
3442.00315	0.06076
3440.71738	0.06123
3439.43161	0.06147
3438.14584	0.06141
3436.86007	0.06110
3435.57431	0.06066
3434.28854	0.06032
3433.00277	0.06029
3431.71700	0.06056
3430.43123	0.06091
3429.14546	0.06114
3427.85969	0.06131
3426.57392	0.06161
3425.28815	0.06205
3424.00239	0.06243
3422.71662	0.06251
3421.43085	0.06233
3420.14508	0.06218
3418.85931	0.06230
3417.57354	0.06259
3416.28777	0.06273
3415.00200	0.06248
3413.71624	0.06189
3412.43047	0.06124
3411.14470	0.06082
3409.85893	0.06081
3408.57316	0.06128
3407.28739	0.06209
3406.00162	0.06295
3404.71585	0.06355
3403.43008	0.06375
3402.14432	0.06364
3400.85855	0.06341
3399.57278	0.06320
3398.28701	0.06305
3397.00124	0.06299
3395.71547	0.06298
3394.42970	0.06292
3393.14393	0.06277
3391.85817	0.06263
3390.57240	0.06265
3389.28663	0.06288
3388.00086	0.06314
3386.71509	0.06327
3385.42932	0.06324
3384.14355	0.06324
3382.85778	0.06336
3381.57201	0.06355
3380.28625	0.06366
3379.00048	0.06360
3377.71471	0.06332
3376.42894	0.06286
3375.14317	0.06241
3373.85740	0.06226
3372.57163	0.06256
3371.28586	0.06313
3370.00010	0.06352
3368.71433	0.06341
3367.42856	0.06284
3366.14279	0.06222
3364.85702	0.06194
3363.57125	0.06205
3362.28548	0.06240
3360.99971	0.06282
3359.71394	0.06323
3358.42818	0.06358
3357.14241	0.06381
3355.85664	0.06394
3354.57087	0.06409
3353.28510	0.06428
3351.99933	0.06441
3350.71356	0.06438
3349.42779	0.06428
3348.14202	0.06425
3346.85626	0.06424
3345.57049	0.06410
3344.28472	0.06382
3342.99895	0.06354
3341.71318	0.06335
3340.42741	0.06321
3339.14164	0.06298
3337.85587	0.06267
3336.57011	0.06238
3335.28434	0.06222
3333.99857	0.06221
3332.71280	0.06229
3331.42703	0.06253
3330.14126	0.06297
3328.85549	0.06352
3327.56972	0.06388
3326.28395	0.06377
3324.99819	0.06319
3323.71242	0.06239
3322.42665	0.06172
3321.14088	0.06149
3319.85511	0.06178
3318.56934	0.06238
3317.28357	0.06289
3315.99780	0.06302
3314.71204	0.06282
3313.42627	0.06254
3312.14050	0.06238
3310.85473	0.06233
3309.56896	0.06234
3308.28319	0.06247
3306.99742	0.06273
3305.71165	0.06296
3304.42588	0.06295
3303.14012	0.06263
3301.85435	0.06218
3300.56858	0.06184
3299.28281	0.06170
3297.99704	0.06168
3296.71127	0.06166
3295.42550	0.06158
3294.13973	0.06147
3292.85397	0.06142
3291.56820	0.06150
3290.28243	0.06163
3288.99666	0.06171
3287.71089	0.06159
3286.42512	0.06127
3285.13935	0.06087
3283.85358	0.06050
3282.56781	0.06013
3281.28205	0.05974
3279.99628	0.05941
3278.71051	0.05936
3277.42474	0.05968
3276.13897	0.06021
3274.85320	0.06067
3273.56743	0.06090
3272.28166	0.06099
3270.99590	0.06109
3269.71013	0.06121
3268.42436	0.06122
3267.13859	0.06109
3265.85282	0.06094
3264.56705	0.06095
3263.28128	0.06107
3261.99551	0.06113
3260.70974	0.06100
3259.42398	0.06078
3258.13821	0.06066
3256.85244	0.06071
3255.56667	0.06078
3254.28090	0.06071
3252.99513	0.06053
3251.70936	0.06045
3250.42359	0.06057
3249.13783	0.06083
3247.85206	0.06103
3246.56629	0.06102
3245.28052	0.06078
3243.99475	0.06041
3242.70898	0.06011
3241.42321	0.05994
3240.13744	0.05978
3238.85167	0.05950
3237.56591	0.05915
3236.28014	0.05896
3234.99437	0.05908
3233.70860	0.05941
3232.42283	0.05972
3231.13706	0.05983
3229.85129	0.05968
3228.56552	0.05941
3227.27976	0.05928
3225.99399	0.05945
3224.70822	0.05971
3223.42245	0.05967
3222.13668	0.05914
3220.85091	0.05842
3219.56514	0.05794
3218.27937	0.05786
3216.99360	0.05792
3215.70784	0.05776
3214.42207	0.05732
3213.13630	0.05683
3211.85053	0.05656
3210.56476	0.05658
3209.27899	0.05675
3207.99322	0.05688
3206.70745	0.05693
3205.42169	0.05696
3204.13592	0.05700
3202.85015	0.05705
3201.56438	0.05712
3200.27861	0.05723
3198.99284	0.05735
3197.70707	0.05746
3196.42130	0.05755
3195.13553	0.05767
3193.84977	0.05781
3192.56400	0.05794
3191.27823	0.05797
3189.99246	0.05781
3188.70669	0.05740
3187.42092	0.05684
3186.13515	0.05640
3184.84938	0.05630
3183.56362	0.05653
3182.27785	0.05681
3180.99208	0.05691
3179.70631	0.05677
3178.42054	0.05649
3177.13477	0.05611
3175.84900	0.05563
3174.56323	0.05511
3173.27746	0.05470
3171.99170	0.05454
3170.70593	0.05460
3169.42016	0.05474
3168.13439	0.05485
3166.84862	0.05491
3165.56285	0.05489
3164.27708	0.05472
3162.99131	0.05436
3161.70555	0.05394
3160.41978	0.05368
3159.13401	0.05372
3157.84824	0.05400
3156.56247	0.05432
3155.27670	0.05444
3153.99093	0.05417
3152.70516	0.05358
3151.41939	0.05297
3150.13363	0.05267
3148.84786	0.05277
3147.56209	0.05305
3146.27632	0.05326
3144.99055	0.05338
3143.70478	0.05348
3142.41901	0.05357
3141.13324	0.05358
3139.84748	0.05344
3138.56171	0.05323
3137.27594	0.05305
3135.99017	0.05296
3134.70440	0.05293
3133.41863	0.05287
3132.13286	0.05273
3130.84709	0.05248
3129.56132	0.05221
3128.27556	0.05206
3126.98979	0.05211
3125.70402	0.05226
3124.41825	0.05233
3123.13248	0.05222
3121.84671	0.05197
3120.56094	0.05169
3119.27517	0.05145
3117.98940	0.05126
3116.70364	0.05113
3115.41787	0.05112
3114.13210	0.05121
3112.84633	0.05131
3111.56056	0.05129
3110.27479	0.05108
3108.98902	0.05075
3107.70325	0.05047
3106.41749	0.05043
3105.13172	0.05071
3103.84595	0.05116
3102.56018	0.05153
3101.27441	0.05167
3099.98864	0.05158
3098.70287	0.05137
3097.41710	0.05104
3096.13133	0.05054
3094.84557	0.04989
3093.55980	0.04927
3092.27403	0.04888
3090.98826	0.04877
3089.70249	0.04892
3088.41672	0.04925
3087.13095	0.04972
3085.84518	0.05017
3084.55942	0.05040
3083.27365	0.05028
3081.98788	0.04990
3080.70211	0.04947
3079.41634	0.04917
3078.13057	0.04904
3076.84480	0.04897
3075.55903	0.04882
3074.27326	0.04852
3072.98750	0.04811
3071.70173	0.04775
3070.41596	0.04758
3069.13019	0.04763
3067.84442	0.04778
3066.55865	0.04789
3065.27288	0.04796
3063.98711	0.04811
3062.70135	0.04836
3061.41558	0.04859
3060.12981	0.04864
3058.84404	0.04849
3057.55827	0.04820
3056.27250	0.04788
3054.98673	0.04765
3053.70096	0.04758
3052.41519	0.04759
3051.12943	0.04748
3049.84366	0.04714
3048.55789	0.04668
3047.27212	0.04626
3045.98635	0.04599
3044.70058	0.04583
3043.41481	0.04577
3042.12904	0.04586
3040.84328	0.04610
3039.55751	0.04639
3038.27174	0.04664
3036.98597	0.04678
3035.70020	0.04685
3034.41443	0.04687
3033.12866	0.04679
3031.84289	0.04650
3030.55712	0.04596
3029.27136	0.04532
3027.98559	0.04484
3026.69982	0.04475
3025.41405	0.04505
3024.12828	0.04546
3022.84251	0.04567
3021.55674	0.04557
3020.27097	0.04526
3018.98521	0.04496
3017.69944	0.04480
3016.41367	0.04469
3015.12790	0.04450
3013.84213	0.04419
3012.55636	0.04389
3011.27059	0.04372
3009.98482	0.04369
3008.69905	0.04371
3007.41329	0.04368
3006.12752	0.04360
3004.84175	0.04352
3003.55598	0.04346
3002.27021	0.04345
3000.98444	0.04350
2999.69867	0.04359
2998.41290	0.04362
2997.12714	0.04351
2995.84137	0.04335
2994.55560	0.04335
2993.26983	0.04364
2991.98406	0.04419
2990.69829	0.04482
2989.41252	0.04529
2988.12675	0.04535
2986.84098	0.04496
2985.55522	0.04431
2984.26945	0.04378
2982.98368	0.04362
2981.69791	0.04383
2980.41214	0.04427
2979.12637	0.04483
2977.84060	0.04549
2976.55483	0.04625
2975.26907	0.04704
2973.98330	0.04781
2972.69753	0.04851
2971.41176	0.04909
2970.12599	0.04951
2968.84022	0.04981
2967.55445	0.05006
2966.26868	0.05032
2964.98291	0.05064
2963.69715	0.05109
2962.41138	0.05173
2961.12561	0.05255
2959.83984	0.05344
2958.55407	0.05431
2957.26830	0.05519
2955.98253	0.05608
2954.69676	0.05684
2953.41100	0.05731
2952.12523	0.05745
2950.83946	0.05738
2949.55369	0.05716
2948.26792	0.05680
2946.98215	0.05634
2945.69638	0.05587
2944.41061	0.05547
2943.12484	0.05520
2941.83908	0.05506
2940.55331	0.05514
2939.26754	0.05550
2937.98177	0.05618
2936.69600	0.05710
2935.41023	0.05810
2934.12446	0.05902
2932.83869	0.05973
2931.55293	0.06011
2930.26716	0.06019
2928.98139	0.06018
2927.69562	0.06029
2926.40985	0.06055
2925.12408	0.06081
2923.83831	0.06093
2922.55254	0.06089
2921.26677	0.06067
2919.98101	0.06025
2918.69524	0.05959
2917.40947	0.05882
2916.12370	0.05816
2914.83793	0.05771
2913.55216	0.05733
2912.26639	0.05676
2910.98062	0.05594
2909.69486	0.05506
2908.40909	0.05433
2907.12332	0.05380
2905.83755	0.05343
2904.55178	0.05321
2903.26601	0.05309
2901.98024	0.05296
2900.69447	0.05268
2899.40870	0.05218
2898.12294	0.05157
2896.83717	0.05103
2895.55140	0.05057
2894.26563	0.05015
2892.97986	0.04977
2891.69409	0.04947
2890.40832	0.04918
2889.12255	0.04878
2887.83678	0.04828
2886.55102	0.04782
2885.26525	0.04754
2883.97948	0.04743
2882.69371	0.04739
2881.40794	0.04737
2880.12217	0.04738
2878.83640	0.04745
2877.55063	0.04763
2876.26487	0.04795
2874.97910	0.04835
2873.69333	0.04866
2872.40756	0.04876
2871.12179	0.04872
2869.83602	0.04863
2868.55025	0.04858
2867.26448	0.04855
2865.97871	0.04856
2864.69295	0.04864
2863.40718	0.04875
2862.12141	0.04883
2860.83564	0.04881
2859.54987	0.04871
2858.26410	0.04857
2856.97833	0.04834
2855.69256	0.04802
2854.40680	0.04768
2853.12103	0.04746
2851.83526	0.04733
2850.54949	0.04709
2849.26372	0.04658
2847.97795	0.04590
2846.69218	0.04524
2845.40641	0.04466
2844.12064	0.04405
2842.83488	0.04336
2841.54911	0.04266
2840.26334	0.04201
2838.97757	0.04146
2837.69180	0.04096
2836.40603	0.04042
2835.12026	0.03978
2833.83449	0.03910
2832.54873	0.03852
2831.26296	0.03817
2829.97719	0.03800
2828.69142	0.03794
2827.40565	0.03789
2826.11988	0.03782
2824.83411	0.03770
2823.54834	0.03752
2822.26257	0.03726
2820.97681	0.03694
2819.69104	0.03660
2818.40527	0.03627
2817.11950	0.03598
2815.83373	0.03577
2814.54796	0.03572
2813.26219	0.03586
2811.97642	0.03609
2810.69066	0.03627
2809.40489	0.03632
2808.11912	0.03622
2806.83335	0.03602
2805.54758	0.03575
2804.26181	0.03548
2802.97604	0.03526
2801.69027	0.03514
2800.40450	0.03510
2799.11874	0.03506
2797.83297	0.03498
2796.54720	0.03491
2795.26143	0.03487
2793.97566	0.03480
2792.68989	0.03462
2791.40412	0.03428
2790.11835	0.03387
2788.83259	0.03352
2787.54682	0.03338
2786.26105	0.03349
2784.97528	0.03367
2783.68951	0.03369
2782.40374	0.03349
2781.11797	0.03324
2779.83220	0.03312
2778.54643	0.03320
2777.26067	0.03342
2775.97490	0.03369
2774.68913	0.03399
2773.40336	0.03427
2772.11759	0.03446
2770.83182	0.03448
2769.54605	0.03428
2768.26028	0.03395
2766.97452	0.03360
2765.68875	0.03336
2764.40298	0.03324
2763.11721	0.03314
2761.83144	0.03293
2760.54567	0.03258
2759.25990	0.03228
2757.97413	0.03219
2756.68836	0.03231
2755.40260	0.03245
2754.11683	0.03242
2752.83106	0.03224
2751.54529	0.03208
2750.25952	0.03204
2748.97375	0.03213
2747.68798	0.03231
2746.40221	0.03252
2745.11645	0.03267
2743.83068	0.03272
2742.54491	0.03267
2741.25914	0.03256
2739.97337	0.03244
2738.68760	0.03230
2737.40183	0.03218
2736.11606	0.03210
2734.83029	0.03201
2733.54453	0.03187
2732.25876	0.03170
2730.97299	0.03155
2729.68722	0.03144
2728.40145	0.03138
2727.11568	0.03137
2725.82991	0.03140
2724.54414	0.03141
2723.25838	0.03142
2721.97261	0.03143
2720.68684	0.03146
2719.40107	0.03146
2718.11530	0.03143
2716.82953	0.03138
2715.54376	0.03134
2714.25799	0.03129
2712.97222	0.03122
2711.68646	0.03108
2710.40069	0.03087
2709.11492	0.03065
2707.82915	0.03049
2706.54338	0.03038
2705.25761	0.03028
2703.97184	0.03015
2702.68607	0.03000
2701.40031	0.02986
2700.11454	0.02976
2698.82877	0.02973
2697.54300	0.02983
2696.25723	0.03006
2694.97146	0.03033
2693.68569	0.03050
2692.39992	0.03042
2691.11415	0.03013
2689.82839	0.02982
2688.54262	0.02965
2687.25685	0.02965
2685.97108	0.02971
2684.68531	0.02972
2683.39954	0.02965
2682.11377	0.02957
2680.82800	0.02957
2679.54224	0.02969
2678.25647	0.02983
2676.97070	0.02986
2675.68493	0.02971
2674.39916	0.02946
2673.11339	0.02921
2671.82762	0.02906
2670.54185	0.02904
2669.25608	0.02914
2667.97032	0.02927
2666.68455	0.02932
2665.39878	0.02926
2664.11301	0.02919
2662.82724	0.02921
2661.54147	0.02931
2660.25570	0.02943
2658.96993	0.02949
2657.68417	0.02945
2656.39840	0.02934
2655.11263	0.02923
2653.82686	0.02920
2652.54109	0.02922
2651.25532	0.02922
2649.96955	0.02914
2648.68378	0.02897
2647.39801	0.02878
2646.11225	0.02862
2644.82648	0.02852
2643.54071	0.02844
2642.25494	0.02830
2640.96917	0.02806
2639.68340	0.02782
2638.39763	0.02769
2637.11186	0.02764
2635.82609	0.02752
2634.54033	0.02722
2633.25456	0.02681
2631.96879	0.02643
2630.68302	0.02620
2629.39725	0.02612
2628.11148	0.02615
2626.82571	0.02623
2625.53994	0.02629
2624.25418	0.02617
2622.96841	0.02582
2621.68264	0.02537
2620.39687	0.02512
2619.11110	0.02515
2617.82533	0.02530
2616.53956	0.02540
2615.25379	0.02546
2613.96802	0.02550
2612.68226	0.02547
2611.39649	0.02524
2610.11072	0.02483
2608.82495	0.02445
2607.53918	0.02435
2606.25341	0.02464
2604.96764	0.02513
2603.68187	0.02550
2602.39611	0.02559
2601.11034	0.02546
2599.82457	0.02525
2598.53880	0.02507
2597.25303	0.02493
2595.96726	0.02486
2594.68149	0.02484
2593.39572	0.02482
2592.10995	0.02478
2590.82419	0.02473
2589.53842	0.02472
2588.25265	0.02472
2586.96688	0.02466
2585.68111	0.02453
2584.39534	0.02441
2583.10957	0.02440
2581.82380	0.02446
2580.53804	0.02435
2579.25227	0.02391
2577.96650	0.02331
2576.68073	0.02290
2575.39496	0.02286
2574.10919	0.02296
2572.82342	0.02285
2571.53765	0.02245
2570.25188	0.02204
2568.96612	0.02194
2567.68035	0.02224
2566.39458	0.02274
2565.10881	0.02326
2563.82304	0.02368
2562.53727	0.02390
2561.25150	0.02384
2559.96573	0.02356
2558.67997	0.02322
2557.39420	0.02298
2556.10843	0.02291
2554.82266	0.02308
2553.53689	0.02348
2552.25112	0.02387
2550.96535	0.02384
2549.67958	0.02328
2548.39381	0.02254
2547.10805	0.02213
2545.82228	0.02219
2544.53651	0.02252
2543.25074	0.02286
2541.96497	0.02305
2540.67920	0.02305
2539.39343	0.02286
2538.10766	0.02253
2536.82190	0.02211
2535.53613	0.02167
2534.25036	0.02136
2532.96459	0.02128
2531.67882	0.02136
2530.39305	0.02138
2529.10728	0.02126
2527.82151	0.02109
2526.53574	0.02095
2525.24998	0.02090
2523.96421	0.02099
2522.67844	0.02123
2521.39267	0.02158
2520.10690	0.02191
2518.82113	0.02209
2517.53536	0.02211
2516.24959	0.02208
2514.96383	0.02210
2513.67806	0.02219
2512.39229	0.02221
2511.10652	0.02209
2509.82075	0.02185
2508.53498	0.02161
2507.24921	0.02143
2505.96344	0.02133
2504.67767	0.02137
2503.39191	0.02151
2502.10614	0.02161
2500.82037	0.02154
2499.53460	0.02138
2498.24883	0.02131
2496.96306	0.02145
2495.67729	0.02169
2494.39152	0.02181
2493.10576	0.02168
2491.81999	0.02131
2490.53422	0.02080
2489.24845	0.02033
2487.96268	0.02006
2486.67691	0.02012
2485.39114	0.02044
2484.10537	0.02079
2482.81960	0.02099
2481.53384	0.02106
2480.24807	0.02111
2478.96230	0.02112
2477.67653	0.02094
2476.39076	0.02057
2475.10499	0.02025
2473.81922	0.02023
2472.53345	0.02050
2471.24769	0.02078
2469.96192	0.02087
2468.67615	0.02079
2467.39038	0.02070
2466.10461	0.02069
2464.81884	0.02071
2463.53307	0.02070
2462.24730	0.02064
2460.96153	0.02059
2459.67577	0.02064
2458.39000	0.02085
2457.10423	0.02118
2455.81846	0.02148
2454.53269	0.02159
2453.24692	0.02142
2451.96115	0.02100
2450.67538	0.02048
2449.38962	0.02006
2448.10385	0.01991
2446.81808	0.02005
2445.53231	0.02027
2444.24654	0.02031
2442.96077	0.02003
2441.67500	0.01952
2440.38923	0.01906
2439.10346	0.01894
2437.81770	0.01920
2436.53193	0.01971
2435.24616	0.02028
2433.96039	0.02075
2432.67462	0.02094
2431.38885	0.02077
2430.10308	0.02039
2428.81731	0.02001
2427.53155	0.01971
2426.24578	0.01945
2424.96001	0.01918
2423.67424	0.01900
2422.38847	0.01902
2421.10270	0.01933
2419.81693	0.01980
2418.53116	0.02021
2417.24539	0.02040
2415.95963	0.02043
2414.67386	0.02043
2413.38809	0.02041
2412.10232	0.02029
2410.81655	0.02006
2409.53078	0.01983
2408.24501	0.01971
2406.95924	0.01975
2405.67347	0.01989
2404.38771	0.01998
2403.10194	0.01991
2401.81617	0.01967
2400.53040	0.01938
2399.24463	0.01916
2397.95886	0.01898
2396.67309	0.01885
2395.38732	0.01884
2394.10156	0.01894
2392.81579	0.01909
2391.53002	0.01921
2390.24425	0.01925
2388.95848	0.01923
2387.67271	0.01931
2386.38694	0.01959
2385.10117	0.01999
2383.81540	0.02036
2382.52964	0.02054
2381.24387	0.02061
2379.95810	0.02038
2378.67233	0.02015
2377.38656	0.02041
2376.10079	0.02016
2374.81502	0.01948
2373.52925	0.01939
2372.24349	0.01956
2370.95772	0.02028
2369.67195	0.01929
2368.38618	0.01751
2367.10041	0.01822
2365.81464	0.02049
2364.52887	0.02024
2363.24310	0.01893
2361.95733	0.01989
2360.67157	0.02206
2359.38580	0.02122
2358.10003	0.01881
2356.81426	0.01659
2355.52849	0.01415
2354.24272	0.01281
2352.95695	0.01288
2351.67118	0.01668
2350.38542	0.02580
2349.09965	0.03132
2347.81388	0.02475
2346.52811	0.01424
2345.24234	0.01111
2343.95657	0.01475
2342.67080	0.01760
2341.38503	0.01855
2340.09926	0.01974
2338.81350	0.02070
2337.52773	0.02160
2336.24196	0.02068
2334.95619	0.01956
2333.67042	0.01985
2332.38465	0.01883
2331.09888	0.01753
2329.81311	0.01754
2328.52735	0.01687
2327.24158	0.01722
2325.95581	0.01882
2324.67004	0.01921
2323.38427	0.01926
2322.09850	0.01953
2320.81273	0.01856
2319.52696	0.01857
2318.24119	0.02010
2316.95543	0.02099
2315.66966	0.02069
2314.38389	0.01964
2313.09812	0.01882
2311.81235	0.01844
2310.52658	0.01801
2309.24081	0.01801
2307.95504	0.01831
2306.66928	0.01833
2305.38351	0.01867
2304.09774	0.01885
2302.81197	0.01847
2301.52620	0.01793
2300.24043	0.01775
2298.95466	0.01810
2297.66889	0.01855
2296.38312	0.01881
2295.09736	0.01872
2293.81159	0.01850
2292.52582	0.01842
2291.24005	0.01848
2289.95428	0.01868
2288.66851	0.01886
2287.38274	0.01884
2286.09697	0.01857
2284.81121	0.01825
2283.52544	0.01804
2282.23967	0.01794
2280.95390	0.01789
2279.66813	0.01767
2278.38236	0.01731
2277.09659	0.01693
2275.81082	0.01682
2274.52505	0.01702
2273.23929	0.01723
2271.95352	0.01724
2270.66775	0.01704
2269.38198	0.01678
2268.09621	0.01653
2266.81044	0.01634
2265.52467	0.01617
2264.23890	0.01600
2262.95314	0.01589
2261.66737	0.01578
2260.38160	0.01572
2259.09583	0.01589
2257.81006	0.01614
2256.52429	0.01626
2255.23852	0.01604
2253.95275	0.01555
2252.66698	0.01494
2251.38122	0.01431
2250.09545	0.01374
2248.80968	0.01322
2247.52391	0.01280
2246.23814	0.01284
2244.95237	0.01357
2243.66660	0.01476
2242.38083	0.01589
2241.09507	0.01654
2239.80930	0.01654
2238.52353	0.01603
2237.23776	0.01526
2235.95199	0.01451
2234.66622	0.01387
2233.38045	0.01325
2232.09468	0.01254
2230.80891	0.01176
2229.52315	0.01112
2228.23738	0.01082
2226.95161	0.01089
2225.66584	0.01107
2224.38007	0.01094
2223.09430	0.01022
2221.80853	0.00914
2220.52276	0.00840
2219.23700	0.00861
2217.95123	0.00962
2216.66546	0.01062
2215.37969	0.01098
2214.09392	0.01075
2212.80815	0.01044
2211.52238	0.01027
2210.23661	0.01007
2208.95084	0.00970
2207.66508	0.00938
2206.37931	0.00954
2205.09354	0.01024
2203.80777	0.01116
2202.52200	0.01197
2201.23623	0.01251
2199.95046	0.01246
2198.66469	0.01148
2197.37893	0.00980
2196.09316	0.00837
2194.80739	0.00792
2193.52162	0.00817
2192.23585	0.00840
2190.95008	0.00842
2189.66431	0.00863
2188.37854	0.00928
2187.09277	0.01012
2185.80701	0.01071
2184.52124	0.01077
2183.23547	0.01032
2181.94970	0.00950
2180.66393	0.00849
2179.37816	0.00769
2178.09239	0.00744
2176.80662	0.00763
2175.52085	0.00771
2174.23509	0.00738
2172.94932	0.00691
2171.66355	0.00672
2170.37778	0.00680
2169.09201	0.00682
2167.80624	0.00653
2166.52047	0.00610
2165.23470	0.00597
2163.94894	0.00630
2162.66317	0.00661
2161.37740	0.00608
2160.09163	0.00448
2158.80586	0.00257
2157.52009	0.00134
2156.23432	0.00113
2154.94855	0.00154
2153.66278	0.00200
2152.37702	0.00217
2151.09125	0.00213
2149.80548	0.00222
2148.51971	0.00270
2147.23394	0.00355
2145.94817	0.00460
2144.66240	0.00558
2143.37663	0.00615
2142.09087	0.00618
2140.80510	0.00596
2139.51933	0.00595
2138.23356	0.00622
2136.94779	0.00640
2135.66202	0.00626
2134.37625	0.00607
2133.09048	0.00620
2131.80471	0.00667
2130.51895	0.00720
2129.23318	0.00759
2127.94741	0.00790
2126.66164	0.00824
2125.37587	0.00857
2124.09010	0.00880
2122.80433	0.00893
2121.51856	0.00908
2120.23280	0.00933
2118.94703	0.00955
2117.66126	0.00953
2116.37549	0.00925
2115.08972	0.00893
2113.80395	0.00879
2112.51818	0.00883
2111.23241	0.00895
2109.94664	0.00900
2108.66088	0.00885
2107.37511	0.00850
2106.08934	0.00813
2104.80357	0.00791
2103.51780	0.00785
2102.23203	0.00784
2100.94626	0.00790
2099.66049	0.00855
2098.37473	0.00899
2097.08896	0.00897
2095.80319	0.00855
2094.51742	0.00803
2093.23165	0.00779
2091.94588	0.00789
2090.66011	0.00805
2089.37434	0.00799
2088.08857	0.00783
2086.80281	0.00786
2085.51704	0.00819
2084.23127	0.00858
2082.94550	0.00866
2081.65973	0.00824
2080.37396	0.00755
2079.08819	0.00702
2077.80242	0.00694
2076.51666	0.00712
2075.23089	0.00717
2073.94512	0.00690
2072.65935	0.00646
2071.37358	0.00609
2070.08781	0.00586
2068.80204	0.00567
2067.51627	0.00543
2066.23050	0.00524
2064.94474	0.00524
2063.65897	0.00549
2062.37320	0.00582
2061.08743	0.00596
2059.80166	0.00570
2058.51589	0.00501
2057.23012	0.00406
2055.94435	0.00304
2054.65859	0.00218
2053.37282	0.00160
2052.08705	0.00145
2050.80128	0.00173
2049.51551	0.00226
2048.22974	0.00265
2046.94397	0.00266
2045.65820	0.00236
2044.37243	0.00195
2043.08667	0.00147
2041.80090	0.00086
2040.51513	0.00030
2039.22936	0.00010
2037.94359	0.00036
2036.65782	0.00080
2035.37205	0.00105
2034.08628	0.00096
2032.80052	0.00053
2031.51475	-0.00005
2030.22898	-0.00040
2028.94321	-0.00014
2027.65744	0.00084
2026.37167	0.00221
2025.08590	0.00348
2023.80013	0.00430
2022.51436	0.00465
2021.22860	0.00475
2019.94283	0.00472
2018.65706	0.00452
2017.37129	0.00416
2016.08552	0.00381
2014.79975	0.00359
2013.51398	0.00350
2012.22821	0.00350
2010.94245	0.00352
2009.65668	0.00339
2008.37091	0.00297
2007.08514	0.00249
2005.79937	0.00241
2004.51360	0.00295
2003.22783	0.00381
2001.94206	0.00457
2000.65629	0.00508
1999.37053	0.00549
1998.08476	0.00594
1996.79899	0.00631
1995.51322	0.00635
1994.22745	0.00608
1992.94168	0.00582
1991.65591	0.00586
1990.37014	0.00621
1989.08438	0.00665
1987.79861	0.00706
1986.51284	0.00750
1985.22707	0.00802
1983.94130	0.00850
1982.65553	0.00871
1981.36976	0.00854
1980.08399	0.00815
1978.79822	0.00774
1977.51246	0.00738
1976.22669	0.00713
1974.94092	0.00709
1973.65515	0.00724
1972.36938	0.00732
1971.08361	0.00712
1969.79784	0.00666
1968.51207	0.00616
1967.22631	0.00586
1965.94054	0.00594
1964.65477	0.00653
1963.36900	0.00758
1962.08323	0.00867
1960.79746	0.00925
1959.51169	0.00912
1958.22592	0.00862
1956.94015	0.00827
1955.65439	0.00830
1954.36862	0.00857
1953.08285	0.00886
1951.79708	0.00902
1950.51131	0.00903
1949.22554	0.00890
1947.93977	0.00876
1946.65400	0.00875
1945.36823	0.00894
1944.08247	0.00927
1942.79670	0.00961
1941.51093	0.00981
1940.22516	0.00974
1938.93939	0.00941
1937.65362	0.00893
1936.36785	0.00850
1935.08208	0.00829
1933.79632	0.00846
1932.51055	0.00899
1931.22478	0.00973
1929.93901	0.01045
1928.65324	0.01103
1927.36747	0.01138
1926.08170	0.01142
1924.79593	0.01113
1923.51016	0.01064
1922.22440	0.01023
1920.93863	0.01000
1919.65286	0.00986
1918.36709	0.00970
1917.08132	0.00957
1915.79555	0.00953
1914.50978	0.00962
1913.22401	0.00985
1911.93825	0.01011
1910.65248	0.01028
1909.36671	0.01037
1908.08094	0.01048
1906.79517	0.01060
1905.50940	0.01054
1904.22363	0.01023
1902.93786	0.00981
1901.65209	0.00959
1900.36633	0.00980
1899.08056	0.01033
1897.79479	0.01090
1896.50902	0.01126
1895.22325	0.01137
1893.93748	0.01136
1892.65171	0.01130
1891.36594	0.01124
1890.08018	0.01118
1888.79441	0.01115
1887.50864	0.01114
1886.22287	0.01114
1884.93710	0.01113
1883.65133	0.01101
1882.36556	0.01067
1881.07979	0.01013
1879.79402	0.00963
1878.50826	0.00940
1877.22249	0.00952
1875.93672	0.00988
1874.65095	0.01029
1873.36518	0.01053
1872.07941	0.01050
1870.79364	0.01028
1869.50787	0.01016
1868.22211	0.01034
1866.93634	0.01073
1865.65057	0.01108
1864.36480	0.01124
1863.07903	0.01129
1861.79326	0.01131
1860.50749	0.01132
1859.22172	0.01127
1857.93595	0.01115
1856.65019	0.01095
1855.36442	0.01075
1854.07865	0.01066
1852.79288	0.01070
1851.50711	0.01080
1850.22134	0.01084
1848.93557	0.01082
1847.64980	0.01079
1846.36404	0.01071
1845.07827	0.01059
1843.79250	0.01060
1842.50673	0.01074
1841.22096	0.01079
1839.93519	0.01065
1838.64942	0.01056
1837.36365	0.01069
1836.07788	0.01099
1834.79212	0.01128
1833.50635	0.01140
1832.22058	0.01132
1830.93481	0.01119
1829.64904	0.01129
1828.36327	0.01158
1827.07750	0.01178
1825.79173	0.01176
1824.50597	0.01170
1823.22020	0.01170
1821.93443	0.01168
1820.64866	0.01154
1819.36289	0.01133
1818.07712	0.01117
1816.79135	0.01115
1815.50558	0.01128
1814.21981	0.01145
1812.93405	0.01159
1811.64828	0.01167
1810.36251	0.01170
1809.07674	0.01168
1807.79097	0.01162
1806.50520	0.01160
1805.21943	0.01168
1803.93366	0.01183
1802.64790	0.01193
1801.36213	0.01198
1800.07636	0.01201
1798.79059	0.01203
1797.50482	0.01208
1796.21905	0.01216
1794.93328	0.01220
1793.64751	0.01216
1792.36174	0.01219
1791.07598	0.01238
1789.79021	0.01261
1788.50444	0.01265
1787.21867	0.01247
1785.93290	0.01225
1784.64713	0.01217
1783.36136	0.01230
1782.07559	0.01252
1780.78983	0.01270
1779.50406	0.01284
1778.21829	0.01295
1776.93252	0.01310
1775.64675	0.01322
1774.36098	0.01324
1773.07521	0.01326
1771.78944	0.01348
1770.50367	0.01376
1769.21791	0.01382
1767.93214	0.01373
1766.64637	0.01377
1765.36060	0.01391
1764.07483	0.01388
1762.78906	0.01370
1761.50329	0.01361
1760.21752	0.01367
1758.93176	0.01374
1757.64599	0.01378
1756.36022	0.01396
1755.07445	0.01424
1753.78868	0.01432
1752.50291	0.01415
1751.21714	0.01405
1749.93137	0.01423
1748.64560	0.01454
1747.35984	0.01468
1746.07407	0.01462
1744.78830	0.01445
1743.50253	0.01430
1742.21676	0.01422
1740.93099	0.01424
1739.64522	0.01453
1738.35945	0.01507
1737.07369	0.01541
1735.78792	0.01517
1734.50215	0.01477
1733.21638	0.01486
1731.93061	0.01537
1730.64484	0.01572
1729.35907	0.01578
1728.07330	0.01581
1726.78753	0.01592
1725.50177	0.01604
1724.21600	0.01621
1722.93023	0.01655
1721.64446	0.01698
1720.35869	0.01723
1719.07292	0.01724
1717.78715	0.01735
1716.50138	0.01781
1715.21561	0.01842
1713.92985	0.01887
1712.64408	0.01916
1711.35831	0.01944
1710.07254	0.01975
1708.78677	0.02005
1707.50100	0.02026
1706.21523	0.02053
1704.92946	0.02105
1703.64370	0.02161
1702.35793	0.02178
1701.07216	0.02178
1699.78639	0.02227
1698.50062	0.02305
1697.21485	0.02336
1695.92908	0.02327
1694.64331	0.02348
1693.35754	0.02390
1692.07178	0.02403
1690.78601	0.02397
1689.50024	0.02421
1688.21447	0.02471
1686.92870	0.02492
1685.64293	0.02471
1684.35716	0.02466
1683.07139	0.02516
1681.78563	0.02576
1680.49986	0.02605
1679.21409	0.02617
1677.92832	0.02628
1676.64255	0.02636
1675.35678	0.02661
1674.07101	0.02716
1672.78524	0.02772
1671.49947	0.02792
1670.21371	0.02791
1668.92794	0.02807
1667.64217	0.02851
1666.35640	0.02896
1665.07063	0.02915
1663.78486	0.02919
1662.49909	0.02933
1661.21332	0.02964
1659.92756	0.03004
1658.64179	0.03053
1657.35602	0.03114
1656.07025	0.03150
1654.78448	0.03129
1653.49871	0.03102
1652.21294	0.03147
1650.92717	0.03239
1649.64140	0.03280
1648.35564	0.03241
1647.06987	0.03189
1645.78410	0.03182
1644.49833	0.03207
1643.21256	0.03225
1641.92679	0.03225
1640.64102	0.03230
1639.35525	0.03246
1638.06949	0.03254
1636.78372	0.03244
1635.49795	0.03249
1634.21218	0.03286
1632.92641	0.03328
1631.64064	0.03341
1630.35487	0.03331
1629.06910	0.03326
1627.78333	0.03337
1626.49757	0.03353
1625.21180	0.03356
1623.92603	0.03353
1622.64026	0.03369
1621.35449	0.03408
1620.06872	0.03440
1618.78295	0.03436
1617.49718	0.03422
1616.21142	0.03443
1614.92565	0.03502
1613.63988	0.03550
1612.35411	0.03566
1611.06834	0.03570
1609.78257	0.03587
1608.49680	0.03617
1607.21103	0.03655
1605.92526	0.03695
1604.63950	0.03732
1603.35373	0.03763
1602.06796	0.03789
1600.78219	0.03812
1599.49642	0.03835
1598.21065	0.03859
1596.92488	0.03885
1595.63911	0.03913
1594.35335	0.03943
1593.06758	0.03976
1591.78181	0.04008
1590.49604	0.04038
1589.21027	0.04067
1587.92450	0.04095
1586.63873	0.04125
1585.35296	0.04153
1584.06719	0.04177
1582.78143	0.04202
1581.49566	0.04241
1580.20989	0.04293
1578.92412	0.04335
1577.63835	0.04352
1576.35258	0.04376
1575.06681	0.04446
1573.78104	0.04530
1572.49528	0.04572
1571.20951	0.04564
1569.92374	0.04555
1568.63797	0.04576
1567.35220	0.04615
1566.06643	0.04656
1564.78066	0.04709
1563.49489	0.04779
1562.20912	0.04826
1560.92336	0.04820
1559.63759	0.04801
1558.35182	0.04831
1557.06605	0.04890
1555.78028	0.04913
1554.49451	0.04894
1553.20874	0.04876
1551.92297	0.04875
1550.63721	0.04875
1549.35144	0.04878
1548.06567	0.04887
1546.77990	0.04896
1545.49413	0.04905
1544.20836	0.04918
1542.92259	0.04922
1541.63682	0.04897
1540.35105	0.04861
1539.06529	0.04858
1537.77952	0.04889
1536.49375	0.04903
1535.20798	0.04873
1533.92221	0.04836
1532.63644	0.04844
1531.35067	0.04891
1530.06490	0.04947
1528.77914	0.04998
1527.49337	0.05057
1526.20760	0.05138
1524.92183	0.05235
1523.63606	0.05326
1522.35029	0.05409
1521.06452	0.05515
1519.77875	0.05653
1518.49298	0.05788
1517.20722	0.05906
1515.92145	0.06033
1514.63568	0.06182
1513.34991	0.06343
1512.06414	0.06518
1510.77837	0.06706
1509.49260	0.06881
1508.20683	0.07026
1506.92107	0.07169
1505.63530	0.07350
1504.34953	0.07549
1503.06376	0.07711
1501.77799	0.07826
1500.49222	0.07928
1499.20645	0.08034
1497.92068	0.08137
1496.63491	0.08242
1495.34915	0.08357
1494.06338	0.08474
1492.77761	0.08569
1491.49184	0.08646
1490.20607	0.08732
1488.92030	0.08837
1487.63453	0.08954
1486.34876	0.09076
1485.06299	0.09198
1483.77723	0.09319
1482.49146	0.09440
1481.20569	0.09569
1479.91992	0.09709
1478.63415	0.09852
1477.34838	0.09990
1476.06261	0.10119
1474.77684	0.10225
1473.49108	0.10306
1472.20531	0.10377
1470.91954	0.10446
1469.63377	0.10504
1468.34800	0.10538
1467.06223	0.10552
1465.77646	0.10560
1464.49069	0.10581
1463.20492	0.10621
1461.91916	0.10673
1460.63339	0.10721
1459.34762	0.10754
1458.06185	0.10784
1456.77608	0.10849
1455.49031	0.10951
1454.20454	0.11041
1452.91877	0.11088
1451.63301	0.11110
1450.34724	0.11136
1449.06147	0.11167
1447.77570	0.11198
1446.48993	0.11228
1445.20416	0.11245
1443.91839	0.11245
1442.63262	0.11232
1441.34685	0.11222
1440.06109	0.11215
1438.77532	0.11207
1437.48955	0.11211
1436.20378	0.11254
1434.91801	0.11336
1433.63224	0.11428
1432.34647	0.11519
1431.06070	0.11632
1429.77494	0.11784
1428.48917	0.11964
1427.20340	0.12151
1425.91763	0.12330
1424.63186	0.12507
1423.34609	0.12685
1422.06032	0.12849
1420.77455	0.12984
1419.48878	0.13106
1418.20302	0.13229
1416.91725	0.13332
1415.63148	0.13389
1414.34571	0.13402
1413.05994	0.13386
1411.77417	0.13351
1410.48840	0.13295
1409.20263	0.13214
1407.91687	0.13104
1406.63110	0.12958
1405.34533	0.12778
1404.05956	0.12575
1402.77379	0.12355
1401.48802	0.12113
1400.20225	0.11852
1398.91648	0.11586
1397.63071	0.11319
1396.34495	0.11042
1395.05918	0.10752
1393.77341	0.10463
1392.48764	0.10181
1391.20187	0.09899
1389.91610	0.09611
1388.63033	0.09323
1387.34456	0.09050
1386.05880	0.08797
1384.77303	0.08554
1383.48726	0.08308
1382.20149	0.08057
1380.91572	0.07807
1379.62995	0.07561
1378.34418	0.07317
1377.05841	0.07072
1375.77264	0.06815
1374.48688	0.06550
1373.20111	0.06288
1371.91534	0.06040
1370.62957	0.05810
1369.34380	0.05600
1368.05803	0.05411
1366.77226	0.05235
1365.48649	0.05061
1364.20073	0.04885
1362.91496	0.04713
1361.62919	0.04556
1360.34342	0.04416
1359.05765	0.04289
1357.77188	0.04170
1356.48611	0.04057
1355.20034	0.03950
1353.91457	0.03851
1352.62881	0.03764
1351.34304	0.03686
1350.05727	0.03612
1348.77150	0.03539
1347.48573	0.03467
1346.19996	0.03398
1344.91419	0.03334
1343.62842	0.03275
1342.34266	0.03217
1341.05689	0.03162
1339.77112	0.03111
1338.48535	0.03067
1337.19958	0.03027
1335.91381	0.02987
1334.62804	0.02947
1333.34227	0.02908
1332.05650	0.02872
1330.77074	0.02840
1329.48497	0.02810
1328.19920	0.02781
1326.91343	0.02754
1325.62766	0.02726
1324.34189	0.02700
1323.05612	0.02675
1321.77035	0.02653
1320.48459	0.02634
1319.19882	0.02616
1317.91305	0.02598
1316.62728	0.02572
1315.34151	0.02540
1314.05574	0.02509
1312.76997	0.02484
1311.48420	0.02467
1310.19843	0.02452
1308.91267	0.02433
1307.62690	0.02410
1306.34113	0.02386
1305.05536	0.02364
1303.76959	0.02348
1302.48382	0.02339
1301.19805	0.02331
1299.91228	0.02318
1298.62652	0.02298
1297.34075	0.02278
1296.05498	0.02263
1294.76921	0.02256
1293.48344	0.02250
1292.19767	0.02238
1290.91190	0.02218
1289.62613	0.02193
1288.34036	0.02172
1287.05460	0.02158
1285.76883	0.02150
1284.48306	0.02143
1283.19729	0.02133
1281.91152	0.02119
1280.62575	0.02102
1279.33998	0.02086
1278.05421	0.02073
1276.76845	0.02062
1275.48268	0.02052
1274.19691	0.02041
1272.91114	0.02031
1271.62537	0.02021
1270.33960	0.02014
1269.05383	0.02005
1267.76806	0.01995
1266.48229	0.01983
1265.19653	0.01971
1263.91076	0.01960
1262.62499	0.01951
1261.33922	0.01942
1260.05345	0.01933
1258.76768	0.01925
1257.48191	0.01916
1256.19614	0.01906
1254.91037	0.01894
1253.62461	0.01883
1252.33884	0.01876
1251.05307	0.01873
1249.76730	0.01873
1248.48153	0.01874
1247.19576	0.01874
1245.90999	0.01872
1244.62422	0.01866
1243.33846	0.01856
1242.05269	0.01843
1240.76692	0.01828
1239.48115	0.01815
1238.19538	0.01806
1236.90961	0.01800
1235.62384	0.01794
1234.33807	0.01787
1233.05230	0.01779
1231.76654	0.01771
1230.48077	0.01763
1229.19500	0.01755
1227.90923	0.01748
1226.62346	0.01745
1225.33769	0.01742
1224.05192	0.01738
1222.76615	0.01732
1221.48039	0.01725
1220.19462	0.01718
1218.90885	0.01713
1217.62308	0.01707
1216.33731	0.01702
1215.05154	0.01699
1213.76577	0.01698
1212.48000	0.01699
1211.19423	0.01698
1209.90847	0.01694
1208.62270	0.01688
1207.33693	0.01683
1206.05116	0.01680
1204.76539	0.01680
1203.47962	0.01682
1202.19385	0.01686
1200.90808	0.01689
1199.62232	0.01686
1198.33655	0.01686
1197.05078	0.01681
1195.76501	0.01674
1194.47924	0.01668
1193.19347	0.01664
1191.90770	0.01661
1190.62193	0.01658
1189.33616	0.01657
1188.05040	0.01659
1186.76463	0.01663
1185.47886	0.01668
1184.19309	0.01674
1182.90732	0.01680
1181.62155	0.01686
1180.33578	0.01692
1179.05001	0.01697
1177.76425	0.01702
1176.47848	0.01706
1175.19271	0.01710
1173.90694	0.01717
1172.62117	0.01727
1171.33540	0.01739
1170.04963	0.01751
1168.76386	0.01757
1167.47809	0.01760
1166.19233	0.01765
1164.90656	0.01780
1163.62079	0.01803
1162.33502	0.01828
1161.04925	0.01846
1159.76348	0.01854
1158.47771	0.01859
1157.19194	0.01866
1155.90618	0.01880
1154.62041	0.01905
1153.33464	0.01941
1152.04887	0.01984
1150.76310	0.02028
1149.47733	0.02069
1148.19156	0.02112
1146.90579	0.02163
1145.62002	0.02225
1144.33426	0.02296
1143.04849	0.02376
1141.76272	0.02466
1140.47695	0.02567
1139.19118	0.02683
1137.90541	0.02815
1136.61964	0.02967
1135.33387	0.03143
1134.04811	0.03341
1132.76234	0.03563
1131.47657	0.03816
1130.19080	0.04106
1128.90503	0.04432
1127.61926	0.04788
1126.33349	0.05168
1125.04772	0.05571
1123.76195	0.05995
1122.47619	0.06435
1121.19042	0.06883
1119.90465	0.07336
1118.61888	0.07790
1117.33311	0.08240
1116.04734	0.08682
1114.76157	0.09112
1113.47580	0.09527
1112.19004	0.09929
1110.90427	0.10320
1109.61850	0.10699
1108.33273	0.11062
1107.04696	0.11407
1105.76119	0.11738
1104.47542	0.12065
1103.18965	0.12390
1101.90388	0.12711
1100.61812	0.13022
1099.33235	0.13318
1098.04658	0.13600
1096.76081	0.13874
1095.47504	0.14142
1094.18927	0.14400
1092.90350	0.14644
1091.61773	0.14869
1090.33197	0.15081
1089.04620	0.15290
1087.76043	0.15501
1086.47466	0.15719
1085.18889	0.15947
1083.90312	0.16190
1082.61735	0.16452
1081.33158	0.16732
1080.04581	0.17036
1078.76005	0.17369
1077.47428	0.17732
1076.18851	0.18119
1074.90274	0.18518
1073.61697	0.18924
1072.33120	0.19335
1071.04543	0.19753
1069.75966	0.20183
1068.47390	0.20630
1067.18813	0.21098
1065.90236	0.21585
1064.61659	0.22082
1063.33082	0.22589
1062.04505	0.23107
1060.75928	0.23635
1059.47351	0.24161
1058.18774	0.24674
1056.90198	0.25175
1055.61621	0.25671
1054.33044	0.26173
1053.04467	0.26688
1051.75890	0.27221
1050.47313	0.27770
1049.18736	0.28330
1047.90159	0.28894
1046.61583	0.29462
1045.33006	0.30044
1044.04429	0.30646
1042.75852	0.31267
1041.47275	0.31898
1040.18698	0.32536
1038.90121	0.33180
1037.61544	0.33834
1036.32967	0.34494
1035.04391	0.35151
1033.75814	0.35791
1032.47237	0.36401
1031.18660	0.36966
1029.90083	0.37477
1028.61506	0.37933
1027.32929	0.38333
1026.04352	0.38674
1024.75775	0.38948
1023.47199	0.39141
1022.18622	0.39238
1020.90045	0.39233
1019.61468	0.39122
1018.32891	0.38894
1017.04314	0.38535
1015.75737	0.38032
1014.47160	0.37388
1013.18584	0.36611
1011.90007	0.35710
1010.61430	0.34690
1009.32853	0.33556
1008.04276	0.32322
1006.75699	0.31004
1005.47122	0.29620
1004.18545	0.28186
1002.89968	0.26711
1001.61392	0.25210
1000.32815	0.23703
999.04238	0.22214
997.75661	0.20768
996.47084	0.19378
995.18507	0.18050
993.89930	0.16788
992.61353	0.15605
991.32777	0.14512
990.04200	0.13511
988.75623	0.12598
987.47046	0.11772
986.18469	0.11029
984.89892	0.10364
983.61315	0.09766
982.32738	0.09229
981.04161	0.08756
979.75585	0.08345
978.47008	0.07992
977.18431	0.07694
975.89854	0.07455
974.61277	0.07281
973.32700	0.07172
972.04123	0.07123
970.75546	0.07134
969.46970	0.07207
968.18393	0.07339
966.89816	0.07515
965.61239	0.07713
964.32662	0.07908
963.04085	0.08069
961.75508	0.08158
960.46931	0.08152
959.18354	0.08049
957.89778	0.07868
956.61201	0.07631
955.32624	0.07357
954.04047	0.07064
952.75470	0.06768
951.46893	0.06483
950.18316	0.06213
948.89739	0.05956
947.61163	0.05713
946.32586	0.05487
945.04009	0.05280
943.75432	0.05089
942.46855	0.04907
941.18278	0.04736
939.89701	0.04579
938.61124	0.04441
937.32547	0.04321
936.03971	0.04218
934.75394	0.04126
933.46817	0.04040
932.18240	0.03958
930.89663	0.03882
929.61086	0.03814
928.32509	0.03755
927.03932	0.03704
925.75356	0.03662
924.46779	0.03625
923.18202	0.03589
921.89625	0.03547
920.61048	0.03499
919.32471	0.03452
918.03894	0.03413
916.75317	0.03385
915.46740	0.03360
914.18164	0.03336
912.89587	0.03311
911.61010	0.03288
910.32433	0.03266
909.03856	0.03248
907.75279	0.03233
906.46702	0.03220
905.18125	0.03207
903.89549	0.03190
902.60972	0.03169
901.32395	0.03144
900.03818	0.03118
898.75241	0.03098
897.46664	0.03095
896.18087	0.03110
894.89510	0.03133
893.60933	0.03157
892.32357	0.03181
891.03780	0.03215
889.75203	0.03269
888.46626	0.03351
887.18049	0.03472
885.89472	0.03644
884.60895	0.03882
883.32318	0.04190
882.03742	0.04551
880.75165	0.04913
879.46588	0.05223
878.18011	0.05469
876.89434	0.05690
875.60857	0.05931
874.32280	0.06190
873.03703	0.06409
871.75126	0.06520
870.46550	0.06488
869.17973	0.06319
867.89396	0.06043
866.60819	0.05691
865.32242	0.05298
864.03665	0.04907
862.75088	0.04558
861.46511	0.04269
860.17935	0.04038
858.89358	0.03853
857.60781	0.03709
856.32204	0.03601
855.03627	0.03517
853.75050	0.03445
852.46473	0.03376
851.17896	0.03314
849.89319	0.03261
848.60743	0.03218
847.32166	0.03185
846.03589	0.03159
844.75012	0.03141
843.46435	0.03125
842.17858	0.03109
840.89281	0.03088
839.60704	0.03064
838.32128	0.03041
837.03551	0.03028
835.74974	0.03027
834.46397	0.03034
833.17820	0.03037
831.89243	0.03030
830.60666	0.03014
829.32089	0.02995
828.03512	0.02979
826.74936	0.02966
825.46359	0.02956
824.17782	0.02951
822.89205	0.02950
821.60628	0.02952
820.32051	0.02951
819.03474	0.02942
817.74897	0.02927
816.46321	0.02913
815.17744	0.02906
813.89167	0.02908
812.60590	0.02915
811.32013	0.02922
810.03436	0.02926
808.74859	0.02925
807.46282	0.02920
806.17705	0.02914
804.89129	0.02907
803.60552	0.02902
802.31975	0.02905
801.03398	0.02921
799.74821	0.02944
798.46244	0.02964
797.17667	0.02971
795.89090	0.02964
794.60513	0.02951
793.31937	0.02937
792.03360	0.02928
790.74783	0.02927
789.46206	0.02933
788.17629	0.02941
786.89052	0.02946
785.60475	0.02949
784.31898	0.02948
783.03322	0.02947
781.74745	0.02949
780.46168	0.02951
779.17591	0.02949
777.89014	0.02940
776.60437	0.02925
775.31860	0.02909
774.03283	0.02896
772.74706	0.02889
771.46130	0.02891
770.17553	0.02901
768.88976	0.02916
767.60399	0.02933
766.31822	0.02951
765.03245	0.02967
763.74668	0.02977
762.46091	0.02974
761.17515	0.02960
759.88938	0.02948
758.60361	0.02951
757.31784	0.02973
756.03207	0.03003
754.74630	0.03030
753.46053	0.03049
752.17476	0.03059
750.88899	0.03058
749.60323	0.03047
748.31746	0.03029
747.03169	0.03014
745.74592	0.03002
744.46015	0.02991
743.17438	0.02979
741.88861	0.02968
740.60284	0.02960
739.31708	0.02956
738.03131	0.02959
736.74554	0.02969
735.45977	0.02982
734.17400	0.02990
732.88823	0.02989
731.60246	0.02984
730.31669	0.02978
729.03092	0.02977
727.74516	0.02985
726.45939	0.03003
725.17362	0.03021
723.88785	0.03047
722.60208	0.03062
721.31631	0.03038
720.03054	0.03028
718.74477	0.03063
717.45901	0.03071
716.17324	0.03059
714.88747	0.03056
713.60170	0.03061
712.31593	0.03066
711.03016	0.03067
709.74439	0.03067
708.45862	0.03070
707.17285	0.03076
705.88709	0.03084
704.60132	0.03091
703.31555	0.03098
702.02978	0.03109
700.74401	0.03125
699.45824	0.03144
698.17247	0.03160
696.88670	0.03171
695.60094	0.03179
694.31517	0.03192
693.02940	0.03215
691.74363	0.03241
690.45786	0.03265
689.17209	0.03282
687.88632	0.03290
686.60055	0.03293
685.31478	0.03298
684.02902	0.03307
682.74325	0.03317
681.45748	0.03324
680.17171	0.03326
678.88594	0.03321
677.60017	0.03309
676.31440	0.03290
675.02863	0.03285
673.74287	0.03362
672.45710	0.03597
671.17133	0.03844
669.88556	0.03584
668.59979	0.02799
667.31402	0.02927
666.02825	0.03684
664.74248	0.03761
663.45671	0.03453
662.17095	0.03239
660.88518	0.03175
659.59941	0.03182
658.31364	0.03208
657.02787	0.03227
655.74210	0.03234
654.45633	0.03237
653.17056	0.03232
651.88480	0.03225
650.59903	0.03214
649.31326	0.03198
648.02749	0.03196
646.74172	0.03193
645.45595	0.03180
644.17018	0.03165
642.88441	0.03155
641.59864	0.03153
640.31288	0.03160
639.02711	0.03173
637.74134	0.03190
636.45557	0.03208
635.16980	0.03230
633.88403	0.03261
632.59826	0.03310
631.31249	0.03388
630.02673	0.03498
628.74096	0.03598
627.45519	0.03630
626.16942	0.03783
624.88365	0.04040
623.59788	0.04341
622.31211	0.04646
621.02634	0.04927
619.74057	0.05197
618.45481	0.05495
617.16904	0.05842
615.88327	0.06251
614.59750	0.06740
613.31173	0.07316
612.02596	0.07951
610.74019	0.08597
609.45442	0.09223
608.16866	0.09830
606.88289	0.10442
605.59712	0.11047
604.31135	0.11551
603.02558	0.11834
601.73981	0.11865
600.45404	0.11712
599.16827	0.11456
597.88250	0.11132
596.59674	0.10746
595.31097	0.10325
594.02520	0.09922
592.73943	0.09593
591.45366	0.09368
590.16789	0.09248
588.88212	0.09221
587.59635	0.09276
586.31059	0.09411
585.02482	0.09618
583.73905	0.09887
582.45328	0.10207
581.16751	0.10566
579.88174	0.10946
578.59597	0.11325
577.31020	0.11687
576.02443	0.12028
574.73867	0.12353
573.45290	0.12668
572.16713	0.12992
570.88136	0.13371
569.59559	0.13851
568.30982	0.14440
567.02405	0.15088
565.73828	0.15708
564.45251	0.16208
563.16675	0.16504
561.88098	0.16527
560.59521	0.16241
559.30944	0.15649
558.02367	0.14803
556.73790	0.13786
555.45213	0.12687
554.16636	0.11586
552.88060	0.10547
551.59483	0.09607
550.30906	0.08783
549.02329	0.08076
547.73752	0.07478
546.45175	0.06974
545.16598	0.06545
543.88021	0.06177
542.59444	0.05860
541.30868	0.05590
540.02291	0.05362
538.73714	0.05172
537.45137	0.05010
536.16560	0.04863
534.87983	0.04715
533.59406	0.04560
532.30829	0.04408
531.02253	0.04268
529.73676	0.04147
528.45099	0.04041
527.16522	0.03945
525.87945	0.03855
524.59368	0.03768
523.30791	0.03690
522.02214	0.03627
520.73637	0.03575
519.45061	0.03521
518.16484	0.03458
516.87907	0.03393
515.59330	0.03338
514.30753	0.03296
513.02176	0.03263
511.73599	0.03230
510.45022	0.03195
509.16446	0.03158
507.87869	0.03125
506.59292	0.03092
505.30715	0.03051
504.02138	0.02999
502.73561	0.02947
501.44984	0.02904
500.16407	0.02872
498.87830	0.02846
497.59254	0.02824
496.30677	0.02808
495.02100	0.02799
493.73523	0.02789
492.44946	0.02773
491.16369	0.02755
489.87792	0.02740
488.59215	0.02730
487.30639	0.02724
486.02062	0.02722
484.73485	0.02723
483.44908	0.02729
482.16331	0.02742
480.87754	0.02764
479.59177	0.02791
478.30600	0.02820
477.02023	0.02848
475.73447	0.02878
474.44870	0.02906
473.16293	0.02930
471.87716	0.02947
470.59139	0.02957
469.30562	0.02957
468.01985	0.02944
466.73408	0.02918
465.44832	0.02880
464.16255	0.02842
462.87678	0.02811
461.59101	0.02786
460.30524	0.02758
459.01947	0.02720
457.73370	0.02678
456.44793	0.02640
455.16216	0.02605
453.87640	0.02570
452.59063	0.02537
451.30486	0.02508
450.01909	0.02486
448.73332	0.02467
447.44755	0.02451
446.16178	0.02434
444.87601	0.02419
443.59025	0.02407
442.30448	0.02402
441.01871	0.02402
439.73294	0.02406
438.44717	0.02409
437.16140	0.02408
435.87563	0.02401
434.58986	0.02386
433.30409	0.02365
432.01833	0.02343
430.73256	0.02327
429.44679	0.02318
428.16102	0.02314
426.87525	0.02310
425.58948	0.02300
424.30371	0.02284
423.01794	0.02266
421.73218	0.02250
420.44641	0.02239
419.16064	0.02236
417.87487	0.02237
416.58910	0.02231
415.30333	0.02217
414.01756	0.02203
412.73179	0.02195
411.44602	0.02192
410.16026	0.02192
408.87449	0.02196
407.58872	0.02206
406.30295	0.02220
405.01718	0.02236
403.73141	0.02255
402.44564	0.02275
401.15987	0.02294
399.87411	0.02310
