3997.45528	0.05904
3996.16951	0.05975
3994.88374	0.06005
3993.59798	0.05992
3992.31221	0.05961
3991.02644	0.05925
3989.74067	0.05890
3988.45490	0.05863
3987.16913	0.05845
3985.88336	0.05819
3984.59759	0.05777
3983.31183	0.05726
3982.02606	0.05682
3980.74029	0.05652
3979.45452	0.05632
3978.16875	0.05606
3976.88298	0.05567
3975.59721	0.05525
3974.31144	0.05510
3973.02567	0.05538
3971.73991	0.05598
3970.45414	0.05665
3969.16837	0.05728
3967.88260	0.05785
3966.59683	0.05826
3965.31106	0.05850
3964.02529	0.05862
3962.73952	0.05866
3961.45376	0.05854
3960.16799	0.05818
3958.88222	0.05767
3957.59645	0.05720
3956.31068	0.05698
3955.02491	0.05709
3953.73914	0.05749
3952.45337	0.05795
3951.16760	0.05814
3949.88184	0.05792
3948.59607	0.05751
3947.31030	0.05725
3946.02453	0.05724
3944.73876	0.05732
3943.45299	0.05727
3942.16722	0.05711
3940.88145	0.05699
3939.59569	0.05703
3938.30992	0.05718
3937.02415	0.05735
3935.73838	0.05754
3934.45261	0.05777
3933.16684	0.05802
3931.88107	0.05817
3930.59530	0.05809
3929.30953	0.05766
3928.02377	0.05690
3926.73800	0.05603
3925.45223	0.05531
3924.16646	0.05492
3922.88069	0.05491
3921.59492	0.05523
3920.30915	0.05564
3919.02338	0.05581
3917.73762	0.05556
3916.45185	0.05503
3915.16608	0.05465
3913.88031	0.05481
3912.59454	0.05537
3911.30877	0.05579
3910.02300	0.05571
3908.73723	0.05528
3907.45146	0.05490
3906.16570	0.05478
3904.87993	0.05468
3903.59416	0.05421
3902.30839	0.05344
3901.02262	0.05288
3899.73685	0.05295
3898.45108	0.05350
3897.16531	0.05403
3895.87955	0.05420
3894.59378	0.05416
3893.30801	0.05439
3892.02224	0.05506
3890.73647	0.05570
3889.45070	0.05593
3888.16493	0.05600
3886.87916	0.05614
3885.59339	0.05608
3884.30763	0.05553
3883.02186	0.05481
3881.73609	0.05445
3880.45032	0.05463
3879.16455	0.05521
3877.87878	0.05592
3876.59301	0.05638
3875.30724	0.05619
3874.02148	0.05538
3872.73571	0.05464
3871.44994	0.05459
3870.16417	0.05491
3868.87840	0.05494
3867.59263	0.05471
3866.30686	0.05460
3865.02109	0.05457
3863.73532	0.05441
3862.44956	0.05421
3861.16379	0.05412
3859.87802	0.05404
3858.59225	0.05381
3857.30648	0.05354
3856.02071	0.05354
3854.73494	0.05384
3853.44917	0.05405
3852.16341	0.05397
3850.87764	0.05390
3849.59187	0.05398
3848.30610	0.05388
3847.02033	0.05338
3845.73456	0.05268
3844.44879	0.05218
3843.16302	0.05212
3841.87725	0.05248
3840.59149	0.05308
3839.30572	0.05359
3838.01995	0.05359
3836.73418	0.05299
3835.44841	0.05223
3834.16264	0.05171
3832.87687	0.05136
3831.59110	0.05098
3830.30534	0.05074
3829.01957	0.05092
3827.73380	0.05134
3826.44803	0.05144
3825.16226	0.05105
3823.87649	0.05065
3822.59072	0.05065
3821.30495	0.05070
3820.01918	0.05047
3818.73342	0.05028
3817.44765	0.05056
3816.16188	0.05101
3814.87611	0.05123
3813.59034	0.05143
3812.30457	0.05180
3811.01880	0.05210
3809.73303	0.05217
3808.44726	0.05210
3807.16150	0.05171
3805.87573	0.05095
3804.58996	0.05051
3803.30419	0.05102
3802.01842	0.05196
3800.73265	0.05219
3799.44688	0.05155
3798.16111	0.05083
3796.87535	0.05044
3795.58958	0.05013
3794.30381	0.04966
3793.01804	0.04911
3791.73227	0.04866
3790.44650	0.04849
3789.16073	0.04857
3787.87496	0.04878
3786.58919	0.04910
3785.30343	0.04962
3784.01766	0.05026
3782.73189	0.05069
3781.44612	0.05065
3780.16035	0.05017
3778.87458	0.04960
3777.58881	0.04931
3776.30304	0.04937
3775.01728	0.04954
3773.73151	0.04973
3772.44574	0.05021
3771.15997	0.05109
3769.87420	0.05192
3768.58843	0.05212
3767.30266	0.05162
3766.01689	0.05068
3764.73112	0.04964
3763.44536	0.04890
3762.15959	0.04882
3760.87382	0.04933
3759.58805	0.04991
3758.30228	0.05003
3757.01651	0.04944
3755.73074	0.04836
3754.44497	0.04744
3753.15921	0.04725
3751.87344	0.04790
3750.58767	0.04901
3749.30190	0.04992
3748.01613	0.05046
3746.73036	0.05126
3745.44459	0.05240
3744.15882	0.05280
3742.87305	0.05195
3741.58729	0.05086
3740.30152	0.05049
3739.01575	0.05079
3737.72998	0.05129
3736.44421	0.05152
3735.15844	0.05132
3733.87267	0.05093
3732.58690	0.05064
3731.30114	0.05029
3730.01537	0.04982
3728.72960	0.04954
3727.44383	0.04964
3726.15806	0.04994
3724.87229	0.05013
3723.58652	0.05009
3722.30075	0.05000
3721.01498	0.05017
3719.72922	0.05067
3718.44345	0.05114
3717.15768	0.05107
3715.87191	0.05040
3714.58614	0.04951
3713.30037	0.04882
3712.01460	0.04842
3710.72883	0.04823
3709.44307	0.04817
3708.15730	0.04830
3706.87153	0.04860
3705.58576	0.04903
3704.29999	0.04960
3703.01422	0.05014
3701.72845	0.05041
3700.44268	0.05028
3699.15691	0.04992
3697.87115	0.04971
3696.58538	0.04989
3695.29961	0.05029
3694.01384	0.05049
3692.72807	0.05023
3691.44230	0.04958
3690.15653	0.04891
3688.87076	0.04836
3687.58500	0.04785
3686.29923	0.04755
3685.01346	0.04787
3683.72769	0.04870
3682.44192	0.04955
3681.15615	0.05001
3679.87038	0.04980
3678.58461	0.04904
3677.29884	0.04815
3676.01308	0.04738
3674.72731	0.04679
3673.44154	0.04659
3672.15577	0.04688
3670.87000	0.04713
3669.58423	0.04686
3668.29846	0.04657
3667.01269	0.04698
3665.72693	0.04789
3664.44116	0.04853
3663.15539	0.04849
3661.86962	0.04803
3660.58385	0.04774
3659.29808	0.04799
3658.01231	0.04869
3656.72654	0.04931
3655.44077	0.04942
3654.15501	0.04922
3652.86924	0.04923
3651.58347	0.04956
3650.29770	0.04978
3649.01193	0.04955
3647.72616	0.04899
3646.44039	0.04858
3645.15462	0.04879
3643.86886	0.04966
3642.58309	0.05079
3641.29732	0.05168
3640.01155	0.05208
3638.72578	0.05202
3637.44001	0.05176
3636.15424	0.05162
3634.86847	0.05165
3633.58270	0.05157
3632.29694	0.05123
3631.01117	0.05092
3629.72540	0.05088
3628.43963	0.05088
3627.15386	0.05071
3625.86809	0.05053
3624.58232	0.05057
3623.29655	0.05088
3622.01079	0.05155
3620.72502	0.05260
3619.43925	0.05384
3618.15348	0.05494
3616.86771	0.05576
3615.58194	0.05630
3614.29617	0.05651
3613.01040	0.05623
3611.72463	0.05566
3610.43887	0.05523
3609.15310	0.05520
3607.86733	0.05544
3606.58156	0.05574
3605.29579	0.05610
3604.01002	0.05663
3602.72425	0.05733
3601.43848	0.05806
3600.15272	0.05858
3598.86695	0.05868
3597.58118	0.05846
3596.29541	0.05827
3595.00964	0.05825
3593.72387	0.05832
3592.43810	0.05844
3591.15233	0.05852
3589.86656	0.05853
3588.58080	0.05851
3587.29503	0.05850
3586.00926	0.05868
3584.72349	0.05919
3583.43772	0.05992
3582.15195	0.06057
3580.86618	0.06078
3579.58041	0.06044
3578.29464	0.05972
3577.00888	0.05913
3575.72311	0.05914
3574.43734	0.05988
3573.15157	0.06104
3571.86580	0.06219
3570.58003	0.06315
3569.29426	0.06394
3568.00849	0.06457
3566.72273	0.06494
3565.43696	0.06496
3564.15119	0.06457
3562.86542	0.06384
3561.57965	0.06299
3560.29388	0.06232
3559.00811	0.06202
3557.72234	0.06211
3556.43657	0.06246
3555.15081	0.06296
3553.86504	0.06350
3552.57927	0.06401
3551.29350	0.06445
3550.00773	0.06486
3548.72196	0.06533
3547.43619	0.06587
3546.15042	0.06644
3544.86466	0.06693
3543.57889	0.06725
3542.29312	0.06737
3541.00735	0.06730
3539.72158	0.06716
3538.43581	0.06702
3537.15004	0.06690
3535.86427	0.06678
3534.57850	0.06678
3533.29274	0.06707
3532.00697	0.06779
3530.72120	0.06880
3529.43543	0.06974
3528.14966	0.07023
3526.86389	0.07015
3525.57812	0.06978
3524.29235	0.06955
3523.00659	0.06967
3521.72082	0.06997
3520.43505	0.07013
3519.14928	0.06999
3517.86351	0.06968
3516.57774	0.06950
3515.29197	0.06964
3514.00620	0.07001
3512.72043	0.07026
3511.43467	0.07016
3510.14890	0.06980
3508.86313	0.06956
3507.57736	0.06978
3506.29159	0.07052
3505.00582	0.07154
3503.72005	0.07250
3502.43428	0.07319
3501.14852	0.07355
3499.86275	0.07370
3498.57698	0.07375
3497.29121	0.07369
3496.00544	0.07341
3494.71967	0.07291
3493.43390	0.07234
3492.14813	0.07188
3490.86236	0.07165
3489.57660	0.07177
3488.29083	0.07231
3487.00506	0.07314
3485.71929	0.07391
3484.43352	0.07429
3483.14775	0.07426
3481.86198	0.07410
3480.57621	0.07409
3479.29045	0.07436
3478.00468	0.07487
3476.71891	0.07547
3475.43314	0.07598
3474.14737	0.07628
3472.86160	0.07635
3471.57583	0.07630
3470.29006	0.07628
3469.00429	0.07630
3467.71853	0.07623
3466.43276	0.07594
3465.14699	0.07550
3463.86122	0.07515
3462.57545	0.07511
3461.28968	0.07543
3460.00391	0.07599
3458.71814	0.07653
3457.43238	0.07680
3456.14661	0.07672
3454.86084	0.07648
3453.57507	0.07640
3452.28930	0.07667
3451.00353	0.07712
3449.71776	0.07746
3448.43199	0.07753
3447.14622	0.07737
3445.86046	0.07715
3444.57469	0.07705
3443.28892	0.07719
3442.00315	0.07763
3440.71738	0.07829
3439.43161	0.07893
3438.14584	0.07923
3436.86007	0.07903
3435.57431	0.07858
3434.28854	0.07833
3433.00277	0.07858
3431.71700	0.07913
3430.43123	0.07956
3429.14546	0.07963
3427.85969	0.07956
3426.57392	0.07974
3425.28815	0.08033
3424.00239	0.08101
3422.71662	0.08131
3421.43085	0.08113
3420.14508	0.08086
3418.85931	0.08090
3417.57354	0.08117
3416.28777	0.08126
3415.00200	0.08096
3413.71624	0.08049
3412.43047	0.08019
3411.14470	0.08014
3409.85893	0.08025
3408.57316	0.08050
3407.28739	0.08103
3406.00162	0.08186
3404.71585	0.08274
3403.43008	0.08336
3402.14432	0.08362
3400.85855	0.08363
3399.57278	0.08352
3398.28701	0.08327
3397.00124	0.08281
3395.71547	0.08215
3394.42970	0.08139
3393.14393	0.08065
3391.85817	0.08018
3390.57240	0.08029
3389.28663	0.08111
3388.00086	0.08227
3386.71509	0.08316
3385.42932	0.08347
3384.14355	0.08337
3382.85778	0.08326
3381.57201	0.08327
3380.28625	0.08330
3379.00048	0.08326
3377.71471	0.08323
3376.42894	0.08327
3375.14317	0.08331
3373.85740	0.08326
3372.57163	0.08325
3371.28586	0.08343
3370.00010	0.08378
3368.71433	0.08404
3367.42856	0.08390
3366.14279	0.08338
3364.85702	0.08276
3363.57125	0.08232
3362.28548	0.08214
3360.99971	0.08214
3359.71394	0.08229
3358.42818	0.08256
3357.14241	0.08289
3355.85664	0.08315
3354.57087	0.08330
3353.28510	0.08345
3351.99933	0.08371
3350.71356	0.08405
3349.42779	0.08431
3348.14202	0.08434
3346.85626	0.08410
3345.57049	0.08367
3344.28472	0.08325
3342.99895	0.08303
3341.71318	0.08305
3340.42741	0.08314
3339.14164	0.08311
3337.85587	0.08296
3336.57011	0.08288
3335.28434	0.08306
3333.99857	0.08343
3332.71280	0.08380
3331.42703	0.08397
3330.14126	0.08392
3328.85549	0.08377
3327.56972	0.08362
3326.28395	0.08347
3324.99819	0.08326
3323.71242	0.08297
3322.42665	0.08282
3321.14088	0.08310
3319.85511	0.08383
3318.56934	0.08458
3317.28357	0.08485
3315.99780	0.08452
3314.71204	0.08391
3313.42627	0.08337
3312.14050	0.08301
3310.85473	0.08278
3309.56896	0.08267
3308.28319	0.08274
3306.99742	0.08291
3305.71165	0.08306
3304.42588	0.08306
3303.14012	0.08294
3301.85435	0.08281
3300.56858	0.08281
3299.28281	0.08296
3297.99704	0.08309
3296.71127	0.08297
3295.42550	0.08249
3294.13973	0.08187
3292.85397	0.08147
3291.56820	0.08148
3290.28243	0.08177
3288.99666	0.08203
3287.71089	0.08199
3286.42512	0.08170
3285.13935	0.08141
3283.85358	0.08137
3282.56781	0.08155
3281.28205	0.08172
3279.99628	0.08171
3278.71051	0.08160
3277.42474	0.08157
3276.13897	0.08171
3274.85320	0.08190
3273.56743	0.08194
3272.28166	0.08182
3270.99590	0.08168
3269.71013	0.08166
3268.42436	0.08172
3267.13859	0.08172
3265.85282	0.08165
3264.56705	0.08163
3263.28128	0.08179
3261.99551	0.08203
3260.70974	0.08214
3259.42398	0.08199
3258.13821	0.08164
3256.85244	0.08127
3255.56667	0.08095
3254.28090	0.08071
3252.99513	0.08059
3251.70936	0.08072
3250.42359	0.08118
3249.13783	0.08186
3247.85206	0.08243
3246.56629	0.08256
3245.28052	0.08219
3243.99475	0.08163
3242.70898	0.08133
3241.42321	0.08142
3240.13744	0.08154
3238.85167	0.08127
3237.56591	0.08056
3236.28014	0.07979
3234.99437	0.07937
3233.70860	0.07941
3232.42283	0.07973
3231.13706	0.08002
3229.85129	0.08004
3228.56552	0.07977
3227.27976	0.07954
3225.99399	0.07966
3224.70822	0.08004
3223.42245	0.08033
3222.13668	0.08032
3220.85091	0.08011
3219.56514	0.07989
3218.27937	0.07971
3216.99360	0.07944
3215.70784	0.07893
3214.42207	0.07824
3213.13630	0.07761
3211.85053	0.07727
3210.56476	0.07719
3209.27899	0.07719
3207.99322	0.07716
3206.70745	0.07716
3205.42169	0.07728
3204.13592	0.07752
3202.85015	0.07782
3201.56438	0.07810
3200.27861	0.07822
3198.99284	0.07809
3197.70707	0.07784
3196.42130	0.07767
3195.13553	0.07767
3193.84977	0.07771
3192.56400	0.07764
3191.27823	0.07751
3189.99246	0.07740
3188.70669	0.07732
3187.42092	0.07718
3186.13515	0.07696
3184.84938	0.07678
3183.56362	0.07668
3182.27785	0.07662
3180.99208	0.07647
3179.70631	0.07614
3178.42054	0.07570
3177.13477	0.07529
3175.84900	0.07504
3174.56323	0.07495
3173.27746	0.07497
3171.99170	0.07511
3170.70593	0.07540
3169.42016	0.07572
3168.13439	0.07582
3166.84862	0.07559
3165.56285	0.07509
3164.27708	0.07448
3162.99131	0.07391
3161.70555	0.07352
3160.41978	0.07338
3159.13401	0.07345
3157.84824	0.07368
3156.56247	0.07395
3155.27670	0.07418
3153.99093	0.07419
3152.70516	0.07387
3151.41939	0.07339
3150.13363	0.07308
3148.84786	0.07315
3147.56209	0.07348
3146.27632	0.07374
3144.99055	0.07381
3143.70478	0.07377
3142.41901	0.07374
3141.13324	0.07375
3139.84748	0.07380
3138.56171	0.07389
3137.27594	0.07397
3135.99017	0.07393
3134.70440	0.07373
3133.41863	0.07346
3132.13286	0.07325
3130.84709	0.07312
3129.56132	0.07299
3128.27556	0.07284
3126.98979	0.07271
3125.70402	0.07262
3124.41825	0.07255
3123.13248	0.07246
3121.84671	0.07233
3120.56094	0.07212
3119.27517	0.07181
3117.98940	0.07151
3116.70364	0.07135
3115.41787	0.07132
3114.13210	0.07126
3112.84633	0.07103
3111.56056	0.07069
3110.27479	0.07040
3108.98902	0.07023
3107.70325	0.07018
3106.41749	0.07022
3105.13172	0.07039
3103.84595	0.07071
3102.56018	0.07108
3101.27441	0.07137
3099.98864	0.07145
3098.70287	0.07139
3097.41710	0.07127
3096.13133	0.07103
3094.84557	0.07052
3093.55980	0.06978
3092.27403	0.06907
3090.98826	0.06868
3089.70249	0.06862
3088.41672	0.06871
3087.13095	0.06886
3085.84518	0.06906
3084.55942	0.06932
3083.27365	0.06955
3081.98788	0.06964
3080.70211	0.06964
3079.41634	0.06963
3078.13057	0.06962
3076.84480	0.06954
3075.55903	0.06930
3074.27326	0.06889
3072.98750	0.06837
3071.70173	0.06789
3070.41596	0.06759
3069.13019	0.06750
3067.84442	0.06752
3066.55865	0.06755
3065.27288	0.06759
3063.98711	0.06770
3062.70135	0.06781
3061.41558	0.06778
3060.12981	0.06758
3058.84404	0.06736
3057.55827	0.06722
3056.27250	0.06713
3054.98673	0.06696
3053.70096	0.06668
3052.41519	0.06639
3051.12943	0.06617
3049.84366	0.06601
3048.55789	0.06583
3047.27212	0.06560
3045.98635	0.06536
3044.70058	0.06520
3043.41481	0.06518
3042.12904	0.06528
3040.84328	0.06544
3039.55751	0.06559
3038.27174	0.06563
3036.98597	0.06551
3035.70020	0.06524
3034.41443	0.06495
3033.12866	0.06476
3031.84289	0.06462
3030.55712	0.06430
3029.27136	0.06369
3027.98559	0.06303
3026.69982	0.06271
3025.41405	0.06286
3024.12828	0.06326
3022.84251	0.06358
3021.55674	0.06363
3020.27097	0.06343
3018.98521	0.06308
3017.69944	0.06271
3016.41367	0.06244
3015.12790	0.06234
3013.84213	0.06234
3012.55636	0.06236
3011.27059	0.06238
3009.98482	0.06239
3008.69905	0.06238
3007.41329	0.06232
3006.12752	0.06226
3004.84175	0.06226
3003.55598	0.06230
3002.27021	0.06229
3000.98444	0.06215
2999.69867	0.06190
2998.41290	0.06164
2997.12714	0.06145
2995.84137	0.06139
2994.55560	0.06148
2993.26983	0.06171
2991.98406	0.06209
2990.69829	0.06255
2989.41252	0.06296
2988.12675	0.06316
2986.84098	0.06310
2985.55522	0.06286
2984.26945	0.06256
2982.98368	0.06231
2981.69791	0.06214
2980.41214	0.06211
2979.12637	0.06237
2977.84060	0.06303
2976.55483	0.06397
2975.26907	0.06491
2973.98330	0.06568
2972.69753	0.06633
2971.41176	0.06696
2970.12599	0.06763
2968.84022	0.06834
2967.55445	0.06913
2966.26868	0.06999
2964.98291	0.07085
2963.69715	0.07169
2962.41138	0.07248
2961.12561	0.07326
2959.83984	0.07407
2958.55407	0.07497
2957.26830	0.07602
2955.98253	0.07716
2954.69676	0.07821
2953.41100	0.07897
2952.12523	0.07940
2950.83946	0.07959
2949.55369	0.07961
2948.26792	0.07945
2946.98215	0.07910
2945.69638	0.07864
2944.41061	0.07819
2943.12484	0.07783
2941.83908	0.07756
2940.55331	0.07747
2939.26754	0.07773
2937.98177	0.07845
2936.69600	0.07954
2935.41023	0.08072
2934.12446	0.08177
2932.83869	0.08265
2931.55293	0.08336
2930.26716	0.08389
2928.98139	0.08422
2927.69562	0.08439
2926.40985	0.08445
2925.12408	0.08447
2923.83831	0.08454
2922.55254	0.08472
2921.26677	0.08487
2919.98101	0.08480
2918.69524	0.08442
2917.40947	0.08383
2916.12370	0.08320
2914.83793	0.08256
2913.55216	0.08183
2912.26639	0.08097
2910.98062	0.08006
2909.69486	0.07927
2908.40909	0.07864
2907.12332	0.07808
2905.83755	0.07749
2904.55178	0.07688
2903.26601	0.07635
2901.98024	0.07592
2900.69447	0.07552
2899.40870	0.07506
2898.12294	0.07447
2896.83717	0.07376
2895.55140	0.07302
2894.26563	0.07236
2892.97986	0.07186
2891.69409	0.07147
2890.40832	0.07105
2889.12255	0.07056
2887.83678	0.07003
2886.55102	0.06951
2885.26525	0.06904
2883.97948	0.06860
2882.69371	0.06819
2881.40794	0.06783
2880.12217	0.06757
2878.83640	0.06748
2877.55063	0.06765
2876.26487	0.06804
2874.97910	0.06852
2873.69333	0.06897
2872.40756	0.06934
2871.12179	0.06963
2869.83602	0.06987
2868.55025	0.07007
2867.26448	0.07020
2865.97871	0.07022
2864.69295	0.07015
2863.40718	0.07001
2862.12141	0.06982
2860.83564	0.06961
2859.54987	0.06939
2858.26410	0.06919
2856.97833	0.06901
2855.69256	0.06882
2854.40680	0.06865
2853.12103	0.06852
2851.83526	0.06842
2850.54949	0.06823
2849.26372	0.06779
2847.97795	0.06704
2846.69218	0.06609
2845.40641	0.06513
2844.12064	0.06427
2842.83488	0.06351
2841.54911	0.06278
2840.26334	0.06200
2838.97757	0.06123
2837.69180	0.06052
2836.40603	0.05984
2835.12026	0.05912
2833.83449	0.05832
2832.54873	0.05756
2831.26296	0.05695
2829.97719	0.05650
2828.69142	0.05612
2827.40565	0.05577
2826.11988	0.05542
2824.83411	0.05507
2823.54834	0.05475
2822.26257	0.05452
2820.97681	0.05432
2819.69104	0.05407
2818.40527	0.05372
2817.11950	0.05333
2815.83373	0.05304
2814.54796	0.05291
2813.26219	0.05294
2811.97642	0.05306
2810.69066	0.05317
2809.40489	0.05318
2808.11912	0.05303
2806.83335	0.05276
2805.54758	0.05237
2804.26181	0.05188
2802.97604	0.05137
2801.69027	0.05101
2800.40450	0.05090
2799.11874	0.05092
2797.83297	0.05094
2796.54720	0.05092
2795.26143	0.05094
2793.97566	0.05103
2792.68989	0.05106
2791.40412	0.05090
2790.11835	0.05052
2788.83259	0.05002
2787.54682	0.04959
2786.26105	0.04938
2784.97528	0.04941
2783.68951	0.04951
2782.40374	0.04952
2781.11797	0.04943
2779.83220	0.04935
2778.54643	0.04935
2777.26067	0.04944
2775.97490	0.04956
2774.68913	0.04963
2773.40336	0.04958
2772.11759	0.04941
2770.83182	0.04918
2769.54605	0.04897
2768.26028	0.04881
2766.97452	0.04866
2765.68875	0.04850
2764.40298	0.04839
2763.11721	0.04835
2761.83144	0.04832
2760.54567	0.04816
2759.25990	0.04780
2757.97413	0.04737
2756.68836	0.04710
2755.40260	0.04706
2754.11683	0.04715
2752.83106	0.04719
2751.54529	0.04717
2750.25952	0.04709
2748.97375	0.04696
2747.68798	0.04684
2746.40221	0.04682
2745.11645	0.04698
2743.83068	0.04728
2742.54491	0.04758
2741.25914	0.04773
2739.97337	0.04769
2738.68760	0.04752
2737.40183	0.04733
2736.11606	0.04723
2734.83029	0.04717
2733.54453	0.04707
2732.25876	0.04686
2730.97299	0.04662
2729.68722	0.04643
2728.40145	0.04633
2727.11568	0.04626
2725.82991	0.04619
2724.54414	0.04608
2723.25838	0.04598
2721.97261	0.04595
2720.68684	0.04600
2719.40107	0.04607
2718.11530	0.04611
2716.82953	0.04609
2715.54376	0.04604
2714.25799	0.04594
2712.97222	0.04581
2711.68646	0.04564
2710.40069	0.04546
2709.11492	0.04533
2707.82915	0.04526
2706.54338	0.04518
2705.25761	0.04501
2703.97184	0.04481
2702.68607	0.04469
2701.40031	0.04471
2700.11454	0.04479
2698.82877	0.04485
2697.54300	0.04486
2696.25723	0.04481
2694.97146	0.04468
2693.68569	0.04444
2692.39992	0.04412
2691.11415	0.04378
2689.82839	0.04353
2688.54262	0.04340
2687.25685	0.04334
2685.97108	0.04326
2684.68531	0.04313
2683.39954	0.04308
2682.11377	0.04317
2680.82800	0.04333
2679.54224	0.04341
2678.25647	0.04332
2676.97070	0.04307
2675.68493	0.04278
2674.39916	0.04255
2673.11339	0.04247
2671.82762	0.04249
2670.54185	0.04258
2669.25608	0.04269
2667.97032	0.04279
2666.68455	0.04283
2665.39878	0.04282
2664.11301	0.04283
2662.82724	0.04292
2661.54147	0.04308
2660.25570	0.04316
2658.96993	0.04306
2657.68417	0.04278
2656.39840	0.04247
2655.11263	0.04231
2653.82686	0.04240
2652.54109	0.04266
2651.25532	0.04291
2649.96955	0.04295
2648.68378	0.04273
2647.39801	0.04234
2646.11225	0.04191
2644.82648	0.04155
2643.54071	0.04128
2642.25494	0.04109
2640.96917	0.04097
2639.68340	0.04096
2638.39763	0.04098
2637.11186	0.04093
2635.82609	0.04071
2634.54033	0.04038
2633.25456	0.04007
2631.96879	0.03986
2630.68302	0.03972
2629.39725	0.03955
2628.11148	0.03931
2626.82571	0.03903
2625.53994	0.03874
2624.25418	0.03842
2622.96841	0.03807
2621.68264	0.03782
2620.39687	0.03779
2619.11110	0.03795
2617.82533	0.03804
2616.53956	0.03790
2615.25379	0.03766
2613.96802	0.03748
2612.68226	0.03739
2611.39649	0.03730
2610.11072	0.03716
2608.82495	0.03703
2607.53918	0.03702
2606.25341	0.03716
2604.96764	0.03738
2603.68187	0.03750
2602.39611	0.03738
2601.11034	0.03703
2599.82457	0.03655
2598.53880	0.03610
2597.25303	0.03585
2595.96726	0.03584
2594.68149	0.03595
2593.39572	0.03591
2592.10995	0.03566
2590.82419	0.03536
2589.53842	0.03523
2588.25265	0.03529
2586.96688	0.03532
2585.68111	0.03522
2584.39534	0.03514
2583.10957	0.03531
2581.82380	0.03563
2580.53804	0.03575
2579.25227	0.03545
2577.96650	0.03480
2576.68073	0.03406
2575.39496	0.03346
2574.10919	0.03310
2572.82342	0.03298
2571.53765	0.03312
2570.25188	0.03350
2568.96612	0.03409
2567.68035	0.03471
2566.39458	0.03506
2565.10881	0.03490
2563.82304	0.03432
2562.53727	0.03369
2561.25150	0.03339
2559.96573	0.03353
2558.67997	0.03397
2557.39420	0.03450
2556.10843	0.03491
2554.82266	0.03510
2553.53689	0.03504
2552.25112	0.03474
2550.96535	0.03421
2549.67958	0.03354
2548.39381	0.03292
2547.10805	0.03259
2545.82228	0.03262
2544.53651	0.03290
2543.25074	0.03323
2541.96497	0.03342
2540.67920	0.03331
2539.39343	0.03288
2538.10766	0.03234
2536.82190	0.03199
2535.53613	0.03192
2534.25036	0.03202
2532.96459	0.03210
2531.67882	0.03218
2530.39305	0.03239
2529.10728	0.03274
2527.82151	0.03300
2526.53574	0.03294
2525.24998	0.03258
2523.96421	0.03212
2522.67844	0.03174
2521.39267	0.03155
2520.10690	0.03155
2518.82113	0.03172
2517.53536	0.03194
2516.24959	0.03212
2514.96383	0.03218
2513.67806	0.03215
2512.39229	0.03204
2511.10652	0.03187
2509.82075	0.03178
2508.53498	0.03187
2507.24921	0.03209
2505.96344	0.03229
2504.67767	0.03237
2503.39191	0.03241
2502.10614	0.03245
2500.82037	0.03245
2499.53460	0.03239
2498.24883	0.03233
2496.96306	0.03232
2495.67729	0.03231
2494.39152	0.03222
2493.10576	0.03199
2491.81999	0.03164
2490.53422	0.03125
2489.24845	0.03096
2487.96268	0.03082
2486.67691	0.03082
2485.39114	0.03091
2484.10537	0.03105
2482.81960	0.03120
2481.53384	0.03132
2480.24807	0.03134
2478.96230	0.03119
2477.67653	0.03080
2476.39076	0.03029
2475.10499	0.02996
2473.81922	0.03003
2472.53345	0.03045
2471.24769	0.03092
2469.96192	0.03114
2468.67615	0.03100
2467.39038	0.03063
2466.10461	0.03031
2464.81884	0.03026
2463.53307	0.03047
2462.24730	0.03079
2460.96153	0.03100
2459.67577	0.03106
2458.39000	0.03110
2457.10423	0.03125
2455.81846	0.03145
2454.53269	0.03157
2453.24692	0.03143
2451.96115	0.03097
2450.67538	0.03031
2449.38962	0.02973
2448.10385	0.02947
2446.81808	0.02952
2445.53231	0.02966
2444.24654	0.02971
2442.96077	0.02972
2441.67500	0.02984
2440.38923	0.03012
2439.10346	0.03044
2437.81770	0.03056
2436.53193	0.03038
2435.24616	0.03002
2433.96039	0.02968
2432.67462	0.02948
2431.38885	0.02936
2430.10308	0.02929
2428.81731	0.02923
2427.53155	0.02907
2426.24578	0.02870
2424.96001	0.02821
2423.67424	0.02788
2422.38847	0.02796
2421.10270	0.02841
2419.81693	0.02893
2418.53116	0.02922
2417.24539	0.02929
2415.95963	0.02939
2414.67386	0.02967
2413.38809	0.02997
2412.10232	0.03008
2410.81655	0.02998
2409.53078	0.02985
2408.24501	0.02978
2406.95924	0.02969
2405.67347	0.02950
2404.38771	0.02917
2403.10194	0.02873
2401.81617	0.02832
2400.53040	0.02798
2399.24463	0.02622
2397.95886	0.02530
2396.67309	0.02567
2395.38732	0.02664
2394.10156	0.02770
2392.81579	0.02870
2391.53002	0.02960
2390.24425	0.03042
2388.95848	0.03124
2387.67271	0.03212
2386.38694	0.03304
2385.10117	0.03386
2383.81540	0.03443
2382.52964	0.03465
2381.24387	0.03455
2379.95810	0.03421
2378.67233	0.03376
2377.38656	0.03332
2376.10079	0.03301
2374.81502	0.03295
2373.52925	0.03317
2372.24349	0.03350
2370.95772	0.03381
2369.67195	0.03420
2368.38618	0.03501
2367.10041	0.03652
2365.81464	0.03857
2364.52887	0.04064
2363.24310	0.04223
2361.95733	0.04306
2360.67157	0.04303
2359.38580	0.04239
2358.10003	0.04168
2356.81426	0.04149
2355.52849	0.04192
2354.24272	0.04247
2352.95695	0.04294
2351.67118	0.04344
2350.38542	0.04392
2349.09965	0.04409
2347.81388	0.04343
2346.52811	0.04201
2345.24234	0.04084
2343.95657	0.04058
2342.67080	0.04089
2341.38503	0.04123
2340.09926	0.04137
2338.81350	0.04126
2337.52773	0.04108
2336.24196	0.04120
2334.95619	0.04161
2333.67042	0.04190
2332.38465	0.04201
2331.09888	0.04221
2329.81311	0.04274
2328.52735	0.04340
2327.24158	0.04360
2325.95581	0.04276
2324.67004	0.04083
2323.38427	0.03826
2322.09850	0.03585
2320.81273	0.03431
2319.52696	0.03370
2318.24119	0.03361
2316.95543	0.03351
2315.66966	0.03309
2314.38389	0.03235
2313.09812	0.03151
2311.81235	0.03074
2310.52658	0.03016
2309.24081	0.02990
2307.95504	0.03000
2306.66928	0.03041
2305.38351	0.03094
2304.09774	0.03134
2302.81197	0.03151
2301.52620	0.03158
2300.24043	0.03173
2298.95466	0.03197
2297.66889	0.03216
2296.38312	0.03214
2295.09736	0.03190
2293.81159	0.03150
2292.52582	0.03103
2291.24005	0.03052
2289.95428	0.02997
2288.66851	0.02929
2287.38274	0.02842
2286.09697	0.02742
2284.81121	0.02652
2283.52544	0.02599
2282.23967	0.02593
2280.95390	0.02619
2279.66813	0.02645
2278.38236	0.02640
2277.09659	0.02600
2275.81082	0.02546
2274.52505	0.02503
2273.23929	0.02477
2271.95352	0.02450
2270.66775	0.02416
2269.38198	0.02384
2268.09621	0.02376
2266.81044	0.02395
2265.52467	0.02418
2264.23890	0.02417
2262.95314	0.02384
2261.66737	0.02342
2260.38160	0.02327
2259.09583	0.02350
2257.81006	0.02390
2256.52429	0.02408
2255.23852	0.02386
2253.95275	0.02336
2252.66698	0.02289
2251.38122	0.02255
2250.09545	0.02198
2248.80968	0.02101
2247.52391	0.02108
2246.23814	0.02177
2244.95237	0.02279
2243.66660	0.02357
2242.38083	0.02378
2241.09507	0.02366
2239.80930	0.02357
2238.52353	0.02348
2237.23776	0.02297
2235.95199	0.02192
2234.66622	0.02071
2233.38045	0.01993
2232.09468	0.01974
2230.80891	0.01982
2229.52315	0.01984
2228.23738	0.01971
2226.95161	0.01956
2225.66584	0.01946
2224.38007	0.01935
2223.09430	0.01920
2221.80853	0.01906
2220.52276	0.01910
2219.23700	0.01933
2217.95123	0.01961
2216.66546	0.01973
2215.37969	0.01965
2214.09392	0.01944
2212.80815	0.01914
2211.52238	0.01877
2210.23661	0.01837
2208.95084	0.01806
2207.66508	0.01803
2206.37931	0.01833
2205.09354	0.01868
2203.80777	0.01873
2202.52200	0.01846
2201.23623	0.01805
2199.95046	0.01735
2198.66469	0.01603
2197.37893	0.01427
2196.09316	0.01288
2194.80739	0.01245
2193.52162	0.01273
2192.23585	0.01301
2190.95008	0.01288
2189.66431	0.01254
2188.37854	0.01245
2187.09277	0.01285
2185.80701	0.01361
2184.52124	0.01451
2183.23547	0.01539
2181.94970	0.01595
2180.66393	0.01574
2179.37816	0.01460
2178.09239	0.01300
2176.80662	0.01169
2175.52085	0.01110
2174.23509	0.01110
2172.94932	0.01134
2171.66355	0.01158
2170.37778	0.01181
2169.09201	0.01206
2167.80624	0.01218
2166.52047	0.01188
2165.23470	0.01111
2163.94894	0.01014
2162.66317	0.00934
2161.37740	0.00888
2160.09163	0.00856
2158.80586	0.00796
2157.52009	0.00697
2156.23432	0.00606
2154.94855	0.00585
2153.66278	0.00648
2152.37702	0.00755
2151.09125	0.00858
2149.80548	0.00938
2148.51971	0.01002
2147.23394	0.01070
2145.94817	0.01164
2144.66240	0.01288
2143.37663	0.01411
2142.09087	0.01483
2140.80510	0.01475
2139.51933	0.01411
2138.23356	0.01337
2136.94779	0.01280
2135.66202	0.01242
2134.37625	0.01229
2133.09048	0.01249
2131.80471	0.01290
2130.51895	0.01333
2129.23318	0.01374
2127.94741	0.01418
2126.66164	0.01448
2125.37587	0.01436
2124.09010	0.01385
2122.80433	0.01341
2121.51856	0.01350
2120.23280	0.01411
2118.94703	0.01483
2117.66126	0.01530
2116.37549	0.01549
2115.08972	0.01561
2113.80395	0.01588
2112.51818	0.01622
2111.23241	0.01637
2109.94664	0.01603
2108.66088	0.01524
2107.37511	0.01441
2106.08934	0.01400
2104.80357	0.01407
2103.51780	0.01424
2102.23203	0.01417
2100.94626	0.01397
2099.66049	0.01372
2098.37473	0.01382
2097.08896	0.01392
2095.80319	0.01368
2094.51742	0.01330
2093.23165	0.01325
2091.94588	0.01370
2090.66011	0.01443
2089.37434	0.01505
2088.08857	0.01539
2086.80281	0.01550
2085.51704	0.01551
2084.23127	0.01533
2082.94550	0.01481
2081.65973	0.01395
2080.37396	0.01301
2079.08819	0.01228
2077.80242	0.01185
2076.51666	0.01156
2075.23089	0.01129
2073.94512	0.01109
2072.65935	0.01107
2071.37358	0.01122
2070.08781	0.01138
2068.80204	0.01137
2067.51627	0.01115
2066.23050	0.01083
2064.94474	0.01056
2063.65897	0.01050
2062.37320	0.01074
2061.08743	0.01125
2059.80166	0.01170
2058.51589	0.01163
2057.23012	0.01085
2055.94435	0.00966
2054.65859	0.00855
2053.37282	0.00787
2052.08705	0.00759
2050.80128	0.00740
2049.51551	0.00699
2048.22974	0.00630
2046.94397	0.00566
2045.65820	0.00539
2044.37243	0.00548
2043.08667	0.00565
2041.80090	0.00579
2040.51513	0.00602
2039.22936	0.00636
2037.94359	0.00644
2036.65782	0.00594
2035.37205	0.00505
2034.08628	0.00428
2032.80052	0.00404
2031.51475	0.00417
2030.22898	0.00425
2028.94321	0.00395
2027.65744	0.00334
2026.37167	0.00278
2025.08590	0.00268
2023.80013	0.00318
2022.51436	0.00415
2021.22860	0.00525
2019.94283	0.00617
2018.65706	0.00678
2017.37129	0.00716
2016.08552	0.00750
2014.79975	0.00780
2013.51398	0.00791
2012.22821	0.00767
2010.94245	0.00711
2009.65668	0.00643
2008.37091	0.00588
2007.08514	0.00557
2005.79937	0.00551
2004.51360	0.00572
2003.22783	0.00624
2001.94206	0.00712
2000.65629	0.00831
1999.37053	0.00960
1998.08476	0.01062
1996.79899	0.01092
1995.51322	0.01030
1994.22745	0.00914
1992.94168	0.00821
1991.65591	0.00804
1990.37014	0.00856
1989.08438	0.00924
1987.79861	0.00976
1986.51284	0.01020
1985.22707	0.01073
1983.94130	0.01128
1982.65553	0.01157
1981.36976	0.01148
1980.08399	0.01114
1978.79822	0.01071
1977.51246	0.01025
1976.22669	0.00983
1974.94092	0.00953
1973.65515	0.00936
1972.36938	0.00920
1971.08361	0.00891
1969.79784	0.00853
1968.51207	0.00837
1967.22631	0.00873
1965.94054	0.00958
1964.65477	0.01055
1963.36900	0.01119
1962.08323	0.01134
1960.79746	0.01119
1959.51169	0.01110
1958.22592	0.01131
1956.94015	0.01177
1955.65439	0.01229
1954.36862	0.01270
1953.08285	0.01295
1951.79708	0.01300
1950.51131	0.01276
1949.22554	0.01228
1947.93977	0.01179
1946.65400	0.01162
1945.36823	0.01199
1944.08247	0.01282
1942.79670	0.01365
1941.51093	0.01401
1940.22516	0.01378
1938.93939	0.01325
1937.65362	0.01276
1936.36785	0.01252
1935.08208	0.01259
1933.79632	0.01299
1932.51055	0.01365
1931.22478	0.01440
1929.93901	0.01505
1928.65324	0.01548
1927.36747	0.01568
1926.08170	0.01563
1924.79593	0.01531
1923.51016	0.01483
1922.22440	0.01442
1920.93863	0.01429
1919.65286	0.01443
1918.36709	0.01463
1917.08132	0.01476
1915.79555	0.01483
1914.50978	0.01489
1913.22401	0.01484
1911.93825	0.01465
1910.65248	0.01450
1909.36671	0.01456
1908.08094	0.01478
1906.79517	0.01494
1905.50940	0.01485
1904.22363	0.01457
1902.93786	0.01435
1901.65209	0.01438
1900.36633	0.01471
1899.08056	0.01520
1897.79479	0.01564
1896.50902	0.01580
1895.22325	0.01560
1893.93748	0.01520
1892.65171	0.01490
1891.36594	0.01485
1890.08018	0.01500
1888.79441	0.01524
1887.50864	0.01554
1886.22287	0.01587
1884.93710	0.01611
1883.65133	0.01613
1882.36556	0.01592
1881.07979	0.01565
1879.79402	0.01547
1878.50826	0.01544
1877.22249	0.01552
1875.93672	0.01560
1874.65095	0.01559
1873.36518	0.01540
1872.07941	0.01509
1870.79364	0.01485
1869.50787	0.01481
1868.22211	0.01496
1866.93634	0.01524
1865.65057	0.01564
1864.36480	0.01609
1863.07903	0.01645
1861.79326	0.01658
1860.50749	0.01652
1859.22172	0.01642
1857.93595	0.01635
1856.65019	0.01626
1855.36442	0.01611
1854.07865	0.01596
1852.79288	0.01590
1851.50711	0.01593
1850.22134	0.01598
1848.93557	0.01596
1847.64980	0.01592
1846.36404	0.01593
1845.07827	0.01596
1843.79250	0.01592
1842.50673	0.01583
1841.22096	0.01588
1839.93519	0.01613
1838.64942	0.01644
1837.36365	0.01663
1836.07788	0.01665
1834.79212	0.01655
1833.50635	0.01642
1832.22058	0.01637
1830.93481	0.01641
1829.64904	0.01645
1828.36327	0.01644
1827.07750	0.01649
1825.79173	0.01659
1824.50597	0.01666
1823.22020	0.01662
1821.93443	0.01652
1820.64866	0.01639
1819.36289	0.01626
1818.07712	0.01619
1816.79135	0.01622
1815.50558	0.01635
1814.21981	0.01655
1812.93405	0.01679
1811.64828	0.01703
1810.36251	0.01720
1809.07674	0.01728
1807.79097	0.01728
1806.50520	0.01729
1805.21943	0.01735
1803.93366	0.01748
1802.64790	0.01763
1801.36213	0.01772
1800.07636	0.01765
1798.79059	0.01742
1797.50482	0.01713
1796.21905	0.01692
1794.93328	0.01692
1793.64751	0.01711
1792.36174	0.01731
1791.07598	0.01737
1789.79021	0.01730
1788.50444	0.01721
1787.21867	0.01712
1785.93290	0.01698
1784.64713	0.01680
1783.36136	0.01673
1782.07559	0.01689
1780.78983	0.01719
1779.50406	0.01743
1778.21829	0.01748
1776.93252	0.01741
1775.64675	0.01741
1774.36098	0.01758
1773.07521	0.01782
1771.78944	0.01794
1770.50367	0.01794
1769.21791	0.01797
1767.93214	0.01803
1766.64637	0.01802
1765.36060	0.01803
1764.07483	0.01816
1762.78906	0.01837
1761.50329	0.01848
1760.21752	0.01848
1758.93176	0.01849
1757.64599	0.01852
1756.36022	0.01845
1755.07445	0.01824
1753.78868	0.01812
1752.50291	0.01821
1751.21714	0.01842
1749.93137	0.01859
1748.64560	0.01871
1747.35984	0.01880
1746.07407	0.01880
1744.78830	0.01871
1743.50253	0.01856
1742.21676	0.01848
1740.93099	0.01850
1739.64522	0.01851
1738.35945	0.01841
1737.07369	0.01838
1735.78792	0.01860
1734.50215	0.01893
1733.21638	0.01908
1731.93061	0.01909
1730.64484	0.01919
1729.35907	0.01940
1728.07330	0.01959
1726.78753	0.01973
1725.50177	0.01990
1724.21600	0.02007
1722.93023	0.02013
1721.64446	0.02008
1720.35869	0.02009
1719.07292	0.02030
1717.78715	0.02061
1716.50138	0.02091
1715.21561	0.02122
1713.92985	0.02163
1712.64408	0.02212
1711.35831	0.02259
1710.07254	0.02298
1708.78677	0.02331
1707.50100	0.02363
1706.21523	0.02394
1704.92946	0.02413
1703.64370	0.02426
1702.35793	0.02454
1701.07216	0.02491
1699.78639	0.02510
1698.50062	0.02529
1697.21485	0.02587
1695.92908	0.02675
1694.64331	0.02745
1693.35754	0.02791
1692.07178	0.02839
1690.78601	0.02885
1689.50024	0.02909
1688.21447	0.02912
1686.92870	0.02923
1685.64293	0.02956
1684.35716	0.02995
1683.07139	0.03032
1681.78563	0.03085
1680.49986	0.03157
1679.21409	0.03225
1677.92832	0.03276
1676.64255	0.03319
1675.35678	0.03355
1674.07101	0.03381
1672.78524	0.03409
1671.49947	0.03453
1670.21371	0.03506
1668.92794	0.03554
1667.64217	0.03593
1666.35640	0.03637
1665.07063	0.03691
1663.78486	0.03744
1662.49909	0.03783
1661.21332	0.03810
1659.92756	0.03833
1658.64179	0.03848
1657.35602	0.03846
1656.07025	0.03845
1654.78448	0.03872
1653.49871	0.03913
1652.21294	0.03928
1650.92717	0.03923
1649.64140	0.03939
1648.35564	0.03991
1647.06987	0.04045
1645.78410	0.04068
1644.49833	0.04067
1643.21256	0.04060
1641.92679	0.04055
1640.64102	0.04043
1639.35525	0.04025
1638.06949	0.04014
1636.78372	0.04019
1635.49795	0.04022
1634.21218	0.04015
1632.92641	0.04009
1631.64064	0.04015
1630.35487	0.04025
1629.06910	0.04021
1627.78333	0.04000
1626.49757	0.03974
1625.21180	0.03955
1623.92603	0.03943
1622.64026	0.03921
1621.35449	0.03882
1620.06872	0.03844
1618.78295	0.03827
1617.49718	0.03826
1616.21142	0.03820
1614.92565	0.03807
1613.63988	0.03804
1612.35411	0.03817
1611.06834	0.03832
1609.78257	0.03839
1608.49680	0.03843
1607.21103	0.03847
1605.92526	0.03853
1604.63950	0.03859
1603.35373	0.03862
1602.06796	0.03863
1600.78219	0.03865
1599.49642	0.03870
1598.21065	0.03880
1596.92488	0.03896
1595.63911	0.03916
1594.35335	0.03937
1593.06758	0.03958
1591.78181	0.03977
1590.49604	0.03997
1589.21027	0.04020
1587.92450	0.04049
1586.63873	0.04085
1585.35296	0.04122
1584.06719	0.04156
1582.78143	0.04182
1581.49566	0.04201
1580.20989	0.04218
1578.92412	0.04250
1577.63835	0.04309
1576.35258	0.04377
1575.06681	0.04430
1573.78104	0.04471
1572.49528	0.04523
1571.20951	0.04589
1569.92374	0.04651
1568.63797	0.04699
1567.35220	0.04741
1566.06643	0.04789
1564.78066	0.04830
1563.49489	0.04856
1562.20912	0.04884
1560.92336	0.04933
1559.63759	0.04991
1558.35182	0.05032
1557.06605	0.05065
1555.78028	0.05120
1554.49451	0.05198
1553.20874	0.05276
1551.92297	0.05344
1550.63721	0.05403
1549.35144	0.05452
1548.06567	0.05486
1546.77990	0.05510
1545.49413	0.05523
1544.20836	0.05524
1542.92259	0.05522
1541.63682	0.05536
1540.35105	0.05565
1539.06529	0.05585
1537.77952	0.05590
1536.49375	0.05600
1535.20798	0.05631
1533.92221	0.05673
1532.63644	0.05711
1531.35067	0.05749
1530.06490	0.05799
1528.77914	0.05862
1527.49337	0.05926
1526.20760	0.05986
1524.92183	0.06047
1523.63606	0.06124
1522.35029	0.06224
1521.06452	0.06330
1519.77875	0.06433
1518.49298	0.06548
1517.20722	0.06680
1515.92145	0.06821
1514.63568	0.06963
1513.34991	0.07109
1512.06414	0.07251
1510.77837	0.07384
1509.49260	0.07520
1508.20683	0.07677
1506.92107	0.07848
1505.63530	0.08010
1504.34953	0.08154
1503.06376	0.08295
1501.77799	0.08434
1500.49222	0.08563
1499.20645	0.08679
1497.92068	0.08791
1496.63491	0.08896
1495.34915	0.08987
1494.06338	0.09063
1492.77761	0.09142
1491.49184	0.09228
1490.20607	0.09318
1488.92030	0.09410
1487.63453	0.09512
1486.34876	0.09626
1485.06299	0.09751
1483.77723	0.09884
1482.49146	0.10021
1481.20569	0.10158
1479.91992	0.10294
1478.63415	0.10429
1477.34838	0.10562
1476.06261	0.10692
1474.77684	0.10822
1473.49108	0.10951
1472.20531	0.11066
1470.91954	0.11159
1469.63377	0.11236
1468.34800	0.11305
1467.06223	0.11371
1465.77646	0.11429
1464.49069	0.11478
1463.20492	0.11516
1461.91916	0.11548
1460.63339	0.11588
1459.34762	0.11649
1458.06185	0.11732
1456.77608	0.11818
1455.49031	0.11888
1454.20454	0.11951
1452.91877	0.12019
1451.63301	0.12089
1450.34724	0.12154
1449.06147	0.12207
1447.77570	0.12243
1446.48993	0.12259
1445.20416	0.12262
1443.91839	0.12255
1442.63262	0.12234
1441.34685	0.12192
1440.06109	0.12139
1438.77532	0.12095
1437.48955	0.12073
1436.20378	0.12063
1434.91801	0.12066
1433.63224	0.12094
1432.34647	0.12155
1431.06070	0.12245
1429.77494	0.12358
1428.48917	0.12488
1427.20340	0.12634
1425.91763	0.12795
1424.63186	0.12962
1423.34609	0.13126
1422.06032	0.13289
1420.77455	0.13455
1419.48878	0.13612
1418.20302	0.13743
1416.91725	0.13845
1415.63148	0.13926
1414.34571	0.13991
1413.05994	0.14034
1411.77417	0.14052
1410.48840	0.14044
1409.20263	0.14006
1407.91687	0.13938
1406.63110	0.13839
1405.34533	0.13706
1404.05956	0.13541
1402.77379	0.13349
1401.48802	0.13137
1400.20225	0.12905
1398.91648	0.12649
1397.63071	0.12379
1396.34495	0.12109
1395.05918	0.11842
1393.77341	0.11572
1392.48764	0.11295
1391.20187	0.11020
1389.91610	0.10754
1388.63033	0.10495
1387.34456	0.10241
1386.05880	0.09992
1384.77303	0.09749
1383.48726	0.09510
1382.20149	0.09267
1380.91572	0.09017
1379.62995	0.08763
1378.34418	0.08508
1377.05841	0.08255
1375.77264	0.08001
1374.48688	0.07742
1373.20111	0.07473
1371.91534	0.07197
1370.62957	0.06929
1369.34380	0.06677
1368.05803	0.06441
1366.77226	0.06217
1365.48649	0.06004
1364.20073	0.05803
1362.91496	0.05610
1361.62919	0.05422
1360.34342	0.05242
1359.05765	0.05076
1357.77188	0.04926
1356.48611	0.04791
1355.20034	0.04667
1353.91457	0.04552
1352.62881	0.04446
1351.34304	0.04348
1350.05727	0.04256
1348.77150	0.04169
1347.48573	0.04087
1346.19996	0.04011
1344.91419	0.03939
1343.62842	0.03871
1342.34266	0.03807
1341.05689	0.03749
1339.77112	0.03694
1338.48535	0.03639
1337.19958	0.03584
1335.91381	0.03532
1334.62804	0.03484
1333.34227	0.03439
1332.05650	0.03396
1330.77074	0.03354
1329.48497	0.03314
1328.19920	0.03281
1326.91343	0.03253
1325.62766	0.03227
1324.34189	0.03202
1323.05612	0.03174
1321.77035	0.03143
1320.48459	0.03112
1319.19882	0.03081
1317.91305	0.03049
1316.62728	0.03016
1315.34151	0.02982
1314.05574	0.02951
1312.76997	0.02925
1311.48420	0.02905
1310.19843	0.02887
1308.91267	0.02867
1307.62690	0.02843
1306.34113	0.02816
1305.05536	0.02789
1303.76959	0.02765
1302.48382	0.02746
1301.19805	0.02730
1299.91228	0.02714
1298.62652	0.02696
1297.34075	0.02677
1296.05498	0.02659
1294.76921	0.02642
1293.48344	0.02624
1292.19767	0.02604
1290.91190	0.02583
1289.62613	0.02563
1288.34036	0.02547
1287.05460	0.02533
1285.76883	0.02520
1284.48306	0.02508
1283.19729	0.02494
1281.91152	0.02479
1280.62575	0.02462
1279.33998	0.02446
1278.05421	0.02432
1276.76845	0.02421
1275.48268	0.02411
1274.19691	0.02399
1272.91114	0.02384
1271.62537	0.02369
1270.33960	0.02357
1269.05383	0.02348
1267.76806	0.02337
1266.48229	0.02323
1265.19653	0.02304
1263.91076	0.02287
1262.62499	0.02273
1261.33922	0.02265
1260.05345	0.02258
1258.76768	0.02249
1257.48191	0.02237
1256.19614	0.02221
1254.91037	0.02206
1253.62461	0.02197
1252.33884	0.02194
1251.05307	0.02193
1249.76730	0.02190
1248.48153	0.02186
1247.19576	0.02181
1245.90999	0.02178
1244.62422	0.02173
1243.33846	0.02163
1242.05269	0.02149
1240.76692	0.02133
1239.48115	0.02119
1238.19538	0.02109
1236.90961	0.02102
1235.62384	0.02093
1234.33807	0.02080
1233.05230	0.02066
1231.76654	0.02054
1230.48077	0.02043
1229.19500	0.02034
1227.90923	0.02024
1226.62346	0.02015
1225.33769	0.02006
1224.05192	0.01995
1222.76615	0.01982
1221.48039	0.01969
1220.19462	0.01958
1218.90885	0.01951
1217.62308	0.01946
1216.33731	0.01940
1215.05154	0.01933
1213.76577	0.01926
1212.48000	0.01920
1211.19423	0.01916
1209.90847	0.01912
1208.62270	0.01904
1207.33693	0.01893
1206.05116	0.01882
1204.76539	0.01872
1203.47962	0.01866
1202.19385	0.01866
1200.90808	0.01872
1199.62232	0.01881
1198.33655	0.01881
1197.05078	0.01874
1195.76501	0.01867
1194.47924	0.01860
1193.19347	0.01854
1191.90770	0.01847
1190.62193	0.01840
1189.33616	0.01834
1188.05040	0.01830
1186.76463	0.01828
1185.47886	0.01830
1184.19309	0.01836
1182.90732	0.01844
1181.62155	0.01848
1180.33578	0.01847
1179.05001	0.01844
1177.76425	0.01844
1176.47848	0.01850
1175.19271	0.01863
1173.90694	0.01883
1172.62117	0.01905
1171.33540	0.01925
1170.04963	0.01937
1168.76386	0.01943
1167.47809	0.01945
1166.19233	0.01950
1164.90656	0.01960
1163.62079	0.01978
1162.33502	0.01998
1161.04925	0.02020
1159.76348	0.02044
1158.47771	0.02070
1157.19194	0.02097
1155.90618	0.02123
1154.62041	0.02151
1153.33464	0.02185
1152.04887	0.02225
1150.76310	0.02267
1149.47733	0.02313
1148.19156	0.02368
1146.90579	0.02434
1145.62002	0.02509
1144.33426	0.02589
1143.04849	0.02675
1141.76272	0.02771
1140.47695	0.02879
1139.19118	0.03000
1137.90541	0.03136
1136.61964	0.03289
1135.33387	0.03460
1134.04811	0.03650
1132.76234	0.03863
1131.47657	0.04102
1130.19080	0.04368
1128.90503	0.04659
1127.61926	0.04975
1126.33349	0.05317
1125.04772	0.05687
1123.76195	0.06080
1122.47619	0.06488
1121.19042	0.06902
1119.90465	0.07322
1118.61888	0.07749
1117.33311	0.08185
1116.04734	0.08626
1114.76157	0.09068
1113.47580	0.09508
1112.19004	0.09942
1110.90427	0.10370
1109.61850	0.10785
1108.33273	0.11183
1107.04696	0.11560
1105.76119	0.11921
1104.47542	0.12277
1103.18965	0.12630
1101.90388	0.12979
1100.61812	0.13318
1099.33235	0.13647
1098.04658	0.13964
1096.76081	0.14271
1095.47504	0.14564
1094.18927	0.14845
1092.90350	0.15116
1091.61773	0.15374
1090.33197	0.15618
1089.04620	0.15848
1087.76043	0.16071
1086.47466	0.16295
1085.18889	0.16524
1083.90312	0.16760
1082.61735	0.17003
1081.33158	0.17259
1080.04581	0.17537
1078.76005	0.17839
1077.47428	0.18158
1076.18851	0.18491
1074.90274	0.18836
1073.61697	0.19201
1072.33120	0.19585
1071.04543	0.19983
1069.75966	0.20393
1068.47390	0.20818
1067.18813	0.21265
1065.90236	0.21735
1064.61659	0.22221
1063.33082	0.22715
1062.04505	0.23213
1060.75928	0.23713
1059.47351	0.24216
1058.18774	0.24712
1056.90198	0.25195
1055.61621	0.25661
1054.33044	0.26115
1053.04467	0.26567
1051.75890	0.27029
1050.47313	0.27509
1049.18736	0.28008
1047.90159	0.28521
1046.61583	0.29047
1045.33006	0.29585
1044.04429	0.30137
1042.75852	0.30696
1041.47275	0.31255
1040.18698	0.31815
1038.90121	0.32384
1037.61544	0.32973
1036.32967	0.33581
1035.04391	0.34193
1033.75814	0.34788
1032.47237	0.35350
1031.18660	0.35873
1029.90083	0.36360
1028.61506	0.36805
1027.32929	0.37201
1026.04352	0.37541
1024.75775	0.37829
1023.47199	0.38070
1022.18622	0.38259
1020.90045	0.38388
1019.61468	0.38447
1018.32891	0.38431
1017.04314	0.38330
1015.75737	0.38139
1014.47160	0.37858
1013.18584	0.37488
1011.90007	0.37031
1010.61430	0.36494
1009.32853	0.35882
1008.04276	0.35198
1006.75699	0.34441
1005.47122	0.33608
1004.18545	0.32702
1002.89968	0.31729
1001.61392	0.30700
1000.32815	0.29627
999.04238	0.28524
997.75661	0.27400
996.47084	0.26270
995.18507	0.25143
993.89930	0.24030
992.61353	0.22937
991.32777	0.21873
990.04200	0.20847
988.75623	0.19864
987.47046	0.18931
986.18469	0.18050
984.89892	0.17221
983.61315	0.16438
982.32738	0.15697
981.04161	0.15001
979.75585	0.14357
978.47008	0.13771
977.18431	0.13243
975.89854	0.12773
974.61277	0.12366
973.32700	0.12032
972.04123	0.11780
970.75546	0.11610
969.46970	0.11516
968.18393	0.11489
966.89816	0.11525
965.61239	0.11617
964.32662	0.11752
963.04085	0.11902
961.75508	0.12029
960.46931	0.12093
959.18354	0.12062
957.89778	0.11927
956.61201	0.11697
955.32624	0.11398
954.04047	0.11058
952.75470	0.10704
951.46893	0.10354
950.18316	0.10016
948.89739	0.09687
947.61163	0.09367
946.32586	0.09055
945.04009	0.08756
943.75432	0.08472
942.46855	0.08198
941.18278	0.07936
939.89701	0.07688
938.61124	0.07463
937.32547	0.07265
936.03971	0.07091
934.75394	0.06932
933.46817	0.06777
932.18240	0.06626
930.89663	0.06480
929.61086	0.06347
928.32509	0.06227
927.03932	0.06120
925.75356	0.06027
924.46779	0.05941
923.18202	0.05856
921.89625	0.05767
920.61048	0.05675
919.32471	0.05587
918.03894	0.05505
916.75317	0.05430
915.46740	0.05361
914.18164	0.05300
912.89587	0.05245
911.61010	0.05194
910.32433	0.05149
909.03856	0.05114
907.75279	0.05086
906.46702	0.05054
905.18125	0.05011
903.89549	0.04960
902.60972	0.04907
901.32395	0.04855
900.03818	0.04807
898.75241	0.04768
897.46664	0.04740
896.18087	0.04722
894.89510	0.04708
893.60933	0.04700
892.32357	0.04704
891.03780	0.04731
889.75203	0.04781
888.46626	0.04856
887.18049	0.04965
885.89472	0.05134
884.60895	0.05387
883.32318	0.05728
882.03742	0.06127
880.75165	0.06525
879.46588	0.06864
878.18011	0.07126
876.89434	0.07343
875.60857	0.07563
874.32280	0.07793
873.03703	0.07989
871.75126	0.08096
870.46550	0.08084
869.17973	0.07960
867.89396	0.07745
866.60819	0.07458
865.32242	0.07127
864.03665	0.06783
862.75088	0.06458
861.46511	0.06165
860.17935	0.05903
858.89358	0.05671
857.60781	0.05469
856.32204	0.05300
855.03627	0.05163
853.75050	0.05049
852.46473	0.04954
851.17896	0.04874
849.89319	0.04804
848.60743	0.04742
847.32166	0.04685
846.03589	0.04635
844.75012	0.04595
843.46435	0.04562
842.17858	0.04527
840.89281	0.04484
839.60704	0.04435
838.32128	0.04386
837.03551	0.04345
835.74974	0.04315
834.46397	0.04292
833.17820	0.04269
831.89243	0.04243
830.60666	0.04218
829.32089	0.04201
828.03512	0.04193
826.74936	0.04189
825.46359	0.04180
824.17782	0.04163
822.89205	0.04141
821.60628	0.04121
820.32051	0.04110
819.03474	0.04108
817.74897	0.04109
816.46321	0.04107
815.17744	0.04100
813.89167	0.04091
812.60590	0.04084
811.32013	0.04080
810.03436	0.04073
808.74859	0.04057
807.46282	0.04033
806.17705	0.04006
804.89129	0.03985
803.60552	0.03972
802.31975	0.03968
801.03398	0.03970
799.74821	0.03976
798.46244	0.03982
797.17667	0.03982
795.89090	0.03972
794.60513	0.03954
793.31937	0.03932
792.03360	0.03917
790.74783	0.03914
789.46206	0.03921
788.17629	0.03931
786.89052	0.03935
785.60475	0.03931
784.31898	0.03922
783.03322	0.03911
781.74745	0.03902
780.46168	0.03890
779.17591	0.03876
777.89014	0.03864
776.60437	0.03860
775.31860	0.03864
774.03283	0.03867
772.74706	0.03869
771.46130	0.03868
770.17553	0.03867
768.88976	0.03867
767.60399	0.03871
766.31822	0.03880
765.03245	0.03890
763.74668	0.03893
762.46091	0.03886
761.17515	0.03875
759.88938	0.03870
758.60361	0.03882
757.31784	0.03910
756.03207	0.03941
754.74630	0.03963
753.46053	0.03972
752.17476	0.03968
750.88899	0.03954
749.60323	0.03934
748.31746	0.03914
747.03169	0.03905
745.74592	0.03905
744.46015	0.03903
743.17438	0.03887
741.88861	0.03858
740.60284	0.03831
739.31708	0.03816
738.03131	0.03812
736.74554	0.03810
735.45977	0.03807
734.17400	0.03812
732.88823	0.03829
731.60246	0.03853
730.31669	0.03867
729.03092	0.03861
727.74516	0.03842
726.45939	0.03826
725.17362	0.03829
723.88785	0.03873
722.60208	0.03870
721.31631	0.03823
720.03054	0.03778
718.74477	0.03756
717.45901	0.03755
716.17324	0.03768
714.88747	0.03793
713.60170	0.03822
712.31593	0.03848
711.03016	0.03865
709.74439	0.03872
708.45862	0.03875
707.17285	0.03877
705.88709	0.03883
704.60132	0.03889
703.31555	0.03894
702.02978	0.03895
700.74401	0.03894
699.45824	0.03890
698.17247	0.03878
696.88670	0.03861
695.60094	0.03845
694.31517	0.03832
693.02940	0.03825
691.74363	0.03819
690.45786	0.03812
689.17209	0.03806
687.88632	0.03800
686.60055	0.03795
685.31478	0.03791
684.02902	0.03790
682.74325	0.03792
681.45748	0.03797
680.17171	0.03806
678.88594	0.03818
677.60017	0.03834
676.31440	0.03851
675.02863	0.03859
673.74287	0.03837
672.45710	0.03761
671.17133	0.03636
669.88556	0.03535
668.59979	0.03550
667.31402	0.03659
666.02825	0.03744
664.74248	0.03800
663.45671	0.03832
662.17095	0.03828
660.88518	0.03802
659.59941	0.03777
658.31364	0.03763
657.02787	0.03758
655.74210	0.03753
654.45633	0.03744
653.17056	0.03730
651.88480	0.03712
650.59903	0.03698
649.31326	0.03694
648.02749	0.03704
646.74172	0.03722
645.45595	0.03739
644.17018	0.03754
642.88441	0.03771
641.59864	0.03792
640.31288	0.03819
639.02711	0.03851
637.74134	0.03887
636.45557	0.03922
635.16980	0.03958
633.88403	0.03995
632.59826	0.04036
631.31249	0.04076
630.02673	0.04109
628.74096	0.04159
627.45519	0.04261
626.16942	0.04299
624.88365	0.04324
623.59788	0.04410
622.31211	0.04586
621.02634	0.04858
619.74057	0.05245
618.45481	0.05731
617.16904	0.06221
615.88327	0.06602
614.59750	0.06872
613.31173	0.07151
612.02596	0.07593
610.74019	0.08271
609.45442	0.09137
608.16866	0.10062
606.88289	0.10927
605.59712	0.11653
604.31135	0.12190
603.02558	0.12525
601.73981	0.12685
600.45404	0.12703
599.16827	0.12586
597.88250	0.12333
596.59674	0.11972
595.31097	0.11567
594.02520	0.11182
592.73943	0.10859
591.45366	0.10609
590.16789	0.10433
588.88212	0.10339
587.59635	0.10335
586.31059	0.10417
585.02482	0.10574
583.73905	0.10797
582.45328	0.11082
581.16751	0.11418
579.88174	0.11790
578.59597	0.12177
577.31020	0.12568
576.02443	0.12951
574.73867	0.13318
573.45290	0.13665
572.16713	0.14004
570.88136	0.14366
569.59559	0.14791
568.30982	0.15302
567.02405	0.15889
565.73828	0.16509
564.45251	0.17091
563.16675	0.17549
561.88098	0.17804
560.59521	0.17799
559.30944	0.17519
558.02367	0.16984
556.73790	0.16249
555.45213	0.15382
554.16636	0.14451
552.88060	0.13514
551.59483	0.12612
550.30906	0.11772
549.02329	0.11009
547.73752	0.10334
546.45175	0.09745
545.16598	0.09226
543.88021	0.08757
542.59444	0.08322
541.30868	0.07923
540.02291	0.07565
538.73714	0.07256
537.45137	0.06991
536.16560	0.06759
534.87983	0.06546
533.59406	0.06342
532.30829	0.06141
531.02253	0.05946
529.73676	0.05760
528.45099	0.05592
527.16522	0.05443
525.87945	0.05312
524.59368	0.05195
523.30791	0.05089
522.02214	0.04988
520.73637	0.04879
519.45061	0.04759
518.16484	0.04633
516.87907	0.04518
515.59330	0.04425
514.30753	0.04355
513.02176	0.04299
511.73599	0.04245
510.45022	0.04187
509.16446	0.04129
507.87869	0.04074
506.59292	0.04021
505.30715	0.03963
504.02138	0.03898
502.73561	0.03830
501.44984	0.03766
500.16407	0.03710
498.87830	0.03662
497.59254	0.03620
496.30677	0.03584
495.02100	0.03551
493.73523	0.03518
492.44946	0.03486
491.16369	0.03455
489.87792	0.03429
488.59215	0.03411
487.30639	0.03397
486.02062	0.03386
484.73485	0.03378
483.44908	0.03380
482.16331	0.03391
480.87754	0.03404
479.59177	0.03412
478.30600	0.03418
477.02023	0.03431
475.73447	0.03456
474.44870	0.03490
473.16293	0.03522
471.87716	0.03546
470.59139	0.03556
469.30562	0.03552
468.01985	0.03532
466.73408	0.03496
465.44832	0.03449
464.16255	0.03400
462.87678	0.03354
461.59101	0.03314
460.30524	0.03277
459.01947	0.03241
457.73370	0.03203
456.44793	0.03162
455.16216	0.03119
453.87640	0.03077
452.59063	0.03036
451.30486	0.02999
450.01909	0.02968
448.73332	0.02944
447.44755	0.02924
446.16178	0.02907
444.87601	0.02892
443.59025	0.02879
442.30448	0.02866
441.01871	0.02852
439.73294	0.02840
438.44717	0.02831
437.16140	0.02826
435.87563	0.02816
434.58986	0.02801
433.30409	0.02781
432.01833	0.02761
430.73256	0.02745
429.44679	0.02733
428.16102	0.02722
426.87525	0.02708
425.58948	0.02689
424.30371	0.02664
423.01794	0.02635
421.73218	0.02608
420.44641	0.02592
419.16064	0.02586
417.87487	0.02587
416.58910	0.02591
415.30333	0.02596
414.01756	0.02598
412.73179	0.02596
411.44602	0.02590
410.16026	0.02583
408.87449	0.02577
407.58872	0.02572
406.30295	0.02572
405.01718	0.02576
403.73141	0.02584
402.44564	0.02592
401.15987	0.02603
399.87411	0.02618
