3997.45528	0.05080
3996.16951	0.05115
3994.88374	0.05164
3993.59798	0.05213
3992.31221	0.05250
3991.02644	0.05267
3989.74067	0.05261
3988.45490	0.05239
3987.16913	0.05211
3985.88336	0.05178
3984.59759	0.05134
3983.31183	0.05079
3982.02606	0.05030
3980.74029	0.05005
3979.45452	0.05002
3978.16875	0.05010
3976.88298	0.05025
3975.59721	0.05048
3974.31144	0.05077
3973.02567	0.05104
3971.73991	0.05118
3970.45414	0.05110
3969.16837	0.05081
3967.88260	0.05048
3966.59683	0.05031
3965.31106	0.05036
3964.02529	0.05043
3962.73952	0.05029
3961.45376	0.04995
3960.16799	0.04960
3958.88222	0.04938
3957.59645	0.04927
3956.31068	0.04919
3955.02491	0.04917
3953.73914	0.04934
3952.45337	0.04978
3951.16760	0.05035
3949.88184	0.05069
3948.59607	0.05051
3947.31030	0.04981
3946.02453	0.04891
3944.73876	0.04813
3943.45299	0.04763
3942.16722	0.04739
3940.88145	0.04725
3939.59569	0.04705
3938.30992	0.04683
3937.02415	0.04678
3935.73838	0.04702
3934.45261	0.04749
3933.16684	0.04798
3931.88107	0.04831
3930.59530	0.04842
3929.30953	0.04840
3928.02377	0.04850
3926.73800	0.04887
3925.45223	0.04944
3924.16646	0.04994
3922.88069	0.05010
3921.59492	0.04982
3920.30915	0.04916
3919.02338	0.04836
3917.73762	0.04767
3916.45185	0.04720
3915.16608	0.04695
3913.88031	0.04691
3912.59454	0.04705
3911.30877	0.04724
3910.02300	0.04739
3908.73723	0.04760
3907.45146	0.04804
3906.16570	0.04869
3904.87993	0.04930
3903.59416	0.04971
3902.30839	0.04992
3901.02262	0.05002
3899.73685	0.05001
3898.45108	0.04983
3897.16531	0.04949
3895.87955	0.04919
3894.59378	0.04912
3893.30801	0.04927
3892.02224	0.04940
3890.73647	0.04927
3889.45070	0.04884
3888.16493	0.04821
3886.87916	0.04750
3885.59339	0.04699
3884.30763	0.04695
3883.02186	0.04730
3881.73609	0.04771
3880.45032	0.04797
3879.16455	0.04820
3877.87878	0.04845
3876.59301	0.04853
3875.30724	0.04823
3874.02148	0.04770
3872.73571	0.04733
3871.44994	0.04732
3870.16417	0.04755
3868.87840	0.04774
3867.59263	0.04776
3866.30686	0.04760
3865.02109	0.04731
3863.73532	0.04694
3862.44956	0.04653
3861.16379	0.04618
3859.87802	0.04611
3858.59225	0.04652
3857.30648	0.04737
3856.02071	0.04830
3854.73494	0.04886
3853.44917	0.04896
3852.16341	0.04890
3850.87764	0.04909
3849.59187	0.04950
3848.30610	0.04974
3847.02033	0.04945
3845.73456	0.04867
3844.44879	0.04766
3843.16302	0.04670
3841.87725	0.04592
3840.59149	0.04540
3839.30572	0.04521
3838.01995	0.04534
3836.73418	0.04574
3835.44841	0.04638
3834.16264	0.04716
3832.87687	0.04786
3831.59110	0.04820
3830.30534	0.04804
3829.01957	0.04757
3827.73380	0.04720
3826.44803	0.04725
3825.16226	0.04766
3823.87649	0.04808
3822.59072	0.04814
3821.30495	0.04783
3820.01918	0.04746
3818.73342	0.04730
3817.44765	0.04735
3816.16188	0.04739
3814.87611	0.04733
3813.59034	0.04728
3812.30457	0.04748
3811.01880	0.04794
3809.73303	0.04840
3808.44726	0.04856
3807.16150	0.04836
3805.87573	0.04810
3804.58996	0.04803
3803.30419	0.04807
3802.01842	0.04784
3800.73265	0.04708
3799.44688	0.04604
3798.16111	0.04527
3796.87535	0.04514
3795.58958	0.04555
3794.30381	0.04608
3793.01804	0.04633
3791.73227	0.04613
3790.44650	0.04549
3789.16073	0.04462
3787.87496	0.04386
3786.58919	0.04344
3785.30343	0.04342
3784.01766	0.04372
3782.73189	0.04421
3781.44612	0.04474
3780.16035	0.04516
3778.87458	0.04546
3777.58881	0.04579
3776.30304	0.04613
3775.01728	0.04619
3773.73151	0.04574
3772.44574	0.04494
3771.15997	0.04430
3769.87420	0.04426
3768.58843	0.04480
3767.30266	0.04547
3766.01689	0.04575
3764.73112	0.04542
3763.44536	0.04480
3762.15959	0.04439
3760.87382	0.04434
3759.58805	0.04437
3758.30228	0.04417
3757.01651	0.04388
3755.73074	0.04388
3754.44497	0.04421
3753.15921	0.04439
3751.87344	0.04400
3750.58767	0.04327
3749.30190	0.04292
3748.01613	0.04330
3746.73036	0.04400
3745.44459	0.04433
3744.15882	0.04413
3742.87305	0.04390
3741.58729	0.04417
3740.30152	0.04495
3739.01575	0.04583
3737.72998	0.04639
3736.44421	0.04655
3735.15844	0.04650
3733.87267	0.04638
3732.58690	0.04613
3731.30114	0.04557
3730.01537	0.04468
3728.72960	0.04366
3727.44383	0.04282
3726.15806	0.04229
3724.87229	0.04196
3723.58652	0.04172
3722.30075	0.04153
3721.01498	0.04142
3719.72922	0.04141
3718.44345	0.04157
3717.15768	0.04207
3715.87191	0.04300
3714.58614	0.04403
3713.30037	0.04456
3712.01460	0.04427
3710.72883	0.04346
3709.44307	0.04281
3708.15730	0.04277
3706.87153	0.04319
3705.58576	0.04355
3704.29999	0.04349
3703.01422	0.04308
3701.72845	0.04267
3700.44268	0.04237
3699.15691	0.04203
3697.87115	0.04163
3696.58538	0.04141
3695.29961	0.04171
3694.01384	0.04250
3692.72807	0.04338
3691.44230	0.04389
3690.15653	0.04382
3688.87076	0.04328
3687.58500	0.04255
3686.29923	0.04193
3685.01346	0.04165
3683.72769	0.04187
3682.44192	0.04259
3681.15615	0.04348
3679.87038	0.04410
3678.58461	0.04429
3677.29884	0.04425
3676.01308	0.04423
3674.72731	0.04417
3673.44154	0.04391
3672.15577	0.04355
3670.87000	0.04335
3669.58423	0.04339
3668.29846	0.04338
3667.01269	0.04307
3665.72693	0.04252
3664.44116	0.04202
3663.15539	0.04174
3661.86962	0.04166
3660.58385	0.04173
3659.29808	0.04200
3658.01231	0.04238
3656.72654	0.04276
3655.44077	0.04321
3654.15501	0.04398
3652.86924	0.04508
3651.58347	0.04599
3650.29770	0.04602
3649.01193	0.04507
3647.72616	0.04379
3646.44039	0.04292
3645.15462	0.04264
3643.86886	0.04266
3642.58309	0.04277
3641.29732	0.04305
3640.01155	0.04360
3638.72578	0.04425
3637.44001	0.04466
3636.15424	0.04455
3634.86847	0.04395
3633.58270	0.04319
3632.29694	0.04270
3631.01117	0.04270
3629.72540	0.04305
3628.43963	0.04335
3627.15386	0.04349
3625.86809	0.04372
3624.58232	0.04433
3623.29655	0.04524
3622.01079	0.04605
3620.72502	0.04645
3619.43925	0.04652
3618.15348	0.04642
3616.86771	0.04611
3615.58194	0.04551
3614.29617	0.04488
3613.01040	0.04470
3611.72463	0.04522
3610.43887	0.04617
3609.15310	0.04695
3607.86733	0.04716
3606.58156	0.04691
3605.29579	0.04667
3604.01002	0.04686
3602.72425	0.04758
3601.43848	0.04850
3600.15272	0.04913
3598.86695	0.04918
3597.58118	0.04872
3596.29541	0.04809
3595.00964	0.04765
3593.72387	0.04753
3592.43810	0.04772
3591.15233	0.04813
3589.86656	0.04864
3588.58080	0.04906
3587.29503	0.04918
3586.00926	0.04894
3584.72349	0.04855
3583.43772	0.04831
3582.15195	0.04833
3580.86618	0.04857
3579.58041	0.04892
3578.29464	0.04928
3577.00888	0.04956
3575.72311	0.04980
3574.43734	0.05021
3573.15157	0.05109
3571.86580	0.05233
3570.58003	0.05341
3569.29426	0.05384
3568.00849	0.05376
3566.72273	0.05375
3565.43696	0.05415
3564.15119	0.05468
3562.86542	0.05481
3561.57965	0.05440
3560.29388	0.05381
3559.00811	0.05353
3557.72234	0.05364
3556.43657	0.05388
3555.15081	0.05389
3553.86504	0.05363
3552.57927	0.05334
3551.29350	0.05329
3550.00773	0.05354
3548.72196	0.05398
3547.43619	0.05450
3546.15042	0.05509
3544.86466	0.05576
3543.57889	0.05652
3542.29312	0.05736
3541.00735	0.05817
3539.72158	0.05877
3538.43581	0.05901
3537.15004	0.05893
3535.86427	0.05875
3534.57850	0.05871
3533.29274	0.05889
3532.00697	0.05910
3530.72120	0.05911
3529.43543	0.05889
3528.14966	0.05863
3526.86389	0.05846
3525.57812	0.05832
3524.29235	0.05813
3523.00659	0.05803
3521.72082	0.05822
3520.43505	0.05874
3519.14928	0.05931
3517.86351	0.05959
3516.57774	0.05949
3515.29197	0.05933
3514.00620	0.05943
3512.72043	0.05980
3511.43467	0.06017
3510.14890	0.06029
3508.86313	0.06023
3507.57736	0.06027
3506.29159	0.06066
3505.00582	0.06135
3503.72005	0.06197
3502.43428	0.06210
3501.14852	0.06169
3499.86275	0.06108
3498.57698	0.06075
3497.29121	0.06091
3496.00544	0.06135
3494.71967	0.06175
3493.43390	0.06192
3492.14813	0.06195
3490.86236	0.06204
3489.57660	0.06237
3488.29083	0.06299
3487.00506	0.06371
3485.71929	0.06423
3484.43352	0.06439
3483.14775	0.06430
3481.86198	0.06428
3480.57621	0.06455
3479.29045	0.06500
3478.00468	0.06543
3476.71891	0.06568
3475.43314	0.06581
3474.14737	0.06589
3472.86160	0.06596
3471.57583	0.06603
3470.29006	0.06612
3469.00429	0.06623
3467.71853	0.06629
3466.43276	0.06625
3465.14699	0.06611
3463.86122	0.06593
3462.57545	0.06576
3461.28968	0.06567
3460.00391	0.06572
3458.71814	0.06589
3457.43238	0.06607
3456.14661	0.06612
3454.86084	0.06606
3453.57507	0.06606
3452.28930	0.06629
3451.00353	0.06681
3449.71776	0.06754
3448.43199	0.06834
3447.14622	0.06903
3445.86046	0.06947
3444.57469	0.06963
3443.28892	0.06961
3442.00315	0.06956
3440.71738	0.06962
3439.43161	0.06982
3438.14584	0.07004
3436.86007	0.07015
3435.57431	0.07005
3434.28854	0.06979
3433.00277	0.06945
3431.71700	0.06916
3430.43123	0.06899
3429.14546	0.06892
3427.85969	0.06885
3426.57392	0.06880
3425.28815	0.06889
3424.00239	0.06923
3422.71662	0.06962
3421.43085	0.06975
3420.14508	0.06950
3418.85931	0.06915
3417.57354	0.06910
3416.28777	0.06944
3415.00200	0.06994
3413.71624	0.07031
3412.43047	0.07048
3411.14470	0.07051
3409.85893	0.07048
3408.57316	0.07043
3407.28739	0.07044
3406.00162	0.07063
3404.71585	0.07106
3403.43008	0.07174
3402.14432	0.07259
3400.85855	0.07341
3399.57278	0.07387
3398.28701	0.07383
3397.00124	0.07346
3395.71547	0.07308
3394.42970	0.07295
3393.14393	0.07311
3391.85817	0.07338
3390.57240	0.07354
3389.28663	0.07346
3388.00086	0.07319
3386.71509	0.07295
3385.42932	0.07296
3384.14355	0.07331
3382.85778	0.07392
3381.57201	0.07455
3380.28625	0.07496
3379.00048	0.07503
3377.71471	0.07479
3376.42894	0.07441
3375.14317	0.07404
3373.85740	0.07380
3372.57163	0.07374
3371.28586	0.07394
3370.00010	0.07438
3368.71433	0.07488
3367.42856	0.07521
3366.14279	0.07526
3364.85702	0.07513
3363.57125	0.07498
3362.28548	0.07490
3360.99971	0.07483
3359.71394	0.07463
3358.42818	0.07437
3357.14241	0.07437
3355.85664	0.07487
3354.57087	0.07570
3353.28510	0.07638
3351.99933	0.07655
3350.71356	0.07621
3349.42779	0.07561
3348.14202	0.07506
3346.85626	0.07481
3345.57049	0.07496
3344.28472	0.07536
3342.99895	0.07567
3341.71318	0.07568
3340.42741	0.07546
3339.14164	0.07521
3337.85587	0.07513
3336.57011	0.07529
3335.28434	0.07556
3333.99857	0.07572
3332.71280	0.07559
3331.42703	0.07534
3330.14126	0.07524
3328.85549	0.07539
3327.56972	0.07560
3326.28395	0.07568
3324.99819	0.07564
3323.71242	0.07557
3322.42665	0.07552
3321.14088	0.07547
3319.85511	0.07545
3318.56934	0.07558
3317.28357	0.07594
3315.99780	0.07649
3314.71204	0.07693
3313.42627	0.07696
3312.14050	0.07658
3310.85473	0.07617
3309.56896	0.07606
3308.28319	0.07623
3306.99742	0.07643
3305.71165	0.07644
3304.42588	0.07626
3303.14012	0.07607
3301.85435	0.07610
3300.56858	0.07641
3299.28281	0.07683
3297.99704	0.07706
3296.71127	0.07691
3295.42550	0.07648
3294.13973	0.07608
3292.85397	0.07593
3291.56820	0.07601
3290.28243	0.07617
3288.99666	0.07632
3287.71089	0.07649
3286.42512	0.07671
3285.13935	0.07690
3283.85358	0.07694
3282.56781	0.07685
3281.28205	0.07670
3279.99628	0.07660
3278.71051	0.07664
3277.42474	0.07688
3276.13897	0.07727
3274.85320	0.07758
3273.56743	0.07754
3272.28166	0.07709
3270.99590	0.07644
3269.71013	0.07592
3268.42436	0.07570
3267.13859	0.07571
3265.85282	0.07569
3264.56705	0.07544
3263.28128	0.07496
3261.99551	0.07446
3260.70974	0.07424
3259.42398	0.07447
3258.13821	0.07507
3256.85244	0.07570
3255.56667	0.07600
3254.28090	0.07584
3252.99513	0.07537
3251.70936	0.07490
3250.42359	0.07458
3249.13783	0.07442
3247.85206	0.07431
3246.56629	0.07420
3245.28052	0.07411
3243.99475	0.07406
3242.70898	0.07398
3241.42321	0.07381
3240.13744	0.07357
3238.85167	0.07337
3237.56591	0.07328
3236.28014	0.07329
3234.99437	0.07332
3233.70860	0.07331
3232.42283	0.07332
3231.13706	0.07343
3229.85129	0.07360
3228.56552	0.07366
3227.27976	0.07347
3225.99399	0.07310
3224.70822	0.07274
3223.42245	0.07249
3222.13668	0.07232
3220.85091	0.07209
3219.56514	0.07175
3218.27937	0.07138
3216.99360	0.07116
3215.70784	0.07122
3214.42207	0.07143
3213.13630	0.07152
3211.85053	0.07135
3210.56476	0.07108
3209.27899	0.07104
3207.99322	0.07136
3206.70745	0.07191
3205.42169	0.07239
3204.13592	0.07254
3202.85015	0.07232
3201.56438	0.07191
3200.27861	0.07149
3198.99284	0.07113
3197.70707	0.07080
3196.42130	0.07058
3195.13553	0.07054
3193.84977	0.07063
3192.56400	0.07059
3191.27823	0.07016
3189.99246	0.06939
3188.70669	0.06864
3187.42092	0.06822
3186.13515	0.06808
3184.84938	0.06797
3183.56362	0.06780
3182.27785	0.06769
3180.99208	0.06776
3179.70631	0.06797
3178.42054	0.06817
3177.13477	0.06817
3175.84900	0.06786
3174.56323	0.06735
3173.27746	0.06692
3171.99170	0.06685
3170.70593	0.06711
3169.42016	0.06742
3168.13439	0.06744
3166.84862	0.06711
3165.56285	0.06666
3164.27708	0.06631
3162.99131	0.06607
3161.70555	0.06574
3160.41978	0.06528
3159.13401	0.06489
3157.84824	0.06487
3156.56247	0.06520
3155.27670	0.06563
3153.99093	0.06585
3152.70516	0.06579
3151.41939	0.06554
3150.13363	0.06524
3148.84786	0.06495
3147.56209	0.06470
3146.27632	0.06446
3144.99055	0.06424
3143.70478	0.06409
3142.41901	0.06406
3141.13324	0.06406
3139.84748	0.06393
3138.56171	0.06361
3137.27594	0.06323
3135.99017	0.06299
3134.70440	0.06296
3133.41863	0.06307
3132.13286	0.06321
3130.84709	0.06325
3129.56132	0.06312
3128.27556	0.06284
3126.98979	0.06250
3125.70402	0.06220
3124.41825	0.06196
3123.13248	0.06177
3121.84671	0.06174
3120.56094	0.06195
3119.27517	0.06238
3117.98940	0.06282
3116.70364	0.06305
3115.41787	0.06300
3114.13210	0.06273
3112.84633	0.06236
3111.56056	0.06194
3110.27479	0.06146
3108.98902	0.06095
3107.70325	0.06057
3106.41749	0.06058
3105.13172	0.06103
3103.84595	0.06166
3102.56018	0.06203
3101.27441	0.06196
3099.98864	0.06168
3098.70287	0.06154
3097.41710	0.06165
3096.13133	0.06180
3094.84557	0.06175
3093.55980	0.06149
3092.27403	0.06117
3090.98826	0.06099
3089.70249	0.06104
3088.41672	0.06125
3087.13095	0.06141
3085.84518	0.06142
3084.55942	0.06133
3083.27365	0.06129
3081.98788	0.06131
3080.70211	0.06125
3079.41634	0.06104
3078.13057	0.06074
3076.84480	0.06046
3075.55903	0.06031
3074.27326	0.06030
3072.98750	0.06040
3071.70173	0.06053
3070.41596	0.06061
3069.13019	0.06067
3067.84442	0.06076
3066.55865	0.06083
3065.27288	0.06077
3063.98711	0.06049
3062.70135	0.06011
3061.41558	0.05981
3060.12981	0.05967
3058.84404	0.05956
3057.55827	0.05934
3056.27250	0.05898
3054.98673	0.05862
3053.70096	0.05843
3052.41519	0.05848
3051.12943	0.05873
3049.84366	0.05905
3048.55789	0.05931
3047.27212	0.05938
3045.98635	0.05924
3044.70058	0.05894
3043.41481	0.05859
3042.12904	0.05828
3040.84328	0.05809
3039.55751	0.05804
3038.27174	0.05805
3036.98597	0.05800
3035.70020	0.05785
3034.41443	0.05768
3033.12866	0.05767
3031.84289	0.05790
3030.55712	0.05826
3029.27136	0.05851
3027.98559	0.05844
3026.69982	0.05805
3025.41405	0.05757
3024.12828	0.05724
3022.84251	0.05709
3021.55674	0.05696
3020.27097	0.05679
3018.98521	0.05665
3017.69944	0.05663
3016.41367	0.05665
3015.12790	0.05652
3013.84213	0.05620
3012.55636	0.05580
3011.27059	0.05554
3009.98482	0.05548
3008.69905	0.05550
3007.41329	0.05544
3006.12752	0.05522
3004.84175	0.05494
3003.55598	0.05469
3002.27021	0.05447
3000.98444	0.05423
2999.69867	0.05404
2998.41290	0.05412
2997.12714	0.05441
2995.84137	0.05466
2994.55560	0.05475
2993.26983	0.05474
2991.98406	0.05476
2990.69829	0.05488
2989.41252	0.05509
2988.12675	0.05536
2986.84098	0.05561
2985.55522	0.05580
2984.26945	0.05598
2982.98368	0.05618
2981.69791	0.05634
2980.41214	0.05635
2979.12637	0.05615
2977.84060	0.05585
2976.55483	0.05559
2975.26907	0.05556
2973.98330	0.05582
2972.69753	0.05625
2971.41176	0.05667
2970.12599	0.05695
2968.84022	0.05714
2967.55445	0.05740
2966.26868	0.05788
2964.98291	0.05855
2963.69715	0.05921
2962.41138	0.05964
2961.12561	0.05982
2959.83984	0.05998
2958.55407	0.06032
2957.26830	0.06084
2955.98253	0.06133
2954.69676	0.06157
2953.41100	0.06163
2952.12523	0.06173
2950.83946	0.06193
2949.55369	0.06209
2948.26792	0.06201
2946.98215	0.06178
2945.69638	0.06165
2944.41061	0.06171
2943.12484	0.06182
2941.83908	0.06182
2940.55331	0.06163
2939.26754	0.06136
2937.98177	0.06117
2936.69600	0.06115
2935.41023	0.06134
2934.12446	0.06171
2932.83869	0.06219
2931.55293	0.06265
2930.26716	0.06298
2928.98139	0.06317
2927.69562	0.06330
2926.40985	0.06336
2925.12408	0.06320
2923.83831	0.06277
2922.55254	0.06226
2921.26677	0.06194
2919.98101	0.06188
2918.69524	0.06195
2917.40947	0.06199
2916.12370	0.06190
2914.83793	0.06167
2913.55216	0.06130
2912.26639	0.06084
2910.98062	0.06042
2909.69486	0.06013
2908.40909	0.05995
2907.12332	0.05974
2905.83755	0.05942
2904.55178	0.05900
2903.26601	0.05861
2901.98024	0.05826
2900.69447	0.05796
2899.40870	0.05769
2898.12294	0.05746
2896.83717	0.05722
2895.55140	0.05694
2894.26563	0.05671
2892.97986	0.05667
2891.69409	0.05683
2890.40832	0.05699
2889.12255	0.05698
2887.83678	0.05680
2886.55102	0.05655
2885.26525	0.05632
2883.97948	0.05612
2882.69371	0.05596
2881.40794	0.05589
2880.12217	0.05596
2878.83640	0.05617
2877.55063	0.05642
2876.26487	0.05657
2874.97910	0.05657
2873.69333	0.05649
2872.40756	0.05646
2871.12179	0.05649
2869.83602	0.05644
2868.55025	0.05623
2867.26448	0.05589
2865.97871	0.05556
2864.69295	0.05537
2863.40718	0.05529
2862.12141	0.05520
2860.83564	0.05498
2859.54987	0.05467
2858.26410	0.05442
2856.97833	0.05439
2855.69256	0.05464
2854.40680	0.05504
2853.12103	0.05536
2851.83526	0.05536
2850.54949	0.05500
2849.26372	0.05440
2847.97795	0.05375
2846.69218	0.05316
2845.40641	0.05271
2844.12064	0.05242
2842.83488	0.05230
2841.54911	0.05227
2840.26334	0.05220
2838.97757	0.05197
2837.69180	0.05150
2836.40603	0.05080
2835.12026	0.05005
2833.83449	0.04946
2832.54873	0.04917
2831.26296	0.04912
2829.97719	0.04915
2828.69142	0.04911
2827.40565	0.04896
2826.11988	0.04873
2824.83411	0.04850
2823.54834	0.04838
2822.26257	0.04838
2820.97681	0.04842
2819.69104	0.04843
2818.40527	0.04839
2817.11950	0.04833
2815.83373	0.04821
2814.54796	0.04796
2813.26219	0.04756
2811.97642	0.04714
2810.69066	0.04687
2809.40489	0.04683
2808.11912	0.04695
2806.83335	0.04709
2805.54758	0.04710
2804.26181	0.04694
2802.97604	0.04671
2801.69027	0.04649
2800.40450	0.04630
2799.11874	0.04614
2797.83297	0.04599
2796.54720	0.04585
2795.26143	0.04564
2793.97566	0.04532
2792.68989	0.04494
2791.40412	0.04466
2790.11835	0.04464
2788.83259	0.04486
2787.54682	0.04512
2786.26105	0.04522
2784.97528	0.04512
2783.68951	0.04497
2782.40374	0.04489
2781.11797	0.04486
2779.83220	0.04476
2778.54643	0.04456
2777.26067	0.04438
2775.97490	0.04432
2774.68913	0.04432
2773.40336	0.04428
2772.11759	0.04418
2770.83182	0.04407
2769.54605	0.04395
2768.26028	0.04383
2766.97452	0.04377
2765.68875	0.04385
2764.40298	0.04406
2763.11721	0.04426
2761.83144	0.04432
2760.54567	0.04422
2759.25990	0.04409
2757.97413	0.04407
2756.68836	0.04412
2755.40260	0.04408
2754.11683	0.04384
2752.83106	0.04344
2751.54529	0.04306
2750.25952	0.04284
2748.97375	0.04278
2747.68798	0.04287
2746.40221	0.04300
2745.11645	0.04310
2743.83068	0.04306
2742.54491	0.04291
2741.25914	0.04276
2739.97337	0.04277
2738.68760	0.04288
2737.40183	0.04293
2736.11606	0.04283
2734.83029	0.04269
2733.54453	0.04269
2732.25876	0.04284
2730.97299	0.04305
2729.68722	0.04321
2728.40145	0.04328
2727.11568	0.04321
2725.82991	0.04302
2724.54414	0.04275
2723.25838	0.04253
2721.97261	0.04241
2720.68684	0.04233
2719.40107	0.04216
2718.11530	0.04187
2716.82953	0.04148
2715.54376	0.04115
2714.25799	0.04099
2712.97222	0.04106
2711.68646	0.04125
2710.40069	0.04137
2709.11492	0.04131
2707.82915	0.04108
2706.54338	0.04084
2705.25761	0.04072
2703.97184	0.04075
2702.68607	0.04088
2701.40031	0.04098
2700.11454	0.04098
2698.82877	0.04092
2697.54300	0.04085
2696.25723	0.04082
2694.97146	0.04084
2693.68569	0.04085
2692.39992	0.04075
2691.11415	0.04053
2689.82839	0.04031
2688.54262	0.04022
2687.25685	0.04028
2685.97108	0.04038
2684.68531	0.04041
2683.39954	0.04038
2682.11377	0.04032
2680.82800	0.04026
2679.54224	0.04022
2678.25647	0.04020
2676.97070	0.04020
2675.68493	0.04021
2674.39916	0.04018
2673.11339	0.04007
2671.82762	0.03996
2670.54185	0.03990
2669.25608	0.03990
2667.97032	0.03990
2666.68455	0.03985
2665.39878	0.03980
2664.11301	0.03983
2662.82724	0.03999
2661.54147	0.04023
2660.25570	0.04042
2658.96993	0.04043
2657.68417	0.04025
2656.39840	0.03996
2655.11263	0.03972
2653.82686	0.03965
2652.54109	0.03976
2651.25532	0.03995
2649.96955	0.04014
2648.68378	0.04030
2647.39801	0.04036
2646.11225	0.04024
2644.82648	0.03994
2643.54071	0.03953
2642.25494	0.03912
2640.96917	0.03876
2639.68340	0.03845
2638.39763	0.03820
2637.11186	0.03801
2635.82609	0.03788
2634.54033	0.03783
2633.25456	0.03788
2631.96879	0.03799
2630.68302	0.03811
2629.39725	0.03813
2628.11148	0.03796
2626.82571	0.03760
2625.53994	0.03717
2624.25418	0.03681
2622.96841	0.03658
2621.68264	0.03643
2620.39687	0.03625
2619.11110	0.03601
2617.82533	0.03583
2616.53956	0.03588
2615.25379	0.03619
2613.96802	0.03650
2612.68226	0.03655
2611.39649	0.03630
2610.11072	0.03597
2608.82495	0.03578
2607.53918	0.03572
2606.25341	0.03560
2604.96764	0.03530
2603.68187	0.03489
2602.39611	0.03463
2601.11034	0.03471
2599.82457	0.03500
2598.53880	0.03521
2597.25303	0.03523
2595.96726	0.03525
2594.68149	0.03535
2593.39572	0.03537
2592.10995	0.03513
2590.82419	0.03470
2589.53842	0.03431
2588.25265	0.03409
2586.96688	0.03401
2585.68111	0.03398
2584.39534	0.03397
2583.10957	0.03390
2581.82380	0.03375
2580.53804	0.03356
2579.25227	0.03339
2577.96650	0.03330
2576.68073	0.03330
2575.39496	0.03331
2574.10919	0.03321
2572.82342	0.03287
2571.53765	0.03237
2570.25188	0.03203
2568.96612	0.03206
2567.68035	0.03229
2566.39458	0.03236
2565.10881	0.03214
2563.82304	0.03189
2562.53727	0.03187
2561.25150	0.03207
2559.96573	0.03229
2558.67997	0.03235
2557.39420	0.03224
2556.10843	0.03200
2554.82266	0.03171
2553.53689	0.03144
2552.25112	0.03126
2550.96535	0.03118
2549.67958	0.03117
2548.39381	0.03115
2547.10805	0.03110
2545.82228	0.03109
2544.53651	0.03123
2543.25074	0.03150
2541.96497	0.03172
2540.67920	0.03176
2539.39343	0.03164
2538.10766	0.03152
2536.82190	0.03146
2535.53613	0.03144
2534.25036	0.03143
2532.96459	0.03142
2531.67882	0.03136
2530.39305	0.03119
2529.10728	0.03095
2527.82151	0.03073
2526.53574	0.03063
2525.24998	0.03068
2523.96421	0.03078
2522.67844	0.03081
2521.39267	0.03062
2520.10690	0.03016
2518.82113	0.02957
2517.53536	0.02913
2516.24959	0.02902
2514.96383	0.02908
2513.67806	0.02910
2512.39229	0.02905
2511.10652	0.02913
2509.82075	0.02940
2508.53498	0.02960
2507.24921	0.02946
2505.96344	0.02902
2504.67767	0.02863
2503.39191	0.02854
2502.10614	0.02869
2500.82037	0.02886
2499.53460	0.02898
2498.24883	0.02914
2496.96306	0.02948
2495.67729	0.02995
2494.39152	0.03035
2493.10576	0.03050
2491.81999	0.03042
2490.53422	0.03015
2489.24845	0.02970
2487.96268	0.02917
2486.67691	0.02874
2485.39114	0.02855
2484.10537	0.02854
2482.81960	0.02859
2481.53384	0.02867
2480.24807	0.02882
2478.96230	0.02901
2477.67653	0.02911
2476.39076	0.02908
2475.10499	0.02900
2473.81922	0.02890
2472.53345	0.02878
2471.24769	0.02860
2469.96192	0.02844
2468.67615	0.02843
2467.39038	0.02863
2466.10461	0.02897
2464.81884	0.02938
2463.53307	0.02975
2462.24730	0.02997
2460.96153	0.02994
2459.67577	0.02968
2458.39000	0.02933
2457.10423	0.02906
2455.81846	0.02895
2454.53269	0.02898
2453.24692	0.02907
2451.96115	0.02914
2450.67538	0.02915
2449.38962	0.02907
2448.10385	0.02886
2446.81808	0.02851
2445.53231	0.02813
2444.24654	0.02785
2442.96077	0.02771
2441.67500	0.02769
2440.38923	0.02776
2439.10346	0.02788
2437.81770	0.02801
2436.53193	0.02812
2435.24616	0.02824
2433.96039	0.02835
2432.67462	0.02835
2431.38885	0.02813
2430.10308	0.02778
2428.81731	0.02751
2427.53155	0.02752
2426.24578	0.02780
2424.96001	0.02811
2423.67424	0.02819
2422.38847	0.02794
2421.10270	0.02751
2419.81693	0.02711
2418.53116	0.02689
2417.24539	0.02688
2415.95963	0.02709
2414.67386	0.02752
2413.38809	0.02804
2412.10232	0.02840
2410.81655	0.02839
2409.53078	0.02805
2408.24501	0.02769
2406.95924	0.02754
2405.67347	0.02759
2404.38771	0.02765
2403.10194	0.02761
2401.81617	0.02749
2400.53040	0.02723
2399.24463	0.02597
2397.95886	0.02537
2396.67309	0.02549
2395.38732	0.02591
2394.10156	0.02644
2392.81579	0.02692
2391.53002	0.02720
2390.24425	0.02729
2388.95848	0.02732
2387.67271	0.02743
2386.38694	0.02761
2385.10117	0.02775
2383.81540	0.02777
2382.52964	0.02775
2381.24387	0.02787
2379.95810	0.02823
2378.67233	0.02871
2377.38656	0.02908
2376.10079	0.02922
2374.81502	0.02914
2373.52925	0.02893
2372.24349	0.02869
2370.95772	0.02845
2369.67195	0.02819
2368.38618	0.02782
2367.10041	0.02738
2365.81464	0.02702
2364.52887	0.02680
2363.24310	0.02670
2361.95733	0.02671
2360.67157	0.02685
2359.38580	0.02718
2358.10003	0.02769
2356.81426	0.02820
2355.52849	0.02858
2354.24272	0.02878
2352.95695	0.02886
2351.67118	0.02888
2350.38542	0.02895
2349.09965	0.02917
2347.81388	0.02949
2346.52811	0.02977
2345.24234	0.03006
2343.95657	0.03048
2342.67080	0.03089
2341.38503	0.03086
2340.09926	0.03039
2338.81350	0.02996
2337.52773	0.02961
2336.24196	0.02880
2334.95619	0.02747
2333.67042	0.02598
2332.38465	0.02420
2331.09888	0.02184
2329.81311	0.01960
2328.52735	0.01834
2327.24158	0.01840
2325.95581	0.02029
2324.67004	0.02399
2323.38427	0.02832
2322.09850	0.03207
2320.81273	0.03484
2319.52696	0.03648
2318.24119	0.03725
2316.95543	0.03752
2315.66966	0.03732
2314.38389	0.03679
2313.09812	0.03606
2311.81235	0.03513
2310.52658	0.03410
2309.24081	0.03299
2307.95504	0.03181
2306.66928	0.03067
2305.38351	0.02957
2304.09774	0.02850
2302.81197	0.02749
2301.52620	0.02660
2300.24043	0.02586
2298.95466	0.02519
2297.66889	0.02450
2296.38312	0.02380
2295.09736	0.02329
2293.81159	0.02316
2292.52582	0.02346
2291.24005	0.02406
2289.95428	0.02477
2288.66851	0.02548
2287.38274	0.02619
2286.09697	0.02693
2284.81121	0.02768
2283.52544	0.02838
2282.23967	0.02894
2280.95390	0.02933
2279.66813	0.02956
2278.38236	0.02955
2277.09659	0.02921
2275.81082	0.02854
2274.52505	0.02778
2273.23929	0.02720
2271.95352	0.02684
2270.66775	0.02648
2269.38198	0.02593
2268.09621	0.02520
2266.81044	0.02445
2265.52467	0.02374
2264.23890	0.02301
2262.95314	0.02222
2261.66737	0.02149
2260.38160	0.02105
2259.09583	0.02104
2257.81006	0.02136
2256.52429	0.02168
2255.23852	0.02155
2253.95275	0.02066
2252.66698	0.01898
2251.38122	0.01713
2250.09545	0.01713
2248.80968	0.01999
2247.52391	0.02025
2246.23814	0.02066
2244.95237	0.02118
2243.66660	0.02161
2242.38083	0.02171
2241.09507	0.02129
2239.80930	0.02052
2238.52353	0.02001
2237.23776	0.02022
2235.95199	0.02095
2234.66622	0.02137
2233.38045	0.02094
2232.09468	0.01982
2230.80891	0.01862
2229.52315	0.01768
2228.23738	0.01705
2226.95161	0.01679
2225.66584	0.01705
2224.38007	0.01770
2223.09430	0.01829
2221.80853	0.01844
2220.52276	0.01821
2219.23700	0.01793
2217.95123	0.01785
2216.66546	0.01802
2215.37969	0.01831
2214.09392	0.01830
2212.80815	0.01770
2211.52238	0.01683
2210.23661	0.01636
2208.95084	0.01646
2207.66508	0.01654
2206.37931	0.01593
2205.09354	0.01475
2203.80777	0.01377
2202.52200	0.01372
2201.23623	0.01457
2199.95046	0.01563
2198.66469	0.01610
2197.37893	0.01571
2196.09316	0.01487
2194.80739	0.01416
2193.52162	0.01381
2192.23585	0.01367
2190.95008	0.01357
2189.66431	0.01348
2188.37854	0.01342
2187.09277	0.01335
2185.80701	0.01319
2184.52124	0.01305
2183.23547	0.01308
2181.94970	0.01318
2180.66393	0.01298
2179.37816	0.01229
2178.09239	0.01149
2176.80662	0.01113
2175.52085	0.01140
2174.23509	0.01193
2172.94932	0.01215
2171.66355	0.01187
2170.37778	0.01146
2169.09201	0.01154
2167.80624	0.01226
2166.52047	0.01316
2165.23470	0.01355
2163.94894	0.01313
2162.66317	0.01212
2161.37740	0.01092
2160.09163	0.00983
2158.80586	0.00896
2157.52009	0.00824
2156.23432	0.00759
2154.94855	0.00712
2153.66278	0.00707
2152.37702	0.00738
2151.09125	0.00764
2149.80548	0.00764
2148.51971	0.00766
2147.23394	0.00813
2145.94817	0.00905
2144.66240	0.00999
2143.37663	0.01067
2142.09087	0.01108
2140.80510	0.01137
2139.51933	0.01168
2138.23356	0.01208
2136.94779	0.01243
2135.66202	0.01245
2134.37625	0.01204
2133.09048	0.01152
2131.80471	0.01134
2130.51895	0.01160
2129.23318	0.01203
2127.94741	0.01246
2126.66164	0.01296
2125.37587	0.01369
2124.09010	0.01458
2122.80433	0.01547
2121.51856	0.01623
2120.23280	0.01677
2118.94703	0.01692
2117.66126	0.01663
2116.37549	0.01607
2115.08972	0.01559
2113.80395	0.01545
2112.51818	0.01570
2111.23241	0.01627
2109.94664	0.01685
2108.66088	0.01702
2107.37511	0.01654
2106.08934	0.01566
2104.80357	0.01489
2103.51780	0.01455
2102.23203	0.01446
2100.94626	0.01436
2099.66049	0.01429
2098.37473	0.01417
2097.08896	0.01400
2095.80319	0.01390
2094.51742	0.01396
2093.23165	0.01420
2091.94588	0.01449
2090.66011	0.01465
2089.37434	0.01462
2088.08857	0.01453
2086.80281	0.01453
2085.51704	0.01466
2084.23127	0.01493
2082.94550	0.01534
2081.65973	0.01582
2080.37396	0.01613
2079.08819	0.01609
2077.80242	0.01575
2076.51666	0.01529
2075.23089	0.01481
2073.94512	0.01424
2072.65935	0.01361
2071.37358	0.01316
2070.08781	0.01309
2068.80204	0.01332
2067.51627	0.01360
2066.23050	0.01370
2064.94474	0.01353
2063.65897	0.01306
2062.37320	0.01242
2061.08743	0.01183
2059.80166	0.01152
2058.51589	0.01154
2057.23012	0.01171
2055.94435	0.01186
2054.65859	0.01196
2053.37282	0.01206
2052.08705	0.01194
2050.80128	0.01128
2049.51551	0.01009
2048.22974	0.00899
2046.94397	0.00865
2045.65820	0.00917
2044.37243	0.01007
2043.08667	0.01081
2041.80090	0.01114
2040.51513	0.01101
2039.22936	0.01037
2037.94359	0.00929
2036.65782	0.00808
2035.37205	0.00705
2034.08628	0.00636
2032.80052	0.00602
2031.51475	0.00611
2030.22898	0.00677
2028.94321	0.00781
2027.65744	0.00867
2026.37167	0.00879
2025.08590	0.00810
2023.80013	0.00693
2022.51436	0.00573
2021.22860	0.00485
2019.94283	0.00449
2018.65706	0.00461
2017.37129	0.00499
2016.08552	0.00537
2014.79975	0.00573
2013.51398	0.00623
2012.22821	0.00697
2010.94245	0.00766
2009.65668	0.00774
2008.37091	0.00698
2007.08514	0.00583
2005.79937	0.00510
2004.51360	0.00522
2003.22783	0.00604
2001.94206	0.00715
2000.65629	0.00818
1999.37053	0.00883
1998.08476	0.00902
1996.79899	0.00909
1995.51322	0.00947
1994.22745	0.01019
1992.94168	0.01076
1991.65591	0.01078
1990.37014	0.01034
1989.08438	0.00990
1987.79861	0.00985
1986.51284	0.01024
1985.22707	0.01092
1983.94130	0.01170
1982.65553	0.01248
1981.36976	0.01325
1980.08399	0.01381
1978.79822	0.01382
1977.51246	0.01310
1976.22669	0.01193
1974.94092	0.01070
1973.65515	0.00957
1972.36938	0.00865
1971.08361	0.00814
1969.79784	0.00814
1968.51207	0.00840
1967.22631	0.00857
1965.94054	0.00866
1964.65477	0.00899
1963.36900	0.00966
1962.08323	0.01032
1960.79746	0.01054
1959.51169	0.01030
1958.22592	0.00994
1956.94015	0.00971
1955.65439	0.00962
1954.36862	0.00964
1953.08285	0.00991
1951.79708	0.01063
1950.51131	0.01171
1949.22554	0.01275
1947.93977	0.01332
1946.65400	0.01334
1945.36823	0.01307
1944.08247	0.01279
1942.79670	0.01266
1941.51093	0.01271
1940.22516	0.01299
1938.93939	0.01346
1937.65362	0.01393
1936.36785	0.01417
1935.08208	0.01409
1933.79632	0.01376
1932.51055	0.01338
1931.22478	0.01307
1929.93901	0.01290
1928.65324	0.01291
1927.36747	0.01307
1926.08170	0.01328
1924.79593	0.01346
1923.51016	0.01365
1922.22440	0.01390
1920.93863	0.01417
1919.65286	0.01426
1918.36709	0.01412
1917.08132	0.01394
1915.79555	0.01394
1914.50978	0.01417
1913.22401	0.01448
1911.93825	0.01475
1910.65248	0.01487
1909.36671	0.01479
1908.08094	0.01452
1906.79517	0.01428
1905.50940	0.01428
1904.22363	0.01454
1902.93786	0.01481
1901.65209	0.01484
1900.36633	0.01459
1899.08056	0.01422
1897.79479	0.01391
1896.50902	0.01370
1895.22325	0.01359
1893.93748	0.01359
1892.65171	0.01375
1891.36594	0.01410
1890.08018	0.01452
1888.79441	0.01477
1887.50864	0.01472
1886.22287	0.01449
1884.93710	0.01432
1883.65133	0.01433
1882.36556	0.01445
1881.07979	0.01457
1879.79402	0.01468
1878.50826	0.01480
1877.22249	0.01492
1875.93672	0.01498
1874.65095	0.01495
1873.36518	0.01481
1872.07941	0.01463
1870.79364	0.01452
1869.50787	0.01450
1868.22211	0.01453
1866.93634	0.01453
1865.65057	0.01448
1864.36480	0.01441
1863.07903	0.01431
1861.79326	0.01417
1860.50749	0.01403
1859.22172	0.01397
1857.93595	0.01403
1856.65019	0.01419
1855.36442	0.01439
1854.07865	0.01450
1852.79288	0.01446
1851.50711	0.01431
1850.22134	0.01419
1848.93557	0.01416
1847.64980	0.01423
1846.36404	0.01435
1845.07827	0.01454
1843.79250	0.01480
1842.50673	0.01510
1841.22096	0.01532
1839.93519	0.01541
1838.64942	0.01537
1837.36365	0.01524
1836.07788	0.01504
1834.79212	0.01484
1833.50635	0.01472
1832.22058	0.01476
1830.93481	0.01499
1829.64904	0.01532
1828.36327	0.01562
1827.07750	0.01578
1825.79173	0.01573
1824.50597	0.01552
1823.22020	0.01529
1821.93443	0.01512
1820.64866	0.01502
1819.36289	0.01491
1818.07712	0.01479
1816.79135	0.01468
1815.50558	0.01465
1814.21981	0.01471
1812.93405	0.01483
1811.64828	0.01496
1810.36251	0.01509
1809.07674	0.01525
1807.79097	0.01544
1806.50520	0.01561
1805.21943	0.01569
1803.93366	0.01565
1802.64790	0.01551
1801.36213	0.01535
1800.07636	0.01524
1798.79059	0.01521
1797.50482	0.01527
1796.21905	0.01539
1794.93328	0.01550
1793.64751	0.01556
1792.36174	0.01553
1791.07598	0.01542
1789.79021	0.01532
1788.50444	0.01529
1787.21867	0.01537
1785.93290	0.01550
1784.64713	0.01560
1783.36136	0.01564
1782.07559	0.01561
1780.78983	0.01553
1779.50406	0.01539
1778.21829	0.01522
1776.93252	0.01512
1775.64675	0.01512
1774.36098	0.01523
1773.07521	0.01537
1771.78944	0.01553
1770.50367	0.01569
1769.21791	0.01581
1767.93214	0.01585
1766.64637	0.01584
1765.36060	0.01583
1764.07483	0.01585
1762.78906	0.01589
1761.50329	0.01590
1760.21752	0.01588
1758.93176	0.01587
1757.64599	0.01588
1756.36022	0.01595
1755.07445	0.01603
1753.78868	0.01607
1752.50291	0.01603
1751.21714	0.01595
1749.93137	0.01591
1748.64560	0.01597
1747.35984	0.01606
1746.07407	0.01610
1744.78830	0.01603
1743.50253	0.01589
1742.21676	0.01579
1740.93099	0.01579
1739.64522	0.01592
1738.35945	0.01611
1737.07369	0.01629
1735.78792	0.01639
1734.50215	0.01640
1733.21638	0.01637
1731.93061	0.01639
1730.64484	0.01645
1729.35907	0.01653
1728.07330	0.01661
1726.78753	0.01669
1725.50177	0.01677
1724.21600	0.01683
1722.93023	0.01692
1721.64446	0.01712
1720.35869	0.01745
1719.07292	0.01783
1717.78715	0.01815
1716.50138	0.01837
1715.21561	0.01854
1713.92985	0.01872
1712.64408	0.01897
1711.35831	0.01932
1710.07254	0.01980
1708.78677	0.02039
1707.50100	0.02100
1706.21523	0.02157
1704.92946	0.02214
1703.64370	0.02278
1702.35793	0.02351
1701.07216	0.02433
1699.78639	0.02525
1698.50062	0.02627
1697.21485	0.02735
1695.92908	0.02840
1694.64331	0.02941
1693.35754	0.03041
1692.07178	0.03145
1690.78601	0.03249
1689.50024	0.03352
1688.21447	0.03457
1686.92870	0.03566
1685.64293	0.03675
1684.35716	0.03780
1683.07139	0.03880
1681.78563	0.03978
1680.49986	0.04079
1679.21409	0.04182
1677.92832	0.04284
1676.64255	0.04383
1675.35678	0.04481
1674.07101	0.04580
1672.78524	0.04682
1671.49947	0.04786
1670.21371	0.04887
1668.92794	0.04983
1667.64217	0.05077
1666.35640	0.05174
1665.07063	0.05272
1663.78486	0.05364
1662.49909	0.05448
1661.21332	0.05524
1659.92756	0.05598
1658.64179	0.05676
1657.35602	0.05758
1656.07025	0.05843
1654.78448	0.05921
1653.49871	0.05983
1652.21294	0.06026
1650.92717	0.06058
1649.64140	0.06091
1648.35564	0.06127
1647.06987	0.06157
1645.78410	0.06171
1644.49833	0.06170
1643.21256	0.06166
1641.92679	0.06167
1640.64102	0.06173
1639.35525	0.06177
1638.06949	0.06170
1636.78372	0.06147
1635.49795	0.06109
1634.21218	0.06063
1632.92641	0.06016
1631.64064	0.05974
1630.35487	0.05932
1629.06910	0.05888
1627.78333	0.05839
1626.49757	0.05786
1625.21180	0.05730
1623.92603	0.05671
1622.64026	0.05612
1621.35449	0.05561
1620.06872	0.05520
1618.78295	0.05484
1617.49718	0.05444
1616.21142	0.05397
1614.92565	0.05354
1613.63988	0.05326
1612.35411	0.05313
1611.06834	0.05307
1609.78257	0.05300
1608.49680	0.05289
1607.21103	0.05279
1605.92526	0.05273
1604.63950	0.05271
1603.35373	0.05271
1602.06796	0.05272
1600.78219	0.05276
1599.49642	0.05282
1598.21065	0.05287
1596.92488	0.05286
1595.63911	0.05280
1594.35335	0.05274
1593.06758	0.05274
1591.78181	0.05279
1590.49604	0.05289
1589.21027	0.05298
1587.92450	0.05304
1586.63873	0.05307
1585.35296	0.05309
1584.06719	0.05311
1582.78143	0.05315
1581.49566	0.05323
1580.20989	0.05334
1578.92412	0.05349
1577.63835	0.05365
1576.35258	0.05380
1575.06681	0.05394
1573.78104	0.05408
1572.49528	0.05421
1571.20951	0.05433
1569.92374	0.05447
1568.63797	0.05464
1567.35220	0.05485
1566.06643	0.05510
1564.78066	0.05538
1563.49489	0.05569
1562.20912	0.05603
1560.92336	0.05634
1559.63759	0.05650
1558.35182	0.05648
1557.06605	0.05636
1555.78028	0.05627
1554.49451	0.05627
1553.20874	0.05632
1551.92297	0.05637
1550.63721	0.05636
1549.35144	0.05626
1548.06567	0.05611
1546.77990	0.05597
1545.49413	0.05590
1544.20836	0.05589
1542.92259	0.05586
1541.63682	0.05573
1540.35105	0.05545
1539.06529	0.05507
1537.77952	0.05468
1536.49375	0.05439
1535.20798	0.05421
1533.92221	0.05410
1532.63644	0.05401
1531.35067	0.05388
1530.06490	0.05372
1528.77914	0.05357
1527.49337	0.05346
1526.20760	0.05342
1524.92183	0.05344
1523.63606	0.05347
1522.35029	0.05351
1521.06452	0.05356
1519.77875	0.05367
1518.49298	0.05384
1517.20722	0.05405
1515.92145	0.05425
1514.63568	0.05445
1513.34991	0.05472
1512.06414	0.05510
1510.77837	0.05558
1509.49260	0.05610
1508.20683	0.05660
1506.92107	0.05699
1505.63530	0.05727
1504.34953	0.05749
1503.06376	0.05771
1501.77799	0.05794
1500.49222	0.05816
1499.20645	0.05835
1497.92068	0.05850
1496.63491	0.05864
1495.34915	0.05882
1494.06338	0.05903
1492.77761	0.05925
1491.49184	0.05949
1490.20607	0.05973
1488.92030	0.06002
1487.63453	0.06037
1486.34876	0.06080
1485.06299	0.06134
1483.77723	0.06196
1482.49146	0.06262
1481.20569	0.06331
1479.91992	0.06400
1478.63415	0.06474
1477.34838	0.06555
1476.06261	0.06644
1474.77684	0.06735
1473.49108	0.06821
1472.20531	0.06895
1470.91954	0.06956
1469.63377	0.07010
1468.34800	0.07064
1467.06223	0.07116
1465.77646	0.07165
1464.49069	0.07207
1463.20492	0.07248
1461.91916	0.07297
1460.63339	0.07362
1459.34762	0.07439
1458.06185	0.07520
1456.77608	0.07594
1455.49031	0.07656
1454.20454	0.07709
1452.91877	0.07755
1451.63301	0.07797
1450.34724	0.07837
1449.06147	0.07872
1447.77570	0.07897
1446.48993	0.07907
1445.20416	0.07902
1443.91839	0.07884
1442.63262	0.07853
1441.34685	0.07811
1440.06109	0.07762
1438.77532	0.07715
1437.48955	0.07672
1436.20378	0.07639
1434.91801	0.07619
1433.63224	0.07616
1432.34647	0.07630
1431.06070	0.07661
1429.77494	0.07707
1428.48917	0.07770
1427.20340	0.07850
1425.91763	0.07944
1424.63186	0.08045
1423.34609	0.08149
1422.06032	0.08251
1420.77455	0.08349
1419.48878	0.08437
1418.20302	0.08512
1416.91725	0.08574
1415.63148	0.08625
1414.34571	0.08665
1413.05994	0.08690
1411.77417	0.08699
1410.48840	0.08691
1409.20263	0.08668
1407.91687	0.08628
1406.63110	0.08572
1405.34533	0.08498
1404.05956	0.08411
1402.77379	0.08311
1401.48802	0.08196
1400.20225	0.08068
1398.91648	0.07931
1397.63071	0.07790
1396.34495	0.07644
1395.05918	0.07493
1393.77341	0.07340
1392.48764	0.07190
1391.20187	0.07050
1389.91610	0.06918
1388.63033	0.06790
1387.34456	0.06662
1386.05880	0.06532
1384.77303	0.06401
1383.48726	0.06273
1382.20149	0.06150
1380.91572	0.06032
1379.62995	0.05915
1378.34418	0.05796
1377.05841	0.05671
1375.77264	0.05541
1374.48688	0.05406
1373.20111	0.05269
1371.91534	0.05135
1370.62957	0.05007
1369.34380	0.04886
1368.05803	0.04773
1366.77226	0.04670
1365.48649	0.04578
1364.20073	0.04497
1362.91496	0.04420
1361.62919	0.04344
1360.34342	0.04271
1359.05765	0.04206
1357.77188	0.04153
1356.48611	0.04109
1355.20034	0.04071
1353.91457	0.04031
1352.62881	0.03988
1351.34304	0.03944
1350.05727	0.03904
1348.77150	0.03871
1347.48573	0.03842
1346.19996	0.03814
1344.91419	0.03784
1343.62842	0.03754
1342.34266	0.03726
1341.05689	0.03698
1339.77112	0.03667
1338.48535	0.03631
1337.19958	0.03593
1335.91381	0.03556
1334.62804	0.03520
1333.34227	0.03483
1332.05650	0.03444
1330.77074	0.03405
1329.48497	0.03367
1328.19920	0.03331
1326.91343	0.03296
1325.62766	0.03261
1324.34189	0.03228
1323.05612	0.03201
1321.77035	0.03181
1320.48459	0.03167
1319.19882	0.03151
1317.91305	0.03127
1316.62728	0.03096
1315.34151	0.03063
1314.05574	0.03030
1312.76997	0.02997
1311.48420	0.02961
1310.19843	0.02922
1308.91267	0.02885
1307.62690	0.02853
1306.34113	0.02828
1305.05536	0.02807
1303.76959	0.02789
1302.48382	0.02774
1301.19805	0.02758
1299.91228	0.02740
1298.62652	0.02718
1297.34075	0.02696
1296.05498	0.02677
1294.76921	0.02662
1293.48344	0.02651
1292.19767	0.02642
1290.91190	0.02633
1289.62613	0.02623
1288.34036	0.02612
1287.05460	0.02600
1285.76883	0.02590
1284.48306	0.02581
1283.19729	0.02575
1281.91152	0.02569
1280.62575	0.02561
1279.33998	0.02549
1278.05421	0.02533
1276.76845	0.02518
1275.48268	0.02506
1274.19691	0.02501
1272.91114	0.02502
1271.62537	0.02506
1270.33960	0.02508
1269.05383	0.02507
1267.76806	0.02503
1266.48229	0.02497
1265.19653	0.02492
1263.91076	0.02486
1262.62499	0.02479
1261.33922	0.02474
1260.05345	0.02470
1258.76768	0.02469
1257.48191	0.02468
1256.19614	0.02466
1254.91037	0.02463
1253.62461	0.02460
1252.33884	0.02458
1251.05307	0.02463
1249.76730	0.02473
1248.48153	0.02484
1247.19576	0.02489
1245.90999	0.02487
1244.62422	0.02479
1243.33846	0.02468
1242.05269	0.02458
1240.76692	0.02450
1239.48115	0.02444
1238.19538	0.02439
1236.90961	0.02432
1235.62384	0.02423
1234.33807	0.02412
1233.05230	0.02398
1231.76654	0.02380
1230.48077	0.02359
1229.19500	0.02337
1227.90923	0.02315
1226.62346	0.02294
1225.33769	0.02272
1224.05192	0.02248
1222.76615	0.02226
1221.48039	0.02209
1220.19462	0.02199
1218.90885	0.02191
1217.62308	0.02179
1216.33731	0.02161
1215.05154	0.02143
1213.76577	0.02130
1212.48000	0.02125
1211.19423	0.02129
1209.90847	0.02137
1208.62270	0.02145
1207.33693	0.02150
1206.05116	0.02150
1204.76539	0.02148
1203.47962	0.02148
1202.19385	0.02150
1200.90808	0.02154
1199.62232	0.02160
1198.33655	0.02163
1197.05078	0.02163
1195.76501	0.02157
1194.47924	0.02147
1193.19347	0.02134
1191.90770	0.02121
1190.62193	0.02107
1189.33616	0.02093
1188.05040	0.02079
1186.76463	0.02065
1185.47886	0.02056
1184.19309	0.02049
1182.90732	0.02041
1181.62155	0.02031
1180.33578	0.02019
1179.05001	0.02008
1177.76425	0.02001
1176.47848	0.01997
1175.19271	0.01998
1173.90694	0.02004
1172.62117	0.02015
1171.33540	0.02026
1170.04963	0.02033
1168.76386	0.02035
1167.47809	0.02036
1166.19233	0.02042
1164.90656	0.02053
1163.62079	0.02069
1162.33502	0.02079
1161.04925	0.02079
1159.76348	0.02074
1158.47771	0.02075
1157.19194	0.02087
1155.90618	0.02107
1154.62041	0.02125
1153.33464	0.02139
1152.04887	0.02148
1150.76310	0.02156
1149.47733	0.02172
1148.19156	0.02201
1146.90579	0.02244
1145.62002	0.02297
1144.33426	0.02351
1143.04849	0.02406
1141.76272	0.02464
1140.47695	0.02532
1139.19118	0.02616
1137.90541	0.02716
1136.61964	0.02825
1135.33387	0.02933
1134.04811	0.03036
1132.76234	0.03136
1131.47657	0.03240
1130.19080	0.03359
1128.90503	0.03503
1127.61926	0.03670
1126.33349	0.03855
1125.04772	0.04051
1123.76195	0.04259
1122.47619	0.04484
1121.19042	0.04727
1119.90465	0.04984
1118.61888	0.05249
1117.33311	0.05517
1116.04734	0.05782
1114.76157	0.06046
1113.47580	0.06310
1112.19004	0.06573
1110.90427	0.06835
1109.61850	0.07096
1108.33273	0.07359
1107.04696	0.07625
1105.76119	0.07889
1104.47542	0.08144
1103.18965	0.08391
1101.90388	0.08634
1100.61812	0.08875
1099.33235	0.09111
1098.04658	0.09334
1096.76081	0.09540
1095.47504	0.09727
1094.18927	0.09898
1092.90350	0.10059
1091.61773	0.10216
1090.33197	0.10374
1089.04620	0.10534
1087.76043	0.10689
1086.47466	0.10839
1085.18889	0.10984
1083.90312	0.11130
1082.61735	0.11279
1081.33158	0.11436
1080.04581	0.11606
1078.76005	0.11791
1077.47428	0.11991
1076.18851	0.12200
1074.90274	0.12418
1073.61697	0.12644
1072.33120	0.12876
1071.04543	0.13115
1069.75966	0.13356
1068.47390	0.13600
1067.18813	0.13847
1065.90236	0.14099
1064.61659	0.14361
1063.33082	0.14629
1062.04505	0.14897
1060.75928	0.15157
1059.47351	0.15407
1058.18774	0.15651
1056.90198	0.15890
1055.61621	0.16130
1054.33044	0.16375
1053.04467	0.16624
1051.75890	0.16873
1050.47313	0.17115
1049.18736	0.17354
1047.90159	0.17599
1046.61583	0.17857
1045.33006	0.18126
1044.04429	0.18397
1042.75852	0.18663
1041.47275	0.18928
1040.18698	0.19194
1038.90121	0.19463
1037.61544	0.19728
1036.32967	0.19986
1035.04391	0.20239
1033.75814	0.20488
1032.47237	0.20730
1031.18660	0.20957
1029.90083	0.21161
1028.61506	0.21342
1027.32929	0.21503
1026.04352	0.21646
1024.75775	0.21768
1023.47199	0.21865
1022.18622	0.21929
1020.90045	0.21962
1019.61468	0.21962
1018.32891	0.21929
1017.04314	0.21862
1015.75737	0.21767
1014.47160	0.21647
1013.18584	0.21503
1011.90007	0.21323
1010.61430	0.21102
1009.32853	0.20844
1008.04276	0.20556
1006.75699	0.20241
1005.47122	0.19900
1004.18545	0.19530
1002.89968	0.19138
1001.61392	0.18727
1000.32815	0.18297
999.04238	0.17847
997.75661	0.17373
996.47084	0.16876
995.18507	0.16367
993.89930	0.15860
992.61353	0.15367
991.32777	0.14887
990.04200	0.14419
988.75623	0.13957
987.47046	0.13501
986.18469	0.13051
984.89892	0.12608
983.61315	0.12177
982.32738	0.11765
981.04161	0.11378
979.75585	0.11016
978.47008	0.10675
977.18431	0.10350
975.89854	0.10046
974.61277	0.09771
973.32700	0.09532
972.04123	0.09329
970.75546	0.09163
969.46970	0.09040
968.18393	0.08967
966.89816	0.08952
965.61239	0.08986
964.32662	0.09048
963.04085	0.09106
961.75508	0.09137
960.46931	0.09132
959.18354	0.09091
957.89778	0.09012
956.61201	0.08893
955.32624	0.08735
954.04047	0.08548
952.75470	0.08348
951.46893	0.08145
950.18316	0.07947
948.89739	0.07753
947.61163	0.07567
946.32586	0.07388
945.04009	0.07215
943.75432	0.07048
942.46855	0.06885
941.18278	0.06727
939.89701	0.06577
938.61124	0.06430
937.32547	0.06284
936.03971	0.06140
934.75394	0.06006
933.46817	0.05886
932.18240	0.05778
930.89663	0.05677
929.61086	0.05583
928.32509	0.05495
927.03932	0.05413
925.75356	0.05335
924.46779	0.05256
923.18202	0.05178
921.89625	0.05102
920.61048	0.05032
919.32471	0.04966
918.03894	0.04904
916.75317	0.04844
915.46740	0.04785
914.18164	0.04727
912.89587	0.04671
911.61010	0.04616
910.32433	0.04564
909.03856	0.04516
907.75279	0.04472
906.46702	0.04431
905.18125	0.04393
903.89549	0.04356
902.60972	0.04317
901.32395	0.04271
900.03818	0.04220
898.75241	0.04169
897.46664	0.04121
896.18087	0.04075
894.89510	0.04031
893.60933	0.03999
892.32357	0.03985
891.03780	0.03992
889.75203	0.04013
888.46626	0.04044
887.18049	0.04086
885.89472	0.04151
884.60895	0.04257
883.32318	0.04414
882.03742	0.04611
880.75165	0.04809
879.46588	0.04971
878.18011	0.05086
876.89434	0.05178
875.60857	0.05281
874.32280	0.05405
873.03703	0.05523
871.75126	0.05593
870.46550	0.05595
869.17973	0.05529
867.89396	0.05408
866.60819	0.05249
865.32242	0.05068
864.03665	0.04881
862.75088	0.04698
861.46511	0.04532
860.17935	0.04392
858.89358	0.04281
857.60781	0.04192
856.32204	0.04112
855.03627	0.04033
853.75050	0.03960
852.46473	0.03899
851.17896	0.03849
849.89319	0.03806
848.60743	0.03766
847.32166	0.03727
846.03589	0.03689
844.75012	0.03653
843.46435	0.03623
842.17858	0.03602
840.89281	0.03589
839.60704	0.03579
838.32128	0.03571
837.03551	0.03563
835.74974	0.03552
834.46397	0.03533
833.17820	0.03505
831.89243	0.03473
830.60666	0.03441
829.32089	0.03413
828.03512	0.03392
826.74936	0.03379
825.46359	0.03377
824.17782	0.03384
822.89205	0.03392
821.60628	0.03390
820.32051	0.03374
819.03474	0.03348
817.74897	0.03323
816.46321	0.03310
815.17744	0.03307
813.89167	0.03308
812.60590	0.03311
811.32013	0.03317
810.03436	0.03325
808.74859	0.03326
807.46282	0.03316
806.17705	0.03301
804.89129	0.03291
803.60552	0.03293
802.31975	0.03301
801.03398	0.03304
799.74821	0.03294
798.46244	0.03278
797.17667	0.03266
795.89090	0.03270
794.60513	0.03289
793.31937	0.03312
792.03360	0.03329
790.74783	0.03336
789.46206	0.03332
788.17629	0.03321
786.89052	0.03308
785.60475	0.03299
784.31898	0.03298
783.03322	0.03301
781.74745	0.03300
780.46168	0.03291
779.17591	0.03277
777.89014	0.03272
776.60437	0.03282
775.31860	0.03304
774.03283	0.03321
772.74706	0.03324
771.46130	0.03315
770.17553	0.03305
768.88976	0.03299
767.60399	0.03292
766.31822	0.03286
765.03245	0.03285
763.74668	0.03293
762.46091	0.03307
761.17515	0.03320
759.88938	0.03324
758.60361	0.03319
757.31784	0.03308
756.03207	0.03300
754.74630	0.03299
753.46053	0.03304
752.17476	0.03310
750.88899	0.03308
749.60323	0.03297
748.31746	0.03285
747.03169	0.03285
745.74592	0.03299
744.46015	0.03316
743.17438	0.03319
741.88861	0.03306
740.60284	0.03291
739.31708	0.03284
738.03131	0.03280
736.74554	0.03271
735.45977	0.03260
734.17400	0.03253
732.88823	0.03249
731.60246	0.03246
730.31669	0.03237
729.03092	0.03222
727.74516	0.03204
726.45939	0.03192
725.17362	0.03186
723.88785	0.03103
722.60208	0.03197
721.31631	0.03374
720.03054	0.03523
718.74477	0.03621
717.45901	0.03667
716.17324	0.03659
714.88747	0.03602
713.60170	0.03512
712.31593	0.03416
711.03016	0.03341
709.74439	0.03297
708.45862	0.03279
707.17285	0.03271
705.88709	0.03262
704.60132	0.03253
703.31555	0.03248
702.02978	0.03248
700.74401	0.03258
699.45824	0.03288
698.17247	0.03339
696.88670	0.03400
695.60094	0.03456
694.31517	0.03494
693.02940	0.03515
691.74363	0.03522
690.45786	0.03520
689.17209	0.03508
687.88632	0.03484
686.60055	0.03450
685.31478	0.03406
684.02902	0.03358
682.74325	0.03311
681.45748	0.03272
680.17171	0.03246
678.88594	0.03231
677.60017	0.03224
676.31440	0.03221
675.02863	0.03223
673.74287	0.03231
672.45710	0.03246
671.17133	0.03268
669.88556	0.03295
668.59979	0.03318
667.31402	0.03331
666.02825	0.03330
664.74248	0.03321
663.45671	0.03309
662.17095	0.03298
660.88518	0.03288
659.59941	0.03279
658.31364	0.03271
657.02787	0.03264
655.74210	0.03260
654.45633	0.03258
653.17056	0.03257
651.88480	0.03259
650.59903	0.03267
649.31326	0.03277
648.02749	0.03285
646.74172	0.03289
645.45595	0.03292
644.17018	0.03298
642.88441	0.03308
641.59864	0.03315
640.31288	0.03310
639.02711	0.03290
637.74134	0.03260
636.45557	0.03239
635.16980	0.03244
633.88403	0.03274
632.59826	0.03310
631.31249	0.03338
630.02673	0.03367
628.74096	0.03427
627.45519	0.03498
626.16942	0.03614
624.88365	0.03757
623.59788	0.03893
622.31211	0.04018
621.02634	0.04162
619.74057	0.04355
618.45481	0.04577
617.16904	0.04785
615.88327	0.04962
614.59750	0.05116
613.31173	0.05265
612.02596	0.05470
610.74019	0.05846
609.45442	0.06473
608.16866	0.07263
606.88289	0.07997
605.59712	0.08497
604.31135	0.08727
603.02558	0.08754
601.73981	0.08671
600.45404	0.08544
599.16827	0.08394
597.88250	0.08212
596.59674	0.08000
595.31097	0.07787
594.02520	0.07604
592.73943	0.07462
591.45366	0.07350
590.16789	0.07263
588.88212	0.07212
587.59635	0.07218
586.31059	0.07292
585.02482	0.07428
583.73905	0.07611
582.45328	0.07820
581.16751	0.08038
579.88174	0.08258
578.59597	0.08480
577.31020	0.08712
576.02443	0.08949
574.73867	0.09178
573.45290	0.09389
572.16713	0.09587
570.88136	0.09793
569.59559	0.10028
568.30982	0.10300
567.02405	0.10596
565.73828	0.10890
564.45251	0.11151
563.16675	0.11352
561.88098	0.11466
560.59521	0.11466
559.30944	0.11333
558.02367	0.11074
556.73790	0.10717
555.45213	0.10298
554.16636	0.09847
552.88060	0.09388
551.59483	0.08940
550.30906	0.08520
549.02329	0.08130
547.73752	0.07769
546.45175	0.07432
545.16598	0.07121
543.88021	0.06840
542.59444	0.06598
541.30868	0.06395
540.02291	0.06225
538.73714	0.06072
537.45137	0.05924
536.16560	0.05775
534.87983	0.05626
533.59406	0.05482
532.30829	0.05344
531.02253	0.05213
529.73676	0.05095
528.45099	0.04993
527.16522	0.04905
525.87945	0.04819
524.59368	0.04725
523.30791	0.04620
522.02214	0.04514
520.73637	0.04418
519.45061	0.04341
518.16484	0.04282
516.87907	0.04230
515.59330	0.04172
514.30753	0.04104
513.02176	0.04030
511.73599	0.03960
510.45022	0.03902
509.16446	0.03853
507.87869	0.03805
506.59292	0.03748
505.30715	0.03679
504.02138	0.03608
502.73561	0.03549
501.44984	0.03510
500.16407	0.03488
498.87830	0.03470
497.59254	0.03444
496.30677	0.03408
495.02100	0.03366
493.73523	0.03327
492.44946	0.03299
491.16369	0.03285
489.87792	0.03278
488.59215	0.03267
487.30639	0.03248
486.02062	0.03221
484.73485	0.03192
483.44908	0.03169
482.16331	0.03152
480.87754	0.03139
479.59177	0.03131
478.30600	0.03129
477.02023	0.03137
475.73447	0.03158
474.44870	0.03183
473.16293	0.03201
471.87716	0.03202
470.59139	0.03187
469.30562	0.03169
468.01985	0.03156
466.73408	0.03148
465.44832	0.03133
464.16255	0.03103
462.87678	0.03062
461.59101	0.03016
460.30524	0.02972
459.01947	0.02929
457.73370	0.02886
456.44793	0.02846
455.16216	0.02811
453.87640	0.02780
452.59063	0.02752
451.30486	0.02719
450.01909	0.02680
448.73332	0.02639
447.44755	0.02603
446.16178	0.02576
444.87601	0.02556
443.59025	0.02540
442.30448	0.02522
441.01871	0.02502
439.73294	0.02481
438.44717	0.02462
437.16140	0.02448
435.87563	0.02438
434.58986	0.02429
433.30409	0.02419
432.01833	0.02409
430.73256	0.02396
429.44679	0.02380
428.16102	0.02362
426.87525	0.02346
425.58948	0.02332
424.30371	0.02318
423.01794	0.02301
421.73218	0.02279
420.44641	0.02254
419.16064	0.02230
417.87487	0.02208
416.58910	0.02192
415.30333	0.02181
414.01756	0.02172
412.73179	0.02164
411.44602	0.02154
410.16026	0.02145
408.87449	0.02139
407.58872	0.02133
406.30295	0.02123
405.01718	0.02107
403.73141	0.02089
402.44564	0.02074
401.15987	0.02068
399.87411	0.02070
