3997.45528	0.03909
3996.16951	0.03872
3994.88374	0.03858
3993.59798	0.03867
3992.31221	0.03884
3991.02644	0.03895
3989.74067	0.03895
3988.45490	0.03895
3987.16913	0.03914
3985.88336	0.03958
3984.59759	0.04007
3983.31183	0.04028
3982.02606	0.04004
3980.74029	0.03948
3979.45452	0.03881
3978.16875	0.03821
3976.88298	0.03787
3975.59721	0.03786
3974.31144	0.03801
3973.02567	0.03811
3971.73991	0.03809
3970.45414	0.03802
3969.16837	0.03797
3967.88260	0.03783
3966.59683	0.03756
3965.31106	0.03730
3964.02529	0.03730
3962.73952	0.03769
3961.45376	0.03830
3960.16799	0.03884
3958.88222	0.03901
3957.59645	0.03882
3956.31068	0.03853
3955.02491	0.03850
3953.73914	0.03886
3952.45337	0.03939
3951.16760	0.03973
3949.88184	0.03970
3948.59607	0.03940
3947.31030	0.03908
3946.02453	0.03897
3944.73876	0.03902
3943.45299	0.03901
3942.16722	0.03880
3940.88145	0.03851
3939.59569	0.03839
3938.30992	0.03852
3937.02415	0.03864
3935.73838	0.03851
3934.45261	0.03819
3933.16684	0.03806
3931.88107	0.03837
3930.59530	0.03894
3929.30953	0.03930
3928.02377	0.03913
3926.73800	0.03855
3925.45223	0.03802
3924.16646	0.03789
3922.88069	0.03809
3921.59492	0.03832
3920.30915	0.03848
3919.02338	0.03862
3917.73762	0.03878
3916.45185	0.03892
3915.16608	0.03897
3913.88031	0.03889
3912.59454	0.03882
3911.30877	0.03892
3910.02300	0.03913
3908.73723	0.03923
3907.45146	0.03902
3906.16570	0.03851
3904.87993	0.03790
3903.59416	0.03739
3902.30839	0.03701
3901.02262	0.03661
3899.73685	0.03614
3898.45108	0.03571
3897.16531	0.03548
3895.87955	0.03558
3894.59378	0.03597
3893.30801	0.03646
3892.02224	0.03690
3890.73647	0.03732
3889.45070	0.03762
3888.16493	0.03753
3886.87916	0.03717
3885.59339	0.03705
3884.30763	0.03720
3883.02186	0.03712
3881.73609	0.03654
3880.45032	0.03583
3879.16455	0.03539
3877.87878	0.03522
3876.59301	0.03527
3875.30724	0.03564
3874.02148	0.03628
3872.73571	0.03667
3871.44994	0.03653
3870.16417	0.03640
3868.87840	0.03685
3867.59263	0.03739
3866.30686	0.03731
3865.02109	0.03672
3863.73532	0.03619
3862.44956	0.03594
3861.16379	0.03592
3859.87802	0.03614
3858.59225	0.03658
3857.30648	0.03685
3856.02071	0.03647
3854.73494	0.03559
3853.44917	0.03514
3852.16341	0.03564
3850.87764	0.03659
3849.59187	0.03732
3848.30610	0.03757
3847.02033	0.03737
3845.73456	0.03680
3844.44879	0.03600
3843.16302	0.03522
3841.87725	0.03475
3840.59149	0.03466
3839.30572	0.03490
3838.01995	0.03549
3836.73418	0.03625
3835.44841	0.03672
3834.16264	0.03665
3832.87687	0.03629
3831.59110	0.03594
3830.30534	0.03561
3829.01957	0.03524
3827.73380	0.03502
3826.44803	0.03526
3825.16226	0.03589
3823.87649	0.03634
3822.59072	0.03635
3821.30495	0.03630
3820.01918	0.03642
3818.73342	0.03621
3817.44765	0.03529
3816.16188	0.03427
3814.87611	0.03378
3813.59034	0.03362
3812.30457	0.03348
3811.01880	0.03361
3809.73303	0.03413
3808.44726	0.03459
3807.16150	0.03474
3805.87573	0.03459
3804.58996	0.03400
3803.30419	0.03286
3802.01842	0.03182
3800.73265	0.03171
3799.44688	0.03240
3798.16111	0.03300
3796.87535	0.03322
3795.58958	0.03346
3794.30381	0.03394
3793.01804	0.03448
3791.73227	0.03485
3790.44650	0.03499
3789.16073	0.03487
3787.87496	0.03455
3786.58919	0.03421
3785.30343	0.03411
3784.01766	0.03435
3782.73189	0.03470
3781.44612	0.03485
3780.16035	0.03474
3778.87458	0.03449
3777.58881	0.03409
3776.30304	0.03350
3775.01728	0.03294
3773.73151	0.03273
3772.44574	0.03285
3771.15997	0.03308
3769.87420	0.03334
3768.58843	0.03357
3767.30266	0.03368
3766.01689	0.03377
3764.73112	0.03408
3763.44536	0.03457
3762.15959	0.03490
3760.87382	0.03488
3759.58805	0.03462
3758.30228	0.03436
3757.01651	0.03424
3755.73074	0.03422
3754.44497	0.03399
3753.15921	0.03352
3751.87344	0.03321
3750.58767	0.03347
3749.30190	0.03437
3748.01613	0.03539
3746.73036	0.03560
3745.44459	0.03493
3744.15882	0.03443
3742.87305	0.03456
3741.58729	0.03464
3740.30152	0.03427
3739.01575	0.03383
3737.72998	0.03369
3736.44421	0.03398
3735.15844	0.03451
3733.87267	0.03498
3732.58690	0.03538
3731.30114	0.03591
3730.01537	0.03626
3728.72960	0.03592
3727.44383	0.03496
3726.15806	0.03400
3724.87229	0.03338
3723.58652	0.03299
3722.30075	0.03268
3721.01498	0.03238
3719.72922	0.03207
3718.44345	0.03186
3717.15768	0.03200
3715.87191	0.03249
3714.58614	0.03305
3713.30037	0.03344
3712.01460	0.03363
3710.72883	0.03358
3709.44307	0.03321
3708.15730	0.03271
3706.87153	0.03248
3705.58576	0.03258
3704.29999	0.03262
3703.01422	0.03240
3701.72845	0.03214
3700.44268	0.03208
3699.15691	0.03197
3697.87115	0.03161
3696.58538	0.03123
3695.29961	0.03117
3694.01384	0.03145
3692.72807	0.03186
3691.44230	0.03201
3690.15653	0.03158
3688.87076	0.03094
3687.58500	0.03065
3686.29923	0.03068
3685.01346	0.03070
3683.72769	0.03079
3682.44192	0.03128
3681.15615	0.03219
3679.87038	0.03308
3678.58461	0.03320
3677.29884	0.03231
3676.01308	0.03117
3674.72731	0.03075
3673.44154	0.03097
3672.15577	0.03105
3670.87000	0.03096
3669.58423	0.03118
3668.29846	0.03157
3667.01269	0.03162
3665.72693	0.03131
3664.44116	0.03104
3663.15539	0.03113
3661.86962	0.03154
3660.58385	0.03202
3659.29808	0.03228
3658.01231	0.03220
3656.72654	0.03204
3655.44077	0.03223
3654.15501	0.03272
3652.86924	0.03313
3651.58347	0.03326
3650.29770	0.03327
3649.01193	0.03333
3647.72616	0.03330
3646.44039	0.03305
3645.15462	0.03258
3643.86886	0.03208
3642.58309	0.03173
3641.29732	0.03163
3640.01155	0.03186
3638.72578	0.03247
3637.44001	0.03335
3636.15424	0.03418
3634.86847	0.03465
3633.58270	0.03478
3632.29694	0.03464
3631.01117	0.03421
3629.72540	0.03374
3628.43963	0.03370
3627.15386	0.03410
3625.86809	0.03449
3624.58232	0.03461
3623.29655	0.03460
3622.01079	0.03451
3620.72502	0.03428
3619.43925	0.03399
3618.15348	0.03380
3616.86771	0.03381
3615.58194	0.03391
3614.29617	0.03399
3613.01040	0.03396
3611.72463	0.03374
3610.43887	0.03336
3609.15310	0.03306
3607.86733	0.03307
3606.58156	0.03338
3605.29579	0.03378
3604.01002	0.03409
3602.72425	0.03430
3601.43848	0.03444
3600.15272	0.03456
3598.86695	0.03454
3597.58118	0.03441
3596.29541	0.03432
3595.00964	0.03445
3593.72387	0.03466
3592.43810	0.03474
3591.15233	0.03466
3589.86656	0.03462
3588.58080	0.03501
3587.29503	0.03595
3586.00926	0.03702
3584.72349	0.03769
3583.43772	0.03780
3582.15195	0.03762
3580.86618	0.03740
3579.58041	0.03724
3578.29464	0.03699
3577.00888	0.03649
3575.72311	0.03581
3574.43734	0.03525
3573.15157	0.03501
3571.86580	0.03509
3570.58003	0.03533
3569.29426	0.03568
3568.00849	0.03618
3566.72273	0.03679
3565.43696	0.03728
3564.15119	0.03748
3562.86542	0.03744
3561.57965	0.03735
3560.29388	0.03737
3559.00811	0.03756
3557.72234	0.03787
3556.43657	0.03812
3555.15081	0.03808
3553.86504	0.03763
3552.57927	0.03697
3551.29350	0.03643
3550.00773	0.03631
3548.72196	0.03677
3547.43619	0.03776
3546.15042	0.03904
3544.86466	0.04010
3543.57889	0.04047
3542.29312	0.04009
3541.00735	0.03936
3539.72158	0.03875
3538.43581	0.03856
3537.15004	0.03871
3535.86427	0.03901
3534.57850	0.03936
3533.29274	0.03977
3532.00697	0.04031
3530.72120	0.04090
3529.43543	0.04128
3528.14966	0.04117
3526.86389	0.04058
3525.57812	0.03992
3524.29235	0.03961
3523.00659	0.03977
3521.72082	0.04012
3520.43505	0.04032
3519.14928	0.04033
3517.86351	0.04036
3516.57774	0.04062
3515.29197	0.04119
3514.00620	0.04192
3512.72043	0.04258
3511.43467	0.04296
3510.14890	0.04300
3508.86313	0.04280
3507.57736	0.04260
3506.29159	0.04258
3505.00582	0.04279
3503.72005	0.04319
3502.43428	0.04360
3501.14852	0.04382
3499.86275	0.04381
3498.57698	0.04367
3497.29121	0.04354
3496.00544	0.04344
3494.71967	0.04334
3493.43390	0.04329
3492.14813	0.04339
3490.86236	0.04360
3489.57660	0.04376
3488.29083	0.04377
3487.00506	0.04366
3485.71929	0.04355
3484.43352	0.04351
3483.14775	0.04350
3481.86198	0.04343
3480.57621	0.04333
3479.29045	0.04328
3478.00468	0.04336
3476.71891	0.04358
3475.43314	0.04397
3474.14737	0.04451
3472.86160	0.04508
3471.57583	0.04557
3470.29006	0.04590
3469.00429	0.04605
3467.71853	0.04593
3466.43276	0.04549
3465.14699	0.04489
3463.86122	0.04447
3462.57545	0.04441
3461.28968	0.04456
3460.00391	0.04462
3458.71814	0.04449
3457.43238	0.04440
3456.14661	0.04459
3454.86084	0.04502
3453.57507	0.04554
3452.28930	0.04607
3451.00353	0.04658
3449.71776	0.04693
3448.43199	0.04693
3447.14622	0.04661
3445.86046	0.04630
3444.57469	0.04624
3443.28892	0.04644
3442.00315	0.04670
3440.71738	0.04689
3439.43161	0.04695
3438.14584	0.04693
3436.86007	0.04707
3435.57431	0.04747
3434.28854	0.04789
3433.00277	0.04782
3431.71700	0.04712
3430.43123	0.04628
3429.14546	0.04599
3427.85969	0.04639
3426.57392	0.04699
3425.28815	0.04735
3424.00239	0.04749
3422.71662	0.04767
3421.43085	0.04792
3420.14508	0.04799
3418.85931	0.04776
3417.57354	0.04738
3416.28777	0.04711
3415.00200	0.04703
3413.71624	0.04712
3412.43047	0.04729
3411.14470	0.04742
3409.85893	0.04748
3408.57316	0.04758
3407.28739	0.04791
3406.00162	0.04847
3404.71585	0.04905
3403.43008	0.04939
3402.14432	0.04943
3400.85855	0.04927
3399.57278	0.04902
3398.28701	0.04876
3397.00124	0.04847
3395.71547	0.04815
3394.42970	0.04790
3393.14393	0.04783
3391.85817	0.04797
3390.57240	0.04816
3389.28663	0.04827
3388.00086	0.04837
3386.71509	0.04864
3385.42932	0.04916
3384.14355	0.04982
3382.85778	0.05040
3381.57201	0.05081
3380.28625	0.05105
3379.00048	0.05115
3377.71471	0.05107
3376.42894	0.05080
3375.14317	0.05046
3373.85740	0.05028
3372.57163	0.05035
3371.28586	0.05054
3370.00010	0.05070
3368.71433	0.05081
3367.42856	0.05094
3366.14279	0.05102
3364.85702	0.05094
3363.57125	0.05075
3362.28548	0.05063
3360.99971	0.05066
3359.71394	0.05074
3358.42818	0.05069
3357.14241	0.05055
3355.85664	0.05050
3354.57087	0.05068
3353.28510	0.05103
3351.99933	0.05140
3350.71356	0.05169
3349.42779	0.05190
3348.14202	0.05204
3346.85626	0.05210
3345.57049	0.05210
3344.28472	0.05211
3342.99895	0.05224
3341.71318	0.05245
3340.42741	0.05261
3339.14164	0.05260
3337.85587	0.05246
3336.57011	0.05242
3335.28434	0.05259
3333.99857	0.05284
3332.71280	0.05300
3331.42703	0.05300
3330.14126	0.05294
3328.85549	0.05295
3327.56972	0.05313
3326.28395	0.05356
3324.99819	0.05417
3323.71242	0.05470
3322.42665	0.05485
3321.14088	0.05460
3319.85511	0.05418
3318.56934	0.05387
3317.28357	0.05380
3315.99780	0.05396
3314.71204	0.05427
3313.42627	0.05461
3312.14050	0.05483
3310.85473	0.05490
3309.56896	0.05491
3308.28319	0.05499
3306.99742	0.05514
3305.71165	0.05534
3304.42588	0.05557
3303.14012	0.05577
3301.85435	0.05577
3300.56858	0.05538
3299.28281	0.05467
3297.99704	0.05396
3296.71127	0.05360
3295.42550	0.05372
3294.13973	0.05421
3292.85397	0.05483
3291.56820	0.05532
3290.28243	0.05546
3288.99666	0.05512
3287.71089	0.05448
3286.42512	0.05391
3285.13935	0.05375
3283.85358	0.05408
3282.56781	0.05467
3281.28205	0.05524
3279.99628	0.05568
3278.71051	0.05603
3277.42474	0.05630
3276.13897	0.05644
3274.85320	0.05631
3273.56743	0.05590
3272.28166	0.05537
3270.99590	0.05496
3269.71013	0.05479
3268.42436	0.05480
3267.13859	0.05487
3265.85282	0.05496
3264.56705	0.05512
3263.28128	0.05532
3261.99551	0.05540
3260.70974	0.05524
3259.42398	0.05493
3258.13821	0.05475
3256.85244	0.05485
3255.56667	0.05505
3254.28090	0.05502
3252.99513	0.05457
3251.70936	0.05394
3250.42359	0.05357
3249.13783	0.05376
3247.85206	0.05442
3246.56629	0.05521
3245.28052	0.05575
3243.99475	0.05583
3242.70898	0.05540
3241.42321	0.05460
3240.13744	0.05374
3238.85167	0.05312
3237.56591	0.05295
3236.28014	0.05314
3234.99437	0.05347
3233.70860	0.05375
3232.42283	0.05393
3231.13706	0.05409
3229.85129	0.05431
3228.56552	0.05454
3227.27976	0.05463
3225.99399	0.05438
3224.70822	0.05373
3223.42245	0.05294
3222.13668	0.05240
3220.85091	0.05237
3219.56514	0.05271
3218.27937	0.05303
3216.99360	0.05309
3215.70784	0.05299
3214.42207	0.05297
3213.13630	0.05318
3211.85053	0.05349
3210.56476	0.05368
3209.27899	0.05366
3207.99322	0.05352
3206.70745	0.05342
3205.42169	0.05336
3204.13592	0.05322
3202.85015	0.05297
3201.56438	0.05269
3200.27861	0.05240
3198.99284	0.05204
3197.70707	0.05160
3196.42130	0.05123
3195.13553	0.05107
3193.84977	0.05110
3192.56400	0.05122
3191.27823	0.05135
3189.99246	0.05151
3188.70669	0.05167
3187.42092	0.05178
3186.13515	0.05184
3184.84938	0.05192
3183.56362	0.05205
3182.27785	0.05216
3180.99208	0.05210
3179.70631	0.05179
3178.42054	0.05133
3177.13477	0.05090
3175.84900	0.05059
3174.56323	0.05037
3173.27746	0.05023
3171.99170	0.05029
3170.70593	0.05063
3169.42016	0.05120
3168.13439	0.05172
3166.84862	0.05186
3165.56285	0.05152
3164.27708	0.05086
3162.99131	0.05023
3161.70555	0.04987
3160.41978	0.04980
3159.13401	0.04986
3157.84824	0.04988
3156.56247	0.04983
3155.27670	0.04973
3153.99093	0.04966
3152.70516	0.04970
3151.41939	0.04988
3150.13363	0.05013
3148.84786	0.05031
3147.56209	0.05028
3146.27632	0.04999
3144.99055	0.04953
3143.70478	0.04901
3142.41901	0.04859
3141.13324	0.04841
3139.84748	0.04856
3138.56171	0.04892
3137.27594	0.04926
3135.99017	0.04940
3134.70440	0.04936
3133.41863	0.04924
3132.13286	0.04916
3130.84709	0.04911
3129.56132	0.04902
3128.27556	0.04879
3126.98979	0.04846
3125.70402	0.04823
3124.41825	0.04826
3123.13248	0.04851
3121.84671	0.04870
3120.56094	0.04857
3119.27517	0.04812
3117.98940	0.04760
3116.70364	0.04728
3115.41787	0.04726
3114.13210	0.04741
3112.84633	0.04750
3111.56056	0.04747
3110.27479	0.04741
3108.98902	0.04747
3107.70325	0.04760
3106.41749	0.04762
3105.13172	0.04742
3103.84595	0.04716
3102.56018	0.04711
3101.27441	0.04733
3099.98864	0.04761
3098.70287	0.04764
3097.41710	0.04738
3096.13133	0.04703
3094.84557	0.04693
3093.55980	0.04718
3092.27403	0.04765
3090.98826	0.04802
3089.70249	0.04808
3088.41672	0.04786
3087.13095	0.04760
3085.84518	0.04747
3084.55942	0.04747
3083.27365	0.04755
3081.98788	0.04763
3080.70211	0.04767
3079.41634	0.04765
3078.13057	0.04758
3076.84480	0.04758
3075.55903	0.04767
3074.27326	0.04779
3072.98750	0.04786
3071.70173	0.04785
3070.41596	0.04771
3069.13019	0.04735
3067.84442	0.04674
3066.55865	0.04609
3065.27288	0.04570
3063.98711	0.04564
3062.70135	0.04578
3061.41558	0.04591
3060.12981	0.04607
3058.84404	0.04631
3057.55827	0.04658
3056.27250	0.04664
3054.98673	0.04636
3053.70096	0.04587
3052.41519	0.04543
3051.12943	0.04523
3049.84366	0.04524
3048.55789	0.04532
3047.27212	0.04535
3045.98635	0.04530
3044.70058	0.04526
3043.41481	0.04535
3042.12904	0.04562
3040.84328	0.04598
3039.55751	0.04613
3038.27174	0.04590
3036.98597	0.04539
3035.70020	0.04487
3034.41443	0.04454
3033.12866	0.04442
3031.84289	0.04442
3030.55712	0.04447
3029.27136	0.04451
3027.98559	0.04450
3026.69982	0.04432
3025.41405	0.04395
3024.12828	0.04352
3022.84251	0.04322
3021.55674	0.04314
3020.27097	0.04321
3018.98521	0.04333
3017.69944	0.04349
3016.41367	0.04372
3015.12790	0.04395
3013.84213	0.04407
3012.55636	0.04391
3011.27059	0.04345
3009.98482	0.04284
3008.69905	0.04233
3007.41329	0.04210
3006.12752	0.04213
3004.84175	0.04231
3003.55598	0.04252
3002.27021	0.04266
3000.98444	0.04268
2999.69867	0.04256
2998.41290	0.04242
2997.12714	0.04246
2995.84137	0.04272
2994.55560	0.04304
2993.26983	0.04316
2991.98406	0.04301
2990.69829	0.04276
2989.41252	0.04264
2988.12675	0.04271
2986.84098	0.04292
2985.55522	0.04314
2984.26945	0.04326
2982.98368	0.04323
2981.69791	0.04311
2980.41214	0.04303
2979.12637	0.04302
2977.84060	0.04304
2976.55483	0.04302
2975.26907	0.04296
2973.98330	0.04296
2972.69753	0.04307
2971.41176	0.04324
2970.12599	0.04339
2968.84022	0.04354
2967.55445	0.04382
2966.26868	0.04433
2964.98291	0.04498
2963.69715	0.04548
2962.41138	0.04567
2961.12561	0.04564
2959.83984	0.04560
2958.55407	0.04566
2957.26830	0.04584
2955.98253	0.04614
2954.69676	0.04646
2953.41100	0.04665
2952.12523	0.04664
2950.83946	0.04653
2949.55369	0.04647
2948.26792	0.04652
2946.98215	0.04653
2945.69638	0.04644
2944.41061	0.04628
2943.12484	0.04620
2941.83908	0.04622
2940.55331	0.04628
2939.26754	0.04631
2937.98177	0.04635
2936.69600	0.04645
2935.41023	0.04659
2934.12446	0.04675
2932.83869	0.04694
2931.55293	0.04717
2930.26716	0.04742
2928.98139	0.04761
2927.69562	0.04766
2926.40985	0.04756
2925.12408	0.04738
2923.83831	0.04722
2922.55254	0.04708
2921.26677	0.04690
2919.98101	0.04672
2918.69524	0.04671
2917.40947	0.04693
2916.12370	0.04725
2914.83793	0.04740
2913.55216	0.04722
2912.26639	0.04681
2910.98062	0.04639
2909.69486	0.04614
2908.40909	0.04608
2907.12332	0.04608
2905.83755	0.04597
2904.55178	0.04576
2903.26601	0.04562
2901.98024	0.04565
2900.69447	0.04577
2899.40870	0.04574
2898.12294	0.04548
2896.83717	0.04510
2895.55140	0.04474
2894.26563	0.04445
2892.97986	0.04412
2891.69409	0.04368
2890.40832	0.04324
2889.12255	0.04297
2887.83678	0.04293
2886.55102	0.04302
2885.26525	0.04306
2883.97948	0.04295
2882.69371	0.04274
2881.40794	0.04257
2880.12217	0.04259
2878.83640	0.04278
2877.55063	0.04298
2876.26487	0.04303
2874.97910	0.04297
2873.69333	0.04296
2872.40756	0.04306
2871.12179	0.04317
2869.83602	0.04319
2868.55025	0.04306
2867.26448	0.04282
2865.97871	0.04253
2864.69295	0.04232
2863.40718	0.04228
2862.12141	0.04247
2860.83564	0.04282
2859.54987	0.04313
2858.26410	0.04324
2856.97833	0.04312
2855.69256	0.04283
2854.40680	0.04243
2853.12103	0.04203
2851.83526	0.04167
2850.54949	0.04134
2849.26372	0.04102
2847.97795	0.04074
2846.69218	0.04053
2845.40641	0.04036
2844.12064	0.04018
2842.83488	0.04003
2841.54911	0.04001
2840.26334	0.04012
2838.97757	0.04021
2837.69180	0.04012
2836.40603	0.03982
2835.12026	0.03952
2833.83449	0.03945
2832.54873	0.03966
2831.26296	0.03993
2829.97719	0.04000
2828.69142	0.03981
2827.40565	0.03953
2826.11988	0.03930
2824.83411	0.03910
2823.54834	0.03885
2822.26257	0.03855
2820.97681	0.03829
2819.69104	0.03811
2818.40527	0.03799
2817.11950	0.03789
2815.83373	0.03782
2814.54796	0.03773
2813.26219	0.03756
2811.97642	0.03732
2810.69066	0.03711
2809.40489	0.03697
2808.11912	0.03685
2806.83335	0.03671
2805.54758	0.03662
2804.26181	0.03663
2802.97604	0.03670
2801.69027	0.03673
2800.40450	0.03669
2799.11874	0.03658
2797.83297	0.03638
2796.54720	0.03606
2795.26143	0.03575
2793.97566	0.03557
2792.68989	0.03557
2791.40412	0.03565
2790.11835	0.03574
2788.83259	0.03588
2787.54682	0.03606
2786.26105	0.03613
2784.97528	0.03596
2783.68951	0.03559
2782.40374	0.03525
2781.11797	0.03511
2779.83220	0.03511
2778.54643	0.03511
2777.26067	0.03503
2775.97490	0.03494
2774.68913	0.03493
2773.40336	0.03499
2772.11759	0.03503
2770.83182	0.03502
2769.54605	0.03495
2768.26028	0.03485
2766.97452	0.03473
2765.68875	0.03464
2764.40298	0.03463
2763.11721	0.03473
2761.83144	0.03484
2760.54567	0.03488
2759.25990	0.03485
2757.97413	0.03480
2756.68836	0.03476
2755.40260	0.03476
2754.11683	0.03479
2752.83106	0.03482
2751.54529	0.03477
2750.25952	0.03460
2748.97375	0.03443
2747.68798	0.03437
2746.40221	0.03441
2745.11645	0.03443
2743.83068	0.03435
2742.54491	0.03423
2741.25914	0.03412
2739.97337	0.03402
2738.68760	0.03386
2737.40183	0.03367
2736.11606	0.03356
2734.83029	0.03357
2733.54453	0.03363
2732.25876	0.03358
2730.97299	0.03339
2729.68722	0.03311
2728.40145	0.03290
2727.11568	0.03279
2725.82991	0.03282
2724.54414	0.03295
2723.25838	0.03312
2721.97261	0.03321
2720.68684	0.03317
2719.40107	0.03307
2718.11530	0.03304
2716.82953	0.03309
2715.54376	0.03312
2714.25799	0.03305
2712.97222	0.03294
2711.68646	0.03288
2710.40069	0.03284
2709.11492	0.03270
2707.82915	0.03240
2706.54338	0.03202
2705.25761	0.03178
2703.97184	0.03181
2702.68607	0.03202
2701.40031	0.03219
2700.11454	0.03219
2698.82877	0.03213
2697.54300	0.03212
2696.25723	0.03215
2694.97146	0.03208
2693.68569	0.03187
2692.39992	0.03164
2691.11415	0.03152
2689.82839	0.03150
2688.54262	0.03147
2687.25685	0.03137
2685.97108	0.03132
2684.68531	0.03145
2683.39954	0.03176
2682.11377	0.03205
2680.82800	0.03214
2679.54224	0.03199
2678.25647	0.03175
2676.97070	0.03158
2675.68493	0.03150
2674.39916	0.03147
2673.11339	0.03144
2671.82762	0.03140
2670.54185	0.03137
2669.25608	0.03134
2667.97032	0.03131
2666.68455	0.03132
2665.39878	0.03142
2664.11301	0.03157
2662.82724	0.03168
2661.54147	0.03164
2660.25570	0.03148
2658.96993	0.03124
2657.68417	0.03100
2656.39840	0.03082
2655.11263	0.03072
2653.82686	0.03069
2652.54109	0.03066
2651.25532	0.03062
2649.96955	0.03058
2648.68378	0.03056
2647.39801	0.03057
2646.11225	0.03054
2644.82648	0.03048
2643.54071	0.03043
2642.25494	0.03041
2640.96917	0.03034
2639.68340	0.03014
2638.39763	0.02982
2637.11186	0.02945
2635.82609	0.02913
2634.54033	0.02898
2633.25456	0.02911
2631.96879	0.02942
2630.68302	0.02959
2629.39725	0.02941
2628.11148	0.02899
2626.82571	0.02865
2625.53994	0.02851
2624.25418	0.02840
2622.96841	0.02817
2621.68264	0.02791
2620.39687	0.02775
2619.11110	0.02763
2617.82533	0.02741
2616.53956	0.02712
2615.25379	0.02691
2613.96802	0.02690
2612.68226	0.02700
2611.39649	0.02711
2610.11072	0.02716
2608.82495	0.02720
2607.53918	0.02733
2606.25341	0.02754
2604.96764	0.02771
2603.68187	0.02769
2602.39611	0.02749
2601.11034	0.02729
2599.82457	0.02721
2598.53880	0.02720
2597.25303	0.02717
2595.96726	0.02703
2594.68149	0.02681
2593.39572	0.02656
2592.10995	0.02640
2590.82419	0.02636
2589.53842	0.02642
2588.25265	0.02647
2586.96688	0.02642
2585.68111	0.02630
2584.39534	0.02623
2583.10957	0.02625
2581.82380	0.02623
2580.53804	0.02602
2579.25227	0.02569
2577.96650	0.02544
2576.68073	0.02533
2575.39496	0.02526
2574.10919	0.02516
2572.82342	0.02514
2571.53765	0.02532
2570.25188	0.02556
2568.96612	0.02562
2567.68035	0.02549
2566.39458	0.02535
2565.10881	0.02532
2563.82304	0.02533
2562.53727	0.02528
2561.25150	0.02522
2559.96573	0.02520
2558.67997	0.02517
2557.39420	0.02516
2556.10843	0.02518
2554.82266	0.02517
2553.53689	0.02500
2552.25112	0.02472
2550.96535	0.02460
2549.67958	0.02475
2548.39381	0.02500
2547.10805	0.02507
2545.82228	0.02487
2544.53651	0.02457
2543.25074	0.02438
2541.96497	0.02437
2540.67920	0.02447
2539.39343	0.02447
2538.10766	0.02424
2536.82190	0.02380
2535.53613	0.02336
2534.25036	0.02313
2532.96459	0.02319
2531.67882	0.02343
2530.39305	0.02369
2529.10728	0.02383
2527.82151	0.02381
2526.53574	0.02365
2525.24998	0.02349
2523.96421	0.02349
2522.67844	0.02368
2521.39267	0.02395
2520.10690	0.02413
2518.82113	0.02416
2517.53536	0.02408
2516.24959	0.02396
2514.96383	0.02382
2513.67806	0.02364
2512.39229	0.02344
2511.10652	0.02332
2509.82075	0.02339
2508.53498	0.02363
2507.24921	0.02393
2505.96344	0.02417
2504.67767	0.02428
2503.39191	0.02420
2502.10614	0.02398
2500.82037	0.02374
2499.53460	0.02362
2498.24883	0.02363
2496.96306	0.02360
2495.67729	0.02340
2494.39152	0.02312
2493.10576	0.02303
2491.81999	0.02322
2490.53422	0.02350
2489.24845	0.02349
2487.96268	0.02311
2486.67691	0.02262
2485.39114	0.02235
2484.10537	0.02235
2482.81960	0.02246
2481.53384	0.02259
2480.24807	0.02279
2478.96230	0.02310
2477.67653	0.02348
2476.39076	0.02383
2475.10499	0.02401
2473.81922	0.02397
2472.53345	0.02372
2471.24769	0.02337
2469.96192	0.02300
2468.67615	0.02271
2467.39038	0.02264
2466.10461	0.02291
2464.81884	0.02344
2463.53307	0.02387
2462.24730	0.02392
2460.96153	0.02362
2459.67577	0.02331
2458.39000	0.02325
2457.10423	0.02333
2455.81846	0.02325
2454.53269	0.02297
2453.24692	0.02272
2451.96115	0.02275
2450.67538	0.02297
2449.38962	0.02316
2448.10385	0.02317
2446.81808	0.02302
2445.53231	0.02282
2444.24654	0.02269
2442.96077	0.02267
2441.67500	0.02266
2440.38923	0.02251
2439.10346	0.02222
2437.81770	0.02198
2436.53193	0.02196
2435.24616	0.02205
2433.96039	0.02204
2432.67462	0.02191
2431.38885	0.02185
2430.10308	0.02197
2428.81731	0.02213
2427.53155	0.02210
2426.24578	0.02183
2424.96001	0.02150
2423.67424	0.02133
2422.38847	0.02135
2421.10270	0.02143
2419.81693	0.02150
2418.53116	0.02161
2417.24539	0.02176
2415.95963	0.02189
2414.67386	0.02200
2413.38809	0.02214
2412.10232	0.02230
2410.81655	0.02232
2409.53078	0.02209
2408.24501	0.02173
2406.95924	0.02153
2405.67347	0.02167
2404.38771	0.02208
2403.10194	0.02253
2401.81617	0.02281
2400.53040	0.02287
2399.24463	0.02274
2397.95886	0.02248
2396.67309	0.02212
2395.38732	0.02173
2394.10156	0.02143
2392.81579	0.02130
2391.53002	0.02135
2390.24425	0.02152
2388.95848	0.02175
2387.67271	0.02197
2386.38694	0.02216
2385.10117	0.02234
2383.81540	0.02257
2382.52964	0.02287
2381.24387	0.02314
2379.95810	0.02324
2378.67233	0.02319
2377.38656	0.02291
2376.10079	0.02242
2374.81502	0.02201
2373.52925	0.02228
2372.24349	0.02308
2370.95772	0.02362
2369.67195	0.02347
2368.38618	0.02297
2367.10041	0.02273
2365.81464	0.02263
2364.52887	0.02255
2363.24310	0.02245
2361.95733	0.02261
2360.67157	0.02337
2359.38580	0.02411
2358.10003	0.02413
2356.81426	0.02349
2355.52849	0.02266
2354.24272	0.02196
2352.95695	0.02166
2351.67118	0.02206
2350.38542	0.02262
2349.09965	0.02263
2347.81388	0.02237
2346.52811	0.02269
2345.24234	0.02302
2343.95657	0.02219
2342.67080	0.02071
2341.38503	0.02116
2340.09926	0.02305
2338.81350	0.02286
2337.52773	0.02092
2336.24196	0.02133
2334.95619	0.02320
2333.67042	0.02274
2332.38465	0.02087
2331.09888	0.02168
2329.81311	0.02235
2328.52735	0.02120
2327.24158	0.02175
2325.95581	0.02324
2324.67004	0.02323
2323.38427	0.02287
2322.09850	0.02323
2320.81273	0.02272
2319.52696	0.02261
2318.24119	0.02297
2316.95543	0.02285
2315.66966	0.02292
2314.38389	0.02294
2313.09812	0.02266
2311.81235	0.02269
2310.52658	0.02250
2309.24081	0.02209
2307.95504	0.02183
2306.66928	0.02152
2305.38351	0.02140
2304.09774	0.02138
2302.81197	0.02137
2301.52620	0.02144
2300.24043	0.02137
2298.95466	0.02116
2297.66889	0.02087
2296.38312	0.02066
2295.09736	0.02063
2293.81159	0.02065
2292.52582	0.02060
2291.24005	0.02037
2289.95428	0.02005
2288.66851	0.01985
2287.38274	0.01989
2286.09697	0.02012
2284.81121	0.02037
2283.52544	0.02044
2282.23967	0.02020
2280.95390	0.01970
2279.66813	0.01916
2278.38236	0.01878
2277.09659	0.01866
2275.81082	0.01867
2274.52505	0.01865
2273.23929	0.01855
2271.95352	0.01845
2270.66775	0.01845
2269.38198	0.01851
2268.09621	0.01851
2266.81044	0.01842
2265.52467	0.01833
2264.23890	0.01832
2262.95314	0.01845
2261.66737	0.01858
2260.38160	0.01847
2259.09583	0.01804
2257.81006	0.01750
2256.52429	0.01708
2255.23852	0.01685
2253.95275	0.01670
2252.66698	0.01649
2251.38122	0.01622
2250.09545	0.01609
2248.80968	0.01625
2247.52391	0.01649
2246.23814	0.01681
2244.95237	0.01716
2243.66660	0.01747
2242.38083	0.01763
2241.09507	0.01753
2239.80930	0.01719
2238.52353	0.01669
2237.23776	0.01621
2235.95199	0.01592
2234.66622	0.01589
2233.38045	0.01592
2232.09468	0.01572
2230.80891	0.01515
2229.52315	0.01440
2228.23738	0.01391
2226.95161	0.01396
2225.66584	0.01453
2224.38007	0.01530
2223.09430	0.01592
2221.80853	0.01619
2220.52276	0.01612
2219.23700	0.01577
2217.95123	0.01527
2216.66546	0.01481
2215.37969	0.01458
2214.09392	0.01457
2212.80815	0.01455
2211.52238	0.01427
2210.23661	0.01366
2208.95084	0.01301
2207.66508	0.01284
2206.37931	0.01344
2205.09354	0.01452
2203.80777	0.01533
2202.52200	0.01536
2201.23623	0.01475
2199.95046	0.01392
2198.66469	0.01314
2197.37893	0.01242
2196.09316	0.01187
2194.80739	0.01164
2193.52162	0.01158
2192.23585	0.01136
2190.95008	0.01100
2189.66431	0.01081
2188.37854	0.01089
2187.09277	0.01096
2185.80701	0.01087
2184.52124	0.01096
2183.23547	0.01167
2181.94970	0.01279
2180.66393	0.01355
2179.37816	0.01326
2178.09239	0.01200
2176.80662	0.01057
2175.52085	0.00978
2174.23509	0.00969
2172.94932	0.00974
2171.66355	0.00950
2170.37778	0.00908
2169.09201	0.00883
2167.80624	0.00890
2166.52047	0.00921
2165.23470	0.00947
2163.94894	0.00932
2162.66317	0.00856
2161.37740	0.00734
2160.09163	0.00620
2158.80586	0.00566
2157.52009	0.00569
2156.23432	0.00579
2154.94855	0.00574
2153.66278	0.00590
2152.37702	0.00676
2151.09125	0.00822
2149.80548	0.00959
2148.51971	0.01027
2147.23394	0.01035
2145.94817	0.01034
2144.66240	0.01058
2143.37663	0.01092
2142.09087	0.01091
2140.80510	0.01043
2139.51933	0.00984
2138.23356	0.00962
2136.94779	0.00980
2135.66202	0.01002
2134.37625	0.01009
2133.09048	0.01014
2131.80471	0.01019
2130.51895	0.01016
2129.23318	0.01021
2127.94741	0.01076
2126.66164	0.01189
2125.37587	0.01303
2124.09010	0.01346
2122.80433	0.01307
2121.51856	0.01240
2120.23280	0.01196
2118.94703	0.01181
2117.66126	0.01175
2116.37549	0.01173
2115.08972	0.01187
2113.80395	0.01225
2112.51818	0.01275
2111.23241	0.01317
2109.94664	0.01338
2108.66088	0.01332
2107.37511	0.01302
2106.08934	0.01262
2104.80357	0.01241
2103.51780	0.01249
2102.23203	0.01256
2100.94626	0.01223
2099.66049	0.01119
2098.37473	0.01041
2097.08896	0.01024
2095.80319	0.01051
2094.51742	0.01087
2093.23165	0.01110
2091.94588	0.01124
2090.66011	0.01141
2089.37434	0.01165
2088.08857	0.01187
2086.80281	0.01203
2085.51704	0.01217
2084.23127	0.01233
2082.94550	0.01243
2081.65973	0.01241
2080.37396	0.01229
2079.08819	0.01220
2077.80242	0.01217
2076.51666	0.01206
2075.23089	0.01169
2073.94512	0.01107
2072.65935	0.01048
2071.37358	0.01016
2070.08781	0.01014
2068.80204	0.01029
2067.51627	0.01062
2066.23050	0.01122
2064.94474	0.01192
2063.65897	0.01228
2062.37320	0.01200
2061.08743	0.01123
2059.80166	0.01030
2058.51589	0.00937
2057.23012	0.00848
2055.94435	0.00782
2054.65859	0.00766
2053.37282	0.00797
2052.08705	0.00834
2050.80128	0.00826
2049.51551	0.00759
2048.22974	0.00660
2046.94397	0.00575
2045.65820	0.00525
2044.37243	0.00503
2043.08667	0.00495
2041.80090	0.00488
2040.51513	0.00477
2039.22936	0.00461
2037.94359	0.00453
2036.65782	0.00467
2035.37205	0.00513
2034.08628	0.00586
2032.80052	0.00661
2031.51475	0.00690
2030.22898	0.00634
2028.94321	0.00515
2027.65744	0.00421
2026.37167	0.00428
2025.08590	0.00520
2023.80013	0.00606
2022.51436	0.00607
2021.22860	0.00532
2019.94283	0.00450
2018.65706	0.00421
2017.37129	0.00456
2016.08552	0.00527
2014.79975	0.00600
2013.51398	0.00656
2012.22821	0.00684
2010.94245	0.00686
2009.65668	0.00664
2008.37091	0.00623
2007.08514	0.00571
2005.79937	0.00523
2004.51360	0.00496
2003.22783	0.00506
2001.94206	0.00555
2000.65629	0.00633
1999.37053	0.00712
1998.08476	0.00764
1996.79899	0.00782
1995.51322	0.00792
1994.22745	0.00817
1992.94168	0.00845
1991.65591	0.00846
1990.37014	0.00810
1989.08438	0.00765
1987.79861	0.00754
1986.51284	0.00794
1985.22707	0.00858
1983.94130	0.00896
1982.65553	0.00871
1981.36976	0.00800
1980.08399	0.00742
1978.79822	0.00738
1977.51246	0.00771
1976.22669	0.00788
1974.94092	0.00775
1973.65515	0.00767
1972.36938	0.00784
1971.08361	0.00801
1969.79784	0.00790
1968.51207	0.00763
1967.22631	0.00763
1965.94054	0.00818
1964.65477	0.00913
1963.36900	0.01004
1962.08323	0.01051
1960.79746	0.01056
1959.51169	0.01046
1958.22592	0.01036
1956.94015	0.01010
1955.65439	0.00952
1954.36862	0.00885
1953.08285	0.00855
1951.79708	0.00883
1950.51131	0.00948
1949.22554	0.01009
1947.93977	0.01050
1946.65400	0.01073
1945.36823	0.01082
1944.08247	0.01064
1942.79670	0.01016
1941.51093	0.00952
1940.22516	0.00904
1938.93939	0.00898
1937.65362	0.00930
1936.36785	0.00979
1935.08208	0.01023
1933.79632	0.01054
1932.51055	0.01078
1931.22478	0.01107
1929.93901	0.01148
1928.65324	0.01200
1927.36747	0.01250
1926.08170	0.01283
1924.79593	0.01290
1923.51016	0.01273
1922.22440	0.01244
1920.93863	0.01213
1919.65286	0.01188
1918.36709	0.01174
1917.08132	0.01167
1915.79555	0.01162
1914.50978	0.01160
1913.22401	0.01156
1911.93825	0.01138
1910.65248	0.01102
1909.36671	0.01065
1908.08094	0.01053
1906.79517	0.01068
1905.50940	0.01094
1904.22363	0.01117
1902.93786	0.01133
1901.65209	0.01140
1900.36633	0.01136
1899.08056	0.01122
1897.79479	0.01106
1896.50902	0.01102
1895.22325	0.01114
1893.93748	0.01139
1892.65171	0.01170
1891.36594	0.01204
1890.08018	0.01239
1888.79441	0.01270
1887.50864	0.01293
1886.22287	0.01302
1884.93710	0.01295
1883.65133	0.01276
1882.36556	0.01254
1881.07979	0.01241
1879.79402	0.01240
1878.50826	0.01238
1877.22249	0.01223
1875.93672	0.01198
1874.65095	0.01178
1873.36518	0.01176
1872.07941	0.01189
1870.79364	0.01203
1869.50787	0.01211
1868.22211	0.01217
1866.93634	0.01226
1865.65057	0.01237
1864.36480	0.01243
1863.07903	0.01241
1861.79326	0.01236
1860.50749	0.01242
1859.22172	0.01265
1857.93595	0.01292
1856.65019	0.01303
1855.36442	0.01287
1854.07865	0.01257
1852.79288	0.01232
1851.50711	0.01221
1850.22134	0.01223
1848.93557	0.01238
1847.64980	0.01266
1846.36404	0.01289
1845.07827	0.01298
1843.79250	0.01298
1842.50673	0.01298
1841.22096	0.01295
1839.93519	0.01283
1838.64942	0.01271
1837.36365	0.01268
1836.07788	0.01270
1834.79212	0.01272
1833.50635	0.01268
1832.22058	0.01255
1830.93481	0.01238
1829.64904	0.01228
1828.36327	0.01225
1827.07750	0.01225
1825.79173	0.01230
1824.50597	0.01246
1823.22020	0.01261
1821.93443	0.01260
1820.64866	0.01242
1819.36289	0.01224
1818.07712	0.01221
1816.79135	0.01234
1815.50558	0.01258
1814.21981	0.01281
1812.93405	0.01299
1811.64828	0.01308
1810.36251	0.01310
1809.07674	0.01306
1807.79097	0.01299
1806.50520	0.01293
1805.21943	0.01292
1803.93366	0.01295
1802.64790	0.01298
1801.36213	0.01299
1800.07636	0.01299
1798.79059	0.01302
1797.50482	0.01310
1796.21905	0.01322
1794.93328	0.01327
1793.64751	0.01316
1792.36174	0.01297
1791.07598	0.01282
1789.79021	0.01275
1788.50444	0.01269
1787.21867	0.01260
1785.93290	0.01251
1784.64713	0.01246
1783.36136	0.01248
1782.07559	0.01252
1780.78983	0.01250
1779.50406	0.01245
1778.21829	0.01241
1776.93252	0.01243
1775.64675	0.01249
1774.36098	0.01250
1773.07521	0.01248
1771.78944	0.01256
1770.50367	0.01271
1769.21791	0.01282
1767.93214	0.01291
1766.64637	0.01308
1765.36060	0.01325
1764.07483	0.01328
1762.78906	0.01320
1761.50329	0.01316
1760.21752	0.01315
1758.93176	0.01306
1757.64599	0.01289
1756.36022	0.01278
1755.07445	0.01280
1753.78868	0.01278
1752.50291	0.01266
1751.21714	0.01257
1749.93137	0.01262
1748.64560	0.01274
1747.35984	0.01281
1746.07407	0.01281
1744.78830	0.01278
1743.50253	0.01273
1742.21676	0.01262
1740.93099	0.01244
1739.64522	0.01234
1738.35945	0.01245
1737.07369	0.01255
1735.78792	0.01241
1734.50215	0.01220
1733.21638	0.01225
1731.93061	0.01255
1730.64484	0.01281
1729.35907	0.01290
1728.07330	0.01291
1726.78753	0.01291
1725.50177	0.01294
1724.21600	0.01305
1722.93023	0.01329
1721.64446	0.01355
1720.35869	0.01361
1719.07292	0.01345
1717.78715	0.01334
1716.50138	0.01351
1715.21561	0.01385
1713.92985	0.01415
1712.64408	0.01434
1711.35831	0.01453
1710.07254	0.01478
1708.78677	0.01513
1707.50100	0.01553
1706.21523	0.01603
1704.92946	0.01667
1703.64370	0.01730
1702.35793	0.01772
1701.07216	0.01809
1699.78639	0.01883
1698.50062	0.01986
1697.21485	0.02074
1695.92908	0.02149
1694.64331	0.02244
1693.35754	0.02353
1692.07178	0.02445
1690.78601	0.02526
1689.50024	0.02616
1688.21447	0.02710
1686.92870	0.02780
1685.64293	0.02825
1684.35716	0.02883
1683.07139	0.02976
1681.78563	0.03076
1680.49986	0.03160
1679.21409	0.03236
1677.92832	0.03312
1676.64255	0.03390
1675.35678	0.03480
1674.07101	0.03588
1672.78524	0.03694
1671.49947	0.03778
1670.21371	0.03847
1668.92794	0.03921
1667.64217	0.04008
1666.35640	0.04094
1665.07063	0.04170
1663.78486	0.04240
1662.49909	0.04315
1661.21332	0.04395
1659.92756	0.04473
1658.64179	0.04548
1657.35602	0.04621
1656.07025	0.04672
1654.78448	0.04688
1653.49871	0.04702
1652.21294	0.04765
1650.92717	0.04863
1649.64140	0.04938
1648.35564	0.04966
1647.06987	0.04976
1645.78410	0.05002
1644.49833	0.05040
1643.21256	0.05072
1641.92679	0.05089
1640.64102	0.05097
1639.35525	0.05098
1638.06949	0.05079
1636.78372	0.05042
1635.49795	0.05007
1634.21218	0.04987
1632.92641	0.04964
1631.64064	0.04915
1630.35487	0.04844
1629.06910	0.04766
1627.78333	0.04694
1626.49757	0.04625
1625.21180	0.04548
1623.92603	0.04463
1622.64026	0.04382
1621.35449	0.04310
1620.06872	0.04229
1618.78295	0.04125
1617.49718	0.04012
1616.21142	0.03922
1614.92565	0.03860
1613.63988	0.03800
1612.35411	0.03728
1611.06834	0.03654
1609.78257	0.03586
1608.49680	0.03522
1607.21103	0.03459
1605.92526	0.03400
1604.63950	0.03347
1603.35373	0.03300
1602.06796	0.03259
1600.78219	0.03221
1599.49642	0.03187
1598.21065	0.03160
1596.92488	0.03140
1595.63911	0.03127
1594.35335	0.03121
1593.06758	0.03119
1591.78181	0.03120
1590.49604	0.03119
1589.21027	0.03118
1587.92450	0.03118
1586.63873	0.03125
1585.35296	0.03139
1584.06719	0.03158
1582.78143	0.03183
1581.49566	0.03215
1580.20989	0.03255
1578.92412	0.03288
1577.63835	0.03307
1576.35258	0.03332
1575.06681	0.03387
1573.78104	0.03457
1572.49528	0.03505
1571.20951	0.03531
1569.92374	0.03560
1568.63797	0.03611
1567.35220	0.03671
1566.06643	0.03722
1564.78066	0.03763
1563.49489	0.03802
1562.20912	0.03828
1560.92336	0.03835
1559.63759	0.03848
1558.35182	0.03895
1557.06605	0.03965
1555.78028	0.04022
1554.49451	0.04059
1553.20874	0.04096
1551.92297	0.04134
1550.63721	0.04162
1549.35144	0.04183
1548.06567	0.04199
1546.77990	0.04210
1545.49413	0.04219
1544.20836	0.04232
1542.92259	0.04244
1541.63682	0.04245
1540.35105	0.04241
1539.06529	0.04253
1537.77952	0.04282
1536.49375	0.04299
1535.20798	0.04288
1533.92221	0.04270
1532.63644	0.04266
1531.35067	0.04273
1530.06490	0.04274
1528.77914	0.04268
1527.49337	0.04261
1526.20760	0.04260
1524.92183	0.04260
1523.63606	0.04251
1522.35029	0.04234
1521.06452	0.04233
1519.77875	0.04256
1518.49298	0.04283
1517.20722	0.04300
1515.92145	0.04317
1514.63568	0.04337
1513.34991	0.04355
1512.06414	0.04373
1510.77837	0.04393
1509.49260	0.04405
1508.20683	0.04401
1506.92107	0.04398
1505.63530	0.04417
1504.34953	0.04455
1503.06376	0.04483
1501.77799	0.04495
1500.49222	0.04499
1499.20645	0.04501
1497.92068	0.04496
1496.63491	0.04490
1495.34915	0.04495
1494.06338	0.04509
1492.77761	0.04519
1491.49184	0.04523
1490.20607	0.04532
1488.92030	0.04551
1487.63453	0.04575
1486.34876	0.04604
1485.06299	0.04637
1483.77723	0.04673
1482.49146	0.04710
1481.20569	0.04750
1479.91992	0.04794
1478.63415	0.04842
1477.34838	0.04895
1476.06261	0.04950
1474.77684	0.05002
1473.49108	0.05048
1472.20531	0.05100
1470.91954	0.05162
1469.63377	0.05223
1468.34800	0.05270
1467.06223	0.05302
1465.77646	0.05332
1464.49069	0.05377
1463.20492	0.05438
1461.91916	0.05501
1460.63339	0.05550
1459.34762	0.05577
1458.06185	0.05597
1456.77608	0.05639
1455.49031	0.05708
1454.20454	0.05777
1452.91877	0.05821
1451.63301	0.05843
1450.34724	0.05855
1449.06147	0.05865
1447.77570	0.05874
1446.48993	0.05880
1445.20416	0.05876
1443.91839	0.05856
1442.63262	0.05828
1441.34685	0.05802
1440.06109	0.05781
1438.77532	0.05760
1437.48955	0.05741
1436.20378	0.05739
1434.91801	0.05754
1433.63224	0.05774
1432.34647	0.05790
1431.06070	0.05811
1429.77494	0.05841
1428.48917	0.05882
1427.20340	0.05928
1425.91763	0.05976
1424.63186	0.06029
1423.34609	0.06088
1422.06032	0.06142
1420.77455	0.06187
1419.48878	0.06232
1418.20302	0.06287
1416.91725	0.06342
1415.63148	0.06382
1414.34571	0.06407
1413.05994	0.06426
1411.77417	0.06439
1410.48840	0.06445
1409.20263	0.06439
1407.91687	0.06422
1406.63110	0.06393
1405.34533	0.06357
1404.05956	0.06320
1402.77379	0.06281
1401.48802	0.06231
1400.20225	0.06165
1398.91648	0.06089
1397.63071	0.06006
1396.34495	0.05918
1395.05918	0.05828
1393.77341	0.05740
1392.48764	0.05654
1391.20187	0.05562
1389.91610	0.05461
1388.63033	0.05354
1387.34456	0.05249
1386.05880	0.05151
1384.77303	0.05055
1383.48726	0.04956
1382.20149	0.04857
1380.91572	0.04763
1379.62995	0.04672
1378.34418	0.04580
1377.05841	0.04482
1375.77264	0.04374
1374.48688	0.04262
1373.20111	0.04154
1371.91534	0.04054
1370.62957	0.03959
1369.34380	0.03867
1368.05803	0.03777
1366.77226	0.03691
1365.48649	0.03609
1364.20073	0.03529
1362.91496	0.03454
1361.62919	0.03383
1360.34342	0.03315
1359.05765	0.03251
1357.77188	0.03196
1356.48611	0.03150
1355.20034	0.03112
1353.91457	0.03078
1352.62881	0.03047
1351.34304	0.03016
1350.05727	0.02987
1348.77150	0.02961
1347.48573	0.02941
1346.19996	0.02927
1344.91419	0.02915
1343.62842	0.02901
1342.34266	0.02879
1341.05689	0.02851
1339.77112	0.02825
1338.48535	0.02808
1337.19958	0.02798
1335.91381	0.02789
1334.62804	0.02773
1333.34227	0.02750
1332.05650	0.02724
1330.77074	0.02701
1329.48497	0.02680
1328.19920	0.02658
1326.91343	0.02634
1325.62766	0.02612
1324.34189	0.02592
1323.05612	0.02574
1321.77035	0.02555
1320.48459	0.02534
1319.19882	0.02514
1317.91305	0.02497
1316.62728	0.02485
1315.34151	0.02472
1314.05574	0.02455
1312.76997	0.02434
1311.48420	0.02413
1310.19843	0.02392
1308.91267	0.02372
1307.62690	0.02351
1306.34113	0.02332
1305.05536	0.02317
1303.76959	0.02303
1302.48382	0.02288
1301.19805	0.02270
1299.91228	0.02248
1298.62652	0.02229
1297.34075	0.02215
1296.05498	0.02207
1294.76921	0.02202
1293.48344	0.02196
1292.19767	0.02186
1290.91190	0.02173
1289.62613	0.02160
1288.34036	0.02154
1287.05460	0.02158
1285.76883	0.02167
1284.48306	0.02177
1283.19729	0.02181
1281.91152	0.02177
1280.62575	0.02166
1279.33998	0.02152
1278.05421	0.02140
1276.76845	0.02130
1275.48268	0.02123
1274.19691	0.02117
1272.91114	0.02112
1271.62537	0.02107
1270.33960	0.02103
1269.05383	0.02098
1267.76806	0.02093
1266.48229	0.02091
1265.19653	0.02092
1263.91076	0.02098
1262.62499	0.02105
1261.33922	0.02110
1260.05345	0.02111
1258.76768	0.02108
1257.48191	0.02102
1256.19614	0.02094
1254.91037	0.02087
1253.62461	0.02084
1252.33884	0.02087
1251.05307	0.02091
1249.76730	0.02095
1248.48153	0.02097
1247.19576	0.02096
1245.90999	0.02097
1244.62422	0.02102
1243.33846	0.02109
1242.05269	0.02114
1240.76692	0.02115
1239.48115	0.02109
1238.19538	0.02098
1236.90961	0.02085
1235.62384	0.02073
1234.33807	0.02063
1233.05230	0.02052
1231.76654	0.02037
1230.48077	0.02017
1229.19500	0.01993
1227.90923	0.01968
1226.62346	0.01944
1225.33769	0.01920
1224.05192	0.01894
1222.76615	0.01867
1221.48039	0.01839
1220.19462	0.01814
1218.90885	0.01792
1217.62308	0.01772
1216.33731	0.01753
1215.05154	0.01737
1213.76577	0.01725
1212.48000	0.01715
1211.19423	0.01710
1209.90847	0.01708
1208.62270	0.01708
1207.33693	0.01707
1206.05116	0.01703
1204.76539	0.01696
1203.47962	0.01688
1202.19385	0.01681
1200.90808	0.01676
1199.62232	0.01674
1198.33655	0.01665
1197.05078	0.01652
1195.76501	0.01637
1194.47924	0.01621
1193.19347	0.01606
1191.90770	0.01593
1190.62193	0.01580
1189.33616	0.01568
1188.05040	0.01558
1186.76463	0.01549
1185.47886	0.01541
1184.19309	0.01532
1182.90732	0.01523
1181.62155	0.01514
1180.33578	0.01505
1179.05001	0.01500
1177.76425	0.01501
1176.47848	0.01507
1175.19271	0.01513
1173.90694	0.01517
1172.62117	0.01517
1171.33540	0.01515
1170.04963	0.01517
1168.76386	0.01525
1167.47809	0.01540
1166.19233	0.01555
1164.90656	0.01564
1163.62079	0.01566
1162.33502	0.01566
1161.04925	0.01568
1159.76348	0.01572
1158.47771	0.01579
1157.19194	0.01589
1155.90618	0.01604
1154.62041	0.01624
1153.33464	0.01643
1152.04887	0.01655
1150.76310	0.01663
1149.47733	0.01678
1148.19156	0.01705
1146.90579	0.01742
1145.62002	0.01777
1144.33426	0.01806
1143.04849	0.01833
1141.76272	0.01865
1140.47695	0.01905
1139.19118	0.01956
1137.90541	0.02017
1136.61964	0.02084
1135.33387	0.02146
1134.04811	0.02205
1132.76234	0.02273
1131.47657	0.02364
1130.19080	0.02483
1128.90503	0.02622
1127.61926	0.02775
1126.33349	0.02937
1125.04772	0.03106
1123.76195	0.03278
1122.47619	0.03449
1121.19042	0.03622
1119.90465	0.03802
1118.61888	0.03988
1117.33311	0.04175
1116.04734	0.04361
1114.76157	0.04549
1113.47580	0.04737
1112.19004	0.04927
1110.90427	0.05121
1109.61850	0.05320
1108.33273	0.05518
1107.04696	0.05703
1105.76119	0.05870
1104.47542	0.06027
1103.18965	0.06181
1101.90388	0.06336
1100.61812	0.06486
1099.33235	0.06628
1098.04658	0.06759
1096.76081	0.06879
1095.47504	0.06990
1094.18927	0.07096
1092.90350	0.07200
1091.61773	0.07301
1090.33197	0.07402
1089.04620	0.07502
1087.76043	0.07602
1086.47466	0.07703
1085.18889	0.07806
1083.90312	0.07913
1082.61735	0.08023
1081.33158	0.08138
1080.04581	0.08261
1078.76005	0.08392
1077.47428	0.08530
1076.18851	0.08671
1074.90274	0.08814
1073.61697	0.08959
1072.33120	0.09107
1071.04543	0.09261
1069.75966	0.09419
1068.47390	0.09581
1067.18813	0.09749
1065.90236	0.09919
1064.61659	0.10091
1063.33082	0.10262
1062.04505	0.10435
1060.75928	0.10607
1059.47351	0.10780
1058.18774	0.10954
1056.90198	0.11129
1055.61621	0.11306
1054.33044	0.11483
1053.04467	0.11659
1051.75890	0.11831
1050.47313	0.12002
1049.18736	0.12179
1047.90159	0.12365
1046.61583	0.12556
1045.33006	0.12740
1044.04429	0.12916
1042.75852	0.13090
1041.47275	0.13270
1040.18698	0.13454
1038.90121	0.13637
1037.61544	0.13816
1036.32967	0.13991
1035.04391	0.14166
1033.75814	0.14341
1032.47237	0.14509
1031.18660	0.14659
1029.90083	0.14784
1028.61506	0.14889
1027.32929	0.14982
1026.04352	0.15066
1024.75775	0.15135
1023.47199	0.15184
1022.18622	0.15206
1020.90045	0.15203
1019.61468	0.15180
1018.32891	0.15142
1017.04314	0.15093
1015.75737	0.15028
1014.47160	0.14942
1013.18584	0.14837
1011.90007	0.14713
1010.61430	0.14575
1009.32853	0.14421
1008.04276	0.14249
1006.75699	0.14060
1005.47122	0.13851
1004.18545	0.13626
1002.89968	0.13387
1001.61392	0.13140
1000.32815	0.12882
999.04238	0.12609
997.75661	0.12319
996.47084	0.12018
995.18507	0.11713
993.89930	0.11405
992.61353	0.11094
991.32777	0.10782
990.04200	0.10476
988.75623	0.10181
987.47046	0.09896
986.18469	0.09612
984.89892	0.09326
983.61315	0.09040
982.32738	0.08763
981.04161	0.08499
979.75585	0.08251
978.47008	0.08021
977.18431	0.07809
975.89854	0.07613
974.61277	0.07434
973.32700	0.07274
972.04123	0.07136
970.75546	0.07026
969.46970	0.06945
968.18393	0.06896
966.89816	0.06877
965.61239	0.06879
964.32662	0.06893
963.04085	0.06910
961.75508	0.06922
960.46931	0.06916
959.18354	0.06879
957.89778	0.06809
956.61201	0.06715
955.32624	0.06606
954.04047	0.06488
952.75470	0.06363
951.46893	0.06233
950.18316	0.06100
948.89739	0.05968
947.61163	0.05840
946.32586	0.05714
945.04009	0.05591
943.75432	0.05474
942.46855	0.05368
941.18278	0.05270
939.89701	0.05172
938.61124	0.05066
937.32547	0.04953
936.03971	0.04839
934.75394	0.04736
933.46817	0.04652
932.18240	0.04586
930.89663	0.04526
929.61086	0.04467
928.32509	0.04407
927.03932	0.04350
925.75356	0.04299
924.46779	0.04254
923.18202	0.04211
921.89625	0.04166
920.61048	0.04117
919.32471	0.04065
918.03894	0.04016
916.75317	0.03971
915.46740	0.03924
914.18164	0.03870
912.89587	0.03812
911.61010	0.03764
910.32433	0.03730
909.03856	0.03706
907.75279	0.03678
906.46702	0.03641
905.18125	0.03600
903.89549	0.03565
902.60972	0.03542
901.32395	0.03530
900.03818	0.03518
898.75241	0.03501
897.46664	0.03475
896.18087	0.03445
894.89510	0.03421
893.60933	0.03405
892.32357	0.03395
891.03780	0.03387
889.75203	0.03377
888.46626	0.03372
887.18049	0.03383
885.89472	0.03424
884.60895	0.03505
883.32318	0.03628
882.03742	0.03778
880.75165	0.03924
879.46588	0.04041
878.18011	0.04124
876.89434	0.04191
875.60857	0.04266
874.32280	0.04353
873.03703	0.04429
871.75126	0.04463
870.46550	0.04442
869.17973	0.04381
867.89396	0.04303
866.60819	0.04221
865.32242	0.04131
864.03665	0.04028
862.75088	0.03916
861.46511	0.03805
860.17935	0.03707
858.89358	0.03629
857.60781	0.03568
856.32204	0.03518
855.03627	0.03470
853.75050	0.03427
852.46473	0.03393
851.17896	0.03366
849.89319	0.03337
848.60743	0.03302
847.32166	0.03267
846.03589	0.03242
844.75012	0.03227
843.46435	0.03214
842.17858	0.03194
840.89281	0.03166
839.60704	0.03136
838.32128	0.03109
837.03551	0.03090
835.74974	0.03076
834.46397	0.03063
833.17820	0.03048
831.89243	0.03030
830.60666	0.03014
829.32089	0.03001
828.03512	0.02993
826.74936	0.02988
825.46359	0.02984
824.17782	0.02980
822.89205	0.02975
821.60628	0.02967
820.32051	0.02955
819.03474	0.02939
817.74897	0.02925
816.46321	0.02914
815.17744	0.02910
813.89167	0.02911
812.60590	0.02916
811.32013	0.02922
810.03436	0.02921
808.74859	0.02911
807.46282	0.02895
806.17705	0.02881
804.89129	0.02876
803.60552	0.02880
802.31975	0.02885
801.03398	0.02885
799.74821	0.02878
798.46244	0.02868
797.17667	0.02863
795.89090	0.02870
794.60513	0.02889
793.31937	0.02911
792.03360	0.02929
790.74783	0.02935
789.46206	0.02931
788.17629	0.02919
786.89052	0.02903
785.60475	0.02886
784.31898	0.02870
783.03322	0.02861
781.74745	0.02856
780.46168	0.02856
779.17591	0.02859
777.89014	0.02866
776.60437	0.02876
775.31860	0.02888
774.03283	0.02901
772.74706	0.02913
771.46130	0.02918
770.17553	0.02915
768.88976	0.02905
767.60399	0.02893
766.31822	0.02883
765.03245	0.02876
763.74668	0.02871
762.46091	0.02868
761.17515	0.02868
759.88938	0.02871
758.60361	0.02877
757.31784	0.02880
756.03207	0.02875
754.74630	0.02865
753.46053	0.02862
752.17476	0.02877
750.88899	0.02907
749.60323	0.02937
748.31746	0.02952
747.03169	0.02952
745.74592	0.02940
744.46015	0.02924
743.17438	0.02907
741.88861	0.02895
740.60284	0.02892
739.31708	0.02902
738.03131	0.02920
736.74554	0.02935
735.45977	0.02939
734.17400	0.02933
732.88823	0.02927
731.60246	0.02924
730.31669	0.02919
729.03092	0.02913
727.74516	0.02912
726.45939	0.02921
725.17362	0.02936
723.88785	0.02948
722.60208	0.02968
721.31631	0.02990
720.03054	0.03007
718.74477	0.03018
717.45901	0.03023
716.17324	0.03022
714.88747	0.03015
713.60170	0.03003
712.31593	0.02990
711.03016	0.02981
709.74439	0.02979
708.45862	0.02985
707.17285	0.02992
705.88709	0.02995
704.60132	0.02993
703.31555	0.02990
702.02978	0.02994
700.74401	0.03003
699.45824	0.03012
698.17247	0.03017
696.88670	0.03015
695.60094	0.03013
694.31517	0.03011
693.02940	0.03011
691.74363	0.03011
690.45786	0.03010
689.17209	0.03005
687.88632	0.02994
686.60055	0.02978
685.31478	0.02964
684.02902	0.02960
682.74325	0.02967
681.45748	0.02977
680.17171	0.02981
678.88594	0.02974
677.60017	0.02962
676.31440	0.02954
675.02863	0.02951
673.74287	0.02950
672.45710	0.02948
671.17133	0.02946
669.88556	0.02947
668.59979	0.02949
667.31402	0.02942
666.02825	0.02941
664.74248	0.02936
663.45671	0.02927
662.17095	0.02918
660.88518	0.02913
659.59941	0.02912
658.31364	0.02909
657.02787	0.02903
655.74210	0.02890
654.45633	0.02876
653.17056	0.02867
651.88480	0.02862
650.59903	0.02858
649.31326	0.02851
648.02749	0.02840
646.74172	0.02828
645.45595	0.02819
644.17018	0.02817
642.88441	0.02825
641.59864	0.02836
640.31288	0.02846
639.02711	0.02847
637.74134	0.02842
636.45557	0.02835
635.16980	0.02833
633.88403	0.02839
632.59826	0.02857
631.31249	0.02880
630.02673	0.02887
628.74096	0.02882
627.45519	0.02938
626.16942	0.02906
624.88365	0.02797
623.59788	0.02686
622.31211	0.02665
621.02634	0.02796
619.74057	0.03015
618.45481	0.03180
617.16904	0.03250
615.88327	0.03319
614.59750	0.03501
613.31173	0.03804
612.02596	0.04152
610.74019	0.04470
609.45442	0.04753
608.16866	0.05046
606.88289	0.05374
605.59712	0.05719
604.31135	0.06036
603.02558	0.06285
601.73981	0.06440
600.45404	0.06492
599.16827	0.06444
597.88250	0.06319
596.59674	0.06155
595.31097	0.05997
594.02520	0.05873
592.73943	0.05787
591.45366	0.05729
590.16789	0.05689
588.88212	0.05664
587.59635	0.05654
586.31059	0.05665
585.02482	0.05700
583.73905	0.05767
582.45328	0.05872
581.16751	0.06014
579.88174	0.06182
578.59597	0.06359
577.31020	0.06531
576.02443	0.06689
574.73867	0.06835
573.45290	0.06973
572.16713	0.07108
570.88136	0.07246
569.59559	0.07393
568.30982	0.07560
567.02405	0.07750
565.73828	0.07950
564.45251	0.08139
563.16675	0.08296
561.88098	0.08401
560.59521	0.08437
559.30944	0.08390
558.02367	0.08255
556.73790	0.08038
555.45213	0.07760
554.16636	0.07455
552.88060	0.07153
551.59483	0.06876
550.30906	0.06624
549.02329	0.06385
547.73752	0.06152
546.45175	0.05932
545.16598	0.05737
543.88021	0.05573
542.59444	0.05436
541.30868	0.05317
540.02291	0.05204
538.73714	0.05090
537.45137	0.04974
536.16560	0.04858
534.87983	0.04751
533.59406	0.04656
532.30829	0.04575
531.02253	0.04500
529.73676	0.04425
528.45099	0.04345
527.16522	0.04262
525.87945	0.04184
524.59368	0.04114
523.30791	0.04053
522.02214	0.04000
520.73637	0.03954
519.45061	0.03913
518.16484	0.03870
516.87907	0.03819
515.59330	0.03755
514.30753	0.03681
513.02176	0.03607
511.73599	0.03545
510.45022	0.03504
509.16446	0.03478
507.87869	0.03455
506.59292	0.03424
505.30715	0.03383
504.02138	0.03336
502.73561	0.03287
501.44984	0.03241
500.16407	0.03203
498.87830	0.03170
497.59254	0.03139
496.30677	0.03110
495.02100	0.03086
493.73523	0.03070
492.44946	0.03058
491.16369	0.03045
489.87792	0.03026
488.59215	0.02997
487.30639	0.02959
486.02062	0.02918
484.73485	0.02888
483.44908	0.02879
482.16331	0.02888
480.87754	0.02906
479.59177	0.02925
478.30600	0.02941
477.02023	0.02951
475.73447	0.02957
474.44870	0.02958
473.16293	0.02961
471.87716	0.02969
470.59139	0.02979
469.30562	0.02982
468.01985	0.02971
466.73408	0.02947
465.44832	0.02920
464.16255	0.02892
462.87678	0.02864
461.59101	0.02836
460.30524	0.02807
459.01947	0.02779
457.73370	0.02755
456.44793	0.02733
455.16216	0.02711
453.87640	0.02687
452.59063	0.02663
451.30486	0.02642
450.01909	0.02621
448.73332	0.02597
447.44755	0.02571
446.16178	0.02547
444.87601	0.02529
443.59025	0.02520
442.30448	0.02517
441.01871	0.02513
439.73294	0.02501
438.44717	0.02482
437.16140	0.02463
435.87563	0.02453
434.58986	0.02451
433.30409	0.02451
432.01833	0.02448
430.73256	0.02443
429.44679	0.02435
428.16102	0.02423
426.87525	0.02404
425.58948	0.02382
424.30371	0.02362
423.01794	0.02349
421.73218	0.02335
420.44641	0.02315
419.16064	0.02292
417.87487	0.02274
416.58910	0.02262
415.30333	0.02250
414.01756	0.02237
412.73179	0.02225
411.44602	0.02214
410.16026	0.02206
408.87449	0.02199
407.58872	0.02191
406.30295	0.02182
405.01718	0.02174
403.73141	0.02167
402.44564	0.02160
401.15987	0.02153
399.87411	0.02147
