3997.45528	-0.00681
3996.16951	-0.00663
3994.88374	-0.00677
3993.59798	-0.00723
3992.31221	-0.00766
3991.02644	-0.00766
3989.74067	-0.00720
3988.45490	-0.00662
3987.16913	-0.00634
3985.88336	-0.00645
3984.59759	-0.00664
3983.31183	-0.00643
3982.02606	-0.00578
3980.74029	-0.00512
3979.45452	-0.00481
3978.16875	-0.00475
3976.88298	-0.00469
3975.59721	-0.00474
3974.31144	-0.00522
3973.02567	-0.00609
3971.73991	-0.00682
3970.45414	-0.00696
3969.16837	-0.00668
3967.88260	-0.00653
3966.59683	-0.00684
3965.31106	-0.00742
3964.02529	-0.00779
3962.73952	-0.00762
3961.45376	-0.00688
3960.16799	-0.00593
3958.88222	-0.00533
3957.59645	-0.00540
3956.31068	-0.00595
3955.02491	-0.00645
3953.73914	-0.00647
3952.45337	-0.00607
3951.16760	-0.00566
3949.88184	-0.00553
3948.59607	-0.00554
3947.31030	-0.00538
3946.02453	-0.00491
3944.73876	-0.00438
3943.45299	-0.00410
3942.16722	-0.00418
3940.88145	-0.00460
3939.59569	-0.00523
3938.30992	-0.00581
3937.02415	-0.00603
3935.73838	-0.00584
3934.45261	-0.00548
3933.16684	-0.00529
3931.88107	-0.00532
3930.59530	-0.00545
3929.30953	-0.00558
3928.02377	-0.00562
3926.73800	-0.00544
3925.45223	-0.00482
3924.16646	-0.00374
3922.88069	-0.00259
3921.59492	-0.00193
3920.30915	-0.00209
3919.02338	-0.00284
3917.73762	-0.00362
3916.45185	-0.00404
3915.16608	-0.00402
3913.88031	-0.00378
3912.59454	-0.00352
3911.30877	-0.00335
3910.02300	-0.00333
3908.73723	-0.00346
3907.45146	-0.00368
3906.16570	-0.00392
3904.87993	-0.00410
3903.59416	-0.00409
3902.30839	-0.00392
3901.02262	-0.00368
3899.73685	-0.00353
3898.45108	-0.00354
3897.16531	-0.00369
3895.87955	-0.00386
3894.59378	-0.00394
3893.30801	-0.00396
3892.02224	-0.00385
3890.73647	-0.00340
3889.45070	-0.00272
3888.16493	-0.00247
3886.87916	-0.00306
3885.59339	-0.00403
3884.30763	-0.00457
3883.02186	-0.00443
3881.73609	-0.00410
3880.45032	-0.00402
3879.16455	-0.00415
3877.87878	-0.00419
3876.59301	-0.00388
3875.30724	-0.00308
3874.02148	-0.00192
3872.73571	-0.00095
3871.44994	-0.00070
3870.16417	-0.00098
3868.87840	-0.00108
3867.59263	-0.00069
3866.30686	-0.00018
3865.02109	-0.00001
3863.73532	-0.00036
3862.44956	-0.00109
3861.16379	-0.00175
3859.87802	-0.00176
3858.59225	-0.00093
3857.30648	0.00020
3856.02071	0.00069
3854.73494	0.00016
3853.44917	-0.00085
3852.16341	-0.00155
3850.87764	-0.00183
3849.59187	-0.00191
3848.30610	-0.00193
3847.02033	-0.00191
3845.73456	-0.00199
3844.44879	-0.00224
3843.16302	-0.00254
3841.87725	-0.00265
3840.59149	-0.00264
3839.30572	-0.00279
3838.01995	-0.00315
3836.73418	-0.00353
3835.44841	-0.00377
3834.16264	-0.00377
3832.87687	-0.00337
3831.59110	-0.00248
3830.30534	-0.00139
3829.01957	-0.00059
3827.73380	-0.00038
3826.44803	-0.00056
3825.16226	-0.00085
3823.87649	-0.00133
3822.59072	-0.00213
3821.30495	-0.00294
3820.01918	-0.00337
3818.73342	-0.00353
3817.44765	-0.00373
3816.16188	-0.00382
3814.87611	-0.00346
3813.59034	-0.00271
3812.30457	-0.00185
3811.01880	-0.00110
3809.73303	-0.00072
3808.44726	-0.00091
3807.16150	-0.00134
3805.87573	-0.00146
3804.58996	-0.00132
3803.30419	-0.00141
3802.01842	-0.00187
3800.73265	-0.00223
3799.44688	-0.00220
3798.16111	-0.00189
3796.87535	-0.00145
3795.58958	-0.00101
3794.30381	-0.00085
3793.01804	-0.00112
3791.73227	-0.00161
3790.44650	-0.00195
3789.16073	-0.00198
3787.87496	-0.00176
3786.58919	-0.00144
3785.30343	-0.00113
3784.01766	-0.00089
3782.73189	-0.00077
3781.44612	-0.00080
3780.16035	-0.00093
3778.87458	-0.00106
3777.58881	-0.00115
3776.30304	-0.00127
3775.01728	-0.00145
3773.73151	-0.00170
3772.44574	-0.00205
3771.15997	-0.00250
3769.87420	-0.00290
3768.58843	-0.00303
3767.30266	-0.00283
3766.01689	-0.00234
3764.73112	-0.00163
3763.44536	-0.00084
3762.15959	-0.00024
3760.87382	-0.00006
3759.58805	-0.00044
3758.30228	-0.00125
3757.01651	-0.00202
3755.73074	-0.00233
3754.44497	-0.00226
3753.15921	-0.00236
3751.87344	-0.00300
3750.58767	-0.00382
3749.30190	-0.00376
3748.01613	-0.00236
3746.73036	-0.00055
3745.44459	0.00040
3744.15882	0.00036
3742.87305	-0.00001
3741.58729	-0.00026
3740.30152	-0.00046
3739.01575	-0.00088
3737.72998	-0.00171
3736.44421	-0.00257
3735.15844	-0.00292
3733.87267	-0.00261
3732.58690	-0.00192
3731.30114	-0.00109
3730.01537	-0.00026
3728.72960	0.00044
3727.44383	0.00095
3726.15806	0.00126
3724.87229	0.00117
3723.58652	0.00062
3722.30075	-0.00011
3721.01498	-0.00058
3719.72922	-0.00070
3718.44345	-0.00078
3717.15768	-0.00091
3715.87191	-0.00078
3714.58614	-0.00022
3713.30037	0.00043
3712.01460	0.00046
3710.72883	-0.00037
3709.44307	-0.00155
3708.15730	-0.00235
3706.87153	-0.00247
3705.58576	-0.00209
3704.29999	-0.00151
3703.01422	-0.00109
3701.72845	-0.00123
3700.44268	-0.00173
3699.15691	-0.00191
3697.87115	-0.00175
3696.58538	-0.00181
3695.29961	-0.00195
3694.01384	-0.00174
3692.72807	-0.00152
3691.44230	-0.00172
3690.15653	-0.00234
3688.87076	-0.00314
3687.58500	-0.00346
3686.29923	-0.00291
3685.01346	-0.00223
3683.72769	-0.00217
3682.44192	-0.00252
3681.15615	-0.00262
3679.87038	-0.00188
3678.58461	-0.00050
3677.29884	0.00046
3676.01308	0.00046
3674.72731	-0.00019
3673.44154	-0.00111
3672.15577	-0.00201
3670.87000	-0.00253
3669.58423	-0.00228
3668.29846	-0.00140
3667.01269	-0.00044
3665.72693	0.00030
3664.44116	0.00071
3663.15539	0.00070
3661.86962	0.00026
3660.58385	-0.00034
3659.29808	-0.00080
3658.01231	-0.00099
3656.72654	-0.00089
3655.44077	-0.00052
3654.15501	0.00002
3652.86924	0.00057
3651.58347	0.00103
3650.29770	0.00136
3649.01193	0.00150
3647.72616	0.00132
3646.44039	0.00083
3645.15462	0.00024
3643.86886	-0.00021
3642.58309	-0.00031
3641.29732	-0.00006
3640.01155	0.00036
3638.72578	0.00072
3637.44001	0.00095
3636.15424	0.00123
3634.86847	0.00184
3633.58270	0.00286
3632.29694	0.00383
3631.01117	0.00418
3629.72540	0.00379
3628.43963	0.00312
3627.15386	0.00256
3625.86809	0.00215
3624.58232	0.00189
3623.29655	0.00187
3622.01079	0.00203
3620.72502	0.00216
3619.43925	0.00219
3618.15348	0.00228
3616.86771	0.00254
3615.58194	0.00299
3614.29617	0.00356
3613.01040	0.00417
3611.72463	0.00460
3610.43887	0.00460
3609.15310	0.00423
3607.86733	0.00386
3606.58156	0.00373
3605.29579	0.00383
3604.01002	0.00406
3602.72425	0.00435
3601.43848	0.00466
3600.15272	0.00511
3598.86695	0.00592
3597.58118	0.00691
3596.29541	0.00745
3595.00964	0.00731
3593.72387	0.00697
3592.43810	0.00675
3591.15233	0.00653
3589.86656	0.00641
3588.58080	0.00654
3587.29503	0.00672
3586.00926	0.00678
3584.72349	0.00681
3583.43772	0.00680
3582.15195	0.00679
3580.86618	0.00684
3579.58041	0.00687
3578.29464	0.00690
3577.00888	0.00717
3575.72311	0.00769
3574.43734	0.00830
3573.15157	0.00874
3571.86580	0.00884
3570.58003	0.00867
3569.29426	0.00840
3568.00849	0.00818
3566.72273	0.00809
3565.43696	0.00813
3564.15119	0.00822
3562.86542	0.00825
3561.57965	0.00807
3560.29388	0.00769
3559.00811	0.00732
3557.72234	0.00720
3556.43657	0.00747
3555.15081	0.00802
3553.86504	0.00863
3552.57927	0.00909
3551.29350	0.00928
3550.00773	0.00931
3548.72196	0.00937
3547.43619	0.00955
3546.15042	0.00976
3544.86466	0.00986
3543.57889	0.00977
3542.29312	0.00956
3541.00735	0.00932
3539.72158	0.00920
3538.43581	0.00932
3537.15004	0.00979
3535.86427	0.01052
3534.57850	0.01136
3533.29274	0.01212
3532.00697	0.01269
3530.72120	0.01300
3529.43543	0.01309
3528.14966	0.01305
3526.86389	0.01291
3525.57812	0.01264
3524.29235	0.01220
3523.00659	0.01171
3521.72082	0.01144
3520.43505	0.01155
3519.14928	0.01200
3517.86351	0.01258
3516.57774	0.01310
3515.29197	0.01344
3514.00620	0.01361
3512.72043	0.01367
3511.43467	0.01362
3510.14890	0.01343
3508.86313	0.01314
3507.57736	0.01281
3506.29159	0.01256
3505.00582	0.01244
3503.72005	0.01247
3502.43428	0.01268
3501.14852	0.01314
3499.86275	0.01382
3498.57698	0.01454
3497.29121	0.01501
3496.00544	0.01513
3494.71967	0.01502
3493.43390	0.01491
3492.14813	0.01485
3490.86236	0.01483
3489.57660	0.01491
3488.29083	0.01527
3487.00506	0.01591
3485.71929	0.01649
3484.43352	0.01656
3483.14775	0.01606
3481.86198	0.01538
3480.57621	0.01508
3479.29045	0.01539
3478.00468	0.01611
3476.71891	0.01684
3475.43314	0.01719
3474.14737	0.01701
3472.86160	0.01642
3471.57583	0.01569
3470.29006	0.01514
3469.00429	0.01499
3467.71853	0.01526
3466.43276	0.01571
3465.14699	0.01605
3463.86122	0.01623
3462.57545	0.01646
3461.28968	0.01683
3460.00391	0.01717
3458.71814	0.01736
3457.43238	0.01749
3456.14661	0.01770
3454.86084	0.01792
3453.57507	0.01788
3452.28930	0.01754
3451.00353	0.01718
3449.71776	0.01718
3448.43199	0.01761
3447.14622	0.01815
3445.86046	0.01837
3444.57469	0.01802
3443.28892	0.01728
3442.00315	0.01660
3440.71738	0.01630
3439.43161	0.01632
3438.14584	0.01643
3436.86007	0.01653
3435.57431	0.01669
3434.28854	0.01695
3433.00277	0.01726
3431.71700	0.01760
3430.43123	0.01799
3429.14546	0.01836
3427.85969	0.01853
3426.57392	0.01845
3425.28815	0.01829
3424.00239	0.01826
3422.71662	0.01841
3421.43085	0.01867
3420.14508	0.01892
3418.85931	0.01908
3417.57354	0.01912
3416.28777	0.01898
3415.00200	0.01867
3413.71624	0.01829
3412.43047	0.01801
3411.14470	0.01798
3409.85893	0.01815
3408.57316	0.01832
3407.28739	0.01832
3406.00162	0.01813
3404.71585	0.01795
3403.43008	0.01797
3402.14432	0.01820
3400.85855	0.01848
3399.57278	0.01859
3398.28701	0.01853
3397.00124	0.01848
3395.71547	0.01863
3394.42970	0.01901
3393.14393	0.01949
3391.85817	0.01981
3390.57240	0.01986
3389.28663	0.01980
3388.00086	0.01977
3386.71509	0.01978
3385.42932	0.01977
3384.14355	0.01981
3382.85778	0.01999
3381.57201	0.02027
3380.28625	0.02045
3379.00048	0.02042
3377.71471	0.02025
3376.42894	0.02015
3375.14317	0.02023
3373.85740	0.02048
3372.57163	0.02075
3371.28586	0.02088
3370.00010	0.02076
3368.71433	0.02043
3367.42856	0.02007
3366.14279	0.01982
3364.85702	0.01972
3363.57125	0.01975
3362.28548	0.01986
3360.99971	0.02002
3359.71394	0.02025
3358.42818	0.02056
3357.14241	0.02088
3355.85664	0.02107
3354.57087	0.02099
3353.28510	0.02070
3351.99933	0.02045
3350.71356	0.02048
3349.42779	0.02078
3348.14202	0.02102
3346.85626	0.02088
3345.57049	0.02036
3344.28472	0.01974
3342.99895	0.01939
3341.71318	0.01950
3340.42741	0.01994
3339.14164	0.02034
3337.85587	0.02037
3336.57011	0.01997
3335.28434	0.01940
3333.99857	0.01899
3332.71280	0.01902
3331.42703	0.01947
3330.14126	0.02008
3328.85549	0.02045
3327.56972	0.02040
3326.28395	0.02009
3324.99819	0.01983
3323.71242	0.01972
3322.42665	0.01962
3321.14088	0.01950
3319.85511	0.01947
3318.56934	0.01964
3317.28357	0.01995
3315.99780	0.02033
3314.71204	0.02084
3313.42627	0.02153
3312.14050	0.02224
3310.85473	0.02265
3309.56896	0.02252
3308.28319	0.02193
3306.99742	0.02121
3305.71165	0.02060
3304.42588	0.02019
3303.14012	0.01995
3301.85435	0.01982
3300.56858	0.01982
3299.28281	0.01998
3297.99704	0.02028
3296.71127	0.02064
3295.42550	0.02092
3294.13973	0.02101
3292.85397	0.02081
3291.56820	0.02039
3290.28243	0.02003
3288.99666	0.01995
3287.71089	0.02009
3286.42512	0.02012
3285.13935	0.01987
3283.85358	0.01952
3282.56781	0.01937
3281.28205	0.01954
3279.99628	0.01987
3278.71051	0.02003
3277.42474	0.01987
3276.13897	0.01952
3274.85320	0.01928
3273.56743	0.01932
3272.28166	0.01963
3270.99590	0.02010
3269.71013	0.02058
3268.42436	0.02091
3267.13859	0.02098
3265.85282	0.02085
3264.56705	0.02070
3263.28128	0.02061
3261.99551	0.02054
3260.70974	0.02047
3259.42398	0.02050
3258.13821	0.02066
3256.85244	0.02081
3255.56667	0.02076
3254.28090	0.02052
3252.99513	0.02029
3251.70936	0.02023
3250.42359	0.02034
3249.13783	0.02046
3247.85206	0.02034
3246.56629	0.01991
3245.28052	0.01941
3243.99475	0.01915
3242.70898	0.01923
3241.42321	0.01949
3240.13744	0.01970
3238.85167	0.01975
3237.56591	0.01970
3236.28014	0.01967
3234.99437	0.01970
3233.70860	0.01972
3232.42283	0.01961
3231.13706	0.01934
3229.85129	0.01907
3228.56552	0.01893
3227.27976	0.01895
3225.99399	0.01907
3224.70822	0.01928
3223.42245	0.01962
3222.13668	0.02007
3220.85091	0.02044
3219.56514	0.02052
3218.27937	0.02019
3216.99360	0.01959
3215.70784	0.01898
3214.42207	0.01858
3213.13630	0.01848
3211.85053	0.01860
3210.56476	0.01877
3209.27899	0.01890
3207.99322	0.01900
3206.70745	0.01917
3205.42169	0.01943
3204.13592	0.01971
3202.85015	0.01988
3201.56438	0.01980
3200.27861	0.01945
3198.99284	0.01893
3197.70707	0.01838
3196.42130	0.01801
3195.13553	0.01791
3193.84977	0.01802
3192.56400	0.01814
3191.27823	0.01816
3189.99246	0.01806
3188.70669	0.01797
3187.42092	0.01796
3186.13515	0.01814
3184.84938	0.01860
3183.56362	0.01929
3182.27785	0.02002
3180.99208	0.02045
3179.70631	0.02039
3178.42054	0.01986
3177.13477	0.01909
3175.84900	0.01840
3174.56323	0.01802
3173.27746	0.01798
3171.99170	0.01811
3170.70593	0.01818
3169.42016	0.01813
3168.13439	0.01803
3166.84862	0.01801
3165.56285	0.01807
3164.27708	0.01813
3162.99131	0.01816
3161.70555	0.01826
3160.41978	0.01851
3159.13401	0.01877
3157.84824	0.01882
3156.56247	0.01855
3155.27670	0.01808
3153.99093	0.01770
3152.70516	0.01762
3151.41939	0.01781
3150.13363	0.01803
3148.84786	0.01807
3147.56209	0.01784
3146.27632	0.01749
3144.99055	0.01721
3143.70478	0.01708
3142.41901	0.01705
3141.13324	0.01705
3139.84748	0.01707
3138.56171	0.01717
3137.27594	0.01736
3135.99017	0.01754
3134.70440	0.01760
3133.41863	0.01750
3132.13286	0.01735
3130.84709	0.01728
3129.56132	0.01730
3128.27556	0.01737
3126.98979	0.01740
3125.70402	0.01736
3124.41825	0.01725
3123.13248	0.01715
3121.84671	0.01714
3120.56094	0.01719
3119.27517	0.01723
3117.98940	0.01727
3116.70364	0.01738
3115.41787	0.01756
3114.13210	0.01761
3112.84633	0.01739
3111.56056	0.01694
3110.27479	0.01650
3108.98902	0.01626
3107.70325	0.01624
3106.41749	0.01639
3105.13172	0.01664
3103.84595	0.01687
3102.56018	0.01696
3101.27441	0.01694
3099.98864	0.01692
3098.70287	0.01698
3097.41710	0.01705
3096.13133	0.01697
3094.84557	0.01673
3093.55980	0.01655
3092.27403	0.01662
3090.98826	0.01691
3089.70249	0.01717
3088.41672	0.01720
3087.13095	0.01696
3085.84518	0.01659
3084.55942	0.01625
3083.27365	0.01612
3081.98788	0.01622
3080.70211	0.01647
3079.41634	0.01669
3078.13057	0.01681
3076.84480	0.01686
3075.55903	0.01686
3074.27326	0.01682
3072.98750	0.01670
3071.70173	0.01651
3070.41596	0.01632
3069.13019	0.01619
3067.84442	0.01611
3066.55865	0.01606
3065.27288	0.01606
3063.98711	0.01615
3062.70135	0.01639
3061.41558	0.01670
3060.12981	0.01692
3058.84404	0.01693
3057.55827	0.01671
3056.27250	0.01637
3054.98673	0.01609
3053.70096	0.01594
3052.41519	0.01597
3051.12943	0.01612
3049.84366	0.01630
3048.55789	0.01637
3047.27212	0.01632
3045.98635	0.01624
3044.70058	0.01626
3043.41481	0.01639
3042.12904	0.01649
3040.84328	0.01647
3039.55751	0.01640
3038.27174	0.01634
3036.98597	0.01627
3035.70020	0.01611
3034.41443	0.01590
3033.12866	0.01575
3031.84289	0.01568
3030.55712	0.01565
3029.27136	0.01566
3027.98559	0.01576
3026.69982	0.01594
3025.41405	0.01605
3024.12828	0.01594
3022.84251	0.01571
3021.55674	0.01557
3020.27097	0.01567
3018.98521	0.01587
3017.69944	0.01596
3016.41367	0.01582
3015.12790	0.01556
3013.84213	0.01541
3012.55636	0.01549
3011.27059	0.01565
3009.98482	0.01566
3008.69905	0.01547
3007.41329	0.01533
3006.12752	0.01544
3004.84175	0.01573
3003.55598	0.01591
3002.27021	0.01579
3000.98444	0.01547
2999.69867	0.01517
2998.41290	0.01522
2997.12714	0.01548
2995.84137	0.01565
2994.55560	0.01557
2993.26983	0.01525
2991.98406	0.01489
2990.69829	0.01468
2989.41252	0.01465
2988.12675	0.01470
2986.84098	0.01466
2985.55522	0.01451
2984.26945	0.01436
2982.98368	0.01435
2981.69791	0.01454
2980.41214	0.01482
2979.12637	0.01496
2977.84060	0.01487
2976.55483	0.01469
2975.26907	0.01462
2973.98330	0.01474
2972.69753	0.01488
2971.41176	0.01485
2970.12599	0.01456
2968.84022	0.01412
2967.55445	0.01376
2966.26868	0.01356
2964.98291	0.01346
2963.69715	0.01335
2962.41138	0.01320
2961.12561	0.01307
2959.83984	0.01297
2958.55407	0.01294
2957.26830	0.01304
2955.98253	0.01328
2954.69676	0.01356
2953.41100	0.01376
2952.12523	0.01388
2950.83946	0.01399
2949.55369	0.01410
2948.26792	0.01415
2946.98215	0.01410
2945.69638	0.01396
2944.41061	0.01378
2943.12484	0.01361
2941.83908	0.01351
2940.55331	0.01345
2939.26754	0.01336
2937.98177	0.01315
2936.69600	0.01284
2935.41023	0.01258
2934.12446	0.01257
2932.83869	0.01281
2931.55293	0.01314
2930.26716	0.01342
2928.98139	0.01364
2927.69562	0.01384
2926.40985	0.01394
2925.12408	0.01384
2923.83831	0.01351
2922.55254	0.01303
2921.26677	0.01254
2919.98101	0.01220
2918.69524	0.01213
2917.40947	0.01229
2916.12370	0.01249
2914.83793	0.01259
2913.55216	0.01267
2912.26639	0.01291
2910.98062	0.01329
2909.69486	0.01361
2908.40909	0.01372
2907.12332	0.01371
2905.83755	0.01375
2904.55178	0.01381
2903.26601	0.01383
2901.98024	0.01382
2900.69447	0.01384
2899.40870	0.01386
2898.12294	0.01378
2896.83717	0.01360
2895.55140	0.01343
2894.26563	0.01334
2892.97986	0.01328
2891.69409	0.01320
2890.40832	0.01312
2889.12255	0.01314
2887.83678	0.01331
2886.55102	0.01352
2885.26525	0.01361
2883.97948	0.01350
2882.69371	0.01328
2881.40794	0.01307
2880.12217	0.01294
2878.83640	0.01291
2877.55063	0.01297
2876.26487	0.01304
2874.97910	0.01308
2873.69333	0.01307
2872.40756	0.01308
2871.12179	0.01320
2869.83602	0.01345
2868.55025	0.01365
2867.26448	0.01365
2865.97871	0.01339
2864.69295	0.01305
2863.40718	0.01278
2862.12141	0.01261
2860.83564	0.01245
2859.54987	0.01231
2858.26410	0.01228
2856.97833	0.01236
2855.69256	0.01246
2854.40680	0.01243
2853.12103	0.01227
2851.83526	0.01209
2850.54949	0.01201
2849.26372	0.01212
2847.97795	0.01234
2846.69218	0.01253
2845.40641	0.01256
2844.12064	0.01249
2842.83488	0.01248
2841.54911	0.01267
2840.26334	0.01299
2838.97757	0.01329
2837.69180	0.01347
2836.40603	0.01352
2835.12026	0.01343
2833.83449	0.01320
2832.54873	0.01292
2831.26296	0.01276
2829.97719	0.01278
2828.69142	0.01288
2827.40565	0.01298
2826.11988	0.01305
2824.83411	0.01309
2823.54834	0.01300
2822.26257	0.01273
2820.97681	0.01241
2819.69104	0.01223
2818.40527	0.01226
2817.11950	0.01234
2815.83373	0.01231
2814.54796	0.01213
2813.26219	0.01192
2811.97642	0.01182
2810.69066	0.01192
2809.40489	0.01212
2808.11912	0.01226
2806.83335	0.01221
2805.54758	0.01197
2804.26181	0.01172
2802.97604	0.01161
2801.69027	0.01166
2800.40450	0.01171
2799.11874	0.01167
2797.83297	0.01157
2796.54720	0.01154
2795.26143	0.01166
2793.97566	0.01190
2792.68989	0.01213
2791.40412	0.01222
2790.11835	0.01214
2788.83259	0.01197
2787.54682	0.01186
2786.26105	0.01183
2784.97528	0.01181
2783.68951	0.01170
2782.40374	0.01155
2781.11797	0.01147
2779.83220	0.01153
2778.54643	0.01160
2777.26067	0.01161
2775.97490	0.01154
2774.68913	0.01148
2773.40336	0.01150
2772.11759	0.01162
2770.83182	0.01176
2769.54605	0.01179
2768.26028	0.01163
2766.97452	0.01138
2765.68875	0.01127
2764.40298	0.01142
2763.11721	0.01176
2761.83144	0.01204
2760.54567	0.01208
2759.25990	0.01185
2757.97413	0.01150
2756.68836	0.01122
2755.40260	0.01114
2754.11683	0.01126
2752.83106	0.01142
2751.54529	0.01141
2750.25952	0.01126
2748.97375	0.01116
2747.68798	0.01124
2746.40221	0.01139
2745.11645	0.01143
2743.83068	0.01136
2742.54491	0.01130
2741.25914	0.01130
2739.97337	0.01130
2738.68760	0.01128
2737.40183	0.01130
2736.11606	0.01142
2734.83029	0.01162
2733.54453	0.01181
2732.25876	0.01189
2730.97299	0.01185
2729.68722	0.01178
2728.40145	0.01173
2727.11568	0.01168
2725.82991	0.01155
2724.54414	0.01133
2723.25838	0.01107
2721.97261	0.01085
2720.68684	0.01069
2719.40107	0.01060
2718.11530	0.01061
2716.82953	0.01077
2715.54376	0.01098
2714.25799	0.01104
2712.97222	0.01090
2711.68646	0.01070
2710.40069	0.01061
2709.11492	0.01069
2707.82915	0.01081
2706.54338	0.01089
2705.25761	0.01091
2703.97184	0.01089
2702.68607	0.01087
2701.40031	0.01087
2700.11454	0.01090
2698.82877	0.01096
2697.54300	0.01105
2696.25723	0.01114
2694.97146	0.01123
2693.68569	0.01124
2692.39992	0.01117
2691.11415	0.01102
2689.82839	0.01082
2688.54262	0.01062
2687.25685	0.01046
2685.97108	0.01043
2684.68531	0.01053
2683.39954	0.01070
2682.11377	0.01085
2680.82800	0.01091
2679.54224	0.01091
2678.25647	0.01091
2676.97070	0.01090
2675.68493	0.01084
2674.39916	0.01070
2673.11339	0.01055
2671.82762	0.01047
2670.54185	0.01049
2669.25608	0.01056
2667.97032	0.01062
2666.68455	0.01071
2665.39878	0.01089
2664.11301	0.01117
2662.82724	0.01143
2661.54147	0.01155
2660.25570	0.01148
2658.96993	0.01133
2657.68417	0.01125
2656.39840	0.01129
2655.11263	0.01135
2653.82686	0.01137
2652.54109	0.01136
2651.25532	0.01137
2649.96955	0.01138
2648.68378	0.01136
2647.39801	0.01135
2646.11225	0.01137
2644.82648	0.01136
2643.54071	0.01123
2642.25494	0.01103
2640.96917	0.01097
2639.68340	0.01117
2638.39763	0.01148
2637.11186	0.01158
2635.82609	0.01132
2634.54033	0.01085
2633.25456	0.01044
2631.96879	0.01024
2630.68302	0.01021
2629.39725	0.01020
2628.11148	0.01016
2626.82571	0.01013
2625.53994	0.01016
2624.25418	0.01021
2622.96841	0.01020
2621.68264	0.01011
2620.39687	0.01002
2619.11110	0.01000
2617.82533	0.01008
2616.53956	0.01015
2615.25379	0.01013
2613.96802	0.00997
2612.68226	0.00975
2611.39649	0.00965
2610.11072	0.00978
2608.82495	0.01005
2607.53918	0.01024
2606.25341	0.01020
2604.96764	0.01001
2603.68187	0.00980
2602.39611	0.00957
2601.11034	0.00927
2599.82457	0.00904
2598.53880	0.00904
2597.25303	0.00929
2595.96726	0.00957
2594.68149	0.00974
2593.39572	0.00980
2592.10995	0.00980
2590.82419	0.00976
2589.53842	0.00961
2588.25265	0.00924
2586.96688	0.00866
2585.68111	0.00804
2584.39534	0.00760
2583.10957	0.00744
2581.82380	0.00745
2580.53804	0.00752
2579.25227	0.00766
2577.96650	0.00790
2576.68073	0.00817
2575.39496	0.00834
2574.10919	0.00835
2572.82342	0.00821
2571.53765	0.00796
2570.25188	0.00764
2568.96612	0.00735
2567.68035	0.00717
2566.39458	0.00709
2565.10881	0.00711
2563.82304	0.00738
2562.53727	0.00800
2561.25150	0.00873
2559.96573	0.00905
2558.67997	0.00876
2557.39420	0.00823
2556.10843	0.00796
2554.82266	0.00808
2553.53689	0.00832
2552.25112	0.00841
2550.96535	0.00829
2549.67958	0.00813
2548.39381	0.00814
2547.10805	0.00832
2545.82228	0.00852
2544.53651	0.00857
2543.25074	0.00843
2541.96497	0.00817
2540.67920	0.00791
2539.39343	0.00769
2538.10766	0.00751
2536.82190	0.00725
2535.53613	0.00692
2534.25036	0.00668
2532.96459	0.00673
2531.67882	0.00702
2530.39305	0.00728
2529.10728	0.00727
2527.82151	0.00702
2526.53574	0.00676
2525.24998	0.00669
2523.96421	0.00685
2522.67844	0.00710
2521.39267	0.00724
2520.10690	0.00721
2518.82113	0.00716
2517.53536	0.00726
2516.24959	0.00742
2514.96383	0.00748
2513.67806	0.00744
2512.39229	0.00751
2511.10652	0.00770
2509.82075	0.00779
2508.53498	0.00762
2507.24921	0.00733
2505.96344	0.00714
2504.67767	0.00710
2503.39191	0.00718
2502.10614	0.00738
2500.82037	0.00761
2499.53460	0.00763
2498.24883	0.00732
2496.96306	0.00679
2495.67729	0.00639
2494.39152	0.00635
2493.10576	0.00667
2491.81999	0.00713
2490.53422	0.00754
2489.24845	0.00776
2487.96268	0.00770
2486.67691	0.00740
2485.39114	0.00709
2484.10537	0.00696
2482.81960	0.00699
2481.53384	0.00708
2480.24807	0.00719
2478.96230	0.00737
2477.67653	0.00761
2476.39076	0.00777
2475.10499	0.00770
2473.81922	0.00738
2472.53345	0.00700
2471.24769	0.00677
2469.96192	0.00676
2468.67615	0.00687
2467.39038	0.00696
2466.10461	0.00702
2464.81884	0.00707
2463.53307	0.00714
2462.24730	0.00726
2460.96153	0.00750
2459.67577	0.00789
2458.39000	0.00823
2457.10423	0.00825
2455.81846	0.00793
2454.53269	0.00757
2453.24692	0.00740
2451.96115	0.00743
2450.67538	0.00756
2449.38962	0.00781
2448.10385	0.00823
2446.81808	0.00867
2445.53231	0.00880
2444.24654	0.00844
2442.96077	0.00771
2441.67500	0.00691
2440.38923	0.00628
2439.10346	0.00592
2437.81770	0.00590
2436.53193	0.00621
2435.24616	0.00669
2433.96039	0.00704
2432.67462	0.00705
2431.38885	0.00676
2430.10308	0.00637
2428.81731	0.00605
2427.53155	0.00586
2426.24578	0.00577
2424.96001	0.00565
2423.67424	0.00550
2422.38847	0.00543
2421.10270	0.00557
2419.81693	0.00583
2418.53116	0.00603
2417.24539	0.00618
2415.95963	0.00634
2414.67386	0.00649
2413.38809	0.00649
2412.10232	0.00634
2410.81655	0.00622
2409.53078	0.00623
2408.24501	0.00635
2406.95924	0.00651
2405.67347	0.00666
2404.38771	0.00672
2403.10194	0.00664
2401.81617	0.00649
2400.53040	0.00638
2399.24463	0.00647
2397.95886	0.00648
2396.67309	0.00660
2395.38732	0.00686
2394.10156	0.00712
2392.81579	0.00724
2391.53002	0.00715
2390.24425	0.00694
2388.95848	0.00668
2387.67271	0.00641
2386.38694	0.00612
2385.10117	0.00586
2383.81540	0.00567
2382.52964	0.00559
2381.24387	0.00563
2379.95810	0.00571
2378.67233	0.00580
2377.38656	0.00585
2376.10079	0.00573
2374.81502	0.00568
2373.52925	0.00527
2372.24349	0.00449
2370.95772	0.00360
2369.67195	0.00352
2368.38618	0.00386
2367.10041	0.00378
2365.81464	0.00299
2364.52887	0.00243
2363.24310	0.00226
2361.95733	0.00179
2360.67157	-0.00003
2359.38580	-0.00124
2358.10003	-0.00050
2356.81426	0.00185
2355.52849	0.00478
2354.24272	0.00741
2352.95695	0.00873
2351.67118	0.00765
2350.38542	0.00582
2349.09965	0.00582
2347.81388	0.00703
2346.52811	0.00566
2345.24234	0.00342
2343.95657	0.00540
2342.67080	0.01011
2341.38503	0.00895
2340.09926	0.00234
2338.81350	0.00228
2337.52773	0.00892
2336.24196	0.00767
2334.95619	0.00069
2333.67042	0.00287
2332.38465	0.01009
2331.09888	0.00723
2329.81311	0.00379
2328.52735	0.00967
2327.24158	0.00960
2325.95581	0.00589
2324.67004	0.00983
2323.38427	0.01151
2322.09850	0.00820
2320.81273	0.01000
2319.52696	0.00967
2318.24119	0.00722
2316.95543	0.00851
2315.66966	0.00809
2314.38389	0.00692
2313.09812	0.00802
2311.81235	0.00764
2310.52658	0.00767
2309.24081	0.00775
2307.95504	0.00682
2306.66928	0.00693
2305.38351	0.00688
2304.09774	0.00695
2302.81197	0.00733
2301.52620	0.00726
2300.24043	0.00745
2298.95466	0.00744
2297.66889	0.00748
2296.38312	0.00766
2295.09736	0.00798
2293.81159	0.00858
2292.52582	0.00903
2291.24005	0.00927
2289.95428	0.00927
2288.66851	0.00917
2287.38274	0.00898
2286.09697	0.00865
2284.81121	0.00835
2283.52544	0.00823
2282.23967	0.00830
2280.95390	0.00830
2279.66813	0.00812
2278.38236	0.00777
2277.09659	0.00735
2275.81082	0.00689
2274.52505	0.00667
2273.23929	0.00694
2271.95352	0.00760
2270.66775	0.00812
2269.38198	0.00812
2268.09621	0.00769
2266.81044	0.00700
2265.52467	0.00623
2264.23890	0.00565
2262.95314	0.00540
2261.66737	0.00543
2260.38160	0.00578
2259.09583	0.00623
2257.81006	0.00624
2256.52429	0.00558
2255.23852	0.00460
2253.95275	0.00369
2252.66698	0.00311
2251.38122	0.00280
2250.09545	0.00251
2248.80968	0.00243
2247.52391	0.00272
2246.23814	0.00336
2244.95237	0.00409
2243.66660	0.00465
2242.38083	0.00494
2241.09507	0.00503
2239.80930	0.00511
2238.52353	0.00528
2237.23776	0.00538
2235.95199	0.00517
2234.66622	0.00458
2233.38045	0.00388
2232.09468	0.00345
2230.80891	0.00352
2229.52315	0.00401
2228.23738	0.00454
2226.95161	0.00471
2225.66584	0.00447
2224.38007	0.00418
2223.09430	0.00421
2221.80853	0.00453
2220.52276	0.00482
2219.23700	0.00473
2217.95123	0.00423
2216.66546	0.00352
2215.37969	0.00299
2214.09392	0.00295
2212.80815	0.00340
2211.52238	0.00387
2210.23661	0.00386
2208.95084	0.00337
2207.66508	0.00289
2206.37931	0.00284
2205.09354	0.00299
2203.80777	0.00275
2202.52200	0.00193
2201.23623	0.00107
2199.95046	0.00085
2198.66469	0.00141
2197.37893	0.00224
2196.09316	0.00280
2194.80739	0.00289
2193.52162	0.00275
2192.23585	0.00264
2190.95008	0.00265
2189.66431	0.00267
2188.37854	0.00270
2187.09277	0.00294
2185.80701	0.00351
2184.52124	0.00406
2183.23547	0.00410
2181.94970	0.00359
2180.66393	0.00304
2179.37816	0.00275
2178.09239	0.00251
2176.80662	0.00214
2175.52085	0.00180
2174.23509	0.00168
2172.94932	0.00152
2171.66355	0.00093
2170.37778	0.00005
2169.09201	-0.00058
2167.80624	-0.00060
2166.52047	-0.00009
2165.23470	0.00067
2163.94894	0.00147
2162.66317	0.00184
2161.37740	0.00107
2160.09163	-0.00103
2158.80586	-0.00362
2157.52009	-0.00540
2156.23432	-0.00575
2154.94855	-0.00497
2153.66278	-0.00371
2152.37702	-0.00251
2151.09125	-0.00178
2149.80548	-0.00165
2148.51971	-0.00188
2147.23394	-0.00201
2145.94817	-0.00182
2144.66240	-0.00145
2143.37663	-0.00102
2142.09087	-0.00051
2140.80510	0.00007
2139.51933	0.00039
2138.23356	0.00010
2136.94779	-0.00078
2135.66202	-0.00183
2134.37625	-0.00263
2133.09048	-0.00304
2131.80471	-0.00316
2130.51895	-0.00308
2129.23318	-0.00280
2127.94741	-0.00228
2126.66164	-0.00162
2125.37587	-0.00096
2124.09010	-0.00042
2122.80433	0.00002
2121.51856	0.00045
2120.23280	0.00092
2118.94703	0.00148
2117.66126	0.00214
2116.37549	0.00284
2115.08972	0.00332
2113.80395	0.00328
2112.51818	0.00279
2111.23241	0.00225
2109.94664	0.00203
2108.66088	0.00204
2107.37511	0.00196
2106.08934	0.00176
2104.80357	0.00166
2103.51780	0.00172
2102.23203	0.00159
2100.94626	0.00108
2099.66049	0.00280
2098.37473	0.00348
2097.08896	0.00321
2095.80319	0.00268
2094.51742	0.00193
2093.23165	0.00112
2091.94588	0.00060
2090.66011	0.00055
2089.37434	0.00082
2088.08857	0.00111
2086.80281	0.00131
2085.51704	0.00146
2084.23127	0.00172
2082.94550	0.00213
2081.65973	0.00261
2080.37396	0.00306
2079.08819	0.00341
2077.80242	0.00367
2076.51666	0.00389
2075.23089	0.00410
2073.94512	0.00428
2072.65935	0.00442
2071.37358	0.00454
2070.08781	0.00467
2068.80204	0.00477
2067.51627	0.00480
2066.23050	0.00465
2064.94474	0.00419
2063.65897	0.00339
2062.37320	0.00237
2061.08743	0.00138
2059.80166	0.00054
2058.51589	-0.00017
2057.23012	-0.00080
2055.94435	-0.00122
2054.65859	-0.00109
2053.37282	-0.00009
2052.08705	0.00170
2050.80128	0.00367
2049.51551	0.00500
2048.22974	0.00524
2046.94397	0.00458
2045.65820	0.00348
2044.37243	0.00228
2043.08667	0.00107
2041.80090	-0.00010
2040.51513	-0.00105
2039.22936	-0.00143
2037.94359	-0.00086
2036.65782	0.00057
2035.37205	0.00219
2034.08628	0.00311
2032.80052	0.00295
2031.51475	0.00211
2030.22898	0.00125
2028.94321	0.00068
2027.65744	0.00036
2026.37167	0.00021
2025.08590	0.00025
2023.80013	0.00054
2022.51436	0.00100
2021.22860	0.00147
2019.94283	0.00180
2018.65706	0.00195
2017.37129	0.00200
2016.08552	0.00206
2014.79975	0.00213
2013.51398	0.00226
2012.22821	0.00255
2010.94245	0.00310
2009.65668	0.00384
2008.37091	0.00440
2007.08514	0.00438
2005.79937	0.00376
2004.51360	0.00300
2003.22783	0.00259
2001.94206	0.00248
2000.65629	0.00220
1999.37053	0.00158
1998.08476	0.00100
1996.79899	0.00095
1995.51322	0.00144
1994.22745	0.00198
1992.94168	0.00214
1991.65591	0.00196
1990.37014	0.00180
1989.08438	0.00189
1987.79861	0.00203
1986.51284	0.00187
1985.22707	0.00142
1983.94130	0.00128
1982.65553	0.00222
1981.36976	0.00445
1980.08399	0.00728
1978.79822	0.00959
1977.51246	0.01058
1976.22669	0.01020
1974.94092	0.00895
1973.65515	0.00758
1972.36938	0.00677
1971.08361	0.00671
1969.79784	0.00695
1968.51207	0.00694
1967.22631	0.00655
1965.94054	0.00599
1964.65477	0.00539
1963.36900	0.00480
1962.08323	0.00429
1960.79746	0.00392
1959.51169	0.00349
1958.22592	0.00278
1956.94015	0.00201
1955.65439	0.00169
1954.36862	0.00219
1953.08285	0.00329
1951.79708	0.00441
1950.51131	0.00508
1949.22554	0.00526
1947.93977	0.00524
1946.65400	0.00530
1945.36823	0.00544
1944.08247	0.00548
1942.79670	0.00533
1941.51093	0.00513
1940.22516	0.00500
1938.93939	0.00481
1937.65362	0.00441
1936.36785	0.00386
1935.08208	0.00350
1933.79632	0.00362
1932.51055	0.00414
1931.22478	0.00466
1929.93901	0.00486
1928.65324	0.00474
1927.36747	0.00448
1926.08170	0.00424
1924.79593	0.00414
1923.51016	0.00423
1922.22440	0.00453
1920.93863	0.00490
1919.65286	0.00513
1918.36709	0.00520
1917.08132	0.00523
1915.79555	0.00533
1914.50978	0.00548
1913.22401	0.00558
1911.93825	0.00559
1910.65248	0.00555
1909.36671	0.00548
1908.08094	0.00540
1906.79517	0.00531
1905.50940	0.00521
1904.22363	0.00516
1902.93786	0.00516
1901.65209	0.00523
1900.36633	0.00534
1899.08056	0.00544
1897.79479	0.00546
1896.50902	0.00536
1895.22325	0.00524
1893.93748	0.00520
1892.65171	0.00527
1891.36594	0.00534
1890.08018	0.00532
1888.79441	0.00518
1887.50864	0.00498
1886.22287	0.00483
1884.93710	0.00483
1883.65133	0.00499
1882.36556	0.00520
1881.07979	0.00538
1879.79402	0.00546
1878.50826	0.00541
1877.22249	0.00520
1875.93672	0.00490
1874.65095	0.00459
1873.36518	0.00438
1872.07941	0.00434
1870.79364	0.00447
1869.50787	0.00469
1868.22211	0.00490
1866.93634	0.00505
1865.65057	0.00517
1864.36480	0.00532
1863.07903	0.00550
1861.79326	0.00566
1860.50749	0.00575
1859.22172	0.00580
1857.93595	0.00578
1856.65019	0.00569
1855.36442	0.00554
1854.07865	0.00538
1852.79288	0.00524
1851.50711	0.00517
1850.22134	0.00522
1848.93557	0.00537
1847.64980	0.00551
1846.36404	0.00544
1845.07827	0.00518
1843.79250	0.00493
1842.50673	0.00483
1841.22096	0.00484
1839.93519	0.00488
1838.64942	0.00495
1837.36365	0.00503
1836.07788	0.00508
1834.79212	0.00510
1833.50635	0.00515
1832.22058	0.00523
1830.93481	0.00530
1829.64904	0.00539
1828.36327	0.00556
1827.07750	0.00582
1825.79173	0.00612
1824.50597	0.00641
1823.22020	0.00669
1821.93443	0.00696
1820.64866	0.00715
1819.36289	0.00708
1818.07712	0.00664
1816.79135	0.00589
1815.50558	0.00511
1814.21981	0.00456
1812.93405	0.00432
1811.64828	0.00431
1810.36251	0.00441
1809.07674	0.00455
1807.79097	0.00469
1806.50520	0.00480
1805.21943	0.00488
1803.93366	0.00495
1802.64790	0.00502
1801.36213	0.00510
1800.07636	0.00520
1798.79059	0.00534
1797.50482	0.00555
1796.21905	0.00577
1794.93328	0.00588
1793.64751	0.00582
1792.36174	0.00571
1791.07598	0.00569
1789.79021	0.00581
1788.50444	0.00599
1787.21867	0.00615
1785.93290	0.00627
1784.64713	0.00636
1783.36136	0.00642
1782.07559	0.00642
1780.78983	0.00639
1779.50406	0.00637
1778.21829	0.00640
1776.93252	0.00647
1775.64675	0.00648
1774.36098	0.00634
1773.07521	0.00608
1771.78944	0.00587
1770.50367	0.00576
1769.21791	0.00572
1767.93214	0.00572
1766.64637	0.00581
1765.36060	0.00597
1764.07483	0.00608
1762.78906	0.00611
1761.50329	0.00611
1760.21752	0.00613
1758.93176	0.00615
1757.64599	0.00614
1756.36022	0.00615
1755.07445	0.00622
1753.78868	0.00631
1752.50291	0.00635
1751.21714	0.00637
1749.93137	0.00641
1748.64560	0.00643
1747.35984	0.00640
1746.07407	0.00637
1744.78830	0.00644
1743.50253	0.00662
1742.21676	0.00682
1740.93099	0.00695
1739.64522	0.00701
1738.35945	0.00711
1737.07369	0.00721
1735.78792	0.00717
1734.50215	0.00701
1733.21638	0.00690
1731.93061	0.00687
1730.64484	0.00686
1729.35907	0.00685
1728.07330	0.00686
1726.78753	0.00686
1725.50177	0.00684
1724.21600	0.00686
1722.93023	0.00702
1721.64446	0.00734
1720.35869	0.00766
1719.07292	0.00785
1717.78715	0.00789
1716.50138	0.00786
1715.21561	0.00778
1713.92985	0.00764
1712.64408	0.00754
1711.35831	0.00756
1710.07254	0.00772
1708.78677	0.00792
1707.50100	0.00806
1706.21523	0.00820
1704.92946	0.00849
1703.64370	0.00890
1702.35793	0.00918
1701.07216	0.00927
1699.78639	0.00932
1698.50062	0.00937
1697.21485	0.00927
1695.92908	0.00906
1694.64331	0.00899
1693.35754	0.00909
1692.07178	0.00923
1690.78601	0.00940
1689.50024	0.00971
1688.21447	0.01012
1686.92870	0.01042
1685.64293	0.01048
1684.35716	0.01041
1683.07139	0.01042
1681.78563	0.01050
1680.49986	0.01064
1679.21409	0.01088
1677.92832	0.01114
1676.64255	0.01132
1675.35678	0.01143
1674.07101	0.01159
1672.78524	0.01183
1671.49947	0.01202
1670.21371	0.01210
1668.92794	0.01213
1667.64217	0.01223
1666.35640	0.01245
1665.07063	0.01273
1663.78486	0.01296
1662.49909	0.01308
1661.21332	0.01311
1659.92756	0.01316
1658.64179	0.01338
1657.35602	0.01386
1656.07025	0.01439
1654.78448	0.01463
1653.49871	0.01455
1652.21294	0.01445
1650.92717	0.01450
1649.64140	0.01460
1648.35564	0.01467
1647.06987	0.01474
1645.78410	0.01489
1644.49833	0.01505
1643.21256	0.01515
1641.92679	0.01519
1640.64102	0.01527
1639.35525	0.01545
1638.06949	0.01565
1636.78372	0.01577
1635.49795	0.01584
1634.21218	0.01592
1632.92641	0.01601
1631.64064	0.01608
1630.35487	0.01616
1629.06910	0.01632
1627.78333	0.01655
1626.49757	0.01679
1625.21180	0.01692
1623.92603	0.01694
1622.64026	0.01697
1621.35449	0.01713
1620.06872	0.01739
1618.78295	0.01758
1617.49718	0.01766
1616.21142	0.01773
1614.92565	0.01787
1613.63988	0.01804
1612.35411	0.01817
1611.06834	0.01832
1609.78257	0.01849
1608.49680	0.01869
1607.21103	0.01887
1605.92526	0.01900
1604.63950	0.01911
1603.35373	0.01923
1602.06796	0.01939
1600.78219	0.01957
1599.49642	0.01972
1598.21065	0.01985
1596.92488	0.01999
1595.63911	0.02016
1594.35335	0.02033
1593.06758	0.02049
1591.78181	0.02061
1590.49604	0.02071
1589.21027	0.02076
1587.92450	0.02075
1586.63873	0.02068
1585.35296	0.02059
1584.06719	0.02054
1582.78143	0.02058
1581.49566	0.02072
1580.20989	0.02094
1578.92412	0.02112
1577.63835	0.02110
1576.35258	0.02094
1575.06681	0.02085
1573.78104	0.02085
1572.49528	0.02084
1571.20951	0.02073
1569.92374	0.02058
1568.63797	0.02047
1567.35220	0.02041
1566.06643	0.02037
1564.78066	0.02043
1563.49489	0.02065
1562.20912	0.02088
1560.92336	0.02087
1559.63759	0.02063
1558.35182	0.02037
1557.06605	0.02018
1555.78028	0.01999
1554.49451	0.01978
1553.20874	0.01961
1551.92297	0.01947
1550.63721	0.01936
1549.35144	0.01930
1548.06567	0.01929
1546.77990	0.01929
1545.49413	0.01930
1544.20836	0.01936
1542.92259	0.01943
1541.63682	0.01936
1540.35105	0.01912
1539.06529	0.01889
1537.77952	0.01880
1536.49375	0.01877
1535.20798	0.01872
1533.92221	0.01866
1532.63644	0.01871
1531.35067	0.01889
1530.06490	0.01911
1528.77914	0.01937
1527.49337	0.01966
1526.20760	0.02002
1524.92183	0.02044
1523.63606	0.02084
1522.35029	0.02120
1521.06452	0.02159
1519.77875	0.02207
1518.49298	0.02257
1517.20722	0.02304
1515.92145	0.02353
1514.63568	0.02406
1513.34991	0.02461
1512.06414	0.02524
1510.77837	0.02599
1509.49260	0.02678
1508.20683	0.02744
1506.92107	0.02797
1505.63530	0.02849
1504.34953	0.02907
1503.06376	0.02965
1501.77799	0.03022
1500.49222	0.03082
1499.20645	0.03141
1497.92068	0.03190
1496.63491	0.03230
1495.34915	0.03270
1494.06338	0.03311
1492.77761	0.03349
1491.49184	0.03384
1490.20607	0.03422
1488.92030	0.03465
1487.63453	0.03510
1486.34876	0.03555
1485.06299	0.03601
1483.77723	0.03649
1482.49146	0.03700
1481.20569	0.03753
1479.91992	0.03808
1478.63415	0.03862
1477.34838	0.03914
1476.06261	0.03962
1474.77684	0.03997
1473.49108	0.04018
1472.20531	0.04031
1470.91954	0.04046
1469.63377	0.04063
1468.34800	0.04077
1467.06223	0.04086
1465.77646	0.04089
1464.49069	0.04092
1463.20492	0.04105
1461.91916	0.04135
1460.63339	0.04177
1459.34762	0.04216
1458.06185	0.04241
1456.77608	0.04261
1455.49031	0.04284
1454.20454	0.04306
1452.91877	0.04319
1451.63301	0.04325
1450.34724	0.04329
1449.06147	0.04330
1447.77570	0.04328
1446.48993	0.04322
1445.20416	0.04311
1443.91839	0.04292
1442.63262	0.04271
1441.34685	0.04255
1440.06109	0.04245
1438.77532	0.04236
1437.48955	0.04228
1436.20378	0.04229
1434.91801	0.04248
1433.63224	0.04280
1432.34647	0.04320
1431.06070	0.04370
1429.77494	0.04431
1428.48917	0.04501
1427.20340	0.04575
1425.91763	0.04647
1424.63186	0.04719
1423.34609	0.04793
1422.06032	0.04862
1420.77455	0.04917
1419.48878	0.04959
1418.20302	0.04994
1416.91725	0.05023
1415.63148	0.05043
1414.34571	0.05050
1413.05994	0.05046
1411.77417	0.05030
1410.48840	0.05002
1409.20263	0.04964
1407.91687	0.04915
1406.63110	0.04854
1405.34533	0.04786
1404.05956	0.04714
1402.77379	0.04639
1401.48802	0.04555
1400.20225	0.04463
1398.91648	0.04366
1397.63071	0.04267
1396.34495	0.04167
1395.05918	0.04066
1393.77341	0.03965
1392.48764	0.03864
1391.20187	0.03760
1389.91610	0.03653
1388.63033	0.03548
1387.34456	0.03448
1386.05880	0.03351
1384.77303	0.03250
1383.48726	0.03142
1382.20149	0.03034
1380.91572	0.02933
1379.62995	0.02840
1378.34418	0.02750
1377.05841	0.02659
1375.77264	0.02568
1374.48688	0.02478
1373.20111	0.02394
1371.91534	0.02313
1370.62957	0.02233
1369.34380	0.02156
1368.05803	0.02085
1366.77226	0.02023
1365.48649	0.01968
1364.20073	0.01915
1362.91496	0.01865
1361.62919	0.01816
1360.34342	0.01768
1359.05765	0.01719
1357.77188	0.01670
1356.48611	0.01624
1355.20034	0.01583
1353.91457	0.01545
1352.62881	0.01508
1351.34304	0.01472
1350.05727	0.01440
1348.77150	0.01412
1347.48573	0.01388
1346.19996	0.01365
1344.91419	0.01342
1343.62842	0.01320
1342.34266	0.01297
1341.05689	0.01276
1339.77112	0.01259
1338.48535	0.01245
1337.19958	0.01234
1335.91381	0.01223
1334.62804	0.01211
1333.34227	0.01197
1332.05650	0.01182
1330.77074	0.01164
1329.48497	0.01143
1328.19920	0.01121
1326.91343	0.01103
1325.62766	0.01092
1324.34189	0.01087
1323.05612	0.01085
1321.77035	0.01079
1320.48459	0.01067
1319.19882	0.01049
1317.91305	0.01032
1316.62728	0.01020
1315.34151	0.01011
1314.05574	0.01001
1312.76997	0.00988
1311.48420	0.00976
1310.19843	0.00969
1308.91267	0.00969
1307.62690	0.00972
1306.34113	0.00977
1305.05536	0.00982
1303.76959	0.00983
1302.48382	0.00978
1301.19805	0.00967
1299.91228	0.00952
1298.62652	0.00940
1297.34075	0.00931
1296.05498	0.00923
1294.76921	0.00912
1293.48344	0.00897
1292.19767	0.00883
1290.91190	0.00874
1289.62613	0.00870
1288.34036	0.00869
1287.05460	0.00868
1285.76883	0.00865
1284.48306	0.00860
1283.19729	0.00856
1281.91152	0.00851
1280.62575	0.00846
1279.33998	0.00842
1278.05421	0.00840
1276.76845	0.00838
1275.48268	0.00836
1274.19691	0.00833
1272.91114	0.00831
1271.62537	0.00830
1270.33960	0.00828
1269.05383	0.00825
1267.76806	0.00821
1266.48229	0.00818
1265.19653	0.00817
1263.91076	0.00817
1262.62499	0.00815
1261.33922	0.00810
1260.05345	0.00802
1258.76768	0.00794
1257.48191	0.00789
1256.19614	0.00788
1254.91037	0.00791
1253.62461	0.00793
1252.33884	0.00794
1251.05307	0.00794
1249.76730	0.00794
1248.48153	0.00793
1247.19576	0.00791
1245.90999	0.00786
1244.62422	0.00780
1243.33846	0.00774
1242.05269	0.00770
1240.76692	0.00768
1239.48115	0.00768
1238.19538	0.00770
1236.90961	0.00775
1235.62384	0.00780
1234.33807	0.00783
1233.05230	0.00783
1231.76654	0.00783
1230.48077	0.00783
1229.19500	0.00784
1227.90923	0.00786
1226.62346	0.00786
1225.33769	0.00785
1224.05192	0.00779
1222.76615	0.00771
1221.48039	0.00763
1220.19462	0.00759
1218.90885	0.00761
1217.62308	0.00766
1216.33731	0.00771
1215.05154	0.00776
1213.76577	0.00781
1212.48000	0.00784
1211.19423	0.00788
1209.90847	0.00794
1208.62270	0.00802
1207.33693	0.00813
1206.05116	0.00824
1204.76539	0.00835
1203.47962	0.00848
1202.19385	0.00862
1200.90808	0.00860
1199.62232	0.00836
1198.33655	0.00842
1197.05078	0.00845
1195.76501	0.00846
1194.47924	0.00847
1193.19347	0.00850
1191.90770	0.00854
1190.62193	0.00858
1189.33616	0.00863
1188.05040	0.00868
1186.76463	0.00874
1185.47886	0.00882
1184.19309	0.00891
1182.90732	0.00899
1181.62155	0.00906
1180.33578	0.00910
1179.05001	0.00915
1177.76425	0.00920
1176.47848	0.00926
1175.19271	0.00931
1173.90694	0.00936
1172.62117	0.00941
1171.33540	0.00947
1170.04963	0.00953
1168.76386	0.00961
1167.47809	0.00975
1166.19233	0.00995
1164.90656	0.01019
1163.62079	0.01038
1162.33502	0.01052
1161.04925	0.01060
1159.76348	0.01070
1158.47771	0.01087
1157.19194	0.01114
1155.90618	0.01147
1154.62041	0.01180
1153.33464	0.01208
1152.04887	0.01235
1150.76310	0.01263
1149.47733	0.01291
1148.19156	0.01317
1146.90579	0.01345
1145.62002	0.01376
1144.33426	0.01415
1143.04849	0.01463
1141.76272	0.01519
1140.47695	0.01583
1139.19118	0.01653
1137.90541	0.01726
1136.61964	0.01805
1135.33387	0.01895
1134.04811	0.01997
1132.76234	0.02112
1131.47657	0.02243
1130.19080	0.02390
1128.90503	0.02551
1127.61926	0.02724
1126.33349	0.02903
1125.04772	0.03092
1123.76195	0.03292
1122.47619	0.03505
1121.19042	0.03725
1119.90465	0.03947
1118.61888	0.04167
1117.33311	0.04386
1116.04734	0.04609
1114.76157	0.04832
1113.47580	0.05050
1112.19004	0.05259
1110.90427	0.05460
1109.61850	0.05656
1108.33273	0.05846
1107.04696	0.06032
1105.76119	0.06215
1104.47542	0.06396
1103.18965	0.06572
1101.90388	0.06740
1100.61812	0.06901
1099.33235	0.07057
1098.04658	0.07205
1096.76081	0.07345
1095.47504	0.07477
1094.18927	0.07606
1092.90350	0.07733
1091.61773	0.07856
1090.33197	0.07971
1089.04620	0.08080
1087.76043	0.08187
1086.47466	0.08301
1085.18889	0.08421
1083.90312	0.08546
1082.61735	0.08674
1081.33158	0.08808
1080.04581	0.08952
1078.76005	0.09110
1077.47428	0.09279
1076.18851	0.09459
1074.90274	0.09653
1073.61697	0.09859
1072.33120	0.10073
1071.04543	0.10288
1069.75966	0.10499
1068.47390	0.10710
1067.18813	0.10928
1065.90236	0.11156
1064.61659	0.11390
1063.33082	0.11627
1062.04505	0.11864
1060.75928	0.12098
1059.47351	0.12327
1058.18774	0.12551
1056.90198	0.12770
1055.61621	0.12982
1054.33044	0.13190
1053.04467	0.13397
1051.75890	0.13612
1050.47313	0.13833
1049.18736	0.14058
1047.90159	0.14286
1046.61583	0.14519
1045.33006	0.14756
1044.04429	0.14995
1042.75852	0.15232
1041.47275	0.15468
1040.18698	0.15704
1038.90121	0.15943
1037.61544	0.16182
1036.32967	0.16414
1035.04391	0.16632
1033.75814	0.16828
1032.47237	0.16993
1031.18660	0.17121
1029.90083	0.17214
1028.61506	0.17280
1027.32929	0.17325
1026.04352	0.17347
1024.75775	0.17334
1023.47199	0.17274
1022.18622	0.17161
1020.90045	0.17000
1019.61468	0.16800
1018.32891	0.16562
1017.04314	0.16287
1015.75737	0.15974
1014.47160	0.15622
1013.18584	0.15235
1011.90007	0.14811
1010.61430	0.14352
1009.32853	0.13859
1008.04276	0.13346
1006.75699	0.12824
1005.47122	0.12297
1004.18545	0.11765
1002.89968	0.11221
1001.61392	0.10668
1000.32815	0.10112
999.04238	0.09569
997.75661	0.09046
996.47084	0.08545
995.18507	0.08062
993.89930	0.07601
992.61353	0.07169
991.32777	0.06769
990.04200	0.06399
988.75623	0.06055
987.47046	0.05734
986.18469	0.05441
984.89892	0.05178
983.61315	0.04941
982.32738	0.04723
981.04161	0.04517
979.75585	0.04327
978.47008	0.04159
977.18431	0.04017
975.89854	0.03898
974.61277	0.03800
973.32700	0.03726
972.04123	0.03683
970.75546	0.03671
969.46970	0.03686
968.18393	0.03725
966.89816	0.03785
965.61239	0.03862
964.32662	0.03943
963.04085	0.04010
961.75508	0.04045
960.46931	0.04038
959.18354	0.03991
957.89778	0.03909
956.61201	0.03800
955.32624	0.03673
954.04047	0.03536
952.75470	0.03397
951.46893	0.03265
950.18316	0.03146
948.89739	0.03038
947.61163	0.02937
946.32586	0.02844
945.04009	0.02758
943.75432	0.02683
942.46855	0.02613
941.18278	0.02543
939.89701	0.02469
938.61124	0.02394
937.32547	0.02327
936.03971	0.02272
934.75394	0.02229
933.46817	0.02195
932.18240	0.02163
930.89663	0.02127
929.61086	0.02089
928.32509	0.02054
927.03932	0.02022
925.75356	0.01991
924.46779	0.01961
923.18202	0.01937
921.89625	0.01922
920.61048	0.01913
919.32471	0.01901
918.03894	0.01880
916.75317	0.01854
915.46740	0.01830
914.18164	0.01812
912.89587	0.01802
911.61010	0.01797
910.32433	0.01792
909.03856	0.01783
907.75279	0.01768
906.46702	0.01747
905.18125	0.01722
903.89549	0.01697
902.60972	0.01679
901.32395	0.01670
900.03818	0.01670
898.75241	0.01672
897.46664	0.01674
896.18087	0.01676
894.89510	0.01684
893.60933	0.01700
892.32357	0.01716
891.03780	0.01728
889.75203	0.01735
888.46626	0.01743
887.18049	0.01765
885.89472	0.01818
884.60895	0.01913
883.32318	0.02054
882.03742	0.02223
880.75165	0.02389
879.46588	0.02524
878.18011	0.02619
876.89434	0.02689
875.60857	0.02757
874.32280	0.02832
873.03703	0.02899
871.75126	0.02934
870.46550	0.02925
869.17973	0.02870
867.89396	0.02779
866.60819	0.02661
865.32242	0.02529
864.03665	0.02395
862.75088	0.02271
861.46511	0.02162
860.17935	0.02072
858.89358	0.02000
857.60781	0.01944
856.32204	0.01896
855.03627	0.01851
853.75050	0.01806
852.46473	0.01769
851.17896	0.01747
849.89319	0.01739
848.60743	0.01738
847.32166	0.01733
846.03589	0.01719
844.75012	0.01702
843.46435	0.01692
842.17858	0.01691
840.89281	0.01694
839.60704	0.01691
838.32128	0.01680
837.03551	0.01664
835.74974	0.01647
834.46397	0.01638
833.17820	0.01642
831.89243	0.01655
830.60666	0.01664
829.32089	0.01660
828.03512	0.01644
826.74936	0.01627
825.46359	0.01615
824.17782	0.01608
822.89205	0.01606
821.60628	0.01606
820.32051	0.01606
819.03474	0.01604
817.74897	0.01606
816.46321	0.01615
815.17744	0.01631
813.89167	0.01645
812.60590	0.01649
811.32013	0.01642
810.03436	0.01629
808.74859	0.01616
807.46282	0.01606
806.17705	0.01601
804.89129	0.01605
803.60552	0.01615
802.31975	0.01629
801.03398	0.01643
799.74821	0.01651
798.46244	0.01654
797.17667	0.01650
795.89090	0.01646
794.60513	0.01645
793.31937	0.01649
792.03360	0.01656
790.74783	0.01665
789.46206	0.01672
788.17629	0.01676
786.89052	0.01673
785.60475	0.01662
784.31898	0.01644
783.03322	0.01622
781.74745	0.01605
780.46168	0.01600
779.17591	0.01608
777.89014	0.01628
776.60437	0.01650
775.31860	0.01670
774.03283	0.01682
772.74706	0.01684
771.46130	0.01674
770.17553	0.01657
768.88976	0.01639
767.60399	0.01628
766.31822	0.01629
765.03245	0.01642
763.74668	0.01663
762.46091	0.01680
761.17515	0.01688
759.88938	0.01688
758.60361	0.01685
757.31784	0.01683
756.03207	0.01681
754.74630	0.01681
753.46053	0.01686
752.17476	0.01699
750.88899	0.01714
749.60323	0.01725
748.31746	0.01727
747.03169	0.01726
745.74592	0.01729
744.46015	0.01735
743.17438	0.01734
741.88861	0.01719
740.60284	0.01695
739.31708	0.01676
738.03131	0.01673
736.74554	0.01685
735.45977	0.01703
734.17400	0.01713
732.88823	0.01708
731.60246	0.01693
730.31669	0.01680
729.03092	0.01680
727.74516	0.01692
726.45939	0.01707
725.17362	0.01718
723.88785	0.01733
722.60208	0.01734
721.31631	0.01730
720.03054	0.01726
718.74477	0.01720
717.45901	0.01715
716.17324	0.01715
714.88747	0.01722
713.60170	0.01739
712.31593	0.01760
711.03016	0.01778
709.74439	0.01788
708.45862	0.01788
707.17285	0.01783
705.88709	0.01778
704.60132	0.01775
703.31555	0.01775
702.02978	0.01777
700.74401	0.01782
699.45824	0.01789
698.17247	0.01794
696.88670	0.01795
695.60094	0.01789
694.31517	0.01780
693.02940	0.01779
691.74363	0.01787
690.45786	0.01796
689.17209	0.01798
687.88632	0.01794
686.60055	0.01796
685.31478	0.01806
684.02902	0.01811
682.74325	0.01800
681.45748	0.01782
680.17171	0.01772
678.88594	0.01777
677.60017	0.01785
676.31440	0.01784
675.02863	0.01783
673.74287	0.01791
672.45710	0.01805
671.17133	0.01807
669.88556	0.01792
668.59979	0.01807
667.31402	0.01852
666.02825	0.01832
664.74248	0.01842
663.45671	0.01844
662.17095	0.01834
660.88518	0.01827
659.59941	0.01827
658.31364	0.01827
657.02787	0.01822
655.74210	0.01819
654.45633	0.01823
653.17056	0.01835
651.88480	0.01844
650.59903	0.01847
649.31326	0.01848
648.02749	0.01855
646.74172	0.01873
645.45595	0.01893
644.17018	0.01904
642.88441	0.01904
641.59864	0.01903
640.31288	0.01908
639.02711	0.01926
637.74134	0.01950
636.45557	0.01974
635.16980	0.01997
633.88403	0.02017
632.59826	0.02035
631.31249	0.02079
630.02673	0.02290
628.74096	0.02627
627.45519	0.02535
626.16942	0.02952
624.88365	0.03711
623.59788	0.04434
622.31211	0.04969
621.02634	0.05259
619.74057	0.05319
618.45481	0.05237
617.16904	0.05106
615.88327	0.04972
614.59750	0.04857
613.31173	0.04821
612.02596	0.04960
610.74019	0.05335
609.45442	0.05892
608.16866	0.06474
606.88289	0.06939
605.59712	0.07239
604.31135	0.07394
603.02558	0.07421
601.73981	0.07314
600.45404	0.07074
599.16827	0.06740
597.88250	0.06373
596.59674	0.06031
595.31097	0.05749
594.02520	0.05532
592.73943	0.05377
591.45366	0.05280
590.16789	0.05244
588.88212	0.05268
587.59635	0.05345
586.31059	0.05462
585.02482	0.05606
583.73905	0.05770
582.45328	0.05950
581.16751	0.06146
579.88174	0.06354
578.59597	0.06565
577.31020	0.06770
576.02443	0.06959
574.73867	0.07135
573.45290	0.07307
572.16713	0.07489
570.88136	0.07698
569.59559	0.07941
568.30982	0.08211
567.02405	0.08482
565.73828	0.08713
564.45251	0.08866
563.16675	0.08911
561.88098	0.08829
560.59521	0.08613
559.30944	0.08269
558.02367	0.07824
556.73790	0.07318
555.45213	0.06800
554.16636	0.06306
552.88060	0.05852
551.59483	0.05437
550.30906	0.05059
549.02329	0.04723
547.73752	0.04433
546.45175	0.04189
545.16598	0.03987
543.88021	0.03819
542.59444	0.03679
541.30868	0.03554
540.02291	0.03433
538.73714	0.03309
537.45137	0.03182
536.16560	0.03064
534.87983	0.02963
533.59406	0.02881
532.30829	0.02811
531.02253	0.02748
529.73676	0.02687
528.45099	0.02630
527.16522	0.02578
525.87945	0.02531
524.59368	0.02487
523.30791	0.02443
522.02214	0.02395
520.73637	0.02341
519.45061	0.02285
518.16484	0.02236
516.87907	0.02196
515.59330	0.02163
514.30753	0.02129
513.02176	0.02093
511.73599	0.02060
510.45022	0.02036
509.16446	0.02021
507.87869	0.02009
506.59292	0.01989
505.30715	0.01952
504.02138	0.01902
502.73561	0.01857
501.44984	0.01830
500.16407	0.01822
498.87830	0.01822
497.59254	0.01819
496.30677	0.01810
495.02100	0.01799
493.73523	0.01792
492.44946	0.01788
491.16369	0.01785
489.87792	0.01782
488.59215	0.01779
487.30639	0.01777
486.02062	0.01773
484.73485	0.01765
483.44908	0.01754
482.16331	0.01746
480.87754	0.01745
479.59177	0.01751
478.30600	0.01759
477.02023	0.01768
475.73447	0.01783
474.44870	0.01805
473.16293	0.01833
471.87716	0.01860
470.59139	0.01877
469.30562	0.01882
468.01985	0.01875
466.73408	0.01864
465.44832	0.01853
464.16255	0.01844
462.87678	0.01833
461.59101	0.01814
460.30524	0.01785
459.01947	0.01756
457.73370	0.01732
456.44793	0.01715
455.16216	0.01703
453.87640	0.01691
452.59063	0.01679
451.30486	0.01663
450.01909	0.01646
448.73332	0.01629
447.44755	0.01617
446.16178	0.01608
444.87601	0.01599
443.59025	0.01589
442.30448	0.01579
441.01871	0.01571
439.73294	0.01566
438.44717	0.01566
437.16140	0.01572
435.87563	0.01581
434.58986	0.01583
433.30409	0.01575
432.01833	0.01561
430.73256	0.01551
429.44679	0.01549
428.16102	0.01553
426.87525	0.01554
425.58948	0.01548
424.30371	0.01537
423.01794	0.01526
421.73218	0.01514
420.44641	0.01500
419.16064	0.01487
417.87487	0.01478
416.58910	0.01472
415.30333	0.01465
414.01756	0.01454
412.73179	0.01439
411.44602	0.01426
410.16026	0.01420
408.87449	0.01426
407.58872	0.01442
406.30295	0.01459
405.01718	0.01470
403.73141	0.01474
402.44564	0.01473
401.15987	0.01475
399.87411	0.01480
