3997.45528	0.05224
3996.16951	0.05272
3994.88374	0.05321
3993.59798	0.05380
3992.31221	0.05426
3991.02644	0.05414
3989.74067	0.05327
3988.45490	0.05220
3987.16913	0.05186
3985.88336	0.05268
3984.59759	0.05421
3983.31183	0.05564
3982.02606	0.05638
3980.74029	0.05626
3979.45452	0.05532
3978.16875	0.05373
3976.88298	0.05196
3975.59721	0.05066
3974.31144	0.05034
3973.02567	0.05102
3971.73991	0.05222
3970.45414	0.05335
3969.16837	0.05404
3967.88260	0.05428
3966.59683	0.05418
3965.31106	0.05374
3964.02529	0.05297
3962.73952	0.05211
3961.45376	0.05167
3960.16799	0.05195
3958.88222	0.05276
3957.59645	0.05367
3956.31068	0.05439
3955.02491	0.05494
3953.73914	0.05529
3952.45337	0.05528
3951.16760	0.05474
3949.88184	0.05379
3948.59607	0.05285
3947.31030	0.05221
3946.02453	0.05188
3944.73876	0.05180
3943.45299	0.05204
3942.16722	0.05271
3940.88145	0.05357
3939.59569	0.05419
3938.30992	0.05434
3937.02415	0.05414
3935.73838	0.05384
3934.45261	0.05360
3933.16684	0.05348
3931.88107	0.05346
3930.59530	0.05347
3929.30953	0.05340
3928.02377	0.05328
3926.73800	0.05321
3925.45223	0.05315
3924.16646	0.05294
3922.88069	0.05252
3921.59492	0.05215
3920.30915	0.05219
3919.02338	0.05273
3917.73762	0.05344
3916.45185	0.05381
3915.16608	0.05353
3913.88031	0.05263
3912.59454	0.05153
3911.30877	0.05079
3910.02300	0.05064
3908.73723	0.05085
3907.45146	0.05104
3906.16570	0.05106
3904.87993	0.05097
3903.59416	0.05091
3902.30839	0.05098
3901.02262	0.05121
3899.73685	0.05155
3898.45108	0.05182
3897.16531	0.05186
3895.87955	0.05172
3894.59378	0.05168
3893.30801	0.05192
3892.02224	0.05230
3890.73647	0.05247
3889.45070	0.05228
3888.16493	0.05194
3886.87916	0.05178
3885.59339	0.05186
3884.30763	0.05196
3883.02186	0.05187
3881.73609	0.05159
3880.45032	0.05121
3879.16455	0.05072
3877.87878	0.05006
3876.59301	0.04933
3875.30724	0.04899
3874.02148	0.04944
3872.73571	0.05045
3871.44994	0.05121
3870.16417	0.05108
3868.87840	0.05032
3867.59263	0.04979
3866.30686	0.05000
3865.02109	0.05063
3863.73532	0.05101
3862.44956	0.05090
3861.16379	0.05060
3859.87802	0.05048
3858.59225	0.05067
3857.30648	0.05118
3856.02071	0.05189
3854.73494	0.05254
3853.44917	0.05282
3852.16341	0.05273
3850.87764	0.05258
3849.59187	0.05261
3848.30610	0.05274
3847.02033	0.05277
3845.73456	0.05272
3844.44879	0.05276
3843.16302	0.05285
3841.87725	0.05271
3840.59149	0.05217
3839.30572	0.05139
3838.01995	0.05074
3836.73418	0.05047
3835.44841	0.05050
3834.16264	0.05055
3832.87687	0.05033
3831.59110	0.04980
3830.30534	0.04921
3829.01957	0.04885
3827.73380	0.04884
3826.44803	0.04914
3825.16226	0.04969
3823.87649	0.05045
3822.59072	0.05119
3821.30495	0.05162
3820.01918	0.05175
3818.73342	0.05181
3817.44765	0.05177
3816.16188	0.05136
3814.87611	0.05048
3813.59034	0.04952
3812.30457	0.04908
3811.01880	0.04937
3809.73303	0.05013
3808.44726	0.05087
3807.16150	0.05128
3805.87573	0.05147
3804.58996	0.05177
3803.30419	0.05238
3802.01842	0.05301
3800.73265	0.05312
3799.44688	0.05246
3798.16111	0.05127
3796.87535	0.05011
3795.58958	0.04942
3794.30381	0.04924
3793.01804	0.04935
3791.73227	0.04947
3790.44650	0.04944
3789.16073	0.04928
3787.87496	0.04909
3786.58919	0.04891
3785.30343	0.04881
3784.01766	0.04884
3782.73189	0.04904
3781.44612	0.04933
3780.16035	0.04951
3778.87458	0.04931
3777.58881	0.04864
3776.30304	0.04767
3775.01728	0.04684
3773.73151	0.04651
3772.44574	0.04667
3771.15997	0.04696
3769.87420	0.04713
3768.58843	0.04729
3767.30266	0.04778
3766.01689	0.04872
3764.73112	0.04977
3763.44536	0.05042
3762.15959	0.05031
3760.87382	0.04949
3759.58805	0.04833
3758.30228	0.04732
3757.01651	0.04689
3755.73074	0.04730
3754.44497	0.04847
3753.15921	0.04994
3751.87344	0.05096
3750.58767	0.05094
3749.30190	0.04993
3748.01613	0.04877
3746.73036	0.04828
3745.44459	0.04849
3744.15882	0.04880
3742.87305	0.04868
3741.58729	0.04816
3740.30152	0.04777
3739.01575	0.04796
3737.72998	0.04861
3736.44421	0.04912
3735.15844	0.04894
3733.87267	0.04825
3732.58690	0.04749
3731.30114	0.04695
3730.01537	0.04659
3728.72960	0.04618
3727.44383	0.04584
3726.15806	0.04585
3724.87229	0.04640
3723.58652	0.04743
3722.30075	0.04831
3721.01498	0.04837
3719.72922	0.04759
3718.44345	0.04642
3717.15768	0.04553
3715.87191	0.04518
3714.58614	0.04529
3713.30037	0.04568
3712.01460	0.04607
3710.72883	0.04648
3709.44307	0.04706
3708.15730	0.04754
3706.87153	0.04786
3705.58576	0.04810
3704.29999	0.04835
3703.01422	0.04860
3701.72845	0.04857
3700.44268	0.04811
3699.15691	0.04743
3697.87115	0.04686
3696.58538	0.04656
3695.29961	0.04628
3694.01384	0.04582
3692.72807	0.04520
3691.44230	0.04487
3690.15653	0.04516
3688.87076	0.04596
3687.58500	0.04706
3686.29923	0.04828
3685.01346	0.04923
3683.72769	0.04966
3682.44192	0.04955
3681.15615	0.04913
3679.87038	0.04865
3678.58461	0.04819
3677.29884	0.04769
3676.01308	0.04723
3674.72731	0.04695
3673.44154	0.04696
3672.15577	0.04730
3670.87000	0.04798
3669.58423	0.04886
3668.29846	0.04969
3667.01269	0.05027
3665.72693	0.05051
3664.44116	0.05038
3663.15539	0.04990
3661.86962	0.04919
3660.58385	0.04854
3659.29808	0.04824
3658.01231	0.04831
3656.72654	0.04848
3655.44077	0.04851
3654.15501	0.04837
3652.86924	0.04819
3651.58347	0.04816
3650.29770	0.04836
3649.01193	0.04880
3647.72616	0.04932
3646.44039	0.04971
3645.15462	0.04984
3643.86886	0.04971
3642.58309	0.04950
3641.29732	0.04944
3640.01155	0.04971
3638.72578	0.05034
3637.44001	0.05127
3636.15424	0.05235
3634.86847	0.05333
3633.58270	0.05393
3632.29694	0.05415
3631.01117	0.05421
3629.72540	0.05419
3628.43963	0.05421
3627.15386	0.05441
3625.86809	0.05493
3624.58232	0.05560
3623.29655	0.05619
3622.01079	0.05644
3620.72502	0.05649
3619.43925	0.05656
3618.15348	0.05685
3616.86771	0.05733
3615.58194	0.05779
3614.29617	0.05808
3613.01040	0.05823
3611.72463	0.05833
3610.43887	0.05819
3609.15310	0.05770
3607.86733	0.05710
3606.58156	0.05694
3605.29579	0.05749
3604.01002	0.05845
3602.72425	0.05939
3601.43848	0.06001
3600.15272	0.06047
3598.86695	0.06108
3597.58118	0.06183
3596.29541	0.06224
3595.00964	0.06219
3593.72387	0.06193
3592.43810	0.06171
3591.15233	0.06197
3589.86656	0.06274
3588.58080	0.06362
3587.29503	0.06431
3586.00926	0.06463
3584.72349	0.06464
3583.43772	0.06459
3582.15195	0.06462
3580.86618	0.06452
3579.58041	0.06411
3578.29464	0.06349
3577.00888	0.06320
3575.72311	0.06375
3574.43734	0.06515
3573.15157	0.06684
3571.86580	0.06821
3570.58003	0.06897
3569.29426	0.06919
3568.00849	0.06918
3566.72273	0.06921
3565.43696	0.06931
3564.15119	0.06939
3562.86542	0.06929
3561.57965	0.06904
3560.29388	0.06886
3559.00811	0.06902
3557.72234	0.06959
3556.43657	0.07037
3555.15081	0.07101
3553.86504	0.07129
3552.57927	0.07130
3551.29350	0.07132
3550.00773	0.07153
3548.72196	0.07199
3547.43619	0.07264
3546.15042	0.07334
3544.86466	0.07398
3543.57889	0.07449
3542.29312	0.07484
3541.00735	0.07497
3539.72158	0.07482
3538.43581	0.07443
3537.15004	0.07405
3535.86427	0.07402
3534.57850	0.07454
3533.29274	0.07558
3532.00697	0.07681
3530.72120	0.07779
3529.43543	0.07819
3528.14966	0.07800
3526.86389	0.07760
3525.57812	0.07740
3524.29235	0.07759
3523.00659	0.07801
3521.72082	0.07845
3520.43505	0.07881
3519.14928	0.07919
3517.86351	0.07973
3516.57774	0.08047
3515.29197	0.08129
3514.00620	0.08200
3512.72043	0.08245
3511.43467	0.08267
3510.14890	0.08283
3508.86313	0.08310
3507.57736	0.08351
3506.29159	0.08397
3505.00582	0.08443
3503.72005	0.08488
3502.43428	0.08519
3501.14852	0.08516
3499.86275	0.08470
3498.57698	0.08399
3497.29121	0.08336
3496.00544	0.08308
3494.71967	0.08321
3493.43390	0.08372
3492.14813	0.08445
3490.86236	0.08524
3489.57660	0.08596
3488.29083	0.08664
3487.00506	0.08737
3485.71929	0.08803
3484.43352	0.08839
3483.14775	0.08829
3481.86198	0.08778
3480.57621	0.08717
3479.29045	0.08693
3478.00468	0.08733
3476.71891	0.08826
3475.43314	0.08923
3474.14737	0.08978
3472.86160	0.08985
3471.57583	0.08972
3470.29006	0.08967
3469.00429	0.08980
3467.71853	0.09000
3466.43276	0.09015
3465.14699	0.09020
3463.86122	0.09022
3462.57545	0.09028
3461.28968	0.09042
3460.00391	0.09063
3458.71814	0.09091
3457.43238	0.09122
3456.14661	0.09141
3454.86084	0.09137
3453.57507	0.09122
3452.28930	0.09122
3451.00353	0.09153
3449.71776	0.09206
3448.43199	0.09252
3447.14622	0.09283
3445.86046	0.09308
3444.57469	0.09345
3443.28892	0.09392
3442.00315	0.09428
3440.71738	0.09437
3439.43161	0.09420
3438.14584	0.09396
3436.86007	0.09390
3435.57431	0.09418
3434.28854	0.09472
3433.00277	0.09529
3431.71700	0.09567
3430.43123	0.09583
3429.14546	0.09581
3427.85969	0.09562
3426.57392	0.09528
3425.28815	0.09502
3424.00239	0.09510
3422.71662	0.09560
3421.43085	0.09638
3420.14508	0.09719
3418.85931	0.09782
3417.57354	0.09804
3416.28777	0.09776
3415.00200	0.09711
3413.71624	0.09653
3412.43047	0.09636
3411.14470	0.09664
3409.85893	0.09711
3408.57316	0.09753
3407.28739	0.09776
3406.00162	0.09782
3404.71585	0.09783
3403.43008	0.09797
3402.14432	0.09835
3400.85855	0.09895
3399.57278	0.09958
3398.28701	0.10000
3397.00124	0.10013
3395.71547	0.10009
3394.42970	0.10009
3393.14393	0.10021
3391.85817	0.10029
3390.57240	0.10021
3389.28663	0.10003
3388.00086	0.10001
3386.71509	0.10027
3385.42932	0.10073
3384.14355	0.10120
3382.85778	0.10160
3381.57201	0.10203
3380.28625	0.10254
3379.00048	0.10294
3377.71471	0.10290
3376.42894	0.10226
3375.14317	0.10131
3373.85740	0.10052
3372.57163	0.10019
3371.28586	0.10027
3370.00010	0.10056
3368.71433	0.10091
3367.42856	0.10125
3366.14279	0.10157
3364.85702	0.10189
3363.57125	0.10228
3362.28548	0.10271
3360.99971	0.10300
3359.71394	0.10298
3358.42818	0.10265
3357.14241	0.10225
3355.85664	0.10209
3354.57087	0.10232
3353.28510	0.10273
3351.99933	0.10294
3350.71356	0.10276
3349.42779	0.10237
3348.14202	0.10217
3346.85626	0.10233
3345.57049	0.10267
3344.28472	0.10292
3342.99895	0.10295
3341.71318	0.10279
3340.42741	0.10245
3339.14164	0.10194
3337.85587	0.10146
3336.57011	0.10136
3335.28434	0.10179
3333.99857	0.10253
3332.71280	0.10312
3331.42703	0.10321
3330.14126	0.10280
3328.85549	0.10215
3327.56972	0.10161
3326.28395	0.10135
3324.99819	0.10135
3323.71242	0.10147
3322.42665	0.10165
3321.14088	0.10189
3319.85511	0.10219
3318.56934	0.10251
3317.28357	0.10279
3315.99780	0.10297
3314.71204	0.10292
3313.42627	0.10251
3312.14050	0.10180
3310.85473	0.10105
3309.56896	0.10057
3308.28319	0.10043
3306.99742	0.10051
3305.71165	0.10070
3304.42588	0.10101
3303.14012	0.10145
3301.85435	0.10181
3300.56858	0.10182
3299.28281	0.10152
3297.99704	0.10128
3296.71127	0.10140
3295.42550	0.10179
3294.13973	0.10204
3292.85397	0.10190
3291.56820	0.10141
3290.28243	0.10075
3288.99666	0.10006
3287.71089	0.09942
3286.42512	0.09893
3285.13935	0.09867
3283.85358	0.09874
3282.56781	0.09922
3281.28205	0.10001
3279.99628	0.10078
3278.71051	0.10117
3277.42474	0.10108
3276.13897	0.10068
3274.85320	0.10022
3273.56743	0.09978
3272.28166	0.09938
3270.99590	0.09909
3269.71013	0.09910
3268.42436	0.09948
3267.13859	0.10007
3265.85282	0.10050
3264.56705	0.10052
3263.28128	0.10021
3261.99551	0.09989
3260.70974	0.09982
3259.42398	0.09994
3258.13821	0.10001
3256.85244	0.09985
3255.56667	0.09954
3254.28090	0.09936
3252.99513	0.09946
3251.70936	0.09972
3250.42359	0.09985
3249.13783	0.09969
3247.85206	0.09938
3246.56629	0.09918
3245.28052	0.09919
3243.99475	0.09925
3242.70898	0.09923
3241.42321	0.09916
3240.13744	0.09918
3238.85167	0.09936
3237.56591	0.09961
3236.28014	0.09979
3234.99437	0.09982
3233.70860	0.09967
3232.42283	0.09933
3231.13706	0.09888
3229.85129	0.09840
3228.56552	0.09798
3227.27976	0.09765
3225.99399	0.09740
3224.70822	0.09720
3223.42245	0.09708
3222.13668	0.09713
3220.85091	0.09742
3219.56514	0.09787
3218.27937	0.09820
3216.99360	0.09818
3215.70784	0.09786
3214.42207	0.09749
3213.13630	0.09724
3211.85053	0.09711
3210.56476	0.09700
3209.27899	0.09689
3207.99322	0.09681
3206.70745	0.09678
3205.42169	0.09675
3204.13592	0.09673
3202.85015	0.09666
3201.56438	0.09643
3200.27861	0.09601
3198.99284	0.09552
3197.70707	0.09515
3196.42130	0.09501
3195.13553	0.09513
3193.84977	0.09553
3192.56400	0.09611
3191.27823	0.09656
3189.99246	0.09661
3188.70669	0.09630
3187.42092	0.09595
3186.13515	0.09577
3184.84938	0.09572
3183.56362	0.09564
3182.27785	0.09550
3180.99208	0.09533
3179.70631	0.09510
3178.42054	0.09475
3177.13477	0.09440
3175.84900	0.09430
3174.56323	0.09453
3173.27746	0.09485
3171.99170	0.09489
3170.70593	0.09450
3169.42016	0.09384
3168.13439	0.09319
3166.84862	0.09276
3165.56285	0.09262
3164.27708	0.09276
3162.99131	0.09307
3161.70555	0.09336
3160.41978	0.09336
3159.13401	0.09292
3157.84824	0.09211
3156.56247	0.09121
3155.27670	0.09054
3153.99093	0.09025
3152.70516	0.09030
3151.41939	0.09050
3150.13363	0.09068
3148.84786	0.09079
3147.56209	0.09088
3146.27632	0.09110
3144.99055	0.09149
3143.70478	0.09187
3142.41901	0.09199
3141.13324	0.09173
3139.84748	0.09120
3138.56171	0.09064
3137.27594	0.09028
3135.99017	0.09017
3134.70440	0.09023
3133.41863	0.09028
3132.13286	0.09013
3130.84709	0.08973
3129.56132	0.08910
3128.27556	0.08830
3126.98979	0.08753
3125.70402	0.08708
3124.41825	0.08720
3123.13248	0.08780
3121.84671	0.08854
3120.56094	0.08907
3119.27517	0.08924
3117.98940	0.08905
3116.70364	0.08864
3115.41787	0.08822
3114.13210	0.08798
3112.84633	0.08797
3111.56056	0.08808
3110.27479	0.08809
3108.98902	0.08789
3107.70325	0.08748
3106.41749	0.08700
3105.13172	0.08659
3103.84595	0.08634
3102.56018	0.08622
3101.27441	0.08621
3099.98864	0.08627
3098.70287	0.08633
3097.41710	0.08630
3096.13133	0.08615
3094.84557	0.08590
3093.55980	0.08560
3092.27403	0.08539
3090.98826	0.08535
3089.70249	0.08546
3088.41672	0.08550
3087.13095	0.08526
3085.84518	0.08473
3084.55942	0.08412
3083.27365	0.08369
3081.98788	0.08355
3080.70211	0.08361
3079.41634	0.08367
3078.13057	0.08362
3076.84480	0.08350
3075.55903	0.08346
3074.27326	0.08359
3072.98750	0.08379
3071.70173	0.08389
3070.41596	0.08382
3069.13019	0.08373
3067.84442	0.08375
3066.55865	0.08381
3065.27288	0.08371
3063.98711	0.08332
3062.70135	0.08278
3061.41558	0.08231
3060.12981	0.08200
3058.84404	0.08183
3057.55827	0.08169
3056.27250	0.08151
3054.98673	0.08127
3053.70096	0.08099
3052.41519	0.08074
3051.12943	0.08055
3049.84366	0.08041
3048.55789	0.08033
3047.27212	0.08037
3045.98635	0.08061
3044.70058	0.08100
3043.41481	0.08134
3042.12904	0.08144
3040.84328	0.08126
3039.55751	0.08089
3038.27174	0.08049
3036.98597	0.08018
3035.70020	0.08006
3034.41443	0.08017
3033.12866	0.08037
3031.84289	0.08038
3030.55712	0.08008
3029.27136	0.07956
3027.98559	0.07905
3026.69982	0.07867
3025.41405	0.07841
3024.12828	0.07818
3022.84251	0.07795
3021.55674	0.07773
3020.27097	0.07760
3018.98521	0.07764
3017.69944	0.07780
3016.41367	0.07789
3015.12790	0.07777
3013.84213	0.07746
3012.55636	0.07702
3011.27059	0.07653
3009.98482	0.07608
3008.69905	0.07581
3007.41329	0.07574
3006.12752	0.07575
3004.84175	0.07577
3003.55598	0.07585
3002.27021	0.07606
3000.98444	0.07631
2999.69867	0.07648
2998.41290	0.07652
2997.12714	0.07653
2995.84137	0.07655
2994.55560	0.07652
2993.26983	0.07642
2991.98406	0.07623
2990.69829	0.07589
2989.41252	0.07542
2988.12675	0.07497
2986.84098	0.07482
2985.55522	0.07515
2984.26945	0.07587
2982.98368	0.07668
2981.69791	0.07732
2980.41214	0.07785
2979.12637	0.07857
2977.84060	0.07966
2976.55483	0.08101
2975.26907	0.08241
2973.98330	0.08386
2972.69753	0.08564
2971.41176	0.08800
2970.12599	0.09089
2968.84022	0.09405
2967.55445	0.09715
2966.26868	0.09999
2964.98291	0.10252
2963.69715	0.10466
2962.41138	0.10617
2961.12561	0.10673
2959.83984	0.10610
2958.55407	0.10440
2957.26830	0.10205
2955.98253	0.09958
2954.69676	0.09738
2953.41100	0.09557
2952.12523	0.09401
2950.83946	0.09253
2949.55369	0.09107
2948.26792	0.08969
2946.98215	0.08844
2945.69638	0.08733
2944.41061	0.08635
2943.12484	0.08557
2941.83908	0.08508
2940.55331	0.08479
2939.26754	0.08449
2937.98177	0.08406
2936.69600	0.08372
2935.41023	0.08367
2934.12446	0.08385
2932.83869	0.08398
2931.55293	0.08394
2930.26716	0.08391
2928.98139	0.08404
2927.69562	0.08423
2926.40985	0.08423
2925.12408	0.08388
2923.83831	0.08327
2922.55254	0.08256
2921.26677	0.08191
2919.98101	0.08137
2918.69524	0.08096
2917.40947	0.08068
2916.12370	0.08053
2914.83793	0.08055
2913.55216	0.08076
2912.26639	0.08110
2910.98062	0.08140
2909.69486	0.08146
2908.40909	0.08120
2907.12332	0.08071
2905.83755	0.08022
2904.55178	0.07987
2903.26601	0.07960
2901.98024	0.07929
2900.69447	0.07885
2899.40870	0.07830
2898.12294	0.07769
2896.83717	0.07705
2895.55140	0.07644
2894.26563	0.07594
2892.97986	0.07556
2891.69409	0.07518
2890.40832	0.07466
2889.12255	0.07401
2887.83678	0.07342
2886.55102	0.07306
2885.26525	0.07288
2883.97948	0.07266
2882.69371	0.07231
2881.40794	0.07196
2880.12217	0.07181
2878.83640	0.07192
2877.55063	0.07219
2876.26487	0.07250
2874.97910	0.07276
2873.69333	0.07288
2872.40756	0.07287
2871.12179	0.07275
2869.83602	0.07259
2868.55025	0.07242
2867.26448	0.07226
2865.97871	0.07212
2864.69295	0.07202
2863.40718	0.07191
2862.12141	0.07174
2860.83564	0.07147
2859.54987	0.07115
2858.26410	0.07087
2856.97833	0.07067
2855.69256	0.07050
2854.40680	0.07028
2853.12103	0.07002
2851.83526	0.06977
2850.54949	0.06958
2849.26372	0.06941
2847.97795	0.06917
2846.69218	0.06880
2845.40641	0.06832
2844.12064	0.06778
2842.83488	0.06726
2841.54911	0.06679
2840.26334	0.06636
2838.97757	0.06596
2837.69180	0.06556
2836.40603	0.06517
2835.12026	0.06474
2833.83449	0.06423
2832.54873	0.06372
2831.26296	0.06332
2829.97719	0.06305
2828.69142	0.06283
2827.40565	0.06262
2826.11988	0.06243
2824.83411	0.06225
2823.54834	0.06206
2822.26257	0.06190
2820.97681	0.06181
2819.69104	0.06179
2818.40527	0.06179
2817.11950	0.06179
2815.83373	0.06180
2814.54796	0.06181
2813.26219	0.06179
2811.97642	0.06176
2810.69066	0.06170
2809.40489	0.06162
2808.11912	0.06153
2806.83335	0.06144
2805.54758	0.06136
2804.26181	0.06124
2802.97604	0.06104
2801.69027	0.06071
2800.40450	0.06031
2799.11874	0.05992
2797.83297	0.05964
2796.54720	0.05941
2795.26143	0.05916
2793.97566	0.05885
2792.68989	0.05857
2791.40412	0.05841
2790.11835	0.05839
2788.83259	0.05839
2787.54682	0.05831
2786.26105	0.05811
2784.97528	0.05787
2783.68951	0.05771
2782.40374	0.05762
2781.11797	0.05753
2779.83220	0.05740
2778.54643	0.05726
2777.26067	0.05712
2775.97490	0.05695
2774.68913	0.05677
2773.40336	0.05663
2772.11759	0.05658
2770.83182	0.05660
2769.54605	0.05663
2768.26028	0.05671
2766.97452	0.05686
2765.68875	0.05705
2764.40298	0.05714
2763.11721	0.05698
2761.83144	0.05660
2760.54567	0.05617
2759.25990	0.05583
2757.97413	0.05556
2756.68836	0.05531
2755.40260	0.05509
2754.11683	0.05500
2752.83106	0.05502
2751.54529	0.05502
2750.25952	0.05493
2748.97375	0.05479
2747.68798	0.05470
2746.40221	0.05472
2745.11645	0.05486
2743.83068	0.05502
2742.54491	0.05506
2741.25914	0.05488
2739.97337	0.05457
2738.68760	0.05432
2737.40183	0.05418
2736.11606	0.05404
2734.83029	0.05383
2733.54453	0.05369
2732.25876	0.05375
2730.97299	0.05393
2729.68722	0.05400
2728.40145	0.05384
2727.11568	0.05355
2725.82991	0.05327
2724.54414	0.05309
2723.25838	0.05300
2721.97261	0.05297
2720.68684	0.05299
2719.40107	0.05305
2718.11530	0.05316
2716.82953	0.05328
2715.54376	0.05330
2714.25799	0.05314
2712.97222	0.05287
2711.68646	0.05263
2710.40069	0.05253
2709.11492	0.05250
2707.82915	0.05241
2706.54338	0.05222
2705.25761	0.05202
2703.97184	0.05187
2702.68607	0.05175
2701.40031	0.05158
2700.11454	0.05137
2698.82877	0.05118
2697.54300	0.05110
2696.25723	0.05114
2694.97146	0.05130
2693.68569	0.05148
2692.39992	0.05158
2691.11415	0.05150
2689.82839	0.05128
2688.54262	0.05106
2687.25685	0.05093
2685.97108	0.05090
2684.68531	0.05087
2683.39954	0.05073
2682.11377	0.05045
2680.82800	0.05011
2679.54224	0.04982
2678.25647	0.04964
2676.97070	0.04956
2675.68493	0.04954
2674.39916	0.04959
2673.11339	0.04974
2671.82762	0.04998
2670.54185	0.05018
2669.25608	0.05021
2667.97032	0.05006
2666.68455	0.04985
2665.39878	0.04967
2664.11301	0.04960
2662.82724	0.04961
2661.54147	0.04966
2660.25570	0.04969
2658.96993	0.04963
2657.68417	0.04944
2656.39840	0.04917
2655.11263	0.04893
2653.82686	0.04877
2652.54109	0.04867
2651.25532	0.04854
2649.96955	0.04836
2648.68378	0.04815
2647.39801	0.04793
2646.11225	0.04767
2644.82648	0.04733
2643.54071	0.04694
2642.25494	0.04658
2640.96917	0.04629
2639.68340	0.04605
2638.39763	0.04589
2637.11186	0.04583
2635.82609	0.04582
2634.54033	0.04575
2633.25456	0.04554
2631.96879	0.04525
2630.68302	0.04504
2629.39725	0.04490
2628.11148	0.04475
2626.82571	0.04451
2625.53994	0.04422
2624.25418	0.04402
2622.96841	0.04401
2621.68264	0.04413
2620.39687	0.04419
2619.11110	0.04412
2617.82533	0.04395
2616.53956	0.04380
2615.25379	0.04366
2613.96802	0.04347
2612.68226	0.04321
2611.39649	0.04291
2610.11072	0.04263
2608.82495	0.04237
2607.53918	0.04212
2606.25341	0.04187
2604.96764	0.04166
2603.68187	0.04148
2602.39611	0.04129
2601.11034	0.04105
2599.82457	0.04081
2598.53880	0.04068
2597.25303	0.04070
2595.96726	0.04083
2594.68149	0.04091
2593.39572	0.04084
2592.10995	0.04069
2590.82419	0.04051
2589.53842	0.04027
2588.25265	0.03988
2586.96688	0.03952
2585.68111	0.03952
2584.39534	0.04000
2583.10957	0.04064
2581.82380	0.04092
2580.53804	0.04073
2579.25227	0.04031
2577.96650	0.03995
2576.68073	0.03963
2575.39496	0.03925
2574.10919	0.03885
2572.82342	0.03855
2571.53765	0.03840
2570.25188	0.03833
2568.96612	0.03830
2567.68035	0.03834
2566.39458	0.03840
2565.10881	0.03838
2563.82304	0.03827
2562.53727	0.03824
2561.25150	0.03837
2559.96573	0.03855
2558.67997	0.03862
2557.39420	0.03864
2556.10843	0.03869
2554.82266	0.03873
2553.53689	0.03868
2552.25112	0.03858
2550.96535	0.03864
2549.67958	0.03881
2548.39381	0.03885
2547.10805	0.03859
2545.82228	0.03813
2544.53651	0.03770
2543.25074	0.03736
2541.96497	0.03710
2540.67920	0.03694
2539.39343	0.03695
2538.10766	0.03701
2536.82190	0.03696
2535.53613	0.03671
2534.25036	0.03641
2532.96459	0.03625
2531.67882	0.03624
2530.39305	0.03621
2529.10728	0.03596
2527.82151	0.03548
2526.53574	0.03503
2525.24998	0.03495
2523.96421	0.03532
2522.67844	0.03588
2521.39267	0.03631
2520.10690	0.03643
2518.82113	0.03630
2517.53536	0.03608
2516.24959	0.03594
2514.96383	0.03595
2513.67806	0.03610
2512.39229	0.03634
2511.10652	0.03656
2509.82075	0.03675
2508.53498	0.03682
2507.24921	0.03665
2505.96344	0.03612
2504.67767	0.03533
2503.39191	0.03458
2502.10614	0.03421
2500.82037	0.03429
2499.53460	0.03460
2498.24883	0.03480
2496.96306	0.03465
2495.67729	0.03423
2494.39152	0.03384
2493.10576	0.03378
2491.81999	0.03403
2490.53422	0.03437
2489.24845	0.03463
2487.96268	0.03486
2486.67691	0.03519
2485.39114	0.03557
2484.10537	0.03584
2482.81960	0.03597
2481.53384	0.03599
2480.24807	0.03589
2478.96230	0.03561
2477.67653	0.03523
2476.39076	0.03491
2475.10499	0.03474
2473.81922	0.03463
2472.53345	0.03454
2471.24769	0.03454
2469.96192	0.03470
2468.67615	0.03497
2467.39038	0.03524
2466.10461	0.03548
2464.81884	0.03565
2463.53307	0.03566
2462.24730	0.03547
2460.96153	0.03521
2459.67577	0.03501
2458.39000	0.03487
2457.10423	0.03475
2455.81846	0.03464
2454.53269	0.03456
2453.24692	0.03446
2451.96115	0.03431
2450.67538	0.03404
2449.38962	0.03367
2448.10385	0.03339
2446.81808	0.03339
2445.53231	0.03366
2444.24654	0.03400
2442.96077	0.03423
2441.67500	0.03437
2440.38923	0.03439
2439.10346	0.03421
2437.81770	0.03387
2436.53193	0.03356
2435.24616	0.03341
2433.96039	0.03344
2432.67462	0.03358
2431.38885	0.03376
2430.10308	0.03384
2428.81731	0.03371
2427.53155	0.03344
2426.24578	0.03327
2424.96001	0.03334
2423.67424	0.03359
2422.38847	0.03382
2421.10270	0.03394
2419.81693	0.03397
2418.53116	0.03388
2417.24539	0.03370
2415.95963	0.03353
2414.67386	0.03355
2413.38809	0.03374
2412.10232	0.03388
2410.81655	0.03376
2409.53078	0.03341
2408.24501	0.03302
2406.95924	0.03278
2405.67347	0.03274
2404.38771	0.03283
2403.10194	0.03303
2401.81617	0.03334
2400.53040	0.03373
2399.24463	0.03398
2397.95886	0.03391
2396.67309	0.03355
2395.38732	0.03305
2394.10156	0.03262
2392.81579	0.03235
2391.53002	0.03222
2390.24425	0.03219
2388.95848	0.03222
2387.67271	0.03227
2386.38694	0.03234
2385.10117	0.03243
2383.81540	0.03258
2382.52964	0.03277
2381.24387	0.03291
2379.95810	0.03306
2378.67233	0.03323
2377.38656	0.03339
2376.10079	0.03385
2374.81502	0.03427
2373.52925	0.03394
2372.24349	0.03279
2370.95772	0.03086
2369.67195	0.02913
2368.38618	0.02762
2367.10041	0.02566
2365.81464	0.02410
2364.52887	0.02472
2363.24310	0.02703
2361.95733	0.02928
2360.67157	0.03081
2359.38580	0.03215
2358.10003	0.03288
2356.81426	0.03298
2355.52849	0.03326
2354.24272	0.03378
2352.95695	0.03431
2351.67118	0.03365
2350.38542	0.03097
2349.09965	0.02894
2347.81388	0.03037
2346.52811	0.03308
2345.24234	0.03373
2343.95657	0.03274
2342.67080	0.03233
2341.38503	0.03242
2340.09926	0.03210
2338.81350	0.03163
2337.52773	0.03111
2336.24196	0.03101
2334.95619	0.03075
2333.67042	0.02992
2332.38465	0.02949
2331.09888	0.02942
2329.81311	0.02954
2328.52735	0.03049
2327.24158	0.03155
2325.95581	0.03222
2324.67004	0.03289
2323.38427	0.03326
2322.09850	0.03336
2320.81273	0.03373
2319.52696	0.03379
2318.24119	0.03323
2316.95543	0.03252
2315.66966	0.03198
2314.38389	0.03160
2313.09812	0.03128
2311.81235	0.03126
2310.52658	0.03169
2309.24081	0.03232
2307.95504	0.03293
2306.66928	0.03328
2305.38351	0.03310
2304.09774	0.03263
2302.81197	0.03223
2301.52620	0.03198
2300.24043	0.03174
2298.95466	0.03144
2297.66889	0.03116
2296.38312	0.03092
2295.09736	0.03083
2293.81159	0.03088
2292.52582	0.03104
2291.24005	0.03121
2289.95428	0.03129
2288.66851	0.03130
2287.38274	0.03130
2286.09697	0.03131
2284.81121	0.03120
2283.52544	0.03088
2282.23967	0.03033
2280.95390	0.02966
2279.66813	0.02907
2278.38236	0.02868
2277.09659	0.02845
2275.81082	0.02814
2274.52505	0.02767
2273.23929	0.02724
2271.95352	0.02699
2270.66775	0.02682
2269.38198	0.02648
2268.09621	0.02594
2266.81044	0.02550
2265.52467	0.02548
2264.23890	0.02596
2262.95314	0.02665
2261.66737	0.02724
2260.38160	0.02751
2259.09583	0.02741
2257.81006	0.02709
2256.52429	0.02663
2255.23852	0.02606
2253.95275	0.02548
2252.66698	0.02515
2251.38122	0.02527
2250.09545	0.02573
2248.80968	0.02614
2247.52391	0.02616
2246.23814	0.02587
2244.95237	0.02542
2243.66660	0.02476
2242.38083	0.02390
2241.09507	0.02309
2239.80930	0.02273
2238.52353	0.02284
2237.23776	0.02296
2235.95199	0.02259
2234.66622	0.02167
2233.38045	0.02058
2232.09468	0.01967
2230.80891	0.01917
2229.52315	0.01909
2228.23738	0.01937
2226.95161	0.01998
2225.66584	0.02094
2224.38007	0.02220
2223.09430	0.02351
2221.80853	0.02438
2220.52276	0.02440
2219.23700	0.02353
2217.95123	0.02227
2216.66546	0.02143
2215.37969	0.02152
2214.09392	0.02221
2212.80815	0.02265
2211.52238	0.02231
2210.23661	0.02123
2208.95084	0.01988
2207.66508	0.01879
2206.37931	0.01836
2205.09354	0.01854
2203.80777	0.01887
2202.52200	0.01894
2201.23623	0.01881
2199.95046	0.01872
2198.66469	0.01858
2197.37893	0.01813
2196.09316	0.01738
2194.80739	0.01672
2193.52162	0.01646
2192.23585	0.01665
2190.95008	0.01727
2189.66431	0.01813
2188.37854	0.01880
2187.09277	0.01870
2185.80701	0.01764
2184.52124	0.01606
2183.23547	0.01472
2181.94970	0.01410
2180.66393	0.01410
2179.37816	0.01430
2178.09239	0.01442
2176.80662	0.01465
2175.52085	0.01541
2174.23509	0.01671
2172.94932	0.01789
2171.66355	0.01824
2170.37778	0.01762
2169.09201	0.01645
2167.80624	0.01507
2166.52047	0.01350
2165.23470	0.01169
2163.94894	0.00989
2162.66317	0.00838
2161.37740	0.00717
2160.09163	0.00618
2158.80586	0.00575
2157.52009	0.00634
2156.23432	0.00773
2154.94855	0.00914
2153.66278	0.01009
2152.37702	0.01074
2151.09125	0.01136
2149.80548	0.01182
2148.51971	0.01182
2147.23394	0.01129
2145.94817	0.01058
2144.66240	0.01019
2143.37663	0.01042
2142.09087	0.01112
2140.80510	0.01180
2139.51933	0.01226
2138.23356	0.01278
2136.94779	0.01364
2135.66202	0.01467
2134.37625	0.01551
2133.09048	0.01611
2131.80471	0.01657
2130.51895	0.01688
2129.23318	0.01707
2127.94741	0.01737
2126.66164	0.01789
2125.37587	0.01838
2124.09010	0.01849
2122.80433	0.01831
2121.51856	0.01819
2120.23280	0.01828
2118.94703	0.01835
2117.66126	0.01822
2116.37549	0.01799
2115.08972	0.01789
2113.80395	0.01807
2112.51818	0.01851
2111.23241	0.01900
2109.94664	0.01918
2108.66088	0.01880
2107.37511	0.01803
2106.08934	0.01736
2104.80357	0.01710
2103.51780	0.01715
2102.23203	0.01733
2100.94626	0.01767
2099.66049	0.01866
2098.37473	0.01925
2097.08896	0.01917
2095.80319	0.01857
2094.51742	0.01784
2093.23165	0.01737
2091.94588	0.01737
2090.66011	0.01768
2089.37434	0.01790
2088.08857	0.01771
2086.80281	0.01716
2085.51704	0.01669
2084.23127	0.01675
2082.94550	0.01743
2081.65973	0.01822
2080.37396	0.01848
2079.08819	0.01800
2077.80242	0.01713
2076.51666	0.01650
2075.23089	0.01645
2073.94512	0.01690
2072.65935	0.01744
2071.37358	0.01755
2070.08781	0.01692
2068.80204	0.01576
2067.51627	0.01468
2066.23050	0.01414
2064.94474	0.01407
2063.65897	0.01403
2062.37320	0.01376
2061.08743	0.01339
2059.80166	0.01327
2058.51589	0.01356
2057.23012	0.01416
2055.94435	0.01480
2054.65859	0.01525
2053.37282	0.01534
2052.08705	0.01496
2050.80128	0.01413
2049.51551	0.01305
2048.22974	0.01205
2046.94397	0.01128
2045.65820	0.01066
2044.37243	0.01001
2043.08667	0.00922
2041.80090	0.00826
2040.51513	0.00724
2039.22936	0.00656
2037.94359	0.00659
2036.65782	0.00723
2035.37205	0.00792
2034.08628	0.00828
2032.80052	0.00847
2031.51475	0.00879
2030.22898	0.00916
2028.94321	0.00922
2027.65744	0.00878
2026.37167	0.00803
2025.08590	0.00722
2023.80013	0.00654
2022.51436	0.00620
2021.22860	0.00644
2019.94283	0.00728
2018.65706	0.00845
2017.37129	0.00953
2016.08552	0.01029
2014.79975	0.01071
2013.51398	0.01089
2012.22821	0.01085
2010.94245	0.01057
2009.65668	0.01007
2008.37091	0.00943
2007.08514	0.00880
2005.79937	0.00833
2004.51360	0.00831
2003.22783	0.00896
2001.94206	0.01023
2000.65629	0.01171
1999.37053	0.01298
1998.08476	0.01382
1996.79899	0.01409
1995.51322	0.01369
1994.22745	0.01267
1992.94168	0.01149
1991.65591	0.01078
1990.37014	0.01095
1989.08438	0.01193
1987.79861	0.01320
1986.51284	0.01416
1985.22707	0.01448
1983.94130	0.01430
1982.65553	0.01404
1981.36976	0.01396
1980.08399	0.01389
1978.79822	0.01362
1977.51246	0.01316
1976.22669	0.01268
1974.94092	0.01226
1973.65515	0.01207
1972.36938	0.01232
1971.08361	0.01301
1969.79784	0.01367
1968.51207	0.01379
1967.22631	0.01337
1965.94054	0.01275
1964.65477	0.01223
1963.36900	0.01181
1962.08323	0.01152
1960.79746	0.01157
1959.51169	0.01223
1958.22592	0.01350
1956.94015	0.01498
1955.65439	0.01608
1954.36862	0.01658
1953.08285	0.01670
1951.79708	0.01672
1950.51131	0.01666
1949.22554	0.01639
1947.93977	0.01593
1946.65400	0.01543
1945.36823	0.01502
1944.08247	0.01476
1942.79670	0.01475
1941.51093	0.01507
1940.22516	0.01581
1938.93939	0.01690
1937.65362	0.01810
1936.36785	0.01904
1935.08208	0.01938
1933.79632	0.01910
1932.51055	0.01854
1931.22478	0.01816
1929.93901	0.01811
1928.65324	0.01824
1927.36747	0.01823
1926.08170	0.01801
1924.79593	0.01777
1923.51016	0.01780
1922.22440	0.01819
1920.93863	0.01869
1919.65286	0.01901
1918.36709	0.01906
1917.08132	0.01896
1915.79555	0.01888
1914.50978	0.01886
1913.22401	0.01886
1911.93825	0.01884
1910.65248	0.01877
1909.36671	0.01868
1908.08094	0.01868
1906.79517	0.01883
1905.50940	0.01903
1904.22363	0.01915
1902.93786	0.01912
1901.65209	0.01903
1900.36633	0.01898
1899.08056	0.01904
1897.79479	0.01919
1896.50902	0.01937
1895.22325	0.01943
1893.93748	0.01922
1892.65171	0.01874
1891.36594	0.01812
1890.08018	0.01761
1888.79441	0.01741
1887.50864	0.01755
1886.22287	0.01792
1884.93710	0.01830
1883.65133	0.01852
1882.36556	0.01853
1881.07979	0.01846
1879.79402	0.01850
1878.50826	0.01868
1877.22249	0.01891
1875.93672	0.01905
1874.65095	0.01900
1873.36518	0.01882
1872.07941	0.01863
1870.79364	0.01855
1869.50787	0.01857
1868.22211	0.01863
1866.93634	0.01867
1865.65057	0.01871
1864.36480	0.01879
1863.07903	0.01887
1861.79326	0.01887
1860.50749	0.01875
1859.22172	0.01861
1857.93595	0.01858
1856.65019	0.01868
1855.36442	0.01881
1854.07865	0.01890
1852.79288	0.01897
1851.50711	0.01907
1850.22134	0.01921
1848.93557	0.01930
1847.64980	0.01933
1846.36404	0.01929
1845.07827	0.01925
1843.79250	0.01921
1842.50673	0.01918
1841.22096	0.01915
1839.93519	0.01911
1838.64942	0.01907
1837.36365	0.01907
1836.07788	0.01916
1834.79212	0.01930
1833.50635	0.01941
1832.22058	0.01947
1830.93481	0.01951
1829.64904	0.01957
1828.36327	0.01963
1827.07750	0.01966
1825.79173	0.01966
1824.50597	0.01966
1823.22020	0.01970
1821.93443	0.01975
1820.64866	0.01981
1819.36289	0.01987
1818.07712	0.01993
1816.79135	0.01995
1815.50558	0.01988
1814.21981	0.01972
1812.93405	0.01954
1811.64828	0.01946
1810.36251	0.01954
1809.07674	0.01974
1807.79097	0.01992
1806.50520	0.01998
1805.21943	0.01994
1803.93366	0.01991
1802.64790	0.01995
1801.36213	0.02003
1800.07636	0.02012
1798.79059	0.02026
1797.50482	0.02048
1796.21905	0.02074
1794.93328	0.02097
1793.64751	0.02105
1792.36174	0.02096
1791.07598	0.02073
1789.79021	0.02050
1788.50444	0.02043
1787.21867	0.02054
1785.93290	0.02075
1784.64713	0.02093
1783.36136	0.02102
1782.07559	0.02104
1780.78983	0.02108
1779.50406	0.02113
1778.21829	0.02118
1776.93252	0.02123
1775.64675	0.02132
1774.36098	0.02147
1773.07521	0.02165
1771.78944	0.02176
1770.50367	0.02176
1769.21791	0.02168
1767.93214	0.02162
1766.64637	0.02163
1765.36060	0.02171
1764.07483	0.02185
1762.78906	0.02200
1761.50329	0.02209
1760.21752	0.02208
1758.93176	0.02200
1757.64599	0.02190
1756.36022	0.02184
1755.07445	0.02187
1753.78868	0.02202
1752.50291	0.02225
1751.21714	0.02249
1749.93137	0.02266
1748.64560	0.02275
1747.35984	0.02278
1746.07407	0.02280
1744.78830	0.02279
1743.50253	0.02276
1742.21676	0.02277
1740.93099	0.02282
1739.64522	0.02294
1738.35945	0.02317
1737.07369	0.02354
1735.78792	0.02399
1734.50215	0.02430
1733.21638	0.02431
1731.93061	0.02406
1730.64484	0.02379
1729.35907	0.02367
1728.07330	0.02373
1726.78753	0.02391
1725.50177	0.02414
1724.21600	0.02437
1722.93023	0.02462
1721.64446	0.02494
1720.35869	0.02534
1719.07292	0.02581
1717.78715	0.02625
1716.50138	0.02654
1715.21561	0.02668
1713.92985	0.02677
1712.64408	0.02693
1711.35831	0.02718
1710.07254	0.02745
1708.78677	0.02770
1707.50100	0.02797
1706.21523	0.02830
1704.92946	0.02875
1703.64370	0.02936
1702.35793	0.03007
1701.07216	0.03075
1699.78639	0.03131
1698.50062	0.03171
1697.21485	0.03199
1695.92908	0.03214
1694.64331	0.03214
1693.35754	0.03208
1692.07178	0.03213
1690.78601	0.03237
1689.50024	0.03280
1688.21447	0.03339
1686.92870	0.03407
1685.64293	0.03471
1684.35716	0.03514
1683.07139	0.03528
1681.78563	0.03527
1680.49986	0.03532
1679.21409	0.03556
1677.92832	0.03596
1676.64255	0.03639
1675.35678	0.03676
1674.07101	0.03709
1672.78524	0.03744
1671.49947	0.03784
1670.21371	0.03825
1668.92794	0.03856
1667.64217	0.03877
1666.35640	0.03901
1665.07063	0.03934
1663.78486	0.03976
1662.49909	0.04015
1661.21332	0.04045
1659.92756	0.04065
1658.64179	0.04088
1657.35602	0.04127
1656.07025	0.04187
1654.78448	0.04258
1653.49871	0.04313
1652.21294	0.04329
1650.92717	0.04311
1649.64140	0.04287
1648.35564	0.04278
1647.06987	0.04285
1645.78410	0.04296
1644.49833	0.04301
1643.21256	0.04302
1641.92679	0.04302
1640.64102	0.04309
1639.35525	0.04328
1638.06949	0.04360
1636.78372	0.04395
1635.49795	0.04421
1634.21218	0.04432
1632.92641	0.04436
1631.64064	0.04443
1630.35487	0.04453
1629.06910	0.04462
1627.78333	0.04466
1626.49757	0.04472
1625.21180	0.04485
1623.92603	0.04504
1622.64026	0.04522
1621.35449	0.04538
1620.06872	0.04557
1618.78295	0.04586
1617.49718	0.04620
1616.21142	0.04647
1614.92565	0.04661
1613.63988	0.04668
1612.35411	0.04678
1611.06834	0.04698
1609.78257	0.04729
1608.49680	0.04765
1607.21103	0.04804
1605.92526	0.04837
1604.63950	0.04863
1603.35373	0.04883
1602.06796	0.04899
1600.78219	0.04914
1599.49642	0.04930
1598.21065	0.04950
1596.92488	0.04975
1595.63911	0.05003
1594.35335	0.05032
1593.06758	0.05060
1591.78181	0.05089
1590.49604	0.05118
1589.21027	0.05146
1587.92450	0.05171
1586.63873	0.05190
1585.35296	0.05207
1584.06719	0.05223
1582.78143	0.05239
1581.49566	0.05259
1580.20989	0.05289
1578.92412	0.05331
1577.63835	0.05377
1576.35258	0.05414
1575.06681	0.05433
1573.78104	0.05441
1572.49528	0.05450
1571.20951	0.05466
1569.92374	0.05485
1568.63797	0.05500
1567.35220	0.05507
1566.06643	0.05510
1564.78066	0.05517
1563.49489	0.05538
1562.20912	0.05582
1560.92336	0.05644
1559.63759	0.05703
1558.35182	0.05734
1557.06605	0.05733
1555.78028	0.05717
1554.49451	0.05701
1553.20874	0.05694
1551.92297	0.05693
1550.63721	0.05694
1549.35144	0.05694
1548.06567	0.05694
1546.77990	0.05696
1545.49413	0.05701
1544.20836	0.05706
1542.92259	0.05709
1541.63682	0.05703
1540.35105	0.05684
1539.06529	0.05649
1537.77952	0.05606
1536.49375	0.05569
1535.20798	0.05547
1533.92221	0.05537
1532.63644	0.05533
1531.35067	0.05532
1530.06490	0.05539
1528.77914	0.05558
1527.49337	0.05588
1526.20760	0.05626
1524.92183	0.05674
1523.63606	0.05736
1522.35029	0.05808
1521.06452	0.05883
1519.77875	0.05957
1518.49298	0.06028
1517.20722	0.06103
1515.92145	0.06185
1514.63568	0.06277
1513.34991	0.06380
1512.06414	0.06494
1510.77837	0.06622
1509.49260	0.06765
1508.20683	0.06918
1506.92107	0.07061
1505.63530	0.07179
1504.34953	0.07269
1503.06376	0.07345
1501.77799	0.07424
1500.49222	0.07511
1499.20645	0.07601
1497.92068	0.07685
1496.63491	0.07754
1495.34915	0.07808
1494.06338	0.07855
1492.77761	0.07908
1491.49184	0.07978
1490.20607	0.08062
1488.92030	0.08155
1487.63453	0.08248
1486.34876	0.08340
1485.06299	0.08435
1483.77723	0.08538
1482.49146	0.08652
1481.20569	0.08774
1479.91992	0.08897
1478.63415	0.09017
1477.34838	0.09132
1476.06261	0.09242
1474.77684	0.09347
1473.49108	0.09441
1472.20531	0.09516
1470.91954	0.09564
1469.63377	0.09586
1468.34800	0.09596
1467.06223	0.09602
1465.77646	0.09610
1464.49069	0.09618
1463.20492	0.09630
1461.91916	0.09652
1460.63339	0.09693
1459.34762	0.09749
1458.06185	0.09805
1456.77608	0.09846
1455.49031	0.09865
1454.20454	0.09873
1452.91877	0.09885
1451.63301	0.09907
1450.34724	0.09935
1449.06147	0.09959
1447.77570	0.09972
1446.48993	0.09970
1445.20416	0.09953
1443.91839	0.09925
1442.63262	0.09886
1441.34685	0.09842
1440.06109	0.09803
1438.77532	0.09781
1437.48955	0.09781
1436.20378	0.09798
1434.91801	0.09830
1433.63224	0.09882
1432.34647	0.09958
1431.06070	0.10062
1429.77494	0.10192
1428.48917	0.10344
1427.20340	0.10512
1425.91763	0.10690
1424.63186	0.10876
1423.34609	0.11068
1422.06032	0.11268
1420.77455	0.11465
1419.48878	0.11645
1418.20302	0.11795
1416.91725	0.11915
1415.63148	0.12013
1414.34571	0.12089
1413.05994	0.12136
1411.77417	0.12151
1410.48840	0.12136
1409.20263	0.12093
1407.91687	0.12020
1406.63110	0.11913
1405.34533	0.11771
1404.05956	0.11603
1402.77379	0.11421
1401.48802	0.11230
1400.20225	0.11028
1398.91648	0.10811
1397.63071	0.10576
1396.34495	0.10324
1395.05918	0.10061
1393.77341	0.09791
1392.48764	0.09523
1391.20187	0.09264
1389.91610	0.09018
1388.63033	0.08783
1387.34456	0.08550
1386.05880	0.08317
1384.77303	0.08085
1383.48726	0.07856
1382.20149	0.07632
1380.91572	0.07412
1379.62995	0.07194
1378.34418	0.06978
1377.05841	0.06765
1375.77264	0.06554
1374.48688	0.06343
1373.20111	0.06132
1371.91534	0.05926
1370.62957	0.05734
1369.34380	0.05558
1368.05803	0.05397
1366.77226	0.05245
1365.48649	0.05096
1364.20073	0.04950
1362.91496	0.04808
1361.62919	0.04673
1360.34342	0.04545
1359.05765	0.04428
1357.77188	0.04322
1356.48611	0.04228
1355.20034	0.04147
1353.91457	0.04072
1352.62881	0.03999
1351.34304	0.03922
1350.05727	0.03841
1348.77150	0.03761
1347.48573	0.03685
1346.19996	0.03617
1344.91419	0.03557
1343.62842	0.03502
1342.34266	0.03451
1341.05689	0.03406
1339.77112	0.03367
1338.48535	0.03330
1337.19958	0.03288
1335.91381	0.03239
1334.62804	0.03186
1333.34227	0.03137
1332.05650	0.03097
1330.77074	0.03066
1329.48497	0.03038
1328.19920	0.03012
1326.91343	0.02987
1325.62766	0.02964
1324.34189	0.02939
1323.05612	0.02912
1321.77035	0.02882
1320.48459	0.02851
1319.19882	0.02824
1317.91305	0.02801
1316.62728	0.02783
1315.34151	0.02768
1314.05574	0.02749
1312.76997	0.02724
1311.48420	0.02696
1310.19843	0.02672
1308.91267	0.02657
1307.62690	0.02646
1306.34113	0.02631
1305.05536	0.02609
1303.76959	0.02582
1302.48382	0.02556
1301.19805	0.02536
1299.91228	0.02522
1298.62652	0.02512
1297.34075	0.02504
1296.05498	0.02496
1294.76921	0.02489
1293.48344	0.02483
1292.19767	0.02479
1290.91190	0.02475
1289.62613	0.02468
1288.34036	0.02462
1287.05460	0.02459
1285.76883	0.02461
1284.48306	0.02467
1283.19729	0.02476
1281.91152	0.02486
1280.62575	0.02502
1279.33998	0.02526
1278.05421	0.02565
1276.76845	0.02625
1275.48268	0.02713
1274.19691	0.02842
1272.91114	0.03034
1271.62537	0.03323
1270.33960	0.03753
1269.05383	0.04366
1267.76806	0.05183
1266.48229	0.06183
1265.19653	0.07286
1263.91076	0.08360
1262.62499	0.09245
1261.33922	0.09794
1260.05345	0.09919
1258.76768	0.09609
1257.48191	0.08936
1256.19614	0.08030
1254.91037	0.07039
1253.62461	0.06091
1252.33884	0.05269
1251.05307	0.04605
1249.76730	0.04091
1248.48153	0.03703
1247.19576	0.03408
1245.90999	0.03181
1244.62422	0.03001
1243.33846	0.02855
1242.05269	0.02734
1240.76692	0.02634
1239.48115	0.02553
1238.19538	0.02488
1236.90961	0.02438
1235.62384	0.02398
1234.33807	0.02363
1233.05230	0.02331
1231.76654	0.02301
1230.48077	0.02273
1229.19500	0.02247
1227.90923	0.02221
1226.62346	0.02195
1225.33769	0.02169
1224.05192	0.02145
1222.76615	0.02124
1221.48039	0.02104
1220.19462	0.02088
1218.90885	0.02075
1217.62308	0.02067
1216.33731	0.02064
1215.05154	0.02063
1213.76577	0.02057
1212.48000	0.02047
1211.19423	0.02032
1209.90847	0.02017
1208.62270	0.02004
1207.33693	0.01993
1206.05116	0.01988
1204.76539	0.01990
1203.47962	0.01996
1202.19385	0.02001
1200.90808	0.01996
1199.62232	0.01980
1198.33655	0.01970
1197.05078	0.01969
1195.76501	0.01979
1194.47924	0.01996
1193.19347	0.02009
1191.90770	0.02014
1190.62193	0.02014
1189.33616	0.02015
1188.05040	0.02022
1186.76463	0.02034
1185.47886	0.02046
1184.19309	0.02052
1182.90732	0.02053
1181.62155	0.02051
1180.33578	0.02050
1179.05001	0.02054
1177.76425	0.02065
1176.47848	0.02082
1175.19271	0.02104
1173.90694	0.02128
1172.62117	0.02153
1171.33540	0.02179
1170.04963	0.02206
1168.76386	0.02232
1167.47809	0.02257
1166.19233	0.02282
1164.90656	0.02310
1163.62079	0.02343
1162.33502	0.02384
1161.04925	0.02433
1159.76348	0.02486
1158.47771	0.02539
1157.19194	0.02591
1155.90618	0.02643
1154.62041	0.02699
1153.33464	0.02757
1152.04887	0.02819
1150.76310	0.02885
1149.47733	0.02957
1148.19156	0.03039
1146.90579	0.03131
1145.62002	0.03232
1144.33426	0.03342
1143.04849	0.03458
1141.76272	0.03581
1140.47695	0.03710
1139.19118	0.03852
1137.90541	0.04009
1136.61964	0.04180
1135.33387	0.04359
1134.04811	0.04549
1132.76234	0.04755
1131.47657	0.04982
1130.19080	0.05234
1128.90503	0.05513
1127.61926	0.05827
1126.33349	0.06175
1125.04772	0.06550
1123.76195	0.06943
1122.47619	0.07349
1121.19042	0.07771
1119.90465	0.08209
1118.61888	0.08655
1117.33311	0.09100
1116.04734	0.09545
1114.76157	0.09998
1113.47580	0.10465
1112.19004	0.10945
1110.90427	0.11434
1109.61850	0.11930
1108.33273	0.12431
1107.04696	0.12933
1105.76119	0.13434
1104.47542	0.13935
1103.18965	0.14442
1101.90388	0.14949
1100.61812	0.15445
1099.33235	0.15920
1098.04658	0.16372
1096.76081	0.16804
1095.47504	0.17211
1094.18927	0.17589
1092.90350	0.17932
1091.61773	0.18236
1090.33197	0.18504
1089.04620	0.18744
1087.76043	0.18967
1086.47466	0.19181
1085.18889	0.19387
1083.90312	0.19589
1082.61735	0.19791
1081.33158	0.20008
1080.04581	0.20252
1078.76005	0.20528
1077.47428	0.20825
1076.18851	0.21131
1074.90274	0.21437
1073.61697	0.21745
1072.33120	0.22059
1071.04543	0.22387
1069.75966	0.22732
1068.47390	0.23097
1067.18813	0.23478
1065.90236	0.23868
1064.61659	0.24267
1063.33082	0.24680
1062.04505	0.25105
1060.75928	0.25533
1059.47351	0.25954
1058.18774	0.26359
1056.90198	0.26753
1055.61621	0.27143
1054.33044	0.27539
1053.04467	0.27953
1051.75890	0.28387
1050.47313	0.28840
1049.18736	0.29312
1047.90159	0.29806
1046.61583	0.30324
1045.33006	0.30866
1044.04429	0.31430
1042.75852	0.32017
1041.47275	0.32625
1040.18698	0.33249
1038.90121	0.33885
1037.61544	0.34533
1036.32967	0.35195
1035.04391	0.35863
1033.75814	0.36523
1032.47237	0.37170
1031.18660	0.37804
1029.90083	0.38424
1028.61506	0.39020
1027.32929	0.39577
1026.04352	0.40089
1024.75775	0.40558
1023.47199	0.40990
1022.18622	0.41387
1020.90045	0.41739
1019.61468	0.42037
1018.32891	0.42275
1017.04314	0.42451
1015.75737	0.42559
1014.47160	0.42589
1013.18584	0.42534
1011.90007	0.42389
1010.61430	0.42148
1009.32853	0.41804
1008.04276	0.41351
1006.75699	0.40789
1005.47122	0.40121
1004.18545	0.39355
1002.89968	0.38505
1001.61392	0.37586
1000.32815	0.36614
999.04238	0.35599
997.75661	0.34548
996.47084	0.33458
995.18507	0.32330
993.89930	0.31169
992.61353	0.29989
991.32777	0.28810
990.04200	0.27647
988.75623	0.26513
987.47046	0.25418
986.18469	0.24367
984.89892	0.23356
983.61315	0.22384
982.32738	0.21453
981.04161	0.20568
979.75585	0.19736
978.47008	0.18959
977.18431	0.18240
975.89854	0.17584
974.61277	0.16995
973.32700	0.16478
972.04123	0.16041
970.75546	0.15695
969.46970	0.15447
968.18393	0.15297
966.89816	0.15236
965.61239	0.15241
964.32662	0.15282
963.04085	0.15324
961.75508	0.15329
960.46931	0.15263
959.18354	0.15103
957.89778	0.14846
956.61201	0.14509
955.32624	0.14116
954.04047	0.13689
952.75470	0.13249
951.46893	0.12814
950.18316	0.12391
948.89739	0.11982
947.61163	0.11584
946.32586	0.11199
945.04009	0.10829
943.75432	0.10483
942.46855	0.10160
941.18278	0.09855
939.89701	0.09560
938.61124	0.09272
937.32547	0.09001
936.03971	0.08753
934.75394	0.08526
933.46817	0.08312
932.18240	0.08110
930.89663	0.07925
929.61086	0.07768
928.32509	0.07638
927.03932	0.07526
925.75356	0.07415
924.46779	0.07300
923.18202	0.07185
921.89625	0.07084
920.61048	0.06998
919.32471	0.06927
918.03894	0.06860
916.75317	0.06791
915.46740	0.06716
914.18164	0.06641
912.89587	0.06578
911.61010	0.06527
910.32433	0.06482
909.03856	0.06435
907.75279	0.06385
906.46702	0.06333
905.18125	0.06278
903.89549	0.06221
902.60972	0.06161
901.32395	0.06103
900.03818	0.06049
898.75241	0.06003
897.46664	0.05970
896.18087	0.05953
894.89510	0.05945
893.60933	0.05941
892.32357	0.05939
891.03780	0.05948
889.75203	0.05983
888.46626	0.06055
887.18049	0.06170
885.89472	0.06335
884.60895	0.06568
883.32318	0.06881
882.03742	0.07253
880.75165	0.07623
879.46588	0.07930
878.18011	0.08161
876.89434	0.08355
875.60857	0.08560
874.32280	0.08780
873.03703	0.08972
871.75126	0.09092
870.46550	0.09121
869.17973	0.09069
867.89396	0.08952
866.60819	0.08783
865.32242	0.08578
864.03665	0.08352
862.75088	0.08115
861.46511	0.07877
860.17935	0.07644
858.89358	0.07423
857.60781	0.07220
856.32204	0.07037
855.03627	0.06875
853.75050	0.06734
852.46473	0.06621
851.17896	0.06541
849.89319	0.06497
848.60743	0.06480
847.32166	0.06477
846.03589	0.06478
844.75012	0.06474
843.46435	0.06459
842.17858	0.06426
840.89281	0.06378
839.60704	0.06326
838.32128	0.06284
837.03551	0.06263
835.74974	0.06269
834.46397	0.06306
833.17820	0.06378
831.89243	0.06493
830.60666	0.06658
829.32089	0.06890
828.03512	0.07202
826.74936	0.07593
825.46359	0.08052
824.17782	0.08554
822.89205	0.09073
821.60628	0.09579
820.32051	0.10044
819.03474	0.10453
817.74897	0.10811
816.46321	0.11132
815.17744	0.11433
813.89167	0.11737
812.60590	0.12070
811.32013	0.12461
810.03436	0.12919
808.74859	0.13430
807.46282	0.13966
806.17705	0.14505
804.89129	0.15030
803.60552	0.15518
802.31975	0.15941
801.03398	0.16275
799.74821	0.16511
798.46244	0.16652
797.17667	0.16696
795.89090	0.16631
794.60513	0.16442
793.31937	0.16124
792.03360	0.15685
790.74783	0.15140
789.46206	0.14503
788.17629	0.13794
786.89052	0.13049
785.60475	0.12306
784.31898	0.11596
783.03322	0.10936
781.74745	0.10328
780.46168	0.09772
779.17591	0.09275
777.89014	0.08843
776.60437	0.08475
775.31860	0.08159
774.03283	0.07882
772.74706	0.07637
771.46130	0.07425
770.17553	0.07245
768.88976	0.07096
767.60399	0.06973
766.31822	0.06871
765.03245	0.06777
763.74668	0.06684
762.46091	0.06592
761.17515	0.06511
759.88938	0.06446
758.60361	0.06398
757.31784	0.06361
756.03207	0.06332
754.74630	0.06308
753.46053	0.06281
752.17476	0.06243
750.88899	0.06191
749.60323	0.06127
748.31746	0.06057
747.03169	0.05987
745.74592	0.05920
744.46015	0.05863
743.17438	0.05816
741.88861	0.05778
740.60284	0.05749
739.31708	0.05723
738.03131	0.05696
736.74554	0.05664
735.45977	0.05629
734.17400	0.05602
732.88823	0.05586
731.60246	0.05578
730.31669	0.05569
729.03092	0.05550
727.74516	0.05521
726.45939	0.05487
725.17362	0.05458
723.88785	0.05431
722.60208	0.05415
721.31631	0.05417
720.03054	0.05418
718.74477	0.05408
717.45901	0.05408
716.17324	0.05417
714.88747	0.05429
713.60170	0.05448
712.31593	0.05480
711.03016	0.05525
709.74439	0.05579
708.45862	0.05631
707.17285	0.05675
705.88709	0.05707
704.60132	0.05725
703.31555	0.05733
702.02978	0.05734
700.74401	0.05728
699.45824	0.05715
698.17247	0.05694
696.88670	0.05664
695.60094	0.05628
694.31517	0.05592
693.02940	0.05562
691.74363	0.05541
690.45786	0.05526
689.17209	0.05515
687.88632	0.05506
686.60055	0.05494
685.31478	0.05472
684.02902	0.05436
682.74325	0.05387
681.45748	0.05336
680.17171	0.05295
678.88594	0.05271
677.60017	0.05264
676.31440	0.05267
675.02863	0.05264
673.74287	0.05230
672.45710	0.05143
671.17133	0.05056
669.88556	0.05130
668.59979	0.05373
667.31402	0.05368
666.02825	0.05187
664.74248	0.05170
663.45671	0.05229
662.17095	0.05240
660.88518	0.05198
659.59941	0.05127
658.31364	0.05044
657.02787	0.04962
655.74210	0.04888
654.45633	0.04828
653.17056	0.04783
651.88480	0.04753
650.59903	0.04736
649.31326	0.04730
648.02749	0.04726
646.74172	0.04724
645.45595	0.04728
644.17018	0.04737
642.88441	0.04756
641.59864	0.04785
640.31288	0.04822
639.02711	0.04862
637.74134	0.04902
636.45557	0.04944
635.16980	0.04989
633.88403	0.05039
632.59826	0.05099
631.31249	0.05181
630.02673	0.05292
628.74096	0.05384
627.45519	0.05400
626.16942	0.05572
624.88365	0.05896
623.59788	0.06332
622.31211	0.06828
621.02634	0.07262
619.74057	0.07539
618.45481	0.07721
617.16904	0.07968
615.88327	0.08372
614.59750	0.08895
613.31173	0.09444
612.02596	0.09988
610.74019	0.10584
609.45442	0.11289
608.16866	0.12061
606.88289	0.12810
605.59712	0.13468
604.31135	0.13980
603.02558	0.14293
601.73981	0.14373
600.45404	0.14234
599.16827	0.13931
597.88250	0.13534
596.59674	0.13107
595.31097	0.12690
594.02520	0.12306
592.73943	0.11971
591.45366	0.11692
590.16789	0.11473
588.88212	0.11328
587.59635	0.11274
586.31059	0.11322
585.02482	0.11468
583.73905	0.11694
582.45328	0.11980
581.16751	0.12315
579.88174	0.12680
578.59597	0.13057
577.31020	0.13431
576.02443	0.13796
574.73867	0.14153
573.45290	0.14505
572.16713	0.14859
570.88136	0.15238
569.59559	0.15682
568.30982	0.16223
567.02405	0.16862
565.73828	0.17559
564.45251	0.18228
563.16675	0.18764
561.88098	0.19081
560.59521	0.19135
559.30944	0.18919
558.02367	0.18453
556.73790	0.17779
555.45213	0.16963
554.16636	0.16073
552.88060	0.15174
551.59483	0.14308
550.30906	0.13504
549.02329	0.12775
547.73752	0.12121
546.45175	0.11523
545.16598	0.10968
543.88021	0.10454
542.59444	0.09990
541.30868	0.09581
540.02291	0.09220
538.73714	0.08888
537.45137	0.08568
536.16560	0.08258
534.87983	0.07977
533.59406	0.07736
532.30829	0.07531
531.02253	0.07341
529.73676	0.07150
528.45099	0.06955
527.16522	0.06764
525.87945	0.06586
524.59368	0.06430
523.30791	0.06301
522.02214	0.06195
520.73637	0.06097
519.45061	0.05990
518.16484	0.05867
516.87907	0.05733
515.59330	0.05608
514.30753	0.05507
513.02176	0.05429
511.73599	0.05357
510.45022	0.05271
509.16446	0.05167
507.87869	0.05056
506.59292	0.04957
505.30715	0.04882
504.02138	0.04829
502.73561	0.04784
501.44984	0.04732
500.16407	0.04670
498.87830	0.04605
497.59254	0.04547
496.30677	0.04499
495.02100	0.04457
493.73523	0.04418
492.44946	0.04383
491.16369	0.04351
489.87792	0.04323
488.59215	0.04293
487.30639	0.04260
486.02062	0.04225
484.73485	0.04195
483.44908	0.04180
482.16331	0.04180
480.87754	0.04189
479.59177	0.04196
478.30600	0.04198
477.02023	0.04199
475.73447	0.04207
474.44870	0.04227
473.16293	0.04253
471.87716	0.04271
470.59139	0.04271
469.30562	0.04253
468.01985	0.04223
466.73408	0.04187
465.44832	0.04141
464.16255	0.04085
462.87678	0.04023
461.59101	0.03966
460.30524	0.03917
459.01947	0.03873
457.73370	0.03828
456.44793	0.03778
455.16216	0.03729
453.87640	0.03686
452.59063	0.03651
451.30486	0.03622
450.01909	0.03593
448.73332	0.03566
447.44755	0.03544
446.16178	0.03531
444.87601	0.03524
443.59025	0.03518
442.30448	0.03509
441.01871	0.03495
439.73294	0.03477
438.44717	0.03455
437.16140	0.03432
435.87563	0.03409
434.58986	0.03392
433.30409	0.03387
432.01833	0.03395
430.73256	0.03414
429.44679	0.03433
428.16102	0.03441
426.87525	0.03433
425.58948	0.03415
424.30371	0.03400
423.01794	0.03396
421.73218	0.03404
420.44641	0.03423
419.16064	0.03449
417.87487	0.03483
416.58910	0.03527
415.30333	0.03584
414.01756	0.03656
412.73179	0.03744
411.44602	0.03841
410.16026	0.03940
408.87449	0.04033
407.58872	0.04119
406.30295	0.04197
405.01718	0.04267
403.73141	0.04329
402.44564	0.04384
401.15987	0.04433
399.87411	0.04478
