3997.45528	-0.03066
3996.16951	-0.03081
3994.88374	-0.03107
3993.59798	-0.03133
3992.31221	-0.03125
3991.02644	-0.03070
3989.74067	-0.02995
3988.45490	-0.02929
3987.16913	-0.02880
3985.88336	-0.02847
3984.59759	-0.02837
3983.31183	-0.02856
3982.02606	-0.02882
3980.74029	-0.02879
3979.45452	-0.02826
3978.16875	-0.02730
3976.88298	-0.02629
3975.59721	-0.02561
3974.31144	-0.02534
3973.02567	-0.02513
3971.73991	-0.02463
3970.45414	-0.02389
3969.16837	-0.02332
3967.88260	-0.02326
3966.59683	-0.02364
3965.31106	-0.02412
3964.02529	-0.02436
3962.73952	-0.02418
3961.45376	-0.02368
3960.16799	-0.02320
3958.88222	-0.02310
3957.59645	-0.02348
3956.31068	-0.02410
3955.02491	-0.02460
3953.73914	-0.02466
3952.45337	-0.02417
3951.16760	-0.02324
3949.88184	-0.02220
3948.59607	-0.02151
3947.31030	-0.02149
3946.02453	-0.02215
3944.73876	-0.02312
3943.45299	-0.02384
3942.16722	-0.02393
3940.88145	-0.02352
3939.59569	-0.02303
3938.30992	-0.02263
3937.02415	-0.02223
3935.73838	-0.02174
3934.45261	-0.02133
3933.16684	-0.02125
3931.88107	-0.02144
3930.59530	-0.02161
3929.30953	-0.02147
3928.02377	-0.02101
3926.73800	-0.02051
3925.45223	-0.02016
3924.16646	-0.01990
3922.88069	-0.01967
3921.59492	-0.01961
3920.30915	-0.01998
3919.02338	-0.02083
3917.73762	-0.02179
3916.45185	-0.02224
3915.16608	-0.02189
3913.88031	-0.02098
3912.59454	-0.01987
3911.30877	-0.01879
3910.02300	-0.01795
3908.73723	-0.01763
3907.45146	-0.01805
3906.16570	-0.01911
3904.87993	-0.02025
3903.59416	-0.02088
3902.30839	-0.02100
3901.02262	-0.02104
3899.73685	-0.02122
3898.45108	-0.02128
3897.16531	-0.02089
3895.87955	-0.02007
3894.59378	-0.01917
3893.30801	-0.01856
3892.02224	-0.01825
3890.73647	-0.01790
3889.45070	-0.01748
3888.16493	-0.01745
3886.87916	-0.01787
3885.59339	-0.01806
3884.30763	-0.01757
3883.02186	-0.01682
3881.73609	-0.01648
3880.45032	-0.01666
3879.16455	-0.01707
3877.87878	-0.01753
3876.59301	-0.01795
3875.30724	-0.01813
3874.02148	-0.01807
3872.73571	-0.01814
3871.44994	-0.01858
3870.16417	-0.01887
3868.87840	-0.01842
3867.59263	-0.01749
3866.30686	-0.01669
3865.02109	-0.01626
3863.73532	-0.01618
3862.44956	-0.01648
3861.16379	-0.01688
3859.87802	-0.01682
3858.59225	-0.01604
3857.30648	-0.01501
3856.02071	-0.01446
3854.73494	-0.01451
3853.44917	-0.01452
3852.16341	-0.01409
3850.87764	-0.01348
3849.59187	-0.01300
3848.30610	-0.01261
3847.02033	-0.01236
3845.73456	-0.01240
3844.44879	-0.01267
3843.16302	-0.01293
3841.87725	-0.01310
3840.59149	-0.01343
3839.30572	-0.01397
3838.01995	-0.01437
3836.73418	-0.01426
3835.44841	-0.01390
3834.16264	-0.01380
3832.87687	-0.01400
3831.59110	-0.01425
3830.30534	-0.01438
3829.01957	-0.01445
3827.73380	-0.01441
3826.44803	-0.01397
3825.16226	-0.01310
3823.87649	-0.01221
3822.59072	-0.01157
3821.30495	-0.01097
3820.01918	-0.01039
3818.73342	-0.01033
3817.44765	-0.01100
3816.16188	-0.01175
3814.87611	-0.01210
3813.59034	-0.01256
3812.30457	-0.01365
3811.01880	-0.01504
3809.73303	-0.01611
3808.44726	-0.01644
3807.16150	-0.01564
3805.87573	-0.01391
3804.58996	-0.01238
3803.30419	-0.01211
3802.01842	-0.01279
3800.73265	-0.01330
3799.44688	-0.01326
3798.16111	-0.01304
3796.87535	-0.01274
3795.58958	-0.01223
3794.30381	-0.01174
3793.01804	-0.01169
3791.73227	-0.01214
3790.44650	-0.01280
3789.16073	-0.01341
3787.87496	-0.01379
3786.58919	-0.01392
3785.30343	-0.01387
3784.01766	-0.01372
3782.73189	-0.01345
3781.44612	-0.01307
3780.16035	-0.01261
3778.87458	-0.01223
3777.58881	-0.01213
3776.30304	-0.01236
3775.01728	-0.01268
3773.73151	-0.01286
3772.44574	-0.01298
3771.15997	-0.01310
3769.87420	-0.01311
3768.58843	-0.01299
3767.30266	-0.01296
3766.01689	-0.01312
3764.73112	-0.01330
3763.44536	-0.01346
3762.15959	-0.01367
3760.87382	-0.01386
3759.58805	-0.01381
3758.30228	-0.01345
3757.01651	-0.01284
3755.73074	-0.01214
3754.44497	-0.01153
3753.15921	-0.01105
3751.87344	-0.01067
3750.58767	-0.01050
3749.30190	-0.01065
3748.01613	-0.01113
3746.73036	-0.01197
3745.44459	-0.01272
3744.15882	-0.01278
3742.87305	-0.01239
3741.58729	-0.01245
3740.30152	-0.01327
3739.01575	-0.01442
3737.72998	-0.01555
3736.44421	-0.01629
3735.15844	-0.01626
3733.87267	-0.01567
3732.58690	-0.01496
3731.30114	-0.01458
3730.01537	-0.01488
3728.72960	-0.01578
3727.44383	-0.01680
3726.15806	-0.01733
3724.87229	-0.01741
3723.58652	-0.01759
3722.30075	-0.01793
3721.01498	-0.01808
3719.72922	-0.01774
3718.44345	-0.01670
3717.15768	-0.01512
3715.87191	-0.01365
3714.58614	-0.01309
3713.30037	-0.01355
3712.01460	-0.01423
3710.72883	-0.01459
3709.44307	-0.01477
3708.15730	-0.01483
3706.87153	-0.01504
3705.58576	-0.01556
3704.29999	-0.01623
3703.01422	-0.01667
3701.72845	-0.01644
3700.44268	-0.01560
3699.15691	-0.01457
3697.87115	-0.01367
3696.58538	-0.01310
3695.29961	-0.01296
3694.01384	-0.01330
3692.72807	-0.01358
3691.44230	-0.01353
3690.15653	-0.01336
3688.87076	-0.01311
3687.58500	-0.01264
3686.29923	-0.01200
3685.01346	-0.01130
3683.72769	-0.01068
3682.44192	-0.01015
3681.15615	-0.00978
3679.87038	-0.00970
3678.58461	-0.01003
3677.29884	-0.01051
3676.01308	-0.01039
3674.72731	-0.00936
3673.44154	-0.00839
3672.15577	-0.00866
3670.87000	-0.00983
3669.58423	-0.01047
3668.29846	-0.01006
3667.01269	-0.00927
3665.72693	-0.00885
3664.44116	-0.00887
3663.15539	-0.00908
3661.86962	-0.00923
3660.58385	-0.00922
3659.29808	-0.00906
3658.01231	-0.00865
3656.72654	-0.00771
3655.44077	-0.00622
3654.15501	-0.00470
3652.86924	-0.00385
3651.58347	-0.00379
3650.29770	-0.00402
3649.01193	-0.00409
3647.72616	-0.00403
3646.44039	-0.00417
3645.15462	-0.00460
3643.86886	-0.00505
3642.58309	-0.00524
3641.29732	-0.00511
3640.01155	-0.00475
3638.72578	-0.00431
3637.44001	-0.00395
3636.15424	-0.00385
3634.86847	-0.00404
3633.58270	-0.00424
3632.29694	-0.00437
3631.01117	-0.00449
3629.72540	-0.00430
3628.43963	-0.00356
3627.15386	-0.00261
3625.86809	-0.00209
3624.58232	-0.00189
3623.29655	-0.00166
3622.01079	-0.00121
3620.72502	-0.00075
3619.43925	-0.00026
3618.15348	0.00013
3616.86771	0.00017
3615.58194	0.00001
3614.29617	0.00026
3613.01040	0.00127
3611.72463	0.00254
3610.43887	0.00329
3609.15310	0.00320
3607.86733	0.00272
3606.58156	0.00252
3605.29579	0.00299
3604.01002	0.00407
3602.72425	0.00535
3601.43848	0.00657
3600.15272	0.00749
3598.86695	0.00779
3597.58118	0.00727
3596.29541	0.00642
3595.00964	0.00572
3593.72387	0.00542
3592.43810	0.00561
3591.15233	0.00582
3589.86656	0.00595
3588.58080	0.00655
3587.29503	0.00771
3586.00926	0.00891
3584.72349	0.00951
3583.43772	0.00939
3582.15195	0.00911
3580.86618	0.00927
3579.58041	0.00997
3578.29464	0.01093
3577.00888	0.01187
3575.72311	0.01253
3574.43734	0.01284
3573.15157	0.01296
3571.86580	0.01319
3570.58003	0.01369
3569.29426	0.01428
3568.00849	0.01457
3566.72273	0.01446
3565.43696	0.01434
3564.15119	0.01475
3562.86542	0.01590
3561.57965	0.01725
3560.29388	0.01807
3559.00811	0.01814
3557.72234	0.01790
3556.43657	0.01791
3555.15081	0.01828
3553.86504	0.01870
3552.57927	0.01884
3551.29350	0.01872
3550.00773	0.01854
3548.72196	0.01851
3547.43619	0.01870
3546.15042	0.01907
3544.86466	0.01941
3543.57889	0.01949
3542.29312	0.01927
3541.00735	0.01904
3539.72158	0.01916
3538.43581	0.01980
3537.15004	0.02093
3535.86427	0.02237
3534.57850	0.02368
3533.29274	0.02425
3532.00697	0.02383
3530.72120	0.02291
3529.43543	0.02238
3528.14966	0.02274
3526.86389	0.02375
3525.57812	0.02477
3524.29235	0.02542
3523.00659	0.02576
3521.72082	0.02595
3520.43505	0.02601
3519.14928	0.02591
3517.86351	0.02580
3516.57774	0.02599
3515.29197	0.02671
3514.00620	0.02781
3512.72043	0.02882
3511.43467	0.02918
3510.14890	0.02870
3508.86313	0.02774
3507.57736	0.02697
3506.29159	0.02691
3505.00582	0.02757
3503.72005	0.02850
3502.43428	0.02922
3501.14852	0.02960
3499.86275	0.02987
3498.57698	0.03031
3497.29121	0.03089
3496.00544	0.03142
3494.71967	0.03175
3493.43390	0.03176
3492.14813	0.03143
3490.86236	0.03091
3489.57660	0.03049
3488.29083	0.03038
3487.00506	0.03061
3485.71929	0.03104
3484.43352	0.03157
3483.14775	0.03206
3481.86198	0.03233
3480.57621	0.03231
3479.29045	0.03213
3478.00468	0.03205
3476.71891	0.03223
3475.43314	0.03260
3474.14737	0.03308
3472.86160	0.03371
3471.57583	0.03459
3470.29006	0.03556
3469.00429	0.03629
3467.71853	0.03651
3466.43276	0.03631
3465.14699	0.03595
3463.86122	0.03570
3462.57545	0.03569
3461.28968	0.03582
3460.00391	0.03582
3458.71814	0.03555
3457.43238	0.03527
3456.14661	0.03543
3454.86084	0.03610
3453.57507	0.03688
3452.28930	0.03734
3451.00353	0.03743
3449.71776	0.03744
3448.43199	0.03751
3447.14622	0.03750
3445.86046	0.03727
3444.57469	0.03696
3443.28892	0.03694
3442.00315	0.03746
3440.71738	0.03835
3439.43161	0.03914
3438.14584	0.03940
3436.86007	0.03906
3435.57431	0.03850
3434.28854	0.03816
3433.00277	0.03826
3431.71700	0.03866
3430.43123	0.03910
3429.14546	0.03949
3427.85969	0.03995
3426.57392	0.04051
3425.28815	0.04100
3424.00239	0.04119
3422.71662	0.04105
3421.43085	0.04087
3420.14508	0.04106
3418.85931	0.04176
3417.57354	0.04265
3416.28777	0.04314
3415.00200	0.04297
3413.71624	0.04238
3412.43047	0.04188
3411.14470	0.04177
3409.85893	0.04194
3408.57316	0.04215
3407.28739	0.04232
3406.00162	0.04254
3404.71585	0.04287
3403.43008	0.04319
3402.14432	0.04328
3400.85855	0.04302
3399.57278	0.04245
3398.28701	0.04189
3397.00124	0.04164
3395.71547	0.04186
3394.42970	0.04250
3393.14393	0.04326
3391.85817	0.04385
3390.57240	0.04420
3389.28663	0.04433
3388.00086	0.04429
3386.71509	0.04415
3385.42932	0.04408
3384.14355	0.04418
3382.85778	0.04432
3381.57201	0.04429
3380.28625	0.04411
3379.00048	0.04408
3377.71471	0.04435
3376.42894	0.04477
3375.14317	0.04508
3373.85740	0.04522
3372.57163	0.04534
3371.28586	0.04557
3370.00010	0.04584
3368.71433	0.04603
3367.42856	0.04604
3366.14279	0.04581
3364.85702	0.04535
3363.57125	0.04479
3362.28548	0.04434
3360.99971	0.04408
3359.71394	0.04393
3358.42818	0.04382
3357.14241	0.04383
3355.85664	0.04419
3354.57087	0.04492
3353.28510	0.04577
3351.99933	0.04632
3350.71356	0.04631
3349.42779	0.04581
3348.14202	0.04515
3346.85626	0.04467
3345.57049	0.04455
3344.28472	0.04474
3342.99895	0.04504
3341.71318	0.04527
3340.42741	0.04534
3339.14164	0.04526
3337.85587	0.04506
3336.57011	0.04489
3335.28434	0.04490
3333.99857	0.04518
3332.71280	0.04557
3331.42703	0.04577
3330.14126	0.04558
3328.85549	0.04506
3327.56972	0.04450
3326.28395	0.04421
3324.99819	0.04438
3323.71242	0.04497
3322.42665	0.04579
3321.14088	0.04659
3319.85511	0.04714
3318.56934	0.04727
3317.28357	0.04686
3315.99780	0.04603
3314.71204	0.04515
3313.42627	0.04468
3312.14050	0.04484
3310.85473	0.04539
3309.56896	0.04577
3308.28319	0.04565
3306.99742	0.04517
3305.71165	0.04465
3304.42588	0.04426
3303.14012	0.04392
3301.85435	0.04355
3300.56858	0.04325
3299.28281	0.04319
3297.99704	0.04341
3296.71127	0.04381
3295.42550	0.04425
3294.13973	0.04463
3292.85397	0.04491
3291.56820	0.04512
3290.28243	0.04527
3288.99666	0.04525
3287.71089	0.04484
3286.42512	0.04407
3285.13935	0.04330
3283.85358	0.04296
3282.56781	0.04309
3281.28205	0.04331
3279.99628	0.04330
3278.71051	0.04312
3277.42474	0.04301
3276.13897	0.04307
3274.85320	0.04325
3273.56743	0.04349
3272.28166	0.04381
3270.99590	0.04415
3269.71013	0.04436
3268.42436	0.04443
3267.13859	0.04454
3265.85282	0.04490
3264.56705	0.04540
3263.28128	0.04564
3261.99551	0.04532
3260.70974	0.04462
3259.42398	0.04407
3258.13821	0.04403
3256.85244	0.04438
3255.56667	0.04467
3254.28090	0.04462
3252.99513	0.04428
3251.70936	0.04390
3250.42359	0.04366
3249.13783	0.04353
3247.85206	0.04339
3246.56629	0.04321
3245.28052	0.04305
3243.99475	0.04302
3242.70898	0.04316
3241.42321	0.04333
3240.13744	0.04336
3238.85167	0.04321
3237.56591	0.04303
3236.28014	0.04298
3234.99437	0.04309
3233.70860	0.04327
3232.42283	0.04343
3231.13706	0.04357
3229.85129	0.04366
3228.56552	0.04361
3227.27976	0.04334
3225.99399	0.04289
3224.70822	0.04245
3223.42245	0.04223
3222.13668	0.04220
3220.85091	0.04223
3219.56514	0.04222
3218.27937	0.04217
3216.99360	0.04209
3215.70784	0.04206
3214.42207	0.04212
3213.13630	0.04227
3211.85053	0.04234
3210.56476	0.04225
3209.27899	0.04202
3207.99322	0.04178
3206.70745	0.04158
3205.42169	0.04144
3204.13592	0.04131
3202.85015	0.04113
3201.56438	0.04090
3200.27861	0.04077
3198.99284	0.04092
3197.70707	0.04135
3196.42130	0.04183
3195.13553	0.04203
3193.84977	0.04181
3192.56400	0.04133
3191.27823	0.04091
3189.99246	0.04073
3188.70669	0.04076
3187.42092	0.04087
3186.13515	0.04087
3184.84938	0.04060
3183.56362	0.04011
3182.27785	0.03968
3180.99208	0.03964
3179.70631	0.04002
3178.42054	0.04050
3177.13477	0.04073
3175.84900	0.04063
3174.56323	0.04034
3173.27746	0.04008
3171.99170	0.03996
3170.70593	0.03992
3169.42016	0.03977
3168.13439	0.03943
3166.84862	0.03904
3165.56285	0.03894
3164.27708	0.03924
3162.99131	0.03968
3161.70555	0.03987
3160.41978	0.03971
3159.13401	0.03943
3157.84824	0.03929
3156.56247	0.03925
3155.27670	0.03916
3153.99093	0.03897
3152.70516	0.03877
3151.41939	0.03856
3150.13363	0.03829
3148.84786	0.03802
3147.56209	0.03791
3146.27632	0.03805
3144.99055	0.03829
3143.70478	0.03844
3142.41901	0.03845
3141.13324	0.03839
3139.84748	0.03826
3138.56171	0.03807
3137.27594	0.03783
3135.99017	0.03765
3134.70440	0.03756
3133.41863	0.03747
3132.13286	0.03722
3130.84709	0.03676
3129.56132	0.03632
3128.27556	0.03614
3126.98979	0.03630
3125.70402	0.03667
3124.41825	0.03705
3123.13248	0.03739
3121.84671	0.03766
3120.56094	0.03777
3119.27517	0.03764
3117.98940	0.03730
3116.70364	0.03693
3115.41787	0.03671
3114.13210	0.03670
3112.84633	0.03684
3111.56056	0.03703
3110.27479	0.03723
3108.98902	0.03742
3107.70325	0.03758
3106.41749	0.03762
3105.13172	0.03746
3103.84595	0.03713
3102.56018	0.03674
3101.27441	0.03647
3099.98864	0.03644
3098.70287	0.03661
3097.41710	0.03675
3096.13133	0.03665
3094.84557	0.03630
3093.55980	0.03587
3092.27403	0.03554
3090.98826	0.03537
3089.70249	0.03538
3088.41672	0.03560
3087.13095	0.03596
3085.84518	0.03633
3084.55942	0.03659
3083.27365	0.03673
3081.98788	0.03668
3080.70211	0.03639
3079.41634	0.03593
3078.13057	0.03548
3076.84480	0.03518
3075.55903	0.03501
3074.27326	0.03485
3072.98750	0.03464
3071.70173	0.03435
3070.41596	0.03403
3069.13019	0.03380
3067.84442	0.03381
3066.55865	0.03404
3065.27288	0.03434
3063.98711	0.03451
3062.70135	0.03456
3061.41558	0.03462
3060.12981	0.03475
3058.84404	0.03490
3057.55827	0.03498
3056.27250	0.03494
3054.98673	0.03478
3053.70096	0.03446
3052.41519	0.03402
3051.12943	0.03361
3049.84366	0.03342
3048.55789	0.03346
3047.27212	0.03362
3045.98635	0.03375
3044.70058	0.03377
3043.41481	0.03363
3042.12904	0.03333
3040.84328	0.03296
3039.55751	0.03269
3038.27174	0.03260
3036.98597	0.03259
3035.70020	0.03251
3034.41443	0.03230
3033.12866	0.03212
3031.84289	0.03217
3030.55712	0.03253
3029.27136	0.03299
3027.98559	0.03328
3026.69982	0.03324
3025.41405	0.03296
3024.12828	0.03264
3022.84251	0.03249
3021.55674	0.03261
3020.27097	0.03296
3018.98521	0.03327
3017.69944	0.03332
3016.41367	0.03306
3015.12790	0.03264
3013.84213	0.03231
3012.55636	0.03220
3011.27059	0.03234
3009.98482	0.03262
3008.69905	0.03293
3007.41329	0.03314
3006.12752	0.03316
3004.84175	0.03293
3003.55598	0.03245
3002.27021	0.03187
3000.98444	0.03136
2999.69867	0.03109
2998.41290	0.03115
2997.12714	0.03134
2995.84137	0.03145
2994.55560	0.03145
2993.26983	0.03149
2991.98406	0.03171
2990.69829	0.03202
2989.41252	0.03215
2988.12675	0.03195
2986.84098	0.03165
2985.55522	0.03159
2984.26945	0.03189
2982.98368	0.03232
2981.69791	0.03270
2980.41214	0.03297
2979.12637	0.03316
2977.84060	0.03330
2976.55483	0.03342
2975.26907	0.03355
2973.98330	0.03362
2972.69753	0.03362
2971.41176	0.03365
2970.12599	0.03387
2968.84022	0.03434
2967.55445	0.03490
2966.26868	0.03534
2964.98291	0.03551
2963.69715	0.03548
2962.41138	0.03540
2961.12561	0.03542
2959.83984	0.03553
2958.55407	0.03565
2957.26830	0.03574
2955.98253	0.03585
2954.69676	0.03598
2953.41100	0.03605
2952.12523	0.03599
2950.83946	0.03586
2949.55369	0.03585
2948.26792	0.03607
2946.98215	0.03644
2945.69638	0.03669
2944.41061	0.03658
2943.12484	0.03613
2941.83908	0.03559
2940.55331	0.03527
2939.26754	0.03532
2937.98177	0.03567
2936.69600	0.03613
2935.41023	0.03650
2934.12446	0.03665
2932.83869	0.03665
2931.55293	0.03664
2930.26716	0.03667
2928.98139	0.03674
2927.69562	0.03683
2926.40985	0.03703
2925.12408	0.03737
2923.83831	0.03773
2922.55254	0.03799
2921.26677	0.03815
2919.98101	0.03816
2918.69524	0.03792
2917.40947	0.03738
2916.12370	0.03667
2914.83793	0.03600
2913.55216	0.03542
2912.26639	0.03496
2910.98062	0.03469
2909.69486	0.03466
2908.40909	0.03477
2907.12332	0.03484
2905.83755	0.03474
2904.55178	0.03446
2903.26601	0.03410
2901.98024	0.03381
2900.69447	0.03369
2899.40870	0.03368
2898.12294	0.03359
2896.83717	0.03334
2895.55140	0.03295
2894.26563	0.03252
2892.97986	0.03200
2891.69409	0.03142
2890.40832	0.03098
2889.12255	0.03088
2887.83678	0.03110
2886.55102	0.03138
2885.26525	0.03145
2883.97948	0.03130
2882.69371	0.03111
2881.40794	0.03108
2880.12217	0.03132
2878.83640	0.03179
2877.55063	0.03234
2876.26487	0.03272
2874.97910	0.03273
2873.69333	0.03244
2872.40756	0.03209
2871.12179	0.03187
2869.83602	0.03181
2868.55025	0.03178
2867.26448	0.03166
2865.97871	0.03144
2864.69295	0.03123
2863.40718	0.03118
2862.12141	0.03134
2860.83564	0.03159
2859.54987	0.03183
2858.26410	0.03204
2856.97833	0.03220
2855.69256	0.03225
2854.40680	0.03207
2853.12103	0.03167
2851.83526	0.03121
2850.54949	0.03083
2849.26372	0.03050
2847.97795	0.03016
2846.69218	0.02977
2845.40641	0.02932
2844.12064	0.02884
2842.83488	0.02841
2841.54911	0.02813
2840.26334	0.02804
2838.97757	0.02808
2837.69180	0.02814
2836.40603	0.02817
2835.12026	0.02815
2833.83449	0.02802
2832.54873	0.02770
2831.26296	0.02720
2829.97719	0.02670
2828.69142	0.02638
2827.40565	0.02624
2826.11988	0.02614
2824.83411	0.02594
2823.54834	0.02572
2822.26257	0.02561
2820.97681	0.02569
2819.69104	0.02586
2818.40527	0.02599
2817.11950	0.02604
2815.83373	0.02607
2814.54796	0.02616
2813.26219	0.02628
2811.97642	0.02630
2810.69066	0.02613
2809.40489	0.02586
2808.11912	0.02562
2806.83335	0.02550
2805.54758	0.02548
2804.26181	0.02552
2802.97604	0.02560
2801.69027	0.02564
2800.40450	0.02553
2799.11874	0.02527
2797.83297	0.02497
2796.54720	0.02477
2795.26143	0.02468
2793.97566	0.02459
2792.68989	0.02439
2791.40412	0.02416
2790.11835	0.02408
2788.83259	0.02425
2787.54682	0.02453
2786.26105	0.02467
2784.97528	0.02455
2783.68951	0.02437
2782.40374	0.02432
2781.11797	0.02444
2779.83220	0.02457
2778.54643	0.02456
2777.26067	0.02436
2775.97490	0.02403
2774.68913	0.02379
2773.40336	0.02384
2772.11759	0.02418
2770.83182	0.02454
2769.54605	0.02466
2768.26028	0.02456
2766.97452	0.02447
2765.68875	0.02454
2764.40298	0.02470
2763.11721	0.02471
2761.83144	0.02446
2760.54567	0.02403
2759.25990	0.02365
2757.97413	0.02357
2756.68836	0.02377
2755.40260	0.02406
2754.11683	0.02420
2752.83106	0.02413
2751.54529	0.02394
2750.25952	0.02372
2748.97375	0.02352
2747.68798	0.02332
2746.40221	0.02314
2745.11645	0.02298
2743.83068	0.02289
2742.54491	0.02285
2741.25914	0.02281
2739.97337	0.02273
2738.68760	0.02266
2737.40183	0.02268
2736.11606	0.02275
2734.83029	0.02279
2733.54453	0.02279
2732.25876	0.02276
2730.97299	0.02273
2729.68722	0.02272
2728.40145	0.02280
2727.11568	0.02294
2725.82991	0.02306
2724.54414	0.02302
2723.25838	0.02284
2721.97261	0.02268
2720.68684	0.02271
2719.40107	0.02294
2718.11530	0.02324
2716.82953	0.02342
2715.54376	0.02345
2714.25799	0.02336
2712.97222	0.02317
2711.68646	0.02286
2710.40069	0.02244
2709.11492	0.02205
2707.82915	0.02184
2706.54338	0.02193
2705.25761	0.02226
2703.97184	0.02267
2702.68607	0.02291
2701.40031	0.02286
2700.11454	0.02258
2698.82877	0.02222
2697.54300	0.02194
2696.25723	0.02182
2694.97146	0.02187
2693.68569	0.02202
2692.39992	0.02218
2691.11415	0.02224
2689.82839	0.02218
2688.54262	0.02206
2687.25685	0.02195
2685.97108	0.02190
2684.68531	0.02187
2683.39954	0.02181
2682.11377	0.02173
2680.82800	0.02169
2679.54224	0.02172
2678.25647	0.02176
2676.97070	0.02175
2675.68493	0.02165
2674.39916	0.02151
2673.11339	0.02140
2671.82762	0.02135
2670.54185	0.02139
2669.25608	0.02152
2667.97032	0.02169
2666.68455	0.02185
2665.39878	0.02194
2664.11301	0.02196
2662.82724	0.02192
2661.54147	0.02188
2660.25570	0.02190
2658.96993	0.02201
2657.68417	0.02215
2656.39840	0.02220
2655.11263	0.02212
2653.82686	0.02194
2652.54109	0.02177
2651.25532	0.02167
2649.96955	0.02165
2648.68378	0.02163
2647.39801	0.02154
2646.11225	0.02136
2644.82648	0.02114
2643.54071	0.02089
2642.25494	0.02060
2640.96917	0.02033
2639.68340	0.02015
2638.39763	0.02007
2637.11186	0.01995
2635.82609	0.01974
2634.54033	0.01946
2633.25456	0.01921
2631.96879	0.01904
2630.68302	0.01900
2629.39725	0.01910
2628.11148	0.01931
2626.82571	0.01953
2625.53994	0.01961
2624.25418	0.01943
2622.96841	0.01898
2621.68264	0.01837
2620.39687	0.01785
2619.11110	0.01760
2617.82533	0.01755
2616.53956	0.01753
2615.25379	0.01751
2613.96802	0.01758
2612.68226	0.01777
2611.39649	0.01798
2610.11072	0.01804
2608.82495	0.01794
2607.53918	0.01770
2606.25341	0.01740
2604.96764	0.01710
2603.68187	0.01683
2602.39611	0.01659
2601.11034	0.01641
2599.82457	0.01634
2598.53880	0.01645
2597.25303	0.01674
2595.96726	0.01712
2594.68149	0.01741
2593.39572	0.01746
2592.10995	0.01723
2590.82419	0.01684
2589.53842	0.01644
2588.25265	0.01616
2586.96688	0.01608
2585.68111	0.01617
2584.39534	0.01631
2583.10957	0.01634
2581.82380	0.01622
2580.53804	0.01599
2579.25227	0.01577
2577.96650	0.01556
2576.68073	0.01536
2575.39496	0.01523
2574.10919	0.01522
2572.82342	0.01527
2571.53765	0.01521
2570.25188	0.01498
2568.96612	0.01473
2567.68035	0.01471
2566.39458	0.01499
2565.10881	0.01542
2563.82304	0.01577
2562.53727	0.01596
2561.25150	0.01599
2559.96573	0.01587
2558.67997	0.01558
2557.39420	0.01523
2556.10843	0.01504
2554.82266	0.01508
2553.53689	0.01525
2552.25112	0.01537
2550.96535	0.01536
2549.67958	0.01519
2548.39381	0.01491
2547.10805	0.01463
2545.82228	0.01442
2544.53651	0.01422
2543.25074	0.01396
2541.96497	0.01366
2540.67920	0.01346
2539.39343	0.01345
2538.10766	0.01357
2536.82190	0.01368
2535.53613	0.01370
2534.25036	0.01358
2532.96459	0.01342
2531.67882	0.01337
2530.39305	0.01352
2529.10728	0.01380
2527.82151	0.01404
2526.53574	0.01414
2525.24998	0.01416
2523.96421	0.01421
2522.67844	0.01433
2521.39267	0.01444
2520.10690	0.01442
2518.82113	0.01423
2517.53536	0.01401
2516.24959	0.01392
2514.96383	0.01398
2513.67806	0.01406
2512.39229	0.01406
2511.10652	0.01411
2509.82075	0.01431
2508.53498	0.01456
2507.24921	0.01466
2505.96344	0.01463
2504.67767	0.01471
2503.39191	0.01499
2502.10614	0.01519
2500.82037	0.01498
2499.53460	0.01443
2498.24883	0.01396
2496.96306	0.01379
2495.67729	0.01384
2494.39152	0.01398
2493.10576	0.01415
2491.81999	0.01433
2490.53422	0.01440
2489.24845	0.01435
2487.96268	0.01428
2486.67691	0.01430
2485.39114	0.01440
2484.10537	0.01439
2482.81960	0.01413
2481.53384	0.01365
2480.24807	0.01320
2478.96230	0.01306
2477.67653	0.01319
2476.39076	0.01334
2475.10499	0.01332
2473.81922	0.01316
2472.53345	0.01305
2471.24769	0.01309
2469.96192	0.01331
2468.67615	0.01364
2467.39038	0.01407
2466.10461	0.01453
2464.81884	0.01489
2463.53307	0.01495
2462.24730	0.01469
2460.96153	0.01427
2459.67577	0.01393
2458.39000	0.01388
2457.10423	0.01413
2455.81846	0.01451
2454.53269	0.01474
2453.24692	0.01466
2451.96115	0.01440
2450.67538	0.01422
2449.38962	0.01422
2448.10385	0.01428
2446.81808	0.01427
2445.53231	0.01415
2444.24654	0.01399
2442.96077	0.01387
2441.67500	0.01381
2440.38923	0.01378
2439.10346	0.01371
2437.81770	0.01352
2436.53193	0.01317
2435.24616	0.01281
2433.96039	0.01273
2432.67462	0.01307
2431.38885	0.01360
2430.10308	0.01387
2428.81731	0.01366
2427.53155	0.01317
2426.24578	0.01282
2424.96001	0.01277
2423.67424	0.01291
2422.38847	0.01312
2421.10270	0.01338
2419.81693	0.01366
2418.53116	0.01382
2417.24539	0.01372
2415.95963	0.01336
2414.67386	0.01286
2413.38809	0.01249
2412.10232	0.01249
2410.81655	0.01292
2409.53078	0.01353
2408.24501	0.01400
2406.95924	0.01413
2405.67347	0.01392
2404.38771	0.01344
2403.10194	0.01287
2401.81617	0.01242
2400.53040	0.01232
2399.24463	0.01342
2397.95886	0.01436
2396.67309	0.01465
2395.38732	0.01450
2394.10156	0.01406
2392.81579	0.01340
2391.53002	0.01265
2390.24425	0.01194
2388.95848	0.01147
2387.67271	0.01137
2386.38694	0.01159
2385.10117	0.01187
2383.81540	0.01190
2382.52964	0.01157
2381.24387	0.01101
2379.95810	0.01035
2378.67233	0.00987
2377.38656	0.00979
2376.10079	0.00962
2374.81502	0.00926
2373.52925	0.00891
2372.24349	0.00839
2370.95772	0.00776
2369.67195	0.00634
2368.38618	0.00477
2367.10041	0.00459
2365.81464	0.00515
2364.52887	0.00427
2363.24310	0.00220
2361.95733	0.00086
2360.67157	0.00077
2359.38580	0.00095
2358.10003	0.00156
2356.81426	0.00225
2355.52849	0.00206
2354.24272	0.00160
2352.95695	0.00168
2351.67118	0.00375
2350.38542	0.00827
2349.09965	0.01105
2347.81388	0.00853
2346.52811	0.00417
2345.24234	0.00277
2343.95657	0.00405
2342.67080	0.00517
2341.38503	0.00589
2340.09926	0.00686
2338.81350	0.00745
2337.52773	0.00753
2336.24196	0.00675
2334.95619	0.00618
2333.67042	0.00662
2332.38465	0.00703
2331.09888	0.00744
2329.81311	0.00799
2328.52735	0.00795
2327.24158	0.00834
2325.95581	0.00948
2324.67004	0.01035
2323.38427	0.01110
2322.09850	0.01160
2320.81273	0.01119
2319.52696	0.01072
2318.24119	0.01077
2316.95543	0.01086
2315.66966	0.01077
2314.38389	0.01069
2313.09812	0.01089
2311.81235	0.01114
2310.52658	0.01139
2309.24081	0.01176
2307.95504	0.01208
2306.66928	0.01222
2305.38351	0.01223
2304.09774	0.01211
2302.81197	0.01183
2301.52620	0.01153
2300.24043	0.01138
2298.95466	0.01131
2297.66889	0.01123
2296.38312	0.01111
2295.09736	0.01101
2293.81159	0.01107
2292.52582	0.01127
2291.24005	0.01152
2289.95428	0.01178
2288.66851	0.01210
2287.38274	0.01251
2286.09697	0.01297
2284.81121	0.01338
2283.52544	0.01359
2282.23967	0.01352
2280.95390	0.01325
2279.66813	0.01290
2278.38236	0.01260
2277.09659	0.01237
2275.81082	0.01222
2274.52505	0.01207
2273.23929	0.01179
2271.95352	0.01142
2270.66775	0.01105
2269.38198	0.01074
2268.09621	0.01038
2266.81044	0.00986
2265.52467	0.00918
2264.23890	0.00849
2262.95314	0.00802
2261.66737	0.00786
2260.38160	0.00805
2259.09583	0.00863
2257.81006	0.00937
2256.52429	0.00993
2255.23852	0.00998
2253.95275	0.00947
2252.66698	0.00867
2251.38122	0.00796
2250.09545	0.00775
2248.80968	0.00808
2247.52391	0.00810
2246.23814	0.00813
2244.95237	0.00823
2243.66660	0.00834
2242.38083	0.00843
2241.09507	0.00852
2239.80930	0.00866
2238.52353	0.00877
2237.23776	0.00875
2235.95199	0.00852
2234.66622	0.00810
2233.38045	0.00763
2232.09468	0.00736
2230.80891	0.00746
2229.52315	0.00774
2228.23738	0.00782
2226.95161	0.00754
2225.66584	0.00712
2224.38007	0.00670
2223.09430	0.00611
2221.80853	0.00528
2220.52276	0.00451
2219.23700	0.00436
2217.95123	0.00503
2216.66546	0.00622
2215.37969	0.00723
2214.09392	0.00743
2212.80815	0.00667
2211.52238	0.00546
2210.23661	0.00465
2208.95084	0.00472
2207.66508	0.00540
2206.37931	0.00613
2205.09354	0.00655
2203.80777	0.00656
2202.52200	0.00613
2201.23623	0.00532
2199.95046	0.00438
2198.66469	0.00351
2197.37893	0.00283
2196.09316	0.00255
2194.80739	0.00300
2193.52162	0.00416
2192.23585	0.00530
2190.95008	0.00547
2189.66431	0.00437
2188.37854	0.00255
2187.09277	0.00080
2185.80701	-0.00044
2184.52124	-0.00107
2183.23547	-0.00113
2181.94970	-0.00082
2180.66393	-0.00057
2179.37816	-0.00072
2178.09239	-0.00123
2176.80662	-0.00176
2175.52085	-0.00193
2174.23509	-0.00160
2172.94932	-0.00088
2171.66355	-0.00018
2170.37778	0.00003
2169.09201	-0.00026
2167.80624	-0.00054
2166.52047	-0.00033
2165.23470	0.00009
2163.94894	-0.00005
2162.66317	-0.00112
2161.37740	-0.00270
2160.09163	-0.00408
2158.80586	-0.00496
2157.52009	-0.00531
2156.23432	-0.00503
2154.94855	-0.00407
2153.66278	-0.00274
2152.37702	-0.00159
2151.09125	-0.00074
2149.80548	0.00018
2148.51971	0.00137
2147.23394	0.00245
2145.94817	0.00293
2144.66240	0.00277
2143.37663	0.00236
2142.09087	0.00224
2140.80510	0.00265
2139.51933	0.00340
2138.23356	0.00389
2136.94779	0.00377
2135.66202	0.00327
2134.37625	0.00300
2133.09048	0.00319
2131.80471	0.00352
2130.51895	0.00357
2129.23318	0.00335
2127.94741	0.00314
2126.66164	0.00318
2125.37587	0.00344
2124.09010	0.00375
2122.80433	0.00400
2121.51856	0.00419
2120.23280	0.00444
2118.94703	0.00470
2117.66126	0.00480
2116.37549	0.00458
2115.08972	0.00417
2113.80395	0.00380
2112.51818	0.00350
2111.23241	0.00315
2109.94664	0.00275
2108.66088	0.00259
2107.37511	0.00300
2106.08934	0.00394
2104.80357	0.00506
2103.51780	0.00592
2102.23203	0.00633
2100.94626	0.00630
2099.66049	0.00643
2098.37473	0.00599
2097.08896	0.00532
2095.80319	0.00503
2094.51742	0.00530
2093.23165	0.00589
2091.94588	0.00640
2090.66011	0.00659
2089.37434	0.00653
2088.08857	0.00641
2086.80281	0.00629
2085.51704	0.00610
2084.23127	0.00572
2082.94550	0.00528
2081.65973	0.00505
2080.37396	0.00515
2079.08819	0.00544
2077.80242	0.00564
2076.51666	0.00556
2075.23089	0.00519
2073.94512	0.00463
2072.65935	0.00398
2071.37358	0.00333
2070.08781	0.00283
2068.80204	0.00268
2067.51627	0.00295
2066.23050	0.00344
2064.94474	0.00382
2063.65897	0.00398
2062.37320	0.00397
2061.08743	0.00390
2059.80166	0.00370
2058.51589	0.00325
2057.23012	0.00259
2055.94435	0.00196
2054.65859	0.00162
2053.37282	0.00166
2052.08705	0.00191
2050.80128	0.00214
2049.51551	0.00211
2048.22974	0.00161
2046.94397	0.00059
2045.65820	-0.00063
2044.37243	-0.00150
2043.08667	-0.00163
2041.80090	-0.00114
2040.51513	-0.00057
2039.22936	-0.00039
2037.94359	-0.00059
2036.65782	-0.00079
2035.37205	-0.00067
2034.08628	-0.00031
2032.80052	-0.00011
2031.51475	-0.00036
2030.22898	-0.00097
2028.94321	-0.00151
2027.65744	-0.00156
2026.37167	-0.00090
2025.08590	0.00020
2023.80013	0.00115
2022.51436	0.00148
2021.22860	0.00123
2019.94283	0.00080
2018.65706	0.00047
2017.37129	0.00021
2016.08552	-0.00008
2014.79975	-0.00027
2013.51398	-0.00008
2012.22821	0.00067
2010.94245	0.00166
2009.65668	0.00224
2008.37091	0.00199
2007.08514	0.00122
2005.79937	0.00060
2004.51360	0.00044
2003.22783	0.00055
2001.94206	0.00073
2000.65629	0.00118
1999.37053	0.00211
1998.08476	0.00334
1996.79899	0.00426
1995.51322	0.00444
1994.22745	0.00402
1992.94168	0.00343
1991.65591	0.00300
1990.37014	0.00279
1989.08438	0.00275
1987.79861	0.00278
1986.51284	0.00272
1985.22707	0.00247
1983.94130	0.00218
1982.65553	0.00216
1981.36976	0.00254
1980.08399	0.00314
1978.79822	0.00372
1977.51246	0.00413
1976.22669	0.00437
1974.94092	0.00453
1973.65515	0.00471
1972.36938	0.00491
1971.08361	0.00501
1969.79784	0.00490
1968.51207	0.00466
1967.22631	0.00449
1965.94054	0.00446
1964.65477	0.00439
1963.36900	0.00414
1962.08323	0.00384
1960.79746	0.00382
1959.51169	0.00412
1958.22592	0.00444
1956.94015	0.00460
1955.65439	0.00473
1954.36862	0.00506
1953.08285	0.00552
1951.79708	0.00590
1950.51131	0.00615
1949.22554	0.00632
1947.93977	0.00640
1946.65400	0.00629
1945.36823	0.00606
1944.08247	0.00600
1942.79670	0.00631
1941.51093	0.00694
1940.22516	0.00758
1938.93939	0.00798
1937.65362	0.00814
1936.36785	0.00816
1935.08208	0.00810
1933.79632	0.00797
1932.51055	0.00780
1931.22478	0.00759
1929.93901	0.00732
1928.65324	0.00701
1927.36747	0.00675
1926.08170	0.00663
1924.79593	0.00663
1923.51016	0.00667
1922.22440	0.00672
1920.93863	0.00678
1919.65286	0.00682
1918.36709	0.00679
1917.08132	0.00665
1915.79555	0.00646
1914.50978	0.00641
1913.22401	0.00657
1911.93825	0.00674
1910.65248	0.00667
1909.36671	0.00641
1908.08094	0.00627
1906.79517	0.00647
1905.50940	0.00694
1904.22363	0.00748
1902.93786	0.00794
1901.65209	0.00827
1900.36633	0.00849
1899.08056	0.00856
1897.79479	0.00848
1896.50902	0.00830
1895.22325	0.00811
1893.93748	0.00797
1892.65171	0.00793
1891.36594	0.00798
1890.08018	0.00815
1888.79441	0.00845
1887.50864	0.00881
1886.22287	0.00909
1884.93710	0.00913
1883.65133	0.00890
1882.36556	0.00847
1881.07979	0.00800
1879.79402	0.00765
1878.50826	0.00751
1877.22249	0.00759
1875.93672	0.00784
1874.65095	0.00818
1873.36518	0.00857
1872.07941	0.00898
1870.79364	0.00929
1869.50787	0.00939
1868.22211	0.00922
1866.93634	0.00888
1865.65057	0.00852
1864.36480	0.00830
1863.07903	0.00830
1861.79326	0.00847
1860.50749	0.00871
1859.22172	0.00887
1857.93595	0.00888
1856.65019	0.00875
1855.36442	0.00856
1854.07865	0.00839
1852.79288	0.00825
1851.50711	0.00814
1850.22134	0.00810
1848.93557	0.00822
1847.64980	0.00851
1846.36404	0.00878
1845.07827	0.00892
1843.79250	0.00897
1842.50673	0.00901
1841.22096	0.00902
1839.93519	0.00895
1838.64942	0.00884
1837.36365	0.00875
1836.07788	0.00872
1834.79212	0.00876
1833.50635	0.00887
1832.22058	0.00901
1830.93481	0.00915
1829.64904	0.00928
1828.36327	0.00935
1827.07750	0.00929
1825.79173	0.00911
1824.50597	0.00898
1823.22020	0.00901
1821.93443	0.00915
1820.64866	0.00926
1819.36289	0.00922
1818.07712	0.00904
1816.79135	0.00886
1815.50558	0.00884
1814.21981	0.00898
1812.93405	0.00915
1811.64828	0.00924
1810.36251	0.00924
1809.07674	0.00922
1807.79097	0.00919
1806.50520	0.00916
1805.21943	0.00915
1803.93366	0.00917
1802.64790	0.00923
1801.36213	0.00931
1800.07636	0.00941
1798.79059	0.00952
1797.50482	0.00971
1796.21905	0.00999
1794.93328	0.01028
1793.64751	0.01045
1792.36174	0.01049
1791.07598	0.01044
1789.79021	0.01028
1788.50444	0.01003
1787.21867	0.00978
1785.93290	0.00967
1784.64713	0.00975
1783.36136	0.00998
1782.07559	0.01021
1780.78983	0.01038
1779.50406	0.01050
1778.21829	0.01066
1776.93252	0.01091
1775.64675	0.01119
1774.36098	0.01138
1773.07521	0.01141
1771.78944	0.01137
1770.50367	0.01129
1769.21791	0.01116
1767.93214	0.01105
1766.64637	0.01103
1765.36060	0.01104
1764.07483	0.01099
1762.78906	0.01097
1761.50329	0.01113
1760.21752	0.01141
1758.93176	0.01161
1757.64599	0.01162
1756.36022	0.01158
1755.07445	0.01161
1753.78868	0.01167
1752.50291	0.01166
1751.21714	0.01161
1749.93137	0.01155
1748.64560	0.01144
1747.35984	0.01131
1746.07407	0.01122
1744.78830	0.01123
1743.50253	0.01134
1742.21676	0.01149
1740.93099	0.01162
1739.64522	0.01181
1738.35945	0.01215
1737.07369	0.01251
1735.78792	0.01272
1734.50215	0.01282
1733.21638	0.01293
1731.93061	0.01293
1730.64484	0.01267
1729.35907	0.01230
1728.07330	0.01209
1726.78753	0.01214
1725.50177	0.01232
1724.21600	0.01254
1722.93023	0.01279
1721.64446	0.01312
1720.35869	0.01349
1719.07292	0.01383
1717.78715	0.01417
1716.50138	0.01448
1715.21561	0.01465
1713.92985	0.01461
1712.64408	0.01449
1711.35831	0.01447
1710.07254	0.01461
1708.78677	0.01488
1707.50100	0.01519
1706.21523	0.01554
1704.92946	0.01605
1703.64370	0.01668
1702.35793	0.01719
1701.07216	0.01757
1699.78639	0.01799
1698.50062	0.01833
1697.21485	0.01828
1695.92908	0.01797
1694.64331	0.01782
1693.35754	0.01788
1692.07178	0.01794
1690.78601	0.01808
1689.50024	0.01849
1688.21447	0.01915
1686.92870	0.01975
1685.64293	0.02012
1684.35716	0.02034
1683.07139	0.02046
1681.78563	0.02040
1680.49986	0.02022
1679.21409	0.02021
1677.92832	0.02047
1676.64255	0.02083
1675.35678	0.02121
1674.07101	0.02166
1672.78524	0.02212
1671.49947	0.02246
1670.21371	0.02270
1668.92794	0.02292
1667.64217	0.02314
1666.35640	0.02332
1665.07063	0.02346
1663.78486	0.02360
1662.49909	0.02381
1661.21332	0.02402
1659.92756	0.02423
1658.64179	0.02458
1657.35602	0.02524
1656.07025	0.02604
1654.78448	0.02664
1653.49871	0.02694
1652.21294	0.02715
1650.92717	0.02728
1649.64140	0.02718
1648.35564	0.02689
1647.06987	0.02664
1645.78410	0.02654
1644.49833	0.02647
1643.21256	0.02636
1641.92679	0.02630
1640.64102	0.02643
1639.35525	0.02679
1638.06949	0.02716
1636.78372	0.02737
1635.49795	0.02743
1634.21218	0.02741
1632.92641	0.02730
1631.64064	0.02713
1630.35487	0.02703
1629.06910	0.02708
1627.78333	0.02729
1626.49757	0.02754
1625.21180	0.02772
1623.92603	0.02780
1622.64026	0.02788
1621.35449	0.02805
1620.06872	0.02824
1618.78295	0.02836
1617.49718	0.02841
1616.21142	0.02848
1614.92565	0.02852
1613.63988	0.02843
1612.35411	0.02829
1611.06834	0.02829
1609.78257	0.02848
1608.49680	0.02876
1607.21103	0.02901
1605.92526	0.02919
1604.63950	0.02931
1603.35373	0.02940
1602.06796	0.02950
1600.78219	0.02963
1599.49642	0.02980
1598.21065	0.02998
1596.92488	0.03013
1595.63911	0.03025
1594.35335	0.03036
1593.06758	0.03049
1591.78181	0.03065
1590.49604	0.03084
1589.21027	0.03104
1587.92450	0.03126
1586.63873	0.03147
1585.35296	0.03164
1584.06719	0.03177
1582.78143	0.03192
1581.49566	0.03221
1580.20989	0.03265
1578.92412	0.03311
1577.63835	0.03340
1576.35258	0.03355
1575.06681	0.03372
1573.78104	0.03391
1572.49528	0.03399
1571.20951	0.03403
1569.92374	0.03412
1568.63797	0.03429
1567.35220	0.03440
1566.06643	0.03443
1564.78066	0.03459
1563.49489	0.03502
1562.20912	0.03557
1560.92336	0.03604
1559.63759	0.03640
1558.35182	0.03676
1557.06605	0.03695
1555.78028	0.03673
1554.49451	0.03627
1553.20874	0.03589
1551.92297	0.03572
1550.63721	0.03567
1549.35144	0.03573
1548.06567	0.03590
1546.77990	0.03616
1545.49413	0.03649
1544.20836	0.03693
1542.92259	0.03737
1541.63682	0.03761
1540.35105	0.03757
1539.06529	0.03739
1537.77952	0.03718
1536.49375	0.03691
1535.20798	0.03662
1533.92221	0.03649
1532.63644	0.03664
1531.35067	0.03697
1530.06490	0.03734
1528.77914	0.03776
1527.49337	0.03830
1526.20760	0.03898
1524.92183	0.03976
1523.63606	0.04054
1522.35029	0.04129
1521.06452	0.04210
1519.77875	0.04294
1518.49298	0.04369
1517.20722	0.04434
1515.92145	0.04508
1514.63568	0.04598
1513.34991	0.04700
1512.06414	0.04816
1510.77837	0.04955
1509.49260	0.05105
1508.20683	0.05246
1506.92107	0.05369
1505.63530	0.05477
1504.34953	0.05567
1503.06376	0.05638
1501.77799	0.05707
1500.49222	0.05794
1499.20645	0.05894
1497.92068	0.05988
1496.63491	0.06067
1495.34915	0.06140
1494.06338	0.06212
1492.77761	0.06283
1491.49184	0.06357
1490.20607	0.06438
1488.92030	0.06521
1487.63453	0.06599
1486.34876	0.06675
1485.06299	0.06758
1483.77723	0.06852
1482.49146	0.06955
1481.20569	0.07066
1479.91992	0.07179
1478.63415	0.07290
1477.34838	0.07395
1476.06261	0.07496
1474.77684	0.07586
1473.49108	0.07659
1472.20531	0.07716
1470.91954	0.07758
1469.63377	0.07784
1468.34800	0.07794
1467.06223	0.07793
1465.77646	0.07787
1464.49069	0.07786
1463.20492	0.07798
1461.91916	0.07830
1460.63339	0.07881
1459.34762	0.07939
1458.06185	0.07996
1456.77608	0.08053
1455.49031	0.08111
1454.20454	0.08154
1452.91877	0.08181
1451.63301	0.08207
1450.34724	0.08242
1449.06147	0.08276
1447.77570	0.08297
1446.48993	0.08300
1445.20416	0.08287
1443.91839	0.08265
1442.63262	0.08246
1441.34685	0.08235
1440.06109	0.08232
1438.77532	0.08226
1437.48955	0.08220
1436.20378	0.08224
1434.91801	0.08238
1433.63224	0.08257
1432.34647	0.08287
1431.06070	0.08345
1429.77494	0.08436
1428.48917	0.08548
1427.20340	0.08668
1425.91763	0.08788
1424.63186	0.08914
1423.34609	0.09051
1422.06032	0.09190
1420.77455	0.09315
1419.48878	0.09423
1418.20302	0.09512
1416.91725	0.09573
1415.63148	0.09602
1414.34571	0.09606
1413.05994	0.09598
1411.77417	0.09578
1410.48840	0.09543
1409.20263	0.09491
1407.91687	0.09420
1406.63110	0.09328
1405.34533	0.09219
1404.05956	0.09096
1402.77379	0.08962
1401.48802	0.08810
1400.20225	0.08642
1398.91648	0.08464
1397.63071	0.08281
1396.34495	0.08087
1395.05918	0.07884
1393.77341	0.07678
1392.48764	0.07473
1391.20187	0.07269
1389.91610	0.07066
1388.63033	0.06865
1387.34456	0.06670
1386.05880	0.06480
1384.77303	0.06293
1383.48726	0.06109
1382.20149	0.05930
1380.91572	0.05755
1379.62995	0.05577
1378.34418	0.05391
1377.05841	0.05199
1375.77264	0.05006
1374.48688	0.04817
1373.20111	0.04636
1371.91534	0.04463
1370.62957	0.04296
1369.34380	0.04141
1368.05803	0.04002
1366.77226	0.03879
1365.48649	0.03763
1364.20073	0.03646
1362.91496	0.03529
1361.62919	0.03417
1360.34342	0.03316
1359.05765	0.03223
1357.77188	0.03136
1356.48611	0.03054
1355.20034	0.02974
1353.91457	0.02896
1352.62881	0.02820
1351.34304	0.02748
1350.05727	0.02684
1348.77150	0.02627
1347.48573	0.02573
1346.19996	0.02522
1344.91419	0.02476
1343.62842	0.02437
1342.34266	0.02402
1341.05689	0.02369
1339.77112	0.02335
1338.48535	0.02300
1337.19958	0.02265
1335.91381	0.02231
1334.62804	0.02199
1333.34227	0.02170
1332.05650	0.02145
1330.77074	0.02123
1329.48497	0.02104
1328.19920	0.02085
1326.91343	0.02063
1325.62766	0.02036
1324.34189	0.02008
1323.05612	0.01984
1321.77035	0.01964
1320.48459	0.01949
1319.19882	0.01932
1317.91305	0.01911
1316.62728	0.01888
1315.34151	0.01869
1314.05574	0.01855
1312.76997	0.01847
1311.48420	0.01841
1310.19843	0.01832
1308.91267	0.01819
1307.62690	0.01803
1306.34113	0.01785
1305.05536	0.01767
1303.76959	0.01750
1302.48382	0.01738
1301.19805	0.01728
1299.91228	0.01717
1298.62652	0.01705
1297.34075	0.01693
1296.05498	0.01682
1294.76921	0.01675
1293.48344	0.01669
1292.19767	0.01662
1290.91190	0.01654
1289.62613	0.01645
1288.34036	0.01637
1287.05460	0.01631
1285.76883	0.01625
1284.48306	0.01617
1283.19729	0.01607
1281.91152	0.01595
1280.62575	0.01585
1279.33998	0.01574
1278.05421	0.01564
1276.76845	0.01552
1275.48268	0.01539
1274.19691	0.01527
1272.91114	0.01520
1271.62537	0.01519
1270.33960	0.01523
1269.05383	0.01526
1267.76806	0.01526
1266.48229	0.01522
1265.19653	0.01518
1263.91076	0.01513
1262.62499	0.01508
1261.33922	0.01503
1260.05345	0.01497
1258.76768	0.01489
1257.48191	0.01483
1256.19614	0.01479
1254.91037	0.01482
1253.62461	0.01489
1252.33884	0.01496
1251.05307	0.01499
1249.76730	0.01500
1248.48153	0.01498
1247.19576	0.01493
1245.90999	0.01483
1244.62422	0.01473
1243.33846	0.01468
1242.05269	0.01472
1240.76692	0.01482
1239.48115	0.01492
1238.19538	0.01499
1236.90961	0.01501
1235.62384	0.01503
1234.33807	0.01504
1233.05230	0.01507
1231.76654	0.01511
1230.48077	0.01518
1229.19500	0.01529
1227.90923	0.01545
1226.62346	0.01560
1225.33769	0.01572
1224.05192	0.01581
1222.76615	0.01591
1221.48039	0.01603
1220.19462	0.01616
1218.90885	0.01630
1217.62308	0.01644
1216.33731	0.01659
1215.05154	0.01678
1213.76577	0.01700
1212.48000	0.01724
1211.19423	0.01745
1209.90847	0.01766
1208.62270	0.01787
1207.33693	0.01809
1206.05116	0.01829
1204.76539	0.01845
1203.47962	0.01858
1202.19385	0.01873
1200.90808	0.01889
1199.62232	0.01904
1198.33655	0.01931
1197.05078	0.01958
1195.76501	0.01982
1194.47924	0.02004
1193.19347	0.02021
1191.90770	0.02035
1190.62193	0.02048
1189.33616	0.02061
1188.05040	0.02077
1186.76463	0.02096
1185.47886	0.02115
1184.19309	0.02135
1182.90732	0.02153
1181.62155	0.02169
1180.33578	0.02180
1179.05001	0.02186
1177.76425	0.02192
1176.47848	0.02202
1175.19271	0.02222
1173.90694	0.02249
1172.62117	0.02275
1171.33540	0.02293
1170.04963	0.02301
1168.76386	0.02306
1167.47809	0.02319
1166.19233	0.02349
1164.90656	0.02388
1163.62079	0.02425
1162.33502	0.02454
1161.04925	0.02473
1159.76348	0.02491
1158.47771	0.02517
1157.19194	0.02551
1155.90618	0.02588
1154.62041	0.02621
1153.33464	0.02652
1152.04887	0.02687
1150.76310	0.02731
1149.47733	0.02780
1148.19156	0.02828
1146.90579	0.02870
1145.62002	0.02911
1144.33426	0.02961
1143.04849	0.03026
1141.76272	0.03105
1140.47695	0.03190
1139.19118	0.03275
1137.90541	0.03362
1136.61964	0.03458
1135.33387	0.03564
1134.04811	0.03680
1132.76234	0.03810
1131.47657	0.03961
1130.19080	0.04140
1128.90503	0.04342
1127.61926	0.04559
1126.33349	0.04785
1125.04772	0.05023
1123.76195	0.05277
1122.47619	0.05546
1121.19042	0.05824
1119.90465	0.06107
1118.61888	0.06391
1117.33311	0.06678
1116.04734	0.06973
1114.76157	0.07277
1113.47580	0.07586
1112.19004	0.07891
1110.90427	0.08182
1109.61850	0.08457
1108.33273	0.08717
1107.04696	0.08972
1105.76119	0.09227
1104.47542	0.09484
1103.18965	0.09737
1101.90388	0.09983
1100.61812	0.10221
1099.33235	0.10451
1098.04658	0.10674
1096.76081	0.10889
1095.47504	0.11096
1094.18927	0.11297
1092.90350	0.11488
1091.61773	0.11672
1090.33197	0.11850
1089.04620	0.12023
1087.76043	0.12190
1086.47466	0.12352
1085.18889	0.12517
1083.90312	0.12689
1082.61735	0.12866
1081.33158	0.13046
1080.04581	0.13234
1078.76005	0.13436
1077.47428	0.13653
1076.18851	0.13877
1074.90274	0.14106
1073.61697	0.14347
1072.33120	0.14612
1071.04543	0.14902
1069.75966	0.15205
1068.47390	0.15506
1067.18813	0.15799
1065.90236	0.16090
1064.61659	0.16385
1063.33082	0.16688
1062.04505	0.16996
1060.75928	0.17306
1059.47351	0.17616
1058.18774	0.17929
1056.90198	0.18240
1055.61621	0.18542
1054.33044	0.18830
1053.04467	0.19108
1051.75890	0.19386
1050.47313	0.19669
1049.18736	0.19959
1047.90159	0.20259
1046.61583	0.20570
1045.33006	0.20891
1044.04429	0.21218
1042.75852	0.21546
1041.47275	0.21870
1040.18698	0.22191
1038.90121	0.22512
1037.61544	0.22839
1036.32967	0.23173
1035.04391	0.23505
1033.75814	0.23820
1032.47237	0.24106
1031.18660	0.24360
1029.90083	0.24584
1028.61506	0.24777
1027.32929	0.24937
1026.04352	0.25062
1024.75775	0.25152
1023.47199	0.25210
1022.18622	0.25237
1020.90045	0.25225
1019.61468	0.25166
1018.32891	0.25055
1017.04314	0.24888
1015.75737	0.24665
1014.47160	0.24386
1013.18584	0.24053
1011.90007	0.23672
1010.61430	0.23249
1009.32853	0.22787
1008.04276	0.22282
1006.75699	0.21729
1005.47122	0.21127
1004.18545	0.20482
1002.89968	0.19804
1001.61392	0.19103
1000.32815	0.18392
999.04238	0.17679
997.75661	0.16964
996.47084	0.16245
995.18507	0.15523
993.89930	0.14811
992.61353	0.14127
991.32777	0.13479
990.04200	0.12866
988.75623	0.12284
987.47046	0.11732
986.18469	0.11208
984.89892	0.10707
983.61315	0.10226
982.32738	0.09767
981.04161	0.09344
979.75585	0.08965
978.47008	0.08626
977.18431	0.08323
975.89854	0.08051
974.61277	0.07813
973.32700	0.07615
972.04123	0.07463
970.75546	0.07363
969.46970	0.07323
968.18393	0.07345
966.89816	0.07419
965.61239	0.07523
964.32662	0.07635
963.04085	0.07737
961.75508	0.07813
960.46931	0.07847
959.18354	0.07819
957.89778	0.07719
956.61201	0.07549
955.32624	0.07330
954.04047	0.07087
952.75470	0.06840
951.46893	0.06599
950.18316	0.06366
948.89739	0.06144
947.61163	0.05932
946.32586	0.05728
945.04009	0.05530
943.75432	0.05332
942.46855	0.05142
941.18278	0.04970
939.89701	0.04821
938.61124	0.04689
937.32547	0.04564
936.03971	0.04442
934.75394	0.04330
933.46817	0.04233
932.18240	0.04146
930.89663	0.04060
929.61086	0.03973
928.32509	0.03895
927.03932	0.03829
925.75356	0.03772
924.46779	0.03716
923.18202	0.03657
921.89625	0.03600
920.61048	0.03547
919.32471	0.03499
918.03894	0.03456
916.75317	0.03416
915.46740	0.03378
914.18164	0.03339
912.89587	0.03300
911.61010	0.03257
910.32433	0.03213
909.03856	0.03168
907.75279	0.03129
906.46702	0.03101
905.18125	0.03086
903.89549	0.03082
902.60972	0.03079
901.32395	0.03070
900.03818	0.03052
898.75241	0.03032
897.46664	0.03013
896.18087	0.02994
894.89510	0.02972
893.60933	0.02949
892.32357	0.02939
891.03780	0.02955
889.75203	0.03008
888.46626	0.03097
887.18049	0.03219
885.89472	0.03380
884.60895	0.03593
883.32318	0.03860
882.03742	0.04164
880.75165	0.04461
879.46588	0.04712
878.18011	0.04909
876.89434	0.05079
875.60857	0.05253
874.32280	0.05428
873.03703	0.05565
871.75126	0.05616
870.46550	0.05561
869.17973	0.05414
867.89396	0.05196
866.60819	0.04932
865.32242	0.04643
864.03665	0.04358
862.75088	0.04103
861.46511	0.03888
860.17935	0.03711
858.89358	0.03566
857.60781	0.03449
856.32204	0.03357
855.03627	0.03280
853.75050	0.03213
852.46473	0.03155
851.17896	0.03104
849.89319	0.03064
848.60743	0.03030
847.32166	0.03001
846.03589	0.02974
844.75012	0.02950
843.46435	0.02928
842.17858	0.02905
840.89281	0.02881
839.60704	0.02855
838.32128	0.02827
837.03551	0.02802
835.74974	0.02781
834.46397	0.02768
833.17820	0.02762
831.89243	0.02756
830.60666	0.02750
829.32089	0.02744
828.03512	0.02742
826.74936	0.02743
825.46359	0.02744
824.17782	0.02742
822.89205	0.02738
821.60628	0.02738
820.32051	0.02740
819.03474	0.02739
817.74897	0.02728
816.46321	0.02704
815.17744	0.02675
813.89167	0.02652
812.60590	0.02642
811.32013	0.02646
810.03436	0.02655
808.74859	0.02658
807.46282	0.02656
806.17705	0.02655
804.89129	0.02661
803.60552	0.02667
802.31975	0.02662
801.03398	0.02649
799.74821	0.02639
798.46244	0.02637
797.17667	0.02643
795.89090	0.02652
794.60513	0.02658
793.31937	0.02661
792.03360	0.02661
790.74783	0.02658
789.46206	0.02654
788.17629	0.02652
786.89052	0.02655
785.60475	0.02663
784.31898	0.02671
783.03322	0.02673
781.74745	0.02667
780.46168	0.02655
779.17591	0.02636
777.89014	0.02614
776.60437	0.02596
775.31860	0.02591
774.03283	0.02601
772.74706	0.02618
771.46130	0.02630
770.17553	0.02638
768.88976	0.02648
767.60399	0.02662
766.31822	0.02672
765.03245	0.02674
763.74668	0.02667
762.46091	0.02658
761.17515	0.02656
759.88938	0.02664
758.60361	0.02681
757.31784	0.02700
756.03207	0.02713
754.74630	0.02717
753.46053	0.02715
752.17476	0.02713
750.88899	0.02715
749.60323	0.02721
748.31746	0.02727
747.03169	0.02729
745.74592	0.02725
744.46015	0.02718
743.17438	0.02711
741.88861	0.02703
740.60284	0.02693
739.31708	0.02679
738.03131	0.02666
736.74554	0.02661
735.45977	0.02663
734.17400	0.02669
732.88823	0.02674
731.60246	0.02680
730.31669	0.02692
729.03092	0.02710
727.74516	0.02728
726.45939	0.02741
725.17362	0.02744
723.88785	0.02736
722.60208	0.02752
721.31631	0.02777
720.03054	0.02810
718.74477	0.02850
717.45901	0.02864
716.17324	0.02857
714.88747	0.02841
713.60170	0.02823
712.31593	0.02805
711.03016	0.02789
709.74439	0.02773
708.45862	0.02760
707.17285	0.02749
705.88709	0.02740
704.60132	0.02735
703.31555	0.02732
702.02978	0.02733
700.74401	0.02738
699.45824	0.02747
698.17247	0.02759
696.88670	0.02773
695.60094	0.02790
694.31517	0.02811
693.02940	0.02830
691.74363	0.02843
690.45786	0.02849
689.17209	0.02851
687.88632	0.02848
686.60055	0.02838
685.31478	0.02819
684.02902	0.02798
682.74325	0.02782
681.45748	0.02776
680.17171	0.02777
678.88594	0.02778
677.60017	0.02775
676.31440	0.02769
675.02863	0.02776
673.74287	0.02836
672.45710	0.02992
671.17133	0.03169
669.88556	0.03114
668.59979	0.02802
667.31402	0.02824
666.02825	0.03101
664.74248	0.03106
663.45671	0.02943
662.17095	0.02834
660.88518	0.02808
659.59941	0.02824
658.31364	0.02851
657.02787	0.02876
655.74210	0.02897
654.45633	0.02916
653.17056	0.02932
651.88480	0.02946
650.59903	0.02959
649.31326	0.02969
648.02749	0.02982
646.74172	0.02993
645.45595	0.02998
644.17018	0.03004
642.88441	0.03012
641.59864	0.03024
640.31288	0.03040
639.02711	0.03060
637.74134	0.03084
636.45557	0.03112
635.16980	0.03141
633.88403	0.03171
632.59826	0.03209
631.31249	0.03271
630.02673	0.03373
628.74096	0.03470
627.45519	0.03498
626.16942	0.03708
624.88365	0.04029
623.59788	0.04346
622.31211	0.04629
621.02634	0.04883
619.74057	0.05090
618.45481	0.05240
617.16904	0.05377
615.88327	0.05562
614.59750	0.05823
613.31173	0.06149
612.02596	0.06530
610.74019	0.06970
609.45442	0.07465
608.16866	0.07989
606.88289	0.08510
605.59712	0.08996
604.31135	0.09400
603.02558	0.09666
601.73981	0.09761
600.45404	0.09692
599.16827	0.09491
597.88250	0.09206
596.59674	0.08881
595.31097	0.08554
594.02520	0.08254
592.73943	0.08005
591.45366	0.07820
590.16789	0.07704
588.88212	0.07656
587.59635	0.07674
586.31059	0.07757
585.02482	0.07901
583.73905	0.08096
582.45328	0.08326
581.16751	0.08576
579.88174	0.08835
578.59597	0.09097
577.31020	0.09353
576.02443	0.09595
574.73867	0.09821
573.45290	0.10041
572.16713	0.10266
570.88136	0.10514
569.59559	0.10796
568.30982	0.11123
567.02405	0.11484
565.73828	0.11843
564.45251	0.12146
563.16675	0.12341
561.88098	0.12387
560.59521	0.12260
559.30944	0.11953
558.02367	0.11488
556.73790	0.10913
555.45213	0.10278
554.16636	0.09628
552.88060	0.08996
551.59483	0.08406
550.30906	0.07869
549.02329	0.07387
547.73752	0.06959
546.45175	0.06580
545.16598	0.06237
543.88021	0.05919
542.59444	0.05629
541.30868	0.05376
540.02291	0.05170
538.73714	0.05004
537.45137	0.04859
536.16560	0.04718
534.87983	0.04577
533.59406	0.04442
532.30829	0.04317
531.02253	0.04200
529.73676	0.04090
528.45099	0.03988
527.16522	0.03895
525.87945	0.03812
524.59368	0.03737
523.30791	0.03666
522.02214	0.03596
520.73637	0.03529
519.45061	0.03467
518.16484	0.03412
516.87907	0.03361
515.59330	0.03311
514.30753	0.03258
513.02176	0.03206
511.73599	0.03157
510.45022	0.03111
509.16446	0.03065
507.87869	0.03018
506.59292	0.02971
505.30715	0.02924
504.02138	0.02880
502.73561	0.02838
501.44984	0.02802
500.16407	0.02772
498.87830	0.02749
497.59254	0.02729
496.30677	0.02706
495.02100	0.02681
493.73523	0.02659
492.44946	0.02646
491.16369	0.02640
489.87792	0.02630
488.59215	0.02612
487.30639	0.02590
486.02062	0.02568
484.73485	0.02553
483.44908	0.02546
482.16331	0.02548
480.87754	0.02558
479.59177	0.02571
478.30600	0.02584
477.02023	0.02596
475.73447	0.02611
474.44870	0.02632
473.16293	0.02660
471.87716	0.02688
470.59139	0.02704
469.30562	0.02704
468.01985	0.02693
466.73408	0.02680
465.44832	0.02667
464.16255	0.02649
462.87678	0.02623
461.59101	0.02589
460.30524	0.02553
459.01947	0.02523
457.73370	0.02500
456.44793	0.02478
455.16216	0.02448
453.87640	0.02411
452.59063	0.02375
451.30486	0.02347
450.01909	0.02325
448.73332	0.02300
447.44755	0.02270
446.16178	0.02237
444.87601	0.02207
443.59025	0.02189
442.30448	0.02184
441.01871	0.02188
439.73294	0.02191
438.44717	0.02187
437.16140	0.02177
435.87563	0.02166
434.58986	0.02156
433.30409	0.02149
432.01833	0.02143
430.73256	0.02138
429.44679	0.02131
428.16102	0.02119
426.87525	0.02101
425.58948	0.02081
424.30371	0.02067
423.01794	0.02060
421.73218	0.02053
420.44641	0.02041
419.16064	0.02028
417.87487	0.02019
416.58910	0.02012
415.30333	0.02002
414.01756	0.01987
412.73179	0.01972
411.44602	0.01960
410.16026	0.01954
408.87449	0.01957
407.58872	0.01967
406.30295	0.01984
405.01718	0.02001
403.73141	0.02013
402.44564	0.02020
401.15987	0.02027
399.87411	0.02035
