3997.45528	0.05232
3996.16951	0.05188
3994.88374	0.05151
3993.59798	0.05151
3992.31221	0.05210
3991.02644	0.05305
3989.74067	0.05387
3988.45490	0.05420
3987.16913	0.05411
3985.88336	0.05375
3984.59759	0.05311
3983.31183	0.05214
3982.02606	0.05110
3980.74029	0.05043
3979.45452	0.05042
3978.16875	0.05092
3976.88298	0.05144
3975.59721	0.05162
3974.31144	0.05148
3973.02567	0.05132
3971.73991	0.05136
3970.45414	0.05156
3969.16837	0.05179
3967.88260	0.05188
3966.59683	0.05170
3965.31106	0.05124
3964.02529	0.05063
3962.73952	0.05012
3961.45376	0.04975
3960.16799	0.04933
3958.88222	0.04872
3957.59645	0.04804
3956.31068	0.04755
3955.02491	0.04752
3953.73914	0.04803
3952.45337	0.04896
3951.16760	0.04987
3949.88184	0.05029
3948.59607	0.05009
3947.31030	0.04957
3946.02453	0.04904
3944.73876	0.04852
3943.45299	0.04796
3942.16722	0.04744
3940.88145	0.04714
3939.59569	0.04710
3938.30992	0.04719
3937.02415	0.04728
3935.73838	0.04737
3934.45261	0.04759
3933.16684	0.04805
3931.88107	0.04867
3930.59530	0.04925
3929.30953	0.04973
3928.02377	0.05013
3926.73800	0.05042
3925.45223	0.05038
3924.16646	0.04997
3922.88069	0.04942
3921.59492	0.04905
3920.30915	0.04893
3919.02338	0.04893
3917.73762	0.04882
3916.45185	0.04849
3915.16608	0.04809
3913.88031	0.04792
3912.59454	0.04813
3911.30877	0.04852
3910.02300	0.04882
3908.73723	0.04904
3907.45146	0.04933
3906.16570	0.04979
3904.87993	0.05031
3903.59416	0.05082
3902.30839	0.05127
3901.02262	0.05159
3899.73685	0.05164
3898.45108	0.05126
3897.16531	0.05043
3895.87955	0.04935
3894.59378	0.04842
3893.30801	0.04792
3892.02224	0.04780
3890.73647	0.04775
3889.45070	0.04754
3888.16493	0.04724
3886.87916	0.04710
3885.59339	0.04732
3884.30763	0.04791
3883.02186	0.04867
3881.73609	0.04931
3880.45032	0.04958
3879.16455	0.04940
3877.87878	0.04885
3876.59301	0.04822
3875.30724	0.04782
3874.02148	0.04779
3872.73571	0.04793
3871.44994	0.04795
3870.16417	0.04777
3868.87840	0.04754
3867.59263	0.04740
3866.30686	0.04734
3865.02109	0.04730
3863.73532	0.04740
3862.44956	0.04767
3861.16379	0.04798
3859.87802	0.04811
3858.59225	0.04801
3857.30648	0.04789
3856.02071	0.04790
3854.73494	0.04799
3853.44917	0.04801
3852.16341	0.04789
3850.87764	0.04774
3849.59187	0.04767
3848.30610	0.04767
3847.02033	0.04760
3845.73456	0.04741
3844.44879	0.04714
3843.16302	0.04691
3841.87725	0.04682
3840.59149	0.04685
3839.30572	0.04695
3838.01995	0.04696
3836.73418	0.04681
3835.44841	0.04662
3834.16264	0.04662
3832.87687	0.04697
3831.59110	0.04757
3830.30534	0.04810
3829.01957	0.04831
3827.73380	0.04823
3826.44803	0.04807
3825.16226	0.04805
3823.87649	0.04826
3822.59072	0.04863
3821.30495	0.04890
3820.01918	0.04881
3818.73342	0.04835
3817.44765	0.04779
3816.16188	0.04751
3814.87611	0.04760
3813.59034	0.04782
3812.30457	0.04781
3811.01880	0.04727
3809.73303	0.04624
3808.44726	0.04502
3807.16150	0.04407
3805.87573	0.04377
3804.58996	0.04425
3803.30419	0.04529
3802.01842	0.04648
3800.73265	0.04734
3799.44688	0.04762
3798.16111	0.04744
3796.87535	0.04717
3795.58958	0.04717
3794.30381	0.04749
3793.01804	0.04787
3791.73227	0.04795
3790.44650	0.04752
3789.16073	0.04667
3787.87496	0.04568
3786.58919	0.04492
3785.30343	0.04456
3784.01766	0.04465
3782.73189	0.04505
3781.44612	0.04559
3780.16035	0.04600
3778.87458	0.04602
3777.58881	0.04558
3776.30304	0.04482
3775.01728	0.04401
3773.73151	0.04340
3772.44574	0.04311
3771.15997	0.04313
3769.87420	0.04331
3768.58843	0.04348
3767.30266	0.04364
3766.01689	0.04383
3764.73112	0.04405
3763.44536	0.04419
3762.15959	0.04416
3760.87382	0.04395
3759.58805	0.04361
3758.30228	0.04330
3757.01651	0.04320
3755.73074	0.04335
3754.44497	0.04351
3753.15921	0.04338
3751.87344	0.04299
3750.58767	0.04269
3749.30190	0.04282
3748.01613	0.04330
3746.73036	0.04376
3745.44459	0.04391
3744.15882	0.04390
3742.87305	0.04409
3741.58729	0.04469
3740.30152	0.04548
3739.01575	0.04601
3737.72998	0.04606
3736.44421	0.04582
3735.15844	0.04562
3733.87267	0.04555
3732.58690	0.04547
3731.30114	0.04519
3730.01537	0.04470
3728.72960	0.04414
3727.44383	0.04365
3726.15806	0.04321
3724.87229	0.04280
3723.58652	0.04243
3722.30075	0.04221
3721.01498	0.04216
3719.72922	0.04215
3718.44345	0.04209
3717.15768	0.04214
3715.87191	0.04248
3714.58614	0.04307
3713.30037	0.04364
3712.01460	0.04400
3710.72883	0.04414
3709.44307	0.04410
3708.15730	0.04390
3706.87153	0.04353
3705.58576	0.04295
3704.29999	0.04225
3703.01422	0.04164
3701.72845	0.04133
3700.44268	0.04127
3699.15691	0.04118
3697.87115	0.04093
3696.58538	0.04073
3695.29961	0.04082
3694.01384	0.04119
3692.72807	0.04166
3691.44230	0.04211
3690.15653	0.04256
3688.87076	0.04296
3687.58500	0.04315
3686.29923	0.04308
3685.01346	0.04285
3683.72769	0.04265
3682.44192	0.04257
3681.15615	0.04257
3679.87038	0.04258
3678.58461	0.04255
3677.29884	0.04249
3676.01308	0.04247
3674.72731	0.04260
3673.44154	0.04305
3672.15577	0.04387
3670.87000	0.04492
3669.58423	0.04579
3668.29846	0.04611
3667.01269	0.04580
3665.72693	0.04516
3664.44116	0.04456
3663.15539	0.04421
3661.86962	0.04411
3660.58385	0.04418
3659.29808	0.04419
3658.01231	0.04392
3656.72654	0.04342
3655.44077	0.04304
3654.15501	0.04310
3652.86924	0.04354
3651.58347	0.04406
3650.29770	0.04439
3649.01193	0.04453
3647.72616	0.04456
3646.44039	0.04462
3645.15462	0.04477
3643.86886	0.04505
3642.58309	0.04539
3641.29732	0.04571
3640.01155	0.04588
3638.72578	0.04585
3637.44001	0.04555
3636.15424	0.04506
3634.86847	0.04467
3633.58270	0.04480
3632.29694	0.04560
3631.01117	0.04682
3629.72540	0.04795
3628.43963	0.04862
3627.15386	0.04878
3625.86809	0.04863
3624.58232	0.04840
3623.29655	0.04825
3622.01079	0.04828
3620.72502	0.04858
3619.43925	0.04911
3618.15348	0.04953
3616.86771	0.04940
3615.58194	0.04868
3614.29617	0.04788
3613.01040	0.04760
3611.72463	0.04793
3610.43887	0.04853
3609.15310	0.04907
3607.86733	0.04951
3606.58156	0.04992
3605.29579	0.05034
3604.01002	0.05072
3602.72425	0.05109
3601.43848	0.05145
3600.15272	0.05165
3598.86695	0.05153
3597.58118	0.05115
3596.29541	0.05084
3595.00964	0.05096
3593.72387	0.05163
3592.43810	0.05264
3591.15233	0.05365
3589.86656	0.05439
3588.58080	0.05468
3587.29503	0.05445
3586.00926	0.05379
3584.72349	0.05293
3583.43772	0.05223
3582.15195	0.05199
3580.86618	0.05237
3579.58041	0.05332
3578.29464	0.05465
3577.00888	0.05591
3575.72311	0.05668
3574.43734	0.05695
3573.15157	0.05715
3571.86580	0.05771
3570.58003	0.05866
3569.29426	0.05967
3568.00849	0.06039
3566.72273	0.06063
3565.43696	0.06033
3564.15119	0.05966
3562.86542	0.05896
3561.57965	0.05856
3560.29388	0.05864
3559.00811	0.05902
3557.72234	0.05939
3556.43657	0.05947
3555.15081	0.05925
3553.86504	0.05890
3552.57927	0.05861
3551.29350	0.05848
3550.00773	0.05853
3548.72196	0.05879
3547.43619	0.05944
3546.15042	0.06058
3544.86466	0.06194
3543.57889	0.06307
3542.29312	0.06370
3541.00735	0.06390
3539.72158	0.06391
3538.43581	0.06392
3537.15004	0.06402
3535.86427	0.06432
3534.57850	0.06481
3533.29274	0.06535
3532.00697	0.06578
3530.72120	0.06601
3529.43543	0.06607
3528.14966	0.06595
3526.86389	0.06562
3525.57812	0.06514
3524.29235	0.06480
3523.00659	0.06490
3521.72082	0.06545
3520.43505	0.06607
3519.14928	0.06635
3517.86351	0.06618
3516.57774	0.06584
3515.29197	0.06568
3514.00620	0.06588
3512.72043	0.06633
3511.43467	0.06673
3510.14890	0.06683
3508.86313	0.06659
3507.57736	0.06621
3506.29159	0.06606
3505.00582	0.06645
3503.72005	0.06737
3502.43428	0.06850
3501.14852	0.06938
3499.86275	0.06974
3498.57698	0.06966
3497.29121	0.06953
3496.00544	0.06966
3494.71967	0.07008
3493.43390	0.07054
3492.14813	0.07076
3490.86236	0.07074
3489.57660	0.07063
3488.29083	0.07059
3487.00506	0.07057
3485.71929	0.07052
3484.43352	0.07044
3483.14775	0.07041
3481.86198	0.07049
3480.57621	0.07076
3479.29045	0.07124
3478.00468	0.07190
3476.71891	0.07255
3475.43314	0.07301
3474.14737	0.07322
3472.86160	0.07331
3471.57583	0.07338
3470.29006	0.07346
3469.00429	0.07347
3467.71853	0.07344
3466.43276	0.07343
3465.14699	0.07350
3463.86122	0.07359
3462.57545	0.07365
3461.28968	0.07378
3460.00391	0.07408
3458.71814	0.07448
3457.43238	0.07470
3456.14661	0.07448
3454.86084	0.07388
3453.57507	0.07329
3452.28930	0.07326
3451.00353	0.07399
3449.71776	0.07517
3448.43199	0.07618
3447.14622	0.07658
3445.86046	0.07647
3444.57469	0.07622
3443.28892	0.07606
3442.00315	0.07595
3440.71738	0.07592
3439.43161	0.07616
3438.14584	0.07679
3436.86007	0.07751
3435.57431	0.07786
3434.28854	0.07768
3433.00277	0.07722
3431.71700	0.07688
3430.43123	0.07680
3429.14546	0.07682
3427.85969	0.07670
3426.57392	0.07636
3425.28815	0.07598
3424.00239	0.07584
3422.71662	0.07605
3421.43085	0.07649
3420.14508	0.07697
3418.85931	0.07734
3417.57354	0.07763
3416.28777	0.07793
3415.00200	0.07831
3413.71624	0.07870
3412.43047	0.07893
3411.14470	0.07883
3409.85893	0.07843
3408.57316	0.07802
3407.28739	0.07791
3406.00162	0.07821
3404.71585	0.07873
3403.43008	0.07915
3402.14432	0.07932
3400.85855	0.07928
3399.57278	0.07916
3398.28701	0.07900
3397.00124	0.07883
3395.71547	0.07872
3394.42970	0.07880
3393.14393	0.07921
3391.85817	0.07989
3390.57240	0.08066
3389.28663	0.08122
3388.00086	0.08140
3386.71509	0.08122
3385.42932	0.08087
3384.14355	0.08060
3382.85778	0.08058
3381.57201	0.08082
3380.28625	0.08121
3379.00048	0.08158
3377.71471	0.08176
3376.42894	0.08167
3375.14317	0.08136
3373.85740	0.08100
3372.57163	0.08078
3371.28586	0.08079
3370.00010	0.08095
3368.71433	0.08125
3367.42856	0.08169
3366.14279	0.08222
3364.85702	0.08263
3363.57125	0.08282
3362.28548	0.08285
3360.99971	0.08279
3359.71394	0.08259
3358.42818	0.08226
3357.14241	0.08199
3355.85664	0.08206
3354.57087	0.08257
3353.28510	0.08328
3351.99933	0.08380
3350.71356	0.08383
3349.42779	0.08337
3348.14202	0.08273
3346.85626	0.08230
3345.57049	0.08229
3344.28472	0.08257
3342.99895	0.08281
3341.71318	0.08275
3340.42741	0.08234
3339.14164	0.08179
3337.85587	0.08135
3336.57011	0.08116
3335.28434	0.08120
3333.99857	0.08136
3332.71280	0.08150
3331.42703	0.08155
3330.14126	0.08154
3328.85549	0.08148
3327.56972	0.08135
3326.28395	0.08117
3324.99819	0.08109
3323.71242	0.08123
3322.42665	0.08149
3321.14088	0.08164
3319.85511	0.08155
3318.56934	0.08130
3317.28357	0.08105
3315.99780	0.08097
3314.71204	0.08104
3313.42627	0.08113
3312.14050	0.08118
3310.85473	0.08126
3309.56896	0.08145
3308.28319	0.08168
3306.99742	0.08178
3305.71165	0.08162
3304.42588	0.08115
3303.14012	0.08051
3301.85435	0.07998
3300.56858	0.07977
3299.28281	0.07989
3297.99704	0.08006
3296.71127	0.08002
3295.42550	0.07987
3294.13973	0.07993
3292.85397	0.08042
3291.56820	0.08113
3290.28243	0.08169
3288.99666	0.08190
3287.71089	0.08187
3286.42512	0.08173
3285.13935	0.08147
3283.85358	0.08101
3282.56781	0.08047
3281.28205	0.08011
3279.99628	0.08009
3278.71051	0.08030
3277.42474	0.08052
3276.13897	0.08061
3274.85320	0.08060
3273.56743	0.08056
3272.28166	0.08052
3270.99590	0.08048
3269.71013	0.08051
3268.42436	0.08068
3267.13859	0.08099
3265.85282	0.08126
3264.56705	0.08122
3263.28128	0.08069
3261.99551	0.07979
3260.70974	0.07893
3259.42398	0.07850
3258.13821	0.07862
3256.85244	0.07908
3255.56667	0.07965
3254.28090	0.08021
3252.99513	0.08077
3251.70936	0.08123
3250.42359	0.08133
3249.13783	0.08085
3247.85206	0.07992
3246.56629	0.07897
3245.28052	0.07845
3243.99475	0.07845
3242.70898	0.07865
3241.42321	0.07868
3240.13744	0.07848
3238.85167	0.07824
3237.56591	0.07821
3236.28014	0.07838
3234.99437	0.07855
3233.70860	0.07846
3232.42283	0.07807
3231.13706	0.07767
3229.85129	0.07760
3228.56552	0.07790
3227.27976	0.07827
3225.99399	0.07829
3224.70822	0.07788
3223.42245	0.07734
3222.13668	0.07706
3220.85091	0.07716
3219.56514	0.07743
3218.27937	0.07756
3216.99360	0.07754
3215.70784	0.07756
3214.42207	0.07774
3213.13630	0.07791
3211.85053	0.07784
3210.56476	0.07757
3209.27899	0.07734
3207.99322	0.07725
3206.70745	0.07720
3205.42169	0.07709
3204.13592	0.07699
3202.85015	0.07702
3201.56438	0.07717
3200.27861	0.07728
3198.99284	0.07721
3197.70707	0.07702
3196.42130	0.07691
3195.13553	0.07702
3193.84977	0.07724
3192.56400	0.07723
3191.27823	0.07684
3189.99246	0.07623
3188.70669	0.07578
3187.42092	0.07566
3186.13515	0.07566
3184.84938	0.07550
3183.56362	0.07514
3182.27785	0.07486
3180.99208	0.07490
3179.70631	0.07519
3178.42054	0.07539
3177.13477	0.07518
3175.84900	0.07461
3174.56323	0.07400
3173.27746	0.07372
3171.99170	0.07383
3170.70593	0.07411
3169.42016	0.07432
3168.13439	0.07437
3166.84862	0.07430
3165.56285	0.07415
3164.27708	0.07396
3162.99131	0.07380
3161.70555	0.07372
3160.41978	0.07371
3159.13401	0.07371
3157.84824	0.07362
3156.56247	0.07337
3155.27670	0.07300
3153.99093	0.07261
3152.70516	0.07230
3151.41939	0.07216
3150.13363	0.07217
3148.84786	0.07228
3147.56209	0.07240
3146.27632	0.07250
3144.99055	0.07265
3143.70478	0.07289
3142.41901	0.07308
3141.13324	0.07296
3139.84748	0.07240
3138.56171	0.07151
3137.27594	0.07063
3135.99017	0.07014
3134.70440	0.07021
3133.41863	0.07071
3132.13286	0.07140
3130.84709	0.07200
3129.56132	0.07230
3128.27556	0.07222
3126.98979	0.07184
3125.70402	0.07137
3124.41825	0.07103
3123.13248	0.07091
3121.84671	0.07096
3120.56094	0.07102
3119.27517	0.07100
3117.98940	0.07088
3116.70364	0.07069
3115.41787	0.07046
3114.13210	0.07023
3112.84633	0.07007
3111.56056	0.06997
3110.27479	0.06982
3108.98902	0.06952
3107.70325	0.06916
3106.41749	0.06896
3105.13172	0.06910
3103.84595	0.06951
3102.56018	0.06990
3101.27441	0.07007
3099.98864	0.07001
3098.70287	0.06986
3097.41710	0.06969
3096.13133	0.06950
3094.84557	0.06923
3093.55980	0.06893
3092.27403	0.06866
3090.98826	0.06847
3089.70249	0.06832
3088.41672	0.06812
3087.13095	0.06781
3085.84518	0.06744
3084.55942	0.06717
3083.27365	0.06717
3081.98788	0.06744
3080.70211	0.06775
3079.41634	0.06784
3078.13057	0.06765
3076.84480	0.06737
3075.55903	0.06724
3074.27326	0.06729
3072.98750	0.06735
3071.70173	0.06726
3070.41596	0.06710
3069.13019	0.06702
3067.84442	0.06707
3066.55865	0.06715
3065.27288	0.06712
3063.98711	0.06700
3062.70135	0.06694
3061.41558	0.06701
3060.12981	0.06708
3058.84404	0.06696
3057.55827	0.06655
3056.27250	0.06598
3054.98673	0.06553
3053.70096	0.06537
3052.41519	0.06551
3051.12943	0.06578
3049.84366	0.06598
3048.55789	0.06596
3047.27212	0.06570
3045.98635	0.06537
3044.70058	0.06516
3043.41481	0.06512
3042.12904	0.06511
3040.84328	0.06501
3039.55751	0.06485
3038.27174	0.06470
3036.98597	0.06457
3035.70020	0.06436
3034.41443	0.06408
3033.12866	0.06388
3031.84289	0.06392
3030.55712	0.06412
3029.27136	0.06418
3027.98559	0.06397
3026.69982	0.06364
3025.41405	0.06341
3024.12828	0.06329
3022.84251	0.06317
3021.55674	0.06307
3020.27097	0.06314
3018.98521	0.06341
3017.69944	0.06364
3016.41367	0.06356
3015.12790	0.06319
3013.84213	0.06282
3012.55636	0.06267
3011.27059	0.06275
3009.98482	0.06286
3008.69905	0.06279
3007.41329	0.06245
3006.12752	0.06192
3004.84175	0.06140
3003.55598	0.06109
3002.27021	0.06103
3000.98444	0.06109
2999.69867	0.06118
2998.41290	0.06130
2997.12714	0.06149
2995.84137	0.06166
2994.55560	0.06169
2993.26983	0.06155
2991.98406	0.06139
2990.69829	0.06140
2989.41252	0.06160
2988.12675	0.06177
2986.84098	0.06167
2985.55522	0.06136
2984.26945	0.06115
2982.98368	0.06130
2981.69791	0.06176
2980.41214	0.06219
2979.12637	0.06235
2977.84060	0.06224
2976.55483	0.06210
2975.26907	0.06223
2973.98330	0.06274
2972.69753	0.06355
2971.41176	0.06435
2970.12599	0.06487
2968.84022	0.06504
2967.55445	0.06509
2966.26868	0.06535
2964.98291	0.06593
2963.69715	0.06666
2962.41138	0.06729
2961.12561	0.06776
2959.83984	0.06819
2958.55407	0.06867
2957.26830	0.06913
2955.98253	0.06938
2954.69676	0.06937
2953.41100	0.06926
2952.12523	0.06932
2950.83946	0.06963
2949.55369	0.06999
2948.26792	0.07014
2946.98215	0.06998
2945.69638	0.06965
2944.41061	0.06932
2943.12484	0.06906
2941.83908	0.06891
2940.55331	0.06885
2939.26754	0.06886
2937.98177	0.06893
2936.69600	0.06914
2935.41023	0.06957
2934.12446	0.07019
2932.83869	0.07081
2931.55293	0.07128
2930.26716	0.07150
2928.98139	0.07155
2927.69562	0.07157
2926.40985	0.07165
2925.12408	0.07177
2923.83831	0.07191
2922.55254	0.07198
2921.26677	0.07195
2919.98101	0.07173
2918.69524	0.07132
2917.40947	0.07074
2916.12370	0.07009
2914.83793	0.06950
2913.55216	0.06901
2912.26639	0.06859
2910.98062	0.06821
2909.69486	0.06786
2908.40909	0.06750
2907.12332	0.06705
2905.83755	0.06654
2904.55178	0.06609
2903.26601	0.06578
2901.98024	0.06550
2900.69447	0.06513
2899.40870	0.06470
2898.12294	0.06430
2896.83717	0.06391
2895.55140	0.06348
2894.26563	0.06309
2892.97986	0.06288
2891.69409	0.06287
2890.40832	0.06297
2889.12255	0.06305
2887.83678	0.06292
2886.55102	0.06251
2885.26525	0.06195
2883.97948	0.06150
2882.69371	0.06132
2881.40794	0.06132
2880.12217	0.06133
2878.83640	0.06129
2877.55063	0.06125
2876.26487	0.06134
2874.97910	0.06159
2873.69333	0.06191
2872.40756	0.06214
2871.12179	0.06221
2869.83602	0.06215
2868.55025	0.06208
2867.26448	0.06203
2865.97871	0.06196
2864.69295	0.06183
2863.40718	0.06164
2862.12141	0.06143
2860.83564	0.06118
2859.54987	0.06087
2858.26410	0.06057
2856.97833	0.06042
2855.69256	0.06054
2854.40680	0.06085
2853.12103	0.06112
2851.83526	0.06106
2850.54949	0.06059
2849.26372	0.05982
2847.97795	0.05899
2846.69218	0.05824
2845.40641	0.05765
2844.12064	0.05724
2842.83488	0.05695
2841.54911	0.05666
2840.26334	0.05625
2838.97757	0.05574
2837.69180	0.05521
2836.40603	0.05474
2835.12026	0.05442
2833.83449	0.05421
2832.54873	0.05403
2831.26296	0.05384
2829.97719	0.05362
2828.69142	0.05338
2827.40565	0.05308
2826.11988	0.05271
2824.83411	0.05234
2823.54834	0.05202
2822.26257	0.05178
2820.97681	0.05164
2819.69104	0.05164
2818.40527	0.05176
2817.11950	0.05192
2815.83373	0.05194
2814.54796	0.05166
2813.26219	0.05112
2811.97642	0.05056
2810.69066	0.05021
2809.40489	0.05011
2808.11912	0.05013
2806.83335	0.05013
2805.54758	0.05002
2804.26181	0.04975
2802.97604	0.04940
2801.69027	0.04912
2800.40450	0.04903
2799.11874	0.04911
2797.83297	0.04918
2796.54720	0.04911
2795.26143	0.04895
2793.97566	0.04881
2792.68989	0.04873
2791.40412	0.04865
2790.11835	0.04849
2788.83259	0.04824
2787.54682	0.04798
2786.26105	0.04780
2784.97528	0.04771
2783.68951	0.04766
2782.40374	0.04758
2781.11797	0.04749
2779.83220	0.04746
2778.54643	0.04750
2777.26067	0.04755
2775.97490	0.04753
2774.68913	0.04744
2773.40336	0.04732
2772.11759	0.04722
2770.83182	0.04714
2769.54605	0.04709
2768.26028	0.04710
2766.97452	0.04717
2765.68875	0.04727
2764.40298	0.04733
2763.11721	0.04730
2761.83144	0.04716
2760.54567	0.04693
2759.25990	0.04668
2757.97413	0.04656
2756.68836	0.04661
2755.40260	0.04670
2754.11683	0.04668
2752.83106	0.04648
2751.54529	0.04623
2750.25952	0.04604
2748.97375	0.04595
2747.68798	0.04591
2746.40221	0.04590
2745.11645	0.04594
2743.83068	0.04599
2742.54491	0.04595
2741.25914	0.04581
2739.97337	0.04570
2738.68760	0.04571
2737.40183	0.04577
2736.11606	0.04573
2734.83029	0.04560
2733.54453	0.04540
2732.25876	0.04518
2730.97299	0.04498
2729.68722	0.04484
2728.40145	0.04477
2727.11568	0.04468
2725.82991	0.04449
2724.54414	0.04431
2723.25838	0.04427
2721.97261	0.04443
2720.68684	0.04462
2719.40107	0.04464
2718.11530	0.04442
2716.82953	0.04408
2715.54376	0.04380
2714.25799	0.04368
2712.97222	0.04366
2711.68646	0.04364
2710.40069	0.04355
2709.11492	0.04342
2707.82915	0.04331
2706.54338	0.04327
2705.25761	0.04328
2703.97184	0.04330
2702.68607	0.04329
2701.40031	0.04326
2700.11454	0.04323
2698.82877	0.04326
2697.54300	0.04332
2696.25723	0.04337
2694.97146	0.04336
2693.68569	0.04325
2692.39992	0.04304
2691.11415	0.04281
2689.82839	0.04269
2688.54262	0.04272
2687.25685	0.04281
2685.97108	0.04286
2684.68531	0.04284
2683.39954	0.04276
2682.11377	0.04263
2680.82800	0.04245
2679.54224	0.04226
2678.25647	0.04215
2676.97070	0.04217
2675.68493	0.04231
2674.39916	0.04251
2673.11339	0.04270
2671.82762	0.04281
2670.54185	0.04279
2669.25608	0.04255
2667.97032	0.04212
2666.68455	0.04164
2665.39878	0.04129
2664.11301	0.04123
2662.82724	0.04139
2661.54147	0.04161
2660.25570	0.04169
2658.96993	0.04159
2657.68417	0.04137
2656.39840	0.04115
2655.11263	0.04099
2653.82686	0.04094
2652.54109	0.04096
2651.25532	0.04100
2649.96955	0.04102
2648.68378	0.04101
2647.39801	0.04093
2646.11225	0.04076
2644.82648	0.04049
2643.54071	0.04015
2642.25494	0.03978
2640.96917	0.03939
2639.68340	0.03904
2638.39763	0.03887
2637.11186	0.03898
2635.82609	0.03927
2634.54033	0.03952
2633.25456	0.03953
2631.96879	0.03935
2630.68302	0.03916
2629.39725	0.03901
2628.11148	0.03884
2626.82571	0.03858
2625.53994	0.03830
2624.25418	0.03812
2622.96841	0.03802
2621.68264	0.03790
2620.39687	0.03763
2619.11110	0.03726
2617.82533	0.03699
2616.53956	0.03700
2615.25379	0.03725
2613.96802	0.03748
2612.68226	0.03743
2611.39649	0.03710
2610.11072	0.03668
2608.82495	0.03636
2607.53918	0.03626
2606.25341	0.03635
2604.96764	0.03649
2603.68187	0.03649
2602.39611	0.03628
2601.11034	0.03598
2599.82457	0.03575
2598.53880	0.03560
2597.25303	0.03552
2595.96726	0.03551
2594.68149	0.03551
2593.39572	0.03540
2592.10995	0.03512
2590.82419	0.03483
2589.53842	0.03481
2588.25265	0.03500
2586.96688	0.03512
2585.68111	0.03497
2584.39534	0.03461
2583.10957	0.03425
2581.82380	0.03398
2580.53804	0.03377
2579.25227	0.03364
2577.96650	0.03370
2576.68073	0.03405
2575.39496	0.03457
2574.10919	0.03495
2572.82342	0.03485
2571.53765	0.03427
2570.25188	0.03355
2568.96612	0.03308
2567.68035	0.03297
2566.39458	0.03305
2565.10881	0.03312
2563.82304	0.03311
2562.53727	0.03302
2561.25150	0.03285
2559.96573	0.03262
2558.67997	0.03243
2557.39420	0.03237
2556.10843	0.03238
2554.82266	0.03237
2553.53689	0.03228
2552.25112	0.03214
2550.96535	0.03200
2549.67958	0.03184
2548.39381	0.03163
2547.10805	0.03145
2545.82228	0.03151
2544.53651	0.03199
2543.25074	0.03269
2541.96497	0.03318
2540.67920	0.03317
2539.39343	0.03284
2538.10766	0.03249
2536.82190	0.03218
2535.53613	0.03181
2534.25036	0.03143
2532.96459	0.03125
2531.67882	0.03138
2530.39305	0.03169
2529.10728	0.03200
2527.82151	0.03214
2526.53574	0.03202
2525.24998	0.03174
2523.96421	0.03155
2522.67844	0.03159
2521.39267	0.03171
2520.10690	0.03163
2518.82113	0.03134
2517.53536	0.03108
2516.24959	0.03097
2514.96383	0.03089
2513.67806	0.03071
2512.39229	0.03054
2511.10652	0.03057
2509.82075	0.03073
2508.53498	0.03080
2507.24921	0.03069
2505.96344	0.03062
2504.67767	0.03071
2503.39191	0.03087
2502.10614	0.03095
2500.82037	0.03092
2499.53460	0.03084
2498.24883	0.03078
2496.96306	0.03081
2495.67729	0.03089
2494.39152	0.03084
2493.10576	0.03051
2491.81999	0.03003
2490.53422	0.02967
2489.24845	0.02965
2487.96268	0.02993
2486.67691	0.03033
2485.39114	0.03064
2484.10537	0.03076
2482.81960	0.03073
2481.53384	0.03060
2480.24807	0.03034
2478.96230	0.03000
2477.67653	0.02968
2476.39076	0.02951
2475.10499	0.02952
2473.81922	0.02969
2472.53345	0.02992
2471.24769	0.03011
2469.96192	0.03020
2468.67615	0.03020
2467.39038	0.03019
2466.10461	0.03024
2464.81884	0.03034
2463.53307	0.03036
2462.24730	0.03016
2460.96153	0.02980
2459.67577	0.02947
2458.39000	0.02932
2457.10423	0.02929
2455.81846	0.02931
2454.53269	0.02940
2453.24692	0.02961
2451.96115	0.02992
2450.67538	0.03017
2449.38962	0.03023
2448.10385	0.03005
2446.81808	0.02965
2445.53231	0.02920
2444.24654	0.02887
2442.96077	0.02873
2441.67500	0.02874
2440.38923	0.02881
2439.10346	0.02889
2437.81770	0.02901
2436.53193	0.02916
2435.24616	0.02927
2433.96039	0.02920
2432.67462	0.02890
2431.38885	0.02846
2430.10308	0.02807
2428.81731	0.02788
2427.53155	0.02794
2426.24578	0.02813
2424.96001	0.02826
2423.67424	0.02819
2422.38847	0.02801
2421.10270	0.02789
2419.81693	0.02791
2418.53116	0.02795
2417.24539	0.02792
2415.95963	0.02789
2414.67386	0.02805
2413.38809	0.02840
2412.10232	0.02874
2410.81655	0.02883
2409.53078	0.02861
2408.24501	0.02825
2406.95924	0.02796
2405.67347	0.02785
2404.38771	0.02791
2403.10194	0.02814
2401.81617	0.02842
2400.53040	0.02852
2399.24463	0.02817
2397.95886	0.02777
2396.67309	0.02759
2395.38732	0.02776
2394.10156	0.02819
2392.81579	0.02861
2391.53002	0.02882
2390.24425	0.02876
2388.95848	0.02852
2387.67271	0.02826
2386.38694	0.02811
2385.10117	0.02807
2383.81540	0.02810
2382.52964	0.02816
2381.24387	0.02830
2379.95810	0.02852
2378.67233	0.02878
2377.38656	0.02904
2376.10079	0.02926
2374.81502	0.02939
2373.52925	0.02942
2372.24349	0.02934
2370.95772	0.02920
2369.67195	0.02904
2368.38618	0.02895
2367.10041	0.02898
2365.81464	0.02909
2364.52887	0.02918
2363.24310	0.02919
2361.95733	0.02921
2360.67157	0.02938
2359.38580	0.02964
2358.10003	0.02979
2356.81426	0.02972
2355.52849	0.02951
2354.24272	0.02937
2352.95695	0.02938
2351.67118	0.02944
2350.38542	0.02947
2349.09965	0.02948
2347.81388	0.02956
2346.52811	0.02977
2345.24234	0.03008
2343.95657	0.03037
2342.67080	0.03046
2341.38503	0.03032
2340.09926	0.03001
2338.81350	0.02972
2337.52773	0.02960
2336.24196	0.02961
2334.95619	0.02956
2333.67042	0.02937
2332.38465	0.02907
2331.09888	0.02881
2329.81311	0.02874
2328.52735	0.02896
2327.24158	0.02949
2325.95581	0.03015
2324.67004	0.03066
2323.38427	0.03081
2322.09850	0.03062
2320.81273	0.03027
2319.52696	0.02993
2318.24119	0.02968
2316.95543	0.02953
2315.66966	0.02943
2314.38389	0.02932
2313.09812	0.02919
2311.81235	0.02907
2310.52658	0.02898
2309.24081	0.02883
2307.95504	0.02858
2306.66928	0.02826
2305.38351	0.02796
2304.09774	0.02771
2302.81197	0.02748
2301.52620	0.02722
2300.24043	0.02691
2298.95466	0.02653
2297.66889	0.02609
2296.38312	0.02574
2295.09736	0.02568
2293.81159	0.02603
2292.52582	0.02668
2291.24005	0.02731
2289.95428	0.02758
2288.66851	0.02733
2287.38274	0.02669
2286.09697	0.02595
2284.81121	0.02536
2283.52544	0.02503
2282.23967	0.02496
2280.95390	0.02508
2279.66813	0.02537
2278.38236	0.02579
2277.09659	0.02621
2275.81082	0.02642
2274.52505	0.02628
2273.23929	0.02585
2271.95352	0.02530
2270.66775	0.02479
2269.38198	0.02432
2268.09621	0.02378
2266.81044	0.02316
2265.52467	0.02256
2264.23890	0.02205
2262.95314	0.02170
2261.66737	0.02155
2260.38160	0.02162
2259.09583	0.02190
2257.81006	0.02228
2256.52429	0.02257
2255.23852	0.02263
2253.95275	0.02239
2252.66698	0.02181
2251.38122	0.02099
2250.09545	0.02031
2248.80968	0.02014
2247.52391	0.02008
2246.23814	0.02028
2244.95237	0.02049
2243.66660	0.02063
2242.38083	0.02065
2241.09507	0.02047
2239.80930	0.02010
2238.52353	0.01984
2237.23776	0.01997
2235.95199	0.02042
2234.66622	0.02075
2233.38045	0.02057
2232.09468	0.01991
2230.80891	0.01905
2229.52315	0.01822
2228.23738	0.01757
2226.95161	0.01729
2225.66584	0.01759
2224.38007	0.01833
2223.09430	0.01896
2221.80853	0.01908
2220.52276	0.01884
2219.23700	0.01864
2217.95123	0.01860
2216.66546	0.01856
2215.37969	0.01843
2214.09392	0.01823
2212.80815	0.01792
2211.52238	0.01748
2210.23661	0.01714
2208.95084	0.01702
2207.66508	0.01683
2206.37931	0.01618
2205.09354	0.01510
2203.80777	0.01404
2202.52200	0.01353
2201.23623	0.01371
2199.95046	0.01444
2198.66469	0.01531
2197.37893	0.01591
2196.09316	0.01594
2194.80739	0.01542
2193.52162	0.01464
2192.23585	0.01397
2190.95008	0.01367
2189.66431	0.01386
2188.37854	0.01444
2187.09277	0.01510
2185.80701	0.01535
2184.52124	0.01491
2183.23547	0.01392
2181.94970	0.01283
2180.66393	0.01204
2179.37816	0.01169
2178.09239	0.01165
2176.80662	0.01164
2175.52085	0.01147
2174.23509	0.01115
2172.94932	0.01081
2171.66355	0.01048
2170.37778	0.01016
2169.09201	0.00992
2167.80624	0.00983
2166.52047	0.00974
2165.23470	0.00945
2163.94894	0.00888
2162.66317	0.00826
2161.37740	0.00797
2160.09163	0.00822
2158.80586	0.00871
2157.52009	0.00876
2156.23432	0.00805
2154.94855	0.00701
2153.66278	0.00637
2152.37702	0.00642
2151.09125	0.00693
2149.80548	0.00765
2148.51971	0.00850
2147.23394	0.00940
2145.94817	0.01006
2144.66240	0.01020
2143.37663	0.00989
2142.09087	0.00947
2140.80510	0.00933
2139.51933	0.00965
2138.23356	0.01031
2136.94779	0.01104
2135.66202	0.01161
2134.37625	0.01195
2133.09048	0.01212
2131.80471	0.01217
2130.51895	0.01215
2129.23318	0.01213
2127.94741	0.01225
2126.66164	0.01262
2125.37587	0.01320
2124.09010	0.01375
2122.80433	0.01406
2121.51856	0.01417
2120.23280	0.01437
2118.94703	0.01483
2117.66126	0.01538
2116.37549	0.01572
2115.08972	0.01569
2113.80395	0.01542
2112.51818	0.01517
2111.23241	0.01511
2109.94664	0.01520
2108.66088	0.01521
2107.37511	0.01497
2106.08934	0.01450
2104.80357	0.01404
2103.51780	0.01393
2102.23203	0.01431
2100.94626	0.01489
2099.66049	0.01459
2098.37473	0.01411
2097.08896	0.01365
2095.80319	0.01339
2094.51742	0.01351
2093.23165	0.01386
2091.94588	0.01413
2090.66011	0.01411
2089.37434	0.01385
2088.08857	0.01353
2086.80281	0.01329
2085.51704	0.01317
2084.23127	0.01320
2082.94550	0.01340
2081.65973	0.01373
2080.37396	0.01402
2079.08819	0.01414
2077.80242	0.01414
2076.51666	0.01414
2075.23089	0.01404
2073.94512	0.01357
2072.65935	0.01270
2071.37358	0.01185
2070.08781	0.01141
2068.80204	0.01136
2067.51627	0.01140
2066.23050	0.01132
2064.94474	0.01125
2063.65897	0.01129
2062.37320	0.01137
2061.08743	0.01130
2059.80166	0.01110
2058.51589	0.01095
2057.23012	0.01094
2055.94435	0.01098
2054.65859	0.01099
2053.37282	0.01089
2052.08705	0.01054
2050.80128	0.00976
2049.51551	0.00858
2048.22974	0.00745
2046.94397	0.00683
2045.65820	0.00677
2044.37243	0.00682
2043.08667	0.00650
2041.80090	0.00571
2040.51513	0.00474
2039.22936	0.00392
2037.94359	0.00332
2036.65782	0.00288
2035.37205	0.00262
2034.08628	0.00268
2032.80052	0.00310
2031.51475	0.00373
2030.22898	0.00442
2028.94321	0.00514
2027.65744	0.00589
2026.37167	0.00654
2025.08590	0.00685
2023.80013	0.00663
2022.51436	0.00593
2021.22860	0.00500
2019.94283	0.00414
2018.65706	0.00354
2017.37129	0.00332
2016.08552	0.00356
2014.79975	0.00412
2013.51398	0.00470
2012.22821	0.00494
2010.94245	0.00466
2009.65668	0.00395
2008.37091	0.00321
2007.08514	0.00295
2005.79937	0.00343
2004.51360	0.00455
2003.22783	0.00601
2001.94206	0.00758
2000.65629	0.00889
1999.37053	0.00950
1998.08476	0.00921
1996.79899	0.00847
1995.51322	0.00803
1994.22745	0.00817
1992.94168	0.00857
1991.65591	0.00881
1990.37014	0.00879
1989.08438	0.00870
1987.79861	0.00871
1986.51284	0.00889
1985.22707	0.00926
1983.94130	0.00970
1982.65553	0.00992
1981.36976	0.00961
1980.08399	0.00867
1978.79822	0.00751
1977.51246	0.00682
1976.22669	0.00695
1974.94092	0.00751
1973.65515	0.00779
1972.36938	0.00755
1971.08361	0.00711
1969.79784	0.00690
1968.51207	0.00708
1967.22631	0.00761
1965.94054	0.00841
1964.65477	0.00932
1963.36900	0.01009
1962.08323	0.01050
1960.79746	0.01059
1959.51169	0.01064
1958.22592	0.01082
1956.94015	0.01104
1955.65439	0.01117
1954.36862	0.01134
1953.08285	0.01180
1951.79708	0.01260
1950.51131	0.01340
1949.22554	0.01385
1947.93977	0.01391
1946.65400	0.01372
1945.36823	0.01346
1944.08247	0.01317
1942.79670	0.01283
1941.51093	0.01250
1940.22516	0.01234
1938.93939	0.01249
1937.65362	0.01288
1936.36785	0.01325
1935.08208	0.01337
1933.79632	0.01324
1932.51055	0.01303
1931.22478	0.01297
1929.93901	0.01319
1928.65324	0.01363
1927.36747	0.01410
1926.08170	0.01440
1924.79593	0.01443
1923.51016	0.01428
1922.22440	0.01413
1920.93863	0.01403
1919.65286	0.01389
1918.36709	0.01357
1917.08132	0.01319
1915.79555	0.01302
1914.50978	0.01324
1913.22401	0.01372
1911.93825	0.01418
1910.65248	0.01433
1909.36671	0.01410
1908.08094	0.01366
1906.79517	0.01334
1905.50940	0.01334
1904.22363	0.01364
1902.93786	0.01402
1901.65209	0.01432
1900.36633	0.01446
1899.08056	0.01443
1897.79479	0.01421
1896.50902	0.01381
1895.22325	0.01334
1893.93748	0.01297
1892.65171	0.01287
1891.36594	0.01308
1890.08018	0.01344
1888.79441	0.01370
1887.50864	0.01375
1886.22287	0.01370
1884.93710	0.01371
1883.65133	0.01382
1882.36556	0.01394
1881.07979	0.01401
1879.79402	0.01400
1878.50826	0.01394
1877.22249	0.01388
1875.93672	0.01384
1874.65095	0.01380
1873.36518	0.01373
1872.07941	0.01366
1870.79364	0.01368
1869.50787	0.01384
1868.22211	0.01411
1866.93634	0.01440
1865.65057	0.01463
1864.36480	0.01471
1863.07903	0.01460
1861.79326	0.01437
1860.50749	0.01418
1859.22172	0.01413
1857.93595	0.01421
1856.65019	0.01431
1855.36442	0.01440
1854.07865	0.01447
1852.79288	0.01455
1851.50711	0.01469
1850.22134	0.01488
1848.93557	0.01500
1847.64980	0.01491
1846.36404	0.01466
1845.07827	0.01447
1843.79250	0.01454
1842.50673	0.01484
1841.22096	0.01514
1839.93519	0.01523
1838.64942	0.01510
1837.36365	0.01491
1836.07788	0.01477
1834.79212	0.01473
1833.50635	0.01475
1832.22058	0.01481
1830.93481	0.01490
1829.64904	0.01498
1828.36327	0.01502
1827.07750	0.01505
1825.79173	0.01510
1824.50597	0.01516
1823.22020	0.01514
1821.93443	0.01496
1820.64866	0.01466
1819.36289	0.01440
1818.07712	0.01434
1816.79135	0.01448
1815.50558	0.01472
1814.21981	0.01494
1812.93405	0.01511
1811.64828	0.01528
1810.36251	0.01549
1809.07674	0.01577
1807.79097	0.01605
1806.50520	0.01624
1805.21943	0.01628
1803.93366	0.01618
1802.64790	0.01605
1801.36213	0.01601
1800.07636	0.01607
1798.79059	0.01618
1797.50482	0.01629
1796.21905	0.01636
1794.93328	0.01640
1793.64751	0.01640
1792.36174	0.01633
1791.07598	0.01619
1789.79021	0.01606
1788.50444	0.01606
1787.21867	0.01620
1785.93290	0.01640
1784.64713	0.01653
1783.36136	0.01651
1782.07559	0.01638
1780.78983	0.01623
1779.50406	0.01614
1778.21829	0.01613
1776.93252	0.01618
1775.64675	0.01628
1774.36098	0.01644
1773.07521	0.01665
1771.78944	0.01689
1770.50367	0.01710
1769.21791	0.01726
1767.93214	0.01738
1766.64637	0.01750
1765.36060	0.01762
1764.07483	0.01772
1762.78906	0.01775
1761.50329	0.01774
1760.21752	0.01773
1758.93176	0.01775
1757.64599	0.01783
1756.36022	0.01796
1755.07445	0.01811
1753.78868	0.01820
1752.50291	0.01820
1751.21714	0.01813
1749.93137	0.01809
1748.64560	0.01815
1747.35984	0.01832
1746.07407	0.01853
1744.78830	0.01867
1743.50253	0.01870
1742.21676	0.01866
1740.93099	0.01863
1739.64522	0.01866
1738.35945	0.01873
1737.07369	0.01880
1735.78792	0.01888
1734.50215	0.01899
1733.21638	0.01914
1731.93061	0.01932
1730.64484	0.01950
1729.35907	0.01972
1728.07330	0.01999
1726.78753	0.02029
1725.50177	0.02055
1724.21600	0.02070
1722.93023	0.02077
1721.64446	0.02085
1720.35869	0.02102
1719.07292	0.02129
1717.78715	0.02162
1716.50138	0.02197
1715.21561	0.02230
1713.92985	0.02261
1712.64408	0.02291
1711.35831	0.02322
1710.07254	0.02359
1708.78677	0.02399
1707.50100	0.02438
1706.21523	0.02470
1704.92946	0.02495
1703.64370	0.02516
1702.35793	0.02541
1701.07216	0.02576
1699.78639	0.02623
1698.50062	0.02675
1697.21485	0.02727
1695.92908	0.02778
1694.64331	0.02832
1693.35754	0.02889
1692.07178	0.02944
1690.78601	0.02989
1689.50024	0.03022
1688.21447	0.03048
1686.92870	0.03076
1685.64293	0.03112
1684.35716	0.03158
1683.07139	0.03210
1681.78563	0.03262
1680.49986	0.03311
1679.21409	0.03357
1677.92832	0.03400
1676.64255	0.03443
1675.35678	0.03486
1674.07101	0.03530
1672.78524	0.03574
1671.49947	0.03619
1670.21371	0.03666
1668.92794	0.03715
1667.64217	0.03766
1666.35640	0.03815
1665.07063	0.03859
1663.78486	0.03898
1662.49909	0.03935
1661.21332	0.03973
1659.92756	0.04013
1658.64179	0.04053
1657.35602	0.04090
1656.07025	0.04118
1654.78448	0.04140
1653.49871	0.04161
1652.21294	0.04187
1650.92717	0.04217
1649.64140	0.04248
1648.35564	0.04275
1647.06987	0.04297
1645.78410	0.04314
1644.49833	0.04327
1643.21256	0.04339
1641.92679	0.04350
1640.64102	0.04361
1639.35525	0.04372
1638.06949	0.04380
1636.78372	0.04388
1635.49795	0.04398
1634.21218	0.04414
1632.92641	0.04434
1631.64064	0.04457
1630.35487	0.04482
1629.06910	0.04508
1627.78333	0.04533
1626.49757	0.04555
1625.21180	0.04574
1623.92603	0.04594
1622.64026	0.04619
1621.35449	0.04651
1620.06872	0.04687
1618.78295	0.04720
1617.49718	0.04750
1616.21142	0.04784
1614.92565	0.04827
1613.63988	0.04882
1612.35411	0.04943
1611.06834	0.05001
1609.78257	0.05053
1608.49680	0.05100
1607.21103	0.05144
1605.92526	0.05189
1604.63950	0.05235
1603.35373	0.05281
1602.06796	0.05324
1600.78219	0.05367
1599.49642	0.05411
1598.21065	0.05454
1596.92488	0.05495
1595.63911	0.05529
1594.35335	0.05560
1593.06758	0.05591
1591.78181	0.05625
1590.49604	0.05662
1589.21027	0.05699
1587.92450	0.05733
1586.63873	0.05763
1585.35296	0.05793
1584.06719	0.05823
1582.78143	0.05853
1581.49566	0.05878
1580.20989	0.05895
1578.92412	0.05909
1577.63835	0.05925
1576.35258	0.05948
1575.06681	0.05979
1573.78104	0.06010
1572.49528	0.06036
1571.20951	0.06057
1569.92374	0.06077
1568.63797	0.06096
1567.35220	0.06115
1566.06643	0.06133
1564.78066	0.06146
1563.49489	0.06153
1562.20912	0.06154
1560.92336	0.06151
1559.63759	0.06150
1558.35182	0.06154
1557.06605	0.06159
1555.78028	0.06164
1554.49451	0.06164
1553.20874	0.06160
1551.92297	0.06151
1550.63721	0.06138
1549.35144	0.06116
1548.06567	0.06085
1546.77990	0.06047
1545.49413	0.06007
1544.20836	0.05968
1542.92259	0.05928
1541.63682	0.05887
1540.35105	0.05851
1539.06529	0.05822
1537.77952	0.05799
1536.49375	0.05779
1535.20798	0.05764
1533.92221	0.05756
1532.63644	0.05758
1531.35067	0.05768
1530.06490	0.05783
1528.77914	0.05802
1527.49337	0.05829
1526.20760	0.05864
1524.92183	0.05908
1523.63606	0.05961
1522.35029	0.06023
1521.06452	0.06095
1519.77875	0.06174
1518.49298	0.06254
1517.20722	0.06338
1515.92145	0.06427
1514.63568	0.06524
1513.34991	0.06631
1512.06414	0.06748
1510.77837	0.06868
1509.49260	0.06985
1508.20683	0.07099
1506.92107	0.07211
1505.63530	0.07325
1504.34953	0.07438
1503.06376	0.07548
1501.77799	0.07651
1500.49222	0.07748
1499.20645	0.07836
1497.92068	0.07916
1496.63491	0.07992
1495.34915	0.08070
1494.06338	0.08151
1492.77761	0.08230
1491.49184	0.08308
1490.20607	0.08388
1488.92030	0.08470
1487.63453	0.08557
1486.34876	0.08646
1485.06299	0.08736
1483.77723	0.08824
1482.49146	0.08910
1481.20569	0.08994
1479.91992	0.09078
1478.63415	0.09165
1477.34838	0.09256
1476.06261	0.09346
1474.77684	0.09434
1473.49108	0.09516
1472.20531	0.09590
1470.91954	0.09653
1469.63377	0.09706
1468.34800	0.09751
1467.06223	0.09793
1465.77646	0.09833
1464.49069	0.09873
1463.20492	0.09911
1461.91916	0.09951
1460.63339	0.09996
1459.34762	0.10048
1458.06185	0.10109
1456.77608	0.10176
1455.49031	0.10244
1454.20454	0.10306
1452.91877	0.10358
1451.63301	0.10401
1450.34724	0.10438
1449.06147	0.10475
1447.77570	0.10510
1446.48993	0.10541
1445.20416	0.10564
1443.91839	0.10580
1442.63262	0.10591
1441.34685	0.10599
1440.06109	0.10610
1438.77532	0.10629
1437.48955	0.10661
1436.20378	0.10709
1434.91801	0.10772
1433.63224	0.10848
1432.34647	0.10939
1431.06070	0.11045
1429.77494	0.11167
1428.48917	0.11303
1427.20340	0.11445
1425.91763	0.11589
1424.63186	0.11732
1423.34609	0.11873
1422.06032	0.12012
1420.77455	0.12143
1419.48878	0.12263
1418.20302	0.12367
1416.91725	0.12452
1415.63148	0.12514
1414.34571	0.12552
1413.05994	0.12564
1411.77417	0.12551
1410.48840	0.12517
1409.20263	0.12464
1407.91687	0.12392
1406.63110	0.12299
1405.34533	0.12184
1404.05956	0.12050
1402.77379	0.11900
1401.48802	0.11734
1400.20225	0.11552
1398.91648	0.11356
1397.63071	0.11149
1396.34495	0.10932
1395.05918	0.10706
1393.77341	0.10474
1392.48764	0.10239
1391.20187	0.10004
1389.91610	0.09773
1388.63033	0.09546
1387.34456	0.09319
1386.05880	0.09089
1384.77303	0.08855
1383.48726	0.08621
1382.20149	0.08396
1380.91572	0.08182
1379.62995	0.07974
1378.34418	0.07761
1377.05841	0.07539
1375.77264	0.07313
1374.48688	0.07090
1373.20111	0.06875
1371.91534	0.06669
1370.62957	0.06471
1369.34380	0.06280
1368.05803	0.06096
1366.77226	0.05922
1365.48649	0.05755
1364.20073	0.05598
1362.91496	0.05450
1361.62919	0.05314
1360.34342	0.05190
1359.05765	0.05077
1357.77188	0.04970
1356.48611	0.04866
1355.20034	0.04766
1353.91457	0.04670
1352.62881	0.04579
1351.34304	0.04490
1350.05727	0.04403
1348.77150	0.04320
1347.48573	0.04240
1346.19996	0.04165
1344.91419	0.04092
1343.62842	0.04019
1342.34266	0.03946
1341.05689	0.03874
1339.77112	0.03806
1338.48535	0.03743
1337.19958	0.03684
1335.91381	0.03627
1334.62804	0.03570
1333.34227	0.03515
1332.05650	0.03465
1330.77074	0.03420
1329.48497	0.03379
1328.19920	0.03336
1326.91343	0.03288
1325.62766	0.03240
1324.34189	0.03196
1323.05612	0.03162
1321.77035	0.03135
1320.48459	0.03108
1319.19882	0.03077
1317.91305	0.03044
1316.62728	0.03015
1315.34151	0.02992
1314.05574	0.02973
1312.76997	0.02951
1311.48420	0.02925
1310.19843	0.02897
1308.91267	0.02869
1307.62690	0.02843
1306.34113	0.02817
1305.05536	0.02793
1303.76959	0.02770
1302.48382	0.02748
1301.19805	0.02726
1299.91228	0.02706
1298.62652	0.02689
1297.34075	0.02674
1296.05498	0.02661
1294.76921	0.02646
1293.48344	0.02630
1292.19767	0.02613
1290.91190	0.02597
1289.62613	0.02581
1288.34036	0.02567
1287.05460	0.02554
1285.76883	0.02542
1284.48306	0.02528
1283.19729	0.02513
1281.91152	0.02495
1280.62575	0.02476
1279.33998	0.02458
1278.05421	0.02442
1276.76845	0.02430
1275.48268	0.02421
1274.19691	0.02414
1272.91114	0.02408
1271.62537	0.02402
1270.33960	0.02394
1269.05383	0.02382
1267.76806	0.02370
1266.48229	0.02359
1265.19653	0.02349
1263.91076	0.02336
1262.62499	0.02322
1261.33922	0.02308
1260.05345	0.02299
1258.76768	0.02295
1257.48191	0.02291
1256.19614	0.02285
1254.91037	0.02276
1253.62461	0.02263
1252.33884	0.02250
1251.05307	0.02242
1249.76730	0.02240
1248.48153	0.02242
1247.19576	0.02241
1245.90999	0.02233
1244.62422	0.02217
1243.33846	0.02200
1242.05269	0.02185
1240.76692	0.02174
1239.48115	0.02166
1238.19538	0.02159
1236.90961	0.02152
1235.62384	0.02144
1234.33807	0.02136
1233.05230	0.02126
1231.76654	0.02114
1230.48077	0.02099
1229.19500	0.02083
1227.90923	0.02070
1226.62346	0.02060
1225.33769	0.02054
1224.05192	0.02050
1222.76615	0.02050
1221.48039	0.02053
1220.19462	0.02057
1218.90885	0.02057
1217.62308	0.02051
1216.33731	0.02040
1215.05154	0.02027
1213.76577	0.02015
1212.48000	0.02008
1211.19423	0.02005
1209.90847	0.02004
1208.62270	0.02002
1207.33693	0.01998
1206.05116	0.01992
1204.76539	0.01983
1203.47962	0.01976
1202.19385	0.01974
1200.90808	0.01983
1199.62232	0.02002
1198.33655	0.02015
1197.05078	0.02021
1195.76501	0.02018
1194.47924	0.02008
1193.19347	0.01996
1191.90770	0.01991
1190.62193	0.01993
1189.33616	0.01999
1188.05040	0.02002
1186.76463	0.02002
1185.47886	0.02003
1184.19309	0.02008
1182.90732	0.02017
1181.62155	0.02023
1180.33578	0.02023
1179.05001	0.02022
1177.76425	0.02022
1176.47848	0.02024
1175.19271	0.02032
1173.90694	0.02048
1172.62117	0.02073
1171.33540	0.02105
1170.04963	0.02134
1168.76386	0.02158
1167.47809	0.02178
1166.19233	0.02199
1164.90656	0.02223
1163.62079	0.02249
1162.33502	0.02274
1161.04925	0.02297
1159.76348	0.02323
1158.47771	0.02353
1157.19194	0.02391
1155.90618	0.02437
1154.62041	0.02487
1153.33464	0.02537
1152.04887	0.02584
1150.76310	0.02633
1149.47733	0.02692
1148.19156	0.02764
1146.90579	0.02846
1145.62002	0.02935
1144.33426	0.03034
1143.04849	0.03145
1141.76272	0.03267
1140.47695	0.03396
1139.19118	0.03529
1137.90541	0.03668
1136.61964	0.03818
1135.33387	0.03979
1134.04811	0.04151
1132.76234	0.04337
1131.47657	0.04542
1130.19080	0.04772
1128.90503	0.05027
1127.61926	0.05303
1126.33349	0.05596
1125.04772	0.05906
1123.76195	0.06230
1122.47619	0.06568
1121.19042	0.06916
1119.90465	0.07273
1118.61888	0.07636
1117.33311	0.08004
1116.04734	0.08377
1114.76157	0.08750
1113.47580	0.09121
1112.19004	0.09486
1110.90427	0.09844
1109.61850	0.10198
1108.33273	0.10552
1107.04696	0.10907
1105.76119	0.11257
1104.47542	0.11599
1103.18965	0.11934
1101.90388	0.12266
1100.61812	0.12595
1099.33235	0.12920
1098.04658	0.13240
1096.76081	0.13550
1095.47504	0.13844
1094.18927	0.14120
1092.90350	0.14380
1091.61773	0.14629
1090.33197	0.14868
1089.04620	0.15101
1087.76043	0.15331
1086.47466	0.15566
1085.18889	0.15808
1083.90312	0.16055
1082.61735	0.16304
1081.33158	0.16562
1080.04581	0.16833
1078.76005	0.17118
1077.47428	0.17415
1076.18851	0.17723
1074.90274	0.18043
1073.61697	0.18379
1072.33120	0.18726
1071.04543	0.19079
1069.75966	0.19434
1068.47390	0.19792
1067.18813	0.20156
1065.90236	0.20532
1064.61659	0.20922
1063.33082	0.21321
1062.04505	0.21721
1060.75928	0.22119
1059.47351	0.22509
1058.18774	0.22893
1056.90198	0.23271
1055.61621	0.23645
1054.33044	0.24016
1053.04467	0.24388
1051.75890	0.24762
1050.47313	0.25141
1049.18736	0.25528
1047.90159	0.25921
1046.61583	0.26321
1045.33006	0.26727
1044.04429	0.27140
1042.75852	0.27562
1041.47275	0.27993
1040.18698	0.28429
1038.90121	0.28869
1037.61544	0.29309
1036.32967	0.29745
1035.04391	0.30170
1033.75814	0.30577
1032.47237	0.30961
1031.18660	0.31323
1029.90083	0.31663
1028.61506	0.31975
1027.32929	0.32252
1026.04352	0.32489
1024.75775	0.32688
1023.47199	0.32854
1022.18622	0.32984
1020.90045	0.33068
1019.61468	0.33101
1018.32891	0.33081
1017.04314	0.33008
1015.75737	0.32882
1014.47160	0.32700
1013.18584	0.32459
1011.90007	0.32153
1010.61430	0.31788
1009.32853	0.31371
1008.04276	0.30909
1006.75699	0.30397
1005.47122	0.29832
1004.18545	0.29220
1002.89968	0.28572
1001.61392	0.27892
1000.32815	0.27178
999.04238	0.26424
997.75661	0.25633
996.47084	0.24817
995.18507	0.23994
993.89930	0.23179
992.61353	0.22370
991.32777	0.21564
990.04200	0.20760
988.75623	0.19971
987.47046	0.19204
986.18469	0.18460
984.89892	0.17731
983.61315	0.17019
982.32738	0.16334
981.04161	0.15688
979.75585	0.15085
978.47008	0.14523
977.18431	0.14004
975.89854	0.13530
974.61277	0.13109
973.32700	0.12745
972.04123	0.12443
970.75546	0.12207
969.46970	0.12043
968.18393	0.11949
966.89816	0.11924
965.61239	0.11958
964.32662	0.12027
963.04085	0.12094
961.75508	0.12123
960.46931	0.12091
959.18354	0.11999
957.89778	0.11853
956.61201	0.11658
955.32624	0.11421
954.04047	0.11157
952.75470	0.10876
951.46893	0.10586
950.18316	0.10296
948.89739	0.10013
947.61163	0.09739
946.32586	0.09469
945.04009	0.09201
943.75432	0.08937
942.46855	0.08687
941.18278	0.08453
939.89701	0.08232
938.61124	0.08021
937.32547	0.07817
936.03971	0.07622
934.75394	0.07438
933.46817	0.07266
932.18240	0.07102
930.89663	0.06947
929.61086	0.06800
928.32509	0.06662
927.03932	0.06531
925.75356	0.06407
924.46779	0.06289
923.18202	0.06179
921.89625	0.06076
920.61048	0.05981
919.32471	0.05895
918.03894	0.05821
916.75317	0.05756
915.46740	0.05692
914.18164	0.05624
912.89587	0.05550
911.61010	0.05476
910.32433	0.05411
909.03856	0.05358
907.75279	0.05314
906.46702	0.05272
905.18125	0.05233
903.89549	0.05197
902.60972	0.05158
901.32395	0.05108
900.03818	0.05047
898.75241	0.04988
897.46664	0.04937
896.18087	0.04889
894.89510	0.04840
893.60933	0.04802
892.32357	0.04791
891.03780	0.04809
889.75203	0.04848
888.46626	0.04902
887.18049	0.04984
885.89472	0.05111
884.60895	0.05301
883.32318	0.05557
882.03742	0.05863
880.75165	0.06179
879.46588	0.06462
878.18011	0.06696
876.89434	0.06903
875.60857	0.07110
874.32280	0.07317
873.03703	0.07490
871.75126	0.07590
870.46550	0.07594
869.17973	0.07503
867.89396	0.07332
866.60819	0.07098
865.32242	0.06825
864.03665	0.06538
862.75088	0.06262
861.46511	0.06013
860.17935	0.05797
858.89358	0.05611
857.60781	0.05447
856.32204	0.05301
855.03627	0.05175
853.75050	0.05067
852.46473	0.04974
851.17896	0.04890
849.89319	0.04813
848.60743	0.04751
847.32166	0.04702
846.03589	0.04660
844.75012	0.04616
843.46435	0.04572
842.17858	0.04537
840.89281	0.04508
839.60704	0.04480
838.32128	0.04449
837.03551	0.04416
835.74974	0.04382
834.46397	0.04350
833.17820	0.04323
831.89243	0.04303
830.60666	0.04288
829.32089	0.04274
828.03512	0.04259
826.74936	0.04246
825.46359	0.04237
824.17782	0.04235
822.89205	0.04237
821.60628	0.04235
820.32051	0.04219
819.03474	0.04188
817.74897	0.04151
816.46321	0.04119
815.17744	0.04099
813.89167	0.04092
812.60590	0.04099
811.32013	0.04117
810.03436	0.04134
808.74859	0.04139
807.46282	0.04127
806.17705	0.04105
804.89129	0.04084
803.60552	0.04074
802.31975	0.04073
801.03398	0.04072
799.74821	0.04065
798.46244	0.04053
797.17667	0.04045
795.89090	0.04047
794.60513	0.04051
793.31937	0.04046
792.03360	0.04031
790.74783	0.04017
789.46206	0.04007
788.17629	0.03996
786.89052	0.03982
785.60475	0.03970
784.31898	0.03968
783.03322	0.03978
781.74745	0.03994
780.46168	0.04005
779.17591	0.04002
777.89014	0.03989
776.60437	0.03974
775.31860	0.03967
774.03283	0.03969
772.74706	0.03976
771.46130	0.03985
770.17553	0.03993
768.88976	0.03995
767.60399	0.03988
766.31822	0.03975
765.03245	0.03968
763.74668	0.03969
762.46091	0.03976
761.17515	0.03984
759.88938	0.03987
758.60361	0.03987
757.31784	0.03982
756.03207	0.03969
754.74630	0.03951
753.46053	0.03937
752.17476	0.03933
750.88899	0.03936
749.60323	0.03935
748.31746	0.03925
747.03169	0.03913
745.74592	0.03908
744.46015	0.03912
743.17438	0.03915
741.88861	0.03913
740.60284	0.03907
739.31708	0.03901
738.03131	0.03898
736.74554	0.03896
735.45977	0.03897
734.17400	0.03901
732.88823	0.03906
731.60246	0.03907
730.31669	0.03899
729.03092	0.03880
727.74516	0.03862
726.45939	0.03852
725.17362	0.03851
723.88785	0.03847
722.60208	0.03865
721.31631	0.03894
720.03054	0.03917
718.74477	0.03931
717.45901	0.03934
716.17324	0.03929
714.88747	0.03917
713.60170	0.03899
712.31593	0.03882
711.03016	0.03873
709.74439	0.03873
708.45862	0.03876
707.17285	0.03876
705.88709	0.03870
704.60132	0.03858
703.31555	0.03846
702.02978	0.03836
700.74401	0.03833
699.45824	0.03837
698.17247	0.03846
696.88670	0.03855
695.60094	0.03858
694.31517	0.03856
693.02940	0.03855
691.74363	0.03858
690.45786	0.03865
689.17209	0.03867
687.88632	0.03862
686.60055	0.03849
685.31478	0.03830
684.02902	0.03809
682.74325	0.03788
681.45748	0.03774
680.17171	0.03767
678.88594	0.03769
677.60017	0.03775
676.31440	0.03781
675.02863	0.03786
673.74287	0.03793
672.45710	0.03804
671.17133	0.03822
669.88556	0.03844
668.59979	0.03864
667.31402	0.03872
666.02825	0.03861
664.74248	0.03833
663.45671	0.03797
662.17095	0.03764
660.88518	0.03738
659.59941	0.03719
658.31364	0.03704
657.02787	0.03689
655.74210	0.03676
654.45633	0.03664
653.17056	0.03658
651.88480	0.03656
650.59903	0.03658
649.31326	0.03660
648.02749	0.03660
646.74172	0.03656
645.45595	0.03650
644.17018	0.03644
642.88441	0.03643
641.59864	0.03647
640.31288	0.03655
639.02711	0.03664
637.74134	0.03679
636.45557	0.03704
635.16980	0.03747
633.88403	0.03803
632.59826	0.03866
631.31249	0.03925
630.02673	0.03946
628.74096	0.03953
627.45519	0.04087
626.16942	0.04130
624.88365	0.04129
623.59788	0.04190
622.31211	0.04385
621.02634	0.04749
619.74057	0.05253
618.45481	0.05809
617.16904	0.06321
615.88327	0.06741
614.59750	0.07092
613.31173	0.07447
612.02596	0.07892
610.74019	0.08477
609.45442	0.09180
608.16866	0.09902
606.88289	0.10525
605.59712	0.10979
604.31135	0.11261
603.02558	0.11416
601.73981	0.11476
600.45404	0.11434
599.16827	0.11277
597.88250	0.11030
596.59674	0.10751
595.31097	0.10503
594.02520	0.10311
592.73943	0.10171
591.45366	0.10067
590.16789	0.09996
588.88212	0.09969
587.59635	0.10004
586.31059	0.10114
585.02482	0.10292
583.73905	0.10527
582.45328	0.10802
581.16751	0.11106
579.88174	0.11429
578.59597	0.11758
577.31020	0.12077
576.02443	0.12377
574.73867	0.12649
573.45290	0.12893
572.16713	0.13126
570.88136	0.13384
569.59559	0.13708
568.30982	0.14111
567.02405	0.14559
565.73828	0.14990
564.45251	0.15356
563.16675	0.15631
561.88098	0.15796
560.59521	0.15817
559.30944	0.15651
558.02367	0.15284
556.73790	0.14742
555.45213	0.14085
554.16636	0.13377
552.88060	0.12665
551.59483	0.11976
550.30906	0.11325
549.02329	0.10721
547.73752	0.10173
546.45175	0.09685
545.16598	0.09252
543.88021	0.08859
542.59444	0.08496
541.30868	0.08160
540.02291	0.07853
538.73714	0.07575
537.45137	0.07319
536.16560	0.07078
534.87983	0.06846
533.59406	0.06629
532.30829	0.06430
531.02253	0.06249
529.73676	0.06085
528.45099	0.05933
527.16522	0.05788
525.87945	0.05647
524.59368	0.05507
523.30791	0.05372
522.02214	0.05246
520.73637	0.05130
519.45061	0.05024
518.16484	0.04923
516.87907	0.04825
515.59330	0.04726
514.30753	0.04630
513.02176	0.04543
511.73599	0.04473
510.45022	0.04420
509.16446	0.04369
507.87869	0.04307
506.59292	0.04230
505.30715	0.04148
504.02138	0.04078
502.73561	0.04025
501.44984	0.03986
500.16407	0.03948
498.87830	0.03904
497.59254	0.03856
496.30677	0.03810
495.02100	0.03771
493.73523	0.03740
492.44946	0.03717
491.16369	0.03698
489.87792	0.03676
488.59215	0.03648
487.30639	0.03615
486.02062	0.03586
484.73485	0.03568
483.44908	0.03561
482.16331	0.03563
480.87754	0.03569
479.59177	0.03582
478.30600	0.03604
477.02023	0.03635
475.73447	0.03672
474.44870	0.03710
473.16293	0.03742
471.87716	0.03761
470.59139	0.03761
469.30562	0.03744
468.01985	0.03719
466.73408	0.03689
465.44832	0.03655
464.16255	0.03615
462.87678	0.03570
461.59101	0.03523
460.30524	0.03476
459.01947	0.03429
457.73370	0.03387
456.44793	0.03354
455.16216	0.03329
453.87640	0.03303
452.59063	0.03271
451.30486	0.03233
450.01909	0.03196
448.73332	0.03167
447.44755	0.03146
446.16178	0.03128
444.87601	0.03108
443.59025	0.03089
442.30448	0.03077
441.01871	0.03070
439.73294	0.03063
438.44717	0.03049
437.16140	0.03031
435.87563	0.03014
434.58986	0.03000
433.30409	0.02992
432.01833	0.02985
430.73256	0.02975
429.44679	0.02961
428.16102	0.02945
426.87525	0.02931
425.58948	0.02921
424.30371	0.02911
423.01794	0.02899
421.73218	0.02885
420.44641	0.02869
419.16064	0.02851
417.87487	0.02833
416.58910	0.02819
415.30333	0.02811
414.01756	0.02809
412.73179	0.02811
411.44602	0.02813
410.16026	0.02814
408.87449	0.02811
407.58872	0.02808
406.30295	0.02804
405.01718	0.02803
403.73141	0.02804
402.44564	0.02811
401.15987	0.02823
399.87411	0.02840
