3997.45528	0.02797
3996.16951	0.02742
3994.88374	0.02718
3993.59798	0.02756
3992.31221	0.02853
3991.02644	0.02964
3989.74067	0.03035
3988.45490	0.03046
3987.16913	0.03022
3985.88336	0.03007
3984.59759	0.03017
3983.31183	0.03025
3982.02606	0.02995
3980.74029	0.02909
3979.45452	0.02784
3978.16875	0.02666
3976.88298	0.02598
3975.59721	0.02599
3974.31144	0.02654
3973.02567	0.02733
3971.73991	0.02806
3970.45414	0.02845
3969.16837	0.02827
3967.88260	0.02755
3966.59683	0.02669
3965.31106	0.02614
3964.02529	0.02614
3962.73952	0.02654
3961.45376	0.02698
3960.16799	0.02710
3958.88222	0.02677
3957.59645	0.02622
3956.31068	0.02591
3955.02491	0.02619
3953.73914	0.02692
3952.45337	0.02765
3951.16760	0.02801
3949.88184	0.02801
3948.59607	0.02781
3947.31030	0.02756
3946.02453	0.02739
3944.73876	0.02742
3943.45299	0.02760
3942.16722	0.02764
3940.88145	0.02734
3939.59569	0.02681
3938.30992	0.02641
3937.02415	0.02628
3935.73838	0.02627
3934.45261	0.02621
3933.16684	0.02621
3931.88107	0.02651
3930.59530	0.02710
3929.30953	0.02758
3928.02377	0.02762
3926.73800	0.02730
3925.45223	0.02706
3924.16646	0.02722
3922.88069	0.02770
3921.59492	0.02822
3920.30915	0.02865
3919.02338	0.02901
3917.73762	0.02920
3916.45185	0.02912
3915.16608	0.02878
3913.88031	0.02838
3912.59454	0.02809
3911.30877	0.02796
3910.02300	0.02785
3908.73723	0.02765
3907.45146	0.02725
3906.16570	0.02667
3904.87993	0.02609
3903.59416	0.02568
3902.30839	0.02535
3901.02262	0.02489
3899.73685	0.02436
3898.45108	0.02414
3897.16531	0.02448
3895.87955	0.02517
3894.59378	0.02567
3893.30801	0.02559
3892.02224	0.02504
3890.73647	0.02446
3889.45070	0.02424
3888.16493	0.02449
3886.87916	0.02520
3885.59339	0.02608
3884.30763	0.02643
3883.02186	0.02575
3881.73609	0.02437
3880.45032	0.02319
3879.16455	0.02282
3877.87878	0.02317
3876.59301	0.02385
3875.30724	0.02453
3874.02148	0.02498
3872.73571	0.02507
3871.44994	0.02499
3870.16417	0.02515
3868.87840	0.02560
3867.59263	0.02586
3866.30686	0.02564
3865.02109	0.02523
3863.73532	0.02501
3862.44956	0.02501
3861.16379	0.02511
3859.87802	0.02526
3858.59225	0.02537
3857.30648	0.02522
3856.02071	0.02468
3854.73494	0.02410
3853.44917	0.02407
3852.16341	0.02470
3850.87764	0.02542
3849.59187	0.02566
3848.30610	0.02543
3847.02033	0.02508
3845.73456	0.02486
3844.44879	0.02473
3843.16302	0.02454
3841.87725	0.02428
3840.59149	0.02410
3839.30572	0.02411
3838.01995	0.02432
3836.73418	0.02456
3835.44841	0.02471
3834.16264	0.02485
3832.87687	0.02512
3831.59110	0.02544
3830.30534	0.02559
3829.01957	0.02557
3827.73380	0.02558
3826.44803	0.02563
3825.16226	0.02544
3823.87649	0.02490
3822.59072	0.02440
3821.30495	0.02457
3820.01918	0.02540
3818.73342	0.02614
3817.44765	0.02622
3816.16188	0.02585
3814.87611	0.02543
3813.59034	0.02498
3812.30457	0.02445
3811.01880	0.02404
3809.73303	0.02390
3808.44726	0.02391
3807.16150	0.02396
3805.87573	0.02399
3804.58996	0.02385
3803.30419	0.02347
3802.01842	0.02318
3800.73265	0.02334
3799.44688	0.02377
3798.16111	0.02405
3796.87535	0.02418
3795.58958	0.02451
3794.30381	0.02511
3793.01804	0.02557
3791.73227	0.02546
3790.44650	0.02472
3789.16073	0.02375
3787.87496	0.02302
3786.58919	0.02274
3785.30343	0.02285
3784.01766	0.02314
3782.73189	0.02339
3781.44612	0.02342
3780.16035	0.02327
3778.87458	0.02312
3777.58881	0.02298
3776.30304	0.02273
3775.01728	0.02238
3773.73151	0.02212
3772.44574	0.02203
3771.15997	0.02208
3769.87420	0.02235
3768.58843	0.02286
3767.30266	0.02343
3766.01689	0.02382
3764.73112	0.02399
3763.44536	0.02404
3762.15959	0.02399
3760.87382	0.02379
3759.58805	0.02347
3758.30228	0.02320
3757.01651	0.02318
3755.73074	0.02334
3754.44497	0.02333
3753.15921	0.02304
3751.87344	0.02280
3750.58767	0.02303
3749.30190	0.02370
3748.01613	0.02439
3746.73036	0.02470
3745.44459	0.02475
3744.15882	0.02495
3742.87305	0.02519
3741.58729	0.02504
3740.30152	0.02472
3739.01575	0.02481
3737.72998	0.02543
3736.44421	0.02615
3735.15844	0.02653
3733.87267	0.02649
3732.58690	0.02631
3731.30114	0.02617
3730.01537	0.02582
3728.72960	0.02500
3727.44383	0.02392
3726.15806	0.02310
3724.87229	0.02272
3723.58652	0.02256
3722.30075	0.02243
3721.01498	0.02217
3719.72922	0.02170
3718.44345	0.02114
3717.15768	0.02086
3715.87191	0.02108
3714.58614	0.02176
3713.30037	0.02271
3712.01460	0.02363
3710.72883	0.02424
3709.44307	0.02444
3708.15730	0.02448
3706.87153	0.02462
3705.58576	0.02477
3704.29999	0.02466
3703.01422	0.02427
3701.72845	0.02387
3700.44268	0.02354
3699.15691	0.02308
3697.87115	0.02241
3696.58538	0.02186
3695.29961	0.02179
3694.01384	0.02214
3692.72807	0.02249
3691.44230	0.02247
3690.15653	0.02205
3688.87076	0.02151
3687.58500	0.02111
3686.29923	0.02076
3685.01346	0.02034
3683.72769	0.02010
3682.44192	0.02040
3681.15615	0.02119
3679.87038	0.02194
3678.58461	0.02209
3677.29884	0.02163
3676.01308	0.02121
3674.72731	0.02138
3673.44154	0.02192
3672.15577	0.02219
3670.87000	0.02199
3669.58423	0.02156
3668.29846	0.02103
3667.01269	0.02049
3665.72693	0.02015
3664.44116	0.02016
3663.15539	0.02043
3661.86962	0.02081
3660.58385	0.02123
3659.29808	0.02165
3658.01231	0.02190
3656.72654	0.02178
3655.44077	0.02123
3654.15501	0.02043
3652.86924	0.01985
3651.58347	0.01996
3650.29770	0.02079
3649.01193	0.02184
3647.72616	0.02253
3646.44039	0.02260
3645.15462	0.02219
3643.86886	0.02168
3642.58309	0.02140
3641.29732	0.02145
3640.01155	0.02166
3638.72578	0.02183
3637.44001	0.02193
3636.15424	0.02203
3634.86847	0.02213
3633.58270	0.02205
3632.29694	0.02158
3631.01117	0.02083
3629.72540	0.02025
3628.43963	0.02019
3627.15386	0.02049
3625.86809	0.02079
3624.58232	0.02109
3623.29655	0.02160
3622.01079	0.02224
3620.72502	0.02269
3619.43925	0.02274
3618.15348	0.02246
3616.86771	0.02206
3615.58194	0.02170
3614.29617	0.02139
3613.01040	0.02108
3611.72463	0.02072
3610.43887	0.02039
3609.15310	0.02034
3607.86733	0.02073
3606.58156	0.02143
3605.29579	0.02210
3604.01002	0.02250
3602.72425	0.02264
3601.43848	0.02263
3600.15272	0.02256
3598.86695	0.02230
3597.58118	0.02182
3596.29541	0.02133
3595.00964	0.02111
3593.72387	0.02113
3592.43810	0.02107
3591.15233	0.02069
3589.86656	0.02013
3588.58080	0.01981
3587.29503	0.02000
3586.00926	0.02057
3584.72349	0.02118
3583.43772	0.02168
3582.15195	0.02212
3580.86618	0.02249
3579.58041	0.02262
3578.29464	0.02235
3577.00888	0.02175
3575.72311	0.02109
3574.43734	0.02067
3573.15157	0.02063
3571.86580	0.02091
3570.58003	0.02136
3569.29426	0.02181
3568.00849	0.02209
3566.72273	0.02209
3565.43696	0.02179
3564.15119	0.02126
3562.86542	0.02059
3561.57965	0.01983
3560.29388	0.01913
3559.00811	0.01886
3557.72234	0.01924
3556.43657	0.02007
3555.15081	0.02079
3553.86504	0.02092
3552.57927	0.02049
3551.29350	0.01985
3550.00773	0.01942
3548.72196	0.01946
3547.43619	0.02004
3546.15042	0.02094
3544.86466	0.02175
3543.57889	0.02207
3542.29312	0.02181
3541.00735	0.02121
3539.72158	0.02057
3538.43581	0.02009
3537.15004	0.01982
3535.86427	0.01976
3534.57850	0.01986
3533.29274	0.02007
3532.00697	0.02032
3530.72120	0.02057
3529.43543	0.02077
3528.14966	0.02088
3526.86389	0.02097
3525.57812	0.02125
3524.29235	0.02179
3523.00659	0.02235
3521.72082	0.02259
3520.43505	0.02234
3519.14928	0.02182
3517.86351	0.02137
3516.57774	0.02128
3515.29197	0.02160
3514.00620	0.02216
3512.72043	0.02259
3511.43467	0.02264
3510.14890	0.02237
3508.86313	0.02205
3507.57736	0.02174
3506.29159	0.02134
3505.00582	0.02090
3503.72005	0.02070
3502.43428	0.02095
3501.14852	0.02144
3499.86275	0.02179
3498.57698	0.02185
3497.29121	0.02178
3496.00544	0.02174
3494.71967	0.02170
3493.43390	0.02163
3492.14813	0.02165
3490.86236	0.02188
3489.57660	0.02218
3488.29083	0.02225
3487.00506	0.02198
3485.71929	0.02158
3484.43352	0.02136
3483.14775	0.02138
3481.86198	0.02152
3480.57621	0.02159
3479.29045	0.02147
3478.00468	0.02118
3476.71891	0.02088
3475.43314	0.02089
3474.14737	0.02131
3472.86160	0.02190
3471.57583	0.02226
3470.29006	0.02222
3469.00429	0.02193
3467.71853	0.02159
3466.43276	0.02119
3465.14699	0.02065
3463.86122	0.02003
3462.57545	0.01951
3461.28968	0.01923
3460.00391	0.01921
3458.71814	0.01944
3457.43238	0.01988
3456.14661	0.02035
3454.86084	0.02066
3453.57507	0.02074
3452.28930	0.02067
3451.00353	0.02062
3449.71776	0.02065
3448.43199	0.02071
3447.14622	0.02077
3445.86046	0.02090
3444.57469	0.02115
3443.28892	0.02144
3442.00315	0.02161
3440.71738	0.02160
3439.43161	0.02148
3438.14584	0.02144
3436.86007	0.02166
3435.57431	0.02211
3434.28854	0.02244
3433.00277	0.02217
3431.71700	0.02125
3430.43123	0.02022
3429.14546	0.01980
3427.85969	0.02022
3426.57392	0.02104
3425.28815	0.02167
3424.00239	0.02186
3422.71662	0.02174
3421.43085	0.02144
3420.14508	0.02105
3418.85931	0.02063
3417.57354	0.02027
3416.28777	0.02003
3415.00200	0.01999
3413.71624	0.02018
3412.43047	0.02050
3411.14470	0.02064
3409.85893	0.02043
3408.57316	0.02008
3407.28739	0.02001
3406.00162	0.02044
3404.71585	0.02117
3403.43008	0.02180
3402.14432	0.02209
3400.85855	0.02198
3399.57278	0.02159
3398.28701	0.02108
3397.00124	0.02061
3395.71547	0.02037
3394.42970	0.02038
3393.14393	0.02049
3391.85817	0.02051
3390.57240	0.02040
3389.28663	0.02031
3388.00086	0.02035
3386.71509	0.02054
3385.42932	0.02080
3384.14355	0.02099
3382.85778	0.02102
3381.57201	0.02098
3380.28625	0.02105
3379.00048	0.02130
3377.71471	0.02156
3376.42894	0.02164
3375.14317	0.02151
3373.85740	0.02123
3372.57163	0.02081
3371.28586	0.02021
3370.00010	0.01960
3368.71433	0.01936
3367.42856	0.01973
3366.14279	0.02052
3364.85702	0.02120
3363.57125	0.02144
3362.28548	0.02129
3360.99971	0.02105
3359.71394	0.02085
3358.42818	0.02066
3357.14241	0.02046
3355.85664	0.02040
3354.57087	0.02066
3353.28510	0.02118
3351.99933	0.02169
3350.71356	0.02199
3349.42779	0.02204
3348.14202	0.02195
3346.85626	0.02181
3345.57049	0.02165
3344.28472	0.02149
3342.99895	0.02138
3341.71318	0.02134
3340.42741	0.02129
3339.14164	0.02114
3337.85587	0.02092
3336.57011	0.02089
3335.28434	0.02125
3333.99857	0.02194
3332.71280	0.02269
3331.42703	0.02319
3330.14126	0.02335
3328.85549	0.02324
3327.56972	0.02300
3326.28395	0.02280
3324.99819	0.02275
3323.71242	0.02291
3322.42665	0.02328
3321.14088	0.02378
3319.85511	0.02418
3318.56934	0.02431
3317.28357	0.02415
3315.99780	0.02397
3314.71204	0.02402
3313.42627	0.02426
3312.14050	0.02440
3310.85473	0.02425
3309.56896	0.02392
3308.28319	0.02364
3306.99742	0.02353
3305.71165	0.02350
3304.42588	0.02350
3303.14012	0.02351
3301.85435	0.02353
3300.56858	0.02347
3299.28281	0.02325
3297.99704	0.02293
3296.71127	0.02263
3295.42550	0.02244
3294.13973	0.02235
3292.85397	0.02224
3291.56820	0.02195
3290.28243	0.02144
3288.99666	0.02090
3287.71089	0.02059
3286.42512	0.02068
3285.13935	0.02116
3283.85358	0.02194
3282.56781	0.02281
3281.28205	0.02353
3279.99628	0.02390
3278.71051	0.02397
3277.42474	0.02394
3276.13897	0.02390
3274.85320	0.02376
3273.56743	0.02351
3272.28166	0.02326
3270.99590	0.02315
3269.71013	0.02319
3268.42436	0.02322
3267.13859	0.02311
3265.85282	0.02294
3264.56705	0.02292
3263.28128	0.02320
3261.99551	0.02368
3260.70974	0.02413
3259.42398	0.02438
3258.13821	0.02444
3256.85244	0.02433
3255.56667	0.02402
3254.28090	0.02344
3252.99513	0.02269
3251.70936	0.02202
3250.42359	0.02171
3249.13783	0.02191
3247.85206	0.02257
3246.56629	0.02349
3245.28052	0.02431
3243.99475	0.02471
3242.70898	0.02452
3241.42321	0.02389
3240.13744	0.02320
3238.85167	0.02283
3237.56591	0.02293
3236.28014	0.02325
3234.99437	0.02343
3233.70860	0.02334
3232.42283	0.02312
3231.13706	0.02298
3229.85129	0.02290
3228.56552	0.02280
3227.27976	0.02264
3225.99399	0.02246
3224.70822	0.02229
3223.42245	0.02212
3222.13668	0.02200
3220.85091	0.02200
3219.56514	0.02207
3218.27937	0.02212
3216.99360	0.02214
3215.70784	0.02215
3214.42207	0.02220
3213.13630	0.02230
3211.85053	0.02240
3210.56476	0.02243
3209.27899	0.02233
3207.99322	0.02217
3206.70745	0.02208
3205.42169	0.02214
3204.13592	0.02227
3202.85015	0.02239
3201.56438	0.02243
3200.27861	0.02235
3198.99284	0.02216
3197.70707	0.02188
3196.42130	0.02167
3195.13553	0.02164
3193.84977	0.02186
3192.56400	0.02228
3191.27823	0.02278
3189.99246	0.02319
3188.70669	0.02334
3187.42092	0.02316
3186.13515	0.02279
3184.84938	0.02250
3183.56362	0.02245
3182.27785	0.02259
3180.99208	0.02266
3179.70631	0.02251
3178.42054	0.02216
3177.13477	0.02178
3175.84900	0.02152
3174.56323	0.02141
3173.27746	0.02144
3171.99170	0.02157
3170.70593	0.02174
3169.42016	0.02191
3168.13439	0.02202
3166.84862	0.02207
3165.56285	0.02212
3164.27708	0.02215
3162.99131	0.02210
3161.70555	0.02191
3160.41978	0.02164
3159.13401	0.02142
3157.84824	0.02132
3156.56247	0.02129
3155.27670	0.02131
3153.99093	0.02136
3152.70516	0.02143
3151.41939	0.02149
3150.13363	0.02156
3148.84786	0.02167
3147.56209	0.02184
3146.27632	0.02197
3144.99055	0.02198
3143.70478	0.02184
3142.41901	0.02165
3141.13324	0.02151
3139.84748	0.02144
3138.56171	0.02143
3137.27594	0.02142
3135.99017	0.02145
3134.70440	0.02155
3133.41863	0.02166
3132.13286	0.02170
3130.84709	0.02162
3129.56132	0.02141
3128.27556	0.02109
3126.98979	0.02073
3125.70402	0.02050
3124.41825	0.02051
3123.13248	0.02072
3121.84671	0.02095
3120.56094	0.02105
3119.27517	0.02102
3117.98940	0.02094
3116.70364	0.02087
3115.41787	0.02082
3114.13210	0.02081
3112.84633	0.02090
3111.56056	0.02116
3110.27479	0.02153
3108.98902	0.02185
3107.70325	0.02191
3106.41749	0.02158
3105.13172	0.02096
3103.84595	0.02031
3102.56018	0.01994
3101.27441	0.01995
3099.98864	0.02020
3098.70287	0.02046
3097.41710	0.02059
3096.13133	0.02061
3094.84557	0.02062
3093.55980	0.02068
3092.27403	0.02083
3090.98826	0.02102
3089.70249	0.02111
3088.41672	0.02102
3087.13095	0.02076
3085.84518	0.02050
3084.55942	0.02035
3083.27365	0.02033
3081.98788	0.02035
3080.70211	0.02033
3079.41634	0.02021
3078.13057	0.02005
3076.84480	0.01997
3075.55903	0.02007
3074.27326	0.02034
3072.98750	0.02072
3071.70173	0.02105
3070.41596	0.02121
3069.13019	0.02112
3067.84442	0.02081
3066.55865	0.02049
3065.27288	0.02035
3063.98711	0.02040
3062.70135	0.02045
3061.41558	0.02042
3060.12981	0.02042
3058.84404	0.02059
3057.55827	0.02087
3056.27250	0.02105
3054.98673	0.02099
3053.70096	0.02080
3052.41519	0.02062
3051.12943	0.02054
3049.84366	0.02048
3048.55789	0.02037
3047.27212	0.02027
3045.98635	0.02032
3044.70058	0.02061
3043.41481	0.02099
3042.12904	0.02123
3040.84328	0.02118
3039.55751	0.02084
3038.27174	0.02036
3036.98597	0.01988
3035.70020	0.01950
3034.41443	0.01924
3033.12866	0.01908
3031.84289	0.01901
3030.55712	0.01909
3029.27136	0.01935
3027.98559	0.01967
3026.69982	0.01985
3025.41405	0.01978
3024.12828	0.01953
3022.84251	0.01930
3021.55674	0.01921
3020.27097	0.01926
3018.98521	0.01937
3017.69944	0.01949
3016.41367	0.01963
3015.12790	0.01977
3013.84213	0.01984
3012.55636	0.01972
3011.27059	0.01933
3009.98482	0.01886
3008.69905	0.01860
3007.41329	0.01870
3006.12752	0.01902
3004.84175	0.01932
3003.55598	0.01944
3002.27021	0.01937
3000.98444	0.01916
2999.69867	0.01889
2998.41290	0.01856
2997.12714	0.01836
2995.84137	0.01839
2994.55560	0.01858
2993.26983	0.01880
2991.98406	0.01891
2990.69829	0.01889
2989.41252	0.01880
2988.12675	0.01875
2986.84098	0.01882
2985.55522	0.01900
2984.26945	0.01916
2982.98368	0.01918
2981.69791	0.01911
2980.41214	0.01909
2979.12637	0.01924
2977.84060	0.01954
2976.55483	0.01989
2975.26907	0.02018
2973.98330	0.02038
2972.69753	0.02044
2971.41176	0.02034
2970.12599	0.02008
2968.84022	0.01973
2967.55445	0.01953
2966.26868	0.01968
2964.98291	0.02010
2963.69715	0.02055
2962.41138	0.02082
2961.12561	0.02098
2959.83984	0.02119
2958.55407	0.02150
2957.26830	0.02188
2955.98253	0.02225
2954.69676	0.02251
2953.41100	0.02255
2952.12523	0.02228
2950.83946	0.02185
2949.55369	0.02151
2948.26792	0.02144
2946.98215	0.02165
2945.69638	0.02197
2944.41061	0.02215
2943.12484	0.02211
2941.83908	0.02199
2940.55331	0.02206
2939.26754	0.02240
2937.98177	0.02281
2936.69600	0.02305
2935.41023	0.02308
2934.12446	0.02300
2932.83869	0.02293
2931.55293	0.02297
2930.26716	0.02317
2928.98139	0.02349
2927.69562	0.02378
2926.40985	0.02394
2925.12408	0.02396
2923.83831	0.02387
2922.55254	0.02367
2921.26677	0.02344
2919.98101	0.02339
2918.69524	0.02364
2917.40947	0.02408
2916.12370	0.02440
2914.83793	0.02434
2913.55216	0.02391
2912.26639	0.02330
2910.98062	0.02275
2909.69486	0.02247
2908.40909	0.02249
2907.12332	0.02264
2905.83755	0.02271
2904.55178	0.02268
2903.26601	0.02270
2901.98024	0.02280
2900.69447	0.02282
2899.40870	0.02259
2898.12294	0.02215
2896.83717	0.02170
2895.55140	0.02135
2894.26563	0.02104
2892.97986	0.02074
2891.69409	0.02046
2890.40832	0.02027
2889.12255	0.02018
2887.83678	0.02018
2886.55102	0.02026
2885.26525	0.02038
2883.97948	0.02043
2882.69371	0.02037
2881.40794	0.02028
2880.12217	0.02029
2878.83640	0.02036
2877.55063	0.02036
2876.26487	0.02027
2874.97910	0.02016
2873.69333	0.02015
2872.40756	0.02021
2871.12179	0.02029
2869.83602	0.02033
2868.55025	0.02033
2867.26448	0.02035
2865.97871	0.02041
2864.69295	0.02045
2863.40718	0.02044
2862.12141	0.02040
2860.83564	0.02038
2859.54987	0.02041
2858.26410	0.02053
2856.97833	0.02080
2855.69256	0.02117
2854.40680	0.02150
2853.12103	0.02171
2851.83526	0.02176
2850.54949	0.02167
2849.26372	0.02147
2847.97795	0.02118
2846.69218	0.02088
2845.40641	0.02060
2844.12064	0.02034
2842.83488	0.02013
2841.54911	0.02000
2840.26334	0.01993
2838.97757	0.01978
2837.69180	0.01942
2836.40603	0.01892
2835.12026	0.01849
2833.83449	0.01835
2832.54873	0.01849
2831.26296	0.01873
2829.97719	0.01891
2828.69142	0.01901
2827.40565	0.01907
2826.11988	0.01907
2824.83411	0.01900
2823.54834	0.01884
2822.26257	0.01861
2820.97681	0.01834
2819.69104	0.01813
2818.40527	0.01808
2817.11950	0.01821
2815.83373	0.01838
2814.54796	0.01838
2813.26219	0.01813
2811.97642	0.01775
2810.69066	0.01747
2809.40489	0.01738
2808.11912	0.01742
2806.83335	0.01745
2805.54758	0.01738
2804.26181	0.01723
2802.97604	0.01710
2801.69027	0.01709
2800.40450	0.01722
2799.11874	0.01738
2797.83297	0.01735
2796.54720	0.01705
2795.26143	0.01669
2793.97566	0.01657
2792.68989	0.01678
2791.40412	0.01711
2790.11835	0.01737
2788.83259	0.01748
2787.54682	0.01747
2786.26105	0.01739
2784.97528	0.01728
2783.68951	0.01715
2782.40374	0.01701
2781.11797	0.01686
2779.83220	0.01676
2778.54643	0.01670
2777.26067	0.01665
2775.97490	0.01660
2774.68913	0.01659
2773.40336	0.01665
2772.11759	0.01673
2770.83182	0.01679
2769.54605	0.01678
2768.26028	0.01672
2766.97452	0.01661
2765.68875	0.01649
2764.40298	0.01634
2763.11721	0.01617
2761.83144	0.01599
2760.54567	0.01591
2759.25990	0.01601
2757.97413	0.01621
2756.68836	0.01637
2755.40260	0.01641
2754.11683	0.01641
2752.83106	0.01647
2751.54529	0.01654
2750.25952	0.01654
2748.97375	0.01647
2747.68798	0.01640
2746.40221	0.01636
2745.11645	0.01629
2743.83068	0.01616
2742.54491	0.01603
2741.25914	0.01597
2739.97337	0.01596
2738.68760	0.01590
2737.40183	0.01576
2736.11606	0.01569
2734.83029	0.01580
2733.54453	0.01598
2732.25876	0.01605
2730.97299	0.01595
2729.68722	0.01582
2728.40145	0.01580
2727.11568	0.01591
2725.82991	0.01608
2724.54414	0.01619
2723.25838	0.01618
2721.97261	0.01607
2720.68684	0.01592
2719.40107	0.01584
2718.11530	0.01584
2716.82953	0.01590
2715.54376	0.01594
2714.25799	0.01592
2712.97222	0.01583
2711.68646	0.01569
2710.40069	0.01555
2709.11492	0.01545
2707.82915	0.01539
2706.54338	0.01535
2705.25761	0.01530
2703.97184	0.01528
2702.68607	0.01534
2701.40031	0.01540
2700.11454	0.01539
2698.82877	0.01527
2697.54300	0.01511
2696.25723	0.01500
2694.97146	0.01495
2693.68569	0.01493
2692.39992	0.01491
2691.11415	0.01492
2689.82839	0.01498
2688.54262	0.01503
2687.25685	0.01500
2685.97108	0.01489
2684.68531	0.01482
2683.39954	0.01486
2682.11377	0.01494
2680.82800	0.01493
2679.54224	0.01479
2678.25647	0.01462
2676.97070	0.01457
2675.68493	0.01469
2674.39916	0.01488
2673.11339	0.01507
2671.82762	0.01521
2670.54185	0.01531
2669.25608	0.01539
2667.97032	0.01542
2666.68455	0.01539
2665.39878	0.01533
2664.11301	0.01529
2662.82724	0.01526
2661.54147	0.01517
2660.25570	0.01500
2658.96993	0.01480
2657.68417	0.01468
2656.39840	0.01463
2655.11263	0.01459
2653.82686	0.01448
2652.54109	0.01437
2651.25532	0.01434
2649.96955	0.01444
2648.68378	0.01458
2647.39801	0.01466
2646.11225	0.01462
2644.82648	0.01454
2643.54071	0.01453
2642.25494	0.01457
2640.96917	0.01453
2639.68340	0.01436
2638.39763	0.01410
2637.11186	0.01381
2635.82609	0.01355
2634.54033	0.01340
2633.25456	0.01350
2631.96879	0.01383
2630.68302	0.01413
2629.39725	0.01411
2628.11148	0.01378
2626.82571	0.01338
2625.53994	0.01312
2624.25418	0.01304
2622.96841	0.01309
2621.68264	0.01326
2620.39687	0.01350
2619.11110	0.01368
2617.82533	0.01370
2616.53956	0.01360
2615.25379	0.01346
2613.96802	0.01331
2612.68226	0.01312
2611.39649	0.01294
2610.11072	0.01287
2608.82495	0.01293
2607.53918	0.01300
2606.25341	0.01297
2604.96764	0.01288
2603.68187	0.01293
2602.39611	0.01324
2601.11034	0.01365
2599.82457	0.01388
2598.53880	0.01377
2597.25303	0.01344
2595.96726	0.01311
2594.68149	0.01295
2593.39572	0.01299
2592.10995	0.01312
2590.82419	0.01313
2589.53842	0.01292
2588.25265	0.01266
2586.96688	0.01255
2585.68111	0.01264
2584.39534	0.01283
2583.10957	0.01300
2581.82380	0.01305
2580.53804	0.01294
2579.25227	0.01273
2577.96650	0.01256
2576.68073	0.01247
2575.39496	0.01241
2574.10919	0.01230
2572.82342	0.01223
2571.53765	0.01231
2570.25188	0.01253
2568.96612	0.01279
2567.68035	0.01305
2566.39458	0.01327
2565.10881	0.01335
2563.82304	0.01324
2562.53727	0.01304
2561.25150	0.01288
2559.96573	0.01278
2558.67997	0.01261
2557.39420	0.01235
2556.10843	0.01216
2554.82266	0.01219
2553.53689	0.01239
2552.25112	0.01261
2550.96535	0.01270
2549.67958	0.01263
2548.39381	0.01247
2547.10805	0.01230
2545.82228	0.01215
2544.53651	0.01201
2543.25074	0.01190
2541.96497	0.01185
2540.67920	0.01190
2539.39343	0.01196
2538.10766	0.01196
2536.82190	0.01183
2535.53613	0.01161
2534.25036	0.01138
2532.96459	0.01121
2531.67882	0.01116
2530.39305	0.01127
2529.10728	0.01157
2527.82151	0.01199
2526.53574	0.01244
2525.24998	0.01281
2523.96421	0.01300
2522.67844	0.01290
2521.39267	0.01255
2520.10690	0.01222
2518.82113	0.01213
2517.53536	0.01232
2516.24959	0.01259
2514.96383	0.01270
2513.67806	0.01254
2512.39229	0.01225
2511.10652	0.01207
2509.82075	0.01209
2508.53498	0.01223
2507.24921	0.01240
2505.96344	0.01253
2504.67767	0.01256
2503.39191	0.01242
2502.10614	0.01216
2500.82037	0.01196
2499.53460	0.01195
2498.24883	0.01201
2496.96306	0.01196
2495.67729	0.01170
2494.39152	0.01138
2493.10576	0.01123
2491.81999	0.01137
2490.53422	0.01159
2489.24845	0.01158
2487.96268	0.01128
2486.67691	0.01096
2485.39114	0.01088
2484.10537	0.01101
2482.81960	0.01118
2481.53384	0.01140
2480.24807	0.01176
2478.96230	0.01223
2477.67653	0.01262
2476.39076	0.01275
2475.10499	0.01266
2473.81922	0.01248
2472.53345	0.01234
2471.24769	0.01221
2469.96192	0.01205
2468.67615	0.01185
2467.39038	0.01175
2466.10461	0.01189
2464.81884	0.01232
2463.53307	0.01279
2462.24730	0.01297
2460.96153	0.01270
2459.67577	0.01218
2458.39000	0.01174
2457.10423	0.01152
2455.81846	0.01145
2454.53269	0.01151
2453.24692	0.01174
2451.96115	0.01206
2450.67538	0.01220
2449.38962	0.01201
2448.10385	0.01154
2446.81808	0.01103
2445.53231	0.01067
2444.24654	0.01055
2442.96077	0.01060
2441.67500	0.01068
2440.38923	0.01077
2439.10346	0.01095
2437.81770	0.01129
2436.53193	0.01170
2435.24616	0.01188
2433.96039	0.01170
2432.67462	0.01133
2431.38885	0.01110
2430.10308	0.01110
2428.81731	0.01110
2427.53155	0.01093
2426.24578	0.01081
2424.96001	0.01102
2423.67424	0.01150
2422.38847	0.01190
2421.10270	0.01203
2419.81693	0.01200
2418.53116	0.01197
2417.24539	0.01193
2415.95963	0.01189
2414.67386	0.01196
2413.38809	0.01220
2412.10232	0.01242
2410.81655	0.01238
2409.53078	0.01206
2408.24501	0.01169
2406.95924	0.01151
2405.67347	0.01154
2404.38771	0.01168
2403.10194	0.01185
2401.81617	0.01201
2400.53040	0.01209
2399.24463	0.01194
2397.95886	0.01181
2396.67309	0.01166
2395.38732	0.01157
2394.10156	0.01166
2392.81579	0.01191
2391.53002	0.01212
2390.24425	0.01212
2388.95848	0.01189
2387.67271	0.01156
2386.38694	0.01132
2385.10117	0.01130
2383.81540	0.01151
2382.52964	0.01181
2381.24387	0.01209
2379.95810	0.01217
2378.67233	0.01215
2377.38656	0.01198
2376.10079	0.01165
2374.81502	0.01140
2373.52925	0.01166
2372.24349	0.01225
2370.95772	0.01262
2369.67195	0.01264
2368.38618	0.01242
2367.10041	0.01225
2365.81464	0.01216
2364.52887	0.01217
2363.24310	0.01222
2361.95733	0.01228
2360.67157	0.01235
2359.38580	0.01228
2358.10003	0.01213
2356.81426	0.01200
2355.52849	0.01190
2354.24272	0.01174
2352.95695	0.01154
2351.67118	0.01157
2350.38542	0.01166
2349.09965	0.01158
2347.81388	0.01153
2346.52811	0.01165
2345.24234	0.01166
2343.95657	0.01146
2342.67080	0.01099
2341.38503	0.01127
2340.09926	0.01192
2338.81350	0.01181
2337.52773	0.01120
2336.24196	0.01130
2334.95619	0.01162
2333.67042	0.01148
2332.38465	0.01096
2331.09888	0.01136
2329.81311	0.01132
2328.52735	0.01087
2327.24158	0.01084
2325.95581	0.01082
2324.67004	0.01069
2323.38427	0.01032
2322.09850	0.01030
2320.81273	0.01030
2319.52696	0.01031
2318.24119	0.01032
2316.95543	0.01040
2315.66966	0.01054
2314.38389	0.01056
2313.09812	0.01050
2311.81235	0.01041
2310.52658	0.01020
2309.24081	0.00993
2307.95504	0.00972
2306.66928	0.00954
2305.38351	0.00944
2304.09774	0.00947
2302.81197	0.00969
2301.52620	0.01010
2300.24043	0.01052
2298.95466	0.01073
2297.66889	0.01058
2296.38312	0.01018
2295.09736	0.00977
2293.81159	0.00952
2292.52582	0.00943
2291.24005	0.00939
2289.95428	0.00935
2288.66851	0.00937
2287.38274	0.00945
2286.09697	0.00956
2284.81121	0.00971
2283.52544	0.00989
2282.23967	0.01004
2280.95390	0.01003
2279.66813	0.00986
2278.38236	0.00964
2277.09659	0.00945
2275.81082	0.00927
2274.52505	0.00908
2273.23929	0.00891
2271.95352	0.00879
2270.66775	0.00871
2269.38198	0.00860
2268.09621	0.00846
2266.81044	0.00839
2265.52467	0.00854
2264.23890	0.00895
2262.95314	0.00948
2261.66737	0.00990
2260.38160	0.00998
2259.09583	0.00972
2257.81006	0.00933
2256.52429	0.00901
2255.23852	0.00884
2253.95275	0.00871
2252.66698	0.00853
2251.38122	0.00840
2250.09545	0.00841
2248.80968	0.00841
2247.52391	0.00834
2246.23814	0.00825
2244.95237	0.00835
2243.66660	0.00870
2242.38083	0.00911
2241.09507	0.00927
2239.80930	0.00907
2238.52353	0.00864
2237.23776	0.00822
2235.95199	0.00794
2234.66622	0.00778
2233.38045	0.00772
2232.09468	0.00778
2230.80891	0.00791
2229.52315	0.00793
2228.23738	0.00761
2226.95161	0.00701
2225.66584	0.00654
2224.38007	0.00672
2223.09430	0.00774
2221.80853	0.00923
2220.52276	0.01049
2219.23700	0.01081
2217.95123	0.00994
2216.66546	0.00830
2215.37969	0.00678
2214.09392	0.00613
2212.80815	0.00638
2211.52238	0.00689
2210.23661	0.00701
2208.95084	0.00664
2207.66508	0.00628
2206.37931	0.00649
2205.09354	0.00735
2203.80777	0.00835
2202.52200	0.00893
2201.23623	0.00904
2199.95046	0.00920
2198.66469	0.00969
2197.37893	0.01001
2196.09316	0.00940
2194.80739	0.00779
2193.52162	0.00593
2192.23585	0.00463
2190.95008	0.00424
2189.66431	0.00476
2188.37854	0.00591
2187.09277	0.00716
2185.80701	0.00809
2184.52124	0.00865
2183.23547	0.00905
2181.94970	0.00922
2180.66393	0.00883
2179.37816	0.00779
2178.09239	0.00647
2176.80662	0.00542
2175.52085	0.00496
2174.23509	0.00510
2172.94932	0.00549
2171.66355	0.00564
2170.37778	0.00528
2169.09201	0.00457
2167.80624	0.00389
2166.52047	0.00335
2165.23470	0.00277
2163.94894	0.00202
2162.66317	0.00127
2161.37740	0.00096
2160.09163	0.00140
2158.80586	0.00245
2157.52009	0.00344
2156.23432	0.00374
2154.94855	0.00344
2153.66278	0.00327
2152.37702	0.00381
2151.09125	0.00499
2149.80548	0.00626
2148.51971	0.00718
2147.23394	0.00768
2145.94817	0.00786
2144.66240	0.00775
2143.37663	0.00728
2142.09087	0.00653
2140.80510	0.00581
2139.51933	0.00544
2138.23356	0.00543
2136.94779	0.00553
2135.66202	0.00564
2134.37625	0.00589
2133.09048	0.00627
2131.80471	0.00649
2130.51895	0.00636
2129.23318	0.00619
2127.94741	0.00641
2126.66164	0.00706
2125.37587	0.00769
2124.09010	0.00786
2122.80433	0.00763
2121.51856	0.00748
2120.23280	0.00762
2118.94703	0.00775
2117.66126	0.00745
2116.37549	0.00672
2115.08972	0.00607
2113.80395	0.00594
2112.51818	0.00633
2111.23241	0.00690
2109.94664	0.00733
2108.66088	0.00742
2107.37511	0.00710
2106.08934	0.00651
2104.80357	0.00599
2103.51780	0.00575
2102.23203	0.00566
2100.94626	0.00540
2099.66049	0.00449
2098.37473	0.00415
2097.08896	0.00459
2095.80319	0.00530
2094.51742	0.00572
2093.23165	0.00565
2091.94588	0.00530
2090.66011	0.00504
2089.37434	0.00505
2088.08857	0.00524
2086.80281	0.00540
2085.51704	0.00544
2084.23127	0.00539
2082.94550	0.00525
2081.65973	0.00497
2080.37396	0.00459
2079.08819	0.00433
2077.80242	0.00442
2076.51666	0.00480
2075.23089	0.00511
2073.94512	0.00503
2072.65935	0.00468
2071.37358	0.00440
2070.08781	0.00442
2068.80204	0.00462
2067.51627	0.00481
2066.23050	0.00502
2064.94474	0.00528
2063.65897	0.00555
2062.37320	0.00572
2061.08743	0.00579
2059.80166	0.00576
2058.51589	0.00545
2057.23012	0.00475
2055.94435	0.00382
2054.65859	0.00297
2053.37282	0.00237
2052.08705	0.00189
2050.80128	0.00138
2049.51551	0.00088
2048.22974	0.00052
2046.94397	0.00031
2045.65820	0.00026
2044.37243	0.00044
2043.08667	0.00081
2041.80090	0.00113
2040.51513	0.00109
2039.22936	0.00062
2037.94359	-0.00006
2036.65782	-0.00065
2035.37205	-0.00081
2034.08628	-0.00026
2032.80052	0.00096
2031.51475	0.00232
2030.22898	0.00314
2028.94321	0.00325
2027.65744	0.00310
2026.37167	0.00322
2025.08590	0.00356
2023.80013	0.00370
2022.51436	0.00341
2021.22860	0.00292
2019.94283	0.00256
2018.65706	0.00246
2017.37129	0.00257
2016.08552	0.00279
2014.79975	0.00308
2013.51398	0.00342
2012.22821	0.00387
2010.94245	0.00442
2009.65668	0.00479
2008.37091	0.00465
2007.08514	0.00401
2005.79937	0.00325
2004.51360	0.00278
2003.22783	0.00277
2001.94206	0.00315
2000.65629	0.00379
1999.37053	0.00459
1998.08476	0.00541
1996.79899	0.00615
1995.51322	0.00681
1994.22745	0.00725
1992.94168	0.00713
1991.65591	0.00618
1990.37014	0.00466
1989.08438	0.00334
1987.79861	0.00281
1986.51284	0.00299
1985.22707	0.00321
1983.94130	0.00295
1982.65553	0.00229
1981.36976	0.00179
1980.08399	0.00195
1978.79822	0.00271
1977.51246	0.00341
1976.22669	0.00360
1974.94092	0.00357
1973.65515	0.00398
1972.36938	0.00487
1971.08361	0.00554
1969.79784	0.00544
1968.51207	0.00490
1967.22631	0.00484
1965.94054	0.00573
1964.65477	0.00712
1963.36900	0.00806
1962.08323	0.00796
1960.79746	0.00701
1959.51169	0.00591
1958.22592	0.00510
1956.94015	0.00451
1955.65439	0.00392
1954.36862	0.00345
1953.08285	0.00353
1951.79708	0.00428
1950.51131	0.00527
1949.22554	0.00591
1947.93977	0.00603
1946.65400	0.00593
1945.36823	0.00595
1944.08247	0.00615
1942.79670	0.00634
1941.51093	0.00638
1940.22516	0.00629
1938.93939	0.00620
1937.65362	0.00612
1936.36785	0.00593
1935.08208	0.00555
1933.79632	0.00508
1932.51055	0.00476
1931.22478	0.00478
1929.93901	0.00514
1928.65324	0.00570
1927.36747	0.00619
1926.08170	0.00646
1924.79593	0.00651
1923.51016	0.00643
1922.22440	0.00631
1920.93863	0.00627
1919.65286	0.00636
1918.36709	0.00654
1917.08132	0.00671
1915.79555	0.00681
1914.50978	0.00683
1913.22401	0.00676
1911.93825	0.00651
1910.65248	0.00607
1909.36671	0.00561
1908.08094	0.00532
1906.79517	0.00522
1905.50940	0.00528
1904.22363	0.00548
1902.93786	0.00573
1901.65209	0.00590
1900.36633	0.00586
1899.08056	0.00567
1897.79479	0.00549
1896.50902	0.00540
1895.22325	0.00540
1893.93748	0.00550
1892.65171	0.00576
1891.36594	0.00616
1890.08018	0.00660
1888.79441	0.00693
1887.50864	0.00705
1886.22287	0.00695
1884.93710	0.00671
1883.65133	0.00640
1882.36556	0.00611
1881.07979	0.00591
1879.79402	0.00585
1878.50826	0.00594
1877.22249	0.00614
1875.93672	0.00631
1874.65095	0.00630
1873.36518	0.00608
1872.07941	0.00579
1870.79364	0.00567
1869.50787	0.00583
1868.22211	0.00621
1866.93634	0.00662
1865.65057	0.00689
1864.36480	0.00695
1863.07903	0.00682
1861.79326	0.00663
1860.50749	0.00654
1859.22172	0.00665
1857.93595	0.00687
1856.65019	0.00703
1855.36442	0.00699
1854.07865	0.00673
1852.79288	0.00633
1851.50711	0.00596
1850.22134	0.00577
1848.93557	0.00583
1847.64980	0.00607
1846.36404	0.00630
1845.07827	0.00643
1843.79250	0.00649
1842.50673	0.00653
1841.22096	0.00651
1839.93519	0.00649
1838.64942	0.00655
1837.36365	0.00678
1836.07788	0.00707
1834.79212	0.00723
1833.50635	0.00712
1832.22058	0.00678
1830.93481	0.00641
1829.64904	0.00622
1828.36327	0.00620
1827.07750	0.00617
1825.79173	0.00605
1824.50597	0.00590
1823.22020	0.00581
1821.93443	0.00580
1820.64866	0.00583
1819.36289	0.00590
1818.07712	0.00607
1816.79135	0.00637
1815.50558	0.00678
1814.21981	0.00716
1812.93405	0.00737
1811.64828	0.00742
1810.36251	0.00740
1809.07674	0.00742
1807.79097	0.00745
1806.50520	0.00743
1805.21943	0.00730
1803.93366	0.00709
1802.64790	0.00684
1801.36213	0.00665
1800.07636	0.00658
1798.79059	0.00662
1797.50482	0.00669
1796.21905	0.00669
1794.93328	0.00658
1793.64751	0.00640
1792.36174	0.00631
1791.07598	0.00637
1789.79021	0.00651
1788.50444	0.00658
1787.21867	0.00654
1785.93290	0.00645
1784.64713	0.00639
1783.36136	0.00638
1782.07559	0.00638
1780.78983	0.00636
1779.50406	0.00633
1778.21829	0.00631
1776.93252	0.00631
1775.64675	0.00629
1774.36098	0.00619
1773.07521	0.00607
1771.78944	0.00604
1770.50367	0.00614
1769.21791	0.00632
1767.93214	0.00655
1766.64637	0.00679
1765.36060	0.00694
1764.07483	0.00689
1762.78906	0.00672
1761.50329	0.00660
1760.21752	0.00658
1758.93176	0.00658
1757.64599	0.00658
1756.36022	0.00662
1755.07445	0.00670
1753.78868	0.00670
1752.50291	0.00662
1751.21714	0.00655
1749.93137	0.00658
1748.64560	0.00666
1747.35984	0.00671
1746.07407	0.00672
1744.78830	0.00669
1743.50253	0.00662
1742.21676	0.00650
1740.93099	0.00635
1739.64522	0.00627
1738.35945	0.00627
1737.07369	0.00623
1735.78792	0.00606
1734.50215	0.00594
1733.21638	0.00609
1731.93061	0.00642
1730.64484	0.00668
1729.35907	0.00675
1728.07330	0.00673
1726.78753	0.00668
1725.50177	0.00663
1724.21600	0.00658
1722.93023	0.00655
1721.64446	0.00649
1720.35869	0.00633
1719.07292	0.00613
1717.78715	0.00609
1716.50138	0.00634
1715.21561	0.00673
1713.92985	0.00704
1712.64408	0.00716
1711.35831	0.00713
1710.07254	0.00706
1708.78677	0.00703
1707.50100	0.00709
1706.21523	0.00722
1704.92946	0.00738
1703.64370	0.00748
1702.35793	0.00745
1701.07216	0.00747
1699.78639	0.00776
1698.50062	0.00823
1697.21485	0.00861
1695.92908	0.00895
1694.64331	0.00947
1693.35754	0.01010
1692.07178	0.01059
1690.78601	0.01091
1689.50024	0.01116
1688.21447	0.01132
1686.92870	0.01133
1685.64293	0.01128
1684.35716	0.01145
1683.07139	0.01193
1681.78563	0.01250
1680.49986	0.01294
1679.21409	0.01324
1677.92832	0.01348
1676.64255	0.01372
1675.35678	0.01407
1674.07101	0.01453
1672.78524	0.01496
1671.49947	0.01522
1670.21371	0.01540
1668.92794	0.01565
1667.64217	0.01599
1666.35640	0.01632
1665.07063	0.01659
1663.78486	0.01688
1662.49909	0.01724
1661.21332	0.01763
1659.92756	0.01795
1658.64179	0.01816
1657.35602	0.01827
1656.07025	0.01823
1654.78448	0.01808
1653.49871	0.01808
1652.21294	0.01848
1650.92717	0.01907
1649.64140	0.01944
1648.35564	0.01947
1647.06987	0.01944
1645.78410	0.01957
1644.49833	0.01981
1643.21256	0.02000
1641.92679	0.02009
1640.64102	0.02013
1639.35525	0.02012
1638.06949	0.02000
1636.78372	0.01978
1635.49795	0.01964
1634.21218	0.01963
1632.92641	0.01963
1631.64064	0.01946
1630.35487	0.01917
1629.06910	0.01886
1627.78333	0.01858
1626.49757	0.01830
1625.21180	0.01798
1623.92603	0.01766
1622.64026	0.01742
1621.35449	0.01724
1620.06872	0.01696
1618.78295	0.01653
1617.49718	0.01608
1616.21142	0.01580
1614.92565	0.01565
1613.63988	0.01547
1612.35411	0.01521
1611.06834	0.01499
1609.78257	0.01486
1608.49680	0.01478
1607.21103	0.01467
1605.92526	0.01452
1604.63950	0.01437
1603.35373	0.01421
1602.06796	0.01407
1600.78219	0.01399
1599.49642	0.01399
1598.21065	0.01404
1596.92488	0.01407
1595.63911	0.01407
1594.35335	0.01406
1593.06758	0.01407
1591.78181	0.01409
1590.49604	0.01408
1589.21027	0.01404
1587.92450	0.01400
1586.63873	0.01398
1585.35296	0.01399
1584.06719	0.01403
1582.78143	0.01410
1581.49566	0.01421
1580.20989	0.01435
1578.92412	0.01442
1577.63835	0.01444
1576.35258	0.01454
1575.06681	0.01482
1573.78104	0.01516
1572.49528	0.01536
1571.20951	0.01544
1569.92374	0.01558
1568.63797	0.01587
1567.35220	0.01620
1566.06643	0.01645
1564.78066	0.01655
1563.49489	0.01650
1562.20912	0.01626
1560.92336	0.01594
1559.63759	0.01582
1558.35182	0.01612
1557.06605	0.01666
1555.78028	0.01713
1554.49451	0.01740
1553.20874	0.01759
1551.92297	0.01772
1550.63721	0.01777
1549.35144	0.01779
1548.06567	0.01781
1546.77990	0.01781
1545.49413	0.01779
1544.20836	0.01772
1542.92259	0.01758
1541.63682	0.01738
1540.35105	0.01726
1539.06529	0.01738
1537.77952	0.01765
1536.49375	0.01783
1535.20798	0.01781
1533.92221	0.01770
1532.63644	0.01766
1531.35067	0.01767
1530.06490	0.01761
1528.77914	0.01749
1527.49337	0.01736
1526.20760	0.01728
1524.92183	0.01723
1523.63606	0.01714
1522.35029	0.01706
1521.06452	0.01710
1519.77875	0.01729
1518.49298	0.01748
1517.20722	0.01757
1515.92145	0.01764
1514.63568	0.01771
1513.34991	0.01777
1512.06414	0.01778
1510.77837	0.01776
1509.49260	0.01767
1508.20683	0.01752
1506.92107	0.01745
1505.63530	0.01758
1504.34953	0.01784
1503.06376	0.01805
1501.77799	0.01812
1500.49222	0.01812
1499.20645	0.01810
1497.92068	0.01807
1496.63491	0.01808
1495.34915	0.01815
1494.06338	0.01823
1492.77761	0.01823
1491.49184	0.01818
1490.20607	0.01819
1488.92030	0.01831
1487.63453	0.01846
1486.34876	0.01860
1485.06299	0.01875
1483.77723	0.01893
1482.49146	0.01914
1481.20569	0.01937
1479.91992	0.01958
1478.63415	0.01975
1477.34838	0.01991
1476.06261	0.02006
1474.77684	0.02020
1473.49108	0.02036
1472.20531	0.02063
1470.91954	0.02101
1469.63377	0.02141
1468.34800	0.02175
1467.06223	0.02199
1465.77646	0.02219
1464.49069	0.02242
1463.20492	0.02269
1461.91916	0.02291
1460.63339	0.02303
1459.34762	0.02308
1458.06185	0.02317
1456.77608	0.02346
1455.49031	0.02393
1454.20454	0.02438
1452.91877	0.02466
1451.63301	0.02477
1450.34724	0.02484
1449.06147	0.02496
1447.77570	0.02514
1446.48993	0.02534
1445.20416	0.02543
1443.91839	0.02535
1442.63262	0.02515
1441.34685	0.02492
1440.06109	0.02469
1438.77532	0.02446
1437.48955	0.02426
1436.20378	0.02419
1434.91801	0.02423
1433.63224	0.02426
1432.34647	0.02424
1431.06070	0.02420
1429.77494	0.02422
1428.48917	0.02433
1427.20340	0.02451
1425.91763	0.02472
1424.63186	0.02495
1423.34609	0.02517
1422.06032	0.02535
1420.77455	0.02550
1419.48878	0.02566
1418.20302	0.02586
1416.91725	0.02604
1415.63148	0.02614
1414.34571	0.02619
1413.05994	0.02623
1411.77417	0.02628
1410.48840	0.02629
1409.20263	0.02626
1407.91687	0.02617
1406.63110	0.02601
1405.34533	0.02582
1404.05956	0.02562
1402.77379	0.02544
1401.48802	0.02524
1400.20225	0.02499
1398.91648	0.02471
1397.63071	0.02439
1396.34495	0.02404
1395.05918	0.02368
1393.77341	0.02333
1392.48764	0.02298
1391.20187	0.02258
1389.91610	0.02214
1388.63033	0.02172
1387.34456	0.02141
1386.05880	0.02116
1384.77303	0.02090
1383.48726	0.02058
1382.20149	0.02025
1380.91572	0.01995
1379.62995	0.01967
1378.34418	0.01941
1377.05841	0.01912
1375.77264	0.01879
1374.48688	0.01840
1373.20111	0.01800
1371.91534	0.01762
1370.62957	0.01727
1369.34380	0.01694
1368.05803	0.01662
1366.77226	0.01630
1365.48649	0.01602
1364.20073	0.01577
1362.91496	0.01555
1361.62919	0.01532
1360.34342	0.01509
1359.05765	0.01487
1357.77188	0.01470
1356.48611	0.01458
1355.20034	0.01448
1353.91457	0.01437
1352.62881	0.01423
1351.34304	0.01405
1350.05727	0.01387
1348.77150	0.01372
1347.48573	0.01362
1346.19996	0.01357
1344.91419	0.01353
1343.62842	0.01348
1342.34266	0.01338
1341.05689	0.01325
1339.77112	0.01311
1338.48535	0.01305
1337.19958	0.01307
1335.91381	0.01313
1334.62804	0.01314
1333.34227	0.01306
1332.05650	0.01293
1330.77074	0.01280
1329.48497	0.01268
1328.19920	0.01257
1326.91343	0.01245
1325.62766	0.01233
1324.34189	0.01222
1323.05612	0.01212
1321.77035	0.01205
1320.48459	0.01200
1319.19882	0.01196
1317.91305	0.01191
1316.62728	0.01185
1315.34151	0.01176
1314.05574	0.01164
1312.76997	0.01153
1311.48420	0.01143
1310.19843	0.01135
1308.91267	0.01128
1307.62690	0.01121
1306.34113	0.01114
1305.05536	0.01109
1303.76959	0.01106
1302.48382	0.01102
1301.19805	0.01095
1299.91228	0.01086
1298.62652	0.01077
1297.34075	0.01071
1296.05498	0.01067
1294.76921	0.01063
1293.48344	0.01055
1292.19767	0.01042
1290.91190	0.01028
1289.62613	0.01019
1288.34036	0.01019
1287.05460	0.01028
1285.76883	0.01042
1284.48306	0.01053
1283.19729	0.01056
1281.91152	0.01052
1280.62575	0.01042
1279.33998	0.01030
1278.05421	0.01021
1276.76845	0.01016
1275.48268	0.01015
1274.19691	0.01015
1272.91114	0.01014
1271.62537	0.01008
1270.33960	0.01000
1269.05383	0.00992
1267.76806	0.00989
1266.48229	0.00993
1265.19653	0.01001
1263.91076	0.01012
1262.62499	0.01022
1261.33922	0.01030
1260.05345	0.01031
1258.76768	0.01024
1257.48191	0.01010
1256.19614	0.00993
1254.91037	0.00979
1253.62461	0.00972
1252.33884	0.00972
1251.05307	0.00976
1249.76730	0.00983
1248.48153	0.00993
1247.19576	0.01001
1245.90999	0.01005
1244.62422	0.01005
1243.33846	0.01001
1242.05269	0.00997
1240.76692	0.00993
1239.48115	0.00989
1238.19538	0.00985
1236.90961	0.00980
1235.62384	0.00976
1234.33807	0.00973
1233.05230	0.00967
1231.76654	0.00958
1230.48077	0.00946
1229.19500	0.00933
1227.90923	0.00924
1226.62346	0.00918
1225.33769	0.00913
1224.05192	0.00905
1222.76615	0.00894
1221.48039	0.00883
1220.19462	0.00877
1218.90885	0.00875
1217.62308	0.00873
1216.33731	0.00866
1215.05154	0.00857
1213.76577	0.00847
1212.48000	0.00840
1211.19423	0.00835
1209.90847	0.00832
1208.62270	0.00827
1207.33693	0.00821
1206.05116	0.00816
1204.76539	0.00813
1203.47962	0.00812
1202.19385	0.00813
1200.90808	0.00818
1199.62232	0.00825
1198.33655	0.00819
1197.05078	0.00809
1195.76501	0.00799
1194.47924	0.00791
1193.19347	0.00788
1191.90770	0.00787
1190.62193	0.00784
1189.33616	0.00779
1188.05040	0.00775
1186.76463	0.00773
1185.47886	0.00772
1184.19309	0.00771
1182.90732	0.00771
1181.62155	0.00773
1180.33578	0.00777
1179.05001	0.00780
1177.76425	0.00777
1176.47848	0.00771
1175.19271	0.00764
1173.90694	0.00763
1172.62117	0.00768
1171.33540	0.00774
1170.04963	0.00776
1168.76386	0.00777
1167.47809	0.00780
1166.19233	0.00784
1164.90656	0.00786
1163.62079	0.00786
1162.33502	0.00785
1161.04925	0.00788
1159.76348	0.00792
1158.47771	0.00794
1157.19194	0.00796
1155.90618	0.00799
1154.62041	0.00803
1153.33464	0.00802
1152.04887	0.00799
1150.76310	0.00797
1149.47733	0.00804
1148.19156	0.00819
1146.90579	0.00837
1145.62002	0.00848
1144.33426	0.00851
1143.04849	0.00853
1141.76272	0.00862
1140.47695	0.00878
1139.19118	0.00896
1137.90541	0.00915
1136.61964	0.00937
1135.33387	0.00963
1134.04811	0.00992
1132.76234	0.01025
1131.47657	0.01064
1130.19080	0.01109
1128.90503	0.01161
1127.61926	0.01221
1126.33349	0.01288
1125.04772	0.01361
1123.76195	0.01440
1122.47619	0.01524
1121.19042	0.01614
1119.90465	0.01707
1118.61888	0.01801
1117.33311	0.01894
1116.04734	0.01984
1114.76157	0.02069
1113.47580	0.02150
1112.19004	0.02234
1110.90427	0.02325
1109.61850	0.02421
1108.33273	0.02510
1107.04696	0.02585
1105.76119	0.02652
1104.47542	0.02719
1103.18965	0.02788
1101.90388	0.02853
1100.61812	0.02908
1099.33235	0.02954
1098.04658	0.02998
1096.76081	0.03048
1095.47504	0.03099
1094.18927	0.03145
1092.90350	0.03179
1091.61773	0.03205
1090.33197	0.03230
1089.04620	0.03259
1087.76043	0.03293
1086.47466	0.03327
1085.18889	0.03360
1083.90312	0.03391
1082.61735	0.03422
1081.33158	0.03459
1080.04581	0.03503
1078.76005	0.03553
1077.47428	0.03608
1076.18851	0.03669
1074.90274	0.03735
1073.61697	0.03806
1072.33120	0.03879
1071.04543	0.03947
1069.75966	0.04010
1068.47390	0.04073
1067.18813	0.04144
1065.90236	0.04226
1064.61659	0.04313
1063.33082	0.04397
1062.04505	0.04474
1060.75928	0.04546
1059.47351	0.04620
1058.18774	0.04698
1056.90198	0.04778
1055.61621	0.04860
1054.33044	0.04944
1053.04467	0.05032
1051.75890	0.05120
1050.47313	0.05207
1049.18736	0.05291
1047.90159	0.05375
1046.61583	0.05456
1045.33006	0.05532
1044.04429	0.05606
1042.75852	0.05681
1041.47275	0.05759
1040.18698	0.05836
1038.90121	0.05907
1037.61544	0.05976
1036.32967	0.06048
1035.04391	0.06124
1033.75814	0.06199
1032.47237	0.06267
1031.18660	0.06323
1029.90083	0.06368
1028.61506	0.06405
1027.32929	0.06438
1026.04352	0.06464
1024.75775	0.06479
1023.47199	0.06481
1022.18622	0.06466
1020.90045	0.06434
1019.61468	0.06392
1018.32891	0.06347
1017.04314	0.06303
1015.75737	0.06255
1014.47160	0.06196
1013.18584	0.06125
1011.90007	0.06040
1010.61430	0.05945
1009.32853	0.05840
1008.04276	0.05731
1006.75699	0.05623
1005.47122	0.05517
1004.18545	0.05410
1002.89968	0.05293
1001.61392	0.05166
1000.32815	0.05034
999.04238	0.04903
997.75661	0.04778
996.47084	0.04655
995.18507	0.04530
993.89930	0.04402
992.61353	0.04274
991.32777	0.04148
990.04200	0.04032
988.75623	0.03925
987.47046	0.03822
986.18469	0.03713
984.89892	0.03596
983.61315	0.03479
982.32738	0.03370
981.04161	0.03276
979.75585	0.03198
978.47008	0.03133
977.18431	0.03077
975.89854	0.03020
974.61277	0.02959
973.32700	0.02898
972.04123	0.02842
970.75546	0.02797
969.46970	0.02770
968.18393	0.02760
966.89816	0.02763
965.61239	0.02773
964.32662	0.02783
963.04085	0.02792
961.75508	0.02799
960.46931	0.02801
959.18354	0.02791
957.89778	0.02765
956.61201	0.02727
955.32624	0.02683
954.04047	0.02641
952.75470	0.02599
951.46893	0.02557
950.18316	0.02514
948.89739	0.02473
947.61163	0.02436
946.32586	0.02397
945.04009	0.02351
943.75432	0.02300
942.46855	0.02251
941.18278	0.02208
939.89701	0.02170
938.61124	0.02132
937.32547	0.02089
936.03971	0.02044
934.75394	0.02005
933.46817	0.01979
932.18240	0.01962
930.89663	0.01946
929.61086	0.01922
928.32509	0.01895
927.03932	0.01873
925.75356	0.01858
924.46779	0.01847
923.18202	0.01836
921.89625	0.01826
920.61048	0.01814
919.32471	0.01796
918.03894	0.01772
916.75317	0.01744
915.46740	0.01714
914.18164	0.01685
912.89587	0.01662
911.61010	0.01649
910.32433	0.01645
909.03856	0.01643
907.75279	0.01636
906.46702	0.01621
905.18125	0.01601
903.89549	0.01583
902.60972	0.01571
901.32395	0.01566
900.03818	0.01565
898.75241	0.01558
897.46664	0.01541
896.18087	0.01518
894.89510	0.01500
893.60933	0.01496
892.32357	0.01505
891.03780	0.01517
889.75203	0.01522
888.46626	0.01524
887.18049	0.01532
885.89472	0.01552
884.60895	0.01588
883.32318	0.01639
882.03742	0.01696
880.75165	0.01749
879.46588	0.01789
878.18011	0.01819
876.89434	0.01847
875.60857	0.01881
874.32280	0.01919
873.03703	0.01948
871.75126	0.01953
870.46550	0.01928
869.17973	0.01885
867.89396	0.01841
866.60819	0.01802
865.32242	0.01766
864.03665	0.01726
862.75088	0.01685
861.46511	0.01646
860.17935	0.01612
858.89358	0.01582
857.60781	0.01557
856.32204	0.01534
855.03627	0.01511
853.75050	0.01488
852.46473	0.01469
851.17896	0.01456
849.89319	0.01441
848.60743	0.01422
847.32166	0.01403
846.03589	0.01393
844.75012	0.01389
843.46435	0.01383
842.17858	0.01369
840.89281	0.01350
839.60704	0.01334
838.32128	0.01324
837.03551	0.01323
835.74974	0.01329
834.46397	0.01338
833.17820	0.01343
831.89243	0.01340
830.60666	0.01330
829.32089	0.01317
828.03512	0.01309
826.74936	0.01307
825.46359	0.01306
824.17782	0.01302
822.89205	0.01294
821.60628	0.01287
820.32051	0.01280
819.03474	0.01272
817.74897	0.01263
816.46321	0.01254
815.17744	0.01253
813.89167	0.01261
812.60590	0.01277
811.32013	0.01290
810.03436	0.01290
808.74859	0.01281
807.46282	0.01272
806.17705	0.01271
804.89129	0.01273
803.60552	0.01270
802.31975	0.01262
801.03398	0.01250
799.74821	0.01241
798.46244	0.01239
797.17667	0.01246
795.89090	0.01258
794.60513	0.01268
793.31937	0.01271
792.03360	0.01270
790.74783	0.01266
789.46206	0.01263
788.17629	0.01264
786.89052	0.01270
785.60475	0.01280
784.31898	0.01289
783.03322	0.01292
781.74745	0.01290
780.46168	0.01282
779.17591	0.01269
777.89014	0.01258
776.60437	0.01255
775.31860	0.01260
774.03283	0.01266
772.74706	0.01268
771.46130	0.01264
770.17553	0.01258
768.88976	0.01247
767.60399	0.01235
766.31822	0.01228
765.03245	0.01231
763.74668	0.01240
762.46091	0.01246
761.17515	0.01243
759.88938	0.01235
758.60361	0.01225
757.31784	0.01217
756.03207	0.01211
754.74630	0.01203
753.46053	0.01196
752.17476	0.01196
750.88899	0.01209
749.60323	0.01229
748.31746	0.01245
747.03169	0.01250
745.74592	0.01242
744.46015	0.01224
743.17438	0.01200
741.88861	0.01179
740.60284	0.01173
739.31708	0.01188
738.03131	0.01218
736.74554	0.01245
735.45977	0.01254
734.17400	0.01254
732.88823	0.01257
731.60246	0.01265
730.31669	0.01267
729.03092	0.01258
727.74516	0.01248
726.45939	0.01246
725.17362	0.01253
723.88785	0.01260
722.60208	0.01275
721.31631	0.01286
720.03054	0.01289
718.74477	0.01289
717.45901	0.01292
716.17324	0.01296
714.88747	0.01296
713.60170	0.01290
712.31593	0.01277
711.03016	0.01262
709.74439	0.01253
708.45862	0.01255
707.17285	0.01263
705.88709	0.01272
704.60132	0.01273
703.31555	0.01267
702.02978	0.01259
700.74401	0.01252
699.45824	0.01246
698.17247	0.01239
696.88670	0.01232
695.60094	0.01229
694.31517	0.01232
693.02940	0.01240
691.74363	0.01248
690.45786	0.01252
689.17209	0.01254
687.88632	0.01255
686.60055	0.01255
685.31478	0.01258
684.02902	0.01263
682.74325	0.01270
681.45748	0.01271
680.17171	0.01265
678.88594	0.01254
677.60017	0.01242
676.31440	0.01236
675.02863	0.01236
673.74287	0.01239
672.45710	0.01243
671.17133	0.01247
669.88556	0.01250
668.59979	0.01250
667.31402	0.01246
666.02825	0.01240
664.74248	0.01235
663.45671	0.01233
662.17095	0.01234
660.88518	0.01235
659.59941	0.01235
658.31364	0.01234
657.02787	0.01232
655.74210	0.01230
654.45633	0.01228
653.17056	0.01226
651.88480	0.01227
650.59903	0.01231
649.31326	0.01237
648.02749	0.01240
646.74172	0.01239
645.45595	0.01237
644.17018	0.01236
642.88441	0.01238
641.59864	0.01241
640.31288	0.01245
639.02711	0.01246
637.74134	0.01244
636.45557	0.01240
635.16980	0.01234
633.88403	0.01227
632.59826	0.01225
631.31249	0.01226
630.02673	0.01196
628.74096	0.01119
627.45519	0.01130
626.16942	0.00992
624.88365	0.00769
623.59788	0.00612
622.31211	0.00600
621.02634	0.00716
619.74057	0.00868
618.45481	0.00980
617.16904	0.01038
615.88327	0.01062
614.59750	0.01072
613.31173	0.01077
612.02596	0.01097
610.74019	0.01167
609.45442	0.01314
608.16866	0.01524
606.88289	0.01753
605.59712	0.01980
604.31135	0.02204
603.02558	0.02420
601.73981	0.02595
600.45404	0.02693
599.16827	0.02701
597.88250	0.02638
596.59674	0.02543
595.31097	0.02454
594.02520	0.02395
592.73943	0.02365
591.45366	0.02353
590.16789	0.02346
588.88212	0.02339
587.59635	0.02337
586.31059	0.02341
585.02482	0.02352
583.73905	0.02373
582.45328	0.02411
581.16751	0.02470
579.88174	0.02542
578.59597	0.02617
577.31020	0.02688
576.02443	0.02750
574.73867	0.02806
573.45290	0.02855
572.16713	0.02904
570.88136	0.02957
569.59559	0.03018
568.30982	0.03091
567.02405	0.03184
565.73828	0.03295
564.45251	0.03412
563.16675	0.03506
561.88098	0.03557
560.59521	0.03557
559.30944	0.03514
558.02367	0.03437
556.73790	0.03325
555.45213	0.03180
554.16636	0.03018
552.88060	0.02862
551.59483	0.02728
550.30906	0.02622
549.02329	0.02535
547.73752	0.02455
546.45175	0.02373
545.16598	0.02290
543.88021	0.02216
542.59444	0.02162
541.30868	0.02128
540.02291	0.02104
538.73714	0.02077
537.45137	0.02041
536.16560	0.02001
534.87983	0.01962
533.59406	0.01929
532.30829	0.01902
531.02253	0.01879
529.73676	0.01856
528.45099	0.01829
527.16522	0.01798
525.87945	0.01768
524.59368	0.01746
523.30791	0.01733
522.02214	0.01727
520.73637	0.01723
519.45061	0.01715
518.16484	0.01699
516.87907	0.01675
515.59330	0.01649
514.30753	0.01625
513.02176	0.01605
511.73599	0.01589
510.45022	0.01577
509.16446	0.01569
507.87869	0.01561
506.59292	0.01542
505.30715	0.01510
504.02138	0.01473
502.73561	0.01447
501.44984	0.01438
500.16407	0.01439
498.87830	0.01432
497.59254	0.01411
496.30677	0.01384
495.02100	0.01362
493.73523	0.01349
492.44946	0.01342
491.16369	0.01340
489.87792	0.01344
488.59215	0.01352
487.30639	0.01357
486.02062	0.01358
484.73485	0.01353
483.44908	0.01346
482.16331	0.01344
480.87754	0.01348
479.59177	0.01360
478.30600	0.01375
477.02023	0.01389
475.73447	0.01397
474.44870	0.01401
473.16293	0.01401
471.87716	0.01402
470.59139	0.01406
469.30562	0.01414
468.01985	0.01423
466.73408	0.01430
465.44832	0.01432
464.16255	0.01426
462.87678	0.01417
461.59101	0.01408
460.30524	0.01403
459.01947	0.01398
457.73370	0.01386
456.44793	0.01367
455.16216	0.01342
453.87640	0.01316
452.59063	0.01293
451.30486	0.01273
450.01909	0.01257
448.73332	0.01245
447.44755	0.01235
446.16178	0.01227
444.87601	0.01219
443.59025	0.01214
442.30448	0.01213
441.01871	0.01209
439.73294	0.01200
438.44717	0.01187
437.16140	0.01177
435.87563	0.01172
434.58986	0.01173
433.30409	0.01175
432.01833	0.01178
430.73256	0.01180
429.44679	0.01182
428.16102	0.01181
426.87525	0.01180
425.58948	0.01177
424.30371	0.01173
423.01794	0.01166
421.73218	0.01153
420.44641	0.01137
419.16064	0.01123
417.87487	0.01111
416.58910	0.01101
415.30333	0.01087
414.01756	0.01072
412.73179	0.01061
411.44602	0.01057
410.16026	0.01059
408.87449	0.01063
407.58872	0.01063
406.30295	0.01059
405.01718	0.01050
403.73141	0.01042
402.44564	0.01037
401.15987	0.01037
399.87411	0.01042
