3997.45528	0.02683
3996.16951	0.02632
3994.88374	0.02601
3993.59798	0.02596
3992.31221	0.02611
3991.02644	0.02636
3989.74067	0.02665
3988.45490	0.02693
3987.16913	0.02710
3985.88336	0.02708
3984.59759	0.02695
3983.31183	0.02692
3982.02606	0.02714
3980.74029	0.02756
3979.45452	0.02809
3978.16875	0.02861
3976.88298	0.02890
3975.59721	0.02875
3974.31144	0.02818
3973.02567	0.02753
3971.73991	0.02714
3970.45414	0.02706
3969.16837	0.02708
3967.88260	0.02702
3966.59683	0.02687
3965.31106	0.02681
3964.02529	0.02698
3962.73952	0.02739
3961.45376	0.02795
3960.16799	0.02849
3958.88222	0.02880
3957.59645	0.02874
3956.31068	0.02839
3955.02491	0.02803
3953.73914	0.02792
3952.45337	0.02809
3951.16760	0.02843
3949.88184	0.02886
3948.59607	0.02934
3947.31030	0.02983
3946.02453	0.03017
3944.73876	0.03023
3943.45299	0.02994
3942.16722	0.02936
3940.88145	0.02862
3939.59569	0.02789
3938.30992	0.02733
3937.02415	0.02709
3935.73838	0.02718
3934.45261	0.02744
3933.16684	0.02760
3931.88107	0.02752
3930.59530	0.02735
3929.30953	0.02738
3928.02377	0.02775
3926.73800	0.02834
3925.45223	0.02892
3924.16646	0.02935
3922.88069	0.02965
3921.59492	0.02981
3920.30915	0.02981
3919.02338	0.02962
3917.73762	0.02939
3916.45185	0.02935
3915.16608	0.02961
3913.88031	0.03005
3912.59454	0.03032
3911.30877	0.03015
3910.02300	0.02960
3908.73723	0.02909
3907.45146	0.02905
3906.16570	0.02955
3904.87993	0.03026
3903.59416	0.03073
3902.30839	0.03078
3901.02262	0.03054
3899.73685	0.03025
3898.45108	0.03004
3897.16531	0.02983
3895.87955	0.02955
3894.59378	0.02920
3893.30801	0.02888
3892.02224	0.02876
3890.73647	0.02905
3889.45070	0.02967
3888.16493	0.03020
3886.87916	0.03013
3885.59339	0.02938
3884.30763	0.02844
3883.02186	0.02791
3881.73609	0.02795
3880.45032	0.02821
3879.16455	0.02824
3877.87878	0.02794
3876.59301	0.02761
3875.30724	0.02773
3874.02148	0.02853
3872.73571	0.02973
3871.44994	0.03077
3870.16417	0.03125
3868.87840	0.03122
3867.59263	0.03097
3866.30686	0.03066
3865.02109	0.03020
3863.73532	0.02958
3862.44956	0.02902
3861.16379	0.02875
3859.87802	0.02881
3858.59225	0.02909
3857.30648	0.02946
3856.02071	0.02985
3854.73494	0.03019
3853.44917	0.03036
3852.16341	0.03033
3850.87764	0.03013
3849.59187	0.02985
3848.30610	0.02952
3847.02033	0.02913
3845.73456	0.02859
3844.44879	0.02795
3843.16302	0.02748
3841.87725	0.02741
3840.59149	0.02772
3839.30572	0.02803
3838.01995	0.02802
3836.73418	0.02768
3835.44841	0.02736
3834.16264	0.02733
3832.87687	0.02764
3831.59110	0.02807
3830.30534	0.02837
3829.01957	0.02842
3827.73380	0.02826
3826.44803	0.02799
3825.16226	0.02767
3823.87649	0.02726
3822.59072	0.02683
3821.30495	0.02653
3820.01918	0.02656
3818.73342	0.02692
3817.44765	0.02732
3816.16188	0.02743
3814.87611	0.02722
3813.59034	0.02703
3812.30457	0.02723
3811.01880	0.02782
3809.73303	0.02842
3808.44726	0.02863
3807.16150	0.02841
3805.87573	0.02809
3804.58996	0.02795
3803.30419	0.02800
3802.01842	0.02797
3800.73265	0.02770
3799.44688	0.02739
3798.16111	0.02737
3796.87535	0.02774
3795.58958	0.02820
3794.30381	0.02841
3793.01804	0.02837
3791.73227	0.02836
3790.44650	0.02855
3789.16073	0.02879
3787.87496	0.02887
3786.58919	0.02878
3785.30343	0.02877
3784.01766	0.02902
3782.73189	0.02944
3781.44612	0.02974
3780.16035	0.02965
3778.87458	0.02917
3777.58881	0.02848
3776.30304	0.02773
3775.01728	0.02700
3773.73151	0.02638
3772.44574	0.02600
3771.15997	0.02590
3769.87420	0.02599
3768.58843	0.02613
3767.30266	0.02614
3766.01689	0.02601
3764.73112	0.02591
3763.44536	0.02609
3762.15959	0.02655
3760.87382	0.02695
3759.58805	0.02689
3758.30228	0.02627
3757.01651	0.02545
3755.73074	0.02495
3754.44497	0.02496
3753.15921	0.02523
3751.87344	0.02534
3750.58767	0.02515
3749.30190	0.02485
3748.01613	0.02460
3746.73036	0.02438
3745.44459	0.02417
3744.15882	0.02423
3742.87305	0.02481
3741.58729	0.02579
3740.30152	0.02662
3739.01575	0.02677
3737.72998	0.02620
3736.44421	0.02539
3735.15844	0.02495
3733.87267	0.02522
3732.58690	0.02603
3731.30114	0.02688
3730.01537	0.02739
3728.72960	0.02761
3727.44383	0.02776
3726.15806	0.02788
3724.87229	0.02777
3723.58652	0.02738
3722.30075	0.02697
3721.01498	0.02675
3719.72922	0.02669
3718.44345	0.02671
3717.15768	0.02687
3715.87191	0.02718
3714.58614	0.02748
3713.30037	0.02751
3712.01460	0.02715
3710.72883	0.02653
3709.44307	0.02592
3708.15730	0.02555
3706.87153	0.02546
3705.58576	0.02549
3704.29999	0.02549
3703.01422	0.02543
3701.72845	0.02550
3700.44268	0.02581
3699.15691	0.02622
3697.87115	0.02643
3696.58538	0.02625
3695.29961	0.02582
3694.01384	0.02545
3692.72807	0.02551
3691.44230	0.02620
3690.15653	0.02731
3688.87076	0.02821
3687.58500	0.02829
3686.29923	0.02749
3685.01346	0.02635
3683.72769	0.02552
3682.44192	0.02530
3681.15615	0.02564
3679.87038	0.02632
3678.58461	0.02717
3677.29884	0.02801
3676.01308	0.02856
3674.72731	0.02861
3673.44154	0.02813
3672.15577	0.02737
3670.87000	0.02661
3669.58423	0.02602
3668.29846	0.02575
3667.01269	0.02593
3665.72693	0.02654
3664.44116	0.02732
3663.15539	0.02786
3661.86962	0.02800
3660.58385	0.02794
3659.29808	0.02797
3658.01231	0.02809
3656.72654	0.02804
3655.44077	0.02773
3654.15501	0.02742
3652.86924	0.02747
3651.58347	0.02801
3650.29770	0.02887
3649.01193	0.02976
3647.72616	0.03033
3646.44039	0.03033
3645.15462	0.02981
3643.86886	0.02923
3642.58309	0.02911
3641.29732	0.02960
3640.01155	0.03035
3638.72578	0.03088
3637.44001	0.03107
3636.15424	0.03114
3634.86847	0.03136
3633.58270	0.03180
3632.29694	0.03239
3631.01117	0.03304
3629.72540	0.03357
3628.43963	0.03377
3627.15386	0.03354
3625.86809	0.03302
3624.58232	0.03245
3623.29655	0.03210
3622.01079	0.03216
3620.72502	0.03269
3619.43925	0.03350
3618.15348	0.03419
3616.86771	0.03456
3615.58194	0.03477
3614.29617	0.03516
3613.01040	0.03575
3611.72463	0.03620
3610.43887	0.03617
3609.15310	0.03573
3607.86733	0.03536
3606.58156	0.03549
3605.29579	0.03605
3604.01002	0.03655
3602.72425	0.03661
3601.43848	0.03631
3600.15272	0.03616
3598.86695	0.03651
3597.58118	0.03718
3596.29541	0.03775
3595.00964	0.03803
3593.72387	0.03822
3592.43810	0.03857
3591.15233	0.03908
3589.86656	0.03956
3588.58080	0.03985
3587.29503	0.03993
3586.00926	0.03989
3584.72349	0.03989
3583.43772	0.04005
3582.15195	0.04035
3580.86618	0.04072
3579.58041	0.04122
3578.29464	0.04192
3577.00888	0.04269
3575.72311	0.04328
3574.43734	0.04353
3573.15157	0.04354
3571.86580	0.04349
3570.58003	0.04353
3569.29426	0.04360
3568.00849	0.04356
3566.72273	0.04341
3565.43696	0.04334
3564.15119	0.04350
3562.86542	0.04378
3561.57965	0.04393
3560.29388	0.04387
3559.00811	0.04382
3557.72234	0.04399
3556.43657	0.04441
3555.15081	0.04492
3553.86504	0.04537
3552.57927	0.04561
3551.29350	0.04563
3550.00773	0.04556
3548.72196	0.04567
3547.43619	0.04613
3546.15042	0.04687
3544.86466	0.04766
3543.57889	0.04834
3542.29312	0.04886
3541.00735	0.04922
3539.72158	0.04940
3538.43581	0.04942
3537.15004	0.04943
3535.86427	0.04959
3534.57850	0.04991
3533.29274	0.05030
3532.00697	0.05059
3530.72120	0.05072
3529.43543	0.05077
3528.14966	0.05083
3526.86389	0.05085
3525.57812	0.05074
3524.29235	0.05049
3523.00659	0.05029
3521.72082	0.05035
3520.43505	0.05073
3519.14928	0.05134
3517.86351	0.05214
3516.57774	0.05311
3515.29197	0.05407
3514.00620	0.05470
3512.72043	0.05476
3511.43467	0.05433
3510.14890	0.05375
3508.86313	0.05327
3507.57736	0.05303
3506.29159	0.05308
3505.00582	0.05337
3503.72005	0.05380
3502.43428	0.05427
3501.14852	0.05484
3499.86275	0.05551
3498.57698	0.05603
3497.29121	0.05609
3496.00544	0.05569
3494.71967	0.05524
3493.43390	0.05516
3492.14813	0.05558
3490.86236	0.05625
3489.57660	0.05685
3488.29083	0.05723
3487.00506	0.05744
3485.71929	0.05750
3484.43352	0.05743
3483.14775	0.05728
3481.86198	0.05716
3480.57621	0.05716
3479.29045	0.05733
3478.00468	0.05768
3476.71891	0.05806
3475.43314	0.05833
3474.14737	0.05838
3472.86160	0.05828
3471.57583	0.05815
3470.29006	0.05817
3469.00429	0.05847
3467.71853	0.05903
3466.43276	0.05963
3465.14699	0.06002
3463.86122	0.06015
3462.57545	0.06023
3461.28968	0.06047
3460.00391	0.06090
3458.71814	0.06147
3457.43238	0.06212
3456.14661	0.06272
3454.86084	0.06300
3453.57507	0.06276
3452.28930	0.06212
3451.00353	0.06147
3449.71776	0.06124
3448.43199	0.06152
3447.14622	0.06204
3445.86046	0.06234
3444.57469	0.06217
3443.28892	0.06167
3442.00315	0.06115
3440.71738	0.06086
3439.43161	0.06086
3438.14584	0.06116
3436.86007	0.06169
3435.57431	0.06227
3434.28854	0.06276
3433.00277	0.06319
3431.71700	0.06366
3430.43123	0.06416
3429.14546	0.06454
3427.85969	0.06472
3426.57392	0.06478
3425.28815	0.06481
3424.00239	0.06489
3422.71662	0.06500
3421.43085	0.06513
3420.14508	0.06525
3418.85931	0.06522
3417.57354	0.06496
3416.28777	0.06453
3415.00200	0.06412
3413.71624	0.06388
3412.43047	0.06389
3411.14470	0.06412
3409.85893	0.06449
3408.57316	0.06483
3407.28739	0.06507
3406.00162	0.06521
3404.71585	0.06536
3403.43008	0.06557
3402.14432	0.06587
3400.85855	0.06627
3399.57278	0.06667
3398.28701	0.06696
3397.00124	0.06708
3395.71547	0.06712
3394.42970	0.06725
3393.14393	0.06747
3391.85817	0.06755
3390.57240	0.06737
3389.28663	0.06704
3388.00086	0.06681
3386.71509	0.06680
3385.42932	0.06695
3384.14355	0.06717
3382.85778	0.06739
3381.57201	0.06749
3380.28625	0.06735
3379.00048	0.06701
3377.71471	0.06673
3376.42894	0.06680
3375.14317	0.06726
3373.85740	0.06783
3372.57163	0.06812
3371.28586	0.06804
3370.00010	0.06782
3368.71433	0.06777
3367.42856	0.06792
3366.14279	0.06808
3364.85702	0.06809
3363.57125	0.06805
3362.28548	0.06817
3360.99971	0.06852
3359.71394	0.06903
3358.42818	0.06951
3357.14241	0.06984
3355.85664	0.07000
3354.57087	0.07007
3353.28510	0.07019
3351.99933	0.07040
3350.71356	0.07062
3349.42779	0.07065
3348.14202	0.07040
3346.85626	0.06996
3345.57049	0.06949
3344.28472	0.06909
3342.99895	0.06876
3341.71318	0.06853
3340.42741	0.06844
3339.14164	0.06844
3337.85587	0.06841
3336.57011	0.06827
3335.28434	0.06807
3333.99857	0.06801
3332.71280	0.06824
3331.42703	0.06877
3330.14126	0.06938
3328.85549	0.06975
3327.56972	0.06972
3326.28395	0.06942
3324.99819	0.06919
3323.71242	0.06922
3322.42665	0.06941
3321.14088	0.06956
3319.85511	0.06955
3318.56934	0.06945
3317.28357	0.06937
3315.99780	0.06943
3314.71204	0.06971
3313.42627	0.07020
3312.14050	0.07075
3310.85473	0.07116
3309.56896	0.07121
3308.28319	0.07083
3306.99742	0.07014
3305.71165	0.06941
3304.42588	0.06890
3303.14012	0.06865
3301.85435	0.06854
3300.56858	0.06841
3299.28281	0.06830
3297.99704	0.06827
3296.71127	0.06839
3295.42550	0.06863
3294.13973	0.06893
3292.85397	0.06919
3291.56820	0.06938
3290.28243	0.06949
3288.99666	0.06954
3287.71089	0.06950
3286.42512	0.06936
3285.13935	0.06910
3283.85358	0.06873
3282.56781	0.06832
3281.28205	0.06804
3279.99628	0.06798
3278.71051	0.06812
3277.42474	0.06833
3276.13897	0.06847
3274.85320	0.06843
3273.56743	0.06819
3272.28166	0.06783
3270.99590	0.06756
3269.71013	0.06755
3268.42436	0.06777
3267.13859	0.06805
3265.85282	0.06825
3264.56705	0.06835
3263.28128	0.06840
3261.99551	0.06841
3260.70974	0.06834
3259.42398	0.06817
3258.13821	0.06794
3256.85244	0.06772
3255.56667	0.06756
3254.28090	0.06748
3252.99513	0.06748
3251.70936	0.06761
3250.42359	0.06792
3249.13783	0.06832
3247.85206	0.06852
3246.56629	0.06834
3245.28052	0.06788
3243.99475	0.06741
3242.70898	0.06711
3241.42321	0.06694
3240.13744	0.06677
3238.85167	0.06657
3237.56591	0.06644
3236.28014	0.06643
3234.99437	0.06644
3233.70860	0.06635
3232.42283	0.06615
3231.13706	0.06596
3229.85129	0.06588
3228.56552	0.06587
3227.27976	0.06579
3225.99399	0.06556
3224.70822	0.06523
3223.42245	0.06501
3222.13668	0.06506
3220.85091	0.06540
3219.56514	0.06585
3218.27937	0.06614
3216.99360	0.06607
3215.70784	0.06577
3214.42207	0.06551
3213.13630	0.06548
3211.85053	0.06561
3210.56476	0.06567
3209.27899	0.06561
3207.99322	0.06554
3206.70745	0.06552
3205.42169	0.06545
3204.13592	0.06527
3202.85015	0.06513
3201.56438	0.06519
3200.27861	0.06538
3198.99284	0.06541
3197.70707	0.06511
3196.42130	0.06460
3195.13553	0.06409
3193.84977	0.06372
3192.56400	0.06351
3191.27823	0.06347
3189.99246	0.06361
3188.70669	0.06382
3187.42092	0.06396
3186.13515	0.06398
3184.84938	0.06396
3183.56362	0.06400
3182.27785	0.06412
3180.99208	0.06427
3179.70631	0.06433
3178.42054	0.06420
3177.13477	0.06388
3175.84900	0.06346
3174.56323	0.06315
3173.27746	0.06301
3171.99170	0.06295
3170.70593	0.06280
3169.42016	0.06248
3168.13439	0.06205
3166.84862	0.06165
3165.56285	0.06139
3164.27708	0.06133
3162.99131	0.06141
3161.70555	0.06158
3160.41978	0.06177
3159.13401	0.06189
3157.84824	0.06185
3156.56247	0.06162
3155.27670	0.06126
3153.99093	0.06092
3152.70516	0.06075
3151.41939	0.06077
3150.13363	0.06082
3148.84786	0.06075
3147.56209	0.06057
3146.27632	0.06046
3144.99055	0.06056
3143.70478	0.06080
3142.41901	0.06098
3141.13324	0.06103
3139.84748	0.06101
3138.56171	0.06100
3137.27594	0.06102
3135.99017	0.06101
3134.70440	0.06092
3133.41863	0.06070
3132.13286	0.06032
3130.84709	0.05989
3129.56132	0.05959
3128.27556	0.05955
3126.98979	0.05965
3125.70402	0.05965
3124.41825	0.05945
3123.13248	0.05913
3121.84671	0.05885
3120.56094	0.05877
3119.27517	0.05892
3117.98940	0.05923
3116.70364	0.05944
3115.41787	0.05929
3114.13210	0.05873
3112.84633	0.05813
3111.56056	0.05795
3110.27479	0.05835
3108.98902	0.05896
3107.70325	0.05934
3106.41749	0.05933
3105.13172	0.05915
3103.84595	0.05905
3102.56018	0.05907
3101.27441	0.05915
3099.98864	0.05919
3098.70287	0.05915
3097.41710	0.05899
3096.13133	0.05874
3094.84557	0.05847
3093.55980	0.05820
3092.27403	0.05792
3090.98826	0.05761
3089.70249	0.05734
3088.41672	0.05714
3087.13095	0.05698
3085.84518	0.05682
3084.55942	0.05673
3083.27365	0.05681
3081.98788	0.05702
3080.70211	0.05724
3079.41634	0.05736
3078.13057	0.05743
3076.84480	0.05746
3075.55903	0.05740
3074.27326	0.05717
3072.98750	0.05680
3071.70173	0.05642
3070.41596	0.05619
3069.13019	0.05614
3067.84442	0.05619
3066.55865	0.05620
3065.27288	0.05613
3063.98711	0.05607
3062.70135	0.05613
3061.41558	0.05627
3060.12981	0.05635
3058.84404	0.05629
3057.55827	0.05612
3056.27250	0.05594
3054.98673	0.05583
3053.70096	0.05584
3052.41519	0.05597
3051.12943	0.05616
3049.84366	0.05625
3048.55789	0.05611
3047.27212	0.05581
3045.98635	0.05552
3044.70058	0.05535
3043.41481	0.05519
3042.12904	0.05491
3040.84328	0.05454
3039.55751	0.05430
3038.27174	0.05428
3036.98597	0.05432
3035.70020	0.05418
3034.41443	0.05375
3033.12866	0.05320
3031.84289	0.05277
3030.55712	0.05258
3029.27136	0.05262
3027.98559	0.05278
3026.69982	0.05302
3025.41405	0.05327
3024.12828	0.05345
3022.84251	0.05345
3021.55674	0.05324
3020.27097	0.05290
3018.98521	0.05259
3017.69944	0.05251
3016.41367	0.05271
3015.12790	0.05309
3013.84213	0.05347
3012.55636	0.05369
3011.27059	0.05366
3009.98482	0.05334
3008.69905	0.05290
3007.41329	0.05258
3006.12752	0.05252
3004.84175	0.05259
3003.55598	0.05254
3002.27021	0.05229
3000.98444	0.05188
2999.69867	0.05151
2998.41290	0.05136
2997.12714	0.05145
2995.84137	0.05165
2994.55560	0.05173
2993.26983	0.05157
2991.98406	0.05121
2990.69829	0.05085
2989.41252	0.05065
2988.12675	0.05063
2986.84098	0.05076
2985.55522	0.05098
2984.26945	0.05125
2982.98368	0.05156
2981.69791	0.05192
2980.41214	0.05230
2979.12637	0.05261
2977.84060	0.05274
2976.55483	0.05272
2975.26907	0.05272
2973.98330	0.05287
2972.69753	0.05319
2971.41176	0.05354
2970.12599	0.05380
2968.84022	0.05393
2967.55445	0.05400
2966.26868	0.05417
2964.98291	0.05456
2963.69715	0.05511
2962.41138	0.05566
2961.12561	0.05610
2959.83984	0.05646
2958.55407	0.05685
2957.26830	0.05731
2955.98253	0.05781
2954.69676	0.05829
2953.41100	0.05867
2952.12523	0.05887
2950.83946	0.05888
2949.55369	0.05879
2948.26792	0.05872
2946.98215	0.05869
2945.69638	0.05865
2944.41061	0.05850
2943.12484	0.05828
2941.83908	0.05811
2940.55331	0.05806
2939.26754	0.05809
2937.98177	0.05814
2936.69600	0.05825
2935.41023	0.05858
2934.12446	0.05915
2932.83869	0.05976
2931.55293	0.06018
2930.26716	0.06037
2928.98139	0.06051
2927.69562	0.06071
2926.40985	0.06090
2925.12408	0.06092
2923.83831	0.06068
2922.55254	0.06020
2921.26677	0.05955
2919.98101	0.05884
2918.69524	0.05825
2917.40947	0.05792
2916.12370	0.05782
2914.83793	0.05777
2913.55216	0.05759
2912.26639	0.05723
2910.98062	0.05676
2909.69486	0.05634
2908.40909	0.05614
2907.12332	0.05613
2905.83755	0.05615
2904.55178	0.05599
2903.26601	0.05569
2901.98024	0.05540
2900.69447	0.05514
2899.40870	0.05479
2898.12294	0.05430
2896.83717	0.05373
2895.55140	0.05324
2894.26563	0.05286
2892.97986	0.05254
2891.69409	0.05227
2890.40832	0.05212
2889.12255	0.05217
2887.83678	0.05236
2886.55102	0.05253
2885.26525	0.05250
2883.97948	0.05224
2882.69371	0.05184
2881.40794	0.05145
2880.12217	0.05122
2878.83640	0.05129
2877.55063	0.05160
2876.26487	0.05191
2874.97910	0.05194
2873.69333	0.05172
2872.40756	0.05161
2871.12179	0.05187
2869.83602	0.05237
2868.55025	0.05272
2867.26448	0.05265
2865.97871	0.05220
2864.69295	0.05165
2863.40718	0.05123
2862.12141	0.05106
2860.83564	0.05107
2859.54987	0.05110
2858.26410	0.05100
2856.97833	0.05071
2855.69256	0.05031
2854.40680	0.04988
2853.12103	0.04951
2851.83526	0.04924
2850.54949	0.04904
2849.26372	0.04892
2847.97795	0.04886
2846.69218	0.04877
2845.40641	0.04853
2844.12064	0.04811
2842.83488	0.04768
2841.54911	0.04743
2840.26334	0.04733
2838.97757	0.04721
2837.69180	0.04690
2836.40603	0.04643
2835.12026	0.04593
2833.83449	0.04551
2832.54873	0.04517
2831.26296	0.04489
2829.97719	0.04464
2828.69142	0.04441
2827.40565	0.04422
2826.11988	0.04411
2824.83411	0.04407
2823.54834	0.04396
2822.26257	0.04367
2820.97681	0.04321
2819.69104	0.04276
2818.40527	0.04242
2817.11950	0.04217
2815.83373	0.04190
2814.54796	0.04157
2813.26219	0.04128
2811.97642	0.04115
2810.69066	0.04122
2809.40489	0.04141
2808.11912	0.04158
2806.83335	0.04162
2805.54758	0.04146
2804.26181	0.04120
2802.97604	0.04094
2801.69027	0.04077
2800.40450	0.04064
2799.11874	0.04054
2797.83297	0.04053
2796.54720	0.04065
2795.26143	0.04086
2793.97566	0.04103
2792.68989	0.04108
2791.40412	0.04100
2790.11835	0.04080
2788.83259	0.04054
2787.54682	0.04030
2786.26105	0.04014
2784.97528	0.04006
2783.68951	0.04004
2782.40374	0.04007
2781.11797	0.04013
2779.83220	0.04011
2778.54643	0.03991
2777.26067	0.03961
2775.97490	0.03938
2774.68913	0.03930
2773.40336	0.03931
2772.11759	0.03932
2770.83182	0.03925
2769.54605	0.03909
2768.26028	0.03882
2766.97452	0.03852
2765.68875	0.03833
2764.40298	0.03834
2763.11721	0.03850
2761.83144	0.03864
2760.54567	0.03869
2759.25990	0.03865
2757.97413	0.03861
2756.68836	0.03861
2755.40260	0.03863
2754.11683	0.03859
2752.83106	0.03841
2751.54529	0.03811
2750.25952	0.03780
2748.97375	0.03764
2747.68798	0.03773
2746.40221	0.03801
2745.11645	0.03833
2743.83068	0.03853
2742.54491	0.03853
2741.25914	0.03838
2739.97337	0.03820
2738.68760	0.03808
2737.40183	0.03800
2736.11606	0.03794
2734.83029	0.03787
2733.54453	0.03774
2732.25876	0.03757
2730.97299	0.03745
2729.68722	0.03741
2728.40145	0.03743
2727.11568	0.03742
2725.82991	0.03734
2724.54414	0.03719
2723.25838	0.03705
2721.97261	0.03691
2720.68684	0.03674
2719.40107	0.03651
2718.11530	0.03628
2716.82953	0.03616
2715.54376	0.03616
2714.25799	0.03619
2712.97222	0.03621
2711.68646	0.03623
2710.40069	0.03627
2709.11492	0.03631
2707.82915	0.03629
2706.54338	0.03621
2705.25761	0.03609
2703.97184	0.03602
2702.68607	0.03605
2701.40031	0.03616
2700.11454	0.03624
2698.82877	0.03624
2697.54300	0.03617
2696.25723	0.03608
2694.97146	0.03596
2693.68569	0.03576
2692.39992	0.03551
2691.11415	0.03531
2689.82839	0.03527
2688.54262	0.03537
2687.25685	0.03551
2685.97108	0.03560
2684.68531	0.03559
2683.39954	0.03549
2682.11377	0.03533
2680.82800	0.03517
2679.54224	0.03510
2678.25647	0.03509
2676.97070	0.03502
2675.68493	0.03482
2674.39916	0.03455
2673.11339	0.03438
2671.82762	0.03437
2670.54185	0.03448
2669.25608	0.03462
2667.97032	0.03473
2666.68455	0.03478
2665.39878	0.03480
2664.11301	0.03484
2662.82724	0.03492
2661.54147	0.03496
2660.25570	0.03489
2658.96993	0.03474
2657.68417	0.03460
2656.39840	0.03446
2655.11263	0.03429
2653.82686	0.03408
2652.54109	0.03390
2651.25532	0.03378
2649.96955	0.03372
2648.68378	0.03368
2647.39801	0.03366
2646.11225	0.03365
2644.82648	0.03357
2643.54071	0.03339
2642.25494	0.03319
2640.96917	0.03312
2639.68340	0.03324
2638.39763	0.03333
2637.11186	0.03315
2635.82609	0.03267
2634.54033	0.03212
2633.25456	0.03178
2631.96879	0.03170
2630.68302	0.03177
2629.39725	0.03181
2628.11148	0.03170
2626.82571	0.03143
2625.53994	0.03113
2624.25418	0.03091
2622.96841	0.03082
2621.68264	0.03080
2620.39687	0.03075
2619.11110	0.03061
2617.82533	0.03043
2616.53956	0.03029
2615.25379	0.03023
2613.96802	0.03027
2612.68226	0.03036
2611.39649	0.03048
2610.11072	0.03053
2608.82495	0.03033
2607.53918	0.02989
2606.25341	0.02943
2604.96764	0.02925
2603.68187	0.02934
2602.39611	0.02943
2601.11034	0.02928
2599.82457	0.02897
2598.53880	0.02872
2597.25303	0.02868
2595.96726	0.02888
2594.68149	0.02917
2593.39572	0.02934
2592.10995	0.02933
2590.82419	0.02928
2589.53842	0.02932
2588.25265	0.02930
2586.96688	0.02901
2585.68111	0.02847
2584.39534	0.02795
2583.10957	0.02759
2581.82380	0.02736
2580.53804	0.02724
2579.25227	0.02727
2577.96650	0.02741
2576.68073	0.02755
2575.39496	0.02758
2574.10919	0.02739
2572.82342	0.02695
2571.53765	0.02632
2570.25188	0.02581
2568.96612	0.02569
2567.68035	0.02590
2566.39458	0.02610
2565.10881	0.02608
2563.82304	0.02604
2562.53727	0.02635
2561.25150	0.02693
2559.96573	0.02729
2558.67997	0.02714
2557.39420	0.02676
2556.10843	0.02661
2554.82266	0.02678
2553.53689	0.02698
2552.25112	0.02707
2550.96535	0.02717
2549.67958	0.02743
2548.39381	0.02770
2547.10805	0.02779
2545.82228	0.02767
2544.53651	0.02744
2543.25074	0.02715
2541.96497	0.02679
2540.67920	0.02640
2539.39343	0.02612
2538.10766	0.02605
2536.82190	0.02611
2535.53613	0.02617
2534.25036	0.02614
2532.96459	0.02607
2531.67882	0.02599
2530.39305	0.02582
2529.10728	0.02543
2527.82151	0.02495
2526.53574	0.02473
2525.24998	0.02502
2523.96421	0.02566
2522.67844	0.02621
2521.39267	0.02638
2520.10690	0.02625
2518.82113	0.02612
2517.53536	0.02618
2516.24959	0.02626
2514.96383	0.02610
2513.67806	0.02574
2512.39229	0.02547
2511.10652	0.02540
2509.82075	0.02530
2508.53498	0.02499
2507.24921	0.02463
2505.96344	0.02451
2504.67767	0.02479
2503.39191	0.02537
2502.10614	0.02604
2500.82037	0.02656
2499.53460	0.02669
2498.24883	0.02642
2496.96306	0.02594
2495.67729	0.02548
2494.39152	0.02518
2493.10576	0.02506
2491.81999	0.02509
2490.53422	0.02520
2489.24845	0.02530
2487.96268	0.02534
2486.67691	0.02534
2485.39114	0.02535
2484.10537	0.02537
2482.81960	0.02537
2481.53384	0.02531
2480.24807	0.02519
2478.96230	0.02503
2477.67653	0.02487
2476.39076	0.02478
2475.10499	0.02475
2473.81922	0.02471
2472.53345	0.02457
2471.24769	0.02437
2469.96192	0.02418
2468.67615	0.02405
2467.39038	0.02403
2466.10461	0.02418
2464.81884	0.02441
2463.53307	0.02456
2462.24730	0.02455
2460.96153	0.02456
2459.67577	0.02476
2458.39000	0.02508
2457.10423	0.02521
2455.81846	0.02500
2454.53269	0.02461
2453.24692	0.02432
2451.96115	0.02421
2450.67538	0.02426
2449.38962	0.02440
2448.10385	0.02462
2446.81808	0.02479
2445.53231	0.02476
2444.24654	0.02452
2442.96077	0.02420
2441.67500	0.02398
2440.38923	0.02387
2439.10346	0.02378
2437.81770	0.02367
2436.53193	0.02360
2435.24616	0.02364
2433.96039	0.02375
2432.67462	0.02387
2431.38885	0.02398
2430.10308	0.02398
2428.81731	0.02376
2427.53155	0.02335
2426.24578	0.02294
2424.96001	0.02265
2423.67424	0.02248
2422.38847	0.02246
2421.10270	0.02268
2419.81693	0.02310
2418.53116	0.02347
2417.24539	0.02358
2415.95963	0.02338
2414.67386	0.02299
2413.38809	0.02261
2412.10232	0.02243
2410.81655	0.02256
2409.53078	0.02291
2408.24501	0.02325
2406.95924	0.02342
2405.67347	0.02341
2404.38771	0.02329
2403.10194	0.02310
2401.81617	0.02292
2400.53040	0.02284
2399.24463	0.02288
2397.95886	0.02307
2396.67309	0.02333
2395.38732	0.02359
2394.10156	0.02377
2392.81579	0.02384
2391.53002	0.02376
2390.24425	0.02358
2388.95848	0.02340
2387.67271	0.02332
2386.38694	0.02333
2385.10117	0.02332
2383.81540	0.02317
2382.52964	0.02293
2381.24387	0.02275
2379.95810	0.02275
2378.67233	0.02295
2377.38656	0.02321
2376.10079	0.02339
2374.81502	0.02341
2373.52925	0.02333
2372.24349	0.02323
2370.95772	0.02313
2369.67195	0.02292
2368.38618	0.02254
2367.10041	0.02206
2365.81464	0.02166
2364.52887	0.02144
2363.24310	0.02143
2361.95733	0.02160
2360.67157	0.02188
2359.38580	0.02222
2358.10003	0.02258
2356.81426	0.02299
2355.52849	0.02340
2354.24272	0.02375
2352.95695	0.02398
2351.67118	0.02410
2350.38542	0.02411
2349.09965	0.02397
2347.81388	0.02372
2346.52811	0.02346
2345.24234	0.02334
2343.95657	0.02335
2342.67080	0.02334
2341.38503	0.02320
2340.09926	0.02289
2338.81350	0.02255
2337.52773	0.02234
2336.24196	0.02235
2334.95619	0.02253
2333.67042	0.02276
2332.38465	0.02294
2331.09888	0.02304
2329.81311	0.02311
2328.52735	0.02327
2327.24158	0.02363
2325.95581	0.02411
2324.67004	0.02452
2323.38427	0.02465
2322.09850	0.02453
2320.81273	0.02428
2319.52696	0.02400
2318.24119	0.02372
2316.95543	0.02345
2315.66966	0.02323
2314.38389	0.02315
2313.09812	0.02325
2311.81235	0.02344
2310.52658	0.02349
2309.24081	0.02319
2307.95504	0.02256
2306.66928	0.02189
2305.38351	0.02149
2304.09774	0.02148
2302.81197	0.02178
2301.52620	0.02223
2300.24043	0.02260
2298.95466	0.02272
2297.66889	0.02255
2296.38312	0.02229
2295.09736	0.02219
2293.81159	0.02227
2292.52582	0.02237
2291.24005	0.02231
2289.95428	0.02213
2288.66851	0.02190
2287.38274	0.02166
2286.09697	0.02139
2284.81121	0.02114
2283.52544	0.02101
2282.23967	0.02100
2280.95390	0.02099
2279.66813	0.02082
2278.38236	0.02045
2277.09659	0.01997
2275.81082	0.01950
2274.52505	0.01924
2273.23929	0.01935
2271.95352	0.01979
2270.66775	0.02021
2269.38198	0.02021
2268.09621	0.01971
2266.81044	0.01903
2265.52467	0.01849
2264.23890	0.01820
2262.95314	0.01810
2261.66737	0.01816
2260.38160	0.01837
2259.09583	0.01862
2257.81006	0.01873
2256.52429	0.01855
2255.23852	0.01810
2253.95275	0.01752
2252.66698	0.01691
2251.38122	0.01631
2250.09545	0.01586
2248.80968	0.01574
2247.52391	0.01589
2246.23814	0.01633
2244.95237	0.01678
2243.66660	0.01703
2242.38083	0.01706
2241.09507	0.01700
2239.80930	0.01688
2238.52353	0.01655
2237.23776	0.01592
2235.95199	0.01513
2234.66622	0.01448
2233.38045	0.01416
2232.09468	0.01415
2230.80891	0.01435
2229.52315	0.01482
2228.23738	0.01557
2226.95161	0.01633
2225.66584	0.01655
2224.38007	0.01591
2223.09430	0.01465
2221.80853	0.01333
2220.52276	0.01253
2219.23700	0.01251
2217.95123	0.01316
2216.66546	0.01402
2215.37969	0.01467
2214.09392	0.01509
2212.80815	0.01546
2211.52238	0.01564
2210.23661	0.01524
2208.95084	0.01425
2207.66508	0.01326
2206.37931	0.01288
2205.09354	0.01299
2203.80777	0.01290
2202.52200	0.01220
2201.23623	0.01125
2199.95046	0.01072
2198.66469	0.01087
2197.37893	0.01148
2196.09316	0.01219
2194.80739	0.01269
2193.52162	0.01277
2192.23585	0.01248
2190.95008	0.01214
2189.66431	0.01194
2188.37854	0.01174
2187.09277	0.01144
2185.80701	0.01126
2184.52124	0.01140
2183.23547	0.01169
2181.94970	0.01169
2180.66393	0.01119
2179.37816	0.01035
2178.09239	0.00956
2176.80662	0.00921
2175.52085	0.00951
2174.23509	0.01020
2172.94932	0.01069
2171.66355	0.01052
2170.37778	0.00979
2169.09201	0.00892
2167.80624	0.00822
2166.52047	0.00781
2165.23470	0.00772
2163.94894	0.00781
2162.66317	0.00751
2161.37740	0.00612
2160.09163	0.00360
2158.80586	0.00112
2157.52009	0.00013
2156.23432	0.00115
2154.94855	0.00344
2153.66278	0.00575
2152.37702	0.00707
2151.09125	0.00714
2149.80548	0.00657
2148.51971	0.00633
2147.23394	0.00680
2145.94817	0.00742
2144.66240	0.00746
2143.37663	0.00691
2142.09087	0.00649
2140.80510	0.00678
2139.51933	0.00764
2138.23356	0.00846
2136.94779	0.00873
2135.66202	0.00856
2134.37625	0.00843
2133.09048	0.00869
2131.80471	0.00919
2130.51895	0.00954
2129.23318	0.00973
2127.94741	0.01014
2126.66164	0.01104
2125.37587	0.01213
2124.09010	0.01288
2122.80433	0.01296
2121.51856	0.01248
2120.23280	0.01183
2118.94703	0.01135
2117.66126	0.01123
2116.37549	0.01143
2115.08972	0.01174
2113.80395	0.01188
2112.51818	0.01174
2111.23241	0.01151
2109.94664	0.01154
2108.66088	0.01197
2107.37511	0.01255
2106.08934	0.01292
2104.80357	0.01294
2103.51780	0.01265
2102.23203	0.01213
2100.94626	0.01169
2099.66049	0.01341
2098.37473	0.01414
2097.08896	0.01359
2095.80319	0.01245
2094.51742	0.01127
2093.23165	0.01048
2091.94588	0.01013
2090.66011	0.00998
2089.37434	0.00977
2088.08857	0.00943
2086.80281	0.00911
2085.51704	0.00907
2084.23127	0.00949
2082.94550	0.01035
2081.65973	0.01139
2080.37396	0.01233
2079.08819	0.01296
2077.80242	0.01314
2076.51666	0.01294
2075.23089	0.01259
2073.94512	0.01236
2072.65935	0.01236
2071.37358	0.01248
2070.08781	0.01247
2068.80204	0.01218
2067.51627	0.01158
2066.23050	0.01078
2064.94474	0.00994
2063.65897	0.00923
2062.37320	0.00871
2061.08743	0.00834
2059.80166	0.00805
2058.51589	0.00778
2057.23012	0.00742
2055.94435	0.00691
2054.65859	0.00643
2053.37282	0.00643
2052.08705	0.00727
2050.80128	0.00889
2049.51551	0.01068
2048.22974	0.01186
2046.94397	0.01182
2045.65820	0.01049
2044.37243	0.00847
2043.08667	0.00670
2041.80090	0.00572
2040.51513	0.00544
2039.22936	0.00539
2037.94359	0.00542
2036.65782	0.00571
2035.37205	0.00633
2034.08628	0.00692
2032.80052	0.00702
2031.51475	0.00660
2030.22898	0.00613
2028.94321	0.00606
2027.65744	0.00648
2026.37167	0.00709
2025.08590	0.00749
2023.80013	0.00739
2022.51436	0.00678
2021.22860	0.00601
2019.94283	0.00555
2018.65706	0.00570
2017.37129	0.00631
2016.08552	0.00692
2014.79975	0.00716
2013.51398	0.00705
2012.22821	0.00706
2010.94245	0.00765
2009.65668	0.00884
2008.37091	0.01009
2007.08514	0.01085
2005.79937	0.01090
2004.51360	0.01047
2003.22783	0.00986
2001.94206	0.00918
2000.65629	0.00841
1999.37053	0.00765
1998.08476	0.00725
1996.79899	0.00757
1995.51322	0.00848
1994.22745	0.00934
1992.94168	0.00950
1991.65591	0.00882
1990.37014	0.00773
1989.08438	0.00678
1987.79861	0.00624
1986.51284	0.00615
1985.22707	0.00645
1983.94130	0.00723
1982.65553	0.00874
1981.36976	0.01102
1980.08399	0.01365
1978.79822	0.01576
1977.51246	0.01663
1976.22669	0.01619
1974.94092	0.01500
1973.65515	0.01385
1972.36938	0.01328
1971.08361	0.01343
1969.79784	0.01399
1968.51207	0.01444
1967.22631	0.01433
1965.94054	0.01367
1964.65477	0.01283
1963.36900	0.01219
1962.08323	0.01182
1960.79746	0.01155
1959.51169	0.01120
1958.22592	0.01069
1956.94015	0.01014
1955.65439	0.00985
1954.36862	0.01014
1953.08285	0.01098
1951.79708	0.01195
1950.51131	0.01257
1949.22554	0.01268
1947.93977	0.01246
1946.65400	0.01224
1945.36823	0.01225
1944.08247	0.01257
1942.79670	0.01303
1941.51093	0.01333
1940.22516	0.01319
1938.93939	0.01257
1937.65362	0.01174
1936.36785	0.01121
1935.08208	0.01136
1933.79632	0.01214
1932.51055	0.01314
1931.22478	0.01389
1929.93901	0.01423
1928.65324	0.01426
1927.36747	0.01414
1926.08170	0.01403
1924.79593	0.01398
1923.51016	0.01398
1922.22440	0.01397
1920.93863	0.01391
1919.65286	0.01383
1918.36709	0.01378
1917.08132	0.01380
1915.79555	0.01393
1914.50978	0.01411
1913.22401	0.01428
1911.93825	0.01433
1910.65248	0.01422
1909.36671	0.01404
1908.08094	0.01393
1906.79517	0.01393
1905.50940	0.01401
1904.22363	0.01412
1902.93786	0.01430
1901.65209	0.01456
1900.36633	0.01484
1899.08056	0.01505
1897.79479	0.01515
1896.50902	0.01519
1895.22325	0.01521
1893.93748	0.01516
1892.65171	0.01500
1891.36594	0.01469
1890.08018	0.01429
1888.79441	0.01388
1887.50864	0.01358
1886.22287	0.01350
1884.93710	0.01363
1883.65133	0.01384
1882.36556	0.01402
1881.07979	0.01419
1879.79402	0.01443
1878.50826	0.01465
1877.22249	0.01463
1875.93672	0.01423
1874.65095	0.01362
1873.36518	0.01317
1872.07941	0.01313
1870.79364	0.01348
1869.50787	0.01393
1868.22211	0.01423
1866.93634	0.01434
1865.65057	0.01437
1864.36480	0.01447
1863.07903	0.01461
1861.79326	0.01470
1860.50749	0.01471
1859.22172	0.01470
1857.93595	0.01474
1856.65019	0.01477
1855.36442	0.01470
1854.07865	0.01447
1852.79288	0.01415
1851.50711	0.01386
1850.22134	0.01373
1848.93557	0.01383
1847.64980	0.01416
1846.36404	0.01459
1845.07827	0.01492
1843.79250	0.01497
1842.50673	0.01478
1841.22096	0.01451
1839.93519	0.01434
1838.64942	0.01424
1837.36365	0.01410
1836.07788	0.01387
1834.79212	0.01364
1833.50635	0.01351
1832.22058	0.01351
1830.93481	0.01360
1829.64904	0.01375
1828.36327	0.01400
1827.07750	0.01436
1825.79173	0.01477
1824.50597	0.01518
1823.22020	0.01556
1821.93443	0.01584
1820.64866	0.01594
1819.36289	0.01574
1818.07712	0.01525
1816.79135	0.01464
1815.50558	0.01414
1814.21981	0.01396
1812.93405	0.01405
1811.64828	0.01422
1810.36251	0.01433
1809.07674	0.01434
1807.79097	0.01432
1806.50520	0.01429
1805.21943	0.01423
1803.93366	0.01417
1802.64790	0.01417
1801.36213	0.01427
1800.07636	0.01446
1798.79059	0.01472
1797.50482	0.01499
1796.21905	0.01521
1794.93328	0.01532
1793.64751	0.01528
1792.36174	0.01518
1791.07598	0.01512
1789.79021	0.01517
1788.50444	0.01528
1787.21867	0.01537
1785.93290	0.01539
1784.64713	0.01537
1783.36136	0.01538
1782.07559	0.01543
1780.78983	0.01550
1779.50406	0.01554
1778.21829	0.01550
1776.93252	0.01541
1775.64675	0.01530
1774.36098	0.01523
1773.07521	0.01523
1771.78944	0.01530
1770.50367	0.01541
1769.21791	0.01553
1767.93214	0.01564
1766.64637	0.01577
1765.36060	0.01593
1764.07483	0.01608
1762.78906	0.01617
1761.50329	0.01619
1760.21752	0.01614
1758.93176	0.01606
1757.64599	0.01597
1756.36022	0.01586
1755.07445	0.01578
1753.78868	0.01578
1752.50291	0.01591
1751.21714	0.01611
1749.93137	0.01630
1748.64560	0.01640
1747.35984	0.01642
1746.07407	0.01638
1744.78830	0.01633
1743.50253	0.01631
1742.21676	0.01633
1740.93099	0.01636
1739.64522	0.01642
1738.35945	0.01653
1737.07369	0.01676
1735.78792	0.01709
1734.50215	0.01739
1733.21638	0.01754
1731.93061	0.01752
1730.64484	0.01742
1729.35907	0.01734
1728.07330	0.01731
1726.78753	0.01732
1725.50177	0.01738
1724.21600	0.01750
1722.93023	0.01772
1721.64446	0.01802
1720.35869	0.01836
1719.07292	0.01872
1717.78715	0.01906
1716.50138	0.01934
1715.21561	0.01958
1713.92985	0.01978
1712.64408	0.01998
1711.35831	0.02019
1710.07254	0.02041
1708.78677	0.02065
1707.50100	0.02095
1706.21523	0.02132
1704.92946	0.02178
1703.64370	0.02230
1702.35793	0.02283
1701.07216	0.02330
1699.78639	0.02369
1698.50062	0.02404
1697.21485	0.02440
1695.92908	0.02472
1694.64331	0.02499
1693.35754	0.02521
1692.07178	0.02547
1690.78601	0.02581
1689.50024	0.02624
1688.21447	0.02676
1686.92870	0.02736
1685.64293	0.02793
1684.35716	0.02839
1683.07139	0.02869
1681.78563	0.02893
1680.49986	0.02921
1679.21409	0.02961
1677.92832	0.03009
1676.64255	0.03059
1675.35678	0.03104
1674.07101	0.03144
1672.78524	0.03182
1671.49947	0.03223
1670.21371	0.03263
1668.92794	0.03299
1667.64217	0.03335
1666.35640	0.03375
1665.07063	0.03422
1663.78486	0.03469
1662.49909	0.03510
1661.21332	0.03543
1659.92756	0.03569
1658.64179	0.03590
1657.35602	0.03613
1656.07025	0.03646
1654.78448	0.03689
1653.49871	0.03730
1652.21294	0.03755
1650.92717	0.03761
1649.64140	0.03762
1648.35564	0.03773
1647.06987	0.03794
1645.78410	0.03814
1644.49833	0.03823
1643.21256	0.03822
1641.92679	0.03813
1640.64102	0.03804
1639.35525	0.03801
1638.06949	0.03805
1636.78372	0.03814
1635.49795	0.03820
1634.21218	0.03817
1632.92641	0.03809
1631.64064	0.03802
1630.35487	0.03801
1629.06910	0.03804
1627.78333	0.03808
1626.49757	0.03811
1625.21180	0.03812
1623.92603	0.03808
1622.64026	0.03797
1621.35449	0.03783
1620.06872	0.03774
1618.78295	0.03773
1617.49718	0.03779
1616.21142	0.03784
1614.92565	0.03785
1613.63988	0.03787
1612.35411	0.03794
1611.06834	0.03807
1609.78257	0.03823
1608.49680	0.03836
1607.21103	0.03847
1605.92526	0.03857
1604.63950	0.03869
1603.35373	0.03883
1602.06796	0.03897
1600.78219	0.03910
1599.49642	0.03922
1598.21065	0.03937
1596.92488	0.03958
1595.63911	0.03982
1594.35335	0.04006
1593.06758	0.04028
1591.78181	0.04049
1590.49604	0.04072
1589.21027	0.04093
1587.92450	0.04110
1586.63873	0.04123
1585.35296	0.04134
1584.06719	0.04146
1582.78143	0.04162
1581.49566	0.04185
1580.20989	0.04214
1578.92412	0.04250
1577.63835	0.04289
1576.35258	0.04324
1575.06681	0.04352
1573.78104	0.04375
1572.49528	0.04398
1571.20951	0.04422
1569.92374	0.04449
1568.63797	0.04477
1567.35220	0.04503
1566.06643	0.04525
1564.78066	0.04545
1563.49489	0.04569
1562.20912	0.04603
1560.92336	0.04646
1559.63759	0.04687
1558.35182	0.04714
1557.06605	0.04726
1555.78028	0.04731
1554.49451	0.04735
1553.20874	0.04740
1551.92297	0.04745
1550.63721	0.04755
1549.35144	0.04770
1548.06567	0.04789
1546.77990	0.04803
1545.49413	0.04808
1544.20836	0.04806
1542.92259	0.04804
1541.63682	0.04805
1540.35105	0.04804
1539.06529	0.04795
1537.77952	0.04780
1536.49375	0.04764
1535.20798	0.04755
1533.92221	0.04756
1532.63644	0.04765
1531.35067	0.04784
1530.06490	0.04814
1528.77914	0.04856
1527.49337	0.04904
1526.20760	0.04957
1524.92183	0.05012
1523.63606	0.05074
1522.35029	0.05146
1521.06452	0.05225
1519.77875	0.05309
1518.49298	0.05394
1517.20722	0.05484
1515.92145	0.05579
1514.63568	0.05681
1513.34991	0.05789
1512.06414	0.05900
1510.77837	0.06017
1509.49260	0.06142
1508.20683	0.06277
1506.92107	0.06414
1505.63530	0.06541
1504.34953	0.06653
1503.06376	0.06752
1501.77799	0.06848
1500.49222	0.06944
1499.20645	0.07042
1497.92068	0.07136
1496.63491	0.07219
1495.34915	0.07290
1494.06338	0.07352
1492.77761	0.07416
1491.49184	0.07488
1490.20607	0.07569
1488.92030	0.07654
1487.63453	0.07740
1486.34876	0.07826
1485.06299	0.07913
1483.77723	0.08007
1482.49146	0.08110
1481.20569	0.08225
1479.91992	0.08346
1478.63415	0.08466
1477.34838	0.08580
1476.06261	0.08687
1474.77684	0.08785
1473.49108	0.08876
1472.20531	0.08954
1470.91954	0.09020
1469.63377	0.09076
1468.34800	0.09127
1467.06223	0.09173
1465.77646	0.09213
1464.49069	0.09249
1463.20492	0.09287
1461.91916	0.09334
1460.63339	0.09395
1459.34762	0.09467
1458.06185	0.09544
1456.77608	0.09617
1455.49031	0.09679
1454.20454	0.09725
1452.91877	0.09755
1451.63301	0.09773
1450.34724	0.09786
1449.06147	0.09795
1447.77570	0.09797
1446.48993	0.09787
1445.20416	0.09765
1443.91839	0.09736
1442.63262	0.09705
1441.34685	0.09675
1440.06109	0.09651
1438.77532	0.09635
1437.48955	0.09634
1436.20378	0.09651
1434.91801	0.09685
1433.63224	0.09740
1432.34647	0.09818
1431.06070	0.09919
1429.77494	0.10037
1428.48917	0.10166
1427.20340	0.10302
1425.91763	0.10446
1424.63186	0.10598
1423.34609	0.10754
1422.06032	0.10906
1420.77455	0.11049
1419.48878	0.11175
1418.20302	0.11282
1416.91725	0.11365
1415.63148	0.11427
1414.34571	0.11466
1413.05994	0.11483
1411.77417	0.11474
1410.48840	0.11440
1409.20263	0.11379
1407.91687	0.11292
1406.63110	0.11184
1405.34533	0.11059
1404.05956	0.10920
1402.77379	0.10767
1401.48802	0.10596
1400.20225	0.10403
1398.91648	0.10187
1397.63071	0.09953
1396.34495	0.09710
1395.05918	0.09467
1393.77341	0.09228
1392.48764	0.08993
1391.20187	0.08761
1389.91610	0.08532
1388.63033	0.08305
1387.34456	0.08080
1386.05880	0.07857
1384.77303	0.07634
1383.48726	0.07412
1382.20149	0.07192
1380.91572	0.06977
1379.62995	0.06765
1378.34418	0.06554
1377.05841	0.06340
1375.77264	0.06123
1374.48688	0.05909
1373.20111	0.05701
1371.91534	0.05501
1370.62957	0.05310
1369.34380	0.05128
1368.05803	0.04957
1366.77226	0.04799
1365.48649	0.04653
1364.20073	0.04517
1362.91496	0.04386
1361.62919	0.04260
1360.34342	0.04139
1359.05765	0.04025
1357.77188	0.03922
1356.48611	0.03828
1355.20034	0.03739
1353.91457	0.03652
1352.62881	0.03565
1351.34304	0.03483
1350.05727	0.03410
1348.77150	0.03343
1347.48573	0.03281
1346.19996	0.03221
1344.91419	0.03165
1343.62842	0.03114
1342.34266	0.03066
1341.05689	0.03022
1339.77112	0.02979
1338.48535	0.02940
1337.19958	0.02903
1335.91381	0.02868
1334.62804	0.02835
1333.34227	0.02802
1332.05650	0.02769
1330.77074	0.02737
1329.48497	0.02706
1328.19920	0.02673
1326.91343	0.02639
1325.62766	0.02605
1324.34189	0.02578
1323.05612	0.02559
1321.77035	0.02547
1320.48459	0.02534
1319.19882	0.02518
1317.91305	0.02499
1316.62728	0.02480
1315.34151	0.02460
1314.05574	0.02439
1312.76997	0.02417
1311.48420	0.02396
1310.19843	0.02375
1308.91267	0.02355
1307.62690	0.02336
1306.34113	0.02321
1305.05536	0.02311
1303.76959	0.02306
1302.48382	0.02300
1301.19805	0.02287
1299.91228	0.02268
1298.62652	0.02247
1297.34075	0.02226
1296.05498	0.02207
1294.76921	0.02190
1293.48344	0.02175
1292.19767	0.02162
1290.91190	0.02150
1289.62613	0.02137
1288.34036	0.02122
1287.05460	0.02107
1285.76883	0.02096
1284.48306	0.02089
1283.19729	0.02084
1281.91152	0.02079
1280.62575	0.02071
1279.33998	0.02060
1278.05421	0.02048
1276.76845	0.02036
1275.48268	0.02024
1274.19691	0.02012
1272.91114	0.02002
1271.62537	0.01993
1270.33960	0.01985
1269.05383	0.01978
1267.76806	0.01971
1266.48229	0.01965
1265.19653	0.01958
1263.91076	0.01952
1262.62499	0.01948
1261.33922	0.01944
1260.05345	0.01939
1258.76768	0.01932
1257.48191	0.01922
1256.19614	0.01911
1254.91037	0.01903
1253.62461	0.01899
1252.33884	0.01899
1251.05307	0.01901
1249.76730	0.01900
1248.48153	0.01893
1247.19576	0.01882
1245.90999	0.01867
1244.62422	0.01852
1243.33846	0.01840
1242.05269	0.01831
1240.76692	0.01825
1239.48115	0.01819
1238.19538	0.01813
1236.90961	0.01808
1235.62384	0.01804
1234.33807	0.01801
1233.05230	0.01797
1231.76654	0.01792
1230.48077	0.01785
1229.19500	0.01775
1227.90923	0.01763
1226.62346	0.01752
1225.33769	0.01744
1224.05192	0.01739
1222.76615	0.01734
1221.48039	0.01728
1220.19462	0.01721
1218.90885	0.01714
1217.62308	0.01705
1216.33731	0.01696
1215.05154	0.01687
1213.76577	0.01681
1212.48000	0.01678
1211.19423	0.01676
1209.90847	0.01676
1208.62270	0.01681
1207.33693	0.01690
1206.05116	0.01701
1204.76539	0.01710
1203.47962	0.01714
1202.19385	0.01717
1200.90808	0.01709
1199.62232	0.01687
1198.33655	0.01691
1197.05078	0.01690
1195.76501	0.01683
1194.47924	0.01673
1193.19347	0.01667
1191.90770	0.01666
1190.62193	0.01667
1189.33616	0.01668
1188.05040	0.01668
1186.76463	0.01670
1185.47886	0.01677
1184.19309	0.01688
1182.90732	0.01700
1181.62155	0.01710
1180.33578	0.01717
1179.05001	0.01720
1177.76425	0.01725
1176.47848	0.01735
1175.19271	0.01751
1173.90694	0.01771
1172.62117	0.01789
1171.33540	0.01801
1170.04963	0.01808
1168.76386	0.01816
1167.47809	0.01831
1166.19233	0.01854
1164.90656	0.01885
1163.62079	0.01916
1162.33502	0.01946
1161.04925	0.01973
1159.76348	0.02001
1158.47771	0.02034
1157.19194	0.02073
1155.90618	0.02113
1154.62041	0.02153
1153.33464	0.02195
1152.04887	0.02247
1150.76310	0.02307
1149.47733	0.02370
1148.19156	0.02432
1146.90579	0.02497
1145.62002	0.02570
1144.33426	0.02654
1143.04849	0.02744
1141.76272	0.02837
1140.47695	0.02937
1139.19118	0.03051
1137.90541	0.03184
1136.61964	0.03332
1135.33387	0.03497
1134.04811	0.03678
1132.76234	0.03879
1131.47657	0.04103
1130.19080	0.04349
1128.90503	0.04620
1127.61926	0.04912
1126.33349	0.05221
1125.04772	0.05542
1123.76195	0.05876
1122.47619	0.06228
1121.19042	0.06601
1119.90465	0.06987
1118.61888	0.07374
1117.33311	0.07754
1116.04734	0.08125
1114.76157	0.08491
1113.47580	0.08854
1112.19004	0.09213
1110.90427	0.09569
1109.61850	0.09920
1108.33273	0.10266
1107.04696	0.10608
1105.76119	0.10945
1104.47542	0.11279
1103.18965	0.11604
1101.90388	0.11919
1100.61812	0.12224
1099.33235	0.12520
1098.04658	0.12806
1096.76081	0.13079
1095.47504	0.13339
1094.18927	0.13592
1092.90350	0.13843
1091.61773	0.14091
1090.33197	0.14325
1089.04620	0.14542
1087.76043	0.14745
1086.47466	0.14949
1085.18889	0.15163
1083.90312	0.15389
1082.61735	0.15626
1081.33158	0.15875
1080.04581	0.16142
1078.76005	0.16431
1077.47428	0.16741
1076.18851	0.17066
1074.90274	0.17397
1073.61697	0.17729
1072.33120	0.18067
1071.04543	0.18420
1069.75966	0.18793
1068.47390	0.19181
1067.18813	0.19581
1065.90236	0.19993
1064.61659	0.20420
1063.33082	0.20857
1062.04505	0.21297
1060.75928	0.21730
1059.47351	0.22152
1058.18774	0.22563
1056.90198	0.22972
1055.61621	0.23380
1054.33044	0.23788
1053.04467	0.24199
1051.75890	0.24621
1050.47313	0.25060
1049.18736	0.25516
1047.90159	0.25981
1046.61583	0.26453
1045.33006	0.26933
1044.04429	0.27422
1042.75852	0.27920
1041.47275	0.28427
1040.18698	0.28946
1038.90121	0.29480
1037.61544	0.30020
1036.32967	0.30558
1035.04391	0.31087
1033.75814	0.31597
1032.47237	0.32081
1031.18660	0.32530
1029.90083	0.32941
1028.61506	0.33316
1027.32929	0.33649
1026.04352	0.33938
1024.75775	0.34180
1023.47199	0.34370
1022.18622	0.34501
1020.90045	0.34563
1019.61468	0.34554
1018.32891	0.34482
1017.04314	0.34355
1015.75737	0.34167
1014.47160	0.33906
1013.18584	0.33563
1011.90007	0.33143
1010.61430	0.32649
1009.32853	0.32080
1008.04276	0.31441
1006.75699	0.30743
1005.47122	0.29995
1004.18545	0.29201
1002.89968	0.28355
1001.61392	0.27455
1000.32815	0.26509
999.04238	0.25535
997.75661	0.24552
996.47084	0.23568
995.18507	0.22581
993.89930	0.21598
992.61353	0.20630
991.32777	0.19690
990.04200	0.18786
988.75623	0.17919
987.47046	0.17087
986.18469	0.16291
984.89892	0.15541
983.61315	0.14848
982.32738	0.14209
981.04161	0.13607
979.75585	0.13035
978.47008	0.12500
977.18431	0.12017
975.89854	0.11591
974.61277	0.11227
973.32700	0.10929
972.04123	0.10706
970.75546	0.10562
969.46970	0.10491
968.18393	0.10488
966.89816	0.10545
965.61239	0.10646
964.32662	0.10772
963.04085	0.10894
961.75508	0.10978
960.46931	0.10993
959.18354	0.10919
957.89778	0.10754
956.61201	0.10514
955.32624	0.10222
954.04047	0.09905
952.75470	0.09582
951.46893	0.09268
950.18316	0.08966
948.89739	0.08672
947.61163	0.08384
946.32586	0.08102
945.04009	0.07833
943.75432	0.07582
942.46855	0.07350
941.18278	0.07131
939.89701	0.06920
938.61124	0.06716
937.32547	0.06522
936.03971	0.06342
934.75394	0.06180
933.46817	0.06039
932.18240	0.05916
930.89663	0.05804
929.61086	0.05694
928.32509	0.05584
927.03932	0.05475
925.75356	0.05369
924.46779	0.05272
923.18202	0.05191
921.89625	0.05127
920.61048	0.05072
919.32471	0.05014
918.03894	0.04952
916.75317	0.04889
915.46740	0.04831
914.18164	0.04773
912.89587	0.04717
911.61010	0.04665
910.32433	0.04620
909.03856	0.04576
907.75279	0.04528
906.46702	0.04477
905.18125	0.04433
903.89549	0.04402
902.60972	0.04383
901.32395	0.04365
900.03818	0.04340
898.75241	0.04310
897.46664	0.04279
896.18087	0.04256
894.89510	0.04244
893.60933	0.04245
892.32357	0.04259
891.03780	0.04280
889.75203	0.04309
888.46626	0.04350
887.18049	0.04419
885.89472	0.04543
884.60895	0.04745
883.32318	0.05035
882.03742	0.05384
880.75165	0.05732
879.46588	0.06017
878.18011	0.06219
876.89434	0.06368
875.60857	0.06512
874.32280	0.06663
873.03703	0.06790
871.75126	0.06849
870.46550	0.06818
869.17973	0.06702
867.89396	0.06522
866.60819	0.06300
865.32242	0.06055
864.03665	0.05798
862.75088	0.05537
861.46511	0.05288
860.17935	0.05068
858.89358	0.04892
857.60781	0.04755
856.32204	0.04639
855.03627	0.04530
853.75050	0.04425
852.46473	0.04332
851.17896	0.04257
849.89319	0.04202
848.60743	0.04159
847.32166	0.04117
846.03589	0.04070
844.75012	0.04019
843.46435	0.03973
842.17858	0.03938
840.89281	0.03915
839.60704	0.03895
838.32128	0.03874
837.03551	0.03850
835.74974	0.03824
834.46397	0.03799
833.17820	0.03778
831.89243	0.03759
830.60666	0.03741
829.32089	0.03724
828.03512	0.03708
826.74936	0.03692
825.46359	0.03676
824.17782	0.03659
822.89205	0.03644
821.60628	0.03634
820.32051	0.03630
819.03474	0.03625
817.74897	0.03615
816.46321	0.03606
815.17744	0.03605
813.89167	0.03611
812.60590	0.03614
811.32013	0.03607
810.03436	0.03591
808.74859	0.03574
807.46282	0.03566
806.17705	0.03565
804.89129	0.03567
803.60552	0.03567
802.31975	0.03564
801.03398	0.03558
799.74821	0.03552
798.46244	0.03546
797.17667	0.03540
795.89090	0.03530
794.60513	0.03519
793.31937	0.03508
792.03360	0.03501
790.74783	0.03501
789.46206	0.03508
788.17629	0.03515
786.89052	0.03518
785.60475	0.03511
784.31898	0.03496
783.03322	0.03475
781.74745	0.03459
780.46168	0.03454
779.17591	0.03462
777.89014	0.03472
776.60437	0.03477
775.31860	0.03477
774.03283	0.03482
772.74706	0.03495
771.46130	0.03512
770.17553	0.03524
768.88976	0.03528
767.60399	0.03527
766.31822	0.03527
765.03245	0.03531
763.74668	0.03536
762.46091	0.03538
761.17515	0.03540
759.88938	0.03548
758.60361	0.03564
757.31784	0.03580
756.03207	0.03591
754.74630	0.03593
753.46053	0.03587
752.17476	0.03576
750.88899	0.03561
749.60323	0.03545
748.31746	0.03531
747.03169	0.03522
745.74592	0.03520
744.46015	0.03519
743.17438	0.03511
741.88861	0.03496
740.60284	0.03480
739.31708	0.03471
738.03131	0.03473
736.74554	0.03486
735.45977	0.03504
734.17400	0.03517
732.88823	0.03515
731.60246	0.03501
730.31669	0.03487
729.03092	0.03484
727.74516	0.03491
726.45939	0.03502
725.17362	0.03513
723.88785	0.03520
722.60208	0.03535
721.31631	0.03549
720.03054	0.03559
718.74477	0.03565
717.45901	0.03566
716.17324	0.03564
714.88747	0.03556
713.60170	0.03545
712.31593	0.03535
711.03016	0.03526
709.74439	0.03519
708.45862	0.03515
707.17285	0.03511
705.88709	0.03506
704.60132	0.03498
703.31555	0.03489
702.02978	0.03481
700.74401	0.03479
699.45824	0.03483
698.17247	0.03494
696.88670	0.03505
695.60094	0.03512
694.31517	0.03513
693.02940	0.03511
691.74363	0.03511
690.45786	0.03514
689.17209	0.03515
687.88632	0.03509
686.60055	0.03496
685.31478	0.03481
684.02902	0.03467
682.74325	0.03454
681.45748	0.03442
680.17171	0.03431
678.88594	0.03424
677.60017	0.03421
676.31440	0.03419
675.02863	0.03423
673.74287	0.03434
672.45710	0.03451
671.17133	0.03470
669.88556	0.03485
668.59979	0.03495
667.31402	0.03497
666.02825	0.03493
664.74248	0.03479
663.45671	0.03458
662.17095	0.03435
660.88518	0.03417
659.59941	0.03404
658.31364	0.03396
657.02787	0.03387
655.74210	0.03378
654.45633	0.03371
653.17056	0.03368
651.88480	0.03368
650.59903	0.03367
649.31326	0.03366
648.02749	0.03367
646.74172	0.03372
645.45595	0.03381
644.17018	0.03389
642.88441	0.03397
641.59864	0.03409
640.31288	0.03430
639.02711	0.03459
637.74134	0.03491
636.45557	0.03524
635.16980	0.03563
633.88403	0.03609
632.59826	0.03654
631.31249	0.03723
630.02673	0.03932
628.74096	0.04236
627.45519	0.04194
626.16942	0.04575
624.88365	0.05258
623.59788	0.05958
622.31211	0.06559
621.02634	0.06990
619.74057	0.07238
618.45481	0.07371
617.16904	0.07464
615.88327	0.07540
614.59750	0.07613
613.31173	0.07769
612.02596	0.08136
610.74019	0.08768
609.45442	0.09574
608.16866	0.10374
606.88289	0.11038
605.59712	0.11527
604.31135	0.11859
603.02558	0.12059
601.73981	0.12132
600.45404	0.12057
599.16827	0.11829
597.88250	0.11480
596.59674	0.11074
595.31097	0.10675
594.02520	0.10330
592.73943	0.10064
591.45366	0.09881
590.16789	0.09774
588.88212	0.09738
587.59635	0.09773
586.31059	0.09874
585.02482	0.10034
583.73905	0.10240
582.45328	0.10490
581.16751	0.10788
579.88174	0.11131
578.59597	0.11504
577.31020	0.11879
576.02443	0.12232
574.73867	0.12562
573.45290	0.12893
572.16713	0.13251
570.88136	0.13648
569.59559	0.14088
568.30982	0.14571
567.02405	0.15083
565.73828	0.15591
564.45251	0.16040
563.16675	0.16367
561.88098	0.16517
560.59521	0.16447
559.30944	0.16140
558.02367	0.15617
556.73790	0.14927
555.45213	0.14131
554.16636	0.13291
552.88060	0.12461
551.59483	0.11674
550.30906	0.10951
549.02329	0.10295
547.73752	0.09706
546.45175	0.09182
545.16598	0.08717
543.88021	0.08301
542.59444	0.07921
541.30868	0.07571
540.02291	0.07252
538.73714	0.06964
537.45137	0.06702
536.16560	0.06458
534.87983	0.06229
533.59406	0.06019
532.30829	0.05832
531.02253	0.05665
529.73676	0.05515
528.45099	0.05379
527.16522	0.05252
525.87945	0.05135
524.59368	0.05020
523.30791	0.04901
522.02214	0.04771
520.73637	0.04639
519.45061	0.04520
518.16484	0.04423
516.87907	0.04345
515.59330	0.04273
514.30753	0.04196
513.02176	0.04117
511.73599	0.04043
510.45022	0.03978
509.16446	0.03919
507.87869	0.03859
506.59292	0.03792
505.30715	0.03719
504.02138	0.03648
502.73561	0.03586
501.44984	0.03535
500.16407	0.03491
498.87830	0.03447
497.59254	0.03406
496.30677	0.03370
495.02100	0.03338
493.73523	0.03307
492.44946	0.03282
491.16369	0.03265
489.87792	0.03258
488.59215	0.03259
487.30639	0.03261
486.02062	0.03259
484.73485	0.03254
483.44908	0.03246
482.16331	0.03242
480.87754	0.03248
479.59177	0.03262
478.30600	0.03282
477.02023	0.03305
475.73447	0.03331
474.44870	0.03364
473.16293	0.03401
471.87716	0.03433
470.59139	0.03452
469.30562	0.03454
468.01985	0.03441
466.73408	0.03415
465.44832	0.03381
464.16255	0.03345
462.87678	0.03306
461.59101	0.03265
460.30524	0.03223
459.01947	0.03181
457.73370	0.03141
456.44793	0.03103
455.16216	0.03065
453.87640	0.03029
452.59063	0.03000
451.30486	0.02979
450.01909	0.02962
448.73332	0.02945
447.44755	0.02927
446.16178	0.02906
444.87601	0.02885
443.59025	0.02862
442.30448	0.02838
441.01871	0.02814
439.73294	0.02794
438.44717	0.02778
437.16140	0.02768
435.87563	0.02762
434.58986	0.02758
433.30409	0.02753
432.01833	0.02747
430.73256	0.02745
429.44679	0.02747
428.16102	0.02744
426.87525	0.02731
425.58948	0.02712
424.30371	0.02693
423.01794	0.02679
421.73218	0.02670
420.44641	0.02659
419.16064	0.02647
417.87487	0.02635
416.58910	0.02628
415.30333	0.02623
414.01756	0.02617
412.73179	0.02608
411.44602	0.02602
410.16026	0.02604
408.87449	0.02614
407.58872	0.02627
406.30295	0.02633
405.01718	0.02632
403.73141	0.02630
402.44564	0.02633
401.15987	0.02647
399.87411	0.02668
