3997.45528	0.04753
3996.16951	0.04770
3994.88374	0.04774
3993.59798	0.04749
3992.31221	0.04692
3991.02644	0.04624
3989.74067	0.04577
3988.45490	0.04582
3987.16913	0.04634
3985.88336	0.04689
3984.59759	0.04703
3983.31183	0.04665
3982.02606	0.04591
3980.74029	0.04507
3979.45452	0.04436
3978.16875	0.04392
3976.88298	0.04374
3975.59721	0.04373
3974.31144	0.04391
3973.02567	0.04430
3971.73991	0.04478
3970.45414	0.04522
3969.16837	0.04567
3967.88260	0.04626
3966.59683	0.04688
3965.31106	0.04726
3964.02529	0.04727
3962.73952	0.04700
3961.45376	0.04656
3960.16799	0.04601
3958.88222	0.04547
3957.59645	0.04513
3956.31068	0.04519
3955.02491	0.04568
3953.73914	0.04647
3952.45337	0.04718
3951.16760	0.04739
3949.88184	0.04690
3948.59607	0.04603
3947.31030	0.04529
3946.02453	0.04495
3944.73876	0.04495
3943.45299	0.04509
3942.16722	0.04524
3940.88145	0.04528
3939.59569	0.04527
3938.30992	0.04544
3937.02415	0.04594
3935.73838	0.04655
3934.45261	0.04687
3933.16684	0.04685
3931.88107	0.04677
3930.59530	0.04681
3929.30953	0.04682
3928.02377	0.04661
3926.73800	0.04619
3925.45223	0.04575
3924.16646	0.04537
3922.88069	0.04507
3921.59492	0.04492
3920.30915	0.04497
3919.02338	0.04510
3917.73762	0.04515
3916.45185	0.04510
3915.16608	0.04512
3913.88031	0.04537
3912.59454	0.04582
3911.30877	0.04624
3910.02300	0.04637
3908.73723	0.04617
3907.45146	0.04589
3906.16570	0.04577
3904.87993	0.04574
3903.59416	0.04550
3902.30839	0.04495
3901.02262	0.04449
3899.73685	0.04458
3898.45108	0.04524
3897.16531	0.04595
3895.87955	0.04608
3894.59378	0.04551
3893.30801	0.04475
3892.02224	0.04442
3890.73647	0.04468
3889.45070	0.04520
3888.16493	0.04555
3886.87916	0.04559
3885.59339	0.04542
3884.30763	0.04518
3883.02186	0.04499
3881.73609	0.04493
3880.45032	0.04501
3879.16455	0.04515
3877.87878	0.04518
3876.59301	0.04503
3875.30724	0.04473
3874.02148	0.04438
3872.73571	0.04418
3871.44994	0.04434
3870.16417	0.04502
3868.87840	0.04603
3867.59263	0.04686
3866.30686	0.04698
3865.02109	0.04633
3863.73532	0.04532
3862.44956	0.04445
3861.16379	0.04394
3859.87802	0.04372
3858.59225	0.04372
3857.30648	0.04392
3856.02071	0.04433
3854.73494	0.04487
3853.44917	0.04539
3852.16341	0.04575
3850.87764	0.04588
3849.59187	0.04579
3848.30610	0.04540
3847.02033	0.04456
3845.73456	0.04341
3844.44879	0.04239
3843.16302	0.04200
3841.87725	0.04238
3840.59149	0.04317
3839.30572	0.04382
3838.01995	0.04393
3836.73418	0.04356
3835.44841	0.04303
3834.16264	0.04253
3832.87687	0.04200
3831.59110	0.04148
3830.30534	0.04127
3829.01957	0.04161
3827.73380	0.04233
3826.44803	0.04293
3825.16226	0.04304
3823.87649	0.04266
3822.59072	0.04211
3821.30495	0.04185
3820.01918	0.04212
3818.73342	0.04286
3817.44765	0.04377
3816.16188	0.04459
3814.87611	0.04520
3813.59034	0.04555
3812.30457	0.04548
3811.01880	0.04485
3809.73303	0.04383
3808.44726	0.04284
3807.16150	0.04226
3805.87573	0.04213
3804.58996	0.04232
3803.30419	0.04268
3802.01842	0.04308
3800.73265	0.04332
3799.44688	0.04330
3798.16111	0.04304
3796.87535	0.04261
3795.58958	0.04200
3794.30381	0.04122
3793.01804	0.04051
3791.73227	0.04019
3790.44650	0.04040
3789.16073	0.04093
3787.87496	0.04140
3786.58919	0.04153
3785.30343	0.04132
3784.01766	0.04092
3782.73189	0.04049
3781.44612	0.04014
3780.16035	0.03990
3778.87458	0.03983
3777.58881	0.03998
3776.30304	0.04029
3775.01728	0.04063
3773.73151	0.04097
3772.44574	0.04147
3771.15997	0.04225
3769.87420	0.04310
3768.58843	0.04355
3767.30266	0.04324
3766.01689	0.04225
3764.73112	0.04104
3763.44536	0.04015
3762.15959	0.04001
3760.87382	0.04059
3759.58805	0.04136
3758.30228	0.04168
3757.01651	0.04127
3755.73074	0.04051
3754.44497	0.04003
3753.15921	0.04015
3751.87344	0.04077
3750.58767	0.04158
3749.30190	0.04236
3748.01613	0.04286
3746.73036	0.04306
3745.44459	0.04312
3744.15882	0.04284
3742.87305	0.04204
3741.58729	0.04100
3740.30152	0.04010
3739.01575	0.03951
3737.72998	0.03922
3736.44421	0.03904
3735.15844	0.03900
3733.87267	0.03880
3732.58690	0.03870
3731.30114	0.03885
3730.01537	0.03905
3728.72960	0.03950
3727.44383	0.04005
3726.15806	0.04075
3724.87229	0.04141
3723.58652	0.04144
3722.30075	0.04112
3721.01498	0.04077
3719.72922	0.04026
3718.44345	0.03985
3717.15768	0.03976
3715.87191	0.04000
3714.58614	0.04017
3713.30037	0.03991
3712.01460	0.03992
3710.72883	0.04016
3709.44307	0.03986
3708.15730	0.03949
3706.87153	0.03914
3705.58576	0.03893
3704.29999	0.03902
3703.01422	0.03936
3701.72845	0.03991
3700.44268	0.04047
3699.15691	0.04084
3697.87115	0.04118
3696.58538	0.04165
3695.29961	0.04220
3694.01384	0.04224
3692.72807	0.04205
3691.44230	0.04160
3690.15653	0.04069
3688.87076	0.03968
3687.58500	0.03880
3686.29923	0.03821
3685.01346	0.03847
3683.72769	0.03941
3682.44192	0.04048
3681.15615	0.04132
3679.87038	0.04157
3678.58461	0.04117
3677.29884	0.04072
3676.01308	0.04066
3674.72731	0.04095
3673.44154	0.04123
3672.15577	0.04114
3670.87000	0.04071
3669.58423	0.04022
3668.29846	0.03999
3667.01269	0.04012
3665.72693	0.04042
3664.44116	0.04065
3663.15539	0.04055
3661.86962	0.04028
3660.58385	0.04009
3659.29808	0.03998
3658.01231	0.03980
3656.72654	0.03955
3655.44077	0.03944
3654.15501	0.03953
3652.86924	0.03958
3651.58347	0.03947
3650.29770	0.03947
3649.01193	0.03998
3647.72616	0.04105
3646.44039	0.04214
3645.15462	0.04272
3643.86886	0.04283
3642.58309	0.04272
3641.29732	0.04257
3640.01155	0.04241
3638.72578	0.04222
3637.44001	0.04215
3636.15424	0.04239
3634.86847	0.04277
3633.58270	0.04307
3632.29694	0.04289
3631.01117	0.04217
3629.72540	0.04162
3628.43963	0.04143
3627.15386	0.04139
3625.86809	0.04118
3624.58232	0.04121
3623.29655	0.04149
3622.01079	0.04223
3620.72502	0.04309
3619.43925	0.04405
3618.15348	0.04471
3616.86771	0.04488
3615.58194	0.04503
3614.29617	0.04550
3613.01040	0.04598
3611.72463	0.04593
3610.43887	0.04572
3609.15310	0.04578
3607.86733	0.04609
3606.58156	0.04621
3605.29579	0.04625
3604.01002	0.04650
3602.72425	0.04675
3601.43848	0.04706
3600.15272	0.04741
3598.86695	0.04748
3597.58118	0.04680
3596.29541	0.04601
3595.00964	0.04532
3593.72387	0.04511
3592.43810	0.04608
3591.15233	0.04750
3589.86656	0.04868
3588.58080	0.04983
3587.29503	0.05050
3586.00926	0.05057
3584.72349	0.05022
3583.43772	0.04968
3582.15195	0.04921
3580.86618	0.04899
3579.58041	0.04888
3578.29464	0.04889
3577.00888	0.04911
3575.72311	0.04958
3574.43734	0.05018
3573.15157	0.05079
3571.86580	0.05133
3570.58003	0.05179
3569.29426	0.05212
3568.00849	0.05215
3566.72273	0.05183
3565.43696	0.05134
3564.15119	0.05088
3562.86542	0.05080
3561.57965	0.05117
3560.29388	0.05171
3559.00811	0.05215
3557.72234	0.05242
3556.43657	0.05276
3555.15081	0.05332
3553.86504	0.05398
3552.57927	0.05435
3551.29350	0.05421
3550.00773	0.05369
3548.72196	0.05320
3547.43619	0.05311
3546.15042	0.05343
3544.86466	0.05388
3543.57889	0.05418
3542.29312	0.05429
3541.00735	0.05429
3539.72158	0.05420
3538.43581	0.05404
3537.15004	0.05386
3535.86427	0.05376
3534.57850	0.05378
3533.29274	0.05397
3532.00697	0.05434
3530.72120	0.05489
3529.43543	0.05554
3528.14966	0.05618
3526.86389	0.05672
3525.57812	0.05717
3524.29235	0.05758
3523.00659	0.05795
3521.72082	0.05816
3520.43505	0.05808
3519.14928	0.05780
3517.86351	0.05765
3516.57774	0.05794
3515.29197	0.05860
3514.00620	0.05919
3512.72043	0.05926
3511.43467	0.05874
3510.14890	0.05796
3508.86313	0.05735
3507.57736	0.05716
3506.29159	0.05736
3505.00582	0.05775
3503.72005	0.05813
3502.43428	0.05851
3501.14852	0.05903
3499.86275	0.05970
3498.57698	0.06022
3497.29121	0.06028
3496.00544	0.05983
3494.71967	0.05920
3493.43390	0.05887
3492.14813	0.05911
3490.86236	0.05990
3489.57660	0.06091
3488.29083	0.06165
3487.00506	0.06176
3485.71929	0.06126
3484.43352	0.06056
3483.14775	0.06020
3481.86198	0.06037
3480.57621	0.06085
3479.29045	0.06121
3478.00468	0.06126
3476.71891	0.06112
3475.43314	0.06107
3474.14737	0.06126
3472.86160	0.06159
3471.57583	0.06181
3470.29006	0.06174
3469.00429	0.06146
3467.71853	0.06116
3466.43276	0.06098
3465.14699	0.06096
3463.86122	0.06115
3462.57545	0.06162
3461.28968	0.06231
3460.00391	0.06299
3458.71814	0.06343
3457.43238	0.06360
3456.14661	0.06366
3454.86084	0.06376
3453.57507	0.06390
3452.28930	0.06400
3451.00353	0.06403
3449.71776	0.06401
3448.43199	0.06401
3447.14622	0.06408
3445.86046	0.06426
3444.57469	0.06456
3443.28892	0.06491
3442.00315	0.06518
3440.71738	0.06531
3439.43161	0.06527
3438.14584	0.06503
3436.86007	0.06462
3435.57431	0.06421
3434.28854	0.06396
3433.00277	0.06384
3431.71700	0.06366
3430.43123	0.06332
3429.14546	0.06298
3427.85969	0.06295
3426.57392	0.06336
3425.28815	0.06409
3424.00239	0.06482
3422.71662	0.06532
3421.43085	0.06566
3420.14508	0.06600
3418.85931	0.06636
3417.57354	0.06659
3416.28777	0.06659
3415.00200	0.06652
3413.71624	0.06664
3412.43047	0.06698
3411.14470	0.06737
3409.85893	0.06766
3408.57316	0.06786
3407.28739	0.06804
3406.00162	0.06820
3404.71585	0.06829
3403.43008	0.06825
3402.14432	0.06805
3400.85855	0.06774
3399.57278	0.06738
3398.28701	0.06707
3397.00124	0.06686
3395.71547	0.06674
3394.42970	0.06658
3393.14393	0.06629
3391.85817	0.06595
3390.57240	0.06591
3389.28663	0.06642
3388.00086	0.06727
3386.71509	0.06794
3385.42932	0.06810
3384.14355	0.06784
3382.85778	0.06749
3381.57201	0.06728
3380.28625	0.06722
3379.00048	0.06728
3377.71471	0.06748
3376.42894	0.06778
3375.14317	0.06809
3373.85740	0.06834
3372.57163	0.06854
3371.28586	0.06875
3370.00010	0.06884
3368.71433	0.06858
3367.42856	0.06793
3366.14279	0.06723
3364.85702	0.06687
3363.57125	0.06694
3362.28548	0.06717
3360.99971	0.06728
3359.71394	0.06732
3358.42818	0.06743
3357.14241	0.06761
3355.85664	0.06773
3354.57087	0.06774
3353.28510	0.06771
3351.99933	0.06774
3350.71356	0.06792
3349.42779	0.06827
3348.14202	0.06860
3346.85626	0.06866
3345.57049	0.06836
3344.28472	0.06794
3342.99895	0.06776
3341.71318	0.06800
3340.42741	0.06841
3339.14164	0.06862
3337.85587	0.06845
3336.57011	0.06809
3335.28434	0.06787
3333.99857	0.06789
3332.71280	0.06801
3331.42703	0.06801
3330.14126	0.06792
3328.85549	0.06795
3327.56972	0.06818
3326.28395	0.06841
3324.99819	0.06832
3323.71242	0.06784
3322.42665	0.06723
3321.14088	0.06696
3319.85511	0.06727
3318.56934	0.06791
3317.28357	0.06845
3315.99780	0.06862
3314.71204	0.06847
3313.42627	0.06813
3312.14050	0.06768
3310.85473	0.06719
3309.56896	0.06683
3308.28319	0.06682
3306.99742	0.06714
3305.71165	0.06753
3304.42588	0.06772
3303.14012	0.06772
3301.85435	0.06779
3300.56858	0.06807
3299.28281	0.06840
3297.99704	0.06850
3296.71127	0.06827
3295.42550	0.06784
3294.13973	0.06741
3292.85397	0.06714
3291.56820	0.06713
3290.28243	0.06733
3288.99666	0.06756
3287.71089	0.06757
3286.42512	0.06724
3285.13935	0.06677
3283.85358	0.06649
3282.56781	0.06654
3281.28205	0.06673
3279.99628	0.06680
3278.71051	0.06664
3277.42474	0.06640
3276.13897	0.06628
3274.85320	0.06637
3273.56743	0.06661
3272.28166	0.06693
3270.99590	0.06725
3269.71013	0.06750
3268.42436	0.06756
3267.13859	0.06739
3265.85282	0.06721
3264.56705	0.06728
3263.28128	0.06759
3261.99551	0.06783
3260.70974	0.06776
3259.42398	0.06747
3258.13821	0.06721
3256.85244	0.06718
3255.56667	0.06731
3254.28090	0.06744
3252.99513	0.06744
3251.70936	0.06731
3250.42359	0.06714
3249.13783	0.06705
3247.85206	0.06708
3246.56629	0.06715
3245.28052	0.06718
3243.99475	0.06714
3242.70898	0.06709
3241.42321	0.06707
3240.13744	0.06700
3238.85167	0.06678
3237.56591	0.06636
3236.28014	0.06586
3234.99437	0.06551
3233.70860	0.06542
3232.42283	0.06556
3231.13706	0.06573
3229.85129	0.06574
3228.56552	0.06561
3227.27976	0.06562
3225.99399	0.06590
3224.70822	0.06624
3223.42245	0.06624
3222.13668	0.06582
3220.85091	0.06530
3219.56514	0.06504
3218.27937	0.06512
3216.99360	0.06533
3215.70784	0.06542
3214.42207	0.06524
3213.13630	0.06487
3211.85053	0.06447
3210.56476	0.06413
3209.27899	0.06382
3207.99322	0.06354
3206.70745	0.06342
3205.42169	0.06359
3204.13592	0.06398
3202.85015	0.06439
3201.56438	0.06460
3200.27861	0.06451
3198.99284	0.06415
3197.70707	0.06371
3196.42130	0.06344
3195.13553	0.06356
3193.84977	0.06404
3192.56400	0.06463
3191.27823	0.06503
3189.99246	0.06510
3188.70669	0.06488
3187.42092	0.06461
3186.13515	0.06451
3184.84938	0.06462
3183.56362	0.06475
3182.27785	0.06466
3180.99208	0.06427
3179.70631	0.06372
3178.42054	0.06322
3177.13477	0.06290
3175.84900	0.06278
3174.56323	0.06278
3173.27746	0.06285
3171.99170	0.06298
3170.70593	0.06316
3169.42016	0.06337
3168.13439	0.06351
3166.84862	0.06353
3165.56285	0.06335
3164.27708	0.06291
3162.99131	0.06228
3161.70555	0.06173
3160.41978	0.06152
3159.13401	0.06169
3157.84824	0.06201
3156.56247	0.06216
3155.27670	0.06197
3153.99093	0.06150
3152.70516	0.06098
3151.41939	0.06068
3150.13363	0.06071
3148.84786	0.06093
3147.56209	0.06112
3146.27632	0.06118
3144.99055	0.06117
3143.70478	0.06112
3142.41901	0.06098
3141.13324	0.06080
3139.84748	0.06072
3138.56171	0.06088
3137.27594	0.06126
3135.99017	0.06171
3134.70440	0.06201
3133.41863	0.06200
3132.13286	0.06163
3130.84709	0.06108
3129.56132	0.06065
3128.27556	0.06053
3126.98979	0.06067
3125.70402	0.06087
3124.41825	0.06095
3123.13248	0.06086
3121.84671	0.06071
3120.56094	0.06054
3119.27517	0.06030
3117.98940	0.05998
3116.70364	0.05968
3115.41787	0.05952
3114.13210	0.05952
3112.84633	0.05964
3111.56056	0.05978
3110.27479	0.05984
3108.98902	0.05968
3107.70325	0.05932
3106.41749	0.05899
3105.13172	0.05887
3103.84595	0.05891
3102.56018	0.05891
3101.27441	0.05873
3099.98864	0.05846
3098.70287	0.05831
3097.41710	0.05833
3096.13133	0.05839
3094.84557	0.05831
3093.55980	0.05806
3092.27403	0.05777
3090.98826	0.05760
3089.70249	0.05760
3088.41672	0.05769
3087.13095	0.05778
3085.84518	0.05787
3084.55942	0.05802
3083.27365	0.05818
3081.98788	0.05828
3080.70211	0.05820
3079.41634	0.05792
3078.13057	0.05753
3076.84480	0.05711
3075.55903	0.05673
3074.27326	0.05643
3072.98750	0.05623
3071.70173	0.05619
3070.41596	0.05628
3069.13019	0.05637
3067.84442	0.05635
3066.55865	0.05626
3065.27288	0.05621
3063.98711	0.05630
3062.70135	0.05650
3061.41558	0.05663
3060.12981	0.05661
3058.84404	0.05646
3057.55827	0.05628
3056.27250	0.05609
3054.98673	0.05587
3053.70096	0.05563
3052.41519	0.05545
3051.12943	0.05535
3049.84366	0.05521
3048.55789	0.05495
3047.27212	0.05455
3045.98635	0.05415
3044.70058	0.05392
3043.41481	0.05393
3042.12904	0.05410
3040.84328	0.05428
3039.55751	0.05437
3038.27174	0.05436
3036.98597	0.05430
3035.70020	0.05427
3034.41443	0.05433
3033.12866	0.05443
3031.84289	0.05446
3030.55712	0.05431
3029.27136	0.05402
3027.98559	0.05378
3026.69982	0.05373
3025.41405	0.05383
3024.12828	0.05388
3022.84251	0.05377
3021.55674	0.05355
3020.27097	0.05335
3018.98521	0.05325
3017.69944	0.05324
3016.41367	0.05324
3015.12790	0.05322
3013.84213	0.05320
3012.55636	0.05321
3011.27059	0.05327
3009.98482	0.05331
3008.69905	0.05321
3007.41329	0.05295
3006.12752	0.05264
3004.84175	0.05242
3003.55598	0.05231
3002.27021	0.05222
3000.98444	0.05212
2999.69867	0.05207
2998.41290	0.05206
2997.12714	0.05198
2995.84137	0.05181
2994.55560	0.05169
2993.26983	0.05183
2991.98406	0.05227
2990.69829	0.05283
2989.41252	0.05328
2988.12675	0.05348
2986.84098	0.05344
2985.55522	0.05320
2984.26945	0.05289
2982.98368	0.05265
2981.69791	0.05262
2980.41214	0.05286
2979.12637	0.05334
2977.84060	0.05399
2976.55483	0.05470
2975.26907	0.05537
2973.98330	0.05596
2972.69753	0.05651
2971.41176	0.05703
2970.12599	0.05756
2968.84022	0.05815
2967.55445	0.05888
2966.26868	0.05974
2964.98291	0.06068
2963.69715	0.06162
2962.41138	0.06256
2961.12561	0.06347
2959.83984	0.06430
2958.55407	0.06502
2957.26830	0.06571
2955.98253	0.06643
2954.69676	0.06719
2953.41100	0.06786
2952.12523	0.06830
2950.83946	0.06844
2949.55369	0.06831
2948.26792	0.06800
2946.98215	0.06758
2945.69638	0.06712
2944.41061	0.06671
2943.12484	0.06645
2941.83908	0.06642
2940.55331	0.06664
2939.26754	0.06713
2937.98177	0.06796
2936.69600	0.06907
2935.41023	0.07029
2934.12446	0.07144
2932.83869	0.07242
2931.55293	0.07320
2930.26716	0.07375
2928.98139	0.07408
2927.69562	0.07430
2926.40985	0.07456
2925.12408	0.07492
2923.83831	0.07535
2922.55254	0.07569
2921.26677	0.07570
2919.98101	0.07516
2918.69524	0.07415
2917.40947	0.07302
2916.12370	0.07215
2914.83793	0.07160
2913.55216	0.07110
2912.26639	0.07035
2910.98062	0.06937
2909.69486	0.06846
2908.40909	0.06782
2907.12332	0.06740
2905.83755	0.06702
2904.55178	0.06665
2903.26601	0.06634
2901.98024	0.06602
2900.69447	0.06554
2899.40870	0.06487
2898.12294	0.06413
2896.83717	0.06341
2895.55140	0.06270
2894.26563	0.06205
2892.97986	0.06155
2891.69409	0.06122
2890.40832	0.06089
2889.12255	0.06039
2887.83678	0.05982
2886.55102	0.05938
2885.26525	0.05917
2883.97948	0.05906
2882.69371	0.05891
2881.40794	0.05871
2880.12217	0.05850
2878.83640	0.05841
2877.55063	0.05852
2876.26487	0.05884
2874.97910	0.05925
2873.69333	0.05954
2872.40756	0.05966
2871.12179	0.05971
2869.83602	0.05987
2868.55025	0.06015
2867.26448	0.06046
2865.97871	0.06071
2864.69295	0.06087
2863.40718	0.06093
2862.12141	0.06087
2860.83564	0.06071
2859.54987	0.06055
2858.26410	0.06045
2856.97833	0.06042
2855.69256	0.06036
2854.40680	0.06026
2853.12103	0.06018
2851.83526	0.06013
2850.54949	0.05995
2849.26372	0.05946
2847.97795	0.05865
2846.69218	0.05769
2845.40641	0.05677
2844.12064	0.05601
2842.83488	0.05545
2841.54911	0.05501
2840.26334	0.05451
2838.97757	0.05377
2837.69180	0.05279
2836.40603	0.05172
2835.12026	0.05076
2833.83449	0.05003
2832.54873	0.04952
2831.26296	0.04917
2829.97719	0.04895
2828.69142	0.04883
2827.40565	0.04875
2826.11988	0.04853
2824.83411	0.04809
2823.54834	0.04753
2822.26257	0.04702
2820.97681	0.04662
2819.69104	0.04626
2818.40527	0.04588
2817.11950	0.04553
2815.83373	0.04527
2814.54796	0.04513
2813.26219	0.04514
2811.97642	0.04531
2810.69066	0.04552
2809.40489	0.04562
2808.11912	0.04553
2806.83335	0.04533
2805.54758	0.04511
2804.26181	0.04487
2802.97604	0.04458
2801.69027	0.04434
2800.40450	0.04423
2799.11874	0.04421
2797.83297	0.04416
2796.54720	0.04410
2795.26143	0.04407
2793.97566	0.04406
2792.68989	0.04397
2791.40412	0.04376
2790.11835	0.04350
2788.83259	0.04325
2787.54682	0.04309
2786.26105	0.04298
2784.97528	0.04285
2783.68951	0.04271
2782.40374	0.04264
2781.11797	0.04272
2779.83220	0.04286
2778.54643	0.04296
2777.26067	0.04300
2775.97490	0.04302
2774.68913	0.04300
2773.40336	0.04291
2772.11759	0.04276
2770.83182	0.04264
2769.54605	0.04257
2768.26028	0.04252
2766.97452	0.04243
2765.68875	0.04232
2764.40298	0.04221
2763.11721	0.04212
2761.83144	0.04202
2760.54567	0.04182
2759.25990	0.04151
2757.97413	0.04117
2756.68836	0.04094
2755.40260	0.04088
2754.11683	0.04092
2752.83106	0.04093
2751.54529	0.04086
2750.25952	0.04076
2748.97375	0.04073
2747.68798	0.04081
2746.40221	0.04098
2745.11645	0.04118
2743.83068	0.04132
2742.54491	0.04141
2741.25914	0.04147
2739.97337	0.04147
2738.68760	0.04134
2737.40183	0.04108
2736.11606	0.04084
2734.83029	0.04070
2733.54453	0.04063
2732.25876	0.04054
2730.97299	0.04043
2729.68722	0.04034
2728.40145	0.04030
2727.11568	0.04024
2725.82991	0.04011
2724.54414	0.03996
2723.25838	0.03986
2721.97261	0.03985
2720.68684	0.03990
2719.40107	0.03994
2718.11530	0.03996
2716.82953	0.03993
2715.54376	0.03985
2714.25799	0.03974
2712.97222	0.03969
2711.68646	0.03973
2710.40069	0.03975
2709.11492	0.03968
2707.82915	0.03952
2706.54338	0.03931
2705.25761	0.03913
2703.97184	0.03902
2702.68607	0.03901
2701.40031	0.03908
2700.11454	0.03911
2698.82877	0.03907
2697.54300	0.03895
2696.25723	0.03880
2694.97146	0.03867
2693.68569	0.03854
2692.39992	0.03839
2691.11415	0.03821
2689.82839	0.03803
2688.54262	0.03792
2687.25685	0.03793
2685.97108	0.03802
2684.68531	0.03809
2683.39954	0.03808
2682.11377	0.03798
2680.82800	0.03783
2679.54224	0.03769
2678.25647	0.03759
2676.97070	0.03748
2675.68493	0.03734
2674.39916	0.03714
2673.11339	0.03697
2671.82762	0.03695
2670.54185	0.03711
2669.25608	0.03736
2667.97032	0.03754
2666.68455	0.03762
2665.39878	0.03761
2664.11301	0.03761
2662.82724	0.03764
2661.54147	0.03768
2660.25570	0.03769
2658.96993	0.03764
2657.68417	0.03753
2656.39840	0.03739
2655.11263	0.03727
2653.82686	0.03717
2652.54109	0.03712
2651.25532	0.03711
2649.96955	0.03709
2648.68378	0.03705
2647.39801	0.03695
2646.11225	0.03679
2644.82648	0.03660
2643.54071	0.03643
2642.25494	0.03631
2640.96917	0.03622
2639.68340	0.03614
2638.39763	0.03604
2637.11186	0.03585
2635.82609	0.03551
2634.54033	0.03505
2633.25456	0.03459
2631.96879	0.03430
2630.68302	0.03428
2629.39725	0.03448
2628.11148	0.03474
2626.82571	0.03489
2625.53994	0.03485
2624.25418	0.03460
2622.96841	0.03424
2621.68264	0.03397
2620.39687	0.03394
2619.11110	0.03400
2617.82533	0.03382
2616.53956	0.03330
2615.25379	0.03270
2613.96802	0.03240
2612.68226	0.03243
2611.39649	0.03253
2610.11072	0.03246
2608.82495	0.03227
2607.53918	0.03217
2606.25341	0.03233
2604.96764	0.03267
2603.68187	0.03295
2602.39611	0.03294
2601.11034	0.03260
2599.82457	0.03204
2598.53880	0.03149
2597.25303	0.03113
2595.96726	0.03104
2594.68149	0.03114
2593.39572	0.03125
2592.10995	0.03128
2590.82419	0.03127
2589.53842	0.03128
2588.25265	0.03130
2586.96688	0.03130
2585.68111	0.03132
2584.39534	0.03142
2583.10957	0.03158
2581.82380	0.03164
2580.53804	0.03139
2579.25227	0.03076
2577.96650	0.02994
2576.68073	0.02933
2575.39496	0.02921
2574.10919	0.02943
2572.82342	0.02958
2571.53765	0.02945
2570.25188	0.02926
2568.96612	0.02931
2567.68035	0.02963
2566.39458	0.03003
2565.10881	0.03036
2563.82304	0.03057
2562.53727	0.03067
2561.25150	0.03064
2559.96573	0.03053
2558.67997	0.03044
2557.39420	0.03041
2556.10843	0.03041
2554.82266	0.03035
2553.53689	0.03023
2552.25112	0.03010
2550.96535	0.02991
2549.67958	0.02959
2548.39381	0.02922
2547.10805	0.02903
2545.82228	0.02912
2544.53651	0.02941
2543.25074	0.02975
2541.96497	0.03011
2540.67920	0.03052
2539.39343	0.03086
2538.10766	0.03096
2536.82190	0.03064
2535.53613	0.02993
2534.25036	0.02915
2532.96459	0.02861
2531.67882	0.02838
2530.39305	0.02829
2529.10728	0.02826
2527.82151	0.02833
2526.53574	0.02849
2525.24998	0.02856
2523.96421	0.02845
2522.67844	0.02827
2521.39267	0.02822
2520.10690	0.02833
2518.82113	0.02854
2517.53536	0.02875
2516.24959	0.02891
2514.96383	0.02902
2513.67806	0.02903
2512.39229	0.02891
2511.10652	0.02864
2509.82075	0.02832
2508.53498	0.02812
2507.24921	0.02816
2505.96344	0.02843
2504.67767	0.02884
2503.39191	0.02925
2502.10614	0.02945
2500.82037	0.02935
2499.53460	0.02906
2498.24883	0.02882
2496.96306	0.02878
2495.67729	0.02889
2494.39152	0.02898
2493.10576	0.02889
2491.81999	0.02853
2490.53422	0.02794
2489.24845	0.02732
2487.96268	0.02700
2486.67691	0.02713
2485.39114	0.02764
2484.10537	0.02821
2482.81960	0.02853
2481.53384	0.02849
2480.24807	0.02816
2478.96230	0.02762
2477.67653	0.02688
2476.39076	0.02615
2475.10499	0.02581
2473.81922	0.02607
2472.53345	0.02669
2471.24769	0.02719
2469.96192	0.02731
2468.67615	0.02721
2467.39038	0.02711
2466.10461	0.02707
2464.81884	0.02708
2463.53307	0.02717
2462.24730	0.02732
2460.96153	0.02743
2459.67577	0.02739
2458.39000	0.02730
2457.10423	0.02731
2455.81846	0.02748
2454.53269	0.02769
2453.24692	0.02779
2451.96115	0.02775
2450.67538	0.02760
2449.38962	0.02746
2448.10385	0.02740
2446.81808	0.02738
2445.53231	0.02725
2444.24654	0.02695
2442.96077	0.02654
2441.67500	0.02617
2440.38923	0.02594
2439.10346	0.02589
2437.81770	0.02599
2436.53193	0.02619
2435.24616	0.02642
2433.96039	0.02659
2432.67462	0.02656
2431.38885	0.02628
2430.10308	0.02599
2428.81731	0.02598
2427.53155	0.02626
2426.24578	0.02654
2424.96001	0.02655
2423.67424	0.02630
2422.38847	0.02599
2421.10270	0.02579
2419.81693	0.02567
2418.53116	0.02555
2417.24539	0.02544
2415.95963	0.02549
2414.67386	0.02578
2413.38809	0.02612
2412.10232	0.02628
2410.81655	0.02624
2409.53078	0.02613
2408.24501	0.02607
2406.95924	0.02610
2405.67347	0.02615
2404.38771	0.02615
2403.10194	0.02600
2401.81617	0.02560
2400.53040	0.02502
2399.24463	0.02460
2397.95886	0.02442
2396.67309	0.02449
2395.38732	0.02473
2394.10156	0.02496
2392.81579	0.02508
2391.53002	0.02510
2390.24425	0.02509
2388.95848	0.02512
2387.67271	0.02530
2386.38694	0.02565
2385.10117	0.02611
2383.81540	0.02650
2382.52964	0.02666
2381.24387	0.02661
2379.95810	0.02609
2378.67233	0.02544
2377.38656	0.02526
2376.10079	0.02449
2374.81502	0.02325
2373.52925	0.02269
2372.24349	0.02253
2370.95772	0.02312
2369.67195	0.02209
2368.38618	0.02042
2367.10041	0.02156
2365.81464	0.02414
2364.52887	0.02341
2363.24310	0.02122
2361.95733	0.02185
2360.67157	0.02449
2359.38580	0.02445
2358.10003	0.02288
2356.81426	0.02123
2355.52849	0.01883
2354.24272	0.01728
2352.95695	0.01729
2351.67118	0.02170
2350.38542	0.03209
2349.09965	0.03809
2347.81388	0.03012
2346.52811	0.01754
2345.24234	0.01352
2343.95657	0.01762
2342.67080	0.02124
2341.38503	0.02282
2340.09926	0.02447
2338.81350	0.02556
2337.52773	0.02638
2336.24196	0.02524
2334.95619	0.02406
2333.67042	0.02461
2332.38465	0.02393
2331.09888	0.02318
2329.81311	0.02398
2328.52735	0.02391
2327.24158	0.02464
2325.95581	0.02621
2324.67004	0.02591
2323.38427	0.02511
2322.09850	0.02477
2320.81273	0.02346
2319.52696	0.02354
2318.24119	0.02545
2316.95543	0.02663
2315.66966	0.02643
2314.38389	0.02540
2313.09812	0.02464
2311.81235	0.02425
2310.52658	0.02368
2309.24081	0.02352
2307.95504	0.02374
2306.66928	0.02384
2305.38351	0.02437
2304.09774	0.02476
2302.81197	0.02456
2301.52620	0.02422
2300.24043	0.02427
2298.95466	0.02479
2297.66889	0.02523
2296.38312	0.02528
2295.09736	0.02488
2293.81159	0.02432
2292.52582	0.02386
2291.24005	0.02347
2289.95428	0.02325
2288.66851	0.02320
2287.38274	0.02328
2286.09697	0.02336
2284.81121	0.02346
2283.52544	0.02348
2282.23967	0.02336
2280.95390	0.02314
2279.66813	0.02284
2278.38236	0.02263
2277.09659	0.02254
2275.81082	0.02269
2274.52505	0.02296
2273.23929	0.02305
2271.95352	0.02287
2270.66775	0.02261
2269.38198	0.02249
2268.09621	0.02250
2266.81044	0.02250
2265.52467	0.02219
2264.23890	0.02160
2262.95314	0.02105
2261.66737	0.02079
2260.38160	0.02092
2259.09583	0.02141
2257.81006	0.02181
2256.52429	0.02179
2255.23852	0.02116
2253.95275	0.02011
2252.66698	0.01894
2251.38122	0.01798
2250.09545	0.01747
2248.80968	0.01744
2247.52391	0.01772
2246.23814	0.01832
2244.95237	0.01911
2243.66660	0.01978
2242.38083	0.02005
2241.09507	0.01984
2239.80930	0.01937
2238.52353	0.01888
2237.23776	0.01848
2235.95199	0.01817
2234.66622	0.01803
2233.38045	0.01819
2232.09468	0.01847
2230.80891	0.01847
2229.52315	0.01799
2228.23738	0.01736
2226.95161	0.01698
2225.66584	0.01686
2224.38007	0.01661
2223.09430	0.01590
2221.80853	0.01490
2220.52276	0.01417
2219.23700	0.01406
2217.95123	0.01450
2216.66546	0.01513
2215.37969	0.01559
2214.09392	0.01569
2212.80815	0.01556
2211.52238	0.01549
2210.23661	0.01563
2208.95084	0.01581
2207.66508	0.01573
2206.37931	0.01537
2205.09354	0.01492
2203.80777	0.01462
2202.52200	0.01458
2201.23623	0.01473
2199.95046	0.01473
2198.66469	0.01423
2197.37893	0.01335
2196.09316	0.01266
2194.80739	0.01262
2193.52162	0.01310
2192.23585	0.01365
2190.95008	0.01403
2189.66431	0.01442
2188.37854	0.01495
2187.09277	0.01548
2185.80701	0.01584
2184.52124	0.01593
2183.23547	0.01568
2181.94970	0.01491
2180.66393	0.01364
2179.37816	0.01224
2178.09239	0.01117
2176.80662	0.01055
2175.52085	0.01016
2174.23509	0.00979
2172.94932	0.00947
2171.66355	0.00934
2170.37778	0.00945
2169.09201	0.00968
2167.80624	0.00984
2166.52047	0.00999
2165.23470	0.01039
2163.94894	0.01107
2162.66317	0.01148
2161.37740	0.01083
2160.09163	0.00887
2158.80586	0.00643
2157.52009	0.00484
2156.23432	0.00468
2154.94855	0.00555
2153.66278	0.00657
2152.37702	0.00719
2151.09125	0.00731
2149.80548	0.00723
2148.51971	0.00742
2147.23394	0.00823
2145.94817	0.00967
2144.66240	0.01132
2143.37663	0.01250
2142.09087	0.01272
2140.80510	0.01204
2139.51933	0.01104
2138.23356	0.01032
2136.94779	0.01007
2135.66202	0.01011
2134.37625	0.01016
2133.09048	0.01011
2131.80471	0.01008
2130.51895	0.01030
2129.23318	0.01096
2127.94741	0.01190
2126.66164	0.01267
2125.37587	0.01293
2124.09010	0.01279
2122.80433	0.01272
2121.51856	0.01300
2120.23280	0.01355
2118.94703	0.01409
2117.66126	0.01454
2116.37549	0.01499
2115.08972	0.01544
2113.80395	0.01571
2112.51818	0.01569
2111.23241	0.01541
2109.94664	0.01488
2108.66088	0.01408
2107.37511	0.01310
2106.08934	0.01232
2104.80357	0.01215
2103.51780	0.01251
2102.23203	0.01283
2100.94626	0.01269
2099.66049	0.01244
2098.37473	0.01226
2097.08896	0.01231
2095.80319	0.01251
2094.51742	0.01273
2093.23165	0.01309
2091.94588	0.01369
2090.66011	0.01429
2089.37434	0.01453
2088.08857	0.01433
2086.80281	0.01397
2085.51704	0.01380
2084.23127	0.01389
2082.94550	0.01399
2081.65973	0.01384
2080.37396	0.01332
2079.08819	0.01252
2077.80242	0.01167
2076.51666	0.01097
2075.23089	0.01050
2073.94512	0.01025
2072.65935	0.01016
2071.37358	0.01022
2070.08781	0.01031
2068.80204	0.01025
2067.51627	0.00997
2066.23050	0.00962
2064.94474	0.00951
2063.65897	0.00976
2062.37320	0.01018
2061.08743	0.01041
2059.80166	0.01024
2058.51589	0.00974
2057.23012	0.00918
2055.94435	0.00876
2054.65859	0.00852
2053.37282	0.00841
2052.08705	0.00842
2050.80128	0.00838
2049.51551	0.00804
2048.22974	0.00739
2046.94397	0.00674
2045.65820	0.00644
2044.37243	0.00646
2043.08667	0.00652
2041.80090	0.00658
2040.51513	0.00688
2039.22936	0.00750
2037.94359	0.00808
2036.65782	0.00810
2035.37205	0.00748
2034.08628	0.00663
2032.80052	0.00609
2031.51475	0.00604
2030.22898	0.00621
2028.94321	0.00625
2027.65744	0.00605
2026.37167	0.00575
2025.08590	0.00552
2023.80013	0.00546
2022.51436	0.00565
2021.22860	0.00613
2019.94283	0.00672
2018.65706	0.00711
2017.37129	0.00705
2016.08552	0.00665
2014.79975	0.00630
2013.51398	0.00629
2012.22821	0.00654
2010.94245	0.00661
2009.65668	0.00621
2008.37091	0.00544
2007.08514	0.00468
2005.79937	0.00422
2004.51360	0.00419
2003.22783	0.00469
2001.94206	0.00580
2000.65629	0.00735
1999.37053	0.00888
1998.08476	0.00979
1996.79899	0.00981
1995.51322	0.00918
1994.22745	0.00843
1992.94168	0.00804
1991.65591	0.00814
1990.37014	0.00851
1989.08438	0.00883
1987.79861	0.00897
1986.51284	0.00906
1985.22707	0.00944
1983.94130	0.01024
1982.65553	0.01121
1981.36976	0.01191
1980.08399	0.01201
1978.79822	0.01150
1977.51246	0.01071
1976.22669	0.01009
1974.94092	0.00995
1973.65515	0.01014
1972.36938	0.01016
1971.08361	0.00956
1969.79784	0.00835
1968.51207	0.00713
1967.22631	0.00666
1965.94054	0.00723
1964.65477	0.00854
1963.36900	0.00994
1962.08323	0.01086
1960.79746	0.01111
1959.51169	0.01086
1958.22592	0.01042
1956.94015	0.00996
1955.65439	0.00956
1954.36862	0.00933
1953.08285	0.00945
1951.79708	0.00993
1950.51131	0.01046
1949.22554	0.01077
1947.93977	0.01090
1946.65400	0.01112
1945.36823	0.01165
1944.08247	0.01239
1942.79670	0.01312
1941.51093	0.01363
1940.22516	0.01387
1938.93939	0.01385
1937.65362	0.01357
1936.36785	0.01310
1935.08208	0.01270
1933.79632	0.01266
1932.51055	0.01303
1931.22478	0.01356
1929.93901	0.01397
1928.65324	0.01416
1927.36747	0.01414
1926.08170	0.01397
1924.79593	0.01369
1923.51016	0.01347
1922.22440	0.01340
1920.93863	0.01346
1919.65286	0.01350
1918.36709	0.01346
1917.08132	0.01341
1915.79555	0.01352
1914.50978	0.01383
1913.22401	0.01426
1911.93825	0.01461
1910.65248	0.01472
1909.36671	0.01459
1908.08094	0.01433
1906.79517	0.01408
1905.50940	0.01391
1904.22363	0.01381
1902.93786	0.01377
1901.65209	0.01381
1900.36633	0.01399
1899.08056	0.01434
1897.79479	0.01475
1896.50902	0.01504
1895.22325	0.01505
1893.93748	0.01482
1892.65171	0.01453
1891.36594	0.01432
1890.08018	0.01426
1888.79441	0.01430
1887.50864	0.01434
1886.22287	0.01432
1884.93710	0.01425
1883.65133	0.01413
1882.36556	0.01395
1881.07979	0.01373
1879.79402	0.01354
1878.50826	0.01344
1877.22249	0.01349
1875.93672	0.01371
1874.65095	0.01404
1873.36518	0.01438
1872.07941	0.01461
1870.79364	0.01468
1869.50787	0.01466
1868.22211	0.01464
1866.93634	0.01469
1865.65057	0.01486
1864.36480	0.01514
1863.07903	0.01541
1861.79326	0.01551
1860.50749	0.01538
1859.22172	0.01512
1857.93595	0.01489
1856.65019	0.01479
1855.36442	0.01477
1854.07865	0.01479
1852.79288	0.01481
1851.50711	0.01483
1850.22134	0.01480
1848.93557	0.01471
1847.64980	0.01461
1846.36404	0.01454
1845.07827	0.01449
1843.79250	0.01440
1842.50673	0.01427
1841.22096	0.01414
1839.93519	0.01413
1838.64942	0.01427
1837.36365	0.01454
1836.07788	0.01488
1834.79212	0.01521
1833.50635	0.01548
1832.22058	0.01562
1830.93481	0.01562
1829.64904	0.01552
1828.36327	0.01541
1827.07750	0.01537
1825.79173	0.01543
1824.50597	0.01554
1823.22020	0.01568
1821.93443	0.01579
1820.64866	0.01579
1819.36289	0.01565
1818.07712	0.01547
1816.79135	0.01538
1815.50558	0.01542
1814.21981	0.01553
1812.93405	0.01562
1811.64828	0.01569
1810.36251	0.01575
1809.07674	0.01579
1807.79097	0.01580
1806.50520	0.01582
1805.21943	0.01588
1803.93366	0.01599
1802.64790	0.01610
1801.36213	0.01617
1800.07636	0.01616
1798.79059	0.01603
1797.50482	0.01583
1796.21905	0.01566
1794.93328	0.01565
1793.64751	0.01580
1792.36174	0.01599
1791.07598	0.01612
1789.79021	0.01615
1788.50444	0.01610
1787.21867	0.01601
1785.93290	0.01588
1784.64713	0.01579
1783.36136	0.01583
1782.07559	0.01599
1780.78983	0.01618
1779.50406	0.01628
1778.21829	0.01629
1776.93252	0.01631
1775.64675	0.01642
1774.36098	0.01657
1773.07521	0.01669
1771.78944	0.01675
1770.50367	0.01677
1769.21791	0.01684
1767.93214	0.01699
1766.64637	0.01718
1765.36060	0.01738
1764.07483	0.01751
1762.78906	0.01752
1761.50329	0.01742
1760.21752	0.01728
1758.93176	0.01719
1757.64599	0.01721
1756.36022	0.01730
1755.07445	0.01738
1753.78868	0.01744
1752.50291	0.01750
1751.21714	0.01763
1749.93137	0.01779
1748.64560	0.01793
1747.35984	0.01800
1746.07407	0.01801
1744.78830	0.01800
1743.50253	0.01797
1742.21676	0.01797
1740.93099	0.01798
1739.64522	0.01801
1738.35945	0.01806
1737.07369	0.01814
1735.78792	0.01826
1734.50215	0.01839
1733.21638	0.01847
1731.93061	0.01847
1730.64484	0.01843
1729.35907	0.01844
1728.07330	0.01858
1726.78753	0.01881
1725.50177	0.01905
1724.21600	0.01923
1722.93023	0.01936
1721.64446	0.01946
1720.35869	0.01961
1719.07292	0.01983
1717.78715	0.02009
1716.50138	0.02035
1715.21561	0.02058
1713.92985	0.02082
1712.64408	0.02109
1711.35831	0.02138
1710.07254	0.02165
1708.78677	0.02189
1707.50100	0.02213
1706.21523	0.02239
1704.92946	0.02265
1703.64370	0.02292
1702.35793	0.02318
1701.07216	0.02346
1699.78639	0.02374
1698.50062	0.02404
1697.21485	0.02435
1695.92908	0.02464
1694.64331	0.02488
1693.35754	0.02505
1692.07178	0.02520
1690.78601	0.02537
1689.50024	0.02556
1688.21447	0.02576
1686.92870	0.02592
1685.64293	0.02604
1684.35716	0.02616
1683.07139	0.02633
1681.78563	0.02658
1680.49986	0.02689
1679.21409	0.02719
1677.92832	0.02747
1676.64255	0.02775
1675.35678	0.02803
1674.07101	0.02832
1672.78524	0.02859
1671.49947	0.02884
1670.21371	0.02907
1668.92794	0.02930
1667.64217	0.02951
1666.35640	0.02972
1665.07063	0.02996
1663.78486	0.03024
1662.49909	0.03052
1661.21332	0.03077
1659.92756	0.03095
1658.64179	0.03108
1657.35602	0.03121
1656.07025	0.03138
1654.78448	0.03162
1653.49871	0.03188
1652.21294	0.03211
1650.92717	0.03228
1649.64140	0.03242
1648.35564	0.03257
1647.06987	0.03271
1645.78410	0.03280
1644.49833	0.03283
1643.21256	0.03283
1641.92679	0.03285
1640.64102	0.03288
1639.35525	0.03292
1638.06949	0.03298
1636.78372	0.03307
1635.49795	0.03318
1634.21218	0.03330
1632.92641	0.03342
1631.64064	0.03354
1630.35487	0.03365
1629.06910	0.03374
1627.78333	0.03382
1626.49757	0.03391
1625.21180	0.03402
1623.92603	0.03416
1622.64026	0.03425
1621.35449	0.03429
1620.06872	0.03432
1618.78295	0.03440
1617.49718	0.03458
1616.21142	0.03483
1614.92565	0.03508
1613.63988	0.03532
1612.35411	0.03555
1611.06834	0.03579
1609.78257	0.03601
1608.49680	0.03621
1607.21103	0.03637
1605.92526	0.03652
1604.63950	0.03668
1603.35373	0.03685
1602.06796	0.03704
1600.78219	0.03724
1599.49642	0.03747
1598.21065	0.03772
1596.92488	0.03798
1595.63911	0.03820
1594.35335	0.03836
1593.06758	0.03845
1591.78181	0.03851
1590.49604	0.03860
1589.21027	0.03875
1587.92450	0.03897
1586.63873	0.03924
1585.35296	0.03953
1584.06719	0.03978
1582.78143	0.03998
1581.49566	0.04018
1580.20989	0.04042
1578.92412	0.04077
1577.63835	0.04123
1576.35258	0.04175
1575.06681	0.04222
1573.78104	0.04259
1572.49528	0.04287
1571.20951	0.04313
1569.92374	0.04340
1568.63797	0.04369
1567.35220	0.04399
1566.06643	0.04429
1564.78066	0.04461
1563.49489	0.04494
1562.20912	0.04529
1560.92336	0.04564
1559.63759	0.04593
1558.35182	0.04614
1557.06605	0.04626
1555.78028	0.04637
1554.49451	0.04652
1553.20874	0.04674
1551.92297	0.04698
1550.63721	0.04717
1549.35144	0.04729
1548.06567	0.04735
1546.77990	0.04738
1545.49413	0.04740
1544.20836	0.04742
1542.92259	0.04742
1541.63682	0.04739
1540.35105	0.04728
1539.06529	0.04708
1537.77952	0.04679
1536.49375	0.04648
1535.20798	0.04620
1533.92221	0.04602
1532.63644	0.04595
1531.35067	0.04599
1530.06490	0.04613
1528.77914	0.04635
1527.49337	0.04663
1526.20760	0.04694
1524.92183	0.04733
1523.63606	0.04783
1522.35029	0.04845
1521.06452	0.04917
1519.77875	0.04992
1518.49298	0.05068
1517.20722	0.05148
1515.92145	0.05238
1514.63568	0.05341
1513.34991	0.05455
1512.06414	0.05573
1510.77837	0.05690
1509.49260	0.05804
1508.20683	0.05917
1506.92107	0.06031
1505.63530	0.06142
1504.34953	0.06244
1503.06376	0.06339
1501.77799	0.06431
1500.49222	0.06521
1499.20645	0.06608
1497.92068	0.06691
1496.63491	0.06771
1495.34915	0.06848
1494.06338	0.06921
1492.77761	0.06994
1491.49184	0.07069
1490.20607	0.07147
1488.92030	0.07229
1487.63453	0.07318
1486.34876	0.07420
1485.06299	0.07532
1483.77723	0.07648
1482.49146	0.07762
1481.20569	0.07871
1479.91992	0.07981
1478.63415	0.08095
1477.34838	0.08216
1476.06261	0.08340
1474.77684	0.08463
1473.49108	0.08576
1472.20531	0.08674
1470.91954	0.08753
1469.63377	0.08822
1468.34800	0.08889
1467.06223	0.08957
1465.77646	0.09021
1464.49069	0.09073
1463.20492	0.09114
1461.91916	0.09151
1460.63339	0.09195
1459.34762	0.09248
1458.06185	0.09307
1456.77608	0.09363
1455.49031	0.09408
1454.20454	0.09437
1452.91877	0.09455
1451.63301	0.09466
1450.34724	0.09472
1449.06147	0.09471
1447.77570	0.09460
1446.48993	0.09442
1445.20416	0.09417
1443.91839	0.09386
1442.63262	0.09346
1441.34685	0.09302
1440.06109	0.09259
1438.77532	0.09227
1437.48955	0.09212
1436.20378	0.09217
1434.91801	0.09243
1433.63224	0.09289
1432.34647	0.09355
1431.06070	0.09444
1429.77494	0.09557
1428.48917	0.09695
1427.20340	0.09851
1425.91763	0.10014
1424.63186	0.10174
1423.34609	0.10324
1422.06032	0.10468
1420.77455	0.10612
1419.48878	0.10751
1418.20302	0.10873
1416.91725	0.10962
1415.63148	0.11019
1414.34571	0.11053
1413.05994	0.11074
1411.77417	0.11080
1410.48840	0.11064
1409.20263	0.11019
1407.91687	0.10944
1406.63110	0.10842
1405.34533	0.10717
1404.05956	0.10569
1402.77379	0.10400
1401.48802	0.10211
1400.20225	0.10006
1398.91648	0.09790
1397.63071	0.09569
1396.34495	0.09351
1395.05918	0.09135
1393.77341	0.08920
1392.48764	0.08704
1391.20187	0.08486
1389.91610	0.08270
1388.63033	0.08059
1387.34456	0.07857
1386.05880	0.07665
1384.77303	0.07479
1383.48726	0.07296
1382.20149	0.07113
1380.91572	0.06930
1379.62995	0.06749
1378.34418	0.06569
1377.05841	0.06389
1375.77264	0.06205
1374.48688	0.06010
1373.20111	0.05806
1371.91534	0.05598
1370.62957	0.05398
1369.34380	0.05214
1368.05803	0.05048
1366.77226	0.04895
1365.48649	0.04751
1364.20073	0.04610
1362.91496	0.04471
1361.62919	0.04335
1360.34342	0.04210
1359.05765	0.04098
1357.77188	0.03999
1356.48611	0.03909
1355.20034	0.03827
1353.91457	0.03751
1352.62881	0.03682
1351.34304	0.03618
1350.05727	0.03556
1348.77150	0.03493
1347.48573	0.03431
1346.19996	0.03374
1344.91419	0.03322
1343.62842	0.03276
1342.34266	0.03235
1341.05689	0.03197
1339.77112	0.03157
1338.48535	0.03114
1337.19958	0.03069
1335.91381	0.03028
1334.62804	0.02991
1333.34227	0.02959
1332.05650	0.02928
1330.77074	0.02899
1329.48497	0.02873
1328.19920	0.02847
1326.91343	0.02825
1325.62766	0.02806
1324.34189	0.02790
1323.05612	0.02774
1321.77035	0.02755
1320.48459	0.02732
1319.19882	0.02708
1317.91305	0.02686
1316.62728	0.02666
1315.34151	0.02647
1314.05574	0.02630
1312.76997	0.02614
1311.48420	0.02599
1310.19843	0.02586
1308.91267	0.02573
1307.62690	0.02559
1306.34113	0.02540
1305.05536	0.02518
1303.76959	0.02500
1302.48382	0.02488
1301.19805	0.02482
1299.91228	0.02472
1298.62652	0.02454
1297.34075	0.02432
1296.05498	0.02410
1294.76921	0.02391
1293.48344	0.02374
1292.19767	0.02359
1290.91190	0.02344
1289.62613	0.02331
1288.34036	0.02320
1287.05460	0.02308
1285.76883	0.02296
1284.48306	0.02282
1283.19729	0.02267
1281.91152	0.02251
1280.62575	0.02237
1279.33998	0.02227
1278.05421	0.02219
1276.76845	0.02211
1275.48268	0.02199
1274.19691	0.02184
1272.91114	0.02170
1271.62537	0.02158
1270.33960	0.02148
1269.05383	0.02139
1267.76806	0.02128
1266.48229	0.02116
1265.19653	0.02104
1263.91076	0.02095
1262.62499	0.02089
1261.33922	0.02083
1260.05345	0.02074
1258.76768	0.02060
1257.48191	0.02041
1256.19614	0.02021
1254.91037	0.02003
1253.62461	0.01992
1252.33884	0.01991
1251.05307	0.01995
1249.76730	0.01997
1248.48153	0.01993
1247.19576	0.01986
1245.90999	0.01980
1244.62422	0.01974
1243.33846	0.01965
1242.05269	0.01954
1240.76692	0.01942
1239.48115	0.01932
1238.19538	0.01926
1236.90961	0.01920
1235.62384	0.01913
1234.33807	0.01905
1233.05230	0.01898
1231.76654	0.01892
1230.48077	0.01885
1229.19500	0.01875
1227.90923	0.01864
1226.62346	0.01854
1225.33769	0.01850
1224.05192	0.01848
1222.76615	0.01843
1221.48039	0.01834
1220.19462	0.01823
1218.90885	0.01813
1217.62308	0.01807
1216.33731	0.01803
1215.05154	0.01802
1213.76577	0.01801
1212.48000	0.01799
1211.19423	0.01796
1209.90847	0.01792
1208.62270	0.01786
1207.33693	0.01780
1206.05116	0.01774
1204.76539	0.01769
1203.47962	0.01767
1202.19385	0.01767
1200.90808	0.01769
1199.62232	0.01770
1198.33655	0.01772
1197.05078	0.01769
1195.76501	0.01764
1194.47924	0.01758
1193.19347	0.01749
1191.90770	0.01740
1190.62193	0.01731
1189.33616	0.01727
1188.05040	0.01728
1186.76463	0.01735
1185.47886	0.01746
1184.19309	0.01757
1182.90732	0.01766
1181.62155	0.01768
1180.33578	0.01764
1179.05001	0.01758
1177.76425	0.01759
1176.47848	0.01766
1175.19271	0.01776
1173.90694	0.01786
1172.62117	0.01797
1171.33540	0.01813
1170.04963	0.01831
1168.76386	0.01847
1167.47809	0.01856
1166.19233	0.01864
1164.90656	0.01877
1163.62079	0.01898
1162.33502	0.01925
1161.04925	0.01950
1159.76348	0.01975
1158.47771	0.01999
1157.19194	0.02024
1155.90618	0.02049
1154.62041	0.02077
1153.33464	0.02111
1152.04887	0.02152
1150.76310	0.02195
1149.47733	0.02241
1148.19156	0.02295
1146.90579	0.02361
1145.62002	0.02437
1144.33426	0.02518
1143.04849	0.02600
1141.76272	0.02682
1140.47695	0.02768
1139.19118	0.02864
1137.90541	0.02974
1136.61964	0.03103
1135.33387	0.03248
1134.04811	0.03407
1132.76234	0.03580
1131.47657	0.03778
1130.19080	0.04008
1128.90503	0.04268
1127.61926	0.04551
1126.33349	0.04849
1125.04772	0.05163
1123.76195	0.05492
1122.47619	0.05831
1121.19042	0.06177
1119.90465	0.06527
1118.61888	0.06885
1117.33311	0.07255
1116.04734	0.07637
1114.76157	0.08023
1113.47580	0.08404
1112.19004	0.08777
1110.90427	0.09141
1109.61850	0.09494
1108.33273	0.09831
1107.04696	0.10154
1105.76119	0.10470
1104.47542	0.10783
1103.18965	0.11092
1101.90388	0.11391
1100.61812	0.11680
1099.33235	0.11959
1098.04658	0.12228
1096.76081	0.12489
1095.47504	0.12738
1094.18927	0.12972
1092.90350	0.13188
1091.61773	0.13385
1090.33197	0.13570
1089.04620	0.13754
1087.76043	0.13948
1086.47466	0.14156
1085.18889	0.14372
1083.90312	0.14589
1082.61735	0.14805
1081.33158	0.15022
1080.04581	0.15252
1078.76005	0.15502
1077.47428	0.15776
1076.18851	0.16066
1074.90274	0.16367
1073.61697	0.16678
1072.33120	0.17002
1071.04543	0.17335
1069.75966	0.17670
1068.47390	0.18008
1067.18813	0.18358
1065.90236	0.18726
1064.61659	0.19110
1063.33082	0.19499
1062.04505	0.19884
1060.75928	0.20261
1059.47351	0.20633
1058.18774	0.21002
1056.90198	0.21371
1055.61621	0.21742
1054.33044	0.22112
1053.04467	0.22481
1051.75890	0.22851
1050.47313	0.23226
1049.18736	0.23609
1047.90159	0.24000
1046.61583	0.24403
1045.33006	0.24820
1044.04429	0.25254
1042.75852	0.25703
1041.47275	0.26161
1040.18698	0.26625
1038.90121	0.27090
1037.61544	0.27554
1036.32967	0.28010
1035.04391	0.28452
1033.75814	0.28875
1032.47237	0.29272
1031.18660	0.29635
1029.90083	0.29955
1028.61506	0.30226
1027.32929	0.30450
1026.04352	0.30636
1024.75775	0.30786
1023.47199	0.30897
1022.18622	0.30960
1020.90045	0.30967
1019.61468	0.30918
1018.32891	0.30810
1017.04314	0.30642
1015.75737	0.30408
1014.47160	0.30104
1013.18584	0.29735
1011.90007	0.29305
1010.61430	0.28818
1009.32853	0.28272
1008.04276	0.27668
1006.75699	0.27009
1005.47122	0.26304
1004.18545	0.25560
1002.89968	0.24784
1001.61392	0.23980
1000.32815	0.23147
999.04238	0.22286
997.75661	0.21410
996.47084	0.20535
995.18507	0.19674
993.89930	0.18829
992.61353	0.18001
991.32777	0.17196
990.04200	0.16422
988.75623	0.15683
987.47046	0.14981
986.18469	0.14321
984.89892	0.13704
983.61315	0.13127
982.32738	0.12589
981.04161	0.12091
979.75585	0.11632
978.47008	0.11210
977.18431	0.10827
975.89854	0.10489
974.61277	0.10199
973.32700	0.09963
972.04123	0.09785
970.75546	0.09672
969.46970	0.09625
968.18393	0.09640
966.89816	0.09707
965.61239	0.09815
964.32662	0.09945
963.04085	0.10068
961.75508	0.10147
960.46931	0.10156
959.18354	0.10086
957.89778	0.09941
956.61201	0.09734
955.32624	0.09481
954.04047	0.09201
952.75470	0.08916
951.46893	0.08644
950.18316	0.08388
948.89739	0.08142
947.61163	0.07897
946.32586	0.07654
945.04009	0.07416
943.75432	0.07187
942.46855	0.06969
941.18278	0.06763
939.89701	0.06570
938.61124	0.06393
937.32547	0.06233
936.03971	0.06090
934.75394	0.05965
933.46817	0.05852
932.18240	0.05745
930.89663	0.05640
929.61086	0.05539
928.32509	0.05443
927.03932	0.05354
925.75356	0.05273
924.46779	0.05199
923.18202	0.05125
921.89625	0.05050
920.61048	0.04974
919.32471	0.04900
918.03894	0.04832
916.75317	0.04775
915.46740	0.04730
914.18164	0.04690
912.89587	0.04648
911.61010	0.04605
910.32433	0.04568
909.03856	0.04542
907.75279	0.04522
906.46702	0.04499
905.18125	0.04468
903.89549	0.04430
902.60972	0.04386
901.32395	0.04339
900.03818	0.04295
898.75241	0.04263
897.46664	0.04246
896.18087	0.04241
894.89510	0.04237
893.60933	0.04227
892.32357	0.04212
891.03780	0.04202
889.75203	0.04209
888.46626	0.04242
887.18049	0.04313
885.89472	0.04437
884.60895	0.04628
883.32318	0.04886
882.03742	0.05190
880.75165	0.05498
879.46588	0.05761
878.18011	0.05961
876.89434	0.06119
875.60857	0.06276
874.32280	0.06444
873.03703	0.06587
871.75126	0.06653
870.46550	0.06617
869.17973	0.06491
867.89396	0.06300
866.60819	0.06062
865.32242	0.05795
864.03665	0.05524
862.75088	0.05277
861.46511	0.05067
860.17935	0.04887
858.89358	0.04730
857.60781	0.04593
856.32204	0.04476
855.03627	0.04377
853.75050	0.04293
852.46473	0.04222
851.17896	0.04164
849.89319	0.04115
848.60743	0.04071
847.32166	0.04031
846.03589	0.03993
844.75012	0.03954
843.46435	0.03915
842.17858	0.03881
840.89281	0.03854
839.60704	0.03829
838.32128	0.03799
837.03551	0.03765
835.74974	0.03735
834.46397	0.03712
833.17820	0.03695
831.89243	0.03676
830.60666	0.03656
829.32089	0.03639
828.03512	0.03629
826.74936	0.03626
825.46359	0.03622
824.17782	0.03610
822.89205	0.03589
821.60628	0.03566
820.32051	0.03552
819.03474	0.03553
817.74897	0.03563
816.46321	0.03573
815.17744	0.03577
813.89167	0.03572
812.60590	0.03560
811.32013	0.03547
810.03436	0.03539
808.74859	0.03538
807.46282	0.03536
806.17705	0.03527
804.89129	0.03512
803.60552	0.03500
802.31975	0.03496
801.03398	0.03499
799.74821	0.03506
798.46244	0.03511
797.17667	0.03508
795.89090	0.03495
794.60513	0.03476
793.31937	0.03458
792.03360	0.03445
790.74783	0.03440
789.46206	0.03444
788.17629	0.03450
786.89052	0.03451
785.60475	0.03441
784.31898	0.03426
783.03322	0.03411
781.74745	0.03404
780.46168	0.03406
779.17591	0.03412
777.89014	0.03415
776.60437	0.03410
775.31860	0.03400
774.03283	0.03387
772.74706	0.03375
771.46130	0.03365
770.17553	0.03360
768.88976	0.03364
767.60399	0.03375
766.31822	0.03391
765.03245	0.03404
763.74668	0.03409
762.46091	0.03405
761.17515	0.03395
759.88938	0.03383
758.60361	0.03377
757.31784	0.03382
756.03207	0.03404
754.74630	0.03433
753.46053	0.03455
752.17476	0.03463
750.88899	0.03457
749.60323	0.03447
748.31746	0.03440
747.03169	0.03435
745.74592	0.03425
744.46015	0.03404
743.17438	0.03380
741.88861	0.03362
740.60284	0.03356
739.31708	0.03352
738.03131	0.03344
736.74554	0.03335
735.45977	0.03335
734.17400	0.03343
732.88823	0.03354
731.60246	0.03358
730.31669	0.03350
729.03092	0.03334
727.74516	0.03317
726.45939	0.03305
725.17362	0.03299
723.88785	0.03317
722.60208	0.03333
721.31631	0.03309
720.03054	0.03302
718.74477	0.03343
717.45901	0.03347
716.17324	0.03321
714.88747	0.03298
713.60170	0.03284
712.31593	0.03274
711.03016	0.03269
709.74439	0.03269
708.45862	0.03272
707.17285	0.03276
705.88709	0.03278
704.60132	0.03277
703.31555	0.03276
702.02978	0.03278
700.74401	0.03285
699.45824	0.03296
698.17247	0.03308
696.88670	0.03317
695.60094	0.03322
694.31517	0.03330
693.02940	0.03344
691.74363	0.03364
690.45786	0.03388
689.17209	0.03412
687.88632	0.03431
686.60055	0.03442
685.31478	0.03446
684.02902	0.03445
682.74325	0.03443
681.45748	0.03439
680.17171	0.03429
678.88594	0.03413
677.60017	0.03389
676.31440	0.03362
675.02863	0.03359
673.74287	0.03459
672.45710	0.03739
671.17133	0.04018
669.88556	0.03700
668.59979	0.02791
667.31402	0.02929
666.02825	0.03796
664.74248	0.03893
663.45671	0.03539
662.17095	0.03290
660.88518	0.03216
659.59941	0.03228
658.31364	0.03262
657.02787	0.03285
655.74210	0.03292
654.45633	0.03295
653.17056	0.03289
651.88480	0.03279
650.59903	0.03261
649.31326	0.03236
648.02749	0.03227
646.74172	0.03221
645.45595	0.03205
644.17018	0.03191
642.88441	0.03183
641.59864	0.03182
640.31288	0.03185
639.02711	0.03190
637.74134	0.03196
636.45557	0.03207
635.16980	0.03229
633.88403	0.03265
632.59826	0.03316
631.31249	0.03378
630.02673	0.03445
628.74096	0.03505
627.45519	0.03542
626.16942	0.03637
624.88365	0.03826
623.59788	0.04118
622.31211	0.04462
621.02634	0.04758
619.74057	0.04990
618.45481	0.05243
617.16904	0.05565
615.88327	0.05901
614.59750	0.06176
613.31173	0.06396
612.02596	0.06666
610.74019	0.07126
609.45442	0.07826
608.16866	0.08665
606.88289	0.09485
605.59712	0.10161
604.31135	0.10618
603.02558	0.10821
601.73981	0.10794
600.45404	0.10598
599.16827	0.10296
597.88250	0.09939
596.59674	0.09571
595.31097	0.09230
594.02520	0.08945
592.73943	0.08729
591.45366	0.08584
590.16789	0.08504
588.88212	0.08481
587.59635	0.08512
586.31059	0.08597
585.02482	0.08748
583.73905	0.08970
582.45328	0.09254
581.16751	0.09573
579.88174	0.09901
578.59597	0.10221
577.31020	0.10529
576.02443	0.10821
574.73867	0.11101
573.45290	0.11379
572.16713	0.11672
570.88136	0.12000
569.59559	0.12382
568.30982	0.12815
567.02405	0.13278
565.73828	0.13731
564.45251	0.14120
563.16675	0.14390
561.88098	0.14493
560.59521	0.14397
559.30944	0.14091
558.02367	0.13584
556.73790	0.12915
555.45213	0.12151
554.16636	0.11371
552.88060	0.10635
551.59483	0.09962
550.30906	0.09341
549.02329	0.08762
547.73752	0.08239
546.45175	0.07790
545.16598	0.07414
543.88021	0.07091
542.59444	0.06797
541.30868	0.06518
540.02291	0.06256
538.73714	0.06017
537.45137	0.05809
536.16560	0.05628
534.87983	0.05460
533.59406	0.05286
532.30829	0.05102
531.02253	0.04924
529.73676	0.04769
528.45099	0.04643
527.16522	0.04536
525.87945	0.04433
524.59368	0.04333
523.30791	0.04241
522.02214	0.04159
520.73637	0.04081
519.45061	0.03998
518.16484	0.03909
516.87907	0.03816
515.59330	0.03728
514.30753	0.03648
513.02176	0.03580
511.73599	0.03521
510.45022	0.03472
509.16446	0.03434
507.87869	0.03405
506.59292	0.03374
505.30715	0.03334
504.02138	0.03281
502.73561	0.03223
501.44984	0.03168
500.16407	0.03118
498.87830	0.03073
497.59254	0.03039
496.30677	0.03020
495.02100	0.03012
493.73523	0.03006
492.44946	0.02992
491.16369	0.02967
489.87792	0.02940
488.59215	0.02921
487.30639	0.02913
486.02062	0.02914
484.73485	0.02920
483.44908	0.02927
482.16331	0.02935
480.87754	0.02942
479.59177	0.02950
478.30600	0.02968
477.02023	0.03001
475.73447	0.03044
474.44870	0.03085
473.16293	0.03112
471.87716	0.03122
470.59139	0.03122
469.30562	0.03116
468.01985	0.03099
466.73408	0.03067
465.44832	0.03023
464.16255	0.02978
462.87678	0.02948
461.59101	0.02932
460.30524	0.02919
459.01947	0.02896
457.73370	0.02863
456.44793	0.02825
455.16216	0.02786
453.87640	0.02745
452.59063	0.02707
451.30486	0.02678
450.01909	0.02665
448.73332	0.02667
447.44755	0.02671
446.16178	0.02668
444.87601	0.02654
443.59025	0.02634
442.30448	0.02617
441.01871	0.02609
439.73294	0.02610
438.44717	0.02615
437.16140	0.02616
435.87563	0.02611
434.58986	0.02601
433.30409	0.02589
432.01833	0.02579
430.73256	0.02570
429.44679	0.02561
428.16102	0.02553
426.87525	0.02544
425.58948	0.02532
424.30371	0.02516
423.01794	0.02498
421.73218	0.02485
420.44641	0.02479
419.16064	0.02478
417.87487	0.02477
416.58910	0.02474
415.30333	0.02469
414.01756	0.02462
412.73179	0.02455
411.44602	0.02450
410.16026	0.02449
408.87449	0.02451
407.58872	0.02455
406.30295	0.02458
405.01718	0.02462
403.73141	0.02469
402.44564	0.02483
401.15987	0.02502
399.87411	0.02524
