3997.45528	0.04138
3996.16951	0.04198
3994.88374	0.04255
3993.59798	0.04285
3992.31221	0.04282
3991.02644	0.04269
3989.74067	0.04279
3988.45490	0.04322
3987.16913	0.04377
3985.88336	0.04411
3984.59759	0.04412
3983.31183	0.04404
3982.02606	0.04418
3980.74029	0.04460
3979.45452	0.04513
3978.16875	0.04550
3976.88298	0.04549
3975.59721	0.04506
3974.31144	0.04439
3973.02567	0.04384
3971.73991	0.04371
3970.45414	0.04397
3969.16837	0.04434
3967.88260	0.04461
3966.59683	0.04476
3965.31106	0.04485
3964.02529	0.04483
3962.73952	0.04459
3961.45376	0.04417
3960.16799	0.04373
3958.88222	0.04341
3957.59645	0.04325
3956.31068	0.04321
3955.02491	0.04327
3953.73914	0.04337
3952.45337	0.04342
3951.16760	0.04345
3949.88184	0.04358
3948.59607	0.04380
3947.31030	0.04402
3946.02453	0.04419
3944.73876	0.04429
3943.45299	0.04421
3942.16722	0.04379
3940.88145	0.04311
3939.59569	0.04243
3938.30992	0.04199
3937.02415	0.04180
3935.73838	0.04178
3934.45261	0.04193
3933.16684	0.04226
3931.88107	0.04270
3930.59530	0.04307
3929.30953	0.04318
3928.02377	0.04291
3926.73800	0.04227
3925.45223	0.04145
3924.16646	0.04079
3922.88069	0.04069
3921.59492	0.04128
3920.30915	0.04224
3919.02338	0.04312
3917.73762	0.04365
3916.45185	0.04380
3915.16608	0.04366
3913.88031	0.04329
3912.59454	0.04274
3911.30877	0.04213
3910.02300	0.04162
3908.73723	0.04129
3907.45146	0.04113
3906.16570	0.04107
3904.87993	0.04103
3903.59416	0.04093
3902.30839	0.04089
3901.02262	0.04112
3899.73685	0.04168
3898.45108	0.04232
3897.16531	0.04280
3895.87955	0.04306
3894.59378	0.04311
3893.30801	0.04288
3892.02224	0.04228
3890.73647	0.04147
3889.45070	0.04097
3888.16493	0.04120
3886.87916	0.04193
3885.59339	0.04246
3884.30763	0.04242
3883.02186	0.04208
3881.73609	0.04175
3880.45032	0.04141
3879.16455	0.04098
3877.87878	0.04063
3876.59301	0.04063
3875.30724	0.04095
3874.02148	0.04139
3872.73571	0.04189
3871.44994	0.04246
3870.16417	0.04298
3868.87840	0.04327
3867.59263	0.04334
3866.30686	0.04324
3865.02109	0.04301
3863.73532	0.04286
3862.44956	0.04303
3861.16379	0.04345
3859.87802	0.04362
3858.59225	0.04323
3857.30648	0.04251
3856.02071	0.04196
3854.73494	0.04164
3853.44917	0.04116
3852.16341	0.04037
3850.87764	0.03965
3849.59187	0.03942
3848.30610	0.03969
3847.02033	0.04020
3845.73456	0.04070
3844.44879	0.04111
3843.16302	0.04135
3841.87725	0.04139
3840.59149	0.04130
3839.30572	0.04116
3838.01995	0.04090
3836.73418	0.04044
3835.44841	0.03983
3834.16264	0.03934
3832.87687	0.03922
3831.59110	0.03956
3830.30534	0.04024
3829.01957	0.04096
3827.73380	0.04145
3826.44803	0.04163
3825.16226	0.04161
3823.87649	0.04153
3822.59072	0.04134
3821.30495	0.04097
3820.01918	0.04056
3818.73342	0.04036
3817.44765	0.04041
3816.16188	0.04039
3814.87611	0.04024
3813.59034	0.04028
3812.30457	0.04069
3811.01880	0.04126
3809.73303	0.04177
3808.44726	0.04212
3807.16150	0.04216
3805.87573	0.04178
3804.58996	0.04132
3803.30419	0.04128
3802.01842	0.04157
3800.73265	0.04156
3799.44688	0.04098
3798.16111	0.04022
3796.87535	0.03976
3795.58958	0.03970
3794.30381	0.03993
3793.01804	0.04037
3791.73227	0.04090
3790.44650	0.04123
3789.16073	0.04114
3787.87496	0.04075
3786.58919	0.04038
3785.30343	0.04019
3784.01766	0.04003
3782.73189	0.03968
3781.44612	0.03916
3780.16035	0.03860
3778.87458	0.03804
3777.58881	0.03749
3776.30304	0.03710
3775.01728	0.03714
3773.73151	0.03767
3772.44574	0.03845
3771.15997	0.03907
3769.87420	0.03920
3768.58843	0.03887
3767.30266	0.03845
3766.01689	0.03831
3764.73112	0.03847
3763.44536	0.03871
3762.15959	0.03889
3760.87382	0.03903
3759.58805	0.03914
3758.30228	0.03904
3757.01651	0.03855
3755.73074	0.03793
3754.44497	0.03779
3753.15921	0.03848
3751.87344	0.03956
3750.58767	0.04019
3749.30190	0.03980
3748.01613	0.03862
3746.73036	0.03750
3745.44459	0.03707
3744.15882	0.03720
3742.87305	0.03760
3741.58729	0.03808
3740.30152	0.03839
3739.01575	0.03845
3737.72998	0.03849
3736.44421	0.03866
3735.15844	0.03893
3733.87267	0.03912
3732.58690	0.03900
3731.30114	0.03844
3730.01537	0.03779
3728.72960	0.03749
3727.44383	0.03758
3726.15806	0.03769
3724.87229	0.03752
3723.58652	0.03719
3722.30075	0.03689
3721.01498	0.03679
3719.72922	0.03703
3718.44345	0.03764
3717.15768	0.03843
3715.87191	0.03912
3714.58614	0.03960
3713.30037	0.03972
3712.01460	0.03946
3710.72883	0.03909
3709.44307	0.03893
3708.15730	0.03896
3706.87153	0.03889
3705.58576	0.03854
3704.29999	0.03837
3703.01422	0.03858
3701.72845	0.03877
3700.44268	0.03828
3699.15691	0.03737
3697.87115	0.03662
3696.58538	0.03632
3695.29961	0.03631
3694.01384	0.03614
3692.72807	0.03569
3691.44230	0.03532
3690.15653	0.03543
3688.87076	0.03578
3687.58500	0.03574
3686.29923	0.03538
3685.01346	0.03523
3683.72769	0.03553
3682.44192	0.03604
3681.15615	0.03637
3679.87038	0.03648
3678.58461	0.03670
3677.29884	0.03723
3676.01308	0.03774
3674.72731	0.03782
3673.44154	0.03759
3672.15577	0.03749
3670.87000	0.03761
3669.58423	0.03781
3668.29846	0.03817
3667.01269	0.03883
3665.72693	0.03959
3664.44116	0.04008
3663.15539	0.04016
3661.86962	0.03991
3660.58385	0.03944
3659.29808	0.03883
3658.01231	0.03817
3656.72654	0.03750
3655.44077	0.03685
3654.15501	0.03636
3652.86924	0.03637
3651.58347	0.03701
3650.29770	0.03796
3649.01193	0.03871
3647.72616	0.03905
3646.44039	0.03926
3645.15462	0.03967
3643.86886	0.04030
3642.58309	0.04099
3641.29732	0.04162
3640.01155	0.04207
3638.72578	0.04212
3637.44001	0.04157
3636.15424	0.04053
3634.86847	0.03949
3633.58270	0.03897
3632.29694	0.03922
3631.01117	0.04006
3629.72540	0.04095
3628.43963	0.04127
3627.15386	0.04084
3625.86809	0.04013
3624.58232	0.03973
3623.29655	0.03978
3622.01079	0.03996
3620.72502	0.03999
3619.43925	0.03987
3618.15348	0.03985
3616.86771	0.04006
3615.58194	0.04055
3614.29617	0.04105
3613.01040	0.04137
3611.72463	0.04170
3610.43887	0.04243
3609.15310	0.04355
3607.86733	0.04461
3606.58156	0.04510
3605.29579	0.04489
3604.01002	0.04433
3602.72425	0.04373
3601.43848	0.04325
3600.15272	0.04298
3598.86695	0.04332
3597.58118	0.04425
3596.29541	0.04530
3595.00964	0.04577
3593.72387	0.04559
3592.43810	0.04491
3591.15233	0.04408
3589.86656	0.04358
3588.58080	0.04370
3587.29503	0.04436
3586.00926	0.04523
3584.72349	0.04607
3583.43772	0.04684
3582.15195	0.04758
3580.86618	0.04831
3579.58041	0.04887
3578.29464	0.04916
3577.00888	0.04932
3575.72311	0.04958
3574.43734	0.05004
3573.15157	0.05056
3571.86580	0.05088
3570.58003	0.05086
3569.29426	0.05066
3568.00849	0.05049
3566.72273	0.05046
3565.43696	0.05051
3564.15119	0.05053
3562.86542	0.05046
3561.57965	0.05024
3560.29388	0.04992
3559.00811	0.04966
3557.72234	0.04964
3556.43657	0.04996
3555.15081	0.05060
3553.86504	0.05145
3552.57927	0.05236
3551.29350	0.05312
3550.00773	0.05362
3548.72196	0.05382
3547.43619	0.05370
3546.15042	0.05324
3544.86466	0.05254
3543.57889	0.05193
3542.29312	0.05187
3541.00735	0.05251
3539.72158	0.05350
3538.43581	0.05427
3537.15004	0.05450
3535.86427	0.05429
3534.57850	0.05391
3533.29274	0.05351
3532.00697	0.05318
3530.72120	0.05314
3529.43543	0.05360
3528.14966	0.05447
3526.86389	0.05530
3525.57812	0.05573
3524.29235	0.05570
3523.00659	0.05546
3521.72082	0.05535
3520.43505	0.05562
3519.14928	0.05629
3517.86351	0.05710
3516.57774	0.05771
3515.29197	0.05804
3514.00620	0.05825
3512.72043	0.05853
3511.43467	0.05882
3510.14890	0.05889
3508.86313	0.05859
3507.57736	0.05806
3506.29159	0.05765
3505.00582	0.05762
3503.72005	0.05791
3502.43428	0.05821
3501.14852	0.05822
3499.86275	0.05800
3498.57698	0.05794
3497.29121	0.05825
3496.00544	0.05877
3494.71967	0.05913
3493.43390	0.05925
3492.14813	0.05928
3490.86236	0.05937
3489.57660	0.05946
3488.29083	0.05949
3487.00506	0.05952
3485.71929	0.05963
3484.43352	0.05995
3483.14775	0.06054
3481.86198	0.06140
3480.57621	0.06231
3479.29045	0.06296
3478.00468	0.06312
3476.71891	0.06287
3475.43314	0.06257
3474.14737	0.06257
3472.86160	0.06287
3471.57583	0.06314
3470.29006	0.06317
3469.00429	0.06298
3467.71853	0.06276
3466.43276	0.06257
3465.14699	0.06243
3463.86122	0.06244
3462.57545	0.06264
3461.28968	0.06288
3460.00391	0.06289
3458.71814	0.06261
3457.43238	0.06227
3456.14661	0.06224
3454.86084	0.06266
3453.57507	0.06338
3452.28930	0.06406
3451.00353	0.06443
3449.71776	0.06451
3448.43199	0.06447
3447.14622	0.06444
3445.86046	0.06441
3444.57469	0.06426
3443.28892	0.06393
3442.00315	0.06351
3440.71738	0.06328
3439.43161	0.06354
3438.14584	0.06434
3436.86007	0.06537
3435.57431	0.06616
3434.28854	0.06648
3433.00277	0.06646
3431.71700	0.06642
3430.43123	0.06662
3429.14546	0.06703
3427.85969	0.06745
3426.57392	0.06765
3425.28815	0.06752
3424.00239	0.06719
3422.71662	0.06699
3421.43085	0.06713
3420.14508	0.06760
3418.85931	0.06813
3417.57354	0.06846
3416.28777	0.06845
3415.00200	0.06813
3413.71624	0.06768
3412.43047	0.06734
3411.14470	0.06727
3409.85893	0.06743
3408.57316	0.06763
3407.28739	0.06768
3406.00162	0.06760
3404.71585	0.06750
3403.43008	0.06748
3402.14432	0.06752
3400.85855	0.06760
3399.57278	0.06779
3398.28701	0.06822
3397.00124	0.06886
3395.71547	0.06948
3394.42970	0.06984
3393.14393	0.06989
3391.85817	0.06982
3390.57240	0.06993
3389.28663	0.07033
3388.00086	0.07086
3386.71509	0.07117
3385.42932	0.07102
3384.14355	0.07055
3382.85778	0.07009
3381.57201	0.06989
3380.28625	0.06992
3379.00048	0.06998
3377.71471	0.06995
3376.42894	0.06991
3375.14317	0.06995
3373.85740	0.07001
3372.57163	0.06999
3371.28586	0.06992
3370.00010	0.06996
3368.71433	0.07020
3367.42856	0.07056
3366.14279	0.07093
3364.85702	0.07127
3363.57125	0.07151
3362.28548	0.07158
3360.99971	0.07146
3359.71394	0.07133
3358.42818	0.07139
3357.14241	0.07167
3355.85664	0.07202
3354.57087	0.07220
3353.28510	0.07217
3351.99933	0.07201
3350.71356	0.07185
3349.42779	0.07179
3348.14202	0.07182
3346.85626	0.07187
3345.57049	0.07188
3344.28472	0.07191
3342.99895	0.07202
3341.71318	0.07215
3340.42741	0.07220
3339.14164	0.07208
3337.85587	0.07185
3336.57011	0.07164
3335.28434	0.07165
3333.99857	0.07202
3332.71280	0.07272
3331.42703	0.07351
3330.14126	0.07399
3328.85549	0.07388
3327.56972	0.07325
3326.28395	0.07251
3324.99819	0.07215
3323.71242	0.07238
3322.42665	0.07298
3321.14088	0.07353
3319.85511	0.07368
3318.56934	0.07341
3317.28357	0.07290
3315.99780	0.07245
3314.71204	0.07218
3313.42627	0.07214
3312.14050	0.07231
3310.85473	0.07266
3309.56896	0.07311
3308.28319	0.07353
3306.99742	0.07392
3305.71165	0.07434
3304.42588	0.07475
3303.14012	0.07494
3301.85435	0.07471
3300.56858	0.07410
3299.28281	0.07338
3297.99704	0.07283
3296.71127	0.07260
3295.42550	0.07273
3294.13973	0.07322
3292.85397	0.07396
3291.56820	0.07464
3290.28243	0.07488
3288.99666	0.07456
3287.71089	0.07394
3286.42512	0.07341
3285.13935	0.07313
3283.85358	0.07305
3282.56781	0.07306
3281.28205	0.07320
3279.99628	0.07352
3278.71051	0.07395
3277.42474	0.07436
3276.13897	0.07462
3274.85320	0.07466
3273.56743	0.07452
3272.28166	0.07427
3270.99590	0.07394
3269.71013	0.07358
3268.42436	0.07323
3267.13859	0.07295
3265.85282	0.07280
3264.56705	0.07272
3263.28128	0.07254
3261.99551	0.07210
3260.70974	0.07151
3259.42398	0.07108
3258.13821	0.07103
3256.85244	0.07121
3255.56667	0.07132
3254.28090	0.07129
3252.99513	0.07129
3251.70936	0.07144
3250.42359	0.07168
3249.13783	0.07184
3247.85206	0.07186
3246.56629	0.07173
3245.28052	0.07148
3243.99475	0.07116
3242.70898	0.07095
3241.42321	0.07099
3240.13744	0.07127
3238.85167	0.07160
3237.56591	0.07182
3236.28014	0.07186
3234.99437	0.07166
3233.70860	0.07111
3232.42283	0.07025
3231.13706	0.06936
3229.85129	0.06880
3228.56552	0.06876
3227.27976	0.06910
3225.99399	0.06959
3224.70822	0.06999
3223.42245	0.07014
3222.13668	0.06994
3220.85091	0.06949
3219.56514	0.06909
3218.27937	0.06898
3216.99360	0.06913
3215.70784	0.06930
3214.42207	0.06923
3213.13630	0.06890
3211.85053	0.06846
3210.56476	0.06806
3209.27899	0.06780
3207.99322	0.06771
3206.70745	0.06783
3205.42169	0.06818
3204.13592	0.06862
3202.85015	0.06891
3201.56438	0.06894
3200.27861	0.06881
3198.99284	0.06868
3197.70707	0.06858
3196.42130	0.06835
3195.13553	0.06788
3193.84977	0.06727
3192.56400	0.06674
3191.27823	0.06647
3189.99246	0.06651
3188.70669	0.06678
3187.42092	0.06716
3186.13515	0.06753
3184.84938	0.06780
3183.56362	0.06795
3182.27785	0.06796
3180.99208	0.06778
3179.70631	0.06733
3178.42054	0.06658
3177.13477	0.06570
3175.84900	0.06499
3174.56323	0.06466
3173.27746	0.06467
3171.99170	0.06483
3170.70593	0.06499
3169.42016	0.06515
3168.13439	0.06538
3166.84862	0.06568
3165.56285	0.06590
3164.27708	0.06590
3162.99131	0.06560
3161.70555	0.06504
3160.41978	0.06446
3159.13401	0.06411
3157.84824	0.06413
3156.56247	0.06441
3155.27670	0.06474
3153.99093	0.06497
3152.70516	0.06508
3151.41939	0.06512
3150.13363	0.06520
3148.84786	0.06535
3147.56209	0.06550
3146.27632	0.06544
3144.99055	0.06505
3143.70478	0.06451
3142.41901	0.06415
3141.13324	0.06411
3139.84748	0.06425
3138.56171	0.06431
3137.27594	0.06412
3135.99017	0.06370
3134.70440	0.06322
3133.41863	0.06284
3132.13286	0.06259
3130.84709	0.06245
3129.56132	0.06239
3128.27556	0.06240
3126.98979	0.06239
3125.70402	0.06229
3124.41825	0.06215
3123.13248	0.06208
3121.84671	0.06211
3120.56094	0.06216
3119.27517	0.06217
3117.98940	0.06217
3116.70364	0.06220
3115.41787	0.06219
3114.13210	0.06202
3112.84633	0.06162
3111.56056	0.06117
3110.27479	0.06094
3108.98902	0.06104
3107.70325	0.06129
3106.41749	0.06146
3105.13172	0.06148
3103.84595	0.06143
3102.56018	0.06140
3101.27441	0.06136
3099.98864	0.06121
3098.70287	0.06095
3097.41710	0.06066
3096.13133	0.06048
3094.84557	0.06050
3093.55980	0.06068
3092.27403	0.06086
3090.98826	0.06093
3089.70249	0.06090
3088.41672	0.06087
3087.13095	0.06101
3085.84518	0.06131
3084.55942	0.06159
3083.27365	0.06156
3081.98788	0.06111
3080.70211	0.06049
3079.41634	0.06007
3078.13057	0.06004
3076.84480	0.06028
3075.55903	0.06049
3074.27326	0.06048
3072.98750	0.06030
3071.70173	0.06017
3070.41596	0.06024
3069.13019	0.06055
3067.84442	0.06095
3066.55865	0.06120
3065.27288	0.06113
3063.98711	0.06074
3062.70135	0.06023
3061.41558	0.05985
3060.12981	0.05963
3058.84404	0.05944
3057.55827	0.05919
3056.27250	0.05898
3054.98673	0.05895
3053.70096	0.05913
3052.41519	0.05934
3051.12943	0.05943
3049.84366	0.05928
3048.55789	0.05886
3047.27212	0.05826
3045.98635	0.05771
3044.70058	0.05748
3043.41481	0.05768
3042.12904	0.05816
3040.84328	0.05864
3039.55751	0.05887
3038.27174	0.05874
3036.98597	0.05837
3035.70020	0.05794
3034.41443	0.05763
3033.12866	0.05751
3031.84289	0.05756
3030.55712	0.05763
3029.27136	0.05754
3027.98559	0.05722
3026.69982	0.05675
3025.41405	0.05635
3024.12828	0.05615
3022.84251	0.05614
3021.55674	0.05625
3020.27097	0.05644
3018.98521	0.05665
3017.69944	0.05681
3016.41367	0.05680
3015.12790	0.05657
3013.84213	0.05616
3012.55636	0.05567
3011.27059	0.05528
3009.98482	0.05520
3008.69905	0.05547
3007.41329	0.05587
3006.12752	0.05613
3004.84175	0.05615
3003.55598	0.05602
3002.27021	0.05586
3000.98444	0.05570
2999.69867	0.05556
2998.41290	0.05547
2997.12714	0.05544
2995.84137	0.05540
2994.55560	0.05533
2993.26983	0.05529
2991.98406	0.05531
2990.69829	0.05533
2989.41252	0.05529
2988.12675	0.05521
2986.84098	0.05519
2985.55522	0.05525
2984.26945	0.05529
2982.98368	0.05522
2981.69791	0.05514
2980.41214	0.05524
2979.12637	0.05556
2977.84060	0.05587
2976.55483	0.05600
2975.26907	0.05604
2973.98330	0.05624
2972.69753	0.05666
2971.41176	0.05708
2970.12599	0.05731
2968.84022	0.05735
2967.55445	0.05738
2966.26868	0.05755
2964.98291	0.05788
2963.69715	0.05820
2962.41138	0.05844
2961.12561	0.05866
2959.83984	0.05899
2958.55407	0.05945
2957.26830	0.05991
2955.98253	0.06025
2954.69676	0.06048
2953.41100	0.06063
2952.12523	0.06069
2950.83946	0.06067
2949.55369	0.06060
2948.26792	0.06056
2946.98215	0.06065
2945.69638	0.06088
2944.41061	0.06113
2943.12484	0.06123
2941.83908	0.06110
2940.55331	0.06079
2939.26754	0.06042
2937.98177	0.06023
2936.69600	0.06035
2935.41023	0.06072
2934.12446	0.06106
2932.83869	0.06121
2931.55293	0.06123
2930.26716	0.06123
2928.98139	0.06126
2927.69562	0.06134
2926.40985	0.06151
2925.12408	0.06178
2923.83831	0.06203
2922.55254	0.06218
2921.26677	0.06220
2919.98101	0.06202
2918.69524	0.06160
2917.40947	0.06096
2916.12370	0.06032
2914.83793	0.05990
2913.55216	0.05979
2912.26639	0.05991
2910.98062	0.06001
2909.69486	0.05988
2908.40909	0.05947
2907.12332	0.05890
2905.83755	0.05833
2904.55178	0.05791
2903.26601	0.05777
2901.98024	0.05785
2900.69447	0.05794
2899.40870	0.05785
2898.12294	0.05759
2896.83717	0.05737
2895.55140	0.05728
2894.26563	0.05721
2892.97986	0.05700
2891.69409	0.05660
2890.40832	0.05614
2889.12255	0.05579
2887.83678	0.05558
2886.55102	0.05544
2885.26525	0.05525
2883.97948	0.05498
2882.69371	0.05470
2881.40794	0.05450
2880.12217	0.05447
2878.83640	0.05463
2877.55063	0.05490
2876.26487	0.05510
2874.97910	0.05517
2873.69333	0.05522
2872.40756	0.05535
2871.12179	0.05558
2869.83602	0.05576
2868.55025	0.05571
2867.26448	0.05539
2865.97871	0.05497
2864.69295	0.05465
2863.40718	0.05443
2862.12141	0.05418
2860.83564	0.05382
2859.54987	0.05343
2858.26410	0.05316
2856.97833	0.05311
2855.69256	0.05322
2854.40680	0.05337
2853.12103	0.05344
2851.83526	0.05342
2850.54949	0.05342
2849.26372	0.05351
2847.97795	0.05361
2846.69218	0.05361
2845.40641	0.05343
2844.12064	0.05312
2842.83488	0.05273
2841.54911	0.05228
2840.26334	0.05178
2838.97757	0.05133
2837.69180	0.05105
2836.40603	0.05098
2835.12026	0.05100
2833.83449	0.05089
2832.54873	0.05050
2831.26296	0.04992
2829.97719	0.04939
2828.69142	0.04914
2827.40565	0.04915
2826.11988	0.04921
2824.83411	0.04911
2823.54834	0.04877
2822.26257	0.04830
2820.97681	0.04790
2819.69104	0.04769
2818.40527	0.04765
2817.11950	0.04762
2815.83373	0.04750
2814.54796	0.04730
2813.26219	0.04716
2811.97642	0.04718
2810.69066	0.04730
2809.40489	0.04740
2808.11912	0.04742
2806.83335	0.04740
2805.54758	0.04739
2804.26181	0.04731
2802.97604	0.04709
2801.69027	0.04675
2800.40450	0.04642
2799.11874	0.04617
2797.83297	0.04603
2796.54720	0.04598
2795.26143	0.04597
2793.97566	0.04598
2792.68989	0.04599
2791.40412	0.04598
2790.11835	0.04588
2788.83259	0.04567
2787.54682	0.04538
2786.26105	0.04510
2784.97528	0.04494
2783.68951	0.04493
2782.40374	0.04501
2781.11797	0.04504
2779.83220	0.04496
2778.54643	0.04484
2777.26067	0.04484
2775.97490	0.04500
2774.68913	0.04520
2773.40336	0.04526
2772.11759	0.04520
2770.83182	0.04510
2769.54605	0.04507
2768.26028	0.04511
2766.97452	0.04517
2765.68875	0.04517
2764.40298	0.04502
2763.11721	0.04472
2761.83144	0.04435
2760.54567	0.04399
2759.25990	0.04370
2757.97413	0.04349
2756.68836	0.04333
2755.40260	0.04322
2754.11683	0.04317
2752.83106	0.04320
2751.54529	0.04330
2750.25952	0.04344
2748.97375	0.04353
2747.68798	0.04356
2746.40221	0.04351
2745.11645	0.04346
2743.83068	0.04345
2742.54491	0.04350
2741.25914	0.04355
2739.97337	0.04353
2738.68760	0.04338
2737.40183	0.04309
2736.11606	0.04273
2734.83029	0.04245
2733.54453	0.04242
2732.25876	0.04266
2730.97299	0.04299
2729.68722	0.04315
2728.40145	0.04303
2727.11568	0.04277
2725.82991	0.04254
2724.54414	0.04240
2723.25838	0.04234
2721.97261	0.04233
2720.68684	0.04235
2719.40107	0.04233
2718.11530	0.04222
2716.82953	0.04208
2715.54376	0.04200
2714.25799	0.04202
2712.97222	0.04209
2711.68646	0.04210
2710.40069	0.04201
2709.11492	0.04185
2707.82915	0.04167
2706.54338	0.04151
2705.25761	0.04137
2703.97184	0.04127
2702.68607	0.04123
2701.40031	0.04131
2700.11454	0.04148
2698.82877	0.04168
2697.54300	0.04181
2696.25723	0.04181
2694.97146	0.04170
2693.68569	0.04159
2692.39992	0.04156
2691.11415	0.04158
2689.82839	0.04154
2688.54262	0.04135
2687.25685	0.04106
2685.97108	0.04080
2684.68531	0.04070
2683.39954	0.04076
2682.11377	0.04081
2680.82800	0.04073
2679.54224	0.04057
2678.25647	0.04047
2676.97070	0.04053
2675.68493	0.04067
2674.39916	0.04073
2673.11339	0.04061
2671.82762	0.04038
2670.54185	0.04022
2669.25608	0.04019
2667.97032	0.04021
2666.68455	0.04015
2665.39878	0.04003
2664.11301	0.03997
2662.82724	0.03999
2661.54147	0.03997
2660.25570	0.03982
2658.96993	0.03959
2657.68417	0.03948
2656.39840	0.03958
2655.11263	0.03978
2653.82686	0.03987
2652.54109	0.03975
2651.25532	0.03954
2649.96955	0.03946
2648.68378	0.03957
2647.39801	0.03973
2646.11225	0.03970
2644.82648	0.03941
2643.54071	0.03903
2642.25494	0.03877
2640.96917	0.03870
2639.68340	0.03873
2638.39763	0.03866
2637.11186	0.03840
2635.82609	0.03796
2634.54033	0.03749
2633.25456	0.03715
2631.96879	0.03697
2630.68302	0.03685
2629.39725	0.03676
2628.11148	0.03674
2626.82571	0.03687
2625.53994	0.03707
2624.25418	0.03718
2622.96841	0.03707
2621.68264	0.03677
2620.39687	0.03644
2619.11110	0.03619
2617.82533	0.03602
2616.53956	0.03586
2615.25379	0.03564
2613.96802	0.03535
2612.68226	0.03509
2611.39649	0.03500
2610.11072	0.03519
2608.82495	0.03558
2607.53918	0.03593
2606.25341	0.03601
2604.96764	0.03577
2603.68187	0.03533
2602.39611	0.03488
2601.11034	0.03452
2599.82457	0.03426
2598.53880	0.03405
2597.25303	0.03389
2595.96726	0.03378
2594.68149	0.03379
2593.39572	0.03388
2592.10995	0.03392
2590.82419	0.03379
2589.53842	0.03352
2588.25265	0.03333
2586.96688	0.03337
2585.68111	0.03367
2584.39534	0.03414
2583.10957	0.03455
2581.82380	0.03461
2580.53804	0.03430
2579.25227	0.03392
2577.96650	0.03378
2576.68073	0.03382
2575.39496	0.03379
2574.10919	0.03361
2572.82342	0.03337
2571.53765	0.03315
2570.25188	0.03291
2568.96612	0.03271
2567.68035	0.03271
2566.39458	0.03297
2565.10881	0.03331
2563.82304	0.03353
2562.53727	0.03355
2561.25150	0.03347
2559.96573	0.03337
2558.67997	0.03328
2557.39420	0.03319
2556.10843	0.03308
2554.82266	0.03285
2553.53689	0.03243
2552.25112	0.03194
2550.96535	0.03163
2549.67958	0.03164
2548.39381	0.03184
2547.10805	0.03206
2545.82228	0.03220
2544.53651	0.03231
2543.25074	0.03245
2541.96497	0.03260
2540.67920	0.03268
2539.39343	0.03258
2538.10766	0.03233
2536.82190	0.03211
2535.53613	0.03199
2534.25036	0.03186
2532.96459	0.03164
2531.67882	0.03138
2530.39305	0.03116
2529.10728	0.03092
2527.82151	0.03053
2526.53574	0.03011
2525.24998	0.02986
2523.96421	0.02995
2522.67844	0.03028
2521.39267	0.03063
2520.10690	0.03082
2518.82113	0.03087
2517.53536	0.03088
2516.24959	0.03093
2514.96383	0.03097
2513.67806	0.03090
2512.39229	0.03073
2511.10652	0.03054
2509.82075	0.03044
2508.53498	0.03041
2507.24921	0.03036
2505.96344	0.03024
2504.67767	0.03012
2503.39191	0.03018
2502.10614	0.03043
2500.82037	0.03070
2499.53460	0.03081
2498.24883	0.03072
2496.96306	0.03058
2495.67729	0.03050
2494.39152	0.03044
2493.10576	0.03025
2491.81999	0.02996
2490.53422	0.02968
2489.24845	0.02950
2487.96268	0.02938
2486.67691	0.02937
2485.39114	0.02956
2484.10537	0.02989
2482.81960	0.03010
2481.53384	0.03006
2480.24807	0.02986
2478.96230	0.02965
2477.67653	0.02950
2476.39076	0.02945
2475.10499	0.02951
2473.81922	0.02967
2472.53345	0.02983
2471.24769	0.02989
2469.96192	0.02981
2468.67615	0.02964
2467.39038	0.02945
2466.10461	0.02935
2464.81884	0.02943
2463.53307	0.02965
2462.24730	0.02993
2460.96153	0.03019
2459.67577	0.03049
2458.39000	0.03082
2457.10423	0.03099
2455.81846	0.03080
2454.53269	0.03021
2453.24692	0.02944
2451.96115	0.02879
2450.67538	0.02850
2449.38962	0.02855
2448.10385	0.02881
2446.81808	0.02914
2445.53231	0.02952
2444.24654	0.02992
2442.96077	0.03016
2441.67500	0.03003
2440.38923	0.02954
2439.10346	0.02893
2437.81770	0.02847
2436.53193	0.02838
2435.24616	0.02863
2433.96039	0.02904
2432.67462	0.02931
2431.38885	0.02936
2430.10308	0.02925
2428.81731	0.02910
2427.53155	0.02893
2426.24578	0.02872
2424.96001	0.02849
2423.67424	0.02830
2422.38847	0.02817
2421.10270	0.02808
2419.81693	0.02804
2418.53116	0.02818
2417.24539	0.02850
2415.95963	0.02883
2414.67386	0.02894
2413.38809	0.02874
2412.10232	0.02844
2410.81655	0.02825
2409.53078	0.02822
2408.24501	0.02820
2406.95924	0.02809
2405.67347	0.02791
2404.38771	0.02778
2403.10194	0.02765
2401.81617	0.02742
2400.53040	0.02714
2399.24463	0.02712
2397.95886	0.02743
2396.67309	0.02787
2395.38732	0.02812
2394.10156	0.02808
2392.81579	0.02788
2391.53002	0.02769
2390.24425	0.02754
2388.95848	0.02744
2387.67271	0.02742
2386.38694	0.02750
2385.10117	0.02767
2383.81540	0.02787
2382.52964	0.02816
2381.24387	0.02837
2379.95810	0.02869
2378.67233	0.02852
2377.38656	0.02845
2376.10079	0.02928
2374.81502	0.03061
2373.52925	0.02926
2372.24349	0.02754
2370.95772	0.02685
2369.67195	0.02664
2368.38618	0.02654
2367.10041	0.02649
2365.81464	0.02660
2364.52887	0.02675
2363.24310	0.02682
2361.95733	0.02679
2360.67157	0.02658
2359.38580	0.02635
2358.10003	0.02639
2356.81426	0.02677
2355.52849	0.02758
2354.24272	0.02945
2352.95695	0.03191
2351.67118	0.03129
2350.38542	0.02945
2349.09965	0.02899
2347.81388	0.02898
2346.52811	0.02826
2345.24234	0.02784
2343.95657	0.02950
2342.67080	0.03290
2341.38503	0.03140
2340.09926	0.02849
2338.81350	0.02850
2337.52773	0.03015
2336.24196	0.02909
2334.95619	0.02809
2333.67042	0.03018
2332.38465	0.03379
2331.09888	0.03047
2329.81311	0.02881
2328.52735	0.02981
2327.24158	0.02914
2325.95581	0.02880
2324.67004	0.02941
2323.38427	0.03043
2322.09850	0.02971
2320.81273	0.02911
2319.52696	0.02865
2318.24119	0.02840
2316.95543	0.02836
2315.66966	0.02837
2314.38389	0.02862
2313.09812	0.02861
2311.81235	0.02819
2310.52658	0.02795
2309.24081	0.02769
2307.95504	0.02727
2306.66928	0.02698
2305.38351	0.02663
2304.09774	0.02643
2302.81197	0.02637
2301.52620	0.02622
2300.24043	0.02611
2298.95466	0.02619
2297.66889	0.02649
2296.38312	0.02677
2295.09736	0.02682
2293.81159	0.02657
2292.52582	0.02613
2291.24005	0.02585
2289.95428	0.02590
2288.66851	0.02624
2287.38274	0.02672
2286.09697	0.02704
2284.81121	0.02695
2283.52544	0.02641
2282.23967	0.02570
2280.95390	0.02521
2279.66813	0.02513
2278.38236	0.02533
2277.09659	0.02547
2275.81082	0.02528
2274.52505	0.02485
2273.23929	0.02443
2271.95352	0.02417
2270.66775	0.02404
2269.38198	0.02405
2268.09621	0.02414
2266.81044	0.02432
2265.52467	0.02452
2264.23890	0.02472
2262.95314	0.02468
2261.66737	0.02419
2260.38160	0.02340
2259.09583	0.02267
2257.81006	0.02227
2256.52429	0.02218
2255.23852	0.02220
2253.95275	0.02211
2252.66698	0.02187
2251.38122	0.02155
2250.09545	0.02116
2248.80968	0.02074
2247.52391	0.02037
2246.23814	0.02047
2244.95237	0.02100
2243.66660	0.02136
2242.38083	0.02094
2241.09507	0.01983
2239.80930	0.01887
2238.52353	0.01888
2237.23776	0.01995
2235.95199	0.02143
2234.66622	0.02254
2233.38045	0.02289
2232.09468	0.02245
2230.80891	0.02141
2229.52315	0.02025
2228.23738	0.01956
2226.95161	0.01962
2225.66584	0.02012
2224.38007	0.02058
2223.09430	0.02088
2221.80853	0.02114
2220.52276	0.02143
2219.23700	0.02154
2217.95123	0.02129
2216.66546	0.02071
2215.37969	0.01994
2214.09392	0.01896
2212.80815	0.01769
2211.52238	0.01637
2210.23661	0.01556
2208.95084	0.01570
2207.66508	0.01663
2206.37931	0.01775
2205.09354	0.01848
2203.80777	0.01859
2202.52200	0.01826
2201.23623	0.01798
2199.95046	0.01819
2198.66469	0.01867
2197.37893	0.01881
2196.09316	0.01831
2194.80739	0.01756
2193.52162	0.01690
2192.23585	0.01619
2190.95008	0.01525
2189.66431	0.01443
2188.37854	0.01424
2187.09277	0.01460
2185.80701	0.01487
2184.52124	0.01443
2183.23547	0.01327
2181.94970	0.01191
2180.66393	0.01103
2179.37816	0.01104
2178.09239	0.01168
2176.80662	0.01225
2175.52085	0.01231
2174.23509	0.01199
2172.94932	0.01165
2171.66355	0.01130
2170.37778	0.01079
2169.09201	0.01018
2167.80624	0.00977
2166.52047	0.00973
2165.23470	0.01007
2163.94894	0.01068
2162.66317	0.01114
2161.37740	0.01073
2160.09163	0.00913
2158.80586	0.00715
2157.52009	0.00609
2156.23432	0.00637
2154.94855	0.00734
2153.66278	0.00832
2152.37702	0.00912
2151.09125	0.00979
2149.80548	0.01036
2148.51971	0.01093
2147.23394	0.01166
2145.94817	0.01247
2144.66240	0.01306
2143.37663	0.01319
2142.09087	0.01294
2140.80510	0.01259
2139.51933	0.01241
2138.23356	0.01264
2136.94779	0.01327
2135.66202	0.01406
2134.37625	0.01460
2133.09048	0.01462
2131.80471	0.01424
2130.51895	0.01384
2129.23318	0.01380
2127.94741	0.01423
2126.66164	0.01503
2125.37587	0.01601
2124.09010	0.01694
2122.80433	0.01756
2121.51856	0.01777
2120.23280	0.01769
2118.94703	0.01751
2117.66126	0.01732
2116.37549	0.01711
2115.08972	0.01686
2113.80395	0.01656
2112.51818	0.01625
2111.23241	0.01603
2109.94664	0.01585
2108.66088	0.01552
2107.37511	0.01496
2106.08934	0.01448
2104.80357	0.01448
2103.51780	0.01500
2102.23203	0.01564
2100.94626	0.01595
2099.66049	0.01545
2098.37473	0.01486
2097.08896	0.01438
2095.80319	0.01402
2094.51742	0.01393
2093.23165	0.01426
2091.94588	0.01503
2090.66011	0.01595
2089.37434	0.01665
2088.08857	0.01686
2086.80281	0.01655
2085.51704	0.01592
2084.23127	0.01524
2082.94550	0.01469
2081.65973	0.01429
2080.37396	0.01397
2079.08819	0.01371
2077.80242	0.01351
2076.51666	0.01338
2075.23089	0.01328
2073.94512	0.01319
2072.65935	0.01304
2071.37358	0.01273
2070.08781	0.01224
2068.80204	0.01168
2067.51627	0.01114
2066.23050	0.01065
2064.94474	0.01026
2063.65897	0.01010
2062.37320	0.01024
2061.08743	0.01064
2059.80166	0.01114
2058.51589	0.01164
2057.23012	0.01208
2055.94435	0.01244
2054.65859	0.01262
2053.37282	0.01250
2052.08705	0.01193
2050.80128	0.01087
2049.51551	0.00943
2048.22974	0.00790
2046.94397	0.00660
2045.65820	0.00572
2044.37243	0.00531
2043.08667	0.00533
2041.80090	0.00567
2040.51513	0.00609
2039.22936	0.00637
2037.94359	0.00650
2036.65782	0.00663
2035.37205	0.00687
2034.08628	0.00701
2032.80052	0.00679
2031.51475	0.00624
2030.22898	0.00586
2028.94321	0.00619
2027.65744	0.00716
2026.37167	0.00794
2025.08590	0.00778
2023.80013	0.00693
2022.51436	0.00635
2021.22860	0.00648
2019.94283	0.00671
2018.65706	0.00640
2017.37129	0.00586
2016.08552	0.00586
2014.79975	0.00655
2013.51398	0.00712
2012.22821	0.00675
2010.94245	0.00549
2009.65668	0.00418
2008.37091	0.00361
2007.08514	0.00405
2005.79937	0.00530
2004.51360	0.00708
2003.22783	0.00915
2001.94206	0.01119
2000.65629	0.01277
1999.37053	0.01363
1998.08476	0.01391
1996.79899	0.01388
1995.51322	0.01368
1994.22745	0.01320
1992.94168	0.01248
1991.65591	0.01180
1990.37014	0.01159
1989.08438	0.01194
1987.79861	0.01248
1986.51284	0.01260
1985.22707	0.01212
1983.94130	0.01142
1982.65553	0.01083
1981.36976	0.01028
1980.08399	0.00950
1978.79822	0.00853
1977.51246	0.00777
1976.22669	0.00742
1974.94092	0.00723
1973.65515	0.00690
1972.36938	0.00652
1971.08361	0.00659
1969.79784	0.00746
1968.51207	0.00883
1967.22631	0.00990
1965.94054	0.01009
1964.65477	0.00963
1963.36900	0.00919
1962.08323	0.00927
1960.79746	0.00978
1959.51169	0.01035
1958.22592	0.01074
1956.94015	0.01093
1955.65439	0.01106
1954.36862	0.01124
1953.08285	0.01150
1951.79708	0.01176
1950.51131	0.01190
1949.22554	0.01196
1947.93977	0.01207
1946.65400	0.01237
1945.36823	0.01277
1944.08247	0.01304
1942.79670	0.01304
1941.51093	0.01291
1940.22516	0.01289
1938.93939	0.01302
1937.65362	0.01314
1936.36785	0.01319
1935.08208	0.01328
1933.79632	0.01352
1932.51055	0.01380
1931.22478	0.01397
1929.93901	0.01400
1928.65324	0.01395
1927.36747	0.01389
1926.08170	0.01389
1924.79593	0.01404
1923.51016	0.01430
1922.22440	0.01452
1920.93863	0.01459
1919.65286	0.01459
1918.36709	0.01461
1917.08132	0.01467
1915.79555	0.01475
1914.50978	0.01486
1913.22401	0.01503
1911.93825	0.01525
1910.65248	0.01547
1909.36671	0.01560
1908.08094	0.01557
1906.79517	0.01537
1905.50940	0.01513
1904.22363	0.01505
1902.93786	0.01520
1901.65209	0.01547
1900.36633	0.01559
1899.08056	0.01546
1897.79479	0.01515
1896.50902	0.01486
1895.22325	0.01471
1893.93748	0.01471
1892.65171	0.01479
1891.36594	0.01490
1890.08018	0.01500
1888.79441	0.01504
1887.50864	0.01502
1886.22287	0.01501
1884.93710	0.01502
1883.65133	0.01499
1882.36556	0.01487
1881.07979	0.01474
1879.79402	0.01478
1878.50826	0.01502
1877.22249	0.01532
1875.93672	0.01549
1874.65095	0.01549
1873.36518	0.01541
1872.07941	0.01536
1870.79364	0.01538
1869.50787	0.01542
1868.22211	0.01547
1866.93634	0.01550
1865.65057	0.01552
1864.36480	0.01553
1863.07903	0.01555
1861.79326	0.01568
1860.50749	0.01592
1859.22172	0.01620
1857.93595	0.01634
1856.65019	0.01624
1855.36442	0.01594
1854.07865	0.01559
1852.79288	0.01535
1851.50711	0.01533
1850.22134	0.01549
1848.93557	0.01569
1847.64980	0.01578
1846.36404	0.01573
1845.07827	0.01559
1843.79250	0.01543
1842.50673	0.01533
1841.22096	0.01533
1839.93519	0.01543
1838.64942	0.01551
1837.36365	0.01553
1836.07788	0.01548
1834.79212	0.01545
1833.50635	0.01550
1832.22058	0.01562
1830.93481	0.01570
1829.64904	0.01567
1828.36327	0.01560
1827.07750	0.01559
1825.79173	0.01569
1824.50597	0.01578
1823.22020	0.01576
1821.93443	0.01563
1820.64866	0.01547
1819.36289	0.01534
1818.07712	0.01530
1816.79135	0.01539
1815.50558	0.01561
1814.21981	0.01590
1812.93405	0.01611
1811.64828	0.01615
1810.36251	0.01605
1809.07674	0.01594
1807.79097	0.01591
1806.50520	0.01596
1805.21943	0.01601
1803.93366	0.01598
1802.64790	0.01590
1801.36213	0.01586
1800.07636	0.01587
1798.79059	0.01589
1797.50482	0.01587
1796.21905	0.01581
1794.93328	0.01582
1793.64751	0.01592
1792.36174	0.01604
1791.07598	0.01611
1789.79021	0.01615
1788.50444	0.01615
1787.21867	0.01611
1785.93290	0.01603
1784.64713	0.01597
1783.36136	0.01597
1782.07559	0.01602
1780.78983	0.01607
1779.50406	0.01608
1778.21829	0.01607
1776.93252	0.01611
1775.64675	0.01619
1774.36098	0.01632
1773.07521	0.01643
1771.78944	0.01649
1770.50367	0.01652
1769.21791	0.01658
1767.93214	0.01666
1766.64637	0.01675
1765.36060	0.01682
1764.07483	0.01692
1762.78906	0.01702
1761.50329	0.01707
1760.21752	0.01702
1758.93176	0.01689
1757.64599	0.01675
1756.36022	0.01664
1755.07445	0.01660
1753.78868	0.01662
1752.50291	0.01665
1751.21714	0.01665
1749.93137	0.01658
1748.64560	0.01653
1747.35984	0.01653
1746.07407	0.01659
1744.78830	0.01670
1743.50253	0.01683
1742.21676	0.01696
1740.93099	0.01705
1739.64522	0.01706
1738.35945	0.01697
1737.07369	0.01686
1735.78792	0.01684
1734.50215	0.01691
1733.21638	0.01699
1731.93061	0.01707
1730.64484	0.01719
1729.35907	0.01733
1728.07330	0.01745
1726.78753	0.01754
1725.50177	0.01762
1724.21600	0.01767
1722.93023	0.01772
1721.64446	0.01778
1720.35869	0.01792
1719.07292	0.01816
1717.78715	0.01844
1716.50138	0.01872
1715.21561	0.01902
1713.92985	0.01939
1712.64408	0.01979
1711.35831	0.02017
1710.07254	0.02055
1708.78677	0.02097
1707.50100	0.02149
1706.21523	0.02208
1704.92946	0.02265
1703.64370	0.02322
1702.35793	0.02391
1701.07216	0.02471
1699.78639	0.02549
1698.50062	0.02628
1697.21485	0.02721
1695.92908	0.02828
1694.64331	0.02932
1693.35754	0.03029
1692.07178	0.03122
1690.78601	0.03207
1689.50024	0.03280
1688.21447	0.03350
1686.92870	0.03429
1685.64293	0.03523
1684.35716	0.03619
1683.07139	0.03710
1681.78563	0.03802
1680.49986	0.03897
1679.21409	0.03991
1677.92832	0.04083
1676.64255	0.04176
1675.35678	0.04269
1674.07101	0.04355
1672.78524	0.04441
1671.49947	0.04536
1670.21371	0.04636
1668.92794	0.04732
1667.64217	0.04818
1666.35640	0.04902
1665.07063	0.04989
1663.78486	0.05079
1662.49909	0.05164
1661.21332	0.05240
1659.92756	0.05308
1658.64179	0.05369
1657.35602	0.05422
1656.07025	0.05472
1654.78448	0.05524
1653.49871	0.05572
1652.21294	0.05605
1650.92717	0.05627
1649.64140	0.05657
1648.35564	0.05701
1647.06987	0.05748
1645.78410	0.05785
1644.49833	0.05806
1643.21256	0.05814
1641.92679	0.05811
1640.64102	0.05799
1639.35525	0.05781
1638.06949	0.05757
1636.78372	0.05729
1635.49795	0.05689
1634.21218	0.05641
1632.92641	0.05593
1631.64064	0.05552
1630.35487	0.05512
1629.06910	0.05464
1627.78333	0.05403
1626.49757	0.05335
1625.21180	0.05268
1623.92603	0.05203
1622.64026	0.05134
1621.35449	0.05057
1620.06872	0.04977
1618.78295	0.04903
1617.49718	0.04837
1616.21142	0.04773
1614.92565	0.04712
1613.63988	0.04661
1612.35411	0.04619
1611.06834	0.04579
1609.78257	0.04534
1608.49680	0.04487
1607.21103	0.04445
1605.92526	0.04412
1604.63950	0.04389
1603.35373	0.04370
1602.06796	0.04352
1600.78219	0.04336
1599.49642	0.04322
1598.21065	0.04314
1596.92488	0.04311
1595.63911	0.04313
1594.35335	0.04319
1593.06758	0.04327
1591.78181	0.04336
1590.49604	0.04348
1589.21027	0.04361
1587.92450	0.04377
1586.63873	0.04394
1585.35296	0.04411
1584.06719	0.04430
1582.78143	0.04452
1581.49566	0.04477
1580.20989	0.04505
1578.92412	0.04534
1577.63835	0.04564
1576.35258	0.04592
1575.06681	0.04615
1573.78104	0.04642
1572.49528	0.04679
1571.20951	0.04723
1569.92374	0.04764
1568.63797	0.04797
1567.35220	0.04828
1566.06643	0.04861
1564.78066	0.04890
1563.49489	0.04911
1562.20912	0.04933
1560.92336	0.04966
1559.63759	0.05007
1558.35182	0.05043
1557.06605	0.05070
1555.78028	0.05098
1554.49451	0.05131
1553.20874	0.05166
1551.92297	0.05197
1550.63721	0.05223
1549.35144	0.05238
1548.06567	0.05242
1546.77990	0.05241
1545.49413	0.05237
1544.20836	0.05233
1542.92259	0.05230
1541.63682	0.05233
1540.35105	0.05239
1539.06529	0.05240
1537.77952	0.05237
1536.49375	0.05237
1535.20798	0.05246
1533.92221	0.05258
1532.63644	0.05266
1531.35067	0.05274
1530.06490	0.05289
1528.77914	0.05313
1527.49337	0.05344
1526.20760	0.05378
1524.92183	0.05413
1523.63606	0.05453
1522.35029	0.05497
1521.06452	0.05538
1519.77875	0.05575
1518.49298	0.05618
1517.20722	0.05669
1515.92145	0.05724
1514.63568	0.05779
1513.34991	0.05836
1512.06414	0.05894
1510.77837	0.05952
1509.49260	0.06015
1508.20683	0.06087
1506.92107	0.06162
1505.63530	0.06229
1504.34953	0.06289
1503.06376	0.06347
1501.77799	0.06404
1500.49222	0.06454
1499.20645	0.06492
1497.92068	0.06525
1496.63491	0.06556
1495.34915	0.06587
1494.06338	0.06620
1492.77761	0.06658
1491.49184	0.06700
1490.20607	0.06743
1488.92030	0.06789
1487.63453	0.06844
1486.34876	0.06910
1485.06299	0.06987
1483.77723	0.07068
1482.49146	0.07149
1481.20569	0.07230
1479.91992	0.07313
1478.63415	0.07400
1477.34838	0.07487
1476.06261	0.07569
1474.77684	0.07646
1473.49108	0.07718
1472.20531	0.07784
1470.91954	0.07841
1469.63377	0.07886
1468.34800	0.07921
1467.06223	0.07949
1465.77646	0.07971
1464.49069	0.07987
1463.20492	0.08000
1461.91916	0.08016
1460.63339	0.08042
1459.34762	0.08084
1458.06185	0.08140
1456.77608	0.08199
1455.49031	0.08256
1454.20454	0.08317
1452.91877	0.08385
1451.63301	0.08450
1450.34724	0.08500
1449.06147	0.08534
1447.77570	0.08553
1446.48993	0.08560
1445.20416	0.08557
1443.91839	0.08544
1442.63262	0.08524
1441.34685	0.08498
1440.06109	0.08471
1438.77532	0.08449
1437.48955	0.08433
1436.20378	0.08423
1434.91801	0.08422
1433.63224	0.08438
1432.34647	0.08477
1431.06070	0.08536
1429.77494	0.08611
1428.48917	0.08696
1427.20340	0.08786
1425.91763	0.08881
1424.63186	0.08980
1423.34609	0.09081
1422.06032	0.09183
1420.77455	0.09286
1419.48878	0.09387
1418.20302	0.09478
1416.91725	0.09556
1415.63148	0.09621
1414.34571	0.09672
1413.05994	0.09712
1411.77417	0.09742
1410.48840	0.09760
1409.20263	0.09761
1407.91687	0.09742
1406.63110	0.09707
1405.34533	0.09657
1404.05956	0.09596
1402.77379	0.09523
1401.48802	0.09436
1400.20225	0.09331
1398.91648	0.09208
1397.63071	0.09076
1396.34495	0.08945
1395.05918	0.08821
1393.77341	0.08696
1392.48764	0.08564
1391.20187	0.08423
1389.91610	0.08277
1388.63033	0.08132
1387.34456	0.07990
1386.05880	0.07852
1384.77303	0.07717
1383.48726	0.07580
1382.20149	0.07437
1380.91572	0.07285
1379.62995	0.07124
1378.34418	0.06956
1377.05841	0.06786
1375.77264	0.06618
1374.48688	0.06458
1373.20111	0.06303
1371.91534	0.06151
1370.62957	0.05997
1369.34380	0.05840
1368.05803	0.05683
1366.77226	0.05533
1365.48649	0.05393
1364.20073	0.05264
1362.91496	0.05141
1361.62919	0.05023
1360.34342	0.04910
1359.05765	0.04807
1357.77188	0.04716
1356.48611	0.04634
1355.20034	0.04558
1353.91457	0.04488
1352.62881	0.04421
1351.34304	0.04356
1350.05727	0.04291
1348.77150	0.04228
1347.48573	0.04169
1346.19996	0.04118
1344.91419	0.04071
1343.62842	0.04026
1342.34266	0.03981
1341.05689	0.03939
1339.77112	0.03900
1338.48535	0.03864
1337.19958	0.03828
1335.91381	0.03789
1334.62804	0.03746
1333.34227	0.03702
1332.05650	0.03661
1330.77074	0.03625
1329.48497	0.03594
1328.19920	0.03566
1326.91343	0.03540
1325.62766	0.03512
1324.34189	0.03482
1323.05612	0.03449
1321.77035	0.03417
1320.48459	0.03385
1319.19882	0.03353
1317.91305	0.03320
1316.62728	0.03285
1315.34151	0.03249
1314.05574	0.03216
1312.76997	0.03188
1311.48420	0.03163
1310.19843	0.03140
1308.91267	0.03116
1307.62690	0.03091
1306.34113	0.03065
1305.05536	0.03040
1303.76959	0.03015
1302.48382	0.02991
1301.19805	0.02967
1299.91228	0.02943
1298.62652	0.02916
1297.34075	0.02890
1296.05498	0.02866
1294.76921	0.02847
1293.48344	0.02833
1292.19767	0.02822
1290.91190	0.02811
1289.62613	0.02801
1288.34036	0.02790
1287.05460	0.02779
1285.76883	0.02767
1284.48306	0.02756
1283.19729	0.02747
1281.91152	0.02739
1280.62575	0.02732
1279.33998	0.02725
1278.05421	0.02720
1276.76845	0.02716
1275.48268	0.02711
1274.19691	0.02702
1272.91114	0.02688
1271.62537	0.02672
1270.33960	0.02656
1269.05383	0.02644
1267.76806	0.02635
1266.48229	0.02628
1265.19653	0.02621
1263.91076	0.02615
1262.62499	0.02609
1261.33922	0.02603
1260.05345	0.02599
1258.76768	0.02598
1257.48191	0.02599
1256.19614	0.02602
1254.91037	0.02606
1253.62461	0.02611
1252.33884	0.02614
1251.05307	0.02614
1249.76730	0.02610
1248.48153	0.02606
1247.19576	0.02603
1245.90999	0.02602
1244.62422	0.02599
1243.33846	0.02595
1242.05269	0.02590
1240.76692	0.02586
1239.48115	0.02579
1238.19538	0.02568
1236.90961	0.02550
1235.62384	0.02528
1234.33807	0.02507
1233.05230	0.02491
1231.76654	0.02476
1230.48077	0.02458
1229.19500	0.02434
1227.90923	0.02404
1226.62346	0.02373
1225.33769	0.02346
1224.05192	0.02324
1222.76615	0.02304
1221.48039	0.02285
1220.19462	0.02266
1218.90885	0.02245
1217.62308	0.02222
1216.33731	0.02198
1215.05154	0.02178
1213.76577	0.02165
1212.48000	0.02156
1211.19423	0.02148
1209.90847	0.02139
1208.62270	0.02133
1207.33693	0.02130
1206.05116	0.02128
1204.76539	0.02124
1203.47962	0.02116
1202.19385	0.02110
1200.90808	0.02109
1199.62232	0.02112
1198.33655	0.02105
1197.05078	0.02092
1195.76501	0.02074
1194.47924	0.02056
1193.19347	0.02042
1191.90770	0.02031
1190.62193	0.02018
1189.33616	0.01998
1188.05040	0.01971
1186.76463	0.01946
1185.47886	0.01931
1184.19309	0.01930
1182.90732	0.01932
1181.62155	0.01928
1180.33578	0.01917
1179.05001	0.01905
1177.76425	0.01899
1176.47848	0.01899
1175.19271	0.01900
1173.90694	0.01899
1172.62117	0.01898
1171.33540	0.01896
1170.04963	0.01892
1168.76386	0.01890
1167.47809	0.01891
1166.19233	0.01895
1164.90656	0.01899
1163.62079	0.01902
1162.33502	0.01910
1161.04925	0.01921
1159.76348	0.01932
1158.47771	0.01940
1157.19194	0.01948
1155.90618	0.01958
1154.62041	0.01969
1153.33464	0.01976
1152.04887	0.01982
1150.76310	0.01991
1149.47733	0.02005
1148.19156	0.02025
1146.90579	0.02057
1145.62002	0.02104
1144.33426	0.02163
1143.04849	0.02223
1141.76272	0.02276
1140.47695	0.02326
1139.19118	0.02386
1137.90541	0.02464
1136.61964	0.02555
1135.33387	0.02652
1134.04811	0.02758
1132.76234	0.02879
1131.47657	0.03019
1130.19080	0.03177
1128.90503	0.03348
1127.61926	0.03531
1126.33349	0.03729
1125.04772	0.03945
1123.76195	0.04181
1122.47619	0.04433
1121.19042	0.04697
1119.90465	0.04967
1118.61888	0.05235
1117.33311	0.05499
1116.04734	0.05758
1114.76157	0.06021
1113.47580	0.06292
1112.19004	0.06569
1110.90427	0.06846
1109.61850	0.07118
1108.33273	0.07383
1107.04696	0.07638
1105.76119	0.07881
1104.47542	0.08115
1103.18965	0.08348
1101.90388	0.08586
1100.61812	0.08827
1099.33235	0.09061
1098.04658	0.09282
1096.76081	0.09487
1095.47504	0.09680
1094.18927	0.09863
1092.90350	0.10038
1091.61773	0.10203
1090.33197	0.10358
1089.04620	0.10503
1087.76043	0.10643
1086.47466	0.10782
1085.18889	0.10925
1083.90312	0.11077
1082.61735	0.11238
1081.33158	0.11408
1080.04581	0.11586
1078.76005	0.11773
1077.47428	0.11973
1076.18851	0.12190
1074.90274	0.12423
1073.61697	0.12671
1072.33120	0.12930
1071.04543	0.13193
1069.75966	0.13451
1068.47390	0.13701
1067.18813	0.13949
1065.90236	0.14206
1064.61659	0.14474
1063.33082	0.14744
1062.04505	0.15012
1060.75928	0.15277
1059.47351	0.15540
1058.18774	0.15799
1056.90198	0.16051
1055.61621	0.16296
1054.33044	0.16538
1053.04467	0.16781
1051.75890	0.17027
1050.47313	0.17278
1049.18736	0.17531
1047.90159	0.17788
1046.61583	0.18051
1045.33006	0.18321
1044.04429	0.18599
1042.75852	0.18881
1041.47275	0.19164
1040.18698	0.19445
1038.90121	0.19722
1037.61544	0.19995
1036.32967	0.20264
1035.04391	0.20530
1033.75814	0.20790
1032.47237	0.21042
1031.18660	0.21278
1029.90083	0.21492
1028.61506	0.21680
1027.32929	0.21839
1026.04352	0.21973
1024.75775	0.22086
1023.47199	0.22178
1022.18622	0.22241
1020.90045	0.22271
1019.61468	0.22266
1018.32891	0.22234
1017.04314	0.22178
1015.75737	0.22093
1014.47160	0.21973
1013.18584	0.21815
1011.90007	0.21621
1010.61430	0.21393
1009.32853	0.21125
1008.04276	0.20814
1006.75699	0.20460
1005.47122	0.20068
1004.18545	0.19645
1002.89968	0.19198
1001.61392	0.18732
1000.32815	0.18256
999.04238	0.17771
997.75661	0.17276
996.47084	0.16768
995.18507	0.16246
993.89930	0.15717
992.61353	0.15192
991.32777	0.14682
990.04200	0.14193
988.75623	0.13720
987.47046	0.13256
986.18469	0.12798
984.89892	0.12355
983.61315	0.11937
982.32738	0.11549
981.04161	0.11186
979.75585	0.10845
978.47008	0.10521
977.18431	0.10215
975.89854	0.09931
974.61277	0.09680
973.32700	0.09470
972.04123	0.09299
970.75546	0.09164
969.46970	0.09066
968.18393	0.09010
966.89816	0.08996
965.61239	0.09017
964.32662	0.09059
963.04085	0.09108
961.75508	0.09148
960.46931	0.09164
959.18354	0.09138
957.89778	0.09058
956.61201	0.08929
955.32624	0.08766
954.04047	0.08588
952.75470	0.08404
951.46893	0.08218
950.18316	0.08032
948.89739	0.07849
947.61163	0.07671
946.32586	0.07501
945.04009	0.07339
943.75432	0.07178
942.46855	0.07014
941.18278	0.06850
939.89701	0.06695
938.61124	0.06553
937.32547	0.06425
936.03971	0.06302
934.75394	0.06182
933.46817	0.06062
932.18240	0.05946
930.89663	0.05839
929.61086	0.05747
928.32509	0.05666
927.03932	0.05592
925.75356	0.05520
924.46779	0.05449
923.18202	0.05379
921.89625	0.05312
920.61048	0.05250
919.32471	0.05192
918.03894	0.05136
916.75317	0.05074
915.46740	0.05006
914.18164	0.04934
912.89587	0.04864
911.61010	0.04805
910.32433	0.04761
909.03856	0.04728
907.75279	0.04699
906.46702	0.04664
905.18125	0.04621
903.89549	0.04573
902.60972	0.04525
901.32395	0.04480
900.03818	0.04440
898.75241	0.04408
897.46664	0.04380
896.18087	0.04354
894.89510	0.04324
893.60933	0.04291
892.32357	0.04255
891.03780	0.04222
889.75203	0.04200
888.46626	0.04198
887.18049	0.04228
885.89472	0.04303
884.60895	0.04440
883.32318	0.04646
882.03742	0.04900
880.75165	0.05153
879.46588	0.05358
878.18011	0.05504
876.89434	0.05615
875.60857	0.05729
874.32280	0.05857
873.03703	0.05983
871.75126	0.06077
870.46550	0.06114
869.17973	0.06085
867.89396	0.05989
866.60819	0.05837
865.32242	0.05646
864.03665	0.05437
862.75088	0.05229
861.46511	0.05034
860.17935	0.04861
858.89358	0.04717
857.60781	0.04604
856.32204	0.04514
855.03627	0.04435
853.75050	0.04361
852.46473	0.04294
851.17896	0.04235
849.89319	0.04184
848.60743	0.04141
847.32166	0.04112
846.03589	0.04094
844.75012	0.04079
843.46435	0.04055
842.17858	0.04017
840.89281	0.03974
839.60704	0.03935
838.32128	0.03904
837.03551	0.03875
835.74974	0.03845
834.46397	0.03815
833.17820	0.03788
831.89243	0.03766
830.60666	0.03748
829.32089	0.03729
828.03512	0.03712
826.74936	0.03702
825.46359	0.03699
824.17782	0.03699
822.89205	0.03692
821.60628	0.03679
820.32051	0.03663
819.03474	0.03654
817.74897	0.03655
816.46321	0.03660
815.17744	0.03657
813.89167	0.03638
812.60590	0.03611
811.32013	0.03589
810.03436	0.03577
808.74859	0.03570
807.46282	0.03566
806.17705	0.03563
804.89129	0.03565
803.60552	0.03566
802.31975	0.03564
801.03398	0.03559
799.74821	0.03554
798.46244	0.03552
797.17667	0.03553
795.89090	0.03553
794.60513	0.03550
793.31937	0.03542
792.03360	0.03530
790.74783	0.03519
789.46206	0.03511
788.17629	0.03509
786.89052	0.03510
785.60475	0.03511
784.31898	0.03508
783.03322	0.03503
781.74745	0.03500
780.46168	0.03502
779.17591	0.03507
777.89014	0.03507
776.60437	0.03499
775.31860	0.03488
774.03283	0.03479
772.74706	0.03475
771.46130	0.03471
770.17553	0.03463
768.88976	0.03450
767.60399	0.03431
766.31822	0.03413
765.03245	0.03401
763.74668	0.03402
762.46091	0.03415
761.17515	0.03427
759.88938	0.03430
758.60361	0.03422
757.31784	0.03410
756.03207	0.03402
754.74630	0.03403
753.46053	0.03415
752.17476	0.03430
750.88899	0.03438
749.60323	0.03432
748.31746	0.03416
747.03169	0.03403
745.74592	0.03403
744.46015	0.03419
743.17438	0.03443
741.88861	0.03459
740.60284	0.03456
739.31708	0.03437
738.03131	0.03412
736.74554	0.03390
735.45977	0.03372
734.17400	0.03360
732.88823	0.03359
731.60246	0.03369
730.31669	0.03383
729.03092	0.03395
727.74516	0.03404
726.45939	0.03413
725.17362	0.03419
723.88785	0.03417
722.60208	0.03411
721.31631	0.03406
720.03054	0.03408
718.74477	0.03419
717.45901	0.03434
716.17324	0.03445
714.88747	0.03444
713.60170	0.03435
712.31593	0.03425
711.03016	0.03419
709.74439	0.03419
708.45862	0.03420
707.17285	0.03418
705.88709	0.03413
704.60132	0.03408
703.31555	0.03406
702.02978	0.03404
700.74401	0.03405
699.45824	0.03407
698.17247	0.03413
696.88670	0.03421
695.60094	0.03424
694.31517	0.03426
693.02940	0.03426
691.74363	0.03425
690.45786	0.03423
689.17209	0.03412
687.88632	0.03407
686.60055	0.03410
685.31478	0.03419
684.02902	0.03427
682.74325	0.03413
681.45748	0.03396
680.17171	0.03384
678.88594	0.03381
677.60017	0.03385
676.31440	0.03377
675.02863	0.03369
673.74287	0.03365
672.45710	0.03365
671.17133	0.03371
669.88556	0.03377
668.59979	0.03384
667.31402	0.03398
666.02825	0.03394
664.74248	0.03382
663.45671	0.03368
662.17095	0.03353
660.88518	0.03337
659.59941	0.03319
658.31364	0.03297
657.02787	0.03278
655.74210	0.03264
654.45633	0.03256
653.17056	0.03255
651.88480	0.03262
650.59903	0.03261
649.31326	0.03249
648.02749	0.03230
646.74172	0.03210
645.45595	0.03197
644.17018	0.03197
642.88441	0.03208
641.59864	0.03221
640.31288	0.03237
639.02711	0.03254
637.74134	0.03271
636.45557	0.03286
635.16980	0.03306
633.88403	0.03332
632.59826	0.03362
631.31249	0.03387
630.02673	0.03383
628.74096	0.03361
627.45519	0.03419
626.16942	0.03423
624.88365	0.03420
623.59788	0.03480
622.31211	0.03620
621.02634	0.03828
619.74057	0.04091
618.45481	0.04392
617.16904	0.04707
615.88327	0.05008
614.59750	0.05288
613.31173	0.05577
612.02596	0.05932
610.74019	0.06384
609.45442	0.06899
608.16866	0.07399
606.88289	0.07831
605.59712	0.08198
604.31135	0.08504
603.02558	0.08717
601.73981	0.08786
600.45404	0.08700
599.16827	0.08513
597.88250	0.08292
596.59674	0.08080
595.31097	0.07891
594.02520	0.07727
592.73943	0.07592
591.45366	0.07487
590.16789	0.07408
588.88212	0.07361
587.59635	0.07358
586.31059	0.07412
585.02482	0.07520
583.73905	0.07675
582.45328	0.07864
581.16751	0.08076
579.88174	0.08303
578.59597	0.08533
577.31020	0.08759
576.02443	0.08976
574.73867	0.09183
573.45290	0.09387
572.16713	0.09597
570.88136	0.09826
569.59559	0.10086
568.30982	0.10388
567.02405	0.10726
565.73828	0.11067
564.45251	0.11365
563.16675	0.11580
561.88098	0.11686
560.59521	0.11667
559.30944	0.11516
558.02367	0.11244
556.73790	0.10881
555.45213	0.10465
554.16636	0.10019
552.88060	0.09559
551.59483	0.09096
550.30906	0.08647
549.02329	0.08228
547.73752	0.07851
546.45175	0.07520
545.16598	0.07236
543.88021	0.06990
542.59444	0.06769
541.30868	0.06564
540.02291	0.06375
538.73714	0.06204
537.45137	0.06049
536.16560	0.05901
534.87983	0.05754
533.59406	0.05605
532.30829	0.05454
531.02253	0.05310
529.73676	0.05181
528.45099	0.05073
527.16522	0.04992
525.87945	0.04935
524.59368	0.04887
523.30791	0.04832
522.02214	0.04759
520.73637	0.04672
519.45061	0.04582
518.16484	0.04498
516.87907	0.04423
515.59330	0.04351
514.30753	0.04276
513.02176	0.04200
511.73599	0.04131
510.45022	0.04077
509.16446	0.04039
507.87869	0.04010
506.59292	0.03983
505.30715	0.03950
504.02138	0.03908
502.73561	0.03858
501.44984	0.03805
500.16407	0.03757
498.87830	0.03717
497.59254	0.03684
496.30677	0.03651
495.02100	0.03613
493.73523	0.03568
492.44946	0.03520
491.16369	0.03476
489.87792	0.03440
488.59215	0.03415
487.30639	0.03400
486.02062	0.03394
484.73485	0.03388
483.44908	0.03377
482.16331	0.03363
480.87754	0.03353
479.59177	0.03355
478.30600	0.03366
477.02023	0.03379
475.73447	0.03389
474.44870	0.03400
473.16293	0.03415
471.87716	0.03436
470.59139	0.03457
469.30562	0.03464
468.01985	0.03452
466.73408	0.03422
465.44832	0.03383
464.16255	0.03341
462.87678	0.03297
461.59101	0.03255
460.30524	0.03216
459.01947	0.03181
457.73370	0.03142
456.44793	0.03094
455.16216	0.03042
453.87640	0.02995
452.59063	0.02958
451.30486	0.02931
450.01909	0.02912
448.73332	0.02895
447.44755	0.02878
446.16178	0.02860
444.87601	0.02842
443.59025	0.02824
442.30448	0.02803
441.01871	0.02781
439.73294	0.02760
438.44717	0.02743
437.16140	0.02732
435.87563	0.02720
434.58986	0.02707
433.30409	0.02690
432.01833	0.02673
430.73256	0.02659
429.44679	0.02647
428.16102	0.02634
426.87525	0.02615
425.58948	0.02590
424.30371	0.02565
423.01794	0.02541
421.73218	0.02517
420.44641	0.02492
419.16064	0.02465
417.87487	0.02439
416.58910	0.02421
415.30333	0.02409
414.01756	0.02398
412.73179	0.02384
411.44602	0.02368
410.16026	0.02354
408.87449	0.02342
407.58872	0.02332
406.30295	0.02321
405.01718	0.02313
403.73141	0.02309
402.44564	0.02313
401.15987	0.02322
399.87411	0.02331
