3997.45528	0.02521
3996.16951	0.02471
3994.88374	0.02372
3993.59798	0.02254
3992.31221	0.02198
3991.02644	0.02249
3989.74067	0.02386
3988.45490	0.02547
3987.16913	0.02675
3985.88336	0.02735
3984.59759	0.02719
3983.31183	0.02652
3982.02606	0.02586
3980.74029	0.02564
3979.45452	0.02591
3978.16875	0.02636
3976.88298	0.02666
3975.59721	0.02666
3974.31144	0.02643
3973.02567	0.02618
3971.73991	0.02615
3970.45414	0.02635
3969.16837	0.02654
3967.88260	0.02646
3966.59683	0.02604
3965.31106	0.02546
3964.02529	0.02485
3962.73952	0.02428
3961.45376	0.02382
3960.16799	0.02359
3958.88222	0.02360
3957.59645	0.02373
3956.31068	0.02383
3955.02491	0.02380
3953.73914	0.02374
3952.45337	0.02387
3951.16760	0.02430
3949.88184	0.02486
3948.59607	0.02519
3947.31030	0.02514
3946.02453	0.02483
3944.73876	0.02445
3943.45299	0.02400
3942.16722	0.02340
3940.88145	0.02265
3939.59569	0.02196
3938.30992	0.02163
3937.02415	0.02188
3935.73838	0.02267
3934.45261	0.02375
3933.16684	0.02476
3931.88107	0.02529
3930.59530	0.02525
3929.30953	0.02491
3928.02377	0.02470
3926.73800	0.02466
3925.45223	0.02458
3924.16646	0.02433
3922.88069	0.02396
3921.59492	0.02359
3920.30915	0.02325
3919.02338	0.02296
3917.73762	0.02277
3916.45185	0.02282
3915.16608	0.02307
3913.88031	0.02328
3912.59454	0.02323
3911.30877	0.02302
3910.02300	0.02302
3908.73723	0.02350
3907.45146	0.02428
3906.16570	0.02486
3904.87993	0.02495
3903.59416	0.02479
3902.30839	0.02477
3901.02262	0.02504
3899.73685	0.02539
3898.45108	0.02553
3897.16531	0.02533
3895.87955	0.02496
3894.59378	0.02474
3893.30801	0.02476
3892.02224	0.02494
3890.73647	0.02518
3889.45070	0.02523
3888.16493	0.02474
3886.87916	0.02387
3885.59339	0.02332
3884.30763	0.02344
3883.02186	0.02385
3881.73609	0.02409
3880.45032	0.02424
3879.16455	0.02448
3877.87878	0.02454
3876.59301	0.02411
3875.30724	0.02343
3874.02148	0.02306
3872.73571	0.02316
3871.44994	0.02344
3870.16417	0.02381
3868.87840	0.02426
3867.59263	0.02447
3866.30686	0.02420
3865.02109	0.02373
3863.73532	0.02335
3862.44956	0.02298
3861.16379	0.02260
3859.87802	0.02251
3858.59225	0.02295
3857.30648	0.02368
3856.02071	0.02417
3854.73494	0.02421
3853.44917	0.02419
3852.16341	0.02442
3850.87764	0.02475
3849.59187	0.02486
3848.30610	0.02463
3847.02033	0.02412
3845.73456	0.02355
3844.44879	0.02308
3843.16302	0.02262
3841.87725	0.02195
3840.59149	0.02103
3839.30572	0.02025
3838.01995	0.02024
3836.73418	0.02113
3835.44841	0.02232
3834.16264	0.02311
3832.87687	0.02332
3831.59110	0.02318
3830.30534	0.02292
3829.01957	0.02267
3827.73380	0.02251
3826.44803	0.02261
3825.16226	0.02293
3823.87649	0.02316
3822.59072	0.02319
3821.30495	0.02337
3820.01918	0.02389
3818.73342	0.02433
3817.44765	0.02438
3816.16188	0.02446
3814.87611	0.02498
3813.59034	0.02552
3812.30457	0.02550
3811.01880	0.02486
3809.73303	0.02373
3808.44726	0.02234
3807.16150	0.02136
3805.87573	0.02136
3804.58996	0.02196
3803.30419	0.02231
3802.01842	0.02227
3800.73265	0.02235
3799.44688	0.02264
3798.16111	0.02283
3796.87535	0.02292
3795.58958	0.02314
3794.30381	0.02343
3793.01804	0.02354
3791.73227	0.02336
3790.44650	0.02300
3789.16073	0.02268
3787.87496	0.02257
3786.58919	0.02258
3785.30343	0.02256
3784.01766	0.02258
3782.73189	0.02287
3781.44612	0.02340
3780.16035	0.02397
3778.87458	0.02448
3777.58881	0.02494
3776.30304	0.02524
3775.01728	0.02522
3773.73151	0.02476
3772.44574	0.02396
3771.15997	0.02320
3769.87420	0.02288
3768.58843	0.02299
3767.30266	0.02314
3766.01689	0.02309
3764.73112	0.02299
3763.44536	0.02297
3762.15959	0.02299
3760.87382	0.02295
3759.58805	0.02277
3758.30228	0.02245
3757.01651	0.02219
3755.73074	0.02209
3754.44497	0.02194
3753.15921	0.02157
3751.87344	0.02122
3750.58767	0.02131
3749.30190	0.02199
3748.01613	0.02278
3746.73036	0.02267
3745.44459	0.02163
3744.15882	0.02099
3742.87305	0.02160
3741.58729	0.02288
3740.30152	0.02402
3739.01575	0.02463
3737.72998	0.02461
3736.44421	0.02419
3735.15844	0.02384
3733.87267	0.02372
3732.58690	0.02366
3731.30114	0.02354
3730.01537	0.02327
3728.72960	0.02280
3727.44383	0.02237
3726.15806	0.02221
3724.87229	0.02212
3723.58652	0.02183
3722.30075	0.02144
3721.01498	0.02125
3719.72922	0.02131
3718.44345	0.02157
3717.15768	0.02210
3715.87191	0.02285
3714.58614	0.02332
3713.30037	0.02296
3712.01460	0.02195
3710.72883	0.02106
3709.44307	0.02093
3708.15730	0.02150
3706.87153	0.02207
3705.58576	0.02193
3704.29999	0.02116
3703.01422	0.02051
3701.72845	0.02052
3700.44268	0.02097
3699.15691	0.02121
3697.87115	0.02104
3696.58538	0.02085
3695.29961	0.02091
3694.01384	0.02109
3692.72807	0.02123
3691.44230	0.02121
3690.15653	0.02102
3688.87076	0.02089
3687.58500	0.02107
3686.29923	0.02147
3685.01346	0.02182
3683.72769	0.02202
3682.44192	0.02215
3681.15615	0.02221
3679.87038	0.02227
3678.58461	0.02228
3677.29884	0.02218
3676.01308	0.02227
3674.72731	0.02287
3673.44154	0.02360
3672.15577	0.02381
3670.87000	0.02364
3669.58423	0.02357
3668.29846	0.02345
3667.01269	0.02281
3665.72693	0.02181
3664.44116	0.02101
3663.15539	0.02076
3661.86962	0.02093
3660.58385	0.02115
3659.29808	0.02116
3658.01231	0.02093
3656.72654	0.02084
3655.44077	0.02122
3654.15501	0.02180
3652.86924	0.02201
3651.58347	0.02171
3650.29770	0.02135
3649.01193	0.02133
3647.72616	0.02162
3646.44039	0.02197
3645.15462	0.02214
3643.86886	0.02204
3642.58309	0.02175
3641.29732	0.02148
3640.01155	0.02144
3638.72578	0.02170
3637.44001	0.02210
3636.15424	0.02237
3634.86847	0.02245
3633.58270	0.02252
3632.29694	0.02267
3631.01117	0.02270
3629.72540	0.02265
3628.43963	0.02288
3627.15386	0.02341
3625.86809	0.02391
3624.58232	0.02415
3623.29655	0.02417
3622.01079	0.02394
3620.72502	0.02353
3619.43925	0.02322
3618.15348	0.02310
3616.86771	0.02294
3615.58194	0.02255
3614.29617	0.02217
3613.01040	0.02218
3611.72463	0.02263
3610.43887	0.02327
3609.15310	0.02400
3607.86733	0.02490
3606.58156	0.02584
3605.29579	0.02648
3604.01002	0.02666
3602.72425	0.02648
3601.43848	0.02619
3600.15272	0.02587
3598.86695	0.02545
3597.58118	0.02488
3596.29541	0.02436
3595.00964	0.02419
3593.72387	0.02451
3592.43810	0.02520
3591.15233	0.02587
3589.86656	0.02619
3588.58080	0.02596
3587.29503	0.02526
3586.00926	0.02429
3584.72349	0.02342
3583.43772	0.02298
3582.15195	0.02309
3580.86618	0.02361
3579.58041	0.02445
3578.29464	0.02553
3577.00888	0.02654
3575.72311	0.02709
3574.43734	0.02705
3573.15157	0.02684
3571.86580	0.02687
3570.58003	0.02717
3569.29426	0.02746
3568.00849	0.02765
3566.72273	0.02775
3565.43696	0.02769
3564.15119	0.02730
3562.86542	0.02673
3561.57965	0.02642
3560.29388	0.02666
3559.00811	0.02737
3557.72234	0.02814
3556.43657	0.02856
3555.15081	0.02841
3553.86504	0.02778
3552.57927	0.02708
3551.29350	0.02672
3550.00773	0.02687
3548.72196	0.02735
3547.43619	0.02797
3546.15042	0.02866
3544.86466	0.02931
3543.57889	0.02966
3542.29312	0.02959
3541.00735	0.02932
3539.72158	0.02922
3538.43581	0.02944
3537.15004	0.02984
3535.86427	0.03025
3534.57850	0.03061
3533.29274	0.03080
3532.00697	0.03066
3530.72120	0.03013
3529.43543	0.02945
3528.14966	0.02898
3526.86389	0.02893
3525.57812	0.02910
3524.29235	0.02914
3523.00659	0.02893
3521.72082	0.02867
3520.43505	0.02864
3519.14928	0.02886
3517.86351	0.02912
3516.57774	0.02917
3515.29197	0.02905
3514.00620	0.02899
3512.72043	0.02915
3511.43467	0.02949
3510.14890	0.02978
3508.86313	0.02987
3507.57736	0.02981
3506.29159	0.02981
3505.00582	0.03006
3503.72005	0.03049
3502.43428	0.03078
3501.14852	0.03065
3499.86275	0.03009
3498.57698	0.02942
3497.29121	0.02904
3496.00544	0.02908
3494.71967	0.02933
3493.43390	0.02946
3492.14813	0.02929
3490.86236	0.02900
3489.57660	0.02891
3488.29083	0.02921
3487.00506	0.02970
3485.71929	0.03001
3484.43352	0.03007
3483.14775	0.03013
3481.86198	0.03038
3480.57621	0.03074
3479.29045	0.03096
3478.00468	0.03104
3476.71891	0.03115
3475.43314	0.03135
3474.14737	0.03147
3472.86160	0.03134
3471.57583	0.03103
3470.29006	0.03076
3469.00429	0.03079
3467.71853	0.03123
3466.43276	0.03196
3465.14699	0.03261
3463.86122	0.03275
3462.57545	0.03228
3461.28968	0.03158
3460.00391	0.03121
3458.71814	0.03143
3457.43238	0.03197
3456.14661	0.03237
3454.86084	0.03241
3453.57507	0.03227
3452.28930	0.03226
3451.00353	0.03250
3449.71776	0.03281
3448.43199	0.03293
3447.14622	0.03276
3445.86046	0.03249
3444.57469	0.03240
3443.28892	0.03259
3442.00315	0.03293
3440.71738	0.03326
3439.43161	0.03355
3438.14584	0.03383
3436.86007	0.03402
3435.57431	0.03393
3434.28854	0.03349
3433.00277	0.03287
3431.71700	0.03230
3430.43123	0.03190
3429.14546	0.03167
3427.85969	0.03161
3426.57392	0.03174
3425.28815	0.03203
3424.00239	0.03239
3422.71662	0.03265
3421.43085	0.03277
3420.14508	0.03281
3418.85931	0.03294
3417.57354	0.03323
3416.28777	0.03355
3415.00200	0.03368
3413.71624	0.03357
3412.43047	0.03325
3411.14470	0.03279
3409.85893	0.03219
3408.57316	0.03160
3407.28739	0.03131
3406.00162	0.03153
3404.71585	0.03211
3403.43008	0.03270
3402.14432	0.03305
3400.85855	0.03318
3399.57278	0.03322
3398.28701	0.03324
3397.00124	0.03322
3395.71547	0.03322
3394.42970	0.03328
3393.14393	0.03339
3391.85817	0.03348
3390.57240	0.03349
3389.28663	0.03343
3388.00086	0.03336
3386.71509	0.03336
3385.42932	0.03346
3384.14355	0.03361
3382.85778	0.03375
3381.57201	0.03377
3380.28625	0.03366
3379.00048	0.03347
3377.71471	0.03327
3376.42894	0.03310
3375.14317	0.03295
3373.85740	0.03288
3372.57163	0.03304
3371.28586	0.03348
3370.00010	0.03405
3368.71433	0.03452
3367.42856	0.03482
3366.14279	0.03501
3364.85702	0.03518
3363.57125	0.03535
3362.28548	0.03541
3360.99971	0.03519
3359.71394	0.03470
3358.42818	0.03420
3357.14241	0.03407
3355.85664	0.03443
3354.57087	0.03496
3353.28510	0.03524
3351.99933	0.03516
3350.71356	0.03487
3349.42779	0.03462
3348.14202	0.03447
3346.85626	0.03435
3345.57049	0.03413
3344.28472	0.03375
3342.99895	0.03325
3341.71318	0.03277
3340.42741	0.03245
3339.14164	0.03235
3337.85587	0.03242
3336.57011	0.03254
3335.28434	0.03266
3333.99857	0.03278
3332.71280	0.03298
3331.42703	0.03331
3330.14126	0.03370
3328.85549	0.03400
3327.56972	0.03403
3326.28395	0.03378
3324.99819	0.03337
3323.71242	0.03301
3322.42665	0.03283
3321.14088	0.03284
3319.85511	0.03291
3318.56934	0.03292
3317.28357	0.03286
3315.99780	0.03281
3314.71204	0.03279
3313.42627	0.03272
3312.14050	0.03262
3310.85473	0.03268
3309.56896	0.03299
3308.28319	0.03340
3306.99742	0.03361
3305.71165	0.03344
3304.42588	0.03297
3303.14012	0.03251
3301.85435	0.03232
3300.56858	0.03244
3299.28281	0.03258
3297.99704	0.03243
3296.71127	0.03195
3295.42550	0.03146
3294.13973	0.03131
3292.85397	0.03155
3291.56820	0.03190
3290.28243	0.03211
3288.99666	0.03221
3287.71089	0.03232
3286.42512	0.03239
3285.13935	0.03223
3283.85358	0.03176
3282.56781	0.03127
3281.28205	0.03115
3279.99628	0.03148
3278.71051	0.03201
3277.42474	0.03241
3276.13897	0.03258
3274.85320	0.03259
3273.56743	0.03256
3272.28166	0.03257
3270.99590	0.03262
3269.71013	0.03271
3268.42436	0.03282
3267.13859	0.03292
3265.85282	0.03297
3264.56705	0.03290
3263.28128	0.03267
3261.99551	0.03229
3260.70974	0.03182
3259.42398	0.03143
3258.13821	0.03132
3256.85244	0.03156
3255.56667	0.03196
3254.28090	0.03228
3252.99513	0.03242
3251.70936	0.03249
3250.42359	0.03249
3249.13783	0.03232
3247.85206	0.03187
3246.56629	0.03134
3245.28052	0.03109
3243.99475	0.03121
3242.70898	0.03146
3241.42321	0.03156
3240.13744	0.03150
3238.85167	0.03142
3237.56591	0.03149
3236.28014	0.03178
3234.99437	0.03224
3233.70860	0.03266
3232.42283	0.03284
3231.13706	0.03272
3229.85129	0.03243
3228.56552	0.03208
3227.27976	0.03173
3225.99399	0.03144
3224.70822	0.03129
3223.42245	0.03130
3222.13668	0.03143
3220.85091	0.03156
3219.56514	0.03154
3218.27937	0.03134
3216.99360	0.03111
3215.70784	0.03106
3214.42207	0.03119
3213.13630	0.03123
3211.85053	0.03098
3210.56476	0.03051
3209.27899	0.03017
3207.99322	0.03015
3206.70745	0.03039
3205.42169	0.03067
3204.13592	0.03082
3202.85015	0.03082
3201.56438	0.03077
3200.27861	0.03077
3198.99284	0.03084
3197.70707	0.03092
3196.42130	0.03104
3195.13553	0.03120
3193.84977	0.03133
3192.56400	0.03126
3191.27823	0.03095
3189.99246	0.03062
3188.70669	0.03049
3187.42092	0.03053
3186.13515	0.03051
3184.84938	0.03026
3183.56362	0.02988
3182.27785	0.02960
3180.99208	0.02954
3179.70631	0.02966
3178.42054	0.02976
3177.13477	0.02965
3175.84900	0.02931
3174.56323	0.02896
3173.27746	0.02884
3171.99170	0.02905
3170.70593	0.02941
3169.42016	0.02964
3168.13439	0.02960
3166.84862	0.02933
3165.56285	0.02903
3164.27708	0.02890
3162.99131	0.02901
3161.70555	0.02928
3160.41978	0.02948
3159.13401	0.02947
3157.84824	0.02926
3156.56247	0.02896
3155.27670	0.02872
3153.99093	0.02861
3152.70516	0.02869
3151.41939	0.02895
3150.13363	0.02933
3148.84786	0.02963
3147.56209	0.02969
3146.27632	0.02956
3144.99055	0.02948
3143.70478	0.02963
3142.41901	0.02993
3141.13324	0.03001
3139.84748	0.02961
3138.56171	0.02890
3137.27594	0.02833
3135.99017	0.02827
3134.70440	0.02871
3133.41863	0.02930
3132.13286	0.02970
3130.84709	0.02981
3129.56132	0.02967
3128.27556	0.02942
3126.98979	0.02918
3125.70402	0.02904
3124.41825	0.02903
3123.13248	0.02916
3121.84671	0.02930
3120.56094	0.02933
3119.27517	0.02917
3117.98940	0.02887
3116.70364	0.02857
3115.41787	0.02837
3114.13210	0.02831
3112.84633	0.02830
3111.56056	0.02820
3110.27479	0.02793
3108.98902	0.02755
3107.70325	0.02724
3106.41749	0.02719
3105.13172	0.02743
3103.84595	0.02780
3102.56018	0.02809
3101.27441	0.02825
3099.98864	0.02837
3098.70287	0.02859
3097.41710	0.02889
3096.13133	0.02910
3094.84557	0.02906
3093.55980	0.02879
3092.27403	0.02840
3090.98826	0.02801
3089.70249	0.02764
3088.41672	0.02729
3087.13095	0.02694
3085.84518	0.02665
3084.55942	0.02660
3083.27365	0.02691
3081.98788	0.02744
3080.70211	0.02785
3079.41634	0.02789
3078.13057	0.02760
3076.84480	0.02730
3075.55903	0.02719
3074.27326	0.02725
3072.98750	0.02723
3071.70173	0.02700
3070.41596	0.02668
3069.13019	0.02655
3067.84442	0.02680
3066.55865	0.02728
3065.27288	0.02766
3063.98711	0.02764
3062.70135	0.02727
3061.41558	0.02682
3060.12981	0.02649
3058.84404	0.02629
3057.55827	0.02611
3056.27250	0.02595
3054.98673	0.02593
3053.70096	0.02610
3052.41519	0.02636
3051.12943	0.02653
3049.84366	0.02655
3048.55789	0.02644
3047.27212	0.02627
3045.98635	0.02615
3044.70058	0.02616
3043.41481	0.02627
3042.12904	0.02634
3040.84328	0.02624
3039.55751	0.02605
3038.27174	0.02594
3036.98597	0.02596
3035.70020	0.02600
3034.41443	0.02593
3033.12866	0.02582
3031.84289	0.02589
3030.55712	0.02623
3029.27136	0.02665
3027.98559	0.02689
3026.69982	0.02685
3025.41405	0.02666
3024.12828	0.02643
3022.84251	0.02614
3021.55674	0.02580
3020.27097	0.02551
3018.98521	0.02546
3017.69944	0.02563
3016.41367	0.02585
3015.12790	0.02594
3013.84213	0.02585
3012.55636	0.02561
3011.27059	0.02531
3009.98482	0.02507
3008.69905	0.02500
3007.41329	0.02507
3006.12752	0.02514
3004.84175	0.02509
3003.55598	0.02491
3002.27021	0.02476
3000.98444	0.02482
2999.69867	0.02517
2998.41290	0.02574
2997.12714	0.02629
2995.84137	0.02660
2994.55560	0.02661
2993.26983	0.02643
2991.98406	0.02623
2990.69829	0.02616
2989.41252	0.02624
2988.12675	0.02631
2986.84098	0.02619
2985.55522	0.02590
2984.26945	0.02565
2982.98368	0.02564
2981.69791	0.02587
2980.41214	0.02615
2979.12637	0.02623
2977.84060	0.02600
2976.55483	0.02568
2975.26907	0.02565
2973.98330	0.02607
2972.69753	0.02674
2971.41176	0.02731
2970.12599	0.02766
2968.84022	0.02792
2967.55445	0.02825
2966.26868	0.02869
2964.98291	0.02924
2963.69715	0.02977
2962.41138	0.03013
2961.12561	0.03027
2959.83984	0.03029
2958.55407	0.03037
2957.26830	0.03057
2955.98253	0.03084
2954.69676	0.03106
2953.41100	0.03122
2952.12523	0.03142
2950.83946	0.03169
2949.55369	0.03196
2948.26792	0.03206
2946.98215	0.03199
2945.69638	0.03184
2944.41061	0.03166
2943.12484	0.03144
2941.83908	0.03119
2940.55331	0.03097
2939.26754	0.03087
2937.98177	0.03096
2936.69600	0.03124
2935.41023	0.03164
2934.12446	0.03201
2932.83869	0.03230
2931.55293	0.03255
2930.26716	0.03289
2928.98139	0.03330
2927.69562	0.03369
2926.40985	0.03390
2925.12408	0.03386
2923.83831	0.03361
2922.55254	0.03326
2921.26677	0.03286
2919.98101	0.03246
2918.69524	0.03210
2917.40947	0.03184
2916.12370	0.03167
2914.83793	0.03150
2913.55216	0.03129
2912.26639	0.03104
2910.98062	0.03083
2909.69486	0.03066
2908.40909	0.03050
2907.12332	0.03031
2905.83755	0.03012
2904.55178	0.02992
2903.26601	0.02966
2901.98024	0.02938
2900.69447	0.02919
2899.40870	0.02917
2898.12294	0.02923
2896.83717	0.02922
2895.55140	0.02907
2894.26563	0.02881
2892.97986	0.02855
2891.69409	0.02839
2890.40832	0.02832
2889.12255	0.02829
2887.83678	0.02820
2886.55102	0.02807
2885.26525	0.02798
2883.97948	0.02794
2882.69371	0.02786
2881.40794	0.02765
2880.12217	0.02740
2878.83640	0.02725
2877.55063	0.02724
2876.26487	0.02733
2874.97910	0.02750
2873.69333	0.02777
2872.40756	0.02808
2871.12179	0.02831
2869.83602	0.02837
2868.55025	0.02820
2867.26448	0.02789
2865.97871	0.02756
2864.69295	0.02737
2863.40718	0.02736
2862.12141	0.02735
2860.83564	0.02718
2859.54987	0.02686
2858.26410	0.02654
2856.97833	0.02643
2855.69256	0.02662
2854.40680	0.02707
2853.12103	0.02757
2851.83526	0.02782
2850.54949	0.02767
2849.26372	0.02720
2847.97795	0.02661
2846.69218	0.02608
2845.40641	0.02577
2844.12064	0.02570
2842.83488	0.02575
2841.54911	0.02573
2840.26334	0.02555
2838.97757	0.02531
2837.69180	0.02512
2836.40603	0.02496
2835.12026	0.02469
2833.83449	0.02424
2832.54873	0.02376
2831.26296	0.02343
2829.97719	0.02327
2828.69142	0.02313
2827.40565	0.02292
2826.11988	0.02274
2824.83411	0.02280
2823.54834	0.02307
2822.26257	0.02333
2820.97681	0.02331
2819.69104	0.02306
2818.40527	0.02280
2817.11950	0.02270
2815.83373	0.02271
2814.54796	0.02264
2813.26219	0.02239
2811.97642	0.02208
2810.69066	0.02191
2809.40489	0.02198
2808.11912	0.02218
2806.83335	0.02232
2805.54758	0.02229
2804.26181	0.02209
2802.97604	0.02179
2801.69027	0.02150
2800.40450	0.02132
2799.11874	0.02124
2797.83297	0.02121
2796.54720	0.02116
2795.26143	0.02110
2793.97566	0.02104
2792.68989	0.02096
2791.40412	0.02083
2790.11835	0.02073
2788.83259	0.02068
2787.54682	0.02063
2786.26105	0.02050
2784.97528	0.02033
2783.68951	0.02022
2782.40374	0.02018
2781.11797	0.02016
2779.83220	0.02008
2778.54643	0.01996
2777.26067	0.01992
2775.97490	0.02007
2774.68913	0.02032
2773.40336	0.02048
2772.11759	0.02046
2770.83182	0.02034
2769.54605	0.02025
2768.26028	0.02023
2766.97452	0.02025
2765.68875	0.02032
2764.40298	0.02045
2763.11721	0.02059
2761.83144	0.02065
2760.54567	0.02058
2759.25990	0.02048
2757.97413	0.02043
2756.68836	0.02043
2755.40260	0.02043
2754.11683	0.02044
2752.83106	0.02048
2751.54529	0.02055
2750.25952	0.02059
2748.97375	0.02053
2747.68798	0.02036
2746.40221	0.02013
2745.11645	0.02001
2743.83068	0.02007
2742.54491	0.02029
2741.25914	0.02054
2739.97337	0.02073
2738.68760	0.02076
2737.40183	0.02068
2736.11606	0.02060
2734.83029	0.02060
2733.54453	0.02062
2732.25876	0.02058
2730.97299	0.02047
2729.68722	0.02037
2728.40145	0.02026
2727.11568	0.02009
2725.82991	0.01984
2724.54414	0.01967
2723.25838	0.01973
2721.97261	0.01999
2720.68684	0.02017
2719.40107	0.02007
2718.11530	0.01972
2716.82953	0.01939
2715.54376	0.01930
2714.25799	0.01945
2712.97222	0.01968
2711.68646	0.01983
2710.40069	0.01980
2709.11492	0.01959
2707.82915	0.01933
2706.54338	0.01915
2705.25761	0.01914
2703.97184	0.01925
2702.68607	0.01935
2701.40031	0.01937
2700.11454	0.01934
2698.82877	0.01933
2697.54300	0.01936
2696.25723	0.01941
2694.97146	0.01948
2693.68569	0.01951
2692.39992	0.01946
2691.11415	0.01934
2689.82839	0.01925
2688.54262	0.01927
2687.25685	0.01937
2685.97108	0.01946
2684.68531	0.01951
2683.39954	0.01951
2682.11377	0.01946
2680.82800	0.01939
2679.54224	0.01933
2678.25647	0.01929
2676.97070	0.01922
2675.68493	0.01913
2674.39916	0.01904
2673.11339	0.01905
2671.82762	0.01910
2670.54185	0.01909
2669.25608	0.01894
2667.97032	0.01871
2666.68455	0.01852
2665.39878	0.01847
2664.11301	0.01854
2662.82724	0.01864
2661.54147	0.01870
2660.25570	0.01869
2658.96993	0.01866
2657.68417	0.01862
2656.39840	0.01860
2655.11263	0.01864
2653.82686	0.01876
2652.54109	0.01890
2651.25532	0.01894
2649.96955	0.01881
2648.68378	0.01854
2647.39801	0.01821
2646.11225	0.01792
2644.82648	0.01775
2643.54071	0.01772
2642.25494	0.01777
2640.96917	0.01774
2639.68340	0.01756
2638.39763	0.01731
2637.11186	0.01719
2635.82609	0.01733
2634.54033	0.01767
2633.25456	0.01805
2631.96879	0.01830
2630.68302	0.01837
2629.39725	0.01825
2628.11148	0.01800
2626.82571	0.01772
2625.53994	0.01747
2624.25418	0.01728
2622.96841	0.01719
2621.68264	0.01725
2620.39687	0.01741
2619.11110	0.01754
2617.82533	0.01753
2616.53956	0.01744
2615.25379	0.01735
2613.96802	0.01729
2612.68226	0.01720
2611.39649	0.01705
2610.11072	0.01684
2608.82495	0.01659
2607.53918	0.01635
2606.25341	0.01623
2604.96764	0.01629
2603.68187	0.01645
2602.39611	0.01658
2601.11034	0.01664
2599.82457	0.01666
2598.53880	0.01667
2597.25303	0.01665
2595.96726	0.01667
2594.68149	0.01673
2593.39572	0.01669
2592.10995	0.01643
2590.82419	0.01607
2589.53842	0.01585
2588.25265	0.01587
2586.96688	0.01602
2585.68111	0.01615
2584.39534	0.01614
2583.10957	0.01594
2581.82380	0.01563
2580.53804	0.01532
2579.25227	0.01512
2577.96650	0.01511
2576.68073	0.01532
2575.39496	0.01565
2574.10919	0.01583
2572.82342	0.01570
2571.53765	0.01541
2570.25188	0.01534
2568.96612	0.01565
2567.68035	0.01608
2566.39458	0.01619
2565.10881	0.01588
2563.82304	0.01543
2562.53727	0.01514
2561.25150	0.01508
2559.96573	0.01509
2558.67997	0.01501
2557.39420	0.01478
2556.10843	0.01445
2554.82266	0.01410
2553.53689	0.01387
2552.25112	0.01388
2550.96535	0.01413
2549.67958	0.01448
2548.39381	0.01478
2547.10805	0.01502
2545.82228	0.01529
2544.53651	0.01561
2543.25074	0.01586
2541.96497	0.01592
2540.67920	0.01575
2539.39343	0.01549
2538.10766	0.01522
2536.82190	0.01499
2535.53613	0.01477
2534.25036	0.01462
2532.96459	0.01463
2531.67882	0.01490
2530.39305	0.01534
2529.10728	0.01570
2527.82151	0.01569
2526.53574	0.01525
2525.24998	0.01465
2523.96421	0.01421
2522.67844	0.01407
2521.39267	0.01408
2520.10690	0.01406
2518.82113	0.01405
2517.53536	0.01421
2516.24959	0.01460
2514.96383	0.01506
2513.67806	0.01531
2512.39229	0.01524
2511.10652	0.01491
2509.82075	0.01452
2508.53498	0.01420
2507.24921	0.01404
2505.96344	0.01410
2504.67767	0.01430
2503.39191	0.01445
2502.10614	0.01436
2500.82037	0.01408
2499.53460	0.01384
2498.24883	0.01385
2496.96306	0.01409
2495.67729	0.01439
2494.39152	0.01451
2493.10576	0.01432
2491.81999	0.01387
2490.53422	0.01330
2489.24845	0.01281
2487.96268	0.01252
2486.67691	0.01248
2485.39114	0.01268
2484.10537	0.01300
2482.81960	0.01328
2481.53384	0.01342
2480.24807	0.01347
2478.96230	0.01350
2477.67653	0.01350
2476.39076	0.01344
2475.10499	0.01337
2473.81922	0.01336
2472.53345	0.01339
2471.24769	0.01338
2469.96192	0.01335
2468.67615	0.01342
2467.39038	0.01360
2466.10461	0.01378
2464.81884	0.01392
2463.53307	0.01405
2462.24730	0.01417
2460.96153	0.01422
2459.67577	0.01413
2458.39000	0.01392
2457.10423	0.01366
2455.81846	0.01350
2454.53269	0.01354
2453.24692	0.01378
2451.96115	0.01413
2450.67538	0.01443
2449.38962	0.01455
2448.10385	0.01442
2446.81808	0.01415
2445.53231	0.01388
2444.24654	0.01370
2442.96077	0.01354
2441.67500	0.01333
2440.38923	0.01310
2439.10346	0.01293
2437.81770	0.01284
2436.53193	0.01287
2435.24616	0.01310
2433.96039	0.01350
2432.67462	0.01386
2431.38885	0.01396
2430.10308	0.01376
2428.81731	0.01346
2427.53155	0.01330
2426.24578	0.01333
2424.96001	0.01346
2423.67424	0.01354
2422.38847	0.01348
2421.10270	0.01333
2419.81693	0.01320
2418.53116	0.01318
2417.24539	0.01322
2415.95963	0.01330
2414.67386	0.01340
2413.38809	0.01351
2412.10232	0.01359
2410.81655	0.01359
2409.53078	0.01348
2408.24501	0.01334
2406.95924	0.01324
2405.67347	0.01322
2404.38771	0.01330
2403.10194	0.01349
2401.81617	0.01371
2400.53040	0.01381
2399.24463	0.01374
2397.95886	0.01356
2396.67309	0.01341
2395.38732	0.01338
2394.10156	0.01341
2392.81579	0.01331
2391.53002	0.01296
2390.24425	0.01250
2388.95848	0.01221
2387.67271	0.01226
2386.38694	0.01251
2385.10117	0.01268
2383.81540	0.01265
2382.52964	0.01259
2381.24387	0.01271
2379.95810	0.01311
2378.67233	0.01353
2377.38656	0.01390
2376.10079	0.01427
2374.81502	0.01446
2373.52925	0.01405
2372.24349	0.01330
2370.95772	0.01281
2369.67195	0.01267
2368.38618	0.01272
2367.10041	0.01273
2365.81464	0.01267
2364.52887	0.01258
2363.24310	0.01253
2361.95733	0.01258
2360.67157	0.01272
2359.38580	0.01293
2358.10003	0.01305
2356.81426	0.01310
2355.52849	0.01330
2354.24272	0.01373
2352.95695	0.01419
2351.67118	0.01417
2350.38542	0.01388
2349.09965	0.01368
2347.81388	0.01345
2346.52811	0.01321
2345.24234	0.01336
2343.95657	0.01398
2342.67080	0.01497
2341.38503	0.01497
2340.09926	0.01429
2338.81350	0.01410
2337.52773	0.01435
2336.24196	0.01408
2334.95619	0.01386
2333.67042	0.01413
2332.38465	0.01465
2331.09888	0.01406
2329.81311	0.01394
2328.52735	0.01431
2327.24158	0.01438
2325.95581	0.01455
2324.67004	0.01471
2323.38427	0.01494
2322.09850	0.01468
2320.81273	0.01439
2319.52696	0.01421
2318.24119	0.01407
2316.95543	0.01385
2315.66966	0.01363
2314.38389	0.01362
2313.09812	0.01370
2311.81235	0.01378
2310.52658	0.01387
2309.24081	0.01383
2307.95504	0.01353
2306.66928	0.01313
2305.38351	0.01287
2304.09774	0.01290
2302.81197	0.01306
2301.52620	0.01307
2300.24043	0.01282
2298.95466	0.01239
2297.66889	0.01197
2296.38312	0.01177
2295.09736	0.01187
2293.81159	0.01228
2292.52582	0.01279
2291.24005	0.01317
2289.95428	0.01320
2288.66851	0.01285
2287.38274	0.01226
2286.09697	0.01172
2284.81121	0.01144
2283.52544	0.01144
2282.23967	0.01166
2280.95390	0.01200
2279.66813	0.01236
2278.38236	0.01267
2277.09659	0.01284
2275.81082	0.01289
2274.52505	0.01292
2273.23929	0.01297
2271.95352	0.01291
2270.66775	0.01253
2269.38198	0.01184
2268.09621	0.01109
2266.81044	0.01058
2265.52467	0.01034
2264.23890	0.01031
2262.95314	0.01039
2261.66737	0.01050
2260.38160	0.01051
2259.09583	0.01032
2257.81006	0.00996
2256.52429	0.00955
2255.23852	0.00918
2253.95275	0.00896
2252.66698	0.00895
2251.38122	0.00906
2250.09545	0.00907
2248.80968	0.00876
2247.52391	0.00824
2246.23814	0.00789
2244.95237	0.00803
2243.66660	0.00854
2242.38083	0.00891
2241.09507	0.00871
2239.80930	0.00807
2238.52353	0.00756
2237.23776	0.00767
2235.95199	0.00835
2234.66622	0.00918
2233.38045	0.00975
2232.09468	0.00994
2230.80891	0.00968
2229.52315	0.00885
2228.23738	0.00749
2226.95161	0.00611
2225.66584	0.00547
2224.38007	0.00583
2223.09430	0.00671
2221.80853	0.00744
2220.52276	0.00775
2219.23700	0.00783
2217.95123	0.00787
2216.66546	0.00796
2215.37969	0.00800
2214.09392	0.00771
2212.80815	0.00698
2211.52238	0.00619
2210.23661	0.00601
2208.95084	0.00643
2207.66508	0.00661
2206.37931	0.00596
2205.09354	0.00493
2203.80777	0.00455
2202.52200	0.00536
2201.23623	0.00698
2199.95046	0.00861
2198.66469	0.00969
2197.37893	0.01005
2196.09316	0.00973
2194.80739	0.00884
2193.52162	0.00749
2192.23585	0.00597
2190.95008	0.00473
2189.66431	0.00418
2188.37854	0.00430
2187.09277	0.00453
2185.80701	0.00426
2184.52124	0.00348
2183.23547	0.00282
2181.94970	0.00286
2180.66393	0.00357
2179.37816	0.00438
2178.09239	0.00477
2176.80662	0.00463
2175.52085	0.00418
2174.23509	0.00359
2172.94932	0.00280
2171.66355	0.00173
2170.37778	0.00080
2169.09201	0.00063
2167.80624	0.00133
2166.52047	0.00216
2165.23470	0.00228
2163.94894	0.00167
2162.66317	0.00107
2161.37740	0.00116
2160.09163	0.00189
2158.80586	0.00255
2157.52009	0.00267
2156.23432	0.00246
2154.94855	0.00250
2153.66278	0.00304
2152.37702	0.00374
2151.09125	0.00412
2149.80548	0.00392
2148.51971	0.00333
2147.23394	0.00288
2145.94817	0.00298
2144.66240	0.00352
2143.37663	0.00391
2142.09087	0.00373
2140.80510	0.00312
2139.51933	0.00271
2138.23356	0.00297
2136.94779	0.00374
2135.66202	0.00443
2134.37625	0.00464
2133.09048	0.00452
2131.80471	0.00440
2130.51895	0.00435
2129.23318	0.00424
2127.94741	0.00414
2126.66164	0.00437
2125.37587	0.00505
2124.09010	0.00594
2122.80433	0.00663
2121.51856	0.00691
2120.23280	0.00683
2118.94703	0.00664
2117.66126	0.00653
2116.37549	0.00652
2115.08972	0.00642
2113.80395	0.00613
2112.51818	0.00583
2111.23241	0.00578
2109.94664	0.00595
2108.66088	0.00606
2107.37511	0.00583
2106.08934	0.00532
2104.80357	0.00490
2103.51780	0.00487
2102.23203	0.00515
2100.94626	0.00543
2099.66049	0.00508
2098.37473	0.00476
2097.08896	0.00466
2095.80319	0.00477
2094.51742	0.00512
2093.23165	0.00566
2091.94588	0.00621
2090.66011	0.00647
2089.37434	0.00616
2088.08857	0.00521
2086.80281	0.00390
2085.51704	0.00275
2084.23127	0.00223
2082.94550	0.00253
2081.65973	0.00341
2080.37396	0.00436
2079.08819	0.00496
2077.80242	0.00511
2076.51666	0.00507
2075.23089	0.00504
2073.94512	0.00498
2072.65935	0.00479
2071.37358	0.00455
2070.08781	0.00441
2068.80204	0.00432
2067.51627	0.00408
2066.23050	0.00356
2064.94474	0.00292
2063.65897	0.00244
2062.37320	0.00232
2061.08743	0.00256
2059.80166	0.00303
2058.51589	0.00348
2057.23012	0.00370
2055.94435	0.00368
2054.65859	0.00358
2053.37282	0.00354
2052.08705	0.00352
2050.80128	0.00335
2049.51551	0.00300
2048.22974	0.00262
2046.94397	0.00232
2045.65820	0.00204
2044.37243	0.00153
2043.08667	0.00064
2041.80090	-0.00042
2040.51513	-0.00112
2039.22936	-0.00120
2037.94359	-0.00100
2036.65782	-0.00116
2035.37205	-0.00187
2034.08628	-0.00267
2032.80052	-0.00300
2031.51475	-0.00260
2030.22898	-0.00155
2028.94321	-0.00007
2027.65744	0.00139
2026.37167	0.00229
2025.08590	0.00234
2023.80013	0.00174
2022.51436	0.00100
2021.22860	0.00062
2019.94283	0.00076
2018.65706	0.00119
2017.37129	0.00152
2016.08552	0.00156
2014.79975	0.00143
2013.51398	0.00131
2012.22821	0.00105
2010.94245	0.00029
2009.65668	-0.00093
2008.37091	-0.00200
2007.08514	-0.00208
2005.79937	-0.00100
2004.51360	0.00068
2003.22783	0.00222
2001.94206	0.00336
2000.65629	0.00409
1999.37053	0.00430
1998.08476	0.00381
1996.79899	0.00287
1995.51322	0.00217
1994.22745	0.00220
1992.94168	0.00276
1991.65591	0.00327
1990.37014	0.00333
1989.08438	0.00303
1987.79861	0.00269
1986.51284	0.00253
1985.22707	0.00257
1983.94130	0.00270
1982.65553	0.00287
1981.36976	0.00311
1980.08399	0.00336
1978.79822	0.00355
1977.51246	0.00365
1976.22669	0.00370
1974.94092	0.00365
1973.65515	0.00339
1972.36938	0.00305
1971.08361	0.00286
1969.79784	0.00287
1968.51207	0.00292
1967.22631	0.00293
1965.94054	0.00302
1964.65477	0.00337
1963.36900	0.00394
1962.08323	0.00457
1960.79746	0.00517
1959.51169	0.00571
1958.22592	0.00617
1956.94015	0.00648
1955.65439	0.00662
1954.36862	0.00664
1953.08285	0.00660
1951.79708	0.00654
1950.51131	0.00648
1949.22554	0.00638
1947.93977	0.00616
1946.65400	0.00580
1945.36823	0.00543
1944.08247	0.00529
1942.79670	0.00548
1941.51093	0.00589
1940.22516	0.00625
1938.93939	0.00640
1937.65362	0.00637
1936.36785	0.00630
1935.08208	0.00629
1933.79632	0.00634
1932.51055	0.00638
1931.22478	0.00638
1929.93901	0.00641
1928.65324	0.00649
1927.36747	0.00654
1926.08170	0.00640
1924.79593	0.00609
1923.51016	0.00592
1922.22440	0.00620
1920.93863	0.00688
1919.65286	0.00746
1918.36709	0.00755
1917.08132	0.00714
1915.79555	0.00661
1914.50978	0.00630
1913.22401	0.00641
1911.93825	0.00683
1910.65248	0.00720
1909.36671	0.00717
1908.08094	0.00669
1906.79517	0.00612
1905.50940	0.00589
1904.22363	0.00613
1902.93786	0.00655
1901.65209	0.00684
1900.36633	0.00694
1899.08056	0.00699
1897.79479	0.00709
1896.50902	0.00715
1895.22325	0.00706
1893.93748	0.00687
1892.65171	0.00673
1891.36594	0.00671
1890.08018	0.00672
1888.79441	0.00661
1887.50864	0.00635
1886.22287	0.00607
1884.93710	0.00593
1883.65133	0.00590
1882.36556	0.00589
1881.07979	0.00589
1879.79402	0.00601
1878.50826	0.00630
1877.22249	0.00666
1875.93672	0.00698
1874.65095	0.00720
1873.36518	0.00732
1872.07941	0.00733
1870.79364	0.00720
1869.50787	0.00702
1868.22211	0.00688
1866.93634	0.00685
1865.65057	0.00692
1864.36480	0.00703
1863.07903	0.00709
1861.79326	0.00705
1860.50749	0.00692
1859.22172	0.00676
1857.93595	0.00665
1856.65019	0.00660
1855.36442	0.00664
1854.07865	0.00672
1852.79288	0.00677
1851.50711	0.00677
1850.22134	0.00679
1848.93557	0.00691
1847.64980	0.00713
1846.36404	0.00734
1845.07827	0.00751
1843.79250	0.00771
1842.50673	0.00790
1841.22096	0.00797
1839.93519	0.00792
1838.64942	0.00786
1837.36365	0.00786
1836.07788	0.00787
1834.79212	0.00785
1833.50635	0.00782
1832.22058	0.00777
1830.93481	0.00771
1829.64904	0.00768
1828.36327	0.00769
1827.07750	0.00764
1825.79173	0.00754
1824.50597	0.00745
1823.22020	0.00740
1821.93443	0.00734
1820.64866	0.00724
1819.36289	0.00715
1818.07712	0.00709
1816.79135	0.00709
1815.50558	0.00716
1814.21981	0.00731
1812.93405	0.00755
1811.64828	0.00780
1810.36251	0.00803
1809.07674	0.00818
1807.79097	0.00825
1806.50520	0.00819
1805.21943	0.00801
1803.93366	0.00778
1802.64790	0.00760
1801.36213	0.00753
1800.07636	0.00758
1798.79059	0.00772
1797.50482	0.00793
1796.21905	0.00812
1794.93328	0.00820
1793.64751	0.00815
1792.36174	0.00810
1791.07598	0.00815
1789.79021	0.00831
1788.50444	0.00849
1787.21867	0.00861
1785.93290	0.00867
1784.64713	0.00868
1783.36136	0.00865
1782.07559	0.00855
1780.78983	0.00839
1779.50406	0.00824
1778.21829	0.00816
1776.93252	0.00814
1775.64675	0.00813
1774.36098	0.00808
1773.07521	0.00808
1771.78944	0.00828
1770.50367	0.00858
1769.21791	0.00880
1767.93214	0.00887
1766.64637	0.00891
1765.36060	0.00897
1764.07483	0.00899
1762.78906	0.00898
1761.50329	0.00901
1760.21752	0.00905
1758.93176	0.00899
1757.64599	0.00889
1756.36022	0.00892
1755.07445	0.00913
1753.78868	0.00929
1752.50291	0.00924
1751.21714	0.00910
1749.93137	0.00907
1748.64560	0.00917
1747.35984	0.00930
1746.07407	0.00936
1744.78830	0.00934
1743.50253	0.00928
1742.21676	0.00924
1740.93099	0.00923
1739.64522	0.00932
1738.35945	0.00949
1737.07369	0.00960
1735.78792	0.00953
1734.50215	0.00951
1733.21638	0.00975
1731.93061	0.01013
1730.64484	0.01032
1729.35907	0.01033
1728.07330	0.01032
1726.78753	0.01035
1725.50177	0.01035
1724.21600	0.01033
1722.93023	0.01037
1721.64446	0.01050
1720.35869	0.01060
1719.07292	0.01062
1717.78715	0.01069
1716.50138	0.01093
1715.21561	0.01124
1713.92985	0.01146
1712.64408	0.01158
1711.35831	0.01167
1710.07254	0.01178
1708.78677	0.01192
1707.50100	0.01203
1706.21523	0.01212
1704.92946	0.01229
1703.64370	0.01250
1702.35793	0.01255
1701.07216	0.01256
1699.78639	0.01282
1698.50062	0.01318
1697.21485	0.01327
1695.92908	0.01319
1694.64331	0.01333
1693.35754	0.01366
1692.07178	0.01385
1690.78601	0.01388
1689.50024	0.01395
1688.21447	0.01409
1686.92870	0.01412
1685.64293	0.01403
1684.35716	0.01409
1683.07139	0.01445
1681.78563	0.01486
1680.49986	0.01510
1679.21409	0.01523
1677.92832	0.01530
1676.64255	0.01527
1675.35678	0.01528
1674.07101	0.01543
1672.78524	0.01561
1671.49947	0.01567
1670.21371	0.01567
1668.92794	0.01577
1667.64217	0.01601
1666.35640	0.01626
1665.07063	0.01638
1663.78486	0.01642
1662.49909	0.01651
1661.21332	0.01672
1659.92756	0.01699
1658.64179	0.01730
1657.35602	0.01763
1656.07025	0.01775
1654.78448	0.01751
1653.49871	0.01721
1652.21294	0.01730
1650.92717	0.01771
1649.64140	0.01798
1648.35564	0.01790
1647.06987	0.01774
1645.78410	0.01774
1644.49833	0.01784
1643.21256	0.01791
1641.92679	0.01793
1640.64102	0.01797
1639.35525	0.01804
1638.06949	0.01802
1636.78372	0.01787
1635.49795	0.01778
1634.21218	0.01788
1632.92641	0.01806
1631.64064	0.01817
1630.35487	0.01820
1629.06910	0.01825
1627.78333	0.01836
1626.49757	0.01847
1625.21180	0.01850
1623.92603	0.01846
1622.64026	0.01853
1621.35449	0.01873
1620.06872	0.01890
1618.78295	0.01886
1617.49718	0.01871
1616.21142	0.01870
1614.92565	0.01893
1613.63988	0.01920
1612.35411	0.01939
1611.06834	0.01953
1609.78257	0.01964
1608.49680	0.01972
1607.21103	0.01981
1605.92526	0.01993
1604.63950	0.02008
1603.35373	0.02026
1602.06796	0.02046
1600.78219	0.02065
1599.49642	0.02081
1598.21065	0.02092
1596.92488	0.02096
1595.63911	0.02095
1594.35335	0.02093
1593.06758	0.02096
1591.78181	0.02107
1590.49604	0.02127
1589.21027	0.02151
1587.92450	0.02177
1586.63873	0.02200
1585.35296	0.02217
1584.06719	0.02228
1582.78143	0.02234
1581.49566	0.02243
1580.20989	0.02258
1578.92412	0.02271
1577.63835	0.02275
1576.35258	0.02284
1575.06681	0.02314
1573.78104	0.02353
1572.49528	0.02373
1571.20951	0.02373
1569.92374	0.02374
1568.63797	0.02392
1567.35220	0.02420
1566.06643	0.02446
1564.78066	0.02471
1563.49489	0.02496
1562.20912	0.02507
1560.92336	0.02496
1559.63759	0.02484
1558.35182	0.02500
1557.06605	0.02534
1555.78028	0.02553
1554.49451	0.02554
1553.20874	0.02558
1551.92297	0.02569
1550.63721	0.02576
1549.35144	0.02577
1548.06567	0.02576
1546.77990	0.02570
1545.49413	0.02564
1544.20836	0.02561
1542.92259	0.02556
1541.63682	0.02540
1540.35105	0.02522
1539.06529	0.02523
1537.77952	0.02545
1536.49375	0.02562
1535.20798	0.02559
1533.92221	0.02556
1532.63644	0.02573
1531.35067	0.02603
1530.06490	0.02630
1528.77914	0.02652
1527.49337	0.02676
1526.20760	0.02710
1524.92183	0.02752
1523.63606	0.02789
1522.35029	0.02822
1521.06452	0.02870
1519.77875	0.02942
1518.49298	0.03020
1517.20722	0.03091
1515.92145	0.03161
1514.63568	0.03236
1513.34991	0.03314
1512.06414	0.03402
1510.77837	0.03499
1509.49260	0.03591
1508.20683	0.03664
1506.92107	0.03734
1505.63530	0.03821
1504.34953	0.03921
1503.06376	0.04008
1501.77799	0.04075
1500.49222	0.04132
1499.20645	0.04183
1497.92068	0.04228
1496.63491	0.04272
1495.34915	0.04326
1494.06338	0.04389
1492.77761	0.04450
1491.49184	0.04508
1490.20607	0.04573
1488.92030	0.04648
1487.63453	0.04729
1486.34876	0.04812
1485.06299	0.04894
1483.77723	0.04972
1482.49146	0.05045
1481.20569	0.05118
1479.91992	0.05193
1478.63415	0.05269
1477.34838	0.05342
1476.06261	0.05409
1474.77684	0.05465
1473.49108	0.05512
1472.20531	0.05559
1470.91954	0.05610
1469.63377	0.05657
1468.34800	0.05689
1467.06223	0.05703
1465.77646	0.05705
1464.49069	0.05708
1463.20492	0.05717
1461.91916	0.05731
1460.63339	0.05747
1459.34762	0.05765
1458.06185	0.05788
1456.77608	0.05825
1455.49031	0.05874
1454.20454	0.05912
1452.91877	0.05932
1451.63301	0.05946
1450.34724	0.05966
1449.06147	0.05987
1447.77570	0.05999
1446.48993	0.06001
1445.20416	0.05993
1443.91839	0.05974
1442.63262	0.05947
1441.34685	0.05916
1440.06109	0.05879
1438.77532	0.05835
1437.48955	0.05798
1436.20378	0.05784
1434.91801	0.05799
1433.63224	0.05828
1432.34647	0.05862
1431.06070	0.05907
1429.77494	0.05971
1428.48917	0.06054
1427.20340	0.06149
1425.91763	0.06247
1424.63186	0.06346
1423.34609	0.06444
1422.06032	0.06533
1420.77455	0.06607
1419.48878	0.06676
1418.20302	0.06747
1416.91725	0.06810
1415.63148	0.06847
1414.34571	0.06854
1413.05994	0.06841
1411.77417	0.06815
1410.48840	0.06781
1409.20263	0.06739
1407.91687	0.06684
1406.63110	0.06614
1405.34533	0.06531
1404.05956	0.06439
1402.77379	0.06337
1401.48802	0.06219
1400.20225	0.06085
1398.91648	0.05946
1397.63071	0.05807
1396.34495	0.05666
1395.05918	0.05523
1393.77341	0.05384
1392.48764	0.05251
1391.20187	0.05121
1389.91610	0.04991
1388.63033	0.04863
1387.34456	0.04743
1386.05880	0.04629
1384.77303	0.04513
1383.48726	0.04393
1382.20149	0.04274
1380.91572	0.04161
1379.62995	0.04049
1378.34418	0.03934
1377.05841	0.03814
1375.77264	0.03688
1374.48688	0.03560
1373.20111	0.03436
1371.91534	0.03320
1370.62957	0.03211
1369.34380	0.03105
1368.05803	0.03002
1366.77226	0.02901
1365.48649	0.02804
1364.20073	0.02713
1362.91496	0.02632
1361.62919	0.02558
1360.34342	0.02492
1359.05765	0.02431
1357.77188	0.02377
1356.48611	0.02328
1355.20034	0.02282
1353.91457	0.02234
1352.62881	0.02184
1351.34304	0.02132
1350.05727	0.02084
1348.77150	0.02043
1347.48573	0.02010
1346.19996	0.01984
1344.91419	0.01959
1343.62842	0.01933
1342.34266	0.01904
1341.05689	0.01871
1339.77112	0.01838
1338.48535	0.01806
1337.19958	0.01779
1335.91381	0.01756
1334.62804	0.01736
1333.34227	0.01716
1332.05650	0.01697
1330.77074	0.01680
1329.48497	0.01665
1328.19920	0.01648
1326.91343	0.01627
1325.62766	0.01606
1324.34189	0.01591
1323.05612	0.01584
1321.77035	0.01581
1320.48459	0.01578
1319.19882	0.01572
1317.91305	0.01563
1316.62728	0.01555
1315.34151	0.01546
1314.05574	0.01538
1312.76997	0.01527
1311.48420	0.01512
1310.19843	0.01495
1308.91267	0.01480
1307.62690	0.01467
1306.34113	0.01456
1305.05536	0.01445
1303.76959	0.01434
1302.48382	0.01422
1301.19805	0.01409
1299.91228	0.01396
1298.62652	0.01387
1297.34075	0.01382
1296.05498	0.01380
1294.76921	0.01380
1293.48344	0.01381
1292.19767	0.01380
1290.91190	0.01374
1289.62613	0.01363
1288.34036	0.01348
1287.05460	0.01332
1285.76883	0.01320
1284.48306	0.01312
1283.19729	0.01309
1281.91152	0.01307
1280.62575	0.01302
1279.33998	0.01292
1278.05421	0.01280
1276.76845	0.01267
1275.48268	0.01257
1274.19691	0.01251
1272.91114	0.01250
1271.62537	0.01249
1270.33960	0.01247
1269.05383	0.01243
1267.76806	0.01239
1266.48229	0.01236
1265.19653	0.01235
1263.91076	0.01234
1262.62499	0.01230
1261.33922	0.01221
1260.05345	0.01211
1258.76768	0.01202
1257.48191	0.01197
1256.19614	0.01195
1254.91037	0.01194
1253.62461	0.01192
1252.33884	0.01189
1251.05307	0.01188
1249.76730	0.01188
1248.48153	0.01184
1247.19576	0.01175
1245.90999	0.01163
1244.62422	0.01152
1243.33846	0.01144
1242.05269	0.01140
1240.76692	0.01139
1239.48115	0.01141
1238.19538	0.01141
1236.90961	0.01138
1235.62384	0.01131
1234.33807	0.01123
1233.05230	0.01114
1231.76654	0.01103
1230.48077	0.01093
1229.19500	0.01084
1227.90923	0.01079
1226.62346	0.01081
1225.33769	0.01086
1224.05192	0.01090
1222.76615	0.01092
1221.48039	0.01092
1220.19462	0.01093
1218.90885	0.01093
1217.62308	0.01089
1216.33731	0.01081
1215.05154	0.01071
1213.76577	0.01062
1212.48000	0.01058
1211.19423	0.01059
1209.90847	0.01061
1208.62270	0.01061
1207.33693	0.01057
1206.05116	0.01051
1204.76539	0.01047
1203.47962	0.01046
1202.19385	0.01046
1200.90808	0.01051
1199.62232	0.01062
1198.33655	0.01069
1197.05078	0.01075
1195.76501	0.01078
1194.47924	0.01076
1193.19347	0.01071
1191.90770	0.01066
1190.62193	0.01062
1189.33616	0.01059
1188.05040	0.01058
1186.76463	0.01059
1185.47886	0.01066
1184.19309	0.01077
1182.90732	0.01088
1181.62155	0.01094
1180.33578	0.01094
1179.05001	0.01091
1177.76425	0.01088
1176.47848	0.01085
1175.19271	0.01082
1173.90694	0.01084
1172.62117	0.01095
1171.33540	0.01111
1170.04963	0.01127
1168.76386	0.01139
1167.47809	0.01146
1166.19233	0.01149
1164.90656	0.01153
1163.62079	0.01157
1162.33502	0.01163
1161.04925	0.01169
1159.76348	0.01177
1158.47771	0.01190
1157.19194	0.01205
1155.90618	0.01223
1154.62041	0.01243
1153.33464	0.01263
1152.04887	0.01282
1150.76310	0.01300
1149.47733	0.01321
1148.19156	0.01349
1146.90579	0.01387
1145.62002	0.01433
1144.33426	0.01483
1143.04849	0.01535
1141.76272	0.01588
1140.47695	0.01648
1139.19118	0.01719
1137.90541	0.01801
1136.61964	0.01888
1135.33387	0.01976
1134.04811	0.02069
1132.76234	0.02178
1131.47657	0.02310
1130.19080	0.02468
1128.90503	0.02651
1127.61926	0.02855
1126.33349	0.03074
1125.04772	0.03305
1123.76195	0.03547
1122.47619	0.03801
1121.19042	0.04066
1119.90465	0.04335
1118.61888	0.04604
1117.33311	0.04870
1116.04734	0.05130
1114.76157	0.05382
1113.47580	0.05629
1112.19004	0.05875
1110.90427	0.06123
1109.61850	0.06369
1108.33273	0.06611
1107.04696	0.06845
1105.76119	0.07068
1104.47542	0.07276
1103.18965	0.07469
1101.90388	0.07647
1100.61812	0.07816
1099.33235	0.07984
1098.04658	0.08158
1096.76081	0.08333
1095.47504	0.08499
1094.18927	0.08648
1092.90350	0.08783
1091.61773	0.08913
1090.33197	0.09043
1089.04620	0.09171
1087.76043	0.09296
1086.47466	0.09416
1085.18889	0.09537
1083.90312	0.09662
1082.61735	0.09792
1081.33158	0.09932
1080.04581	0.10087
1078.76005	0.10258
1077.47428	0.10446
1076.18851	0.10652
1074.90274	0.10875
1073.61697	0.11108
1072.33120	0.11344
1071.04543	0.11578
1069.75966	0.11811
1068.47390	0.12046
1067.18813	0.12289
1065.90236	0.12549
1064.61659	0.12826
1063.33082	0.13113
1062.04505	0.13399
1060.75928	0.13674
1059.47351	0.13939
1058.18774	0.14194
1056.90198	0.14439
1055.61621	0.14674
1054.33044	0.14907
1053.04467	0.15150
1051.75890	0.15406
1050.47313	0.15672
1049.18736	0.15944
1047.90159	0.16223
1046.61583	0.16510
1045.33006	0.16801
1044.04429	0.17090
1042.75852	0.17375
1041.47275	0.17655
1040.18698	0.17934
1038.90121	0.18213
1037.61544	0.18492
1036.32967	0.18766
1035.04391	0.19033
1033.75814	0.19291
1032.47237	0.19531
1031.18660	0.19744
1029.90083	0.19925
1028.61506	0.20073
1027.32929	0.20188
1026.04352	0.20266
1024.75775	0.20305
1023.47199	0.20302
1022.18622	0.20256
1020.90045	0.20164
1019.61468	0.20025
1018.32891	0.19834
1017.04314	0.19592
1015.75737	0.19303
1014.47160	0.18976
1013.18584	0.18614
1011.90007	0.18214
1010.61430	0.17767
1009.32853	0.17268
1008.04276	0.16718
1006.75699	0.16122
1005.47122	0.15489
1004.18545	0.14829
1002.89968	0.14156
1001.61392	0.13479
1000.32815	0.12802
999.04238	0.12125
997.75661	0.11452
996.47084	0.10793
995.18507	0.10166
993.89930	0.09576
992.61353	0.09024
991.32777	0.08506
990.04200	0.08021
988.75623	0.07574
987.47046	0.07162
986.18469	0.06780
984.89892	0.06424
983.61315	0.06094
982.32738	0.05796
981.04161	0.05532
979.75585	0.05302
978.47008	0.05102
977.18431	0.04928
975.89854	0.04780
974.61277	0.04660
973.32700	0.04570
972.04123	0.04515
970.75546	0.04496
969.46970	0.04517
968.18393	0.04577
966.89816	0.04670
965.61239	0.04785
964.32662	0.04902
963.04085	0.05002
961.75508	0.05066
960.46931	0.05081
959.18354	0.05040
957.89778	0.04944
956.61201	0.04807
955.32624	0.04644
954.04047	0.04473
952.75470	0.04302
951.46893	0.04136
950.18316	0.03980
948.89739	0.03838
947.61163	0.03707
946.32586	0.03579
945.04009	0.03448
943.75432	0.03321
942.46855	0.03210
941.18278	0.03119
939.89701	0.03043
938.61124	0.02968
937.32547	0.02889
936.03971	0.02811
934.75394	0.02742
933.46817	0.02683
932.18240	0.02632
930.89663	0.02587
929.61086	0.02547
928.32509	0.02511
927.03932	0.02476
925.75356	0.02441
924.46779	0.02404
923.18202	0.02371
921.89625	0.02349
920.61048	0.02335
919.32471	0.02323
918.03894	0.02303
916.75317	0.02275
915.46740	0.02243
914.18164	0.02215
912.89587	0.02197
911.61010	0.02195
910.32433	0.02204
909.03856	0.02214
907.75279	0.02212
906.46702	0.02190
905.18125	0.02155
903.89549	0.02124
902.60972	0.02103
901.32395	0.02087
900.03818	0.02067
898.75241	0.02044
897.46664	0.02024
896.18087	0.02011
894.89510	0.02004
893.60933	0.02006
892.32357	0.02016
891.03780	0.02034
889.75203	0.02060
888.46626	0.02101
887.18049	0.02165
885.89472	0.02266
884.60895	0.02415
883.32318	0.02610
882.03742	0.02829
880.75165	0.03037
879.46588	0.03202
878.18011	0.03320
876.89434	0.03415
875.60857	0.03521
874.32280	0.03648
873.03703	0.03765
871.75126	0.03827
870.46550	0.03804
869.17973	0.03700
867.89396	0.03540
866.60819	0.03350
865.32242	0.03149
864.03665	0.02952
862.75088	0.02768
861.46511	0.02610
860.17935	0.02482
858.89358	0.02384
857.60781	0.02309
856.32204	0.02247
855.03627	0.02189
853.75050	0.02135
852.46473	0.02087
851.17896	0.02052
849.89319	0.02028
848.60743	0.02010
847.32166	0.01994
846.03589	0.01979
844.75012	0.01965
843.46435	0.01953
842.17858	0.01944
840.89281	0.01936
839.60704	0.01925
838.32128	0.01913
837.03551	0.01901
835.74974	0.01890
834.46397	0.01878
833.17820	0.01869
831.89243	0.01865
830.60666	0.01864
829.32089	0.01861
828.03512	0.01852
826.74936	0.01842
825.46359	0.01838
824.17782	0.01842
822.89205	0.01846
821.60628	0.01837
820.32051	0.01812
819.03474	0.01779
817.74897	0.01754
816.46321	0.01747
815.17744	0.01757
813.89167	0.01778
812.60590	0.01801
811.32013	0.01819
810.03436	0.01824
808.74859	0.01811
807.46282	0.01787
806.17705	0.01761
804.89129	0.01742
803.60552	0.01734
802.31975	0.01736
801.03398	0.01743
799.74821	0.01747
798.46244	0.01744
797.17667	0.01736
795.89090	0.01726
794.60513	0.01719
793.31937	0.01716
792.03360	0.01720
790.74783	0.01728
789.46206	0.01731
788.17629	0.01723
786.89052	0.01708
785.60475	0.01695
784.31898	0.01690
783.03322	0.01693
781.74745	0.01698
780.46168	0.01701
779.17591	0.01702
777.89014	0.01702
776.60437	0.01706
775.31860	0.01714
774.03283	0.01721
772.74706	0.01719
771.46130	0.01708
770.17553	0.01700
768.88976	0.01701
767.60399	0.01710
766.31822	0.01717
765.03245	0.01719
763.74668	0.01719
762.46091	0.01720
761.17515	0.01722
759.88938	0.01727
758.60361	0.01734
757.31784	0.01744
756.03207	0.01756
754.74630	0.01768
753.46053	0.01774
752.17476	0.01770
750.88899	0.01753
749.60323	0.01729
748.31746	0.01706
747.03169	0.01689
745.74592	0.01681
744.46015	0.01682
743.17438	0.01689
741.88861	0.01698
740.60284	0.01708
739.31708	0.01715
738.03131	0.01717
736.74554	0.01711
735.45977	0.01698
734.17400	0.01686
732.88823	0.01683
731.60246	0.01689
730.31669	0.01700
729.03092	0.01710
727.74516	0.01715
726.45939	0.01713
725.17362	0.01708
723.88785	0.01705
722.60208	0.01708
721.31631	0.01717
720.03054	0.01729
718.74477	0.01737
717.45901	0.01738
716.17324	0.01734
714.88747	0.01729
713.60170	0.01728
712.31593	0.01732
711.03016	0.01742
709.74439	0.01754
708.45862	0.01764
707.17285	0.01770
705.88709	0.01770
704.60132	0.01767
703.31555	0.01763
702.02978	0.01758
700.74401	0.01756
699.45824	0.01758
698.17247	0.01763
696.88670	0.01765
695.60094	0.01759
694.31517	0.01748
693.02940	0.01739
691.74363	0.01739
690.45786	0.01749
689.17209	0.01762
687.88632	0.01771
686.60055	0.01774
685.31478	0.01772
684.02902	0.01767
682.74325	0.01761
681.45748	0.01756
680.17171	0.01753
678.88594	0.01753
677.60017	0.01755
676.31440	0.01756
675.02863	0.01759
673.74287	0.01766
672.45710	0.01778
671.17133	0.01796
669.88556	0.01816
668.59979	0.01833
667.31402	0.01844
666.02825	0.01841
664.74248	0.01828
663.45671	0.01808
662.17095	0.01787
660.88518	0.01770
659.59941	0.01760
658.31364	0.01756
657.02787	0.01756
655.74210	0.01757
654.45633	0.01757
653.17056	0.01757
651.88480	0.01761
650.59903	0.01770
649.31326	0.01783
648.02749	0.01797
646.74172	0.01808
645.45595	0.01813
644.17018	0.01816
642.88441	0.01821
641.59864	0.01835
640.31288	0.01857
639.02711	0.01883
637.74134	0.01905
636.45557	0.01926
635.16980	0.01952
633.88403	0.01987
632.59826	0.02030
631.31249	0.02070
630.02673	0.02078
628.74096	0.02066
627.45519	0.02128
626.16942	0.02109
624.88365	0.02052
623.59788	0.02061
622.31211	0.02218
621.02634	0.02537
619.74057	0.02939
618.45481	0.03308
617.16904	0.03587
615.88327	0.03797
614.59750	0.03998
613.31173	0.04262
612.02596	0.04644
610.74019	0.05145
609.45442	0.05692
608.16866	0.06175
606.88289	0.06515
605.59712	0.06706
604.31135	0.06786
603.02558	0.06802
601.73981	0.06773
600.45404	0.06692
599.16827	0.06547
597.88250	0.06342
596.59674	0.06102
595.31097	0.05868
594.02520	0.05676
592.73943	0.05535
591.45366	0.05439
590.16789	0.05378
588.88212	0.05358
587.59635	0.05390
586.31059	0.05478
585.02482	0.05613
583.73905	0.05778
582.45328	0.05960
581.16751	0.06153
579.88174	0.06356
578.59597	0.06571
577.31020	0.06798
576.02443	0.07023
574.73867	0.07231
573.45290	0.07415
572.16713	0.07591
570.88136	0.07790
569.59559	0.08041
568.30982	0.08348
567.02405	0.08689
565.73828	0.09017
564.45251	0.09282
563.16675	0.09444
561.88098	0.09466
560.59521	0.09318
559.30944	0.08995
558.02367	0.08523
556.73790	0.07953
555.45213	0.07341
554.16636	0.06730
552.88060	0.06147
551.59483	0.05609
550.30906	0.05124
549.02329	0.04698
547.73752	0.04337
546.45175	0.04044
545.16598	0.03811
543.88021	0.03623
542.59444	0.03461
541.30868	0.03316
540.02291	0.03182
538.73714	0.03060
537.45137	0.02948
536.16560	0.02846
534.87983	0.02748
533.59406	0.02653
532.30829	0.02560
531.02253	0.02474
529.73676	0.02400
528.45099	0.02340
527.16522	0.02290
525.87945	0.02249
524.59368	0.02216
523.30791	0.02187
522.02214	0.02154
520.73637	0.02113
519.45061	0.02062
518.16484	0.02010
516.87907	0.01961
515.59330	0.01919
514.30753	0.01884
513.02176	0.01856
511.73599	0.01839
510.45022	0.01836
509.16446	0.01837
507.87869	0.01827
506.59292	0.01800
505.30715	0.01762
504.02138	0.01721
502.73561	0.01683
501.44984	0.01652
500.16407	0.01631
498.87830	0.01622
497.59254	0.01619
496.30677	0.01617
495.02100	0.01614
493.73523	0.01612
492.44946	0.01613
491.16369	0.01612
489.87792	0.01606
488.59215	0.01593
487.30639	0.01576
486.02062	0.01563
484.73485	0.01555
483.44908	0.01553
482.16331	0.01555
480.87754	0.01562
479.59177	0.01577
478.30600	0.01604
477.02023	0.01642
475.73447	0.01687
474.44870	0.01730
473.16293	0.01762
471.87716	0.01778
470.59139	0.01777
469.30562	0.01760
468.01985	0.01733
466.73408	0.01704
465.44832	0.01679
464.16255	0.01662
462.87678	0.01650
461.59101	0.01639
460.30524	0.01618
459.01947	0.01588
457.73370	0.01555
456.44793	0.01530
455.16216	0.01512
453.87640	0.01499
452.59063	0.01485
451.30486	0.01467
450.01909	0.01445
448.73332	0.01425
447.44755	0.01414
446.16178	0.01413
444.87601	0.01420
443.59025	0.01430
442.30448	0.01436
441.01871	0.01435
439.73294	0.01428
438.44717	0.01420
437.16140	0.01417
435.87563	0.01418
434.58986	0.01419
433.30409	0.01418
432.01833	0.01413
430.73256	0.01406
429.44679	0.01397
428.16102	0.01391
426.87525	0.01388
425.58948	0.01389
424.30371	0.01392
423.01794	0.01394
421.73218	0.01389
420.44641	0.01376
419.16064	0.01359
417.87487	0.01342
416.58910	0.01330
415.30333	0.01323
414.01756	0.01325
412.73179	0.01336
411.44602	0.01352
410.16026	0.01366
408.87449	0.01378
407.58872	0.01389
406.30295	0.01400
405.01718	0.01412
403.73141	0.01423
402.44564	0.01432
401.15987	0.01438
399.87411	0.01444
