3997.45528	0.03972
3996.16951	0.03973
3994.88374	0.03978
3993.59798	0.03980
3992.31221	0.03982
3991.02644	0.03990
3989.74067	0.03984
3988.45490	0.03942
3987.16913	0.03873
3985.88336	0.03831
3984.59759	0.03851
3983.31183	0.03917
3982.02606	0.03977
3980.74029	0.03993
3979.45452	0.03965
3978.16875	0.03909
3976.88298	0.03853
3975.59721	0.03825
3974.31144	0.03844
3973.02567	0.03889
3971.73991	0.03919
3970.45414	0.03908
3969.16837	0.03871
3967.88260	0.03846
3966.59683	0.03866
3965.31106	0.03927
3964.02529	0.03990
3962.73952	0.04004
3961.45376	0.03952
3960.16799	0.03872
3958.88222	0.03824
3957.59645	0.03832
3956.31068	0.03870
3955.02491	0.03897
3953.73914	0.03908
3952.45337	0.03919
3951.16760	0.03936
3949.88184	0.03948
3948.59607	0.03950
3947.31030	0.03950
3946.02453	0.03951
3944.73876	0.03945
3943.45299	0.03928
3942.16722	0.03923
3940.88145	0.03964
3939.59569	0.04050
3938.30992	0.04132
3937.02415	0.04158
3935.73838	0.04118
3934.45261	0.04041
3933.16684	0.03961
3931.88107	0.03894
3930.59530	0.03833
3929.30953	0.03768
3928.02377	0.03705
3926.73800	0.03665
3925.45223	0.03661
3924.16646	0.03682
3922.88069	0.03707
3921.59492	0.03720
3920.30915	0.03724
3919.02338	0.03727
3917.73762	0.03725
3916.45185	0.03697
3915.16608	0.03646
3913.88031	0.03611
3912.59454	0.03626
3911.30877	0.03683
3910.02300	0.03748
3908.73723	0.03794
3907.45146	0.03810
3906.16570	0.03797
3904.87993	0.03769
3903.59416	0.03760
3902.30839	0.03805
3901.02262	0.03901
3899.73685	0.03990
3898.45108	0.04009
3897.16531	0.03947
3895.87955	0.03854
3894.59378	0.03796
3893.30801	0.03798
3892.02224	0.03830
3890.73647	0.03833
3889.45070	0.03792
3888.16493	0.03743
3886.87916	0.03710
3885.59339	0.03685
3884.30763	0.03672
3883.02186	0.03710
3881.73609	0.03804
3880.45032	0.03891
3879.16455	0.03904
3877.87878	0.03852
3876.59301	0.03783
3875.30724	0.03722
3874.02148	0.03677
3872.73571	0.03674
3871.44994	0.03727
3870.16417	0.03786
3868.87840	0.03785
3867.59263	0.03732
3866.30686	0.03682
3865.02109	0.03656
3863.73532	0.03647
3862.44956	0.03649
3861.16379	0.03659
3859.87802	0.03666
3858.59225	0.03655
3857.30648	0.03638
3856.02071	0.03633
3854.73494	0.03629
3853.44917	0.03579
3852.16341	0.03474
3850.87764	0.03373
3849.59187	0.03337
3848.30610	0.03368
3847.02033	0.03436
3845.73456	0.03504
3844.44879	0.03538
3843.16302	0.03524
3841.87725	0.03487
3840.59149	0.03491
3839.30572	0.03565
3838.01995	0.03663
3836.73418	0.03716
3835.44841	0.03713
3834.16264	0.03686
3832.87687	0.03649
3831.59110	0.03587
3830.30534	0.03501
3829.01957	0.03426
3827.73380	0.03402
3826.44803	0.03426
3825.16226	0.03460
3823.87649	0.03476
3822.59072	0.03461
3821.30495	0.03415
3820.01918	0.03377
3818.73342	0.03411
3817.44765	0.03523
3816.16188	0.03616
3814.87611	0.03608
3813.59034	0.03534
3812.30457	0.03469
3811.01880	0.03438
3809.73303	0.03434
3808.44726	0.03448
3807.16150	0.03459
3805.87573	0.03452
3804.58996	0.03458
3803.30419	0.03508
3802.01842	0.03569
3800.73265	0.03576
3799.44688	0.03530
3798.16111	0.03482
3796.87535	0.03469
3795.58958	0.03496
3794.30381	0.03555
3793.01804	0.03617
3791.73227	0.03651
3790.44650	0.03647
3789.16073	0.03626
3787.87496	0.03605
3786.58919	0.03582
3785.30343	0.03558
3784.01766	0.03545
3782.73189	0.03566
3781.44612	0.03624
3780.16035	0.03680
3778.87458	0.03676
3777.58881	0.03591
3776.30304	0.03457
3775.01728	0.03340
3773.73151	0.03289
3772.44574	0.03318
3771.15997	0.03386
3769.87420	0.03425
3768.58843	0.03404
3767.30266	0.03351
3766.01689	0.03315
3764.73112	0.03322
3763.44536	0.03370
3762.15959	0.03436
3760.87382	0.03483
3759.58805	0.03498
3758.30228	0.03493
3757.01651	0.03477
3755.73074	0.03436
3754.44497	0.03361
3753.15921	0.03257
3751.87344	0.03145
3750.58767	0.03049
3749.30190	0.02983
3748.01613	0.02969
3746.73036	0.03044
3745.44459	0.03187
3744.15882	0.03312
3742.87305	0.03379
3741.58729	0.03432
3740.30152	0.03481
3739.01575	0.03480
3737.72998	0.03402
3736.44421	0.03270
3735.15844	0.03134
3733.87267	0.03054
3732.58690	0.03050
3731.30114	0.03091
3730.01537	0.03127
3728.72960	0.03140
3727.44383	0.03132
3726.15806	0.03115
3724.87229	0.03108
3723.58652	0.03119
3722.30075	0.03136
3721.01498	0.03148
3719.72922	0.03162
3718.44345	0.03190
3717.15768	0.03236
3715.87191	0.03305
3714.58614	0.03392
3713.30037	0.03466
3712.01460	0.03494
3710.72883	0.03483
3709.44307	0.03474
3708.15730	0.03489
3706.87153	0.03505
3705.58576	0.03495
3704.29999	0.03459
3703.01422	0.03412
3701.72845	0.03356
3700.44268	0.03289
3699.15691	0.03221
3697.87115	0.03168
3696.58538	0.03139
3695.29961	0.03140
3694.01384	0.03166
3692.72807	0.03197
3691.44230	0.03209
3690.15653	0.03199
3688.87076	0.03161
3687.58500	0.03094
3686.29923	0.03026
3685.01346	0.02998
3683.72769	0.03017
3682.44192	0.03055
3681.15615	0.03081
3679.87038	0.03093
3678.58461	0.03123
3677.29884	0.03187
3676.01308	0.03240
3674.72731	0.03234
3673.44154	0.03217
3672.15577	0.03273
3670.87000	0.03380
3669.58423	0.03425
3668.29846	0.03364
3667.01269	0.03267
3665.72693	0.03226
3664.44116	0.03272
3663.15539	0.03370
3661.86962	0.03464
3660.58385	0.03529
3659.29808	0.03585
3658.01231	0.03644
3656.72654	0.03666
3655.44077	0.03592
3654.15501	0.03429
3652.86924	0.03264
3651.58347	0.03180
3650.29770	0.03194
3649.01193	0.03268
3647.72616	0.03361
3646.44039	0.03454
3645.15462	0.03545
3643.86886	0.03631
3642.58309	0.03694
3641.29732	0.03721
3640.01155	0.03724
3638.72578	0.03731
3637.44001	0.03759
3636.15424	0.03797
3634.86847	0.03805
3633.58270	0.03754
3632.29694	0.03664
3631.01117	0.03595
3629.72540	0.03577
3628.43963	0.03586
3627.15386	0.03603
3625.86809	0.03642
3624.58232	0.03712
3623.29655	0.03795
3622.01079	0.03867
3620.72502	0.03902
3619.43925	0.03882
3618.15348	0.03827
3616.86771	0.03792
3615.58194	0.03817
3614.29617	0.03885
3613.01040	0.03939
3611.72463	0.03942
3610.43887	0.03914
3609.15310	0.03906
3607.86733	0.03950
3606.58156	0.04034
3605.29579	0.04110
3604.01002	0.04137
3602.72425	0.04133
3601.43848	0.04156
3600.15272	0.04229
3598.86695	0.04317
3597.58118	0.04370
3596.29541	0.04376
3595.00964	0.04355
3593.72387	0.04331
3592.43810	0.04314
3591.15233	0.04308
3589.86656	0.04308
3588.58080	0.04305
3587.29503	0.04298
3586.00926	0.04320
3584.72349	0.04405
3583.43772	0.04555
3582.15195	0.04721
3580.86618	0.04828
3579.58041	0.04828
3578.29464	0.04741
3577.00888	0.04644
3575.72311	0.04613
3574.43734	0.04667
3573.15157	0.04768
3571.86580	0.04870
3570.58003	0.04958
3569.29426	0.05026
3568.00849	0.05057
3566.72273	0.05036
3565.43696	0.04977
3564.15119	0.04927
3562.86542	0.04913
3561.57965	0.04926
3560.29388	0.04941
3559.00811	0.04951
3557.72234	0.04964
3556.43657	0.04977
3555.15081	0.04978
3553.86504	0.04968
3552.57927	0.04973
3551.29350	0.05017
3550.00773	0.05096
3548.72196	0.05178
3547.43619	0.05224
3546.15042	0.05219
3544.86466	0.05185
3543.57889	0.05162
3542.29312	0.05171
3541.00735	0.05205
3539.72158	0.05244
3538.43581	0.05281
3537.15004	0.05314
3535.86427	0.05337
3534.57850	0.05339
3533.29274	0.05323
3532.00697	0.05298
3530.72120	0.05280
3529.43543	0.05289
3528.14966	0.05343
3526.86389	0.05437
3525.57812	0.05547
3524.29235	0.05643
3523.00659	0.05704
3521.72082	0.05728
3520.43505	0.05721
3519.14928	0.05697
3517.86351	0.05667
3516.57774	0.05634
3515.29197	0.05601
3514.00620	0.05574
3512.72043	0.05567
3511.43467	0.05585
3510.14890	0.05627
3508.86313	0.05679
3507.57736	0.05729
3506.29159	0.05769
3505.00582	0.05789
3503.72005	0.05785
3502.43428	0.05767
3501.14852	0.05748
3499.86275	0.05742
3498.57698	0.05753
3497.29121	0.05791
3496.00544	0.05854
3494.71967	0.05924
3493.43390	0.05966
3492.14813	0.05957
3490.86236	0.05912
3489.57660	0.05869
3488.29083	0.05853
3487.00506	0.05862
3485.71929	0.05881
3484.43352	0.05916
3483.14775	0.05982
3481.86198	0.06079
3480.57621	0.06174
3479.29045	0.06225
3478.00468	0.06221
3476.71891	0.06188
3475.43314	0.06176
3474.14737	0.06216
3472.86160	0.06292
3471.57583	0.06357
3470.29006	0.06373
3469.00429	0.06339
3467.71853	0.06287
3466.43276	0.06252
3465.14699	0.06256
3463.86122	0.06297
3462.57545	0.06352
3461.28968	0.06389
3460.00391	0.06399
3458.71814	0.06405
3457.43238	0.06434
3456.14661	0.06476
3454.86084	0.06486
3453.57507	0.06449
3452.28930	0.06397
3451.00353	0.06380
3449.71776	0.06410
3448.43199	0.06457
3447.14622	0.06487
3445.86046	0.06495
3444.57469	0.06508
3443.28892	0.06545
3442.00315	0.06599
3440.71738	0.06639
3439.43161	0.06642
3438.14584	0.06616
3436.86007	0.06595
3435.57431	0.06607
3434.28854	0.06656
3433.00277	0.06721
3431.71700	0.06770
3430.43123	0.06779
3429.14546	0.06757
3427.85969	0.06739
3426.57392	0.06752
3425.28815	0.06783
3424.00239	0.06806
3422.71662	0.06811
3421.43085	0.06812
3420.14508	0.06809
3418.85931	0.06792
3417.57354	0.06760
3416.28777	0.06730
3415.00200	0.06717
3413.71624	0.06714
3412.43047	0.06719
3411.14470	0.06745
3409.85893	0.06801
3408.57316	0.06866
3407.28739	0.06899
3406.00162	0.06888
3404.71585	0.06866
3403.43008	0.06875
3402.14432	0.06922
3400.85855	0.06980
3399.57278	0.07020
3398.28701	0.07031
3397.00124	0.07018
3395.71547	0.06996
3394.42970	0.06984
3393.14393	0.06978
3391.85817	0.06963
3390.57240	0.06931
3389.28663	0.06901
3388.00086	0.06899
3386.71509	0.06930
3385.42932	0.06975
3384.14355	0.07009
3382.85778	0.07017
3381.57201	0.07001
3380.28625	0.06977
3379.00048	0.06961
3377.71471	0.06961
3376.42894	0.06976
3375.14317	0.06999
3373.85740	0.07012
3372.57163	0.07004
3371.28586	0.06985
3370.00010	0.06980
3368.71433	0.07004
3367.42856	0.07051
3366.14279	0.07101
3364.85702	0.07143
3363.57125	0.07167
3362.28548	0.07169
3360.99971	0.07148
3359.71394	0.07109
3358.42818	0.07066
3357.14241	0.07036
3355.85664	0.07043
3354.57087	0.07096
3353.28510	0.07167
3351.99933	0.07207
3350.71356	0.07199
3349.42779	0.07171
3348.14202	0.07165
3346.85626	0.07187
3345.57049	0.07207
3344.28472	0.07195
3342.99895	0.07149
3341.71318	0.07090
3340.42741	0.07036
3339.14164	0.06996
3337.85587	0.06970
3336.57011	0.06966
3335.28434	0.06979
3333.99857	0.06988
3332.71280	0.06975
3331.42703	0.06949
3330.14126	0.06940
3328.85549	0.06964
3327.56972	0.07009
3326.28395	0.07047
3324.99819	0.07062
3323.71242	0.07050
3322.42665	0.07021
3321.14088	0.06992
3319.85511	0.06975
3318.56934	0.06976
3317.28357	0.07001
3315.99780	0.07050
3314.71204	0.07106
3313.42627	0.07139
3312.14050	0.07134
3310.85473	0.07110
3309.56896	0.07094
3308.28319	0.07092
3306.99742	0.07088
3305.71165	0.07072
3304.42588	0.07056
3303.14012	0.07057
3301.85435	0.07078
3300.56858	0.07106
3299.28281	0.07123
3297.99704	0.07116
3296.71127	0.07081
3295.42550	0.07027
3294.13973	0.06980
3292.85397	0.06958
3291.56820	0.06968
3290.28243	0.06999
3288.99666	0.07038
3287.71089	0.07066
3286.42512	0.07063
3285.13935	0.07020
3283.85358	0.06959
3282.56781	0.06918
3281.28205	0.06928
3279.99628	0.06978
3278.71051	0.07031
3277.42474	0.07054
3276.13897	0.07045
3274.85320	0.07019
3273.56743	0.06991
3272.28166	0.06973
3270.99590	0.06970
3269.71013	0.06983
3268.42436	0.07007
3267.13859	0.07029
3265.85282	0.07035
3264.56705	0.07016
3263.28128	0.06979
3261.99551	0.06940
3260.70974	0.06912
3259.42398	0.06901
3258.13821	0.06916
3256.85244	0.06963
3255.56667	0.07030
3254.28090	0.07082
3252.99513	0.07084
3251.70936	0.07033
3250.42359	0.06958
3249.13783	0.06893
3247.85206	0.06855
3246.56629	0.06843
3245.28052	0.06850
3243.99475	0.06867
3242.70898	0.06882
3241.42321	0.06882
3240.13744	0.06853
3238.85167	0.06792
3237.56591	0.06721
3236.28014	0.06679
3234.99437	0.06696
3233.70860	0.06768
3232.42283	0.06851
3231.13706	0.06903
3229.85129	0.06907
3228.56552	0.06885
3227.27976	0.06861
3225.99399	0.06846
3224.70822	0.06830
3223.42245	0.06804
3222.13668	0.06774
3220.85091	0.06752
3219.56514	0.06741
3218.27937	0.06734
3216.99360	0.06724
3215.70784	0.06712
3214.42207	0.06693
3213.13630	0.06660
3211.85053	0.06614
3210.56476	0.06574
3209.27899	0.06558
3207.99322	0.06567
3206.70745	0.06582
3205.42169	0.06590
3204.13592	0.06589
3202.85015	0.06584
3201.56438	0.06581
3200.27861	0.06583
3198.99284	0.06591
3197.70707	0.06603
3196.42130	0.06609
3195.13553	0.06600
3193.84977	0.06573
3192.56400	0.06533
3191.27823	0.06491
3189.99246	0.06456
3188.70669	0.06431
3187.42092	0.06422
3186.13515	0.06438
3184.84938	0.06475
3183.56362	0.06517
3182.27785	0.06553
3180.99208	0.06585
3179.70631	0.06611
3178.42054	0.06612
3177.13477	0.06576
3175.84900	0.06520
3174.56323	0.06480
3173.27746	0.06473
3171.99170	0.06484
3170.70593	0.06485
3169.42016	0.06465
3168.13439	0.06430
3166.84862	0.06395
3165.56285	0.06374
3164.27708	0.06376
3162.99131	0.06395
3161.70555	0.06408
3160.41978	0.06395
3159.13401	0.06354
3157.84824	0.06301
3156.56247	0.06257
3155.27670	0.06233
3153.99093	0.06230
3152.70516	0.06238
3151.41939	0.06242
3150.13363	0.06235
3148.84786	0.06223
3147.56209	0.06221
3146.27632	0.06242
3144.99055	0.06279
3143.70478	0.06312
3142.41901	0.06322
3141.13324	0.06311
3139.84748	0.06291
3138.56171	0.06273
3137.27594	0.06253
3135.99017	0.06229
3134.70440	0.06205
3133.41863	0.06191
3132.13286	0.06189
3130.84709	0.06189
3129.56132	0.06181
3128.27556	0.06163
3126.98979	0.06147
3125.70402	0.06150
3124.41825	0.06173
3123.13248	0.06195
3121.84671	0.06199
3120.56094	0.06182
3119.27517	0.06159
3117.98940	0.06134
3116.70364	0.06103
3115.41787	0.06066
3114.13210	0.06038
3112.84633	0.06034
3111.56056	0.06048
3110.27479	0.06059
3108.98902	0.06049
3107.70325	0.06025
3106.41749	0.06004
3105.13172	0.05986
3103.84595	0.05965
3102.56018	0.05935
3101.27441	0.05906
3099.98864	0.05883
3098.70287	0.05862
3097.41710	0.05837
3096.13133	0.05820
3094.84557	0.05831
3093.55980	0.05869
3092.27403	0.05908
3090.98826	0.05918
3089.70249	0.05896
3088.41672	0.05868
3087.13095	0.05854
3085.84518	0.05853
3084.55942	0.05852
3083.27365	0.05842
3081.98788	0.05834
3080.70211	0.05839
3079.41634	0.05849
3078.13057	0.05844
3076.84480	0.05820
3075.55903	0.05789
3074.27326	0.05767
3072.98750	0.05762
3071.70173	0.05765
3070.41596	0.05761
3069.13019	0.05742
3067.84442	0.05713
3066.55865	0.05686
3065.27288	0.05665
3063.98711	0.05646
3062.70135	0.05618
3061.41558	0.05585
3060.12981	0.05563
3058.84404	0.05566
3057.55827	0.05591
3056.27250	0.05616
3054.98673	0.05621
3053.70096	0.05607
3052.41519	0.05590
3051.12943	0.05577
3049.84366	0.05559
3048.55789	0.05528
3047.27212	0.05486
3045.98635	0.05447
3044.70058	0.05424
3043.41481	0.05424
3042.12904	0.05442
3040.84328	0.05466
3039.55751	0.05478
3038.27174	0.05463
3036.98597	0.05423
3035.70020	0.05378
3034.41443	0.05342
3033.12866	0.05317
3031.84289	0.05302
3030.55712	0.05305
3029.27136	0.05328
3027.98559	0.05358
3026.69982	0.05372
3025.41405	0.05358
3024.12828	0.05325
3022.84251	0.05292
3021.55674	0.05270
3020.27097	0.05257
3018.98521	0.05248
3017.69944	0.05236
3016.41367	0.05221
3015.12790	0.05213
3013.84213	0.05219
3012.55636	0.05237
3011.27059	0.05254
3009.98482	0.05255
3008.69905	0.05235
3007.41329	0.05199
3006.12752	0.05157
3004.84175	0.05122
3003.55598	0.05105
3002.27021	0.05112
3000.98444	0.05141
2999.69867	0.05180
2998.41290	0.05210
2997.12714	0.05215
2995.84137	0.05199
2994.55560	0.05183
2993.26983	0.05176
2991.98406	0.05173
2990.69829	0.05173
2989.41252	0.05185
2988.12675	0.05211
2986.84098	0.05229
2985.55522	0.05222
2984.26945	0.05195
2982.98368	0.05173
2981.69791	0.05165
2980.41214	0.05169
2979.12637	0.05179
2977.84060	0.05198
2976.55483	0.05228
2975.26907	0.05265
2973.98330	0.05301
2972.69753	0.05337
2971.41176	0.05384
2970.12599	0.05452
2968.84022	0.05538
2967.55445	0.05623
2966.26868	0.05683
2964.98291	0.05706
2963.69715	0.05701
2962.41138	0.05686
2961.12561	0.05680
2959.83984	0.05695
2958.55407	0.05733
2957.26830	0.05788
2955.98253	0.05839
2954.69676	0.05877
2953.41100	0.05899
2952.12523	0.05912
2950.83946	0.05916
2949.55369	0.05915
2948.26792	0.05912
2946.98215	0.05909
2945.69638	0.05898
2944.41061	0.05879
2943.12484	0.05851
2941.83908	0.05817
2940.55331	0.05781
2939.26754	0.05760
2937.98177	0.05767
2936.69600	0.05802
2935.41023	0.05849
2934.12446	0.05893
2932.83869	0.05920
2931.55293	0.05924
2930.26716	0.05908
2928.98139	0.05888
2927.69562	0.05887
2926.40985	0.05907
2925.12408	0.05929
2923.83831	0.05929
2922.55254	0.05908
2921.26677	0.05882
2919.98101	0.05860
2918.69524	0.05839
2917.40947	0.05811
2916.12370	0.05778
2914.83793	0.05735
2913.55216	0.05680
2912.26639	0.05629
2910.98062	0.05606
2909.69486	0.05615
2908.40909	0.05628
2907.12332	0.05612
2905.83755	0.05561
2904.55178	0.05500
2903.26601	0.05460
2901.98024	0.05450
2900.69447	0.05459
2899.40870	0.05468
2898.12294	0.05462
2896.83717	0.05436
2895.55140	0.05388
2894.26563	0.05327
2892.97986	0.05261
2891.69409	0.05200
2890.40832	0.05147
2889.12255	0.05103
2887.83678	0.05070
2886.55102	0.05047
2885.26525	0.05026
2883.97948	0.05003
2882.69371	0.04981
2881.40794	0.04969
2880.12217	0.04973
2878.83640	0.04993
2877.55063	0.05022
2876.26487	0.05055
2874.97910	0.05088
2873.69333	0.05115
2872.40756	0.05134
2871.12179	0.05150
2869.83602	0.05164
2868.55025	0.05171
2867.26448	0.05164
2865.97871	0.05148
2864.69295	0.05133
2863.40718	0.05128
2862.12141	0.05122
2860.83564	0.05097
2859.54987	0.05049
2858.26410	0.04991
2856.97833	0.04943
2855.69256	0.04911
2854.40680	0.04888
2853.12103	0.04865
2851.83526	0.04838
2850.54949	0.04806
2849.26372	0.04768
2847.97795	0.04723
2846.69218	0.04670
2845.40641	0.04622
2844.12064	0.04590
2842.83488	0.04572
2841.54911	0.04548
2840.26334	0.04508
2838.97757	0.04467
2837.69180	0.04444
2836.40603	0.04436
2835.12026	0.04425
2833.83449	0.04398
2832.54873	0.04358
2831.26296	0.04316
2829.97719	0.04274
2828.69142	0.04235
2827.40565	0.04204
2826.11988	0.04191
2824.83411	0.04190
2823.54834	0.04183
2822.26257	0.04160
2820.97681	0.04130
2819.69104	0.04109
2818.40527	0.04109
2817.11950	0.04120
2815.83373	0.04126
2814.54796	0.04117
2813.26219	0.04097
2811.97642	0.04071
2810.69066	0.04040
2809.40489	0.04008
2808.11912	0.03993
2806.83335	0.04003
2805.54758	0.04023
2804.26181	0.04029
2802.97604	0.04009
2801.69027	0.03976
2800.40450	0.03951
2799.11874	0.03943
2797.83297	0.03945
2796.54720	0.03947
2795.26143	0.03943
2793.97566	0.03932
2792.68989	0.03919
2791.40412	0.03904
2790.11835	0.03885
2788.83259	0.03858
2787.54682	0.03825
2786.26105	0.03799
2784.97528	0.03793
2783.68951	0.03811
2782.40374	0.03837
2781.11797	0.03855
2779.83220	0.03858
2778.54643	0.03853
2777.26067	0.03851
2775.97490	0.03851
2774.68913	0.03845
2773.40336	0.03823
2772.11759	0.03787
2770.83182	0.03755
2769.54605	0.03745
2768.26028	0.03754
2766.97452	0.03764
2765.68875	0.03757
2764.40298	0.03737
2763.11721	0.03714
2761.83144	0.03696
2760.54567	0.03682
2759.25990	0.03672
2757.97413	0.03667
2756.68836	0.03670
2755.40260	0.03676
2754.11683	0.03683
2752.83106	0.03685
2751.54529	0.03681
2750.25952	0.03674
2748.97375	0.03674
2747.68798	0.03681
2746.40221	0.03681
2745.11645	0.03658
2743.83068	0.03617
2742.54491	0.03582
2741.25914	0.03578
2739.97337	0.03605
2738.68760	0.03636
2737.40183	0.03643
2736.11606	0.03620
2734.83029	0.03584
2733.54453	0.03560
2732.25876	0.03555
2730.97299	0.03562
2729.68722	0.03563
2728.40145	0.03546
2727.11568	0.03511
2725.82991	0.03473
2724.54414	0.03453
2723.25838	0.03466
2721.97261	0.03506
2720.68684	0.03550
2719.40107	0.03576
2718.11530	0.03572
2716.82953	0.03543
2715.54376	0.03500
2714.25799	0.03459
2712.97222	0.03431
2711.68646	0.03418
2710.40069	0.03414
2709.11492	0.03410
2707.82915	0.03402
2706.54338	0.03392
2705.25761	0.03385
2703.97184	0.03385
2702.68607	0.03386
2701.40031	0.03383
2700.11454	0.03373
2698.82877	0.03362
2697.54300	0.03359
2696.25723	0.03368
2694.97146	0.03387
2693.68569	0.03404
2692.39992	0.03408
2691.11415	0.03398
2689.82839	0.03381
2688.54262	0.03368
2687.25685	0.03365
2685.97108	0.03373
2684.68531	0.03384
2683.39954	0.03388
2682.11377	0.03381
2680.82800	0.03369
2679.54224	0.03358
2678.25647	0.03345
2676.97070	0.03325
2675.68493	0.03303
2674.39916	0.03288
2673.11339	0.03280
2671.82762	0.03269
2670.54185	0.03254
2669.25608	0.03244
2667.97032	0.03247
2666.68455	0.03259
2665.39878	0.03267
2664.11301	0.03269
2662.82724	0.03267
2661.54147	0.03264
2660.25570	0.03257
2658.96993	0.03245
2657.68417	0.03233
2656.39840	0.03226
2655.11263	0.03220
2653.82686	0.03207
2652.54109	0.03183
2651.25532	0.03158
2649.96955	0.03147
2648.68378	0.03158
2647.39801	0.03186
2646.11225	0.03216
2644.82648	0.03230
2643.54071	0.03221
2642.25494	0.03196
2640.96917	0.03170
2639.68340	0.03150
2638.39763	0.03132
2637.11186	0.03111
2635.82609	0.03085
2634.54033	0.03061
2633.25456	0.03048
2631.96879	0.03057
2630.68302	0.03089
2629.39725	0.03129
2628.11148	0.03148
2626.82571	0.03120
2625.53994	0.03050
2624.25418	0.02972
2622.96841	0.02920
2621.68264	0.02907
2620.39687	0.02916
2619.11110	0.02926
2617.82533	0.02920
2616.53956	0.02899
2615.25379	0.02868
2613.96802	0.02835
2612.68226	0.02805
2611.39649	0.02785
2610.11072	0.02780
2608.82495	0.02791
2607.53918	0.02806
2606.25341	0.02817
2604.96764	0.02822
2603.68187	0.02829
2602.39611	0.02839
2601.11034	0.02844
2599.82457	0.02828
2598.53880	0.02789
2597.25303	0.02741
2595.96726	0.02705
2594.68149	0.02690
2593.39572	0.02685
2592.10995	0.02676
2590.82419	0.02661
2589.53842	0.02653
2588.25265	0.02667
2586.96688	0.02710
2585.68111	0.02769
2584.39534	0.02811
2583.10957	0.02814
2581.82380	0.02777
2580.53804	0.02716
2579.25227	0.02656
2577.96650	0.02615
2576.68073	0.02597
2575.39496	0.02590
2574.10919	0.02582
2572.82342	0.02570
2571.53765	0.02565
2570.25188	0.02574
2568.96612	0.02596
2567.68035	0.02623
2566.39458	0.02643
2565.10881	0.02654
2563.82304	0.02653
2562.53727	0.02642
2561.25150	0.02620
2559.96573	0.02593
2558.67997	0.02571
2557.39420	0.02563
2556.10843	0.02570
2554.82266	0.02579
2553.53689	0.02576
2552.25112	0.02566
2550.96535	0.02559
2549.67958	0.02558
2548.39381	0.02552
2547.10805	0.02537
2545.82228	0.02522
2544.53651	0.02519
2543.25074	0.02532
2541.96497	0.02560
2540.67920	0.02590
2539.39343	0.02598
2538.10766	0.02569
2536.82190	0.02507
2535.53613	0.02441
2534.25036	0.02401
2532.96459	0.02397
2531.67882	0.02413
2530.39305	0.02426
2529.10728	0.02426
2527.82151	0.02419
2526.53574	0.02410
2525.24998	0.02404
2523.96421	0.02409
2522.67844	0.02430
2521.39267	0.02455
2520.10690	0.02458
2518.82113	0.02429
2517.53536	0.02384
2516.24959	0.02343
2514.96383	0.02312
2513.67806	0.02288
2512.39229	0.02279
2511.10652	0.02302
2509.82075	0.02367
2508.53498	0.02449
2507.24921	0.02509
2505.96344	0.02529
2504.67767	0.02521
2503.39191	0.02501
2502.10614	0.02469
2500.82037	0.02426
2499.53460	0.02384
2498.24883	0.02364
2496.96306	0.02368
2495.67729	0.02381
2494.39152	0.02385
2493.10576	0.02380
2491.81999	0.02374
2490.53422	0.02369
2489.24845	0.02359
2487.96268	0.02346
2486.67691	0.02341
2485.39114	0.02355
2484.10537	0.02380
2482.81960	0.02401
2481.53384	0.02409
2480.24807	0.02405
2478.96230	0.02395
2477.67653	0.02379
2476.39076	0.02357
2475.10499	0.02328
2473.81922	0.02293
2472.53345	0.02264
2471.24769	0.02258
2469.96192	0.02286
2468.67615	0.02333
2467.39038	0.02370
2466.10461	0.02378
2464.81884	0.02361
2463.53307	0.02340
2462.24730	0.02329
2460.96153	0.02329
2459.67577	0.02329
2458.39000	0.02321
2457.10423	0.02309
2455.81846	0.02300
2454.53269	0.02299
2453.24692	0.02301
2451.96115	0.02297
2450.67538	0.02285
2449.38962	0.02265
2448.10385	0.02244
2446.81808	0.02234
2445.53231	0.02246
2444.24654	0.02271
2442.96077	0.02284
2441.67500	0.02274
2440.38923	0.02256
2439.10346	0.02252
2437.81770	0.02262
2436.53193	0.02271
2435.24616	0.02269
2433.96039	0.02255
2432.67462	0.02227
2431.38885	0.02191
2430.10308	0.02163
2428.81731	0.02158
2427.53155	0.02175
2426.24578	0.02191
2424.96001	0.02191
2423.67424	0.02188
2422.38847	0.02206
2421.10270	0.02251
2419.81693	0.02297
2418.53116	0.02310
2417.24539	0.02282
2415.95963	0.02240
2414.67386	0.02217
2413.38809	0.02218
2412.10232	0.02224
2410.81655	0.02223
2409.53078	0.02216
2408.24501	0.02210
2406.95924	0.02203
2405.67347	0.02195
2404.38771	0.02194
2403.10194	0.02201
2401.81617	0.02204
2400.53040	0.02191
2399.24463	0.02178
2397.95886	0.02171
2396.67309	0.02174
2395.38732	0.02185
2394.10156	0.02194
2392.81579	0.02197
2391.53002	0.02194
2390.24425	0.02187
2388.95848	0.02174
2387.67271	0.02155
2386.38694	0.02134
2385.10117	0.02118
2383.81540	0.02115
2382.52964	0.02115
2381.24387	0.02100
2379.95810	0.02056
2378.67233	0.01987
2377.38656	0.01911
2376.10079	0.01846
2374.81502	0.01792
2373.52925	0.01740
2372.24349	0.01686
2370.95772	0.01632
2369.67195	0.01572
2368.38618	0.01499
2367.10041	0.01416
2365.81464	0.01340
2364.52887	0.01290
2363.24310	0.01272
2361.95733	0.01283
2360.67157	0.01315
2359.38580	0.01362
2358.10003	0.01421
2356.81426	0.01495
2355.52849	0.01588
2354.24272	0.01697
2352.95695	0.01803
2351.67118	0.01881
2350.38542	0.01912
2349.09965	0.01893
2347.81388	0.01840
2346.52811	0.01776
2345.24234	0.01718
2343.95657	0.01676
2342.67080	0.01647
2341.38503	0.01627
2340.09926	0.01609
2338.81350	0.01592
2337.52773	0.01578
2336.24196	0.01572
2334.95619	0.01574
2333.67042	0.01575
2332.38465	0.01569
2331.09888	0.01558
2329.81311	0.01557
2328.52735	0.01586
2327.24158	0.01654
2325.95581	0.01751
2324.67004	0.01849
2323.38427	0.01921
2322.09850	0.01961
2320.81273	0.01980
2319.52696	0.01997
2318.24119	0.02024
2316.95543	0.02059
2315.66966	0.02090
2314.38389	0.02106
2313.09812	0.02108
2311.81235	0.02109
2310.52658	0.02114
2309.24081	0.02120
2307.95504	0.02115
2306.66928	0.02095
2305.38351	0.02064
2304.09774	0.02030
2302.81197	0.02009
2301.52620	0.02010
2300.24043	0.02030
2298.95466	0.02050
2297.66889	0.02056
2296.38312	0.02043
2295.09736	0.02020
2293.81159	0.02000
2292.52582	0.01991
2291.24005	0.02004
2289.95428	0.02042
2288.66851	0.02093
2287.38274	0.02132
2286.09697	0.02135
2284.81121	0.02099
2283.52544	0.02049
2282.23967	0.02013
2280.95390	0.01995
2279.66813	0.01972
2278.38236	0.01930
2277.09659	0.01890
2275.81082	0.01875
2274.52505	0.01884
2273.23929	0.01895
2271.95352	0.01902
2270.66775	0.01920
2269.38198	0.01951
2268.09621	0.01978
2266.81044	0.01983
2265.52467	0.01967
2264.23890	0.01940
2262.95314	0.01910
2261.66737	0.01875
2260.38160	0.01837
2259.09583	0.01802
2257.81006	0.01771
2256.52429	0.01733
2255.23852	0.01683
2253.95275	0.01638
2252.66698	0.01619
2251.38122	0.01622
2250.09545	0.01629
2248.80968	0.01631
2247.52391	0.01580
2246.23814	0.01559
2244.95237	0.01570
2243.66660	0.01583
2242.38083	0.01559
2241.09507	0.01489
2239.80930	0.01401
2238.52353	0.01342
2237.23776	0.01326
2235.95199	0.01331
2234.66622	0.01329
2233.38045	0.01321
2232.09468	0.01313
2230.80891	0.01308
2229.52315	0.01313
2228.23738	0.01351
2226.95161	0.01426
2225.66584	0.01508
2224.38007	0.01558
2223.09430	0.01576
2221.80853	0.01579
2220.52276	0.01572
2219.23700	0.01548
2217.95123	0.01527
2216.66546	0.01537
2215.37969	0.01569
2214.09392	0.01570
2212.80815	0.01505
2211.52238	0.01395
2210.23661	0.01292
2208.95084	0.01243
2207.66508	0.01264
2206.37931	0.01314
2205.09354	0.01318
2203.80777	0.01241
2202.52200	0.01142
2201.23623	0.01119
2199.95046	0.01201
2198.66469	0.01316
2197.37893	0.01366
2196.09316	0.01311
2194.80739	0.01193
2193.52162	0.01089
2192.23585	0.01060
2190.95008	0.01124
2189.66431	0.01249
2188.37854	0.01372
2187.09277	0.01429
2185.80701	0.01400
2184.52124	0.01318
2183.23547	0.01230
2181.94970	0.01152
2180.66393	0.01077
2179.37816	0.01004
2178.09239	0.00948
2176.80662	0.00925
2175.52085	0.00950
2174.23509	0.01012
2172.94932	0.01067
2171.66355	0.01062
2170.37778	0.00968
2169.09201	0.00810
2167.80624	0.00661
2166.52047	0.00610
2165.23470	0.00681
2163.94894	0.00792
2162.66317	0.00821
2161.37740	0.00724
2160.09163	0.00574
2158.80586	0.00474
2157.52009	0.00467
2156.23432	0.00523
2154.94855	0.00589
2153.66278	0.00625
2152.37702	0.00626
2151.09125	0.00618
2149.80548	0.00628
2148.51971	0.00674
2147.23394	0.00757
2145.94817	0.00867
2144.66240	0.00967
2143.37663	0.01007
2142.09087	0.00958
2140.80510	0.00860
2139.51933	0.00789
2138.23356	0.00793
2136.94779	0.00846
2135.66202	0.00897
2134.37625	0.00941
2133.09048	0.01008
2131.80471	0.01091
2130.51895	0.01145
2129.23318	0.01147
2127.94741	0.01125
2126.66164	0.01117
2125.37587	0.01124
2124.09010	0.01124
2122.80433	0.01110
2121.51856	0.01095
2120.23280	0.01109
2118.94703	0.01171
2117.66126	0.01274
2116.37549	0.01365
2115.08972	0.01384
2113.80395	0.01325
2112.51818	0.01237
2111.23241	0.01175
2109.94664	0.01148
2108.66088	0.01142
2107.37511	0.01155
2106.08934	0.01181
2104.80357	0.01200
2103.51780	0.01197
2102.23203	0.01177
2100.94626	0.01153
2099.66049	0.01168
2098.37473	0.01127
2097.08896	0.01045
2095.80319	0.00979
2094.51742	0.00958
2093.23165	0.00981
2091.94588	0.01021
2090.66011	0.01047
2089.37434	0.01048
2088.08857	0.01041
2086.80281	0.01051
2085.51704	0.01082
2084.23127	0.01119
2082.94550	0.01155
2081.65973	0.01190
2080.37396	0.01212
2079.08819	0.01198
2077.80242	0.01142
2076.51666	0.01080
2075.23089	0.01044
2073.94512	0.01032
2072.65935	0.01009
2071.37358	0.00962
2070.08781	0.00907
2068.80204	0.00870
2067.51627	0.00857
2066.23050	0.00862
2064.94474	0.00873
2063.65897	0.00881
2062.37320	0.00875
2061.08743	0.00856
2059.80166	0.00838
2058.51589	0.00832
2057.23012	0.00830
2055.94435	0.00817
2054.65859	0.00790
2053.37282	0.00764
2052.08705	0.00748
2050.80128	0.00742
2049.51551	0.00752
2048.22974	0.00789
2046.94397	0.00844
2045.65820	0.00881
2044.37243	0.00872
2043.08667	0.00829
2041.80090	0.00773
2040.51513	0.00691
2039.22936	0.00547
2037.94359	0.00341
2036.65782	0.00139
2035.37205	0.00038
2034.08628	0.00082
2032.80052	0.00226
2031.51475	0.00382
2030.22898	0.00496
2028.94321	0.00580
2027.65744	0.00663
2026.37167	0.00731
2025.08590	0.00737
2023.80013	0.00663
2022.51436	0.00550
2021.22860	0.00460
2019.94283	0.00421
2018.65706	0.00413
2017.37129	0.00403
2016.08552	0.00375
2014.79975	0.00350
2013.51398	0.00360
2012.22821	0.00417
2010.94245	0.00494
2009.65668	0.00547
2008.37091	0.00570
2007.08514	0.00590
2005.79937	0.00633
2004.51360	0.00690
2003.22783	0.00739
2001.94206	0.00771
2000.65629	0.00790
1999.37053	0.00806
1998.08476	0.00828
1996.79899	0.00858
1995.51322	0.00884
1994.22745	0.00886
1992.94168	0.00865
1991.65591	0.00841
1990.37014	0.00839
1989.08438	0.00861
1987.79861	0.00900
1986.51284	0.00952
1985.22707	0.01020
1983.94130	0.01102
1982.65553	0.01185
1981.36976	0.01250
1980.08399	0.01271
1978.79822	0.01226
1977.51246	0.01118
1976.22669	0.00981
1974.94092	0.00867
1973.65515	0.00823
1972.36938	0.00862
1971.08361	0.00951
1969.79784	0.01031
1968.51207	0.01052
1967.22631	0.01008
1965.94054	0.00930
1964.65477	0.00849
1963.36900	0.00774
1962.08323	0.00707
1960.79746	0.00660
1959.51169	0.00652
1958.22592	0.00679
1956.94015	0.00723
1955.65439	0.00771
1954.36862	0.00824
1953.08285	0.00882
1951.79708	0.00921
1950.51131	0.00926
1949.22554	0.00913
1947.93977	0.00920
1946.65400	0.00960
1945.36823	0.01006
1944.08247	0.01024
1942.79670	0.01012
1941.51093	0.01004
1940.22516	0.01021
1938.93939	0.01040
1937.65362	0.01024
1936.36785	0.00971
1935.08208	0.00926
1933.79632	0.00930
1932.51055	0.00988
1931.22478	0.01067
1929.93901	0.01123
1928.65324	0.01132
1927.36747	0.01097
1926.08170	0.01053
1924.79593	0.01032
1923.51016	0.01046
1922.22440	0.01078
1920.93863	0.01108
1919.65286	0.01121
1918.36709	0.01112
1917.08132	0.01088
1915.79555	0.01075
1914.50978	0.01099
1913.22401	0.01161
1911.93825	0.01236
1910.65248	0.01287
1909.36671	0.01290
1908.08094	0.01253
1906.79517	0.01213
1905.50940	0.01210
1904.22363	0.01252
1902.93786	0.01308
1901.65209	0.01346
1900.36633	0.01355
1899.08056	0.01344
1897.79479	0.01323
1896.50902	0.01289
1895.22325	0.01240
1893.93748	0.01194
1892.65171	0.01174
1891.36594	0.01189
1890.08018	0.01216
1888.79441	0.01225
1887.50864	0.01208
1886.22287	0.01178
1884.93710	0.01152
1883.65133	0.01135
1882.36556	0.01127
1881.07979	0.01130
1879.79402	0.01145
1878.50826	0.01171
1877.22249	0.01201
1875.93672	0.01226
1874.65095	0.01236
1873.36518	0.01231
1872.07941	0.01219
1870.79364	0.01212
1869.50787	0.01209
1868.22211	0.01205
1866.93634	0.01201
1865.65057	0.01204
1864.36480	0.01208
1863.07903	0.01197
1861.79326	0.01173
1860.50749	0.01157
1859.22172	0.01167
1857.93595	0.01194
1856.65019	0.01215
1855.36442	0.01219
1854.07865	0.01219
1852.79288	0.01231
1851.50711	0.01249
1850.22134	0.01251
1848.93557	0.01225
1847.64980	0.01185
1846.36404	0.01159
1845.07827	0.01162
1843.79250	0.01181
1842.50673	0.01198
1841.22096	0.01207
1839.93519	0.01212
1838.64942	0.01219
1837.36365	0.01228
1836.07788	0.01236
1834.79212	0.01238
1833.50635	0.01232
1832.22058	0.01227
1830.93481	0.01224
1829.64904	0.01219
1828.36327	0.01212
1827.07750	0.01214
1825.79173	0.01230
1824.50597	0.01252
1823.22020	0.01269
1821.93443	0.01281
1820.64866	0.01288
1819.36289	0.01290
1818.07712	0.01283
1816.79135	0.01270
1815.50558	0.01258
1814.21981	0.01249
1812.93405	0.01242
1811.64828	0.01233
1810.36251	0.01222
1809.07674	0.01218
1807.79097	0.01229
1806.50520	0.01251
1805.21943	0.01271
1803.93366	0.01284
1802.64790	0.01290
1801.36213	0.01293
1800.07636	0.01295
1798.79059	0.01299
1797.50482	0.01303
1796.21905	0.01310
1794.93328	0.01321
1793.64751	0.01338
1792.36174	0.01348
1791.07598	0.01343
1789.79021	0.01330
1788.50444	0.01324
1787.21867	0.01330
1785.93290	0.01342
1784.64713	0.01351
1783.36136	0.01353
1782.07559	0.01353
1780.78983	0.01353
1779.50406	0.01349
1778.21829	0.01339
1776.93252	0.01323
1775.64675	0.01311
1774.36098	0.01314
1773.07521	0.01330
1771.78944	0.01349
1770.50367	0.01371
1769.21791	0.01399
1767.93214	0.01422
1766.64637	0.01428
1765.36060	0.01420
1764.07483	0.01417
1762.78906	0.01424
1761.50329	0.01429
1760.21752	0.01431
1758.93176	0.01433
1757.64599	0.01439
1756.36022	0.01440
1755.07445	0.01437
1753.78868	0.01438
1752.50291	0.01444
1751.21714	0.01445
1749.93137	0.01438
1748.64560	0.01437
1747.35984	0.01451
1746.07407	0.01469
1744.78830	0.01475
1743.50253	0.01466
1742.21676	0.01454
1740.93099	0.01454
1739.64522	0.01461
1738.35945	0.01467
1737.07369	0.01477
1735.78792	0.01503
1734.50215	0.01531
1733.21638	0.01546
1731.93061	0.01554
1730.64484	0.01576
1729.35907	0.01610
1728.07330	0.01640
1726.78753	0.01657
1725.50177	0.01668
1724.21600	0.01676
1722.93023	0.01678
1721.64446	0.01675
1720.35869	0.01681
1719.07292	0.01702
1717.78715	0.01728
1716.50138	0.01750
1715.21561	0.01773
1713.92985	0.01805
1712.64408	0.01845
1711.35831	0.01884
1710.07254	0.01921
1708.78677	0.01955
1707.50100	0.01987
1706.21523	0.02010
1704.92946	0.02016
1703.64370	0.02019
1702.35793	0.02041
1701.07216	0.02076
1699.78639	0.02096
1698.50062	0.02111
1697.21485	0.02151
1695.92908	0.02211
1694.64331	0.02259
1693.35754	0.02294
1692.07178	0.02335
1690.78601	0.02377
1689.50024	0.02399
1688.21447	0.02408
1686.92870	0.02428
1685.64293	0.02465
1684.35716	0.02498
1683.07139	0.02514
1681.78563	0.02534
1680.49986	0.02569
1679.21409	0.02609
1677.92832	0.02648
1676.64255	0.02691
1675.35678	0.02731
1674.07101	0.02756
1672.78524	0.02771
1671.49947	0.02790
1670.21371	0.02816
1668.92794	0.02842
1667.64217	0.02861
1666.35640	0.02881
1665.07063	0.02907
1663.78486	0.02940
1662.49909	0.02972
1661.21332	0.03002
1659.92756	0.03025
1658.64179	0.03036
1657.35602	0.03033
1656.07025	0.03034
1654.78448	0.03057
1653.49871	0.03086
1652.21294	0.03088
1650.92717	0.03071
1649.64140	0.03075
1648.35564	0.03111
1647.06987	0.03155
1645.78410	0.03182
1644.49833	0.03195
1643.21256	0.03208
1641.92679	0.03225
1640.64102	0.03239
1639.35525	0.03249
1638.06949	0.03266
1636.78372	0.03291
1635.49795	0.03312
1634.21218	0.03321
1632.92641	0.03327
1631.64064	0.03343
1630.35487	0.03369
1629.06910	0.03391
1627.78333	0.03401
1626.49757	0.03403
1625.21180	0.03409
1623.92603	0.03423
1622.64026	0.03437
1621.35449	0.03445
1620.06872	0.03455
1618.78295	0.03479
1617.49718	0.03511
1616.21142	0.03533
1614.92565	0.03543
1613.63988	0.03562
1612.35411	0.03595
1611.06834	0.03631
1609.78257	0.03660
1608.49680	0.03684
1607.21103	0.03707
1605.92526	0.03731
1604.63950	0.03757
1603.35373	0.03784
1602.06796	0.03813
1600.78219	0.03841
1599.49642	0.03864
1598.21065	0.03879
1596.92488	0.03889
1595.63911	0.03899
1594.35335	0.03914
1593.06758	0.03935
1591.78181	0.03956
1590.49604	0.03975
1589.21027	0.03990
1587.92450	0.04002
1586.63873	0.04012
1585.35296	0.04023
1584.06719	0.04040
1582.78143	0.04060
1581.49566	0.04076
1580.20989	0.04082
1578.92412	0.04089
1577.63835	0.04109
1576.35258	0.04136
1575.06681	0.04153
1573.78104	0.04165
1572.49528	0.04191
1571.20951	0.04230
1569.92374	0.04267
1568.63797	0.04292
1567.35220	0.04312
1566.06643	0.04329
1564.78066	0.04336
1563.49489	0.04329
1562.20912	0.04326
1560.92336	0.04341
1559.63759	0.04365
1558.35182	0.04376
1557.06605	0.04383
1555.78028	0.04407
1554.49451	0.04449
1553.20874	0.04485
1551.92297	0.04506
1550.63721	0.04519
1549.35144	0.04524
1548.06567	0.04522
1546.77990	0.04514
1545.49413	0.04496
1544.20836	0.04465
1542.92259	0.04432
1541.63682	0.04416
1540.35105	0.04417
1539.06529	0.04418
1537.77952	0.04411
1536.49375	0.04415
1535.20798	0.04439
1533.92221	0.04471
1532.63644	0.04495
1531.35067	0.04514
1530.06490	0.04540
1528.77914	0.04575
1527.49337	0.04612
1526.20760	0.04644
1524.92183	0.04676
1523.63606	0.04725
1522.35029	0.04797
1521.06452	0.04878
1519.77875	0.04959
1518.49298	0.05049
1517.20722	0.05154
1515.92145	0.05269
1514.63568	0.05387
1513.34991	0.05509
1512.06414	0.05624
1510.77837	0.05729
1509.49260	0.05836
1508.20683	0.05961
1506.92107	0.06100
1505.63530	0.06232
1504.34953	0.06352
1503.06376	0.06468
1501.77799	0.06580
1500.49222	0.06682
1499.20645	0.06775
1497.92068	0.06868
1496.63491	0.06958
1495.34915	0.07035
1494.06338	0.07100
1492.77761	0.07168
1491.49184	0.07245
1490.20607	0.07329
1488.92030	0.07419
1487.63453	0.07517
1486.34876	0.07624
1485.06299	0.07736
1483.77723	0.07852
1482.49146	0.07967
1481.20569	0.08076
1479.91992	0.08179
1478.63415	0.08278
1477.34838	0.08374
1476.06261	0.08466
1474.77684	0.08556
1473.49108	0.08644
1472.20531	0.08723
1470.91954	0.08785
1469.63377	0.08833
1468.34800	0.08872
1467.06223	0.08907
1465.77646	0.08936
1464.49069	0.08958
1463.20492	0.08976
1461.91916	0.08998
1460.63339	0.09031
1459.34762	0.09078
1458.06185	0.09134
1456.77608	0.09183
1455.49031	0.09221
1454.20454	0.09262
1452.91877	0.09314
1451.63301	0.09366
1450.34724	0.09405
1449.06147	0.09431
1447.77570	0.09443
1446.48993	0.09441
1445.20416	0.09424
1443.91839	0.09395
1442.63262	0.09355
1441.34685	0.09309
1440.06109	0.09270
1438.77532	0.09255
1437.48955	0.09268
1436.20378	0.09295
1434.91801	0.09330
1433.63224	0.09382
1432.34647	0.09459
1431.06070	0.09559
1429.77494	0.09678
1428.48917	0.09815
1427.20340	0.09971
1425.91763	0.10139
1424.63186	0.10303
1423.34609	0.10450
1422.06032	0.10586
1420.77455	0.10719
1419.48878	0.10843
1418.20302	0.10946
1416.91725	0.11025
1415.63148	0.11088
1414.34571	0.11137
1413.05994	0.11164
1411.77417	0.11162
1410.48840	0.11128
1409.20263	0.11064
1407.91687	0.10974
1406.63110	0.10863
1405.34533	0.10730
1404.05956	0.10575
1402.77379	0.10398
1401.48802	0.10204
1400.20225	0.09994
1398.91648	0.09770
1397.63071	0.09541
1396.34495	0.09314
1395.05918	0.09089
1393.77341	0.08861
1392.48764	0.08626
1391.20187	0.08391
1389.91610	0.08158
1388.63033	0.07929
1387.34456	0.07702
1386.05880	0.07479
1384.77303	0.07261
1383.48726	0.07048
1382.20149	0.06836
1380.91572	0.06625
1379.62995	0.06415
1378.34418	0.06203
1377.05841	0.05989
1375.77264	0.05776
1374.48688	0.05564
1373.20111	0.05357
1371.91534	0.05157
1370.62957	0.04970
1369.34380	0.04795
1368.05803	0.04627
1366.77226	0.04464
1365.48649	0.04310
1364.20073	0.04167
1362.91496	0.04034
1361.62919	0.03906
1360.34342	0.03786
1359.05765	0.03674
1357.77188	0.03574
1356.48611	0.03485
1355.20034	0.03404
1353.91457	0.03327
1352.62881	0.03252
1351.34304	0.03180
1350.05727	0.03113
1348.77150	0.03054
1347.48573	0.02999
1346.19996	0.02945
1344.91419	0.02891
1343.62842	0.02835
1342.34266	0.02782
1341.05689	0.02734
1339.77112	0.02691
1338.48535	0.02650
1337.19958	0.02610
1335.91381	0.02575
1334.62804	0.02543
1333.34227	0.02513
1332.05650	0.02483
1330.77074	0.02454
1329.48497	0.02428
1328.19920	0.02407
1326.91343	0.02389
1325.62766	0.02372
1324.34189	0.02354
1323.05612	0.02336
1321.77035	0.02319
1320.48459	0.02300
1319.19882	0.02278
1317.91305	0.02253
1316.62728	0.02227
1315.34151	0.02206
1314.05574	0.02189
1312.76997	0.02176
1311.48420	0.02161
1310.19843	0.02142
1308.91267	0.02120
1307.62690	0.02099
1306.34113	0.02082
1305.05536	0.02069
1303.76959	0.02057
1302.48382	0.02045
1301.19805	0.02032
1299.91228	0.02019
1298.62652	0.02007
1297.34075	0.01997
1296.05498	0.01988
1294.76921	0.01979
1293.48344	0.01967
1292.19767	0.01951
1290.91190	0.01935
1289.62613	0.01923
1288.34036	0.01917
1287.05460	0.01913
1285.76883	0.01905
1284.48306	0.01892
1283.19729	0.01878
1281.91152	0.01866
1280.62575	0.01857
1279.33998	0.01850
1278.05421	0.01843
1276.76845	0.01837
1275.48268	0.01830
1274.19691	0.01821
1272.91114	0.01807
1271.62537	0.01789
1270.33960	0.01770
1269.05383	0.01756
1267.76806	0.01751
1266.48229	0.01753
1265.19653	0.01757
1263.91076	0.01754
1262.62499	0.01744
1261.33922	0.01728
1260.05345	0.01711
1258.76768	0.01696
1257.48191	0.01684
1256.19614	0.01676
1254.91037	0.01671
1253.62461	0.01669
1252.33884	0.01668
1251.05307	0.01664
1249.76730	0.01655
1248.48153	0.01643
1247.19576	0.01630
1245.90999	0.01621
1244.62422	0.01617
1243.33846	0.01617
1242.05269	0.01619
1240.76692	0.01619
1239.48115	0.01613
1238.19538	0.01600
1236.90961	0.01584
1235.62384	0.01574
1234.33807	0.01570
1233.05230	0.01569
1231.76654	0.01566
1230.48077	0.01557
1229.19500	0.01546
1227.90923	0.01537
1226.62346	0.01532
1225.33769	0.01531
1224.05192	0.01529
1222.76615	0.01522
1221.48039	0.01511
1220.19462	0.01502
1218.90885	0.01498
1217.62308	0.01496
1216.33731	0.01494
1215.05154	0.01491
1213.76577	0.01489
1212.48000	0.01489
1211.19423	0.01491
1209.90847	0.01495
1208.62270	0.01500
1207.33693	0.01504
1206.05116	0.01504
1204.76539	0.01502
1203.47962	0.01499
1202.19385	0.01498
1200.90808	0.01496
1199.62232	0.01490
1198.33655	0.01495
1197.05078	0.01501
1195.76501	0.01508
1194.47924	0.01512
1193.19347	0.01512
1191.90770	0.01511
1190.62193	0.01512
1189.33616	0.01515
1188.05040	0.01522
1186.76463	0.01532
1185.47886	0.01544
1184.19309	0.01558
1182.90732	0.01571
1181.62155	0.01584
1180.33578	0.01597
1179.05001	0.01609
1177.76425	0.01620
1176.47848	0.01627
1175.19271	0.01636
1173.90694	0.01650
1172.62117	0.01671
1171.33540	0.01693
1170.04963	0.01711
1168.76386	0.01728
1167.47809	0.01753
1166.19233	0.01788
1164.90656	0.01828
1163.62079	0.01866
1162.33502	0.01900
1161.04925	0.01934
1159.76348	0.01975
1158.47771	0.02022
1157.19194	0.02076
1155.90618	0.02129
1154.62041	0.02179
1153.33464	0.02228
1152.04887	0.02281
1150.76310	0.02342
1149.47733	0.02407
1148.19156	0.02475
1146.90579	0.02548
1145.62002	0.02630
1144.33426	0.02723
1143.04849	0.02825
1141.76272	0.02932
1140.47695	0.03046
1139.19118	0.03172
1137.90541	0.03315
1136.61964	0.03474
1135.33387	0.03644
1134.04811	0.03824
1132.76234	0.04016
1131.47657	0.04227
1130.19080	0.04462
1128.90503	0.04725
1127.61926	0.05015
1126.33349	0.05326
1125.04772	0.05653
1123.76195	0.05989
1122.47619	0.06329
1121.19042	0.06673
1119.90465	0.07022
1118.61888	0.07380
1117.33311	0.07748
1116.04734	0.08123
1114.76157	0.08497
1113.47580	0.08860
1112.19004	0.09213
1110.90427	0.09562
1109.61850	0.09915
1108.33273	0.10273
1107.04696	0.10630
1105.76119	0.10982
1104.47542	0.11323
1103.18965	0.11653
1101.90388	0.11972
1100.61812	0.12283
1099.33235	0.12588
1098.04658	0.12885
1096.76081	0.13165
1095.47504	0.13422
1094.18927	0.13660
1092.90350	0.13892
1091.61773	0.14129
1090.33197	0.14371
1089.04620	0.14607
1087.76043	0.14832
1086.47466	0.15051
1085.18889	0.15271
1083.90312	0.15498
1082.61735	0.15730
1081.33158	0.15969
1080.04581	0.16225
1078.76005	0.16504
1077.47428	0.16805
1076.18851	0.17118
1074.90274	0.17434
1073.61697	0.17756
1072.33120	0.18090
1071.04543	0.18440
1069.75966	0.18803
1068.47390	0.19177
1067.18813	0.19560
1065.90236	0.19950
1064.61659	0.20341
1063.33082	0.20737
1062.04505	0.21140
1060.75928	0.21549
1059.47351	0.21954
1058.18774	0.22352
1056.90198	0.22742
1055.61621	0.23127
1054.33044	0.23508
1053.04467	0.23888
1051.75890	0.24271
1050.47313	0.24664
1049.18736	0.25072
1047.90159	0.25498
1046.61583	0.25940
1045.33006	0.26397
1044.04429	0.26868
1042.75852	0.27347
1041.47275	0.27827
1040.18698	0.28307
1038.90121	0.28795
1037.61544	0.29295
1036.32967	0.29802
1035.04391	0.30300
1033.75814	0.30775
1032.47237	0.31220
1031.18660	0.31636
1029.90083	0.32024
1028.61506	0.32381
1027.32929	0.32698
1026.04352	0.32965
1024.75775	0.33178
1023.47199	0.33338
1022.18622	0.33444
1020.90045	0.33499
1019.61468	0.33504
1018.32891	0.33456
1017.04314	0.33348
1015.75737	0.33175
1014.47160	0.32941
1013.18584	0.32648
1011.90007	0.32292
1010.61430	0.31867
1009.32853	0.31370
1008.04276	0.30808
1006.75699	0.30191
1005.47122	0.29527
1004.18545	0.28814
1002.89968	0.28041
1001.61392	0.27208
1000.32815	0.26329
999.04238	0.25427
997.75661	0.24521
996.47084	0.23614
995.18507	0.22702
993.89930	0.21783
992.61353	0.20862
991.32777	0.19955
990.04200	0.19074
988.75623	0.18224
987.47046	0.17405
986.18469	0.16616
984.89892	0.15858
983.61315	0.15134
982.32738	0.14456
981.04161	0.13833
979.75585	0.13269
978.47008	0.12757
977.18431	0.12295
975.89854	0.11885
974.61277	0.11531
973.32700	0.11237
972.04123	0.11009
970.75546	0.10852
969.46970	0.10774
968.18393	0.10773
966.89816	0.10835
965.61239	0.10940
964.32662	0.11059
963.04085	0.11159
961.75508	0.11209
960.46931	0.11190
959.18354	0.11098
957.89778	0.10935
956.61201	0.10704
955.32624	0.10417
954.04047	0.10098
952.75470	0.09770
951.46893	0.09452
950.18316	0.09151
948.89739	0.08863
947.61163	0.08580
946.32586	0.08301
945.04009	0.08031
943.75432	0.07775
942.46855	0.07533
941.18278	0.07296
939.89701	0.07063
938.61124	0.06840
937.32547	0.06634
936.03971	0.06447
934.75394	0.06272
933.46817	0.06105
932.18240	0.05947
930.89663	0.05801
929.61086	0.05672
928.32509	0.05563
927.03932	0.05470
925.75356	0.05386
924.46779	0.05306
923.18202	0.05229
921.89625	0.05152
920.61048	0.05072
919.32471	0.04991
918.03894	0.04920
916.75317	0.04863
915.46740	0.04817
914.18164	0.04772
912.89587	0.04720
911.61010	0.04665
910.32433	0.04614
909.03856	0.04573
907.75279	0.04543
906.46702	0.04518
905.18125	0.04490
903.89549	0.04456
902.60972	0.04418
901.32395	0.04380
900.03818	0.04349
898.75241	0.04327
897.46664	0.04311
896.18087	0.04295
894.89510	0.04275
893.60933	0.04255
892.32357	0.04240
891.03780	0.04243
889.75203	0.04271
888.46626	0.04326
887.18049	0.04413
885.89472	0.04545
884.60895	0.04746
883.32318	0.05025
882.03742	0.05358
880.75165	0.05691
879.46588	0.05971
878.18011	0.06181
876.89434	0.06349
875.60857	0.06513
874.32280	0.06685
873.03703	0.06829
871.75126	0.06895
870.46550	0.06852
869.17973	0.06704
867.89396	0.06484
866.60819	0.06228
865.32242	0.05960
864.03665	0.05695
862.75088	0.05441
861.46511	0.05205
860.17935	0.04999
858.89358	0.04829
857.60781	0.04691
856.32204	0.04580
855.03627	0.04487
853.75050	0.04405
852.46473	0.04328
851.17896	0.04252
849.89319	0.04178
848.60743	0.04112
847.32166	0.04062
846.03589	0.04028
844.75012	0.04004
843.46435	0.03979
842.17858	0.03945
840.89281	0.03904
839.60704	0.03864
838.32128	0.03831
837.03551	0.03805
835.74974	0.03784
834.46397	0.03766
833.17820	0.03753
831.89243	0.03740
830.60666	0.03726
829.32089	0.03715
828.03512	0.03712
826.74936	0.03715
825.46359	0.03712
824.17782	0.03698
822.89205	0.03679
821.60628	0.03664
820.32051	0.03658
819.03474	0.03657
817.74897	0.03655
816.46321	0.03649
815.17744	0.03639
813.89167	0.03628
812.60590	0.03622
811.32013	0.03618
810.03436	0.03613
808.74859	0.03605
807.46282	0.03599
806.17705	0.03595
804.89129	0.03590
803.60552	0.03581
802.31975	0.03574
801.03398	0.03571
799.74821	0.03572
798.46244	0.03569
797.17667	0.03562
795.89090	0.03553
794.60513	0.03543
793.31937	0.03530
792.03360	0.03513
790.74783	0.03499
789.46206	0.03490
788.17629	0.03487
786.89052	0.03486
785.60475	0.03489
784.31898	0.03498
783.03322	0.03511
781.74745	0.03518
780.46168	0.03512
779.17591	0.03498
777.89014	0.03487
776.60437	0.03485
775.31860	0.03489
774.03283	0.03491
772.74706	0.03491
771.46130	0.03496
770.17553	0.03507
768.88976	0.03517
767.60399	0.03524
766.31822	0.03528
765.03245	0.03529
763.74668	0.03526
762.46091	0.03521
761.17515	0.03523
759.88938	0.03528
758.60361	0.03532
757.31784	0.03532
756.03207	0.03536
754.74630	0.03545
753.46053	0.03556
752.17476	0.03564
750.88899	0.03568
749.60323	0.03568
748.31746	0.03564
747.03169	0.03560
745.74592	0.03555
744.46015	0.03550
743.17438	0.03541
741.88861	0.03530
740.60284	0.03515
739.31708	0.03499
738.03131	0.03487
736.74554	0.03485
735.45977	0.03488
734.17400	0.03487
732.88823	0.03477
731.60246	0.03464
730.31669	0.03461
729.03092	0.03470
727.74516	0.03488
726.45939	0.03505
725.17362	0.03516
723.88785	0.03510
722.60208	0.03520
721.31631	0.03535
720.03054	0.03543
718.74477	0.03546
717.45901	0.03551
716.17324	0.03554
714.88747	0.03547
713.60170	0.03529
712.31593	0.03504
711.03016	0.03481
709.74439	0.03464
708.45862	0.03452
707.17285	0.03446
705.88709	0.03447
704.60132	0.03452
703.31555	0.03461
702.02978	0.03469
700.74401	0.03472
699.45824	0.03471
698.17247	0.03466
696.88670	0.03464
695.60094	0.03469
694.31517	0.03481
693.02940	0.03492
691.74363	0.03496
690.45786	0.03494
689.17209	0.03486
687.88632	0.03475
686.60055	0.03465
685.31478	0.03455
684.02902	0.03447
682.74325	0.03441
681.45748	0.03431
680.17171	0.03416
678.88594	0.03398
677.60017	0.03382
676.31440	0.03373
675.02863	0.03377
673.74287	0.03391
672.45710	0.03407
671.17133	0.03414
669.88556	0.03411
668.59979	0.03408
667.31402	0.03411
666.02825	0.03419
664.74248	0.03422
663.45671	0.03415
662.17095	0.03404
660.88518	0.03393
659.59941	0.03380
658.31364	0.03366
657.02787	0.03351
655.74210	0.03341
654.45633	0.03338
653.17056	0.03343
651.88480	0.03353
650.59903	0.03365
649.31326	0.03375
648.02749	0.03384
646.74172	0.03395
645.45595	0.03412
644.17018	0.03433
642.88441	0.03452
641.59864	0.03468
640.31288	0.03485
639.02711	0.03504
637.74134	0.03530
636.45557	0.03563
635.16980	0.03607
633.88403	0.03661
632.59826	0.03721
631.31249	0.03790
630.02673	0.03904
628.74096	0.04050
627.45519	0.04099
626.16942	0.04286
624.88365	0.04576
623.59788	0.04887
622.31211	0.05201
621.02634	0.05509
619.74057	0.05801
618.45481	0.06089
617.16904	0.06390
615.88327	0.06688
614.59750	0.06952
613.31173	0.07188
612.02596	0.07474
610.74019	0.07923
609.45442	0.08578
608.16866	0.09350
606.88289	0.10097
605.59712	0.10724
604.31135	0.11194
603.02558	0.11485
601.73981	0.11589
600.45404	0.11526
599.16827	0.11338
597.88250	0.11071
596.59674	0.10764
595.31097	0.10449
594.02520	0.10153
592.73943	0.09900
591.45366	0.09708
590.16789	0.09594
588.88212	0.09565
587.59635	0.09625
586.31059	0.09760
585.02482	0.09946
583.73905	0.10162
582.45328	0.10399
581.16751	0.10659
579.88174	0.10946
578.59597	0.11257
577.31020	0.11582
576.02443	0.11906
574.73867	0.12221
573.45290	0.12529
572.16713	0.12846
570.88136	0.13192
569.59559	0.13580
568.30982	0.14015
567.02405	0.14487
565.73828	0.14969
564.45251	0.15415
563.16675	0.15766
561.88098	0.15961
560.59521	0.15950
559.30944	0.15703
558.02367	0.15229
556.73790	0.14580
555.45213	0.13833
554.16636	0.13051
552.88060	0.12278
551.59483	0.11537
550.30906	0.10850
549.02329	0.10230
547.73752	0.09679
546.45175	0.09185
545.16598	0.08736
543.88021	0.08323
542.59444	0.07940
541.30868	0.07590
540.02291	0.07277
538.73714	0.06999
537.45137	0.06752
536.16560	0.06527
534.87983	0.06317
533.59406	0.06115
532.30829	0.05916
531.02253	0.05722
529.73676	0.05541
528.45099	0.05382
527.16522	0.05242
525.87945	0.05112
524.59368	0.04983
523.30791	0.04855
522.02214	0.04730
520.73637	0.04612
519.45061	0.04503
518.16484	0.04402
516.87907	0.04308
515.59330	0.04218
514.30753	0.04134
513.02176	0.04056
511.73599	0.03982
510.45022	0.03911
509.16446	0.03843
507.87869	0.03784
506.59292	0.03732
505.30715	0.03675
504.02138	0.03606
502.73561	0.03531
501.44984	0.03468
500.16407	0.03429
498.87830	0.03410
497.59254	0.03395
496.30677	0.03374
495.02100	0.03342
493.73523	0.03305
492.44946	0.03272
491.16369	0.03246
489.87792	0.03226
488.59215	0.03206
487.30639	0.03182
486.02062	0.03160
484.73485	0.03149
483.44908	0.03156
482.16331	0.03179
480.87754	0.03208
479.59177	0.03233
478.30600	0.03251
477.02023	0.03264
475.73447	0.03279
474.44870	0.03298
473.16293	0.03319
471.87716	0.03337
470.59139	0.03347
469.30562	0.03344
468.01985	0.03325
466.73408	0.03292
465.44832	0.03255
464.16255	0.03222
462.87678	0.03192
461.59101	0.03161
460.30524	0.03129
459.01947	0.03102
457.73370	0.03082
456.44793	0.03064
455.16216	0.03046
453.87640	0.03024
452.59063	0.02992
451.30486	0.02951
450.01909	0.02907
448.73332	0.02870
447.44755	0.02846
446.16178	0.02832
444.87601	0.02822
443.59025	0.02809
442.30448	0.02795
441.01871	0.02782
439.73294	0.02774
438.44717	0.02769
437.16140	0.02769
435.87563	0.02772
434.58986	0.02776
433.30409	0.02778
432.01833	0.02775
430.73256	0.02765
429.44679	0.02751
428.16102	0.02739
426.87525	0.02732
425.58948	0.02729
424.30371	0.02722
423.01794	0.02708
421.73218	0.02691
420.44641	0.02682
419.16064	0.02681
417.87487	0.02684
416.58910	0.02685
415.30333	0.02685
414.01756	0.02681
412.73179	0.02675
411.44602	0.02671
410.16026	0.02673
408.87449	0.02681
407.58872	0.02693
406.30295	0.02705
405.01718	0.02716
403.73141	0.02724
402.44564	0.02729
401.15987	0.02732
399.87411	0.02739
