3997.45528	-0.00396
3996.16951	-0.00376
3994.88374	-0.00362
3993.59798	-0.00359
3992.31221	-0.00361
3991.02644	-0.00357
3989.74067	-0.00346
3988.45490	-0.00339
3987.16913	-0.00338
3985.88336	-0.00336
3984.59759	-0.00318
3983.31183	-0.00275
3982.02606	-0.00207
3980.74029	-0.00131
3979.45452	-0.00065
3978.16875	-0.00015
3976.88298	0.00022
3975.59721	0.00040
3974.31144	0.00030
3973.02567	0.00006
3971.73991	-0.00000
3970.45414	0.00028
3969.16837	0.00066
3967.88260	0.00073
3966.59683	0.00033
3965.31106	-0.00035
3964.02529	-0.00096
3962.73952	-0.00116
3961.45376	-0.00086
3960.16799	-0.00027
3958.88222	0.00027
3957.59645	0.00059
3956.31068	0.00082
3955.02491	0.00107
3953.73914	0.00132
3952.45337	0.00149
3951.16760	0.00160
3949.88184	0.00174
3948.59607	0.00188
3947.31030	0.00185
3946.02453	0.00148
3944.73876	0.00082
3943.45299	0.00007
3942.16722	-0.00051
3940.88145	-0.00075
3939.59569	-0.00057
3938.30992	0.00009
3937.02415	0.00106
3935.73838	0.00193
3934.45261	0.00233
3933.16684	0.00217
3931.88107	0.00165
3930.59530	0.00107
3929.30953	0.00079
3928.02377	0.00103
3926.73800	0.00162
3925.45223	0.00221
3924.16646	0.00254
3922.88069	0.00263
3921.59492	0.00256
3920.30915	0.00240
3919.02338	0.00221
3917.73762	0.00212
3916.45185	0.00221
3915.16608	0.00229
3913.88031	0.00210
3912.59454	0.00164
3911.30877	0.00122
3910.02300	0.00107
3908.73723	0.00115
3907.45146	0.00127
3906.16570	0.00126
3904.87993	0.00113
3903.59416	0.00097
3902.30839	0.00080
3901.02262	0.00055
3899.73685	0.00034
3898.45108	0.00041
3897.16531	0.00076
3895.87955	0.00113
3894.59378	0.00130
3893.30801	0.00124
3892.02224	0.00124
3890.73647	0.00165
3889.45070	0.00234
3888.16493	0.00273
3886.87916	0.00264
3885.59339	0.00261
3884.30763	0.00295
3883.02186	0.00335
3881.73609	0.00345
3880.45032	0.00346
3879.16455	0.00364
3877.87878	0.00388
3876.59301	0.00394
3875.30724	0.00392
3874.02148	0.00395
3872.73571	0.00382
3871.44994	0.00337
3870.16417	0.00303
3868.87840	0.00333
3867.59263	0.00403
3866.30686	0.00458
3865.02109	0.00484
3863.73532	0.00475
3862.44956	0.00418
3861.16379	0.00341
3859.87802	0.00310
3858.59225	0.00354
3857.30648	0.00432
3856.02071	0.00490
3854.73494	0.00534
3853.44917	0.00604
3852.16341	0.00680
3850.87764	0.00687
3849.59187	0.00621
3848.30610	0.00554
3847.02033	0.00534
3845.73456	0.00551
3844.44879	0.00569
3843.16302	0.00570
3841.87725	0.00551
3840.59149	0.00513
3839.30572	0.00473
3838.01995	0.00468
3836.73418	0.00502
3835.44841	0.00539
3834.16264	0.00545
3832.87687	0.00538
3831.59110	0.00540
3830.30534	0.00541
3829.01957	0.00513
3827.73380	0.00463
3826.44803	0.00446
3825.16226	0.00494
3823.87649	0.00573
3822.59072	0.00645
3821.30495	0.00711
3820.01918	0.00766
3818.73342	0.00752
3817.44765	0.00660
3816.16188	0.00583
3814.87611	0.00594
3813.59034	0.00628
3812.30457	0.00602
3811.01880	0.00526
3809.73303	0.00450
3808.44726	0.00409
3807.16150	0.00426
3805.87573	0.00493
3804.58996	0.00539
3803.30419	0.00514
3802.01842	0.00483
3800.73265	0.00537
3799.44688	0.00654
3798.16111	0.00736
3796.87535	0.00755
3795.58958	0.00742
3794.30381	0.00712
3793.01804	0.00666
3791.73227	0.00621
3790.44650	0.00596
3789.16073	0.00586
3787.87496	0.00568
3786.58919	0.00532
3785.30343	0.00485
3784.01766	0.00447
3782.73189	0.00432
3781.44612	0.00444
3780.16035	0.00485
3778.87458	0.00542
3777.58881	0.00581
3776.30304	0.00578
3775.01728	0.00554
3773.73151	0.00544
3772.44574	0.00545
3771.15997	0.00538
3769.87420	0.00532
3768.58843	0.00550
3767.30266	0.00591
3766.01689	0.00630
3764.73112	0.00641
3763.44536	0.00604
3762.15959	0.00530
3760.87382	0.00476
3759.58805	0.00487
3758.30228	0.00544
3757.01651	0.00590
3755.73074	0.00592
3754.44497	0.00558
3753.15921	0.00541
3751.87344	0.00588
3750.58767	0.00686
3749.30190	0.00778
3748.01613	0.00800
3746.73036	0.00709
3745.44459	0.00563
3744.15882	0.00505
3742.87305	0.00571
3741.58729	0.00650
3740.30152	0.00657
3739.01575	0.00605
3737.72998	0.00537
3736.44421	0.00497
3735.15844	0.00508
3733.87267	0.00535
3732.58690	0.00547
3731.30114	0.00546
3730.01537	0.00526
3728.72960	0.00458
3727.44383	0.00356
3726.15806	0.00282
3724.87229	0.00263
3723.58652	0.00272
3722.30075	0.00264
3721.01498	0.00229
3719.72922	0.00207
3718.44345	0.00248
3717.15768	0.00358
3715.87191	0.00480
3714.58614	0.00546
3713.30037	0.00545
3712.01460	0.00514
3710.72883	0.00490
3709.44307	0.00472
3708.15730	0.00449
3706.87153	0.00421
3705.58576	0.00398
3704.29999	0.00385
3703.01422	0.00387
3701.72845	0.00398
3700.44268	0.00418
3699.15691	0.00443
3697.87115	0.00476
3696.58538	0.00515
3695.29961	0.00551
3694.01384	0.00581
3692.72807	0.00623
3691.44230	0.00691
3690.15653	0.00761
3688.87076	0.00806
3687.58500	0.00816
3686.29923	0.00778
3685.01346	0.00692
3683.72769	0.00612
3682.44192	0.00597
3681.15615	0.00642
3679.87038	0.00684
3678.58461	0.00661
3677.29884	0.00586
3676.01308	0.00567
3674.72731	0.00669
3673.44154	0.00790
3672.15577	0.00786
3670.87000	0.00679
3669.58423	0.00619
3668.29846	0.00667
3667.01269	0.00765
3665.72693	0.00849
3664.44116	0.00897
3663.15539	0.00910
3661.86962	0.00897
3660.58385	0.00881
3659.29808	0.00883
3658.01231	0.00906
3656.72654	0.00938
3655.44077	0.00964
3654.15501	0.00970
3652.86924	0.00954
3651.58347	0.00943
3650.29770	0.00965
3649.01193	0.01009
3647.72616	0.01045
3646.44039	0.01062
3645.15462	0.01066
3643.86886	0.01063
3642.58309	0.01058
3641.29732	0.01054
3640.01155	0.01064
3638.72578	0.01099
3637.44001	0.01147
3636.15424	0.01187
3634.86847	0.01219
3633.58270	0.01265
3632.29694	0.01318
3631.01117	0.01338
3629.72540	0.01320
3628.43963	0.01306
3627.15386	0.01315
3625.86809	0.01317
3624.58232	0.01309
3623.29655	0.01318
3622.01079	0.01355
3620.72502	0.01413
3619.43925	0.01490
3618.15348	0.01561
3616.86771	0.01588
3615.58194	0.01563
3614.29617	0.01543
3613.01040	0.01590
3611.72463	0.01689
3610.43887	0.01762
3609.15310	0.01765
3607.86733	0.01731
3606.58156	0.01713
3605.29579	0.01742
3604.01002	0.01818
3602.72425	0.01920
3601.43848	0.02012
3600.15272	0.02063
3598.86695	0.02062
3597.58118	0.02025
3596.29541	0.01983
3595.00964	0.01972
3593.72387	0.02006
3592.43810	0.02057
3591.15233	0.02084
3589.86656	0.02070
3588.58080	0.02049
3587.29503	0.02065
3586.00926	0.02118
3584.72349	0.02169
3583.43772	0.02199
3582.15195	0.02227
3580.86618	0.02275
3579.58041	0.02337
3578.29464	0.02399
3577.00888	0.02453
3575.72311	0.02498
3574.43734	0.02530
3573.15157	0.02556
3571.86580	0.02583
3570.58003	0.02606
3569.29426	0.02608
3568.00849	0.02590
3566.72273	0.02576
3565.43696	0.02595
3564.15119	0.02653
3562.86542	0.02739
3561.57965	0.02826
3560.29388	0.02886
3559.00811	0.02912
3557.72234	0.02921
3556.43657	0.02932
3555.15081	0.02949
3553.86504	0.02961
3552.57927	0.02958
3551.29350	0.02948
3550.00773	0.02950
3548.72196	0.02971
3547.43619	0.02997
3546.15042	0.03004
3544.86466	0.02969
3543.57889	0.02896
3542.29312	0.02823
3541.00735	0.02804
3539.72158	0.02864
3538.43581	0.02988
3537.15004	0.03134
3535.86427	0.03259
3534.57850	0.03328
3533.29274	0.03325
3532.00697	0.03275
3530.72120	0.03231
3529.43543	0.03236
3528.14966	0.03296
3526.86389	0.03380
3525.57812	0.03455
3524.29235	0.03505
3523.00659	0.03537
3521.72082	0.03552
3520.43505	0.03546
3519.14928	0.03519
3517.86351	0.03494
3516.57774	0.03498
3515.29197	0.03537
3514.00620	0.03590
3512.72043	0.03630
3511.43467	0.03649
3510.14890	0.03652
3508.86313	0.03649
3507.57736	0.03645
3506.29159	0.03650
3505.00582	0.03678
3503.72005	0.03733
3502.43428	0.03806
3501.14852	0.03874
3499.86275	0.03922
3498.57698	0.03947
3497.29121	0.03961
3496.00544	0.03980
3494.71967	0.04013
3493.43390	0.04051
3492.14813	0.04078
3490.86236	0.04081
3489.57660	0.04059
3488.29083	0.04027
3487.00506	0.04008
3485.71929	0.04026
3484.43352	0.04088
3483.14775	0.04175
3481.86198	0.04248
3480.57621	0.04275
3479.29045	0.04253
3478.00468	0.04204
3476.71891	0.04162
3475.43314	0.04150
3474.14737	0.04178
3472.86160	0.04242
3471.57583	0.04325
3470.29006	0.04406
3469.00429	0.04456
3467.71853	0.04456
3466.43276	0.04408
3465.14699	0.04338
3463.86122	0.04285
3462.57545	0.04278
3461.28968	0.04314
3460.00391	0.04367
3458.71814	0.04409
3457.43238	0.04436
3456.14661	0.04461
3454.86084	0.04491
3453.57507	0.04520
3452.28930	0.04540
3451.00353	0.04545
3449.71776	0.04531
3448.43199	0.04494
3447.14622	0.04441
3445.86046	0.04395
3444.57469	0.04382
3443.28892	0.04415
3442.00315	0.04489
3440.71738	0.04589
3439.43161	0.04695
3438.14584	0.04788
3436.86007	0.04844
3435.57431	0.04844
3434.28854	0.04791
3433.00277	0.04712
3431.71700	0.04647
3430.43123	0.04626
3429.14546	0.04656
3427.85969	0.04723
3426.57392	0.04805
3425.28815	0.04877
3424.00239	0.04919
3422.71662	0.04921
3421.43085	0.04887
3420.14508	0.04840
3418.85931	0.04813
3417.57354	0.04827
3416.28777	0.04871
3415.00200	0.04917
3413.71624	0.04948
3412.43047	0.04980
3411.14470	0.05031
3409.85893	0.05097
3408.57316	0.05155
3407.28739	0.05194
3406.00162	0.05222
3404.71585	0.05242
3403.43008	0.05242
3402.14432	0.05206
3400.85855	0.05138
3399.57278	0.05058
3398.28701	0.04994
3397.00124	0.04961
3395.71547	0.04959
3394.42970	0.04982
3393.14393	0.05018
3391.85817	0.05057
3390.57240	0.05093
3389.28663	0.05121
3388.00086	0.05145
3386.71509	0.05166
3385.42932	0.05189
3384.14355	0.05213
3382.85778	0.05235
3381.57201	0.05249
3380.28625	0.05253
3379.00048	0.05240
3377.71471	0.05210
3376.42894	0.05172
3375.14317	0.05146
3373.85740	0.05146
3372.57163	0.05168
3371.28586	0.05193
3370.00010	0.05209
3368.71433	0.05222
3367.42856	0.05240
3366.14279	0.05256
3364.85702	0.05253
3363.57125	0.05231
3362.28548	0.05205
3360.99971	0.05191
3359.71394	0.05188
3358.42818	0.05178
3357.14241	0.05147
3355.85664	0.05102
3354.57087	0.05070
3353.28510	0.05072
3351.99933	0.05108
3350.71356	0.05157
3349.42779	0.05198
3348.14202	0.05228
3346.85626	0.05249
3345.57049	0.05260
3344.28472	0.05255
3342.99895	0.05238
3341.71318	0.05223
3340.42741	0.05219
3339.14164	0.05214
3337.85587	0.05198
3336.57011	0.05178
3335.28434	0.05179
3333.99857	0.05209
3332.71280	0.05253
3331.42703	0.05276
3330.14126	0.05251
3328.85549	0.05186
3327.56972	0.05119
3326.28395	0.05098
3324.99819	0.05138
3323.71242	0.05213
3322.42665	0.05276
3321.14088	0.05298
3319.85511	0.05280
3318.56934	0.05246
3317.28357	0.05213
3315.99780	0.05185
3314.71204	0.05156
3313.42627	0.05126
3312.14050	0.05105
3310.85473	0.05101
3309.56896	0.05106
3308.28319	0.05102
3306.99742	0.05077
3305.71165	0.05036
3304.42588	0.04991
3303.14012	0.04956
3301.85435	0.04942
3300.56858	0.04949
3299.28281	0.04964
3297.99704	0.04964
3296.71127	0.04946
3295.42550	0.04928
3294.13973	0.04935
3292.85397	0.04974
3291.56820	0.05030
3290.28243	0.05087
3288.99666	0.05127
3287.71089	0.05137
3286.42512	0.05114
3285.13935	0.05074
3283.85358	0.05044
3282.56781	0.05036
3281.28205	0.05035
3279.99628	0.05029
3278.71051	0.05026
3277.42474	0.05040
3276.13897	0.05074
3274.85320	0.05110
3273.56743	0.05128
3272.28166	0.05122
3270.99590	0.05096
3269.71013	0.05059
3268.42436	0.05018
3267.13859	0.04983
3265.85282	0.04972
3264.56705	0.04986
3263.28128	0.05011
3261.99551	0.05022
3260.70974	0.05016
3259.42398	0.05011
3258.13821	0.05027
3256.85244	0.05062
3255.56667	0.05092
3254.28090	0.05085
3252.99513	0.05035
3251.70936	0.04973
3250.42359	0.04936
3249.13783	0.04936
3247.85206	0.04951
3246.56629	0.04951
3245.28052	0.04932
3243.99475	0.04914
3242.70898	0.04915
3241.42321	0.04928
3240.13744	0.04931
3238.85167	0.04911
3237.56591	0.04879
3236.28014	0.04863
3234.99437	0.04886
3233.70860	0.04938
3232.42283	0.04975
3231.13706	0.04962
3229.85129	0.04908
3228.56552	0.04851
3227.27976	0.04818
3225.99399	0.04805
3224.70822	0.04800
3223.42245	0.04796
3222.13668	0.04789
3220.85091	0.04773
3219.56514	0.04757
3218.27937	0.04754
3216.99360	0.04771
3215.70784	0.04797
3214.42207	0.04822
3213.13630	0.04844
3211.85053	0.04852
3210.56476	0.04835
3209.27899	0.04790
3207.99322	0.04732
3206.70745	0.04680
3205.42169	0.04649
3204.13592	0.04639
3202.85015	0.04638
3201.56438	0.04637
3200.27861	0.04635
3198.99284	0.04636
3197.70707	0.04648
3196.42130	0.04671
3195.13553	0.04703
3193.84977	0.04739
3192.56400	0.04768
3191.27823	0.04775
3189.99246	0.04756
3188.70669	0.04717
3187.42092	0.04673
3186.13515	0.04631
3184.84938	0.04594
3183.56362	0.04564
3182.27785	0.04553
3180.99208	0.04572
3179.70631	0.04608
3178.42054	0.04635
3177.13477	0.04633
3175.84900	0.04605
3174.56323	0.04576
3173.27746	0.04560
3171.99170	0.04557
3170.70593	0.04556
3169.42016	0.04554
3168.13439	0.04552
3166.84862	0.04556
3165.56285	0.04569
3164.27708	0.04589
3162.99131	0.04599
3161.70555	0.04586
3160.41978	0.04558
3159.13401	0.04541
3157.84824	0.04553
3156.56247	0.04580
3155.27670	0.04586
3153.99093	0.04552
3152.70516	0.04493
3151.41939	0.04441
3150.13363	0.04415
3148.84786	0.04417
3147.56209	0.04431
3146.27632	0.04442
3144.99055	0.04439
3143.70478	0.04424
3142.41901	0.04404
3141.13324	0.04389
3139.84748	0.04379
3138.56171	0.04367
3137.27594	0.04345
3135.99017	0.04322
3134.70440	0.04314
3133.41863	0.04325
3132.13286	0.04337
3130.84709	0.04324
3129.56132	0.04291
3128.27556	0.04266
3126.98979	0.04268
3125.70402	0.04287
3124.41825	0.04303
3123.13248	0.04310
3121.84671	0.04315
3120.56094	0.04316
3119.27517	0.04301
3117.98940	0.04271
3116.70364	0.04240
3115.41787	0.04221
3114.13210	0.04215
3112.84633	0.04214
3111.56056	0.04212
3110.27479	0.04212
3108.98902	0.04211
3107.70325	0.04206
3106.41749	0.04193
3105.13172	0.04175
3103.84595	0.04160
3102.56018	0.04151
3101.27441	0.04151
3099.98864	0.04160
3098.70287	0.04173
3097.41710	0.04181
3096.13133	0.04178
3094.84557	0.04165
3093.55980	0.04148
3092.27403	0.04125
3090.98826	0.04099
3089.70249	0.04080
3088.41672	0.04085
3087.13095	0.04116
3085.84518	0.04162
3084.55942	0.04203
3083.27365	0.04223
3081.98788	0.04213
3080.70211	0.04172
3079.41634	0.04113
3078.13057	0.04054
3076.84480	0.04007
3075.55903	0.03971
3074.27326	0.03937
3072.98750	0.03906
3071.70173	0.03882
3070.41596	0.03872
3069.13019	0.03880
3067.84442	0.03908
3066.55865	0.03949
3065.27288	0.03984
3063.98711	0.03994
3062.70135	0.03980
3061.41558	0.03958
3060.12981	0.03939
3058.84404	0.03919
3057.55827	0.03893
3056.27250	0.03862
3054.98673	0.03834
3053.70096	0.03812
3052.41519	0.03793
3051.12943	0.03775
3049.84366	0.03761
3048.55789	0.03758
3047.27212	0.03768
3045.98635	0.03783
3044.70058	0.03789
3043.41481	0.03777
3042.12904	0.03754
3040.84328	0.03737
3039.55751	0.03742
3038.27174	0.03759
3036.98597	0.03766
3035.70020	0.03757
3034.41443	0.03746
3033.12866	0.03751
3031.84289	0.03773
3030.55712	0.03795
3029.27136	0.03803
3027.98559	0.03790
3026.69982	0.03761
3025.41405	0.03722
3024.12828	0.03680
3022.84251	0.03651
3021.55674	0.03648
3020.27097	0.03672
3018.98521	0.03703
3017.69944	0.03720
3016.41367	0.03714
3015.12790	0.03691
3013.84213	0.03664
3012.55636	0.03647
3011.27059	0.03650
3009.98482	0.03674
3008.69905	0.03712
3007.41329	0.03752
3006.12752	0.03781
3004.84175	0.03787
3003.55598	0.03763
3002.27021	0.03710
3000.98444	0.03640
2999.69867	0.03574
2998.41290	0.03539
2997.12714	0.03543
2995.84137	0.03574
2994.55560	0.03607
2993.26983	0.03620
2991.98406	0.03614
2990.69829	0.03604
2989.41252	0.03603
2988.12675	0.03612
2986.84098	0.03630
2985.55522	0.03660
2984.26945	0.03696
2982.98368	0.03728
2981.69791	0.03747
2980.41214	0.03756
2979.12637	0.03769
2977.84060	0.03794
2976.55483	0.03828
2975.26907	0.03850
2973.98330	0.03841
2972.69753	0.03802
2971.41176	0.03758
2970.12599	0.03738
2968.84022	0.03758
2967.55445	0.03815
2966.26868	0.03891
2964.98291	0.03956
2963.69715	0.03995
2962.41138	0.04017
2961.12561	0.04042
2959.83984	0.04079
2958.55407	0.04119
2957.26830	0.04150
2955.98253	0.04167
2954.69676	0.04168
2953.41100	0.04151
2952.12523	0.04119
2950.83946	0.04086
2949.55369	0.04067
2948.26792	0.04069
2946.98215	0.04086
2945.69638	0.04095
2944.41061	0.04076
2943.12484	0.04030
2941.83908	0.03985
2940.55331	0.03966
2939.26754	0.03984
2937.98177	0.04022
2936.69600	0.04058
2935.41023	0.04073
2934.12446	0.04069
2932.83869	0.04071
2931.55293	0.04100
2930.26716	0.04154
2928.98139	0.04207
2927.69562	0.04247
2926.40985	0.04277
2925.12408	0.04304
2923.83831	0.04320
2922.55254	0.04318
2921.26677	0.04307
2919.98101	0.04299
2918.69524	0.04290
2917.40947	0.04267
2916.12370	0.04223
2914.83793	0.04164
2913.55216	0.04101
2912.26639	0.04045
2910.98062	0.04008
2909.69486	0.03991
2908.40909	0.03989
2907.12332	0.03986
2905.83755	0.03971
2904.55178	0.03941
2903.26601	0.03903
2901.98024	0.03870
2900.69447	0.03845
2899.40870	0.03817
2898.12294	0.03776
2896.83717	0.03732
2895.55140	0.03701
2894.26563	0.03691
2892.97986	0.03686
2891.69409	0.03669
2890.40832	0.03639
2889.12255	0.03611
2887.83678	0.03596
2886.55102	0.03594
2885.26525	0.03592
2883.97948	0.03583
2882.69371	0.03570
2881.40794	0.03559
2880.12217	0.03558
2878.83640	0.03576
2877.55063	0.03618
2876.26487	0.03670
2874.97910	0.03703
2873.69333	0.03699
2872.40756	0.03670
2871.12179	0.03642
2869.83602	0.03630
2868.55025	0.03626
2867.26448	0.03612
2865.97871	0.03586
2864.69295	0.03560
2863.40718	0.03550
2862.12141	0.03553
2860.83564	0.03562
2859.54987	0.03574
2858.26410	0.03589
2856.97833	0.03602
2855.69256	0.03597
2854.40680	0.03572
2853.12103	0.03546
2851.83526	0.03534
2850.54949	0.03529
2849.26372	0.03507
2847.97795	0.03460
2846.69218	0.03397
2845.40641	0.03342
2844.12064	0.03303
2842.83488	0.03278
2841.54911	0.03259
2840.26334	0.03243
2838.97757	0.03227
2837.69180	0.03207
2836.40603	0.03185
2835.12026	0.03163
2833.83449	0.03143
2832.54873	0.03126
2831.26296	0.03108
2829.97719	0.03088
2828.69142	0.03068
2827.40565	0.03052
2826.11988	0.03038
2824.83411	0.03022
2823.54834	0.03005
2822.26257	0.02989
2820.97681	0.02975
2819.69104	0.02959
2818.40527	0.02933
2817.11950	0.02907
2815.83373	0.02896
2814.54796	0.02908
2813.26219	0.02930
2811.97642	0.02942
2810.69066	0.02938
2809.40489	0.02925
2808.11912	0.02916
2806.83335	0.02914
2805.54758	0.02919
2804.26181	0.02925
2802.97604	0.02925
2801.69027	0.02915
2800.40450	0.02896
2799.11874	0.02880
2797.83297	0.02874
2796.54720	0.02874
2795.26143	0.02867
2793.97566	0.02845
2792.68989	0.02818
2791.40412	0.02800
2790.11835	0.02808
2788.83259	0.02837
2787.54682	0.02868
2786.26105	0.02880
2784.97528	0.02871
2783.68951	0.02854
2782.40374	0.02837
2781.11797	0.02822
2779.83220	0.02809
2778.54643	0.02798
2777.26067	0.02783
2775.97490	0.02756
2774.68913	0.02728
2773.40336	0.02718
2772.11759	0.02726
2770.83182	0.02729
2769.54605	0.02712
2768.26028	0.02684
2766.97452	0.02672
2765.68875	0.02692
2764.40298	0.02734
2763.11721	0.02769
2761.83144	0.02769
2760.54567	0.02733
2759.25990	0.02688
2757.97413	0.02667
2756.68836	0.02679
2755.40260	0.02707
2754.11683	0.02723
2752.83106	0.02718
2751.54529	0.02701
2750.25952	0.02694
2748.97375	0.02706
2747.68798	0.02728
2746.40221	0.02740
2745.11645	0.02732
2743.83068	0.02710
2742.54491	0.02682
2741.25914	0.02655
2739.97337	0.02636
2738.68760	0.02632
2737.40183	0.02644
2736.11606	0.02659
2734.83029	0.02664
2733.54453	0.02653
2732.25876	0.02631
2730.97299	0.02604
2729.68722	0.02581
2728.40145	0.02574
2727.11568	0.02581
2725.82991	0.02586
2724.54414	0.02573
2723.25838	0.02542
2721.97261	0.02515
2720.68684	0.02517
2719.40107	0.02543
2718.11530	0.02569
2716.82953	0.02573
2715.54376	0.02558
2714.25799	0.02546
2712.97222	0.02547
2711.68646	0.02554
2710.40069	0.02555
2709.11492	0.02544
2707.82915	0.02531
2706.54338	0.02529
2705.25761	0.02547
2703.97184	0.02569
2702.68607	0.02575
2701.40031	0.02553
2700.11454	0.02516
2698.82877	0.02487
2697.54300	0.02481
2696.25723	0.02495
2694.97146	0.02516
2693.68569	0.02532
2692.39992	0.02539
2691.11415	0.02540
2689.82839	0.02535
2688.54262	0.02526
2687.25685	0.02516
2685.97108	0.02507
2684.68531	0.02499
2683.39954	0.02489
2682.11377	0.02476
2680.82800	0.02466
2679.54224	0.02462
2678.25647	0.02461
2676.97070	0.02457
2675.68493	0.02451
2674.39916	0.02447
2673.11339	0.02446
2671.82762	0.02444
2670.54185	0.02440
2669.25608	0.02436
2667.97032	0.02434
2666.68455	0.02429
2665.39878	0.02420
2664.11301	0.02414
2662.82724	0.02418
2661.54147	0.02434
2660.25570	0.02460
2658.96993	0.02488
2657.68417	0.02505
2656.39840	0.02503
2655.11263	0.02484
2653.82686	0.02457
2652.54109	0.02436
2651.25532	0.02422
2649.96955	0.02410
2648.68378	0.02392
2647.39801	0.02371
2646.11225	0.02346
2644.82648	0.02315
2643.54071	0.02275
2642.25494	0.02239
2640.96917	0.02225
2639.68340	0.02237
2638.39763	0.02253
2637.11186	0.02251
2635.82609	0.02228
2634.54033	0.02202
2633.25456	0.02190
2631.96879	0.02195
2630.68302	0.02207
2629.39725	0.02210
2628.11148	0.02198
2626.82571	0.02176
2625.53994	0.02158
2624.25418	0.02153
2622.96841	0.02146
2621.68264	0.02122
2620.39687	0.02086
2619.11110	0.02062
2617.82533	0.02064
2616.53956	0.02084
2615.25379	0.02106
2613.96802	0.02116
2612.68226	0.02109
2611.39649	0.02090
2610.11072	0.02076
2608.82495	0.02078
2607.53918	0.02086
2606.25341	0.02080
2604.96764	0.02057
2603.68187	0.02030
2602.39611	0.02010
2601.11034	0.01997
2599.82457	0.01986
2598.53880	0.01976
2597.25303	0.01970
2595.96726	0.01970
2594.68149	0.01976
2593.39572	0.01984
2592.10995	0.01983
2590.82419	0.01963
2589.53842	0.01927
2588.25265	0.01891
2586.96688	0.01876
2585.68111	0.01886
2584.39534	0.01915
2583.10957	0.01950
2581.82380	0.01973
2580.53804	0.01970
2579.25227	0.01942
2577.96650	0.01908
2576.68073	0.01885
2575.39496	0.01879
2574.10919	0.01878
2572.82342	0.01868
2571.53765	0.01836
2570.25188	0.01785
2568.96612	0.01738
2567.68035	0.01729
2566.39458	0.01767
2565.10881	0.01825
2563.82304	0.01866
2562.53727	0.01880
2561.25150	0.01881
2559.96573	0.01879
2558.67997	0.01870
2557.39420	0.01851
2556.10843	0.01831
2554.82266	0.01815
2553.53689	0.01798
2552.25112	0.01778
2550.96535	0.01757
2549.67958	0.01741
2548.39381	0.01733
2547.10805	0.01731
2545.82228	0.01729
2544.53651	0.01718
2543.25074	0.01699
2541.96497	0.01680
2540.67920	0.01666
2539.39343	0.01662
2538.10766	0.01678
2536.82190	0.01717
2535.53613	0.01765
2534.25036	0.01792
2532.96459	0.01781
2531.67882	0.01741
2530.39305	0.01696
2529.10728	0.01667
2527.82151	0.01660
2526.53574	0.01668
2525.24998	0.01681
2523.96421	0.01689
2522.67844	0.01692
2521.39267	0.01695
2520.10690	0.01701
2518.82113	0.01704
2517.53536	0.01701
2516.24959	0.01692
2514.96383	0.01683
2513.67806	0.01677
2512.39229	0.01675
2511.10652	0.01680
2509.82075	0.01694
2508.53498	0.01713
2507.24921	0.01727
2505.96344	0.01733
2504.67767	0.01735
2503.39191	0.01731
2502.10614	0.01708
2500.82037	0.01663
2499.53460	0.01620
2498.24883	0.01610
2496.96306	0.01645
2495.67729	0.01704
2494.39152	0.01757
2493.10576	0.01789
2491.81999	0.01801
2490.53422	0.01794
2489.24845	0.01771
2487.96268	0.01748
2486.67691	0.01739
2485.39114	0.01742
2484.10537	0.01739
2482.81960	0.01715
2481.53384	0.01674
2480.24807	0.01635
2478.96230	0.01616
2477.67653	0.01615
2476.39076	0.01608
2475.10499	0.01583
2473.81922	0.01554
2472.53345	0.01546
2471.24769	0.01567
2469.96192	0.01605
2468.67615	0.01648
2467.39038	0.01694
2466.10461	0.01738
2464.81884	0.01763
2463.53307	0.01750
2462.24730	0.01701
2460.96153	0.01644
2459.67577	0.01613
2458.39000	0.01614
2457.10423	0.01632
2455.81846	0.01649
2454.53269	0.01661
2453.24692	0.01666
2451.96115	0.01664
2450.67538	0.01654
2449.38962	0.01646
2448.10385	0.01644
2446.81808	0.01641
2445.53231	0.01623
2444.24654	0.01585
2442.96077	0.01539
2441.67500	0.01504
2440.38923	0.01488
2439.10346	0.01488
2437.81770	0.01495
2436.53193	0.01502
2435.24616	0.01509
2433.96039	0.01524
2432.67462	0.01549
2431.38885	0.01575
2430.10308	0.01589
2428.81731	0.01586
2427.53155	0.01575
2426.24578	0.01569
2424.96001	0.01566
2423.67424	0.01555
2422.38847	0.01536
2421.10270	0.01528
2419.81693	0.01547
2418.53116	0.01581
2417.24539	0.01601
2415.95963	0.01590
2414.67386	0.01560
2413.38809	0.01532
2412.10232	0.01524
2410.81655	0.01544
2409.53078	0.01583
2408.24501	0.01617
2406.95924	0.01629
2405.67347	0.01630
2404.38771	0.01635
2403.10194	0.01638
2401.81617	0.01622
2400.53040	0.01590
2399.24463	0.01650
2397.95886	0.01705
2396.67309	0.01720
2395.38732	0.01703
2394.10156	0.01656
2392.81579	0.01588
2391.53002	0.01515
2390.24425	0.01460
2388.95848	0.01432
2387.67271	0.01430
2386.38694	0.01441
2385.10117	0.01448
2383.81540	0.01442
2382.52964	0.01421
2381.24387	0.01393
2379.95810	0.01368
2378.67233	0.01354
2377.38656	0.01357
2376.10079	0.01376
2374.81502	0.01405
2373.52925	0.01431
2372.24349	0.01447
2370.95772	0.01447
2369.67195	0.01432
2368.38618	0.01404
2367.10041	0.01366
2365.81464	0.01317
2364.52887	0.01263
2363.24310	0.01218
2361.95733	0.01205
2360.67157	0.01242
2359.38580	0.01314
2358.10003	0.01370
2356.81426	0.01354
2355.52849	0.01269
2354.24272	0.01171
2352.95695	0.01102
2351.67118	0.01064
2350.38542	0.01047
2349.09965	0.01049
2347.81388	0.01087
2346.52811	0.01170
2345.24234	0.01271
2343.95657	0.01372
2342.67080	0.01482
2341.38503	0.01592
2340.09926	0.01661
2338.81350	0.01650
2337.52773	0.01552
2336.24196	0.01411
2334.95619	0.01299
2333.67042	0.01273
2332.38465	0.01317
2331.09888	0.01377
2329.81311	0.01422
2328.52735	0.01454
2327.24158	0.01494
2325.95581	0.01549
2324.67004	0.01608
2323.38427	0.01656
2322.09850	0.01672
2320.81273	0.01645
2319.52696	0.01594
2318.24119	0.01548
2316.95543	0.01528
2315.66966	0.01533
2314.38389	0.01541
2313.09812	0.01535
2311.81235	0.01519
2310.52658	0.01507
2309.24081	0.01507
2307.95504	0.01516
2306.66928	0.01528
2305.38351	0.01540
2304.09774	0.01548
2302.81197	0.01547
2301.52620	0.01527
2300.24043	0.01487
2298.95466	0.01438
2297.66889	0.01396
2296.38312	0.01377
2295.09736	0.01383
2293.81159	0.01407
2292.52582	0.01429
2291.24005	0.01433
2289.95428	0.01422
2288.66851	0.01412
2287.38274	0.01414
2286.09697	0.01424
2284.81121	0.01431
2283.52544	0.01430
2282.23967	0.01429
2280.95390	0.01433
2279.66813	0.01439
2278.38236	0.01443
2277.09659	0.01448
2275.81082	0.01455
2274.52505	0.01451
2273.23929	0.01423
2271.95352	0.01372
2270.66775	0.01319
2269.38198	0.01287
2268.09621	0.01277
2266.81044	0.01269
2265.52467	0.01240
2264.23890	0.01187
2262.95314	0.01126
2261.66737	0.01079
2260.38160	0.01058
2259.09583	0.01057
2257.81006	0.01065
2256.52429	0.01064
2255.23852	0.01050
2253.95275	0.01027
2252.66698	0.01011
2251.38122	0.01012
2250.09545	0.01036
2248.80968	0.01072
2247.52391	0.01049
2246.23814	0.01019
2244.95237	0.01016
2243.66660	0.01059
2242.38083	0.01131
2241.09507	0.01184
2239.80930	0.01177
2238.52353	0.01120
2237.23776	0.01066
2235.95199	0.01047
2234.66622	0.01044
2233.38045	0.01025
2232.09468	0.01002
2230.80891	0.01002
2229.52315	0.01008
2228.23738	0.00978
2226.95161	0.00906
2225.66584	0.00829
2224.38007	0.00761
2223.09430	0.00676
2221.80853	0.00576
2220.52276	0.00522
2219.23700	0.00578
2217.95123	0.00727
2216.66546	0.00877
2215.37969	0.00926
2214.09392	0.00840
2212.80815	0.00678
2211.52238	0.00551
2210.23661	0.00524
2208.95084	0.00563
2207.66508	0.00588
2206.37931	0.00566
2205.09354	0.00525
2203.80777	0.00495
2202.52200	0.00473
2201.23623	0.00448
2199.95046	0.00427
2198.66469	0.00418
2197.37893	0.00420
2196.09316	0.00435
2194.80739	0.00474
2193.52162	0.00539
2192.23585	0.00609
2190.95008	0.00641
2189.66431	0.00600
2188.37854	0.00496
2187.09277	0.00376
2185.80701	0.00282
2184.52124	0.00224
2183.23547	0.00204
2181.94970	0.00228
2180.66393	0.00288
2179.37816	0.00341
2178.09239	0.00350
2176.80662	0.00320
2175.52085	0.00281
2174.23509	0.00253
2172.94932	0.00230
2171.66355	0.00204
2170.37778	0.00174
2169.09201	0.00143
2167.80624	0.00110
2166.52047	0.00081
2165.23470	0.00082
2163.94894	0.00132
2162.66317	0.00193
2161.37740	0.00185
2160.09163	0.00076
2158.80586	-0.00071
2157.52009	-0.00160
2156.23432	-0.00164
2154.94855	-0.00116
2153.66278	-0.00043
2152.37702	0.00061
2151.09125	0.00206
2149.80548	0.00368
2148.51971	0.00501
2147.23394	0.00560
2145.94817	0.00532
2144.66240	0.00436
2143.37663	0.00330
2142.09087	0.00286
2140.80510	0.00355
2139.51933	0.00509
2138.23356	0.00654
2136.94779	0.00698
2135.66202	0.00637
2134.37625	0.00534
2133.09048	0.00452
2131.80471	0.00410
2130.51895	0.00404
2129.23318	0.00431
2127.94741	0.00474
2126.66164	0.00507
2125.37587	0.00507
2124.09010	0.00479
2122.80433	0.00452
2121.51856	0.00462
2120.23280	0.00521
2118.94703	0.00603
2117.66126	0.00660
2116.37549	0.00670
2115.08972	0.00656
2113.80395	0.00655
2112.51818	0.00669
2111.23241	0.00668
2109.94664	0.00639
2108.66088	0.00610
2107.37511	0.00618
2106.08934	0.00667
2104.80357	0.00725
2103.51780	0.00763
2102.23203	0.00768
2100.94626	0.00739
2099.66049	0.00717
2098.37473	0.00646
2097.08896	0.00559
2095.80319	0.00516
2094.51742	0.00539
2093.23165	0.00607
2091.94588	0.00667
2090.66011	0.00681
2089.37434	0.00652
2088.08857	0.00615
2086.80281	0.00604
2085.51704	0.00614
2084.23127	0.00623
2082.94550	0.00619
2081.65973	0.00612
2080.37396	0.00611
2079.08819	0.00614
2077.80242	0.00610
2076.51666	0.00593
2075.23089	0.00567
2073.94512	0.00543
2072.65935	0.00528
2071.37358	0.00517
2070.08781	0.00505
2068.80204	0.00497
2067.51627	0.00503
2066.23050	0.00519
2064.94474	0.00523
2063.65897	0.00497
2062.37320	0.00443
2061.08743	0.00382
2059.80166	0.00343
2058.51589	0.00335
2057.23012	0.00339
2055.94435	0.00334
2054.65859	0.00315
2053.37282	0.00310
2052.08705	0.00339
2050.80128	0.00386
2049.51551	0.00406
2048.22974	0.00362
2046.94397	0.00255
2045.65820	0.00125
2044.37243	0.00025
2043.08667	-0.00006
2041.80090	0.00031
2040.51513	0.00093
2039.22936	0.00132
2037.94359	0.00129
2036.65782	0.00096
2035.37205	0.00070
2034.08628	0.00082
2032.80052	0.00135
2031.51475	0.00188
2030.22898	0.00184
2028.94321	0.00101
2027.65744	-0.00019
2026.37167	-0.00102
2025.08590	-0.00106
2023.80013	-0.00050
2022.51436	0.00018
2021.22860	0.00068
2019.94283	0.00101
2018.65706	0.00127
2017.37129	0.00136
2016.08552	0.00116
2014.79975	0.00071
2013.51398	0.00040
2012.22821	0.00061
2010.94245	0.00118
2009.65668	0.00153
2008.37091	0.00130
2007.08514	0.00083
2005.79937	0.00067
2004.51360	0.00085
2003.22783	0.00097
2001.94206	0.00084
2000.65629	0.00068
1999.37053	0.00091
1998.08476	0.00169
1996.79899	0.00288
1995.51322	0.00409
1994.22745	0.00486
1992.94168	0.00493
1991.65591	0.00447
1990.37014	0.00399
1989.08438	0.00393
1987.79861	0.00440
1986.51284	0.00514
1985.22707	0.00576
1983.94130	0.00607
1982.65553	0.00619
1981.36976	0.00630
1980.08399	0.00641
1978.79822	0.00632
1977.51246	0.00588
1976.22669	0.00523
1974.94092	0.00470
1973.65515	0.00449
1972.36938	0.00462
1971.08361	0.00497
1969.79784	0.00536
1968.51207	0.00557
1967.22631	0.00556
1965.94054	0.00549
1964.65477	0.00545
1963.36900	0.00544
1962.08323	0.00549
1960.79746	0.00577
1959.51169	0.00633
1958.22592	0.00691
1956.94015	0.00720
1955.65439	0.00712
1954.36862	0.00684
1953.08285	0.00654
1951.79708	0.00630
1950.51131	0.00614
1949.22554	0.00603
1947.93977	0.00596
1946.65400	0.00592
1945.36823	0.00601
1944.08247	0.00633
1942.79670	0.00691
1941.51093	0.00752
1940.22516	0.00782
1938.93939	0.00774
1937.65362	0.00757
1936.36785	0.00761
1935.08208	0.00788
1933.79632	0.00819
1932.51055	0.00837
1931.22478	0.00840
1929.93901	0.00839
1928.65324	0.00838
1927.36747	0.00828
1926.08170	0.00800
1924.79593	0.00763
1923.51016	0.00737
1922.22440	0.00734
1920.93863	0.00743
1919.65286	0.00743
1918.36709	0.00727
1917.08132	0.00707
1915.79555	0.00695
1914.50978	0.00702
1913.22401	0.00730
1911.93825	0.00768
1910.65248	0.00792
1909.36671	0.00796
1908.08094	0.00790
1906.79517	0.00792
1905.50940	0.00806
1904.22363	0.00832
1902.93786	0.00863
1901.65209	0.00895
1900.36633	0.00924
1899.08056	0.00941
1897.79479	0.00945
1896.50902	0.00940
1895.22325	0.00936
1893.93748	0.00937
1892.65171	0.00939
1891.36594	0.00940
1890.08018	0.00941
1888.79441	0.00944
1887.50864	0.00945
1886.22287	0.00936
1884.93710	0.00916
1883.65133	0.00893
1882.36556	0.00880
1881.07979	0.00881
1879.79402	0.00892
1878.50826	0.00904
1877.22249	0.00913
1875.93672	0.00921
1874.65095	0.00933
1873.36518	0.00950
1872.07941	0.00967
1870.79364	0.00976
1869.50787	0.00974
1868.22211	0.00962
1866.93634	0.00946
1865.65057	0.00932
1864.36480	0.00929
1863.07903	0.00932
1861.79326	0.00930
1860.50749	0.00915
1859.22172	0.00898
1857.93595	0.00897
1856.65019	0.00914
1855.36442	0.00933
1854.07865	0.00938
1852.79288	0.00927
1851.50711	0.00910
1850.22134	0.00905
1848.93557	0.00925
1847.64980	0.00964
1846.36404	0.00995
1845.07827	0.01002
1843.79250	0.00992
1842.50673	0.00981
1841.22096	0.00971
1839.93519	0.00961
1838.64942	0.00955
1837.36365	0.00948
1836.07788	0.00938
1834.79212	0.00931
1833.50635	0.00938
1832.22058	0.00961
1830.93481	0.00989
1829.64904	0.01018
1828.36327	0.01036
1827.07750	0.01032
1825.79173	0.01012
1824.50597	0.00997
1823.22020	0.00999
1821.93443	0.01010
1820.64866	0.01014
1819.36289	0.01003
1818.07712	0.00982
1816.79135	0.00965
1815.50558	0.00966
1814.21981	0.00982
1812.93405	0.01000
1811.64828	0.01012
1810.36251	0.01019
1809.07674	0.01022
1807.79097	0.01023
1806.50520	0.01023
1805.21943	0.01024
1803.93366	0.01027
1802.64790	0.01032
1801.36213	0.01037
1800.07636	0.01038
1798.79059	0.01034
1797.50482	0.01033
1796.21905	0.01045
1794.93328	0.01072
1793.64751	0.01102
1792.36174	0.01128
1791.07598	0.01145
1789.79021	0.01146
1788.50444	0.01129
1787.21867	0.01103
1785.93290	0.01084
1784.64713	0.01082
1783.36136	0.01093
1782.07559	0.01105
1780.78983	0.01111
1779.50406	0.01118
1778.21829	0.01131
1776.93252	0.01153
1775.64675	0.01175
1774.36098	0.01183
1773.07521	0.01183
1771.78944	0.01190
1770.50367	0.01204
1769.21791	0.01211
1767.93214	0.01210
1766.64637	0.01214
1765.36060	0.01220
1764.07483	0.01218
1762.78906	0.01212
1761.50329	0.01217
1760.21752	0.01233
1758.93176	0.01245
1757.64599	0.01246
1756.36022	0.01249
1755.07445	0.01262
1753.78868	0.01274
1752.50291	0.01271
1751.21714	0.01258
1749.93137	0.01247
1748.64560	0.01238
1747.35984	0.01235
1746.07407	0.01239
1744.78830	0.01249
1743.50253	0.01257
1742.21676	0.01260
1740.93099	0.01262
1739.64522	0.01276
1738.35945	0.01310
1737.07369	0.01346
1735.78792	0.01359
1734.50215	0.01362
1733.21638	0.01376
1731.93061	0.01394
1730.64484	0.01393
1729.35907	0.01378
1728.07330	0.01368
1726.78753	0.01371
1725.50177	0.01382
1724.21600	0.01399
1722.93023	0.01425
1721.64446	0.01462
1720.35869	0.01497
1719.07292	0.01520
1717.78715	0.01539
1716.50138	0.01562
1715.21561	0.01582
1713.92985	0.01590
1712.64408	0.01592
1711.35831	0.01596
1710.07254	0.01609
1708.78677	0.01632
1707.50100	0.01662
1706.21523	0.01700
1704.92946	0.01754
1703.64370	0.01815
1702.35793	0.01855
1701.07216	0.01878
1699.78639	0.01913
1698.50062	0.01950
1697.21485	0.01950
1695.92908	0.01926
1694.64331	0.01924
1693.35754	0.01941
1692.07178	0.01953
1690.78601	0.01966
1689.50024	0.02004
1688.21447	0.02064
1686.92870	0.02116
1685.64293	0.02144
1684.35716	0.02165
1683.07139	0.02191
1681.78563	0.02205
1680.49986	0.02204
1679.21409	0.02212
1677.92832	0.02235
1676.64255	0.02262
1675.35678	0.02295
1674.07101	0.02344
1672.78524	0.02395
1671.49947	0.02429
1670.21371	0.02449
1668.92794	0.02470
1667.64217	0.02498
1666.35640	0.02525
1665.07063	0.02546
1663.78486	0.02564
1662.49909	0.02591
1661.21332	0.02622
1659.92756	0.02655
1658.64179	0.02697
1657.35602	0.02758
1656.07025	0.02819
1654.78448	0.02848
1653.49871	0.02853
1652.21294	0.02872
1650.92717	0.02903
1649.64140	0.02909
1648.35564	0.02886
1647.06987	0.02863
1645.78410	0.02859
1644.49833	0.02868
1643.21256	0.02876
1641.92679	0.02886
1640.64102	0.02909
1639.35525	0.02943
1638.06949	0.02970
1636.78372	0.02982
1635.49795	0.02988
1634.21218	0.02999
1632.92641	0.03003
1631.64064	0.02998
1630.35487	0.02994
1629.06910	0.03007
1627.78333	0.03036
1626.49757	0.03068
1625.21180	0.03089
1623.92603	0.03098
1622.64026	0.03110
1621.35449	0.03134
1620.06872	0.03163
1618.78295	0.03182
1617.49718	0.03196
1616.21142	0.03218
1614.92565	0.03241
1613.63988	0.03250
1612.35411	0.03249
1611.06834	0.03256
1609.78257	0.03280
1608.49680	0.03310
1607.21103	0.03338
1605.92526	0.03359
1604.63950	0.03377
1603.35373	0.03393
1602.06796	0.03411
1600.78219	0.03431
1599.49642	0.03457
1598.21065	0.03488
1596.92488	0.03519
1595.63911	0.03546
1594.35335	0.03569
1593.06758	0.03589
1591.78181	0.03610
1590.49604	0.03631
1589.21027	0.03653
1587.92450	0.03678
1586.63873	0.03705
1585.35296	0.03732
1584.06719	0.03757
1582.78143	0.03780
1581.49566	0.03808
1580.20989	0.03844
1578.92412	0.03876
1577.63835	0.03894
1576.35258	0.03910
1575.06681	0.03940
1573.78104	0.03973
1572.49528	0.03988
1571.20951	0.03987
1569.92374	0.03989
1568.63797	0.04002
1567.35220	0.04013
1566.06643	0.04014
1564.78066	0.04020
1563.49489	0.04048
1562.20912	0.04087
1560.92336	0.04114
1559.63759	0.04133
1558.35182	0.04159
1557.06605	0.04175
1555.78028	0.04157
1554.49451	0.04115
1553.20874	0.04084
1551.92297	0.04070
1550.63721	0.04060
1549.35144	0.04052
1548.06567	0.04050
1546.77990	0.04051
1545.49413	0.04058
1544.20836	0.04075
1542.92259	0.04090
1541.63682	0.04084
1540.35105	0.04054
1539.06529	0.04017
1537.77952	0.03987
1536.49375	0.03952
1535.20798	0.03906
1533.92221	0.03870
1532.63644	0.03863
1531.35067	0.03877
1530.06490	0.03897
1528.77914	0.03923
1527.49337	0.03964
1526.20760	0.04022
1524.92183	0.04092
1523.63606	0.04159
1522.35029	0.04218
1521.06452	0.04285
1519.77875	0.04365
1518.49298	0.04443
1517.20722	0.04517
1515.92145	0.04598
1514.63568	0.04689
1513.34991	0.04782
1512.06414	0.04883
1510.77837	0.05003
1509.49260	0.05132
1508.20683	0.05256
1506.92107	0.05376
1505.63530	0.05499
1504.34953	0.05614
1503.06376	0.05703
1501.77799	0.05776
1500.49222	0.05856
1499.20645	0.05946
1497.92068	0.06033
1496.63491	0.06113
1495.34915	0.06191
1494.06338	0.06267
1492.77761	0.06334
1491.49184	0.06395
1490.20607	0.06462
1488.92030	0.06534
1487.63453	0.06604
1486.34876	0.06675
1485.06299	0.06751
1483.77723	0.06837
1482.49146	0.06932
1481.20569	0.07034
1479.91992	0.07139
1478.63415	0.07243
1477.34838	0.07346
1476.06261	0.07451
1474.77684	0.07548
1473.49108	0.07630
1472.20531	0.07696
1470.91954	0.07748
1469.63377	0.07784
1468.34800	0.07804
1467.06223	0.07813
1465.77646	0.07820
1464.49069	0.07834
1463.20492	0.07860
1461.91916	0.07902
1460.63339	0.07956
1459.34762	0.08015
1458.06185	0.08072
1456.77608	0.08132
1455.49031	0.08193
1454.20454	0.08237
1452.91877	0.08258
1451.63301	0.08273
1450.34724	0.08292
1449.06147	0.08309
1447.77570	0.08315
1446.48993	0.08308
1445.20416	0.08289
1443.91839	0.08266
1442.63262	0.08247
1441.34685	0.08239
1440.06109	0.08236
1438.77532	0.08225
1437.48955	0.08208
1436.20378	0.08202
1434.91801	0.08214
1433.63224	0.08237
1432.34647	0.08275
1431.06070	0.08339
1429.77494	0.08436
1428.48917	0.08554
1427.20340	0.08679
1425.91763	0.08803
1424.63186	0.08929
1423.34609	0.09063
1422.06032	0.09196
1420.77455	0.09317
1419.48878	0.09424
1418.20302	0.09516
1416.91725	0.09584
1415.63148	0.09619
1414.34571	0.09630
1413.05994	0.09626
1411.77417	0.09606
1410.48840	0.09568
1409.20263	0.09510
1407.91687	0.09430
1406.63110	0.09327
1405.34533	0.09205
1404.05956	0.09072
1402.77379	0.08927
1401.48802	0.08766
1400.20225	0.08590
1398.91648	0.08410
1397.63071	0.08230
1396.34495	0.08044
1395.05918	0.07848
1393.77341	0.07647
1392.48764	0.07444
1391.20187	0.07237
1389.91610	0.07028
1388.63033	0.06821
1387.34456	0.06625
1386.05880	0.06440
1384.77303	0.06256
1383.48726	0.06072
1382.20149	0.05889
1380.91572	0.05711
1379.62995	0.05535
1378.34418	0.05360
1377.05841	0.05186
1375.77264	0.05012
1374.48688	0.04839
1373.20111	0.04666
1371.91534	0.04496
1370.62957	0.04330
1369.34380	0.04174
1368.05803	0.04034
1366.77226	0.03910
1365.48649	0.03793
1364.20073	0.03679
1362.91496	0.03569
1361.62919	0.03465
1360.34342	0.03368
1359.05765	0.03273
1357.77188	0.03179
1356.48611	0.03089
1355.20034	0.03005
1353.91457	0.02930
1352.62881	0.02862
1351.34304	0.02801
1350.05727	0.02745
1348.77150	0.02693
1347.48573	0.02643
1346.19996	0.02595
1344.91419	0.02549
1343.62842	0.02504
1342.34266	0.02459
1341.05689	0.02415
1339.77112	0.02376
1338.48535	0.02344
1337.19958	0.02319
1335.91381	0.02295
1334.62804	0.02268
1333.34227	0.02239
1332.05650	0.02211
1330.77074	0.02186
1329.48497	0.02164
1328.19920	0.02139
1326.91343	0.02111
1325.62766	0.02082
1324.34189	0.02055
1323.05612	0.02034
1321.77035	0.02016
1320.48459	0.01998
1319.19882	0.01979
1317.91305	0.01959
1316.62728	0.01940
1315.34151	0.01926
1314.05574	0.01916
1312.76997	0.01909
1311.48420	0.01900
1310.19843	0.01885
1308.91267	0.01866
1307.62690	0.01847
1306.34113	0.01829
1305.05536	0.01815
1303.76959	0.01803
1302.48382	0.01793
1301.19805	0.01781
1299.91228	0.01768
1298.62652	0.01752
1297.34075	0.01737
1296.05498	0.01722
1294.76921	0.01708
1293.48344	0.01697
1292.19767	0.01692
1290.91190	0.01692
1289.62613	0.01693
1288.34036	0.01694
1287.05460	0.01690
1285.76883	0.01681
1284.48306	0.01669
1283.19729	0.01658
1281.91152	0.01649
1280.62575	0.01643
1279.33998	0.01634
1278.05421	0.01622
1276.76845	0.01611
1275.48268	0.01601
1274.19691	0.01593
1272.91114	0.01587
1271.62537	0.01584
1270.33960	0.01584
1269.05383	0.01579
1267.76806	0.01569
1266.48229	0.01555
1265.19653	0.01542
1263.91076	0.01533
1262.62499	0.01528
1261.33922	0.01526
1260.05345	0.01526
1258.76768	0.01523
1257.48191	0.01519
1256.19614	0.01516
1254.91037	0.01517
1253.62461	0.01520
1252.33884	0.01521
1251.05307	0.01517
1249.76730	0.01511
1248.48153	0.01507
1247.19576	0.01504
1245.90999	0.01501
1244.62422	0.01494
1243.33846	0.01487
1242.05269	0.01484
1240.76692	0.01486
1239.48115	0.01488
1238.19538	0.01490
1236.90961	0.01490
1235.62384	0.01491
1234.33807	0.01492
1233.05230	0.01491
1231.76654	0.01490
1230.48077	0.01489
1229.19500	0.01491
1227.90923	0.01497
1226.62346	0.01504
1225.33769	0.01511
1224.05192	0.01515
1222.76615	0.01517
1221.48039	0.01517
1220.19462	0.01517
1218.90885	0.01518
1217.62308	0.01520
1216.33731	0.01524
1215.05154	0.01531
1213.76577	0.01543
1212.48000	0.01559
1211.19423	0.01577
1209.90847	0.01593
1208.62270	0.01606
1207.33693	0.01616
1206.05116	0.01626
1204.76539	0.01637
1203.47962	0.01649
1202.19385	0.01662
1200.90808	0.01671
1199.62232	0.01673
1198.33655	0.01681
1197.05078	0.01690
1195.76501	0.01701
1194.47924	0.01715
1193.19347	0.01730
1191.90770	0.01746
1190.62193	0.01763
1189.33616	0.01781
1188.05040	0.01799
1186.76463	0.01816
1185.47886	0.01828
1184.19309	0.01834
1182.90732	0.01836
1181.62155	0.01838
1180.33578	0.01841
1179.05001	0.01847
1177.76425	0.01856
1176.47848	0.01872
1175.19271	0.01892
1173.90694	0.01909
1172.62117	0.01922
1171.33540	0.01931
1170.04963	0.01941
1168.76386	0.01956
1167.47809	0.01978
1166.19233	0.02007
1164.90656	0.02037
1163.62079	0.02064
1162.33502	0.02085
1161.04925	0.02103
1159.76348	0.02125
1158.47771	0.02158
1157.19194	0.02199
1155.90618	0.02237
1154.62041	0.02268
1153.33464	0.02296
1152.04887	0.02332
1150.76310	0.02380
1149.47733	0.02434
1148.19156	0.02491
1146.90579	0.02547
1145.62002	0.02606
1144.33426	0.02670
1143.04849	0.02741
1141.76272	0.02820
1140.47695	0.02908
1139.19118	0.03005
1137.90541	0.03112
1136.61964	0.03230
1135.33387	0.03357
1134.04811	0.03497
1132.76234	0.03654
1131.47657	0.03834
1130.19080	0.04037
1128.90503	0.04262
1127.61926	0.04505
1126.33349	0.04768
1125.04772	0.05055
1123.76195	0.05366
1122.47619	0.05698
1121.19042	0.06041
1119.90465	0.06385
1118.61888	0.06725
1117.33311	0.07064
1116.04734	0.07406
1114.76157	0.07754
1113.47580	0.08102
1112.19004	0.08443
1110.90427	0.08775
1109.61850	0.09097
1108.33273	0.09411
1107.04696	0.09712
1105.76119	0.10004
1104.47542	0.10289
1103.18965	0.10569
1101.90388	0.10843
1100.61812	0.11110
1099.33235	0.11369
1098.04658	0.11620
1096.76081	0.11861
1095.47504	0.12095
1094.18927	0.12324
1092.90350	0.12544
1091.61773	0.12748
1090.33197	0.12939
1089.04620	0.13121
1087.76043	0.13302
1086.47466	0.13486
1085.18889	0.13675
1083.90312	0.13873
1082.61735	0.14082
1081.33158	0.14301
1080.04581	0.14530
1078.76005	0.14766
1077.47428	0.15014
1076.18851	0.15278
1074.90274	0.15562
1073.61697	0.15869
1072.33120	0.16197
1071.04543	0.16542
1069.75966	0.16897
1068.47390	0.17256
1067.18813	0.17620
1065.90236	0.17992
1064.61659	0.18377
1063.33082	0.18773
1062.04505	0.19169
1060.75928	0.19562
1059.47351	0.19951
1058.18774	0.20340
1056.90198	0.20728
1055.61621	0.21110
1054.33044	0.21486
1053.04467	0.21856
1051.75890	0.22227
1050.47313	0.22602
1049.18736	0.22988
1047.90159	0.23390
1046.61583	0.23813
1045.33006	0.24255
1044.04429	0.24702
1042.75852	0.25141
1041.47275	0.25566
1040.18698	0.25990
1038.90121	0.26427
1037.61544	0.26881
1036.32967	0.27341
1035.04391	0.27789
1033.75814	0.28212
1032.47237	0.28599
1031.18660	0.28945
1029.90083	0.29247
1028.61506	0.29507
1027.32929	0.29727
1026.04352	0.29908
1024.75775	0.30043
1023.47199	0.30129
1022.18622	0.30159
1020.90045	0.30126
1019.61468	0.30020
1018.32891	0.29838
1017.04314	0.29580
1015.75737	0.29249
1014.47160	0.28848
1013.18584	0.28376
1011.90007	0.27828
1010.61430	0.27203
1009.32853	0.26510
1008.04276	0.25758
1006.75699	0.24953
1005.47122	0.24096
1004.18545	0.23194
1002.89968	0.22264
1001.61392	0.21318
1000.32815	0.20365
999.04238	0.19412
997.75661	0.18464
996.47084	0.17529
995.18507	0.16615
993.89930	0.15731
992.61353	0.14890
991.32777	0.14102
990.04200	0.13367
988.75623	0.12679
987.47046	0.12032
986.18469	0.11422
984.89892	0.10845
983.61315	0.10300
982.32738	0.09794
981.04161	0.09337
979.75585	0.08933
978.47008	0.08574
977.18431	0.08251
975.89854	0.07961
974.61277	0.07715
973.32700	0.07521
972.04123	0.07384
970.75546	0.07304
969.46970	0.07281
968.18393	0.07320
966.89816	0.07417
965.61239	0.07557
964.32662	0.07711
963.04085	0.07847
961.75508	0.07938
960.46931	0.07965
959.18354	0.07918
957.89778	0.07793
956.61201	0.07597
955.32624	0.07353
954.04047	0.07090
952.75470	0.06826
951.46893	0.06569
950.18316	0.06320
948.89739	0.06084
947.61163	0.05862
946.32586	0.05653
945.04009	0.05450
943.75432	0.05249
942.46855	0.05054
941.18278	0.04874
939.89701	0.04716
938.61124	0.04577
937.32547	0.04451
936.03971	0.04332
934.75394	0.04224
933.46817	0.04129
932.18240	0.04051
930.89663	0.03983
929.61086	0.03918
928.32509	0.03849
927.03932	0.03778
925.75356	0.03710
924.46779	0.03653
923.18202	0.03606
921.89625	0.03565
920.61048	0.03525
919.32471	0.03486
918.03894	0.03453
916.75317	0.03423
915.46740	0.03394
914.18164	0.03362
912.89587	0.03329
911.61010	0.03293
910.32433	0.03253
909.03856	0.03210
907.75279	0.03172
906.46702	0.03145
905.18125	0.03132
903.89549	0.03126
902.60972	0.03120
901.32395	0.03110
900.03818	0.03100
898.75241	0.03091
897.46664	0.03080
896.18087	0.03067
894.89510	0.03055
893.60933	0.03049
892.32357	0.03056
891.03780	0.03083
889.75203	0.03130
888.46626	0.03196
887.18049	0.03283
885.89472	0.03406
884.60895	0.03582
883.32318	0.03823
882.03742	0.04113
880.75165	0.04403
879.46588	0.04641
878.18011	0.04812
876.89434	0.04947
875.60857	0.05093
874.32280	0.05257
873.03703	0.05395
871.75126	0.05450
870.46550	0.05398
869.17973	0.05260
867.89396	0.05065
866.60819	0.04830
865.32242	0.04568
864.03665	0.04303
862.75088	0.04063
861.46511	0.03865
860.17935	0.03707
858.89358	0.03579
857.60781	0.03472
856.32204	0.03379
855.03627	0.03298
853.75050	0.03231
852.46473	0.03177
851.17896	0.03133
849.89319	0.03097
848.60743	0.03068
847.32166	0.03043
846.03589	0.03015
844.75012	0.02986
843.46435	0.02959
842.17858	0.02936
840.89281	0.02917
839.60704	0.02902
838.32128	0.02891
837.03551	0.02882
835.74974	0.02872
834.46397	0.02860
833.17820	0.02848
831.89243	0.02839
830.60666	0.02836
829.32089	0.02835
828.03512	0.02834
826.74936	0.02831
825.46359	0.02825
824.17782	0.02819
822.89205	0.02814
821.60628	0.02809
820.32051	0.02803
819.03474	0.02797
817.74897	0.02791
816.46321	0.02785
815.17744	0.02773
813.89167	0.02756
812.60590	0.02740
811.32013	0.02731
810.03436	0.02729
808.74859	0.02732
807.46282	0.02741
806.17705	0.02753
804.89129	0.02764
803.60552	0.02773
802.31975	0.02780
801.03398	0.02785
799.74821	0.02787
798.46244	0.02782
797.17667	0.02773
795.89090	0.02766
794.60513	0.02768
793.31937	0.02778
792.03360	0.02788
790.74783	0.02790
789.46206	0.02785
788.17629	0.02780
786.89052	0.02778
785.60475	0.02775
784.31898	0.02766
783.03322	0.02754
781.74745	0.02745
780.46168	0.02741
779.17591	0.02737
777.89014	0.02727
776.60437	0.02715
775.31860	0.02711
774.03283	0.02720
772.74706	0.02736
771.46130	0.02752
770.17553	0.02765
768.88976	0.02776
767.60399	0.02784
766.31822	0.02786
765.03245	0.02782
763.74668	0.02777
762.46091	0.02773
761.17515	0.02773
759.88938	0.02778
758.60361	0.02789
757.31784	0.02803
756.03207	0.02816
754.74630	0.02824
753.46053	0.02828
752.17476	0.02830
750.88899	0.02834
749.60323	0.02841
748.31746	0.02847
747.03169	0.02848
745.74592	0.02843
744.46015	0.02838
743.17438	0.02833
741.88861	0.02822
740.60284	0.02802
739.31708	0.02779
738.03131	0.02766
736.74554	0.02770
735.45977	0.02787
734.17400	0.02812
732.88823	0.02835
731.60246	0.02850
730.31669	0.02856
729.03092	0.02858
727.74516	0.02863
726.45939	0.02873
725.17362	0.02879
723.88785	0.02870
722.60208	0.02885
721.31631	0.02920
720.03054	0.02954
718.74477	0.02973
717.45901	0.02975
716.17324	0.02967
714.88747	0.02951
713.60170	0.02932
712.31593	0.02916
711.03016	0.02905
709.74439	0.02899
708.45862	0.02897
707.17285	0.02897
705.88709	0.02893
704.60132	0.02888
703.31555	0.02884
702.02978	0.02887
700.74401	0.02897
699.45824	0.02911
698.17247	0.02925
696.88670	0.02936
695.60094	0.02942
694.31517	0.02948
693.02940	0.02955
691.74363	0.02962
690.45786	0.02966
689.17209	0.02964
687.88632	0.02953
686.60055	0.02937
685.31478	0.02924
684.02902	0.02917
682.74325	0.02916
681.45748	0.02918
680.17171	0.02919
678.88594	0.02919
677.60017	0.02919
676.31440	0.02920
675.02863	0.02924
673.74287	0.02940
672.45710	0.02980
671.17133	0.03044
669.88556	0.03101
668.59979	0.03111
667.31402	0.03081
666.02825	0.03055
664.74248	0.03026
663.45671	0.02992
662.17095	0.02968
660.88518	0.02958
659.59941	0.02957
658.31364	0.02963
657.02787	0.02976
655.74210	0.02993
654.45633	0.03012
653.17056	0.03029
651.88480	0.03041
650.59903	0.03047
649.31326	0.03049
648.02749	0.03050
646.74172	0.03053
645.45595	0.03064
644.17018	0.03083
642.88441	0.03109
641.59864	0.03137
640.31288	0.03164
639.02711	0.03189
637.74134	0.03215
636.45557	0.03246
635.16980	0.03281
633.88403	0.03321
632.59826	0.03370
631.31249	0.03439
630.02673	0.03539
628.74096	0.03631
627.45519	0.03662
626.16942	0.03838
624.88365	0.04135
623.59788	0.04501
622.31211	0.04902
621.02634	0.05253
619.74057	0.05454
618.45481	0.05516
617.16904	0.05570
615.88327	0.05737
614.59750	0.06030
613.31173	0.06395
612.02596	0.06823
610.74019	0.07378
609.45442	0.08092
608.16866	0.08874
606.88289	0.09568
605.59712	0.10085
604.31135	0.10421
603.02558	0.10615
601.73981	0.10691
600.45404	0.10634
599.16827	0.10422
597.88250	0.10078
596.59674	0.09668
595.31097	0.09262
594.02520	0.08907
592.73943	0.08622
591.45366	0.08419
590.16789	0.08303
588.88212	0.08271
587.59635	0.08310
586.31059	0.08412
585.02482	0.08573
583.73905	0.08791
582.45328	0.09055
581.16751	0.09345
579.88174	0.09644
578.59597	0.09947
577.31020	0.10248
576.02443	0.10538
574.73867	0.10813
573.45290	0.11081
572.16713	0.11363
570.88136	0.11681
569.59559	0.12052
568.30982	0.12476
567.02405	0.12936
565.73828	0.13389
564.45251	0.13776
563.16675	0.14034
561.88098	0.14111
560.59521	0.13970
559.30944	0.13607
558.02367	0.13053
556.73790	0.12357
555.45213	0.11574
554.16636	0.10754
552.88060	0.09954
551.59483	0.09224
550.30906	0.08586
549.02329	0.08034
547.73752	0.07542
546.45175	0.07090
545.16598	0.06680
543.88021	0.06324
542.59444	0.06027
541.30868	0.05776
540.02291	0.05552
538.73714	0.05341
537.45137	0.05145
536.16560	0.04971
534.87983	0.04821
533.59406	0.04689
532.30829	0.04564
531.02253	0.04441
529.73676	0.04324
528.45099	0.04217
527.16522	0.04120
525.87945	0.04027
524.59368	0.03934
523.30791	0.03840
522.02214	0.03751
520.73637	0.03670
519.45061	0.03603
518.16484	0.03550
516.87907	0.03504
515.59330	0.03455
514.30753	0.03400
513.02176	0.03344
511.73599	0.03295
510.45022	0.03250
509.16446	0.03204
507.87869	0.03154
506.59292	0.03105
505.30715	0.03061
504.02138	0.03023
502.73561	0.02986
501.44984	0.02947
500.16407	0.02906
498.87830	0.02867
497.59254	0.02836
496.30677	0.02812
495.02100	0.02788
493.73523	0.02763
492.44946	0.02741
491.16369	0.02729
489.87792	0.02723
488.59215	0.02716
487.30639	0.02704
486.02062	0.02688
484.73485	0.02677
483.44908	0.02679
482.16331	0.02696
480.87754	0.02724
479.59177	0.02753
478.30600	0.02778
477.02023	0.02799
475.73447	0.02822
474.44870	0.02845
473.16293	0.02862
471.87716	0.02865
470.59139	0.02856
469.30562	0.02841
468.01985	0.02828
466.73408	0.02815
465.44832	0.02797
464.16255	0.02772
462.87678	0.02741
461.59101	0.02709
460.30524	0.02680
459.01947	0.02657
457.73370	0.02639
456.44793	0.02620
455.16216	0.02596
453.87640	0.02568
452.59063	0.02545
451.30486	0.02525
450.01909	0.02505
448.73332	0.02480
447.44755	0.02449
446.16178	0.02416
444.87601	0.02385
443.59025	0.02357
442.30448	0.02335
441.01871	0.02317
439.73294	0.02303
438.44717	0.02292
437.16140	0.02285
435.87563	0.02280
434.58986	0.02275
433.30409	0.02270
432.01833	0.02264
430.73256	0.02260
429.44679	0.02253
428.16102	0.02239
426.87525	0.02219
425.58948	0.02201
424.30371	0.02189
423.01794	0.02181
421.73218	0.02168
420.44641	0.02146
419.16064	0.02125
417.87487	0.02114
416.58910	0.02114
415.30333	0.02114
414.01756	0.02110
412.73179	0.02104
411.44602	0.02096
410.16026	0.02089
408.87449	0.02085
407.58872	0.02085
406.30295	0.02092
405.01718	0.02101
403.73141	0.02112
402.44564	0.02121
401.15987	0.02130
399.87411	0.02138
