3997.45528	0.03406
3996.16951	0.03394
3994.88374	0.03404
3993.59798	0.03437
3992.31221	0.03482
3991.02644	0.03523
3989.74067	0.03555
3988.45490	0.03589
3987.16913	0.03628
3985.88336	0.03658
3984.59759	0.03649
3983.31183	0.03590
3982.02606	0.03505
3980.74029	0.03443
3979.45452	0.03436
3978.16875	0.03477
3976.88298	0.03538
3975.59721	0.03591
3974.31144	0.03622
3973.02567	0.03628
3971.73991	0.03618
3970.45414	0.03602
3969.16837	0.03584
3967.88260	0.03564
3966.59683	0.03544
3965.31106	0.03531
3964.02529	0.03532
3962.73952	0.03552
3961.45376	0.03575
3960.16799	0.03572
3958.88222	0.03518
3957.59645	0.03426
3956.31068	0.03336
3955.02491	0.03281
3953.73914	0.03264
3952.45337	0.03273
3951.16760	0.03302
3949.88184	0.03344
3948.59607	0.03383
3947.31030	0.03394
3946.02453	0.03370
3944.73876	0.03326
3943.45299	0.03286
3942.16722	0.03269
3940.88145	0.03268
3939.59569	0.03275
3938.30992	0.03285
3937.02415	0.03302
3935.73838	0.03330
3934.45261	0.03370
3933.16684	0.03420
3931.88107	0.03465
3930.59530	0.03491
3929.30953	0.03499
3928.02377	0.03504
3926.73800	0.03508
3925.45223	0.03494
3924.16646	0.03452
3922.88069	0.03393
3921.59492	0.03344
3920.30915	0.03322
3919.02338	0.03325
3917.73762	0.03343
3916.45185	0.03367
3915.16608	0.03393
3913.88031	0.03414
3912.59454	0.03414
3911.30877	0.03377
3910.02300	0.03314
3908.73723	0.03267
3907.45146	0.03275
3906.16570	0.03334
3904.87993	0.03405
3903.59416	0.03449
3902.30839	0.03452
3901.02262	0.03421
3899.73685	0.03375
3898.45108	0.03327
3897.16531	0.03278
3895.87955	0.03233
3894.59378	0.03209
3893.30801	0.03220
3892.02224	0.03263
3890.73647	0.03320
3889.45070	0.03363
3888.16493	0.03368
3886.87916	0.03342
3885.59339	0.03318
3884.30763	0.03309
3883.02186	0.03299
3881.73609	0.03277
3880.45032	0.03266
3879.16455	0.03286
3877.87878	0.03312
3876.59301	0.03311
3875.30724	0.03285
3874.02148	0.03265
3872.73571	0.03254
3871.44994	0.03229
3870.16417	0.03194
3868.87840	0.03185
3867.59263	0.03216
3866.30686	0.03265
3865.02109	0.03296
3863.73532	0.03290
3862.44956	0.03254
3861.16379	0.03220
3859.87802	0.03218
3858.59225	0.03254
3857.30648	0.03315
3856.02071	0.03376
3854.73494	0.03417
3853.44917	0.03433
3852.16341	0.03434
3850.87764	0.03434
3849.59187	0.03440
3848.30610	0.03431
3847.02033	0.03382
3845.73456	0.03308
3844.44879	0.03257
3843.16302	0.03254
3841.87725	0.03271
3840.59149	0.03255
3839.30572	0.03188
3838.01995	0.03107
3836.73418	0.03060
3835.44841	0.03059
3834.16264	0.03085
3832.87687	0.03119
3831.59110	0.03151
3830.30534	0.03173
3829.01957	0.03186
3827.73380	0.03198
3826.44803	0.03218
3825.16226	0.03244
3823.87649	0.03265
3822.59072	0.03280
3821.30495	0.03301
3820.01918	0.03322
3818.73342	0.03305
3817.44765	0.03229
3816.16188	0.03131
3814.87611	0.03064
3813.59034	0.03042
3812.30457	0.03052
3811.01880	0.03077
3809.73303	0.03087
3808.44726	0.03057
3807.16150	0.03007
3805.87573	0.02986
3804.58996	0.03019
3803.30419	0.03090
3802.01842	0.03170
3800.73265	0.03232
3799.44688	0.03252
3798.16111	0.03221
3796.87535	0.03165
3795.58958	0.03124
3794.30381	0.03117
3793.01804	0.03128
3791.73227	0.03126
3790.44650	0.03088
3789.16073	0.03026
3787.87496	0.02970
3786.58919	0.02940
3785.30343	0.02941
3784.01766	0.02970
3782.73189	0.03018
3781.44612	0.03068
3780.16035	0.03106
3778.87458	0.03128
3777.58881	0.03144
3776.30304	0.03157
3775.01728	0.03165
3773.73151	0.03167
3772.44574	0.03160
3771.15997	0.03144
3769.87420	0.03120
3768.58843	0.03090
3767.30266	0.03051
3766.01689	0.03006
3764.73112	0.02968
3763.44536	0.02952
3762.15959	0.02966
3760.87382	0.02993
3759.58805	0.03002
3758.30228	0.02973
3757.01651	0.02926
3755.73074	0.02898
3754.44497	0.02896
3753.15921	0.02901
3751.87344	0.02898
3750.58767	0.02895
3749.30190	0.02913
3748.01613	0.02945
3746.73036	0.02950
3745.44459	0.02917
3744.15882	0.02894
3742.87305	0.02918
3741.58729	0.02961
3740.30152	0.02994
3739.01575	0.03015
3737.72998	0.03031
3736.44421	0.03052
3735.15844	0.03081
3733.87267	0.03099
3732.58690	0.03093
3731.30114	0.03064
3730.01537	0.03014
3728.72960	0.02932
3727.44383	0.02815
3726.15806	0.02688
3724.87229	0.02593
3723.58652	0.02567
3722.30075	0.02621
3721.01498	0.02726
3719.72922	0.02838
3718.44345	0.02933
3717.15768	0.03018
3715.87191	0.03092
3714.58614	0.03123
3713.30037	0.03082
3712.01460	0.02988
3710.72883	0.02901
3709.44307	0.02867
3708.15730	0.02882
3706.87153	0.02898
3705.58576	0.02865
3704.29999	0.02785
3703.01422	0.02713
3701.72845	0.02698
3700.44268	0.02737
3699.15691	0.02775
3697.87115	0.02771
3696.58538	0.02738
3695.29961	0.02721
3694.01384	0.02742
3692.72807	0.02790
3691.44230	0.02835
3690.15653	0.02850
3688.87076	0.02829
3687.58500	0.02788
3686.29923	0.02757
3685.01346	0.02760
3683.72769	0.02807
3682.44192	0.02886
3681.15615	0.02962
3679.87038	0.03004
3678.58461	0.03003
3677.29884	0.02969
3676.01308	0.02933
3674.72731	0.02925
3673.44154	0.02934
3672.15577	0.02936
3670.87000	0.02932
3669.58423	0.02933
3668.29846	0.02926
3667.01269	0.02895
3665.72693	0.02848
3664.44116	0.02795
3663.15539	0.02739
3661.86962	0.02702
3660.58385	0.02713
3659.29808	0.02769
3658.01231	0.02824
3656.72654	0.02843
3655.44077	0.02842
3654.15501	0.02855
3652.86924	0.02888
3651.58347	0.02920
3650.29770	0.02931
3649.01193	0.02917
3647.72616	0.02893
3646.44039	0.02887
3645.15462	0.02915
3643.86886	0.02975
3642.58309	0.03049
3641.29732	0.03113
3640.01155	0.03154
3638.72578	0.03180
3637.44001	0.03209
3636.15424	0.03248
3634.86847	0.03274
3633.58270	0.03255
3632.29694	0.03181
3631.01117	0.03083
3629.72540	0.03022
3628.43963	0.03036
3627.15386	0.03096
3625.86809	0.03146
3624.58232	0.03172
3623.29655	0.03191
3622.01079	0.03205
3620.72502	0.03203
3619.43925	0.03188
3618.15348	0.03171
3616.86771	0.03149
3615.58194	0.03118
3614.29617	0.03098
3613.01040	0.03119
3611.72463	0.03188
3610.43887	0.03265
3609.15310	0.03305
3607.86733	0.03293
3606.58156	0.03253
3605.29579	0.03227
3604.01002	0.03243
3602.72425	0.03301
3601.43848	0.03373
3600.15272	0.03423
3598.86695	0.03427
3597.58118	0.03385
3596.29541	0.03326
3595.00964	0.03287
3593.72387	0.03289
3592.43810	0.03330
3591.15233	0.03396
3589.86656	0.03472
3588.58080	0.03535
3587.29503	0.03561
3586.00926	0.03531
3584.72349	0.03459
3583.43772	0.03379
3582.15195	0.03328
3580.86618	0.03328
3579.58041	0.03385
3578.29464	0.03488
3577.00888	0.03605
3575.72311	0.03694
3574.43734	0.03739
3573.15157	0.03762
3571.86580	0.03790
3570.58003	0.03829
3569.29426	0.03865
3568.00849	0.03891
3566.72273	0.03903
3565.43696	0.03895
3564.15119	0.03855
3562.86542	0.03787
3561.57965	0.03725
3560.29388	0.03705
3559.00811	0.03739
3557.72234	0.03805
3556.43657	0.03863
3555.15081	0.03887
3553.86504	0.03882
3552.57927	0.03865
3551.29350	0.03843
3550.00773	0.03815
3548.72196	0.03789
3547.43619	0.03797
3546.15042	0.03862
3544.86466	0.03973
3543.57889	0.04086
3542.29312	0.04170
3541.00735	0.04225
3539.72158	0.04265
3538.43581	0.04298
3537.15004	0.04318
3535.86427	0.04329
3534.57850	0.04343
3533.29274	0.04370
3532.00697	0.04392
3530.72120	0.04386
3529.43543	0.04350
3528.14966	0.04302
3526.86389	0.04258
3525.57812	0.04228
3524.29235	0.04221
3523.00659	0.04245
3521.72082	0.04294
3520.43505	0.04341
3519.14928	0.04366
3517.86351	0.04373
3516.57774	0.04382
3515.29197	0.04412
3514.00620	0.04461
3512.72043	0.04505
3511.43467	0.04519
3510.14890	0.04497
3508.86313	0.04453
3507.57736	0.04413
3506.29159	0.04400
3505.00582	0.04424
3503.72005	0.04471
3502.43428	0.04513
3501.14852	0.04530
3499.86275	0.04530
3498.57698	0.04538
3497.29121	0.04571
3496.00544	0.04616
3494.71967	0.04646
3493.43390	0.04647
3492.14813	0.04626
3490.86236	0.04602
3489.57660	0.04590
3488.29083	0.04592
3487.00506	0.04603
3485.71929	0.04620
3484.43352	0.04644
3483.14775	0.04683
3481.86198	0.04735
3480.57621	0.04781
3479.29045	0.04803
3478.00468	0.04807
3476.71891	0.04823
3475.43314	0.04867
3474.14737	0.04923
3472.86160	0.04961
3471.57583	0.04971
3470.29006	0.04968
3469.00429	0.04972
3467.71853	0.04988
3466.43276	0.05013
3465.14699	0.05040
3463.86122	0.05059
3462.57545	0.05060
3461.28968	0.05046
3460.00391	0.05032
3458.71814	0.05025
3457.43238	0.05018
3456.14661	0.04998
3454.86084	0.04970
3453.57507	0.04956
3452.28930	0.04976
3451.00353	0.05023
3449.71776	0.05072
3448.43199	0.05095
3447.14622	0.05087
3445.86046	0.05064
3444.57469	0.05054
3443.28892	0.05068
3442.00315	0.05101
3440.71738	0.05147
3439.43161	0.05208
3438.14584	0.05285
3436.86007	0.05354
3435.57431	0.05386
3434.28854	0.05368
3433.00277	0.05318
3431.71700	0.05259
3430.43123	0.05204
3429.14546	0.05153
3427.85969	0.05114
3426.57392	0.05097
3425.28815	0.05101
3424.00239	0.05115
3422.71662	0.05126
3421.43085	0.05132
3420.14508	0.05148
3418.85931	0.05191
3417.57354	0.05267
3416.28777	0.05357
3415.00200	0.05427
3413.71624	0.05448
3412.43047	0.05416
3411.14470	0.05348
3409.85893	0.05272
3408.57316	0.05221
3407.28739	0.05214
3406.00162	0.05252
3404.71585	0.05309
3403.43008	0.05351
3402.14432	0.05364
3400.85855	0.05363
3399.57278	0.05370
3398.28701	0.05399
3397.00124	0.05436
3395.71547	0.05455
3394.42970	0.05444
3393.14393	0.05425
3391.85817	0.05430
3390.57240	0.05467
3389.28663	0.05511
3388.00086	0.05533
3386.71509	0.05525
3385.42932	0.05501
3384.14355	0.05483
3382.85778	0.05485
3381.57201	0.05513
3380.28625	0.05551
3379.00048	0.05578
3377.71471	0.05584
3376.42894	0.05580
3375.14317	0.05580
3373.85740	0.05582
3372.57163	0.05577
3371.28586	0.05569
3370.00010	0.05567
3368.71433	0.05580
3367.42856	0.05603
3366.14279	0.05627
3364.85702	0.05645
3363.57125	0.05654
3362.28548	0.05655
3360.99971	0.05653
3359.71394	0.05652
3358.42818	0.05659
3357.14241	0.05686
3355.85664	0.05731
3354.57087	0.05777
3353.28510	0.05796
3351.99933	0.05776
3350.71356	0.05731
3349.42779	0.05687
3348.14202	0.05666
3346.85626	0.05671
3345.57049	0.05695
3344.28472	0.05723
3342.99895	0.05739
3341.71318	0.05735
3340.42741	0.05711
3339.14164	0.05680
3337.85587	0.05657
3336.57011	0.05650
3335.28434	0.05658
3333.99857	0.05674
3332.71280	0.05697
3331.42703	0.05729
3330.14126	0.05764
3328.85549	0.05787
3327.56972	0.05790
3326.28395	0.05785
3324.99819	0.05790
3323.71242	0.05811
3322.42665	0.05840
3321.14088	0.05859
3319.85511	0.05855
3318.56934	0.05831
3317.28357	0.05804
3315.99780	0.05788
3314.71204	0.05783
3313.42627	0.05780
3312.14050	0.05781
3310.85473	0.05793
3309.56896	0.05812
3308.28319	0.05821
3306.99742	0.05813
3305.71165	0.05802
3304.42588	0.05803
3303.14012	0.05819
3301.85435	0.05839
3300.56858	0.05853
3299.28281	0.05851
3297.99704	0.05826
3296.71127	0.05787
3295.42550	0.05757
3294.13973	0.05758
3292.85397	0.05786
3291.56820	0.05817
3290.28243	0.05831
3288.99666	0.05832
3287.71089	0.05832
3286.42512	0.05827
3285.13935	0.05804
3283.85358	0.05762
3282.56781	0.05716
3281.28205	0.05683
3279.99628	0.05683
3278.71051	0.05729
3277.42474	0.05816
3276.13897	0.05907
3274.85320	0.05954
3273.56743	0.05937
3272.28166	0.05883
3270.99590	0.05835
3269.71013	0.05818
3268.42436	0.05821
3267.13859	0.05819
3265.85282	0.05796
3264.56705	0.05759
3263.28128	0.05728
3261.99551	0.05718
3260.70974	0.05727
3259.42398	0.05740
3258.13821	0.05745
3256.85244	0.05746
3255.56667	0.05750
3254.28090	0.05756
3252.99513	0.05750
3251.70936	0.05729
3250.42359	0.05706
3249.13783	0.05690
3247.85206	0.05681
3246.56629	0.05674
3245.28052	0.05667
3243.99475	0.05657
3242.70898	0.05635
3241.42321	0.05595
3240.13744	0.05551
3238.85167	0.05526
3237.56591	0.05533
3236.28014	0.05559
3234.99437	0.05576
3233.70860	0.05565
3232.42283	0.05528
3231.13706	0.05490
3229.85129	0.05475
3228.56552	0.05488
3227.27976	0.05517
3225.99399	0.05541
3224.70822	0.05553
3223.42245	0.05558
3222.13668	0.05565
3220.85091	0.05575
3219.56514	0.05580
3218.27937	0.05578
3216.99360	0.05570
3215.70784	0.05558
3214.42207	0.05537
3213.13630	0.05504
3211.85053	0.05464
3210.56476	0.05429
3209.27899	0.05414
3207.99322	0.05429
3206.70745	0.05467
3205.42169	0.05505
3204.13592	0.05515
3202.85015	0.05493
3201.56438	0.05460
3200.27861	0.05435
3198.99284	0.05420
3197.70707	0.05406
3196.42130	0.05388
3195.13553	0.05370
3193.84977	0.05352
3192.56400	0.05329
3191.27823	0.05300
3189.99246	0.05272
3188.70669	0.05261
3187.42092	0.05269
3186.13515	0.05281
3184.84938	0.05281
3183.56362	0.05271
3182.27785	0.05268
3180.99208	0.05280
3179.70631	0.05294
3178.42054	0.05287
3177.13477	0.05250
3175.84900	0.05194
3174.56323	0.05149
3173.27746	0.05146
3171.99170	0.05187
3170.70593	0.05249
3169.42016	0.05301
3168.13439	0.05328
3166.84862	0.05331
3165.56285	0.05317
3164.27708	0.05290
3162.99131	0.05252
3161.70555	0.05206
3160.41978	0.05163
3159.13401	0.05132
3157.84824	0.05117
3156.56247	0.05103
3155.27670	0.05070
3153.99093	0.05016
3152.70516	0.04971
3151.41939	0.04964
3150.13363	0.04989
3148.84786	0.05007
3147.56209	0.04993
3146.27632	0.04958
3144.99055	0.04935
3143.70478	0.04932
3142.41901	0.04931
3141.13324	0.04908
3139.84748	0.04866
3138.56171	0.04832
3137.27594	0.04834
3135.99017	0.04873
3134.70440	0.04927
3133.41863	0.04967
3132.13286	0.04985
3130.84709	0.04987
3129.56132	0.04979
3128.27556	0.04966
3126.98979	0.04952
3125.70402	0.04943
3124.41825	0.04938
3123.13248	0.04929
3121.84671	0.04914
3120.56094	0.04899
3119.27517	0.04897
3117.98940	0.04908
3116.70364	0.04921
3115.41787	0.04920
3114.13210	0.04902
3112.84633	0.04873
3111.56056	0.04841
3110.27479	0.04809
3108.98902	0.04784
3107.70325	0.04774
3106.41749	0.04786
3105.13172	0.04814
3103.84595	0.04834
3102.56018	0.04826
3101.27441	0.04797
3099.98864	0.04772
3098.70287	0.04776
3097.41710	0.04810
3096.13133	0.04852
3094.84557	0.04878
3093.55980	0.04873
3092.27403	0.04836
3090.98826	0.04783
3089.70249	0.04741
3088.41672	0.04721
3087.13095	0.04715
3085.84518	0.04713
3084.55942	0.04717
3083.27365	0.04736
3081.98788	0.04761
3080.70211	0.04768
3079.41634	0.04740
3078.13057	0.04694
3076.84480	0.04665
3075.55903	0.04674
3074.27326	0.04706
3072.98750	0.04724
3071.70173	0.04706
3070.41596	0.04663
3069.13019	0.04624
3067.84442	0.04607
3066.55865	0.04608
3065.27288	0.04619
3063.98711	0.04640
3062.70135	0.04672
3061.41558	0.04705
3060.12981	0.04721
3058.84404	0.04706
3057.55827	0.04668
3056.27250	0.04628
3054.98673	0.04606
3053.70096	0.04605
3052.41519	0.04612
3051.12943	0.04611
3049.84366	0.04596
3048.55789	0.04577
3047.27212	0.04566
3045.98635	0.04564
3044.70058	0.04563
3043.41481	0.04557
3042.12904	0.04545
3040.84328	0.04530
3039.55751	0.04518
3038.27174	0.04508
3036.98597	0.04495
3035.70020	0.04468
3034.41443	0.04427
3033.12866	0.04391
3031.84289	0.04378
3030.55712	0.04390
3029.27136	0.04410
3027.98559	0.04416
3026.69982	0.04408
3025.41405	0.04398
3024.12828	0.04393
3022.84251	0.04389
3021.55674	0.04380
3020.27097	0.04370
3018.98521	0.04368
3017.69944	0.04376
3016.41367	0.04381
3015.12790	0.04372
3013.84213	0.04352
3012.55636	0.04330
3011.27059	0.04312
3009.98482	0.04299
3008.69905	0.04290
3007.41329	0.04277
3006.12752	0.04255
3004.84175	0.04228
3003.55598	0.04205
3002.27021	0.04190
3000.98444	0.04182
2999.69867	0.04185
2998.41290	0.04208
2997.12714	0.04253
2995.84137	0.04300
2994.55560	0.04329
2993.26983	0.04335
2991.98406	0.04334
2990.69829	0.04336
2989.41252	0.04341
2988.12675	0.04337
2986.84098	0.04312
2985.55522	0.04276
2984.26945	0.04253
2982.98368	0.04259
2981.69791	0.04292
2980.41214	0.04328
2979.12637	0.04339
2977.84060	0.04305
2976.55483	0.04242
2975.26907	0.04196
2973.98330	0.04201
2972.69753	0.04251
2971.41176	0.04305
2970.12599	0.04329
2968.84022	0.04322
2967.55445	0.04305
2966.26868	0.04304
2964.98291	0.04324
2963.69715	0.04347
2962.41138	0.04351
2961.12561	0.04332
2959.83984	0.04307
2958.55407	0.04294
2957.26830	0.04306
2955.98253	0.04336
2954.69676	0.04369
2953.41100	0.04390
2952.12523	0.04405
2950.83946	0.04422
2949.55369	0.04442
2948.26792	0.04456
2946.98215	0.04460
2945.69638	0.04461
2944.41061	0.04463
2943.12484	0.04463
2941.83908	0.04452
2940.55331	0.04426
2939.26754	0.04388
2937.98177	0.04354
2936.69600	0.04339
2935.41023	0.04345
2934.12446	0.04362
2932.83869	0.04382
2931.55293	0.04405
2930.26716	0.04429
2928.98139	0.04445
2927.69562	0.04444
2926.40985	0.04425
2925.12408	0.04399
2923.83831	0.04376
2922.55254	0.04358
2921.26677	0.04345
2919.98101	0.04334
2918.69524	0.04323
2917.40947	0.04308
2916.12370	0.04293
2914.83793	0.04284
2913.55216	0.04287
2912.26639	0.04297
2910.98062	0.04301
2909.69486	0.04292
2908.40909	0.04269
2907.12332	0.04239
2905.83755	0.04209
2904.55178	0.04187
2903.26601	0.04169
2901.98024	0.04150
2900.69447	0.04133
2899.40870	0.04127
2898.12294	0.04124
2896.83717	0.04110
2895.55140	0.04076
2894.26563	0.04038
2892.97986	0.04017
2891.69409	0.04019
2890.40832	0.04039
2889.12255	0.04069
2887.83678	0.04097
2886.55102	0.04113
2885.26525	0.04115
2883.97948	0.04109
2882.69371	0.04096
2881.40794	0.04076
2880.12217	0.04049
2878.83640	0.04022
2877.55063	0.04001
2876.26487	0.03991
2874.97910	0.03992
2873.69333	0.04007
2872.40756	0.04024
2871.12179	0.04028
2869.83602	0.04012
2868.55025	0.03987
2867.26448	0.03967
2865.97871	0.03954
2864.69295	0.03941
2863.40718	0.03927
2862.12141	0.03912
2860.83564	0.03892
2859.54987	0.03863
2858.26410	0.03832
2856.97833	0.03812
2855.69256	0.03818
2854.40680	0.03846
2853.12103	0.03877
2851.83526	0.03887
2850.54949	0.03868
2849.26372	0.03830
2847.97795	0.03793
2846.69218	0.03765
2845.40641	0.03749
2844.12064	0.03751
2842.83488	0.03777
2841.54911	0.03814
2840.26334	0.03839
2838.97757	0.03831
2837.69180	0.03792
2836.40603	0.03738
2835.12026	0.03688
2833.83449	0.03656
2832.54873	0.03648
2831.26296	0.03659
2829.97719	0.03674
2828.69142	0.03676
2827.40565	0.03659
2826.11988	0.03634
2824.83411	0.03621
2823.54834	0.03625
2822.26257	0.03633
2820.97681	0.03623
2819.69104	0.03594
2818.40527	0.03566
2817.11950	0.03558
2815.83373	0.03566
2814.54796	0.03570
2813.26219	0.03554
2811.97642	0.03523
2810.69066	0.03496
2809.40489	0.03488
2808.11912	0.03493
2806.83335	0.03493
2805.54758	0.03481
2804.26181	0.03464
2802.97604	0.03452
2801.69027	0.03444
2800.40450	0.03436
2799.11874	0.03426
2797.83297	0.03417
2796.54720	0.03411
2795.26143	0.03403
2793.97566	0.03387
2792.68989	0.03364
2791.40412	0.03342
2790.11835	0.03333
2788.83259	0.03338
2787.54682	0.03349
2786.26105	0.03349
2784.97528	0.03335
2783.68951	0.03318
2782.40374	0.03316
2781.11797	0.03331
2779.83220	0.03346
2778.54643	0.03346
2777.26067	0.03332
2775.97490	0.03317
2774.68913	0.03308
2773.40336	0.03303
2772.11759	0.03298
2770.83182	0.03291
2769.54605	0.03283
2768.26028	0.03282
2766.97452	0.03287
2765.68875	0.03298
2764.40298	0.03310
2763.11721	0.03324
2761.83144	0.03334
2760.54567	0.03339
2759.25990	0.03342
2757.97413	0.03348
2756.68836	0.03354
2755.40260	0.03350
2754.11683	0.03328
2752.83106	0.03292
2751.54529	0.03252
2750.25952	0.03223
2748.97375	0.03210
2747.68798	0.03210
2746.40221	0.03212
2745.11645	0.03214
2743.83068	0.03218
2742.54491	0.03222
2741.25914	0.03223
2739.97337	0.03224
2738.68760	0.03224
2737.40183	0.03217
2736.11606	0.03200
2734.83029	0.03181
2733.54453	0.03174
2732.25876	0.03180
2730.97299	0.03193
2729.68722	0.03202
2728.40145	0.03201
2727.11568	0.03185
2725.82991	0.03156
2724.54414	0.03130
2723.25838	0.03121
2721.97261	0.03126
2720.68684	0.03131
2719.40107	0.03121
2718.11530	0.03099
2716.82953	0.03079
2715.54376	0.03069
2714.25799	0.03073
2712.97222	0.03085
2711.68646	0.03095
2710.40069	0.03095
2709.11492	0.03083
2707.82915	0.03064
2706.54338	0.03050
2705.25761	0.03046
2703.97184	0.03055
2702.68607	0.03070
2701.40031	0.03078
2700.11454	0.03073
2698.82877	0.03059
2697.54300	0.03047
2696.25723	0.03046
2694.97146	0.03054
2693.68569	0.03061
2692.39992	0.03056
2691.11415	0.03039
2689.82839	0.03023
2688.54262	0.03022
2687.25685	0.03037
2685.97108	0.03057
2684.68531	0.03069
2683.39954	0.03069
2682.11377	0.03058
2680.82800	0.03044
2679.54224	0.03031
2678.25647	0.03023
2676.97070	0.03017
2675.68493	0.03009
2674.39916	0.02998
2673.11339	0.02988
2671.82762	0.02983
2670.54185	0.02984
2669.25608	0.02981
2667.97032	0.02967
2666.68455	0.02947
2665.39878	0.02936
2664.11301	0.02944
2662.82724	0.02970
2661.54147	0.02999
2660.25570	0.03016
2658.96993	0.03015
2657.68417	0.03000
2656.39840	0.02979
2655.11263	0.02959
2653.82686	0.02943
2652.54109	0.02932
2651.25532	0.02927
2649.96955	0.02922
2648.68378	0.02913
2647.39801	0.02900
2646.11225	0.02887
2644.82648	0.02879
2643.54071	0.02871
2642.25494	0.02855
2640.96917	0.02827
2639.68340	0.02796
2638.39763	0.02775
2637.11186	0.02773
2635.82609	0.02785
2634.54033	0.02798
2633.25456	0.02798
2631.96879	0.02783
2630.68302	0.02760
2629.39725	0.02740
2628.11148	0.02725
2626.82571	0.02715
2625.53994	0.02709
2624.25418	0.02704
2622.96841	0.02702
2621.68264	0.02698
2620.39687	0.02686
2619.11110	0.02660
2617.82533	0.02631
2616.53956	0.02619
2615.25379	0.02632
2613.96802	0.02654
2612.68226	0.02661
2611.39649	0.02643
2610.11072	0.02622
2608.82495	0.02619
2607.53918	0.02636
2606.25341	0.02655
2604.96764	0.02656
2603.68187	0.02636
2602.39611	0.02614
2601.11034	0.02606
2599.82457	0.02612
2598.53880	0.02615
2597.25303	0.02609
2595.96726	0.02602
2594.68149	0.02601
2593.39572	0.02598
2592.10995	0.02583
2590.82419	0.02560
2589.53842	0.02543
2588.25265	0.02537
2586.96688	0.02535
2585.68111	0.02526
2584.39534	0.02509
2583.10957	0.02488
2581.82380	0.02469
2580.53804	0.02457
2579.25227	0.02453
2577.96650	0.02461
2576.68073	0.02484
2575.39496	0.02511
2574.10919	0.02519
2572.82342	0.02492
2571.53765	0.02442
2570.25188	0.02402
2568.96612	0.02391
2567.68035	0.02395
2566.39458	0.02395
2565.10881	0.02388
2563.82304	0.02385
2562.53727	0.02388
2561.25150	0.02381
2559.96573	0.02347
2558.67997	0.02292
2557.39420	0.02246
2556.10843	0.02231
2554.82266	0.02243
2553.53689	0.02262
2552.25112	0.02277
2550.96535	0.02295
2549.67958	0.02321
2548.39381	0.02344
2547.10805	0.02353
2545.82228	0.02347
2544.53651	0.02341
2543.25074	0.02344
2541.96497	0.02356
2540.67920	0.02373
2539.39343	0.02393
2538.10766	0.02407
2536.82190	0.02398
2535.53613	0.02360
2534.25036	0.02314
2532.96459	0.02286
2531.67882	0.02289
2530.39305	0.02311
2529.10728	0.02329
2527.82151	0.02334
2526.53574	0.02326
2525.24998	0.02310
2523.96421	0.02287
2522.67844	0.02265
2521.39267	0.02247
2520.10690	0.02233
2518.82113	0.02216
2517.53536	0.02200
2516.24959	0.02193
2514.96383	0.02194
2513.67806	0.02196
2512.39229	0.02201
2511.10652	0.02214
2509.82075	0.02226
2508.53498	0.02212
2507.24921	0.02167
2505.96344	0.02117
2504.67767	0.02095
2503.39191	0.02107
2502.10614	0.02135
2500.82037	0.02161
2499.53460	0.02177
2498.24883	0.02188
2496.96306	0.02205
2495.67729	0.02232
2494.39152	0.02257
2493.10576	0.02263
2491.81999	0.02243
2490.53422	0.02201
2489.24845	0.02150
2487.96268	0.02108
2486.67691	0.02095
2485.39114	0.02116
2484.10537	0.02154
2482.81960	0.02181
2481.53384	0.02180
2480.24807	0.02155
2478.96230	0.02124
2477.67653	0.02102
2476.39076	0.02102
2475.10499	0.02126
2473.81922	0.02159
2472.53345	0.02172
2471.24769	0.02155
2469.96192	0.02127
2468.67615	0.02114
2467.39038	0.02122
2466.10461	0.02137
2464.81884	0.02148
2463.53307	0.02154
2462.24730	0.02153
2460.96153	0.02135
2459.67577	0.02101
2458.39000	0.02072
2457.10423	0.02071
2455.81846	0.02104
2454.53269	0.02152
2453.24692	0.02191
2451.96115	0.02210
2450.67538	0.02221
2449.38962	0.02229
2448.10385	0.02225
2446.81808	0.02197
2445.53231	0.02156
2444.24654	0.02118
2442.96077	0.02087
2441.67500	0.02052
2440.38923	0.02013
2439.10346	0.01988
2437.81770	0.01990
2436.53193	0.02009
2435.24616	0.02020
2433.96039	0.02018
2432.67462	0.02018
2431.38885	0.02034
2430.10308	0.02058
2428.81731	0.02070
2427.53155	0.02063
2426.24578	0.02044
2424.96001	0.02025
2423.67424	0.02005
2422.38847	0.01981
2421.10270	0.01957
2419.81693	0.01941
2418.53116	0.01939
2417.24539	0.01947
2415.95963	0.01957
2414.67386	0.01971
2413.38809	0.01989
2412.10232	0.02008
2410.81655	0.02017
2409.53078	0.02014
2408.24501	0.02015
2406.95924	0.02036
2405.67347	0.02073
2404.38771	0.02106
2403.10194	0.02119
2401.81617	0.02106
2400.53040	0.02074
2399.24463	0.02032
2397.95886	0.01994
2396.67309	0.01973
2395.38732	0.01971
2394.10156	0.01983
2392.81579	0.02001
2391.53002	0.02019
2390.24425	0.02029
2388.95848	0.02028
2387.67271	0.02019
2386.38694	0.02011
2385.10117	0.02013
2383.81540	0.02023
2382.52964	0.02036
2381.24387	0.02046
2379.95810	0.02060
2378.67233	0.02068
2377.38656	0.02072
2376.10079	0.02080
2374.81502	0.02083
2373.52925	0.02055
2372.24349	0.02022
2370.95772	0.02019
2369.67195	0.02034
2368.38618	0.02054
2367.10041	0.02072
2365.81464	0.02087
2364.52887	0.02097
2363.24310	0.02100
2361.95733	0.02101
2360.67157	0.02107
2359.38580	0.02118
2358.10003	0.02118
2356.81426	0.02108
2355.52849	0.02116
2354.24272	0.02157
2352.95695	0.02209
2351.67118	0.02217
2350.38542	0.02195
2349.09965	0.02175
2347.81388	0.02150
2346.52811	0.02119
2345.24234	0.02108
2343.95657	0.02128
2342.67080	0.02185
2341.38503	0.02182
2340.09926	0.02147
2338.81350	0.02153
2337.52773	0.02187
2336.24196	0.02174
2334.95619	0.02157
2333.67042	0.02162
2332.38465	0.02187
2331.09888	0.02145
2329.81311	0.02157
2328.52735	0.02204
2327.24158	0.02228
2325.95581	0.02259
2324.67004	0.02278
2323.38427	0.02297
2322.09850	0.02273
2320.81273	0.02242
2319.52696	0.02220
2318.24119	0.02201
2316.95543	0.02170
2315.66966	0.02136
2314.38389	0.02120
2313.09812	0.02119
2311.81235	0.02131
2310.52658	0.02147
2309.24081	0.02148
2307.95504	0.02122
2306.66928	0.02081
2305.38351	0.02040
2304.09774	0.02012
2302.81197	0.01991
2301.52620	0.01974
2300.24043	0.01958
2298.95466	0.01941
2297.66889	0.01921
2296.38312	0.01903
2295.09736	0.01905
2293.81159	0.01937
2292.52582	0.01984
2291.24005	0.02015
2289.95428	0.02004
2288.66851	0.01949
2287.38274	0.01873
2286.09697	0.01812
2284.81121	0.01792
2283.52544	0.01815
2282.23967	0.01860
2280.95390	0.01902
2279.66813	0.01933
2278.38236	0.01959
2277.09659	0.01988
2275.81082	0.02009
2274.52505	0.01998
2273.23929	0.01945
2271.95352	0.01864
2270.66775	0.01787
2269.38198	0.01738
2268.09621	0.01720
2266.81044	0.01710
2265.52467	0.01682
2264.23890	0.01629
2262.95314	0.01569
2261.66737	0.01534
2260.38160	0.01547
2259.09583	0.01602
2257.81006	0.01659
2256.52429	0.01680
2255.23852	0.01656
2253.95275	0.01608
2252.66698	0.01559
2251.38122	0.01517
2250.09545	0.01487
2248.80968	0.01475
2247.52391	0.01487
2246.23814	0.01507
2244.95237	0.01519
2243.66660	0.01520
2242.38083	0.01514
2241.09507	0.01508
2239.80930	0.01512
2238.52353	0.01539
2237.23776	0.01585
2235.95199	0.01625
2234.66622	0.01636
2233.38045	0.01609
2232.09468	0.01552
2230.80891	0.01474
2229.52315	0.01385
2228.23738	0.01300
2226.95161	0.01244
2225.66584	0.01240
2224.38007	0.01282
2223.09430	0.01328
2221.80853	0.01335
2220.52276	0.01295
2219.23700	0.01239
2217.95123	0.01206
2216.66546	0.01213
2215.37969	0.01237
2214.09392	0.01235
2212.80815	0.01191
2211.52238	0.01154
2210.23661	0.01189
2208.95084	0.01293
2207.66508	0.01371
2206.37931	0.01344
2205.09354	0.01238
2203.80777	0.01150
2202.52200	0.01141
2201.23623	0.01189
2199.95046	0.01242
2198.66469	0.01277
2197.37893	0.01298
2196.09316	0.01300
2194.80739	0.01273
2193.52162	0.01218
2192.23585	0.01150
2190.95008	0.01101
2189.66431	0.01103
2188.37854	0.01161
2187.09277	0.01228
2185.80701	0.01238
2184.52124	0.01156
2183.23547	0.01006
2181.94970	0.00851
2180.66393	0.00753
2179.37816	0.00744
2178.09239	0.00804
2176.80662	0.00885
2175.52085	0.00943
2174.23509	0.00966
2172.94932	0.00956
2171.66355	0.00911
2170.37778	0.00838
2169.09201	0.00759
2167.80624	0.00697
2166.52047	0.00658
2165.23470	0.00638
2163.94894	0.00636
2162.66317	0.00657
2161.37740	0.00696
2160.09163	0.00723
2158.80586	0.00701
2157.52009	0.00625
2156.23432	0.00548
2154.94855	0.00544
2153.66278	0.00631
2152.37702	0.00744
2151.09125	0.00800
2149.80548	0.00786
2148.51971	0.00763
2147.23394	0.00776
2145.94817	0.00817
2144.66240	0.00855
2143.37663	0.00871
2142.09087	0.00857
2140.80510	0.00807
2139.51933	0.00740
2138.23356	0.00696
2136.94779	0.00705
2135.66202	0.00766
2134.37625	0.00858
2133.09048	0.00961
2131.80471	0.01057
2130.51895	0.01123
2129.23318	0.01148
2127.94741	0.01140
2126.66164	0.01127
2125.37587	0.01140
2124.09010	0.01190
2122.80433	0.01261
2121.51856	0.01317
2120.23280	0.01322
2118.94703	0.01269
2117.66126	0.01197
2116.37549	0.01152
2115.08972	0.01147
2113.80395	0.01161
2112.51818	0.01172
2111.23241	0.01186
2109.94664	0.01204
2108.66088	0.01202
2107.37511	0.01162
2106.08934	0.01101
2104.80357	0.01066
2103.51780	0.01080
2102.23203	0.01128
2100.94626	0.01177
2099.66049	0.01170
2098.37473	0.01144
2097.08896	0.01109
2095.80319	0.01080
2094.51742	0.01080
2093.23165	0.01108
2091.94588	0.01135
2090.66011	0.01135
2089.37434	0.01103
2088.08857	0.01053
2086.80281	0.01004
2085.51704	0.00977
2084.23127	0.00981
2082.94550	0.01014
2081.65973	0.01054
2080.37396	0.01078
2079.08819	0.01081
2077.80242	0.01075
2076.51666	0.01066
2075.23089	0.01048
2073.94512	0.01020
2072.65935	0.01007
2071.37358	0.01035
2070.08781	0.01090
2068.80204	0.01123
2067.51627	0.01100
2066.23050	0.01027
2064.94474	0.00938
2063.65897	0.00865
2062.37320	0.00823
2061.08743	0.00803
2059.80166	0.00781
2058.51589	0.00742
2057.23012	0.00700
2055.94435	0.00687
2054.65859	0.00720
2053.37282	0.00772
2052.08705	0.00788
2050.80128	0.00740
2049.51551	0.00658
2048.22974	0.00605
2046.94397	0.00623
2045.65820	0.00696
2044.37243	0.00767
2043.08667	0.00790
2041.80090	0.00748
2040.51513	0.00662
2039.22936	0.00573
2037.94359	0.00507
2036.65782	0.00466
2035.37205	0.00436
2034.08628	0.00403
2032.80052	0.00358
2031.51475	0.00306
2030.22898	0.00272
2028.94321	0.00286
2027.65744	0.00356
2026.37167	0.00456
2025.08590	0.00541
2023.80013	0.00578
2022.51436	0.00556
2021.22860	0.00501
2019.94283	0.00459
2018.65706	0.00460
2017.37129	0.00491
2016.08552	0.00502
2014.79975	0.00461
2013.51398	0.00384
2012.22821	0.00316
2010.94245	0.00271
2009.65668	0.00213
2008.37091	0.00114
2007.08514	0.00003
2005.79937	-0.00047
2004.51360	0.00012
2003.22783	0.00172
2001.94206	0.00389
2000.65629	0.00597
1999.37053	0.00726
1998.08476	0.00740
1996.79899	0.00676
1995.51322	0.00614
1994.22745	0.00601
1992.94168	0.00623
1991.65591	0.00650
1990.37014	0.00675
1989.08438	0.00705
1987.79861	0.00726
1986.51284	0.00707
1985.22707	0.00635
1983.94130	0.00545
1982.65553	0.00506
1981.36976	0.00560
1980.08399	0.00678
1978.79822	0.00783
1977.51246	0.00826
1976.22669	0.00822
1974.94092	0.00807
1973.65515	0.00796
1972.36938	0.00789
1971.08361	0.00782
1969.79784	0.00772
1968.51207	0.00754
1967.22631	0.00739
1965.94054	0.00748
1964.65477	0.00788
1963.36900	0.00834
1962.08323	0.00857
1960.79746	0.00848
1959.51169	0.00827
1958.22592	0.00821
1956.94015	0.00832
1955.65439	0.00846
1954.36862	0.00857
1953.08285	0.00881
1951.79708	0.00935
1950.51131	0.01004
1949.22554	0.01056
1947.93977	0.01073
1946.65400	0.01070
1945.36823	0.01071
1944.08247	0.01076
1942.79670	0.01068
1941.51093	0.01040
1940.22516	0.01012
1938.93939	0.01003
1937.65362	0.01015
1936.36785	0.01027
1935.08208	0.01023
1933.79632	0.01005
1932.51055	0.00991
1931.22478	0.00989
1929.93901	0.00998
1928.65324	0.01011
1927.36747	0.01028
1926.08170	0.01048
1924.79593	0.01067
1923.51016	0.01080
1922.22440	0.01090
1920.93863	0.01091
1919.65286	0.01074
1918.36709	0.01037
1917.08132	0.01006
1915.79555	0.01007
1914.50978	0.01041
1913.22401	0.01081
1911.93825	0.01101
1910.65248	0.01092
1909.36671	0.01061
1908.08094	0.01021
1906.79517	0.00987
1905.50940	0.00978
1904.22363	0.00993
1902.93786	0.01021
1901.65209	0.01047
1900.36633	0.01060
1899.08056	0.01055
1897.79479	0.01031
1896.50902	0.00997
1895.22325	0.00968
1893.93748	0.00961
1892.65171	0.00981
1891.36594	0.01021
1890.08018	0.01060
1888.79441	0.01076
1887.50864	0.01067
1886.22287	0.01050
1884.93710	0.01049
1883.65133	0.01068
1882.36556	0.01093
1881.07979	0.01110
1879.79402	0.01123
1878.50826	0.01134
1877.22249	0.01135
1875.93672	0.01120
1874.65095	0.01089
1873.36518	0.01063
1872.07941	0.01055
1870.79364	0.01065
1869.50787	0.01081
1868.22211	0.01094
1866.93634	0.01103
1865.65057	0.01116
1864.36480	0.01132
1863.07903	0.01140
1861.79326	0.01128
1860.50749	0.01098
1859.22172	0.01068
1857.93595	0.01050
1856.65019	0.01046
1855.36442	0.01048
1854.07865	0.01053
1852.79288	0.01059
1851.50711	0.01071
1850.22134	0.01092
1848.93557	0.01115
1847.64980	0.01131
1846.36404	0.01131
1845.07827	0.01126
1843.79250	0.01129
1842.50673	0.01143
1841.22096	0.01155
1839.93519	0.01154
1838.64942	0.01145
1837.36365	0.01136
1836.07788	0.01131
1834.79212	0.01127
1833.50635	0.01122
1832.22058	0.01117
1830.93481	0.01115
1829.64904	0.01119
1828.36327	0.01130
1827.07750	0.01141
1825.79173	0.01145
1824.50597	0.01142
1823.22020	0.01132
1821.93443	0.01115
1820.64866	0.01095
1819.36289	0.01081
1818.07712	0.01076
1816.79135	0.01081
1815.50558	0.01094
1814.21981	0.01115
1812.93405	0.01140
1811.64828	0.01166
1810.36251	0.01188
1809.07674	0.01201
1807.79097	0.01203
1806.50520	0.01195
1805.21943	0.01180
1803.93366	0.01164
1802.64790	0.01156
1801.36213	0.01160
1800.07636	0.01173
1798.79059	0.01190
1797.50482	0.01203
1796.21905	0.01205
1794.93328	0.01195
1793.64751	0.01180
1792.36174	0.01170
1791.07598	0.01166
1789.79021	0.01166
1788.50444	0.01166
1787.21867	0.01168
1785.93290	0.01174
1784.64713	0.01179
1783.36136	0.01179
1782.07559	0.01173
1780.78983	0.01163
1779.50406	0.01155
1778.21829	0.01146
1776.93252	0.01137
1775.64675	0.01130
1774.36098	0.01127
1773.07521	0.01135
1771.78944	0.01156
1770.50367	0.01181
1769.21791	0.01195
1767.93214	0.01195
1766.64637	0.01191
1765.36060	0.01189
1764.07483	0.01190
1762.78906	0.01192
1761.50329	0.01195
1760.21752	0.01197
1758.93176	0.01194
1757.64599	0.01189
1756.36022	0.01192
1755.07445	0.01205
1753.78868	0.01213
1752.50291	0.01207
1751.21714	0.01194
1749.93137	0.01186
1748.64560	0.01187
1747.35984	0.01194
1746.07407	0.01198
1744.78830	0.01196
1743.50253	0.01188
1742.21676	0.01178
1740.93099	0.01170
1739.64522	0.01171
1738.35945	0.01179
1737.07369	0.01185
1735.78792	0.01180
1734.50215	0.01171
1733.21638	0.01175
1731.93061	0.01192
1730.64484	0.01209
1729.35907	0.01222
1728.07330	0.01231
1726.78753	0.01233
1725.50177	0.01227
1724.21600	0.01223
1722.93023	0.01230
1721.64446	0.01249
1720.35869	0.01268
1719.07292	0.01277
1717.78715	0.01283
1716.50138	0.01295
1715.21561	0.01316
1713.92985	0.01341
1712.64408	0.01369
1711.35831	0.01399
1710.07254	0.01430
1708.78677	0.01460
1707.50100	0.01487
1706.21523	0.01516
1704.92946	0.01554
1703.64370	0.01603
1702.35793	0.01653
1701.07216	0.01707
1699.78639	0.01775
1698.50062	0.01852
1697.21485	0.01922
1695.92908	0.01989
1694.64331	0.02069
1693.35754	0.02157
1692.07178	0.02233
1690.78601	0.02300
1689.50024	0.02369
1688.21447	0.02447
1686.92870	0.02523
1685.64293	0.02598
1684.35716	0.02681
1683.07139	0.02778
1681.78563	0.02873
1680.49986	0.02956
1679.21409	0.03027
1677.92832	0.03093
1676.64255	0.03157
1675.35678	0.03228
1674.07101	0.03312
1672.78524	0.03400
1671.49947	0.03483
1670.21371	0.03561
1668.92794	0.03640
1667.64217	0.03724
1666.35640	0.03808
1665.07063	0.03884
1663.78486	0.03949
1662.49909	0.04008
1661.21332	0.04064
1659.92756	0.04121
1658.64179	0.04184
1657.35602	0.04251
1656.07025	0.04311
1654.78448	0.04351
1653.49871	0.04384
1652.21294	0.04429
1650.92717	0.04484
1649.64140	0.04527
1648.35564	0.04551
1647.06987	0.04570
1645.78410	0.04593
1644.49833	0.04613
1643.21256	0.04620
1641.92679	0.04616
1640.64102	0.04608
1639.35525	0.04596
1638.06949	0.04573
1636.78372	0.04537
1635.49795	0.04498
1634.21218	0.04469
1632.92641	0.04443
1631.64064	0.04409
1630.35487	0.04363
1629.06910	0.04307
1627.78333	0.04246
1626.49757	0.04183
1625.21180	0.04114
1623.92603	0.04041
1622.64026	0.03968
1621.35449	0.03898
1620.06872	0.03827
1618.78295	0.03751
1617.49718	0.03675
1616.21142	0.03608
1614.92565	0.03551
1613.63988	0.03496
1612.35411	0.03437
1611.06834	0.03381
1609.78257	0.03331
1608.49680	0.03286
1607.21103	0.03245
1605.92526	0.03205
1604.63950	0.03164
1603.35373	0.03125
1602.06796	0.03091
1600.78219	0.03066
1599.49642	0.03049
1598.21065	0.03034
1596.92488	0.03018
1595.63911	0.02999
1594.35335	0.02982
1593.06758	0.02969
1591.78181	0.02963
1590.49604	0.02963
1589.21027	0.02965
1587.92450	0.02970
1586.63873	0.02977
1585.35296	0.02986
1584.06719	0.02996
1582.78143	0.03005
1581.49566	0.03013
1580.20989	0.03022
1578.92412	0.03032
1577.63835	0.03044
1576.35258	0.03065
1575.06681	0.03101
1573.78104	0.03141
1572.49528	0.03170
1571.20951	0.03190
1569.92374	0.03213
1568.63797	0.03248
1567.35220	0.03290
1566.06643	0.03331
1564.78066	0.03369
1563.49489	0.03405
1562.20912	0.03432
1560.92336	0.03450
1559.63759	0.03470
1558.35182	0.03503
1557.06605	0.03541
1555.78028	0.03568
1554.49451	0.03584
1553.20874	0.03602
1551.92297	0.03624
1550.63721	0.03644
1549.35144	0.03662
1548.06567	0.03678
1546.77990	0.03690
1545.49413	0.03701
1544.20836	0.03712
1542.92259	0.03722
1541.63682	0.03726
1540.35105	0.03728
1539.06529	0.03739
1537.77952	0.03760
1536.49375	0.03780
1535.20798	0.03790
1533.92221	0.03796
1532.63644	0.03809
1531.35067	0.03825
1530.06490	0.03839
1528.77914	0.03852
1527.49337	0.03868
1526.20760	0.03889
1524.92183	0.03910
1523.63606	0.03930
1522.35029	0.03950
1521.06452	0.03981
1519.77875	0.04020
1518.49298	0.04055
1517.20722	0.04080
1515.92145	0.04106
1514.63568	0.04139
1513.34991	0.04180
1512.06414	0.04228
1510.77837	0.04279
1509.49260	0.04322
1508.20683	0.04353
1506.92107	0.04380
1505.63530	0.04418
1504.34953	0.04463
1503.06376	0.04500
1501.77799	0.04526
1500.49222	0.04546
1499.20645	0.04564
1497.92068	0.04582
1496.63491	0.04604
1495.34915	0.04632
1494.06338	0.04661
1492.77761	0.04685
1491.49184	0.04708
1490.20607	0.04735
1488.92030	0.04769
1487.63453	0.04805
1486.34876	0.04840
1485.06299	0.04875
1483.77723	0.04915
1482.49146	0.04957
1481.20569	0.05001
1479.91992	0.05046
1478.63415	0.05090
1477.34838	0.05138
1476.06261	0.05189
1474.77684	0.05239
1473.49108	0.05284
1472.20531	0.05323
1470.91954	0.05359
1469.63377	0.05392
1468.34800	0.05418
1467.06223	0.05440
1465.77646	0.05458
1464.49069	0.05478
1463.20492	0.05498
1461.91916	0.05518
1460.63339	0.05542
1459.34762	0.05571
1458.06185	0.05608
1456.77608	0.05655
1455.49031	0.05707
1454.20454	0.05749
1452.91877	0.05776
1451.63301	0.05794
1450.34724	0.05812
1449.06147	0.05832
1447.77570	0.05848
1446.48993	0.05858
1445.20416	0.05863
1443.91839	0.05864
1442.63262	0.05863
1441.34685	0.05856
1440.06109	0.05842
1438.77532	0.05822
1437.48955	0.05804
1436.20378	0.05801
1434.91801	0.05814
1433.63224	0.05835
1432.34647	0.05858
1431.06070	0.05889
1429.77494	0.05934
1428.48917	0.05991
1427.20340	0.06052
1425.91763	0.06114
1424.63186	0.06177
1423.34609	0.06241
1422.06032	0.06301
1420.77455	0.06351
1419.48878	0.06397
1418.20302	0.06447
1416.91725	0.06501
1415.63148	0.06549
1414.34571	0.06584
1413.05994	0.06601
1411.77417	0.06604
1410.48840	0.06595
1409.20263	0.06581
1407.91687	0.06560
1406.63110	0.06530
1405.34533	0.06490
1404.05956	0.06443
1402.77379	0.06391
1401.48802	0.06331
1400.20225	0.06258
1398.91648	0.06175
1397.63071	0.06083
1396.34495	0.05984
1395.05918	0.05881
1393.77341	0.05777
1392.48764	0.05675
1391.20187	0.05572
1389.91610	0.05466
1388.63033	0.05354
1387.34456	0.05240
1386.05880	0.05125
1384.77303	0.05010
1383.48726	0.04894
1382.20149	0.04779
1380.91572	0.04666
1379.62995	0.04552
1378.34418	0.04437
1377.05841	0.04320
1375.77264	0.04204
1374.48688	0.04089
1373.20111	0.03980
1371.91534	0.03879
1370.62957	0.03785
1369.34380	0.03695
1368.05803	0.03605
1366.77226	0.03514
1365.48649	0.03424
1364.20073	0.03340
1362.91496	0.03264
1361.62919	0.03198
1360.34342	0.03137
1359.05765	0.03078
1357.77188	0.03022
1356.48611	0.02971
1355.20034	0.02926
1353.91457	0.02886
1352.62881	0.02849
1351.34304	0.02813
1350.05727	0.02775
1348.77150	0.02739
1347.48573	0.02705
1346.19996	0.02679
1344.91419	0.02661
1343.62842	0.02649
1342.34266	0.02637
1341.05689	0.02620
1339.77112	0.02596
1338.48535	0.02568
1337.19958	0.02540
1335.91381	0.02515
1334.62804	0.02493
1333.34227	0.02470
1332.05650	0.02444
1330.77074	0.02419
1329.48497	0.02396
1328.19920	0.02373
1326.91343	0.02347
1325.62766	0.02318
1324.34189	0.02291
1323.05612	0.02270
1321.77035	0.02255
1320.48459	0.02242
1319.19882	0.02228
1317.91305	0.02212
1316.62728	0.02194
1315.34151	0.02177
1314.05574	0.02163
1312.76997	0.02150
1311.48420	0.02135
1310.19843	0.02117
1308.91267	0.02096
1307.62690	0.02073
1306.34113	0.02050
1305.05536	0.02029
1303.76959	0.02013
1302.48382	0.01998
1301.19805	0.01983
1299.91228	0.01967
1298.62652	0.01951
1297.34075	0.01935
1296.05498	0.01923
1294.76921	0.01914
1293.48344	0.01906
1292.19767	0.01898
1290.91190	0.01890
1289.62613	0.01882
1288.34036	0.01876
1287.05460	0.01872
1285.76883	0.01870
1284.48306	0.01870
1283.19729	0.01871
1281.91152	0.01871
1280.62575	0.01867
1279.33998	0.01858
1278.05421	0.01848
1276.76845	0.01840
1275.48268	0.01834
1274.19691	0.01829
1272.91114	0.01822
1271.62537	0.01814
1270.33960	0.01809
1269.05383	0.01810
1267.76806	0.01816
1266.48229	0.01826
1265.19653	0.01834
1263.91076	0.01836
1262.62499	0.01832
1261.33922	0.01824
1260.05345	0.01818
1258.76768	0.01816
1257.48191	0.01818
1256.19614	0.01824
1254.91037	0.01828
1253.62461	0.01827
1252.33884	0.01822
1251.05307	0.01817
1249.76730	0.01819
1248.48153	0.01827
1247.19576	0.01835
1245.90999	0.01838
1244.62422	0.01833
1243.33846	0.01823
1242.05269	0.01810
1240.76692	0.01798
1239.48115	0.01787
1238.19538	0.01777
1236.90961	0.01769
1235.62384	0.01762
1234.33807	0.01753
1233.05230	0.01740
1231.76654	0.01724
1230.48077	0.01703
1229.19500	0.01680
1227.90923	0.01656
1226.62346	0.01634
1225.33769	0.01615
1224.05192	0.01598
1222.76615	0.01583
1221.48039	0.01568
1220.19462	0.01555
1218.90885	0.01543
1217.62308	0.01530
1216.33731	0.01517
1215.05154	0.01504
1213.76577	0.01491
1212.48000	0.01483
1211.19423	0.01480
1209.90847	0.01484
1208.62270	0.01492
1207.33693	0.01498
1206.05116	0.01498
1204.76539	0.01493
1203.47962	0.01487
1202.19385	0.01486
1200.90808	0.01494
1199.62232	0.01508
1198.33655	0.01515
1197.05078	0.01512
1195.76501	0.01501
1194.47924	0.01485
1193.19347	0.01468
1191.90770	0.01456
1190.62193	0.01447
1189.33616	0.01442
1188.05040	0.01436
1186.76463	0.01428
1185.47886	0.01420
1184.19309	0.01413
1182.90732	0.01408
1181.62155	0.01403
1180.33578	0.01394
1179.05001	0.01385
1177.76425	0.01376
1176.47848	0.01374
1175.19271	0.01382
1173.90694	0.01399
1172.62117	0.01420
1171.33540	0.01437
1170.04963	0.01444
1168.76386	0.01443
1167.47809	0.01440
1166.19233	0.01444
1164.90656	0.01459
1163.62079	0.01478
1162.33502	0.01494
1161.04925	0.01502
1159.76348	0.01507
1158.47771	0.01514
1157.19194	0.01529
1155.90618	0.01548
1154.62041	0.01571
1153.33464	0.01596
1152.04887	0.01621
1150.76310	0.01644
1149.47733	0.01668
1148.19156	0.01698
1146.90579	0.01737
1145.62002	0.01783
1144.33426	0.01833
1143.04849	0.01885
1141.76272	0.01938
1140.47695	0.01995
1139.19118	0.02062
1137.90541	0.02141
1136.61964	0.02227
1135.33387	0.02313
1134.04811	0.02396
1132.76234	0.02480
1131.47657	0.02572
1130.19080	0.02676
1128.90503	0.02797
1127.61926	0.02931
1126.33349	0.03076
1125.04772	0.03230
1123.76195	0.03392
1122.47619	0.03562
1121.19042	0.03738
1119.90465	0.03916
1118.61888	0.04092
1117.33311	0.04269
1116.04734	0.04451
1114.76157	0.04640
1113.47580	0.04837
1112.19004	0.05038
1110.90427	0.05239
1109.61850	0.05436
1108.33273	0.05626
1107.04696	0.05812
1105.76119	0.05997
1104.47542	0.06181
1103.18965	0.06358
1101.90388	0.06523
1100.61812	0.06676
1099.33235	0.06827
1098.04658	0.06982
1096.76081	0.07145
1095.47504	0.07309
1094.18927	0.07466
1092.90350	0.07612
1091.61773	0.07748
1090.33197	0.07880
1089.04620	0.08010
1087.76043	0.08138
1086.47466	0.08264
1085.18889	0.08390
1083.90312	0.08518
1082.61735	0.08645
1081.33158	0.08774
1080.04581	0.08908
1078.76005	0.09054
1077.47428	0.09211
1076.18851	0.09375
1074.90274	0.09544
1073.61697	0.09714
1072.33120	0.09879
1071.04543	0.10037
1069.75966	0.10189
1068.47390	0.10343
1067.18813	0.10510
1065.90236	0.10696
1064.61659	0.10900
1063.33082	0.11109
1062.04505	0.11309
1060.75928	0.11492
1059.47351	0.11664
1058.18774	0.11832
1056.90198	0.12002
1055.61621	0.12169
1054.33044	0.12333
1053.04467	0.12495
1051.75890	0.12661
1050.47313	0.12830
1049.18736	0.12999
1047.90159	0.13168
1046.61583	0.13338
1045.33006	0.13511
1044.04429	0.13686
1042.75852	0.13860
1041.47275	0.14035
1040.18698	0.14212
1038.90121	0.14392
1037.61544	0.14572
1036.32967	0.14753
1035.04391	0.14934
1033.75814	0.15114
1032.47237	0.15283
1031.18660	0.15435
1029.90083	0.15567
1028.61506	0.15683
1027.32929	0.15787
1026.04352	0.15879
1024.75775	0.15958
1023.47199	0.16020
1022.18622	0.16062
1020.90045	0.16087
1019.61468	0.16099
1018.32891	0.16096
1017.04314	0.16069
1015.75737	0.16012
1014.47160	0.15931
1013.18584	0.15836
1011.90007	0.15729
1010.61430	0.15608
1009.32853	0.15467
1008.04276	0.15303
1006.75699	0.15111
1005.47122	0.14892
1004.18545	0.14652
1002.89968	0.14402
1001.61392	0.14144
1000.32815	0.13870
999.04238	0.13572
997.75661	0.13250
996.47084	0.12915
995.18507	0.12578
993.89930	0.12250
992.61353	0.11929
991.32777	0.11609
990.04200	0.11286
988.75623	0.10966
987.47046	0.10659
986.18469	0.10365
984.89892	0.10074
983.61315	0.09777
982.32738	0.09476
981.04161	0.09187
979.75585	0.08920
978.47008	0.08672
977.18431	0.08435
975.89854	0.08205
974.61277	0.07985
973.32700	0.07786
972.04123	0.07615
970.75546	0.07479
969.46970	0.07380
968.18393	0.07313
966.89816	0.07277
965.61239	0.07265
964.32662	0.07269
963.04085	0.07274
961.75508	0.07272
960.46931	0.07261
959.18354	0.07234
957.89778	0.07181
956.61201	0.07098
955.32624	0.06993
954.04047	0.06876
952.75470	0.06752
951.46893	0.06622
950.18316	0.06485
948.89739	0.06346
947.61163	0.06208
946.32586	0.06074
945.04009	0.05944
943.75432	0.05818
942.46855	0.05696
941.18278	0.05577
939.89701	0.05462
938.61124	0.05355
937.32547	0.05253
936.03971	0.05154
934.75394	0.05055
933.46817	0.04960
932.18240	0.04874
930.89663	0.04796
929.61086	0.04723
928.32509	0.04650
927.03932	0.04578
925.75356	0.04509
924.46779	0.04444
923.18202	0.04378
921.89625	0.04310
920.61048	0.04247
919.32471	0.04193
918.03894	0.04150
916.75317	0.04110
915.46740	0.04065
914.18164	0.04017
912.89587	0.03972
911.61010	0.03934
910.32433	0.03899
909.03856	0.03862
907.75279	0.03822
906.46702	0.03785
905.18125	0.03756
903.89549	0.03732
902.60972	0.03702
901.32395	0.03659
900.03818	0.03605
898.75241	0.03553
897.46664	0.03508
896.18087	0.03467
894.89510	0.03425
893.60933	0.03388
892.32357	0.03369
891.03780	0.03369
889.75203	0.03378
888.46626	0.03396
887.18049	0.03431
885.89472	0.03494
884.60895	0.03590
883.32318	0.03717
882.03742	0.03866
880.75165	0.04021
879.46588	0.04159
878.18011	0.04268
876.89434	0.04361
875.60857	0.04454
874.32280	0.04552
873.03703	0.04639
871.75126	0.04696
870.46550	0.04711
869.17973	0.04685
867.89396	0.04619
866.60819	0.04519
865.32242	0.04396
864.03665	0.04263
862.75088	0.04132
861.46511	0.04011
860.17935	0.03906
858.89358	0.03821
857.60781	0.03753
856.32204	0.03695
855.03627	0.03639
853.75050	0.03582
852.46473	0.03523
851.17896	0.03462
849.89319	0.03401
848.60743	0.03343
847.32166	0.03296
846.03589	0.03266
844.75012	0.03250
843.46435	0.03238
842.17858	0.03224
840.89281	0.03208
839.60704	0.03192
838.32128	0.03180
837.03551	0.03171
835.74974	0.03159
834.46397	0.03143
833.17820	0.03124
831.89243	0.03101
830.60666	0.03076
829.32089	0.03052
828.03512	0.03032
826.74936	0.03018
825.46359	0.03012
824.17782	0.03012
822.89205	0.03014
821.60628	0.03009
820.32051	0.02996
819.03474	0.02976
817.74897	0.02953
816.46321	0.02929
815.17744	0.02905
813.89167	0.02889
812.60590	0.02886
811.32013	0.02897
810.03436	0.02912
808.74859	0.02920
807.46282	0.02914
806.17705	0.02900
804.89129	0.02888
803.60552	0.02884
802.31975	0.02885
801.03398	0.02883
799.74821	0.02877
798.46244	0.02870
797.17667	0.02869
795.89090	0.02876
794.60513	0.02884
793.31937	0.02884
792.03360	0.02878
790.74783	0.02870
789.46206	0.02861
788.17629	0.02849
786.89052	0.02833
785.60475	0.02819
784.31898	0.02812
783.03322	0.02813
781.74745	0.02815
780.46168	0.02813
779.17591	0.02811
777.89014	0.02812
776.60437	0.02821
775.31860	0.02833
774.03283	0.02839
772.74706	0.02839
771.46130	0.02835
770.17553	0.02832
768.88976	0.02830
767.60399	0.02826
766.31822	0.02820
765.03245	0.02815
763.74668	0.02818
762.46091	0.02826
761.17515	0.02836
759.88938	0.02842
758.60361	0.02842
757.31784	0.02838
756.03207	0.02833
754.74630	0.02833
753.46053	0.02836
752.17476	0.02838
750.88899	0.02831
749.60323	0.02814
748.31746	0.02794
747.03169	0.02784
745.74592	0.02788
744.46015	0.02806
743.17438	0.02827
741.88861	0.02845
740.60284	0.02856
739.31708	0.02861
738.03131	0.02860
736.74554	0.02852
735.45977	0.02840
734.17400	0.02831
732.88823	0.02827
731.60246	0.02826
730.31669	0.02822
729.03092	0.02816
727.74516	0.02813
726.45939	0.02816
725.17362	0.02821
723.88785	0.02830
722.60208	0.02840
721.31631	0.02852
720.03054	0.02863
718.74477	0.02873
717.45901	0.02879
716.17324	0.02881
714.88747	0.02876
713.60170	0.02867
712.31593	0.02860
711.03016	0.02863
709.74439	0.02872
708.45862	0.02880
707.17285	0.02881
705.88709	0.02875
704.60132	0.02871
703.31555	0.02871
702.02978	0.02876
700.74401	0.02883
699.45824	0.02891
698.17247	0.02897
696.88670	0.02899
695.60094	0.02893
694.31517	0.02883
693.02940	0.02874
691.74363	0.02869
690.45786	0.02870
689.17209	0.02872
687.88632	0.02871
686.60055	0.02866
685.31478	0.02858
684.02902	0.02852
682.74325	0.02849
681.45748	0.02850
680.17171	0.02852
678.88594	0.02850
677.60017	0.02846
676.31440	0.02838
675.02863	0.02833
673.74287	0.02830
672.45710	0.02830
671.17133	0.02832
669.88556	0.02837
668.59979	0.02844
667.31402	0.02849
666.02825	0.02846
664.74248	0.02833
663.45671	0.02814
662.17095	0.02795
660.88518	0.02780
659.59941	0.02770
658.31364	0.02760
657.02787	0.02748
655.74210	0.02733
654.45633	0.02720
653.17056	0.02710
651.88480	0.02704
650.59903	0.02699
649.31326	0.02697
648.02749	0.02698
646.74172	0.02700
645.45595	0.02701
644.17018	0.02701
642.88441	0.02701
641.59864	0.02702
640.31288	0.02705
639.02711	0.02709
637.74134	0.02714
636.45557	0.02723
635.16980	0.02739
633.88403	0.02763
632.59826	0.02795
631.31249	0.02824
630.02673	0.02827
628.74096	0.02809
627.45519	0.02851
626.16942	0.02855
624.88365	0.02860
623.59788	0.02914
622.31211	0.03026
621.02634	0.03204
619.74057	0.03449
618.45481	0.03707
617.16904	0.03900
615.88327	0.03994
614.59750	0.04024
613.31173	0.04061
612.02596	0.04189
610.74019	0.04494
609.45442	0.04989
608.16866	0.05560
606.88289	0.06035
605.59712	0.06332
604.31135	0.06484
603.02558	0.06559
601.73981	0.06588
600.45404	0.06575
599.16827	0.06523
597.88250	0.06442
596.59674	0.06345
595.31097	0.06240
594.02520	0.06141
592.73943	0.06057
591.45366	0.05994
590.16789	0.05952
588.88212	0.05940
587.59635	0.05968
586.31059	0.06039
585.02482	0.06144
583.73905	0.06263
582.45328	0.06391
581.16751	0.06529
579.88174	0.06679
578.59597	0.06835
577.31020	0.06992
576.02443	0.07147
574.73867	0.07296
573.45290	0.07437
572.16713	0.07569
570.88136	0.07703
569.59559	0.07850
568.30982	0.08019
567.02405	0.08212
565.73828	0.08417
564.45251	0.08618
563.16675	0.08790
561.88098	0.08911
560.59521	0.08957
559.30944	0.08914
558.02367	0.08780
556.73790	0.08572
555.45213	0.08307
554.16636	0.08006
552.88060	0.07693
551.59483	0.07389
550.30906	0.07109
549.02329	0.06854
547.73752	0.06617
546.45175	0.06394
545.16598	0.06187
543.88021	0.05997
542.59444	0.05826
541.30868	0.05671
540.02291	0.05529
538.73714	0.05398
537.45137	0.05273
536.16560	0.05150
534.87983	0.05027
533.59406	0.04903
532.30829	0.04782
531.02253	0.04667
529.73676	0.04561
528.45099	0.04463
527.16522	0.04369
525.87945	0.04281
524.59368	0.04203
523.30791	0.04133
522.02214	0.04067
520.73637	0.04001
519.45061	0.03936
518.16484	0.03872
516.87907	0.03811
515.59330	0.03749
514.30753	0.03686
513.02176	0.03623
511.73599	0.03564
510.45022	0.03516
509.16446	0.03475
507.87869	0.03435
506.59292	0.03383
505.30715	0.03318
504.02138	0.03252
502.73561	0.03202
501.44984	0.03176
500.16407	0.03163
498.87830	0.03148
497.59254	0.03121
496.30677	0.03083
495.02100	0.03041
493.73523	0.03004
492.44946	0.02976
491.16369	0.02956
489.87792	0.02935
488.59215	0.02907
487.30639	0.02871
486.02062	0.02837
484.73485	0.02813
483.44908	0.02800
482.16331	0.02794
480.87754	0.02791
479.59177	0.02788
478.30600	0.02791
477.02023	0.02805
475.73447	0.02828
474.44870	0.02852
473.16293	0.02867
471.87716	0.02866
470.59139	0.02848
469.30562	0.02821
468.01985	0.02797
466.73408	0.02777
465.44832	0.02756
464.16255	0.02731
462.87678	0.02705
461.59101	0.02679
460.30524	0.02653
459.01947	0.02625
457.73370	0.02596
456.44793	0.02570
455.16216	0.02546
453.87640	0.02521
452.59063	0.02493
451.30486	0.02461
450.01909	0.02428
448.73332	0.02399
447.44755	0.02377
446.16178	0.02362
444.87601	0.02348
443.59025	0.02333
442.30448	0.02319
441.01871	0.02308
439.73294	0.02297
438.44717	0.02285
437.16140	0.02271
435.87563	0.02254
434.58986	0.02239
433.30409	0.02228
432.01833	0.02224
430.73256	0.02223
429.44679	0.02220
428.16102	0.02209
426.87525	0.02194
425.58948	0.02179
424.30371	0.02167
423.01794	0.02157
421.73218	0.02145
420.44641	0.02131
419.16064	0.02115
417.87487	0.02100
416.58910	0.02087
415.30333	0.02079
414.01756	0.02075
412.73179	0.02071
411.44602	0.02063
410.16026	0.02049
408.87449	0.02035
407.58872	0.02022
406.30295	0.02012
405.01718	0.02003
403.73141	0.01991
402.44564	0.01980
401.15987	0.01973
399.87411	0.01972
