3997.45528	0.04497
3996.16951	0.04473
3994.88374	0.04432
3993.59798	0.04391
3992.31221	0.04367
3991.02644	0.04337
3989.74067	0.04271
3988.45490	0.04174
3987.16913	0.04093
3985.88336	0.04066
3984.59759	0.04094
3983.31183	0.04144
3982.02606	0.04182
3980.74029	0.04183
3979.45452	0.04146
3978.16875	0.04087
3976.88298	0.04030
3975.59721	0.03994
3974.31144	0.03989
3973.02567	0.04023
3971.73991	0.04104
3970.45414	0.04212
3969.16837	0.04302
3967.88260	0.04333
3966.59683	0.04293
3965.31106	0.04216
3964.02529	0.04155
3962.73952	0.04152
3961.45376	0.04208
3960.16799	0.04271
3958.88222	0.04287
3957.59645	0.04242
3956.31068	0.04166
3955.02491	0.04083
3953.73914	0.03999
3952.45337	0.03920
3951.16760	0.03869
3949.88184	0.03865
3948.59607	0.03905
3947.31030	0.03970
3946.02453	0.04038
3944.73876	0.04083
3943.45299	0.04082
3942.16722	0.04028
3940.88145	0.03943
3939.59569	0.03877
3938.30992	0.03874
3937.02415	0.03937
3935.73838	0.04023
3934.45261	0.04086
3933.16684	0.04118
3931.88107	0.04146
3930.59530	0.04181
3929.30953	0.04206
3928.02377	0.04201
3926.73800	0.04162
3925.45223	0.04089
3924.16646	0.03987
3922.88069	0.03880
3921.59492	0.03814
3920.30915	0.03816
3919.02338	0.03870
3917.73762	0.03930
3916.45185	0.03968
3915.16608	0.03980
3913.88031	0.03962
3912.59454	0.03905
3911.30877	0.03822
3910.02300	0.03759
3908.73723	0.03762
3907.45146	0.03830
3906.16570	0.03911
3904.87993	0.03956
3903.59416	0.03954
3902.30839	0.03932
3901.02262	0.03919
3899.73685	0.03917
3898.45108	0.03896
3897.16531	0.03828
3895.87955	0.03721
3894.59378	0.03625
3893.30801	0.03586
3892.02224	0.03599
3890.73647	0.03618
3889.45070	0.03622
3888.16493	0.03636
3886.87916	0.03695
3885.59339	0.03797
3884.30763	0.03901
3883.02186	0.03966
3881.73609	0.03969
3880.45032	0.03906
3879.16455	0.03791
3877.87878	0.03663
3876.59301	0.03572
3875.30724	0.03557
3874.02148	0.03606
3872.73571	0.03660
3871.44994	0.03673
3870.16417	0.03648
3868.87840	0.03623
3867.59263	0.03618
3866.30686	0.03617
3865.02109	0.03603
3863.73532	0.03585
3862.44956	0.03591
3861.16379	0.03624
3859.87802	0.03654
3858.59225	0.03654
3857.30648	0.03632
3856.02071	0.03621
3854.73494	0.03639
3853.44917	0.03671
3852.16341	0.03686
3850.87764	0.03670
3849.59187	0.03639
3848.30610	0.03620
3847.02033	0.03623
3845.73456	0.03639
3844.44879	0.03656
3843.16302	0.03667
3841.87725	0.03670
3840.59149	0.03661
3839.30572	0.03644
3838.01995	0.03634
3836.73418	0.03637
3835.44841	0.03630
3834.16264	0.03577
3832.87687	0.03480
3831.59110	0.03391
3830.30534	0.03361
3829.01957	0.03399
3827.73380	0.03471
3826.44803	0.03546
3825.16226	0.03605
3823.87649	0.03631
3822.59072	0.03608
3821.30495	0.03537
3820.01918	0.03450
3818.73342	0.03395
3817.44765	0.03402
3816.16188	0.03464
3814.87611	0.03542
3813.59034	0.03594
3812.30457	0.03601
3811.01880	0.03565
3809.73303	0.03496
3808.44726	0.03412
3807.16150	0.03344
3805.87573	0.03312
3804.58996	0.03307
3803.30419	0.03308
3802.01842	0.03319
3800.73265	0.03361
3799.44688	0.03429
3798.16111	0.03483
3796.87535	0.03494
3795.58958	0.03470
3794.30381	0.03445
3793.01804	0.03430
3791.73227	0.03412
3790.44650	0.03372
3789.16073	0.03312
3787.87496	0.03252
3786.58919	0.03209
3785.30343	0.03192
3784.01766	0.03201
3782.73189	0.03226
3781.44612	0.03255
3780.16035	0.03280
3778.87458	0.03304
3777.58881	0.03333
3776.30304	0.03369
3775.01728	0.03407
3773.73151	0.03447
3772.44574	0.03492
3771.15997	0.03535
3769.87420	0.03558
3768.58843	0.03547
3767.30266	0.03513
3766.01689	0.03481
3764.73112	0.03458
3763.44536	0.03434
3762.15959	0.03406
3760.87382	0.03386
3759.58805	0.03384
3758.30228	0.03397
3757.01651	0.03409
3755.73074	0.03408
3754.44497	0.03388
3753.15921	0.03356
3751.87344	0.03338
3750.58767	0.03364
3749.30190	0.03431
3748.01613	0.03510
3746.73036	0.03567
3745.44459	0.03575
3744.15882	0.03521
3742.87305	0.03419
3741.58729	0.03318
3740.30152	0.03269
3739.01575	0.03278
3737.72998	0.03306
3736.44421	0.03319
3735.15844	0.03317
3733.87267	0.03320
3732.58690	0.03332
3731.30114	0.03338
3730.01537	0.03327
3728.72960	0.03303
3727.44383	0.03279
3726.15806	0.03263
3724.87229	0.03250
3723.58652	0.03229
3722.30075	0.03204
3721.01498	0.03193
3719.72922	0.03212
3718.44345	0.03257
3717.15768	0.03302
3715.87191	0.03324
3714.58614	0.03310
3713.30037	0.03255
3712.01460	0.03161
3710.72883	0.03052
3709.44307	0.02975
3708.15730	0.02969
3706.87153	0.03035
3705.58576	0.03143
3704.29999	0.03255
3703.01422	0.03349
3701.72845	0.03415
3700.44268	0.03447
3699.15691	0.03446
3697.87115	0.03424
3696.58538	0.03401
3695.29961	0.03391
3694.01384	0.03397
3692.72807	0.03405
3691.44230	0.03383
3690.15653	0.03310
3688.87076	0.03214
3687.58500	0.03145
3686.29923	0.03124
3685.01346	0.03137
3683.72769	0.03158
3682.44192	0.03181
3681.15615	0.03213
3679.87038	0.03249
3678.58461	0.03264
3677.29884	0.03249
3676.01308	0.03228
3674.72731	0.03253
3673.44154	0.03348
3672.15577	0.03472
3670.87000	0.03546
3669.58423	0.03523
3668.29846	0.03420
3667.01269	0.03292
3665.72693	0.03177
3664.44116	0.03096
3663.15539	0.03069
3661.86962	0.03109
3660.58385	0.03201
3659.29808	0.03313
3658.01231	0.03408
3656.72654	0.03465
3655.44077	0.03474
3654.15501	0.03443
3652.86924	0.03394
3651.58347	0.03358
3650.29770	0.03347
3649.01193	0.03348
3647.72616	0.03342
3646.44039	0.03341
3645.15462	0.03375
3643.86886	0.03460
3642.58309	0.03568
3641.29732	0.03652
3640.01155	0.03692
3638.72578	0.03700
3637.44001	0.03687
3636.15424	0.03650
3634.86847	0.03591
3633.58270	0.03542
3632.29694	0.03533
3631.01117	0.03559
3629.72540	0.03588
3628.43963	0.03598
3627.15386	0.03589
3625.86809	0.03565
3624.58232	0.03534
3623.29655	0.03521
3622.01079	0.03550
3620.72502	0.03616
3619.43925	0.03685
3618.15348	0.03730
3616.86771	0.03761
3615.58194	0.03790
3614.29617	0.03813
3613.01040	0.03809
3611.72463	0.03779
3610.43887	0.03750
3609.15310	0.03754
3607.86733	0.03787
3606.58156	0.03820
3605.29579	0.03829
3604.01002	0.03820
3602.72425	0.03821
3601.43848	0.03862
3600.15272	0.03950
3598.86695	0.04050
3597.58118	0.04104
3596.29541	0.04086
3595.00964	0.04035
3593.72387	0.04013
3592.43810	0.04046
3591.15233	0.04111
3589.86656	0.04171
3588.58080	0.04214
3587.29503	0.04241
3586.00926	0.04241
3584.72349	0.04213
3583.43772	0.04186
3582.15195	0.04194
3580.86618	0.04239
3579.58041	0.04288
3578.29464	0.04309
3577.00888	0.04296
3575.72311	0.04271
3574.43734	0.04260
3573.15157	0.04276
3571.86580	0.04318
3570.58003	0.04376
3569.29426	0.04432
3568.00849	0.04464
3566.72273	0.04460
3565.43696	0.04430
3564.15119	0.04394
3562.86542	0.04370
3561.57965	0.04362
3560.29388	0.04361
3559.00811	0.04353
3557.72234	0.04331
3556.43657	0.04305
3555.15081	0.04299
3553.86504	0.04333
3552.57927	0.04397
3551.29350	0.04459
3550.00773	0.04493
3548.72196	0.04506
3547.43619	0.04527
3546.15042	0.04565
3544.86466	0.04604
3543.57889	0.04625
3542.29312	0.04633
3541.00735	0.04646
3539.72158	0.04670
3538.43581	0.04688
3537.15004	0.04679
3535.86427	0.04631
3534.57850	0.04558
3533.29274	0.04492
3532.00697	0.04465
3530.72120	0.04479
3529.43543	0.04501
3528.14966	0.04511
3526.86389	0.04521
3525.57812	0.04553
3524.29235	0.04606
3523.00659	0.04655
3521.72082	0.04680
3520.43505	0.04680
3519.14928	0.04665
3517.86351	0.04653
3516.57774	0.04663
3515.29197	0.04693
3514.00620	0.04723
3512.72043	0.04730
3511.43467	0.04718
3510.14890	0.04702
3508.86313	0.04695
3507.57736	0.04708
3506.29159	0.04746
3505.00582	0.04802
3503.72005	0.04852
3502.43428	0.04880
3501.14852	0.04898
3499.86275	0.04924
3498.57698	0.04960
3497.29121	0.04981
3496.00544	0.04963
3494.71967	0.04905
3493.43390	0.04837
3492.14813	0.04801
3490.86236	0.04823
3489.57660	0.04891
3488.29083	0.04966
3487.00506	0.05004
3485.71929	0.04984
3484.43352	0.04913
3483.14775	0.04819
3481.86198	0.04736
3480.57621	0.04698
3479.29045	0.04712
3478.00468	0.04761
3476.71891	0.04811
3475.43314	0.04844
3474.14737	0.04858
3472.86160	0.04867
3471.57583	0.04886
3470.29006	0.04923
3469.00429	0.04975
3467.71853	0.05033
3466.43276	0.05083
3465.14699	0.05113
3463.86122	0.05106
3462.57545	0.05062
3461.28968	0.05013
3460.00391	0.05006
3458.71814	0.05061
3457.43238	0.05155
3456.14661	0.05241
3454.86084	0.05283
3453.57507	0.05268
3452.28930	0.05218
3451.00353	0.05171
3449.71776	0.05165
3448.43199	0.05210
3447.14622	0.05285
3445.86046	0.05358
3444.57469	0.05407
3443.28892	0.05424
3442.00315	0.05419
3440.71738	0.05408
3439.43161	0.05398
3438.14584	0.05382
3436.86007	0.05352
3435.57431	0.05314
3434.28854	0.05288
3433.00277	0.05288
3431.71700	0.05306
3430.43123	0.05324
3429.14546	0.05327
3427.85969	0.05315
3426.57392	0.05301
3425.28815	0.05296
3424.00239	0.05297
3422.71662	0.05299
3421.43085	0.05300
3420.14508	0.05306
3418.85931	0.05320
3417.57354	0.05337
3416.28777	0.05349
3415.00200	0.05357
3413.71624	0.05364
3412.43047	0.05371
3411.14470	0.05378
3409.85893	0.05386
3408.57316	0.05393
3407.28739	0.05396
3406.00162	0.05399
3404.71585	0.05408
3403.43008	0.05418
3402.14432	0.05409
3400.85855	0.05367
3399.57278	0.05308
3398.28701	0.05270
3397.00124	0.05286
3395.71547	0.05348
3394.42970	0.05417
3393.14393	0.05460
3391.85817	0.05473
3390.57240	0.05472
3389.28663	0.05463
3388.00086	0.05435
3386.71509	0.05379
3385.42932	0.05305
3384.14355	0.05235
3382.85778	0.05192
3381.57201	0.05185
3380.28625	0.05206
3379.00048	0.05238
3377.71471	0.05268
3376.42894	0.05299
3375.14317	0.05336
3373.85740	0.05370
3372.57163	0.05383
3371.28586	0.05367
3370.00010	0.05350
3368.71433	0.05373
3367.42856	0.05447
3366.14279	0.05532
3364.85702	0.05572
3363.57125	0.05547
3362.28548	0.05490
3360.99971	0.05447
3359.71394	0.05435
3358.42818	0.05442
3357.14241	0.05449
3355.85664	0.05442
3354.57087	0.05420
3353.28510	0.05387
3351.99933	0.05357
3350.71356	0.05339
3349.42779	0.05333
3348.14202	0.05329
3346.85626	0.05319
3345.57049	0.05300
3344.28472	0.05270
3342.99895	0.05240
3341.71318	0.05227
3340.42741	0.05238
3339.14164	0.05272
3337.85587	0.05311
3336.57011	0.05332
3335.28434	0.05323
3333.99857	0.05293
3332.71280	0.05274
3331.42703	0.05288
3330.14126	0.05324
3328.85549	0.05350
3327.56972	0.05348
3326.28395	0.05326
3324.99819	0.05301
3323.71242	0.05280
3322.42665	0.05265
3321.14088	0.05256
3319.85511	0.05254
3318.56934	0.05260
3317.28357	0.05276
3315.99780	0.05298
3314.71204	0.05310
3313.42627	0.05297
3312.14050	0.05260
3310.85473	0.05214
3309.56896	0.05175
3308.28319	0.05144
3306.99742	0.05119
3305.71165	0.05104
3304.42588	0.05104
3303.14012	0.05117
3301.85435	0.05130
3300.56858	0.05134
3299.28281	0.05130
3297.99704	0.05123
3296.71127	0.05120
3295.42550	0.05126
3294.13973	0.05147
3292.85397	0.05177
3291.56820	0.05196
3290.28243	0.05184
3288.99666	0.05135
3287.71089	0.05072
3286.42512	0.05021
3285.13935	0.04995
3283.85358	0.04982
3282.56781	0.04967
3281.28205	0.04947
3279.99628	0.04939
3278.71051	0.04959
3277.42474	0.05007
3276.13897	0.05057
3274.85320	0.05077
3273.56743	0.05052
3272.28166	0.04992
3270.99590	0.04923
3269.71013	0.04876
3268.42436	0.04867
3267.13859	0.04894
3265.85282	0.04936
3264.56705	0.04970
3263.28128	0.04995
3261.99551	0.05026
3260.70974	0.05071
3259.42398	0.05115
3258.13821	0.05124
3256.85244	0.05076
3255.56667	0.04989
3254.28090	0.04907
3252.99513	0.04871
3251.70936	0.04884
3250.42359	0.04920
3249.13783	0.04952
3247.85206	0.04972
3246.56629	0.04991
3245.28052	0.05006
3243.99475	0.05003
3242.70898	0.04973
3241.42321	0.04928
3240.13744	0.04893
3238.85167	0.04881
3237.56591	0.04880
3236.28014	0.04868
3234.99437	0.04830
3233.70860	0.04768
3232.42283	0.04705
3231.13706	0.04675
3229.85129	0.04697
3228.56552	0.04754
3227.27976	0.04803
3225.99399	0.04817
3224.70822	0.04804
3223.42245	0.04788
3222.13668	0.04788
3220.85091	0.04801
3219.56514	0.04819
3218.27937	0.04835
3216.99360	0.04843
3215.70784	0.04836
3214.42207	0.04811
3213.13630	0.04776
3211.85053	0.04740
3210.56476	0.04713
3209.27899	0.04692
3207.99322	0.04670
3206.70745	0.04646
3205.42169	0.04632
3204.13592	0.04645
3202.85015	0.04684
3201.56438	0.04724
3200.27861	0.04731
3198.99284	0.04704
3197.70707	0.04677
3196.42130	0.04682
3195.13553	0.04711
3193.84977	0.04734
3192.56400	0.04727
3191.27823	0.04696
3189.99246	0.04659
3188.70669	0.04632
3187.42092	0.04619
3186.13515	0.04615
3184.84938	0.04603
3183.56362	0.04571
3182.27785	0.04527
3180.99208	0.04491
3179.70631	0.04477
3178.42054	0.04482
3177.13477	0.04492
3175.84900	0.04496
3174.56323	0.04493
3173.27746	0.04486
3171.99170	0.04477
3170.70593	0.04466
3169.42016	0.04451
3168.13439	0.04439
3166.84862	0.04439
3165.56285	0.04455
3164.27708	0.04483
3162.99131	0.04506
3161.70555	0.04508
3160.41978	0.04481
3159.13401	0.04435
3157.84824	0.04389
3156.56247	0.04363
3155.27670	0.04361
3153.99093	0.04369
3152.70516	0.04376
3151.41939	0.04377
3150.13363	0.04375
3148.84786	0.04370
3147.56209	0.04360
3146.27632	0.04346
3144.99055	0.04329
3143.70478	0.04304
3142.41901	0.04273
3141.13324	0.04252
3139.84748	0.04257
3138.56171	0.04280
3137.27594	0.04298
3135.99017	0.04298
3134.70440	0.04290
3133.41863	0.04289
3132.13286	0.04298
3130.84709	0.04310
3129.56132	0.04318
3128.27556	0.04313
3126.98979	0.04288
3125.70402	0.04246
3124.41825	0.04205
3123.13248	0.04179
3121.84671	0.04166
3120.56094	0.04150
3119.27517	0.04122
3117.98940	0.04091
3116.70364	0.04078
3115.41787	0.04085
3114.13210	0.04093
3112.84633	0.04079
3111.56056	0.04043
3110.27479	0.04010
3108.98902	0.03999
3107.70325	0.04012
3106.41749	0.04032
3105.13172	0.04038
3103.84595	0.04015
3102.56018	0.03970
3101.27441	0.03932
3099.98864	0.03926
3098.70287	0.03947
3097.41710	0.03965
3096.13133	0.03962
3094.84557	0.03945
3093.55980	0.03932
3092.27403	0.03929
3090.98826	0.03929
3089.70249	0.03924
3088.41672	0.03912
3087.13095	0.03897
3085.84518	0.03881
3084.55942	0.03864
3083.27365	0.03847
3081.98788	0.03833
3080.70211	0.03827
3079.41634	0.03827
3078.13057	0.03826
3076.84480	0.03823
3075.55903	0.03829
3074.27326	0.03849
3072.98750	0.03874
3071.70173	0.03886
3070.41596	0.03881
3069.13019	0.03868
3067.84442	0.03850
3066.55865	0.03819
3065.27288	0.03769
3063.98711	0.03709
3062.70135	0.03662
3061.41558	0.03643
3060.12981	0.03648
3058.84404	0.03662
3057.55827	0.03672
3056.27250	0.03674
3054.98673	0.03675
3053.70096	0.03681
3052.41519	0.03697
3051.12943	0.03719
3049.84366	0.03735
3048.55789	0.03732
3047.27212	0.03711
3045.98635	0.03682
3044.70058	0.03659
3043.41481	0.03649
3042.12904	0.03648
3040.84328	0.03645
3039.55751	0.03632
3038.27174	0.03609
3036.98597	0.03577
3035.70020	0.03541
3034.41443	0.03509
3033.12866	0.03494
3031.84289	0.03502
3030.55712	0.03531
3029.27136	0.03566
3027.98559	0.03591
3026.69982	0.03597
3025.41405	0.03588
3024.12828	0.03580
3022.84251	0.03581
3021.55674	0.03581
3020.27097	0.03567
3018.98521	0.03537
3017.69944	0.03509
3016.41367	0.03495
3015.12790	0.03495
3013.84213	0.03498
3012.55636	0.03494
3011.27059	0.03480
3009.98482	0.03456
3008.69905	0.03429
3007.41329	0.03412
3006.12752	0.03408
3004.84175	0.03410
3003.55598	0.03411
3002.27021	0.03408
3000.98444	0.03409
2999.69867	0.03419
2998.41290	0.03433
2997.12714	0.03439
2995.84137	0.03433
2994.55560	0.03420
2993.26983	0.03403
2991.98406	0.03379
2990.69829	0.03345
2989.41252	0.03307
2988.12675	0.03286
2986.84098	0.03300
2985.55522	0.03342
2984.26945	0.03389
2982.98368	0.03430
2981.69791	0.03460
2980.41214	0.03475
2979.12637	0.03466
2977.84060	0.03432
2976.55483	0.03388
2975.26907	0.03355
2973.98330	0.03346
2972.69753	0.03353
2971.41176	0.03368
2970.12599	0.03393
2968.84022	0.03437
2967.55445	0.03497
2966.26868	0.03552
2964.98291	0.03581
2963.69715	0.03582
2962.41138	0.03568
2961.12561	0.03553
2959.83984	0.03548
2958.55407	0.03553
2957.26830	0.03565
2955.98253	0.03575
2954.69676	0.03579
2953.41100	0.03581
2952.12523	0.03589
2950.83946	0.03602
2949.55369	0.03611
2948.26792	0.03617
2946.98215	0.03626
2945.69638	0.03640
2944.41061	0.03647
2943.12484	0.03630
2941.83908	0.03589
2940.55331	0.03537
2939.26754	0.03490
2937.98177	0.03463
2936.69600	0.03461
2935.41023	0.03474
2934.12446	0.03492
2932.83869	0.03509
2931.55293	0.03528
2930.26716	0.03553
2928.98139	0.03575
2927.69562	0.03584
2926.40985	0.03588
2925.12408	0.03598
2923.83831	0.03614
2922.55254	0.03618
2921.26677	0.03607
2919.98101	0.03592
2918.69524	0.03586
2917.40947	0.03583
2916.12370	0.03565
2914.83793	0.03532
2913.55216	0.03498
2912.26639	0.03481
2910.98062	0.03481
2909.69486	0.03482
2908.40909	0.03460
2907.12332	0.03407
2905.83755	0.03343
2904.55178	0.03302
2903.26601	0.03295
2901.98024	0.03306
2900.69447	0.03309
2899.40870	0.03299
2898.12294	0.03283
2896.83717	0.03265
2895.55140	0.03249
2894.26563	0.03237
2892.97986	0.03230
2891.69409	0.03226
2890.40832	0.03226
2889.12255	0.03224
2887.83678	0.03211
2886.55102	0.03184
2885.26525	0.03152
2883.97948	0.03133
2882.69371	0.03129
2881.40794	0.03131
2880.12217	0.03134
2878.83640	0.03144
2877.55063	0.03158
2876.26487	0.03158
2874.97910	0.03126
2873.69333	0.03068
2872.40756	0.03018
2871.12179	0.03003
2869.83602	0.03021
2868.55025	0.03046
2867.26448	0.03054
2865.97871	0.03051
2864.69295	0.03052
2863.40718	0.03059
2862.12141	0.03054
2860.83564	0.03024
2859.54987	0.02982
2858.26410	0.02955
2856.97833	0.02952
2855.69256	0.02957
2854.40680	0.02952
2853.12103	0.02935
2851.83526	0.02914
2850.54949	0.02896
2849.26372	0.02882
2847.97795	0.02860
2846.69218	0.02824
2845.40641	0.02779
2844.12064	0.02744
2842.83488	0.02734
2841.54911	0.02741
2840.26334	0.02743
2838.97757	0.02731
2837.69180	0.02710
2836.40603	0.02692
2835.12026	0.02679
2833.83449	0.02664
2832.54873	0.02638
2831.26296	0.02601
2829.97719	0.02570
2828.69142	0.02556
2827.40565	0.02557
2826.11988	0.02553
2824.83411	0.02537
2823.54834	0.02521
2822.26257	0.02524
2820.97681	0.02543
2819.69104	0.02557
2818.40527	0.02551
2817.11950	0.02536
2815.83373	0.02531
2814.54796	0.02540
2813.26219	0.02549
2811.97642	0.02546
2810.69066	0.02529
2809.40489	0.02504
2808.11912	0.02476
2806.83335	0.02444
2805.54758	0.02411
2804.26181	0.02385
2802.97604	0.02379
2801.69027	0.02398
2800.40450	0.02425
2799.11874	0.02432
2797.83297	0.02412
2796.54720	0.02381
2795.26143	0.02361
2793.97566	0.02353
2792.68989	0.02352
2791.40412	0.02354
2790.11835	0.02361
2788.83259	0.02370
2787.54682	0.02376
2786.26105	0.02381
2784.97528	0.02389
2783.68951	0.02398
2782.40374	0.02400
2781.11797	0.02396
2779.83220	0.02394
2778.54643	0.02400
2777.26067	0.02410
2775.97490	0.02411
2774.68913	0.02394
2773.40336	0.02363
2772.11759	0.02331
2770.83182	0.02305
2769.54605	0.02290
2768.26028	0.02283
2766.97452	0.02280
2765.68875	0.02273
2764.40298	0.02259
2763.11721	0.02246
2761.83144	0.02243
2760.54567	0.02249
2759.25990	0.02256
2757.97413	0.02254
2756.68836	0.02244
2755.40260	0.02242
2754.11683	0.02254
2752.83106	0.02269
2751.54529	0.02272
2750.25952	0.02260
2748.97375	0.02239
2747.68798	0.02218
2746.40221	0.02201
2745.11645	0.02195
2743.83068	0.02200
2742.54491	0.02211
2741.25914	0.02219
2739.97337	0.02221
2738.68760	0.02221
2737.40183	0.02220
2736.11606	0.02216
2734.83029	0.02204
2733.54453	0.02189
2732.25876	0.02179
2730.97299	0.02179
2729.68722	0.02186
2728.40145	0.02195
2727.11568	0.02200
2725.82991	0.02199
2724.54414	0.02190
2723.25838	0.02168
2721.97261	0.02139
2720.68684	0.02111
2719.40107	0.02093
2718.11530	0.02085
2716.82953	0.02083
2715.54376	0.02084
2714.25799	0.02087
2712.97222	0.02090
2711.68646	0.02093
2710.40069	0.02099
2709.11492	0.02107
2707.82915	0.02112
2706.54338	0.02107
2705.25761	0.02096
2703.97184	0.02091
2702.68607	0.02098
2701.40031	0.02107
2700.11454	0.02110
2698.82877	0.02106
2697.54300	0.02104
2696.25723	0.02106
2694.97146	0.02110
2693.68569	0.02106
2692.39992	0.02092
2691.11415	0.02069
2689.82839	0.02042
2688.54262	0.02015
2687.25685	0.01997
2685.97108	0.01996
2684.68531	0.02010
2683.39954	0.02026
2682.11377	0.02035
2680.82800	0.02032
2679.54224	0.02019
2678.25647	0.02003
2676.97070	0.01993
2675.68493	0.01994
2674.39916	0.02001
2673.11339	0.02004
2671.82762	0.02000
2670.54185	0.02000
2669.25608	0.02011
2667.97032	0.02031
2666.68455	0.02051
2665.39878	0.02060
2664.11301	0.02058
2662.82724	0.02052
2661.54147	0.02051
2660.25570	0.02055
2658.96993	0.02060
2657.68417	0.02063
2656.39840	0.02065
2655.11263	0.02062
2653.82686	0.02054
2652.54109	0.02047
2651.25532	0.02044
2649.96955	0.02039
2648.68378	0.02022
2647.39801	0.01993
2646.11225	0.01963
2644.82648	0.01948
2643.54071	0.01952
2642.25494	0.01967
2640.96917	0.01977
2639.68340	0.01966
2638.39763	0.01933
2637.11186	0.01895
2635.82609	0.01873
2634.54033	0.01876
2633.25456	0.01895
2631.96879	0.01914
2630.68302	0.01918
2629.39725	0.01905
2628.11148	0.01881
2626.82571	0.01853
2625.53994	0.01829
2624.25418	0.01816
2622.96841	0.01819
2621.68264	0.01827
2620.39687	0.01826
2619.11110	0.01813
2617.82533	0.01798
2616.53956	0.01792
2615.25379	0.01796
2613.96802	0.01795
2612.68226	0.01780
2611.39649	0.01753
2610.11072	0.01727
2608.82495	0.01720
2607.53918	0.01741
2606.25341	0.01785
2604.96764	0.01834
2603.68187	0.01861
2602.39611	0.01853
2601.11034	0.01820
2599.82457	0.01790
2598.53880	0.01783
2597.25303	0.01784
2595.96726	0.01759
2594.68149	0.01699
2593.39572	0.01634
2592.10995	0.01604
2590.82419	0.01624
2589.53842	0.01676
2588.25265	0.01727
2586.96688	0.01752
2585.68111	0.01748
2584.39534	0.01724
2583.10957	0.01700
2581.82380	0.01688
2580.53804	0.01687
2579.25227	0.01687
2577.96650	0.01679
2576.68073	0.01659
2575.39496	0.01634
2574.10919	0.01611
2572.82342	0.01599
2571.53765	0.01604
2570.25188	0.01626
2568.96612	0.01662
2567.68035	0.01696
2566.39458	0.01708
2565.10881	0.01683
2563.82304	0.01631
2562.53727	0.01591
2561.25150	0.01591
2559.96573	0.01626
2558.67997	0.01655
2557.39420	0.01651
2556.10843	0.01629
2554.82266	0.01626
2553.53689	0.01650
2552.25112	0.01674
2550.96535	0.01674
2549.67958	0.01657
2548.39381	0.01646
2547.10805	0.01650
2545.82228	0.01657
2544.53651	0.01655
2543.25074	0.01644
2541.96497	0.01632
2540.67920	0.01614
2539.39343	0.01584
2538.10766	0.01549
2536.82190	0.01531
2535.53613	0.01534
2534.25036	0.01531
2532.96459	0.01502
2531.67882	0.01464
2530.39305	0.01451
2529.10728	0.01476
2527.82151	0.01522
2526.53574	0.01565
2525.24998	0.01583
2523.96421	0.01569
2522.67844	0.01527
2521.39267	0.01477
2520.10690	0.01438
2518.82113	0.01417
2517.53536	0.01415
2516.24959	0.01428
2514.96383	0.01451
2513.67806	0.01479
2512.39229	0.01507
2511.10652	0.01527
2509.82075	0.01529
2508.53498	0.01514
2507.24921	0.01485
2505.96344	0.01447
2504.67767	0.01410
2503.39191	0.01388
2502.10614	0.01393
2500.82037	0.01421
2499.53460	0.01453
2498.24883	0.01475
2496.96306	0.01485
2495.67729	0.01485
2494.39152	0.01470
2493.10576	0.01448
2491.81999	0.01431
2490.53422	0.01427
2489.24845	0.01432
2487.96268	0.01445
2486.67691	0.01477
2485.39114	0.01524
2484.10537	0.01561
2482.81960	0.01558
2481.53384	0.01520
2480.24807	0.01481
2478.96230	0.01466
2477.67653	0.01477
2476.39076	0.01496
2475.10499	0.01512
2473.81922	0.01520
2472.53345	0.01511
2471.24769	0.01475
2469.96192	0.01409
2468.67615	0.01334
2467.39038	0.01282
2466.10461	0.01273
2464.81884	0.01300
2463.53307	0.01339
2462.24730	0.01367
2460.96153	0.01378
2459.67577	0.01379
2458.39000	0.01383
2457.10423	0.01395
2455.81846	0.01410
2454.53269	0.01427
2453.24692	0.01434
2451.96115	0.01418
2450.67538	0.01375
2449.38962	0.01325
2448.10385	0.01299
2446.81808	0.01307
2445.53231	0.01332
2444.24654	0.01349
2442.96077	0.01353
2441.67500	0.01354
2440.38923	0.01359
2439.10346	0.01369
2437.81770	0.01379
2436.53193	0.01381
2435.24616	0.01370
2433.96039	0.01349
2432.67462	0.01331
2431.38885	0.01327
2430.10308	0.01341
2428.81731	0.01372
2427.53155	0.01409
2426.24578	0.01430
2424.96001	0.01413
2423.67424	0.01360
2422.38847	0.01301
2421.10270	0.01272
2419.81693	0.01283
2418.53116	0.01316
2417.24539	0.01345
2415.95963	0.01354
2414.67386	0.01341
2413.38809	0.01317
2412.10232	0.01293
2410.81655	0.01276
2409.53078	0.01266
2408.24501	0.01261
2406.95924	0.01263
2405.67347	0.01274
2404.38771	0.01288
2403.10194	0.01292
2401.81617	0.01276
2400.53040	0.01246
2399.24463	0.01217
2397.95886	0.01215
2396.67309	0.01244
2395.38732	0.01288
2394.10156	0.01322
2392.81579	0.01333
2391.53002	0.01321
2390.24425	0.01300
2388.95848	0.01276
2387.67271	0.01250
2386.38694	0.01227
2385.10117	0.01216
2383.81540	0.01220
2382.52964	0.01232
2381.24387	0.01244
2379.95810	0.01254
2378.67233	0.01260
2377.38656	0.01265
2376.10079	0.01272
2374.81502	0.01278
2373.52925	0.01285
2372.24349	0.01286
2370.95772	0.01284
2369.67195	0.01268
2368.38618	0.01251
2367.10041	0.01247
2365.81464	0.01266
2364.52887	0.01291
2363.24310	0.01318
2361.95733	0.01357
2360.67157	0.01412
2359.38580	0.01448
2358.10003	0.01458
2356.81426	0.01445
2355.52849	0.01421
2354.24272	0.01393
2352.95695	0.01364
2351.67118	0.01353
2350.38542	0.01357
2349.09965	0.01348
2347.81388	0.01319
2346.52811	0.01314
2345.24234	0.01325
2343.95657	0.01308
2342.67080	0.01266
2341.38503	0.01284
2340.09926	0.01363
2338.81350	0.01386
2337.52773	0.01348
2336.24196	0.01381
2334.95619	0.01464
2333.67042	0.01454
2332.38465	0.01366
2331.09888	0.01360
2329.81311	0.01362
2328.52735	0.01293
2327.24158	0.01346
2325.95581	0.01476
2324.67004	0.01510
2323.38427	0.01527
2322.09850	0.01546
2320.81273	0.01473
2319.52696	0.01435
2318.24119	0.01438
2316.95543	0.01408
2315.66966	0.01414
2314.38389	0.01439
2313.09812	0.01444
2311.81235	0.01456
2310.52658	0.01437
2309.24081	0.01397
2307.95504	0.01365
2306.66928	0.01332
2305.38351	0.01323
2304.09774	0.01325
2302.81197	0.01322
2301.52620	0.01317
2300.24043	0.01306
2298.95466	0.01303
2297.66889	0.01307
2296.38312	0.01311
2295.09736	0.01315
2293.81159	0.01319
2292.52582	0.01329
2291.24005	0.01336
2289.95428	0.01334
2288.66851	0.01319
2287.38274	0.01297
2286.09697	0.01273
2284.81121	0.01252
2283.52544	0.01240
2282.23967	0.01236
2280.95390	0.01236
2279.66813	0.01233
2278.38236	0.01227
2277.09659	0.01218
2275.81082	0.01195
2274.52505	0.01143
2273.23929	0.01068
2271.95352	0.00998
2270.66775	0.00967
2269.38198	0.00981
2268.09621	0.01024
2266.81044	0.01073
2265.52467	0.01111
2264.23890	0.01125
2262.95314	0.01114
2261.66737	0.01087
2260.38160	0.01049
2259.09583	0.01010
2257.81006	0.00986
2256.52429	0.00993
2255.23852	0.01031
2253.95275	0.01074
2252.66698	0.01084
2251.38122	0.01052
2250.09545	0.01016
2248.80968	0.01033
2247.52391	0.01105
2246.23814	0.01194
2244.95237	0.01236
2243.66660	0.01204
2242.38083	0.01117
2241.09507	0.01016
2239.80930	0.00946
2238.52353	0.00936
2237.23776	0.00968
2235.95199	0.00995
2234.66622	0.00993
2233.38045	0.00976
2232.09468	0.00970
2230.80891	0.00981
2229.52315	0.01009
2228.23738	0.01043
2226.95161	0.01070
2225.66584	0.01071
2224.38007	0.01039
2223.09430	0.00991
2221.80853	0.00948
2220.52276	0.00913
2219.23700	0.00873
2217.95123	0.00831
2216.66546	0.00819
2215.37969	0.00865
2214.09392	0.00956
2212.80815	0.01048
2211.52238	0.01105
2210.23661	0.01111
2208.95084	0.01074
2207.66508	0.01027
2206.37931	0.00995
2205.09354	0.00972
2203.80777	0.00936
2202.52200	0.00883
2201.23623	0.00844
2199.95046	0.00847
2198.66469	0.00900
2197.37893	0.00973
2196.09316	0.01002
2194.80739	0.00935
2193.52162	0.00785
2192.23585	0.00638
2190.95008	0.00582
2189.66431	0.00633
2188.37854	0.00729
2187.09277	0.00797
2185.80701	0.00805
2184.52124	0.00763
2183.23547	0.00677
2181.94970	0.00541
2180.66393	0.00376
2179.37816	0.00239
2178.09239	0.00179
2176.80662	0.00211
2175.52085	0.00306
2174.23509	0.00415
2172.94932	0.00485
2171.66355	0.00504
2170.37778	0.00507
2169.09201	0.00538
2167.80624	0.00605
2166.52047	0.00686
2165.23470	0.00768
2163.94894	0.00848
2162.66317	0.00907
2161.37740	0.00892
2160.09163	0.00748
2158.80586	0.00501
2157.52009	0.00271
2156.23432	0.00162
2154.94855	0.00171
2153.66278	0.00227
2152.37702	0.00278
2151.09125	0.00309
2149.80548	0.00321
2148.51971	0.00319
2147.23394	0.00312
2145.94817	0.00307
2144.66240	0.00302
2143.37663	0.00298
2142.09087	0.00298
2140.80510	0.00295
2139.51933	0.00276
2138.23356	0.00246
2136.94779	0.00229
2135.66202	0.00249
2134.37625	0.00308
2133.09048	0.00389
2131.80471	0.00463
2130.51895	0.00502
2129.23318	0.00495
2127.94741	0.00469
2126.66164	0.00466
2125.37587	0.00507
2124.09010	0.00564
2122.80433	0.00593
2121.51856	0.00583
2120.23280	0.00564
2118.94703	0.00566
2117.66126	0.00582
2116.37549	0.00588
2115.08972	0.00581
2113.80395	0.00577
2112.51818	0.00589
2111.23241	0.00617
2109.94664	0.00660
2108.66088	0.00716
2107.37511	0.00763
2106.08934	0.00766
2104.80357	0.00708
2103.51780	0.00613
2102.23203	0.00521
2100.94626	0.00458
2099.66049	0.00364
2098.37473	0.00331
2097.08896	0.00330
2095.80319	0.00324
2094.51742	0.00334
2093.23165	0.00390
2091.94588	0.00486
2090.66011	0.00569
2089.37434	0.00592
2088.08857	0.00556
2086.80281	0.00502
2085.51704	0.00472
2084.23127	0.00472
2082.94550	0.00483
2081.65973	0.00476
2080.37396	0.00442
2079.08819	0.00385
2077.80242	0.00315
2076.51666	0.00248
2075.23089	0.00199
2073.94512	0.00178
2072.65935	0.00187
2071.37358	0.00219
2070.08781	0.00262
2068.80204	0.00307
2067.51627	0.00341
2066.23050	0.00356
2064.94474	0.00358
2063.65897	0.00368
2062.37320	0.00400
2061.08743	0.00440
2059.80166	0.00453
2058.51589	0.00425
2057.23012	0.00378
2055.94435	0.00344
2054.65859	0.00337
2053.37282	0.00339
2052.08705	0.00316
2050.80128	0.00251
2049.51551	0.00155
2048.22974	0.00046
2046.94397	-0.00062
2045.65820	-0.00165
2044.37243	-0.00247
2043.08667	-0.00280
2041.80090	-0.00255
2040.51513	-0.00202
2039.22936	-0.00170
2037.94359	-0.00183
2036.65782	-0.00209
2035.37205	-0.00197
2034.08628	-0.00132
2032.80052	-0.00045
2031.51475	0.00025
2030.22898	0.00058
2028.94321	0.00058
2027.65744	0.00043
2026.37167	0.00035
2025.08590	0.00040
2023.80013	0.00043
2022.51436	0.00026
2021.22860	0.00001
2019.94283	-0.00005
2018.65706	0.00005
2017.37129	-0.00013
2016.08552	-0.00094
2014.79975	-0.00214
2013.51398	-0.00309
2012.22821	-0.00334
2010.94245	-0.00301
2009.65668	-0.00239
2008.37091	-0.00148
2007.08514	-0.00015
2005.79937	0.00136
2004.51360	0.00249
2003.22783	0.00293
2001.94206	0.00303
2000.65629	0.00339
1999.37053	0.00416
1998.08476	0.00493
1996.79899	0.00535
1995.51322	0.00553
1994.22745	0.00577
1992.94168	0.00609
1991.65591	0.00611
1990.37014	0.00548
1989.08438	0.00434
1987.79861	0.00321
1986.51284	0.00250
1985.22707	0.00215
1983.94130	0.00182
1982.65553	0.00135
1981.36976	0.00093
1980.08399	0.00078
1978.79822	0.00086
1977.51246	0.00079
1976.22669	0.00022
1974.94092	-0.00077
1973.65515	-0.00161
1972.36938	-0.00174
1971.08361	-0.00113
1969.79784	-0.00026
1968.51207	0.00042
1967.22631	0.00088
1965.94054	0.00143
1964.65477	0.00227
1963.36900	0.00324
1962.08323	0.00400
1960.79746	0.00440
1959.51169	0.00452
1958.22592	0.00454
1956.94015	0.00450
1955.65439	0.00431
1954.36862	0.00395
1953.08285	0.00362
1951.79708	0.00355
1950.51131	0.00387
1949.22554	0.00435
1947.93977	0.00456
1946.65400	0.00422
1945.36823	0.00353
1944.08247	0.00301
1942.79670	0.00299
1941.51093	0.00342
1940.22516	0.00398
1938.93939	0.00443
1937.65362	0.00463
1936.36785	0.00443
1935.08208	0.00383
1933.79632	0.00312
1932.51055	0.00282
1931.22478	0.00323
1929.93901	0.00421
1928.65324	0.00532
1927.36747	0.00614
1926.08170	0.00651
1924.79593	0.00652
1923.51016	0.00635
1922.22440	0.00615
1920.93863	0.00598
1919.65286	0.00589
1918.36709	0.00590
1917.08132	0.00597
1915.79555	0.00595
1914.50978	0.00578
1913.22401	0.00553
1911.93825	0.00540
1910.65248	0.00550
1909.36671	0.00575
1908.08094	0.00598
1906.79517	0.00611
1905.50940	0.00622
1904.22363	0.00635
1902.93786	0.00641
1901.65209	0.00626
1900.36633	0.00595
1899.08056	0.00568
1897.79479	0.00569
1896.50902	0.00597
1895.22325	0.00625
1893.93748	0.00622
1892.65171	0.00581
1891.36594	0.00530
1890.08018	0.00507
1888.79441	0.00527
1887.50864	0.00575
1886.22287	0.00621
1884.93710	0.00649
1883.65133	0.00657
1882.36556	0.00653
1881.07979	0.00643
1879.79402	0.00626
1878.50826	0.00601
1877.22249	0.00571
1875.93672	0.00544
1874.65095	0.00531
1873.36518	0.00539
1872.07941	0.00562
1870.79364	0.00586
1869.50787	0.00603
1868.22211	0.00609
1866.93634	0.00606
1865.65057	0.00594
1864.36480	0.00571
1863.07903	0.00548
1861.79326	0.00539
1860.50749	0.00556
1859.22172	0.00591
1857.93595	0.00622
1856.65019	0.00634
1855.36442	0.00628
1854.07865	0.00615
1852.79288	0.00608
1851.50711	0.00612
1850.22134	0.00617
1848.93557	0.00614
1847.64980	0.00600
1846.36404	0.00585
1845.07827	0.00585
1843.79250	0.00604
1842.50673	0.00629
1841.22096	0.00645
1839.93519	0.00653
1838.64942	0.00663
1837.36365	0.00679
1836.07788	0.00697
1834.79212	0.00706
1833.50635	0.00703
1832.22058	0.00693
1830.93481	0.00676
1829.64904	0.00654
1828.36327	0.00634
1827.07750	0.00618
1825.79173	0.00605
1824.50597	0.00596
1823.22020	0.00593
1821.93443	0.00601
1820.64866	0.00614
1819.36289	0.00625
1818.07712	0.00632
1816.79135	0.00641
1815.50558	0.00658
1814.21981	0.00679
1812.93405	0.00699
1811.64828	0.00718
1810.36251	0.00738
1809.07674	0.00756
1807.79097	0.00769
1806.50520	0.00775
1805.21943	0.00775
1803.93366	0.00775
1802.64790	0.00771
1801.36213	0.00761
1800.07636	0.00747
1798.79059	0.00736
1797.50482	0.00731
1796.21905	0.00731
1794.93328	0.00732
1793.64751	0.00738
1792.36174	0.00752
1791.07598	0.00772
1789.79021	0.00791
1788.50444	0.00803
1787.21867	0.00809
1785.93290	0.00813
1784.64713	0.00814
1783.36136	0.00813
1782.07559	0.00810
1780.78983	0.00808
1779.50406	0.00806
1778.21829	0.00805
1776.93252	0.00808
1775.64675	0.00817
1774.36098	0.00832
1773.07521	0.00846
1771.78944	0.00855
1770.50367	0.00864
1769.21791	0.00879
1767.93214	0.00899
1766.64637	0.00916
1765.36060	0.00925
1764.07483	0.00928
1762.78906	0.00933
1761.50329	0.00945
1760.21752	0.00959
1758.93176	0.00967
1757.64599	0.00963
1756.36022	0.00948
1755.07445	0.00928
1753.78868	0.00913
1752.50291	0.00910
1751.21714	0.00917
1749.93137	0.00931
1748.64560	0.00948
1747.35984	0.00962
1746.07407	0.00972
1744.78830	0.00977
1743.50253	0.00979
1742.21676	0.00982
1740.93099	0.00986
1739.64522	0.00990
1738.35945	0.00991
1737.07369	0.00988
1735.78792	0.00985
1734.50215	0.00990
1733.21638	0.01004
1731.93061	0.01023
1730.64484	0.01039
1729.35907	0.01047
1728.07330	0.01053
1726.78753	0.01065
1725.50177	0.01086
1724.21600	0.01112
1722.93023	0.01135
1721.64446	0.01151
1720.35869	0.01158
1719.07292	0.01158
1717.78715	0.01159
1716.50138	0.01167
1715.21561	0.01186
1713.92985	0.01211
1712.64408	0.01235
1711.35831	0.01252
1710.07254	0.01261
1708.78677	0.01269
1707.50100	0.01281
1706.21523	0.01298
1704.92946	0.01319
1703.64370	0.01342
1702.35793	0.01365
1701.07216	0.01386
1699.78639	0.01406
1698.50062	0.01424
1697.21485	0.01439
1695.92908	0.01455
1694.64331	0.01476
1693.35754	0.01503
1692.07178	0.01531
1690.78601	0.01556
1689.50024	0.01576
1688.21447	0.01589
1686.92870	0.01596
1685.64293	0.01603
1684.35716	0.01620
1683.07139	0.01652
1681.78563	0.01690
1680.49986	0.01722
1679.21409	0.01744
1677.92832	0.01759
1676.64255	0.01776
1675.35678	0.01800
1674.07101	0.01826
1672.78524	0.01851
1671.49947	0.01876
1670.21371	0.01901
1668.92794	0.01926
1667.64217	0.01948
1666.35640	0.01965
1665.07063	0.01975
1663.78486	0.01985
1662.49909	0.02001
1661.21332	0.02023
1659.92756	0.02049
1658.64179	0.02072
1657.35602	0.02087
1656.07025	0.02094
1654.78448	0.02096
1653.49871	0.02100
1652.21294	0.02114
1650.92717	0.02136
1649.64140	0.02162
1648.35564	0.02189
1647.06987	0.02217
1645.78410	0.02242
1644.49833	0.02263
1643.21256	0.02277
1641.92679	0.02284
1640.64102	0.02285
1639.35525	0.02284
1638.06949	0.02283
1636.78372	0.02283
1635.49795	0.02287
1634.21218	0.02298
1632.92641	0.02316
1631.64064	0.02335
1630.35487	0.02349
1629.06910	0.02359
1627.78333	0.02366
1626.49757	0.02372
1625.21180	0.02378
1623.92603	0.02386
1622.64026	0.02400
1621.35449	0.02419
1620.06872	0.02439
1618.78295	0.02454
1617.49718	0.02466
1616.21142	0.02475
1614.92565	0.02482
1613.63988	0.02489
1612.35411	0.02496
1611.06834	0.02503
1609.78257	0.02512
1608.49680	0.02524
1607.21103	0.02536
1605.92526	0.02548
1604.63950	0.02557
1603.35373	0.02568
1602.06796	0.02584
1600.78219	0.02605
1599.49642	0.02626
1598.21065	0.02644
1596.92488	0.02658
1595.63911	0.02667
1594.35335	0.02671
1593.06758	0.02671
1591.78181	0.02672
1590.49604	0.02676
1589.21027	0.02686
1587.92450	0.02697
1586.63873	0.02708
1585.35296	0.02720
1584.06719	0.02736
1582.78143	0.02753
1581.49566	0.02765
1580.20989	0.02769
1578.92412	0.02767
1577.63835	0.02770
1576.35258	0.02781
1575.06681	0.02797
1573.78104	0.02811
1572.49528	0.02817
1571.20951	0.02819
1569.92374	0.02823
1568.63797	0.02831
1567.35220	0.02837
1566.06643	0.02837
1564.78066	0.02833
1563.49489	0.02826
1562.20912	0.02818
1560.92336	0.02812
1559.63759	0.02813
1558.35182	0.02822
1557.06605	0.02837
1555.78028	0.02850
1554.49451	0.02861
1553.20874	0.02873
1551.92297	0.02890
1550.63721	0.02907
1549.35144	0.02921
1548.06567	0.02928
1546.77990	0.02928
1545.49413	0.02924
1544.20836	0.02920
1542.92259	0.02920
1541.63682	0.02924
1540.35105	0.02935
1539.06529	0.02951
1537.77952	0.02969
1536.49375	0.02986
1535.20798	0.03003
1533.92221	0.03027
1532.63644	0.03062
1531.35067	0.03104
1530.06490	0.03149
1528.77914	0.03196
1527.49337	0.03248
1526.20760	0.03308
1524.92183	0.03373
1523.63606	0.03442
1522.35029	0.03515
1521.06452	0.03595
1519.77875	0.03681
1518.49298	0.03772
1517.20722	0.03869
1515.92145	0.03971
1514.63568	0.04075
1513.34991	0.04178
1512.06414	0.04283
1510.77837	0.04392
1509.49260	0.04506
1508.20683	0.04625
1506.92107	0.04745
1505.63530	0.04863
1504.34953	0.04974
1503.06376	0.05076
1501.77799	0.05167
1500.49222	0.05250
1499.20645	0.05329
1497.92068	0.05403
1496.63491	0.05475
1495.34915	0.05545
1494.06338	0.05615
1492.77761	0.05686
1491.49184	0.05756
1490.20607	0.05825
1488.92030	0.05898
1487.63453	0.05980
1486.34876	0.06072
1485.06299	0.06167
1483.77723	0.06262
1482.49146	0.06355
1481.20569	0.06448
1479.91992	0.06540
1478.63415	0.06628
1477.34838	0.06713
1476.06261	0.06790
1474.77684	0.06858
1473.49108	0.06917
1472.20531	0.06968
1470.91954	0.07011
1469.63377	0.07044
1468.34800	0.07064
1467.06223	0.07070
1465.77646	0.07066
1464.49069	0.07058
1463.20492	0.07050
1461.91916	0.07050
1460.63339	0.07065
1459.34762	0.07096
1458.06185	0.07141
1456.77608	0.07196
1455.49031	0.07253
1454.20454	0.07307
1452.91877	0.07356
1451.63301	0.07397
1450.34724	0.07433
1449.06147	0.07465
1447.77570	0.07489
1446.48993	0.07500
1445.20416	0.07490
1443.91839	0.07459
1442.63262	0.07411
1441.34685	0.07359
1440.06109	0.07310
1438.77532	0.07273
1437.48955	0.07250
1436.20378	0.07245
1434.91801	0.07258
1433.63224	0.07286
1432.34647	0.07328
1431.06070	0.07385
1429.77494	0.07462
1428.48917	0.07558
1427.20340	0.07671
1425.91763	0.07790
1424.63186	0.07908
1423.34609	0.08020
1422.06032	0.08126
1420.77455	0.08226
1419.48878	0.08315
1418.20302	0.08392
1416.91725	0.08452
1415.63148	0.08496
1414.34571	0.08523
1413.05994	0.08530
1411.77417	0.08514
1410.48840	0.08476
1409.20263	0.08417
1407.91687	0.08341
1406.63110	0.08249
1405.34533	0.08139
1404.05956	0.08009
1402.77379	0.07861
1401.48802	0.07697
1400.20225	0.07525
1398.91648	0.07353
1397.63071	0.07183
1396.34495	0.07015
1395.05918	0.06844
1393.77341	0.06668
1392.48764	0.06487
1391.20187	0.06302
1389.91610	0.06115
1388.63033	0.05928
1387.34456	0.05746
1386.05880	0.05569
1384.77303	0.05396
1383.48726	0.05225
1382.20149	0.05055
1380.91572	0.04887
1379.62995	0.04716
1378.34418	0.04542
1377.05841	0.04363
1375.77264	0.04183
1374.48688	0.04007
1373.20111	0.03840
1371.91534	0.03686
1370.62957	0.03543
1369.34380	0.03408
1368.05803	0.03277
1366.77226	0.03154
1365.48649	0.03040
1364.20073	0.02934
1362.91496	0.02835
1361.62919	0.02741
1360.34342	0.02653
1359.05765	0.02571
1357.77188	0.02492
1356.48611	0.02418
1355.20034	0.02351
1353.91457	0.02290
1352.62881	0.02232
1351.34304	0.02175
1350.05727	0.02118
1348.77150	0.02066
1347.48573	0.02018
1346.19996	0.01973
1344.91419	0.01930
1343.62842	0.01890
1342.34266	0.01855
1341.05689	0.01826
1339.77112	0.01800
1338.48535	0.01774
1337.19958	0.01748
1335.91381	0.01723
1334.62804	0.01700
1333.34227	0.01680
1332.05650	0.01663
1330.77074	0.01645
1329.48497	0.01624
1328.19920	0.01602
1326.91343	0.01581
1325.62766	0.01562
1324.34189	0.01546
1323.05612	0.01529
1321.77035	0.01510
1320.48459	0.01489
1319.19882	0.01470
1317.91305	0.01453
1316.62728	0.01439
1315.34151	0.01427
1314.05574	0.01417
1312.76997	0.01409
1311.48420	0.01403
1310.19843	0.01398
1308.91267	0.01393
1307.62690	0.01386
1306.34113	0.01378
1305.05536	0.01370
1303.76959	0.01361
1302.48382	0.01352
1301.19805	0.01344
1299.91228	0.01338
1298.62652	0.01333
1297.34075	0.01327
1296.05498	0.01319
1294.76921	0.01308
1293.48344	0.01299
1292.19767	0.01296
1290.91190	0.01299
1289.62613	0.01304
1288.34036	0.01303
1287.05460	0.01295
1285.76883	0.01281
1284.48306	0.01268
1283.19729	0.01258
1281.91152	0.01254
1280.62575	0.01252
1279.33998	0.01250
1278.05421	0.01245
1276.76845	0.01239
1275.48268	0.01233
1274.19691	0.01228
1272.91114	0.01223
1271.62537	0.01218
1270.33960	0.01211
1269.05383	0.01202
1267.76806	0.01191
1266.48229	0.01183
1265.19653	0.01182
1263.91076	0.01188
1262.62499	0.01194
1261.33922	0.01194
1260.05345	0.01190
1258.76768	0.01184
1257.48191	0.01180
1256.19614	0.01175
1254.91037	0.01168
1253.62461	0.01158
1252.33884	0.01148
1251.05307	0.01140
1249.76730	0.01137
1248.48153	0.01138
1247.19576	0.01142
1245.90999	0.01144
1244.62422	0.01141
1243.33846	0.01135
1242.05269	0.01127
1240.76692	0.01122
1239.48115	0.01120
1238.19538	0.01119
1236.90961	0.01118
1235.62384	0.01116
1234.33807	0.01114
1233.05230	0.01113
1231.76654	0.01109
1230.48077	0.01105
1229.19500	0.01102
1227.90923	0.01103
1226.62346	0.01108
1225.33769	0.01116
1224.05192	0.01124
1222.76615	0.01132
1221.48039	0.01140
1220.19462	0.01148
1218.90885	0.01152
1217.62308	0.01152
1216.33731	0.01152
1215.05154	0.01155
1213.76577	0.01163
1212.48000	0.01174
1211.19423	0.01184
1209.90847	0.01192
1208.62270	0.01195
1207.33693	0.01197
1206.05116	0.01198
1204.76539	0.01202
1203.47962	0.01210
1202.19385	0.01222
1200.90808	0.01238
1199.62232	0.01257
1198.33655	0.01264
1197.05078	0.01272
1195.76501	0.01282
1194.47924	0.01293
1193.19347	0.01305
1191.90770	0.01316
1190.62193	0.01324
1189.33616	0.01331
1188.05040	0.01337
1186.76463	0.01346
1185.47886	0.01359
1184.19309	0.01374
1182.90732	0.01387
1181.62155	0.01393
1180.33578	0.01395
1179.05001	0.01399
1177.76425	0.01411
1176.47848	0.01430
1175.19271	0.01452
1173.90694	0.01472
1172.62117	0.01486
1171.33540	0.01492
1170.04963	0.01496
1168.76386	0.01504
1167.47809	0.01520
1166.19233	0.01544
1164.90656	0.01571
1163.62079	0.01599
1162.33502	0.01623
1161.04925	0.01641
1159.76348	0.01657
1158.47771	0.01679
1157.19194	0.01710
1155.90618	0.01749
1154.62041	0.01790
1153.33464	0.01829
1152.04887	0.01870
1150.76310	0.01917
1149.47733	0.01971
1148.19156	0.02027
1146.90579	0.02081
1145.62002	0.02138
1144.33426	0.02204
1143.04849	0.02279
1141.76272	0.02359
1140.47695	0.02442
1139.19118	0.02532
1137.90541	0.02636
1136.61964	0.02756
1135.33387	0.02888
1134.04811	0.03032
1132.76234	0.03188
1131.47657	0.03357
1130.19080	0.03540
1128.90503	0.03739
1127.61926	0.03957
1126.33349	0.04194
1125.04772	0.04450
1123.76195	0.04721
1122.47619	0.05006
1121.19042	0.05301
1119.90465	0.05606
1118.61888	0.05917
1117.33311	0.06233
1116.04734	0.06556
1114.76157	0.06886
1113.47580	0.07217
1112.19004	0.07545
1110.90427	0.07865
1109.61850	0.08177
1108.33273	0.08478
1107.04696	0.08770
1105.76119	0.09060
1104.47542	0.09354
1103.18965	0.09659
1101.90388	0.09971
1100.61812	0.10280
1099.33235	0.10574
1098.04658	0.10845
1096.76081	0.11101
1095.47504	0.11349
1094.18927	0.11591
1092.90350	0.11818
1091.61773	0.12025
1090.33197	0.12219
1089.04620	0.12413
1087.76043	0.12610
1086.47466	0.12805
1085.18889	0.12992
1083.90312	0.13175
1082.61735	0.13366
1081.33158	0.13574
1080.04581	0.13803
1078.76005	0.14049
1077.47428	0.14306
1076.18851	0.14576
1074.90274	0.14856
1073.61697	0.15150
1072.33120	0.15457
1071.04543	0.15779
1069.75966	0.16113
1068.47390	0.16454
1067.18813	0.16802
1065.90236	0.17160
1064.61659	0.17530
1063.33082	0.17906
1062.04505	0.18283
1060.75928	0.18653
1059.47351	0.19007
1058.18774	0.19342
1056.90198	0.19661
1055.61621	0.19977
1054.33044	0.20298
1053.04467	0.20624
1051.75890	0.20955
1050.47313	0.21289
1049.18736	0.21628
1047.90159	0.21973
1046.61583	0.22323
1045.33006	0.22677
1044.04429	0.23036
1042.75852	0.23398
1041.47275	0.23760
1040.18698	0.24122
1038.90121	0.24484
1037.61544	0.24846
1036.32967	0.25199
1035.04391	0.25537
1033.75814	0.25858
1032.47237	0.26161
1031.18660	0.26442
1029.90083	0.26692
1028.61506	0.26900
1027.32929	0.27064
1026.04352	0.27187
1024.75775	0.27274
1023.47199	0.27325
1022.18622	0.27328
1020.90045	0.27277
1019.61468	0.27168
1018.32891	0.27001
1017.04314	0.26775
1015.75737	0.26491
1014.47160	0.26149
1013.18584	0.25748
1011.90007	0.25282
1010.61430	0.24751
1009.32853	0.24160
1008.04276	0.23521
1006.75699	0.22842
1005.47122	0.22122
1004.18545	0.21361
1002.89968	0.20566
1001.61392	0.19746
1000.32815	0.18914
999.04238	0.18082
997.75661	0.17260
996.47084	0.16453
995.18507	0.15661
993.89930	0.14885
992.61353	0.14131
991.32777	0.13411
990.04200	0.12734
988.75623	0.12098
987.47046	0.11496
986.18469	0.10923
984.89892	0.10383
983.61315	0.09883
982.32738	0.09425
981.04161	0.09007
979.75585	0.08624
978.47008	0.08277
977.18431	0.07966
975.89854	0.07695
974.61277	0.07468
973.32700	0.07290
972.04123	0.07163
970.75546	0.07090
969.46970	0.07071
968.18393	0.07108
966.89816	0.07198
965.61239	0.07328
964.32662	0.07474
963.04085	0.07607
961.75508	0.07698
960.46931	0.07723
959.18354	0.07673
957.89778	0.07550
956.61201	0.07365
955.32624	0.07136
954.04047	0.06882
952.75470	0.06622
951.46893	0.06369
950.18316	0.06133
948.89739	0.05916
947.61163	0.05714
946.32586	0.05519
945.04009	0.05322
943.75432	0.05124
942.46855	0.04931
941.18278	0.04751
939.89701	0.04588
938.61124	0.04439
937.32547	0.04304
936.03971	0.04185
934.75394	0.04081
933.46817	0.03988
932.18240	0.03901
930.89663	0.03815
929.61086	0.03733
928.32509	0.03658
927.03932	0.03594
925.75356	0.03538
924.46779	0.03488
923.18202	0.03440
921.89625	0.03391
920.61048	0.03340
919.32471	0.03288
918.03894	0.03233
916.75317	0.03179
915.46740	0.03132
914.18164	0.03098
912.89587	0.03073
911.61010	0.03050
910.32433	0.03029
909.03856	0.03013
907.75279	0.02998
906.46702	0.02979
905.18125	0.02951
903.89549	0.02921
902.60972	0.02892
901.32395	0.02865
900.03818	0.02837
898.75241	0.02812
897.46664	0.02798
896.18087	0.02798
894.89510	0.02807
893.60933	0.02815
892.32357	0.02819
891.03780	0.02826
889.75203	0.02851
888.46626	0.02908
887.18049	0.03003
885.89472	0.03144
884.60895	0.03343
883.32318	0.03602
882.03742	0.03896
880.75165	0.04176
879.46588	0.04394
878.18011	0.04544
876.89434	0.04659
875.60857	0.04784
874.32280	0.04930
873.03703	0.05058
871.75126	0.05119
870.46550	0.05086
869.17973	0.04963
867.89396	0.04769
866.60819	0.04529
865.32242	0.04267
864.03665	0.04012
862.75088	0.03782
861.46511	0.03583
860.17935	0.03411
858.89358	0.03263
857.60781	0.03141
856.32204	0.03046
855.03627	0.02977
853.75050	0.02922
852.46473	0.02875
851.17896	0.02831
849.89319	0.02795
848.60743	0.02766
847.32166	0.02743
846.03589	0.02723
844.75012	0.02702
843.46435	0.02681
842.17858	0.02660
840.89281	0.02638
839.60704	0.02612
838.32128	0.02582
837.03551	0.02552
835.74974	0.02527
834.46397	0.02510
833.17820	0.02500
831.89243	0.02494
830.60666	0.02487
829.32089	0.02479
828.03512	0.02475
826.74936	0.02479
825.46359	0.02487
824.17782	0.02491
822.89205	0.02483
821.60628	0.02469
820.32051	0.02459
819.03474	0.02457
817.74897	0.02455
816.46321	0.02445
815.17744	0.02427
813.89167	0.02407
812.60590	0.02393
811.32013	0.02389
810.03436	0.02392
808.74859	0.02395
807.46282	0.02394
806.17705	0.02391
804.89129	0.02387
803.60552	0.02384
802.31975	0.02383
801.03398	0.02381
799.74821	0.02377
798.46244	0.02367
797.17667	0.02357
795.89090	0.02354
794.60513	0.02363
793.31937	0.02377
792.03360	0.02384
790.74783	0.02381
789.46206	0.02372
788.17629	0.02368
786.89052	0.02372
785.60475	0.02381
784.31898	0.02390
783.03322	0.02394
781.74745	0.02391
780.46168	0.02384
779.17591	0.02377
777.89014	0.02374
776.60437	0.02376
775.31860	0.02383
774.03283	0.02392
772.74706	0.02395
771.46130	0.02386
770.17553	0.02368
768.88976	0.02353
767.60399	0.02350
766.31822	0.02355
765.03245	0.02356
763.74668	0.02349
762.46091	0.02343
761.17515	0.02347
759.88938	0.02362
758.60361	0.02383
757.31784	0.02403
756.03207	0.02418
754.74630	0.02426
753.46053	0.02429
752.17476	0.02428
750.88899	0.02424
749.60323	0.02416
748.31746	0.02405
747.03169	0.02390
745.74592	0.02370
744.46015	0.02353
743.17438	0.02344
741.88861	0.02344
740.60284	0.02348
739.31708	0.02355
738.03131	0.02365
736.74554	0.02378
735.45977	0.02389
734.17400	0.02393
732.88823	0.02391
731.60246	0.02381
730.31669	0.02368
729.03092	0.02360
727.74516	0.02367
726.45939	0.02387
725.17362	0.02404
723.88785	0.02403
722.60208	0.02403
721.31631	0.02408
720.03054	0.02418
718.74477	0.02430
717.45901	0.02440
716.17324	0.02449
714.88747	0.02458
713.60170	0.02463
712.31593	0.02463
711.03016	0.02456
709.74439	0.02445
708.45862	0.02433
707.17285	0.02425
705.88709	0.02423
704.60132	0.02427
703.31555	0.02434
702.02978	0.02443
700.74401	0.02453
699.45824	0.02462
698.17247	0.02470
696.88670	0.02477
695.60094	0.02483
694.31517	0.02492
693.02940	0.02504
691.74363	0.02517
690.45786	0.02525
689.17209	0.02526
687.88632	0.02519
686.60055	0.02507
685.31478	0.02495
684.02902	0.02487
682.74325	0.02486
681.45748	0.02491
680.17171	0.02497
678.88594	0.02500
677.60017	0.02501
676.31440	0.02505
675.02863	0.02511
673.74287	0.02519
672.45710	0.02530
671.17133	0.02549
669.88556	0.02576
668.59979	0.02590
667.31402	0.02607
666.02825	0.02631
664.74248	0.02616
663.45671	0.02587
662.17095	0.02564
660.88518	0.02550
659.59941	0.02548
658.31364	0.02556
657.02787	0.02570
655.74210	0.02582
654.45633	0.02589
653.17056	0.02594
651.88480	0.02604
650.59903	0.02620
649.31326	0.02642
648.02749	0.02663
646.74172	0.02681
645.45595	0.02698
644.17018	0.02719
642.88441	0.02749
641.59864	0.02787
640.31288	0.02829
639.02711	0.02872
637.74134	0.02912
636.45557	0.02952
635.16980	0.02998
633.88403	0.03052
632.59826	0.03114
631.31249	0.03170
630.02673	0.03179
628.74096	0.03167
627.45519	0.03295
626.16942	0.03275
624.88365	0.03154
623.59788	0.03073
622.31211	0.03121
621.02634	0.03319
619.74057	0.03616
618.45481	0.03956
617.16904	0.04330
615.88327	0.04752
614.59750	0.05229
613.31173	0.05752
612.02596	0.06289
610.74019	0.06780
609.45442	0.07192
608.16866	0.07567
606.88289	0.07985
605.59712	0.08468
604.31135	0.08955
603.02558	0.09334
601.73981	0.09517
600.45404	0.09481
599.16827	0.09272
597.88250	0.08974
596.59674	0.08660
595.31097	0.08364
594.02520	0.08090
592.73943	0.07844
591.45366	0.07654
590.16789	0.07552
588.88212	0.07546
587.59635	0.07616
586.31059	0.07742
585.02482	0.07913
583.73905	0.08124
582.45328	0.08369
581.16751	0.08643
579.88174	0.08943
578.59597	0.09263
577.31020	0.09588
576.02443	0.09900
574.73867	0.10198
573.45290	0.10488
572.16713	0.10774
570.88136	0.11062
569.59559	0.11363
568.30982	0.11692
567.02405	0.12049
565.73828	0.12408
564.45251	0.12723
563.16675	0.12940
561.88098	0.13010
560.59521	0.12892
559.30944	0.12567
558.02367	0.12055
556.73790	0.11414
555.45213	0.10712
554.16636	0.09999
552.88060	0.09303
551.59483	0.08640
550.30906	0.08026
549.02329	0.07471
547.73752	0.06981
546.45175	0.06552
545.16598	0.06177
543.88021	0.05852
542.59444	0.05578
541.30868	0.05348
540.02291	0.05148
538.73714	0.04964
537.45137	0.04785
536.16560	0.04611
534.87983	0.04442
533.59406	0.04281
532.30829	0.04131
531.02253	0.03999
529.73676	0.03888
528.45099	0.03795
527.16522	0.03709
525.87945	0.03626
524.59368	0.03547
523.30791	0.03473
522.02214	0.03401
520.73637	0.03326
519.45061	0.03245
518.16484	0.03163
516.87907	0.03087
515.59330	0.03021
514.30753	0.02966
513.02176	0.02919
511.73599	0.02876
510.45022	0.02841
509.16446	0.02814
507.87869	0.02786
506.59292	0.02746
505.30715	0.02693
504.02138	0.02636
502.73561	0.02588
501.44984	0.02553
500.16407	0.02531
498.87830	0.02515
497.59254	0.02500
496.30677	0.02480
495.02100	0.02452
493.73523	0.02420
492.44946	0.02388
491.16369	0.02365
489.87792	0.02354
488.59215	0.02351
487.30639	0.02352
486.02062	0.02353
484.73485	0.02354
483.44908	0.02358
482.16331	0.02366
480.87754	0.02379
479.59177	0.02394
478.30600	0.02409
477.02023	0.02422
475.73447	0.02437
474.44870	0.02458
473.16293	0.02487
471.87716	0.02516
470.59139	0.02539
469.30562	0.02549
468.01985	0.02541
466.73408	0.02517
465.44832	0.02480
464.16255	0.02442
462.87678	0.02408
461.59101	0.02381
460.30524	0.02354
459.01947	0.02323
457.73370	0.02288
456.44793	0.02251
455.16216	0.02218
453.87640	0.02189
452.59063	0.02166
451.30486	0.02147
450.01909	0.02134
448.73332	0.02124
447.44755	0.02116
446.16178	0.02104
444.87601	0.02086
443.59025	0.02066
442.30448	0.02045
441.01871	0.02026
439.73294	0.02009
438.44717	0.01998
437.16140	0.01996
435.87563	0.01999
434.58986	0.02004
433.30409	0.02005
432.01833	0.01998
430.73256	0.01988
429.44679	0.01977
428.16102	0.01968
426.87525	0.01960
425.58948	0.01951
424.30371	0.01940
423.01794	0.01927
421.73218	0.01911
420.44641	0.01894
419.16064	0.01878
417.87487	0.01869
416.58910	0.01863
415.30333	0.01857
414.01756	0.01848
412.73179	0.01839
411.44602	0.01834
410.16026	0.01837
408.87449	0.01847
407.58872	0.01862
406.30295	0.01877
405.01718	0.01891
403.73141	0.01901
402.44564	0.01909
401.15987	0.01915
399.87411	0.01921
