3997.45528	0.04450
3996.16951	0.04437
3994.88374	0.04411
3993.59798	0.04383
3992.31221	0.04378
3991.02644	0.04402
3989.74067	0.04434
3988.45490	0.04444
3987.16913	0.04424
3985.88336	0.04392
3984.59759	0.04378
3983.31183	0.04400
3982.02606	0.04444
3980.74029	0.04480
3979.45452	0.04493
3978.16875	0.04485
3976.88298	0.04462
3975.59721	0.04427
3974.31144	0.04393
3973.02567	0.04377
3971.73991	0.04393
3970.45414	0.04430
3969.16837	0.04458
3967.88260	0.04448
3966.59683	0.04391
3965.31106	0.04304
3964.02529	0.04231
3962.73952	0.04225
3961.45376	0.04305
3960.16799	0.04425
3958.88222	0.04500
3957.59645	0.04474
3956.31068	0.04366
3955.02491	0.04253
3953.73914	0.04202
3952.45337	0.04225
3951.16760	0.04287
3949.88184	0.04340
3948.59607	0.04363
3947.31030	0.04372
3946.02453	0.04394
3944.73876	0.04427
3943.45299	0.04448
3942.16722	0.04438
3940.88145	0.04414
3939.59569	0.04405
3938.30992	0.04419
3937.02415	0.04434
3935.73838	0.04424
3934.45261	0.04375
3933.16684	0.04294
3931.88107	0.04210
3930.59530	0.04150
3929.30953	0.04120
3928.02377	0.04104
3926.73800	0.04099
3925.45223	0.04120
3924.16646	0.04175
3922.88069	0.04248
3921.59492	0.04307
3920.30915	0.04331
3919.02338	0.04329
3917.73762	0.04334
3916.45185	0.04365
3915.16608	0.04415
3913.88031	0.04454
3912.59454	0.04466
3911.30877	0.04453
3910.02300	0.04426
3908.73723	0.04388
3907.45146	0.04346
3906.16570	0.04323
3904.87993	0.04338
3903.59416	0.04377
3902.30839	0.04409
3901.02262	0.04417
3899.73685	0.04402
3898.45108	0.04374
3897.16531	0.04346
3895.87955	0.04328
3894.59378	0.04312
3893.30801	0.04289
3892.02224	0.04255
3890.73647	0.04226
3889.45070	0.04238
3888.16493	0.04308
3886.87916	0.04394
3885.59339	0.04425
3884.30763	0.04384
3883.02186	0.04315
3881.73609	0.04257
3880.45032	0.04210
3879.16455	0.04173
3877.87878	0.04169
3876.59301	0.04210
3875.30724	0.04275
3874.02148	0.04336
3872.73571	0.04396
3871.44994	0.04464
3870.16417	0.04515
3868.87840	0.04524
3867.59263	0.04514
3866.30686	0.04514
3865.02109	0.04510
3863.73532	0.04478
3862.44956	0.04425
3861.16379	0.04363
3859.87802	0.04290
3858.59225	0.04210
3857.30648	0.04167
3856.02071	0.04209
3854.73494	0.04322
3853.44917	0.04419
3852.16341	0.04440
3850.87764	0.04400
3849.59187	0.04339
3848.30610	0.04273
3847.02033	0.04210
3845.73456	0.04160
3844.44879	0.04123
3843.16302	0.04095
3841.87725	0.04077
3840.59149	0.04080
3839.30572	0.04093
3838.01995	0.04080
3836.73418	0.04028
3835.44841	0.03980
3834.16264	0.03994
3832.87687	0.04070
3831.59110	0.04154
3830.30534	0.04206
3829.01957	0.04221
3827.73380	0.04216
3826.44803	0.04188
3825.16226	0.04135
3823.87649	0.04079
3822.59072	0.04040
3821.30495	0.04003
3820.01918	0.03962
3818.73342	0.03947
3817.44765	0.03985
3816.16188	0.04043
3814.87611	0.04081
3813.59034	0.04110
3812.30457	0.04149
3811.01880	0.04185
3809.73303	0.04203
3808.44726	0.04206
3807.16150	0.04184
3805.87573	0.04125
3804.58996	0.04056
3803.30419	0.04015
3802.01842	0.03997
3800.73265	0.03984
3799.44688	0.03990
3798.16111	0.04039
3796.87535	0.04097
3795.58958	0.04112
3794.30381	0.04078
3793.01804	0.04038
3791.73227	0.04023
3790.44650	0.04027
3789.16073	0.04022
3787.87496	0.04000
3786.58919	0.03982
3785.30343	0.03987
3784.01766	0.04007
3782.73189	0.04021
3781.44612	0.04022
3780.16035	0.04017
3778.87458	0.04008
3777.58881	0.03987
3776.30304	0.03949
3775.01728	0.03898
3773.73151	0.03862
3772.44574	0.03878
3771.15997	0.03943
3769.87420	0.04018
3768.58843	0.04065
3767.30266	0.04080
3766.01689	0.04059
3764.73112	0.04015
3763.44536	0.03989
3762.15959	0.04032
3760.87382	0.04137
3759.58805	0.04237
3758.30228	0.04267
3757.01651	0.04214
3755.73074	0.04119
3754.44497	0.04033
3753.15921	0.03959
3751.87344	0.03869
3750.58767	0.03769
3749.30190	0.03709
3748.01613	0.03739
3746.73036	0.03864
3745.44459	0.04006
3744.15882	0.04061
3742.87305	0.04021
3741.58729	0.03972
3740.30152	0.03954
3739.01575	0.03930
3737.72998	0.03864
3736.44421	0.03766
3735.15844	0.03682
3733.87267	0.03666
3732.58690	0.03724
3731.30114	0.03811
3730.01537	0.03876
3728.72960	0.03907
3727.44383	0.03908
3726.15806	0.03884
3724.87229	0.03843
3723.58652	0.03798
3722.30075	0.03758
3721.01498	0.03743
3719.72922	0.03767
3718.44345	0.03823
3717.15768	0.03882
3715.87191	0.03929
3714.58614	0.03972
3713.30037	0.04007
3712.01460	0.04004
3710.72883	0.03949
3709.44307	0.03870
3708.15730	0.03813
3706.87153	0.03797
3705.58576	0.03810
3704.29999	0.03840
3703.01422	0.03879
3701.72845	0.03917
3700.44268	0.03931
3699.15691	0.03903
3697.87115	0.03837
3696.58538	0.03765
3695.29961	0.03719
3694.01384	0.03710
3692.72807	0.03722
3691.44230	0.03736
3690.15653	0.03749
3688.87076	0.03759
3687.58500	0.03748
3686.29923	0.03711
3685.01346	0.03657
3683.72769	0.03585
3682.44192	0.03502
3681.15615	0.03450
3679.87038	0.03478
3678.58461	0.03603
3677.29884	0.03778
3676.01308	0.03903
3674.72731	0.03924
3673.44154	0.03904
3672.15577	0.03936
3670.87000	0.04009
3669.58423	0.04033
3668.29846	0.03979
3667.01269	0.03902
3665.72693	0.03857
3664.44116	0.03843
3663.15539	0.03824
3661.86962	0.03788
3660.58385	0.03775
3659.29808	0.03837
3658.01231	0.03964
3656.72654	0.04075
3655.44077	0.04096
3654.15501	0.04051
3652.86924	0.04022
3651.58347	0.04053
3650.29770	0.04127
3649.01193	0.04195
3647.72616	0.04222
3646.44039	0.04198
3645.15462	0.04150
3643.86886	0.04127
3642.58309	0.04170
3641.29732	0.04273
3640.01155	0.04397
3638.72578	0.04491
3637.44001	0.04528
3636.15424	0.04514
3634.86847	0.04467
3633.58270	0.04412
3632.29694	0.04391
3631.01117	0.04439
3629.72540	0.04535
3628.43963	0.04617
3627.15386	0.04658
3625.86809	0.04681
3624.58232	0.04698
3623.29655	0.04697
3622.01079	0.04688
3620.72502	0.04696
3619.43925	0.04723
3618.15348	0.04736
3616.86771	0.04718
3615.58194	0.04688
3614.29617	0.04679
3613.01040	0.04701
3611.72463	0.04745
3610.43887	0.04803
3609.15310	0.04875
3607.86733	0.04958
3606.58156	0.05042
3605.29579	0.05104
3604.01002	0.05125
3602.72425	0.05122
3601.43848	0.05138
3600.15272	0.05200
3598.86695	0.05290
3597.58118	0.05365
3596.29541	0.05396
3595.00964	0.05379
3593.72387	0.05332
3592.43810	0.05290
3591.15233	0.05296
3589.86656	0.05365
3588.58080	0.05463
3587.29503	0.05534
3586.00926	0.05554
3584.72349	0.05540
3583.43772	0.05512
3582.15195	0.05478
3580.86618	0.05451
3579.58041	0.05460
3578.29464	0.05518
3577.00888	0.05602
3575.72311	0.05675
3574.43734	0.05721
3573.15157	0.05749
3571.86580	0.05777
3570.58003	0.05813
3569.29426	0.05853
3568.00849	0.05883
3566.72273	0.05899
3565.43696	0.05909
3564.15119	0.05929
3562.86542	0.05957
3561.57965	0.05977
3560.29388	0.05984
3559.00811	0.05982
3557.72234	0.05968
3556.43657	0.05943
3555.15081	0.05926
3553.86504	0.05939
3552.57927	0.05971
3551.29350	0.05985
3550.00773	0.05971
3548.72196	0.05974
3547.43619	0.06041
3546.15042	0.06164
3544.86466	0.06291
3543.57889	0.06371
3542.29312	0.06391
3541.00735	0.06365
3539.72158	0.06322
3538.43581	0.06295
3537.15004	0.06309
3535.86427	0.06368
3534.57850	0.06457
3533.29274	0.06549
3532.00697	0.06623
3530.72120	0.06661
3529.43543	0.06655
3528.14966	0.06620
3526.86389	0.06591
3525.57812	0.06601
3524.29235	0.06647
3523.00659	0.06705
3521.72082	0.06750
3520.43505	0.06787
3519.14928	0.06837
3517.86351	0.06916
3516.57774	0.07009
3515.29197	0.07085
3514.00620	0.07121
3512.72043	0.07123
3511.43467	0.07112
3510.14890	0.07104
3508.86313	0.07106
3507.57736	0.07113
3506.29159	0.07121
3505.00582	0.07133
3503.72005	0.07158
3502.43428	0.07207
3501.14852	0.07286
3499.86275	0.07376
3498.57698	0.07437
3497.29121	0.07434
3496.00544	0.07372
3494.71967	0.07297
3493.43390	0.07258
3492.14813	0.07267
3490.86236	0.07310
3489.57660	0.07371
3488.29083	0.07442
3487.00506	0.07509
3485.71929	0.07549
3484.43352	0.07552
3483.14775	0.07532
3481.86198	0.07523
3480.57621	0.07549
3479.29045	0.07599
3478.00468	0.07647
3476.71891	0.07679
3475.43314	0.07699
3474.14737	0.07715
3472.86160	0.07723
3471.57583	0.07718
3470.29006	0.07699
3469.00429	0.07682
3467.71853	0.07678
3466.43276	0.07692
3465.14699	0.07721
3463.86122	0.07766
3462.57545	0.07824
3461.28968	0.07884
3460.00391	0.07930
3458.71814	0.07955
3457.43238	0.07970
3456.14661	0.07984
3454.86084	0.07989
3453.57507	0.07969
3452.28930	0.07932
3451.00353	0.07910
3449.71776	0.07931
3448.43199	0.07988
3447.14622	0.08041
3445.86046	0.08057
3444.57469	0.08036
3443.28892	0.08006
3442.00315	0.07988
3440.71738	0.07984
3439.43161	0.07989
3438.14584	0.08003
3436.86007	0.08028
3435.57431	0.08067
3434.28854	0.08113
3433.00277	0.08154
3431.71700	0.08186
3430.43123	0.08212
3429.14546	0.08241
3427.85969	0.08272
3426.57392	0.08301
3425.28815	0.08318
3424.00239	0.08318
3422.71662	0.08309
3421.43085	0.08304
3420.14508	0.08317
3418.85931	0.08343
3417.57354	0.08366
3416.28777	0.08369
3415.00200	0.08356
3413.71624	0.08351
3412.43047	0.08380
3411.14470	0.08439
3409.85893	0.08500
3408.57316	0.08531
3407.28739	0.08520
3406.00162	0.08485
3404.71585	0.08454
3403.43008	0.08450
3402.14432	0.08477
3400.85855	0.08514
3399.57278	0.08537
3398.28701	0.08529
3397.00124	0.08495
3395.71547	0.08465
3394.42970	0.08467
3393.14393	0.08502
3391.85817	0.08548
3390.57240	0.08585
3389.28663	0.08613
3388.00086	0.08636
3386.71509	0.08654
3385.42932	0.08667
3384.14355	0.08679
3382.85778	0.08689
3381.57201	0.08696
3380.28625	0.08699
3379.00048	0.08704
3377.71471	0.08718
3376.42894	0.08733
3375.14317	0.08739
3373.85740	0.08728
3372.57163	0.08707
3371.28586	0.08694
3370.00010	0.08700
3368.71433	0.08718
3367.42856	0.08737
3366.14279	0.08749
3364.85702	0.08750
3363.57125	0.08745
3362.28548	0.08738
3360.99971	0.08733
3359.71394	0.08728
3358.42818	0.08720
3357.14241	0.08712
3355.85664	0.08713
3354.57087	0.08728
3353.28510	0.08757
3351.99933	0.08793
3350.71356	0.08830
3349.42779	0.08850
3348.14202	0.08832
3346.85626	0.08768
3345.57049	0.08677
3344.28472	0.08595
3342.99895	0.08554
3341.71318	0.08564
3340.42741	0.08607
3339.14164	0.08641
3337.85587	0.08640
3336.57011	0.08608
3335.28434	0.08572
3333.99857	0.08559
3332.71280	0.08578
3331.42703	0.08623
3330.14126	0.08677
3328.85549	0.08709
3327.56972	0.08699
3326.28395	0.08660
3324.99819	0.08628
3323.71242	0.08616
3322.42665	0.08613
3321.14088	0.08599
3319.85511	0.08577
3318.56934	0.08559
3317.28357	0.08553
3315.99780	0.08558
3314.71204	0.08574
3313.42627	0.08604
3312.14050	0.08646
3310.85473	0.08693
3309.56896	0.08732
3308.28319	0.08750
3306.99742	0.08738
3305.71165	0.08695
3304.42588	0.08629
3303.14012	0.08553
3301.85435	0.08482
3300.56858	0.08436
3299.28281	0.08425
3297.99704	0.08450
3296.71127	0.08493
3295.42550	0.08529
3294.13973	0.08539
3292.85397	0.08522
3291.56820	0.08492
3290.28243	0.08474
3288.99666	0.08478
3287.71089	0.08498
3286.42512	0.08512
3285.13935	0.08507
3283.85358	0.08491
3282.56781	0.08477
3281.28205	0.08466
3279.99628	0.08448
3278.71051	0.08422
3277.42474	0.08394
3276.13897	0.08377
3274.85320	0.08379
3273.56743	0.08400
3272.28166	0.08433
3270.99590	0.08462
3269.71013	0.08473
3268.42436	0.08456
3267.13859	0.08420
3265.85282	0.08393
3264.56705	0.08400
3263.28128	0.08437
3261.99551	0.08475
3260.70974	0.08488
3259.42398	0.08474
3258.13821	0.08449
3256.85244	0.08419
3255.56667	0.08382
3254.28090	0.08337
3252.99513	0.08303
3251.70936	0.08301
3250.42359	0.08337
3249.13783	0.08391
3247.85206	0.08431
3246.56629	0.08436
3245.28052	0.08406
3243.99475	0.08359
3242.70898	0.08315
3241.42321	0.08285
3240.13744	0.08268
3238.85167	0.08254
3237.56591	0.08237
3236.28014	0.08216
3234.99437	0.08190
3233.70860	0.08161
3232.42283	0.08143
3231.13706	0.08151
3229.85129	0.08187
3228.56552	0.08235
3227.27976	0.08264
3225.99399	0.08257
3224.70822	0.08224
3223.42245	0.08187
3222.13668	0.08161
3220.85091	0.08141
3219.56514	0.08115
3218.27937	0.08080
3216.99360	0.08051
3215.70784	0.08045
3214.42207	0.08058
3213.13630	0.08079
3211.85053	0.08093
3210.56476	0.08102
3209.27899	0.08108
3207.99322	0.08110
3206.70745	0.08103
3205.42169	0.08089
3204.13592	0.08082
3202.85015	0.08083
3201.56438	0.08075
3200.27861	0.08038
3198.99284	0.07977
3197.70707	0.07920
3196.42130	0.07893
3195.13553	0.07894
3193.84977	0.07899
3192.56400	0.07885
3191.27823	0.07857
3189.99246	0.07841
3188.70669	0.07850
3187.42092	0.07871
3186.13515	0.07876
3184.84938	0.07858
3183.56362	0.07842
3182.27785	0.07846
3180.99208	0.07862
3179.70631	0.07862
3178.42054	0.07829
3177.13477	0.07771
3175.84900	0.07712
3174.56323	0.07675
3173.27746	0.07672
3171.99170	0.07699
3170.70593	0.07736
3169.42016	0.07754
3168.13439	0.07737
3166.84862	0.07694
3165.56285	0.07644
3164.27708	0.07597
3162.99131	0.07554
3161.70555	0.07527
3160.41978	0.07529
3159.13401	0.07554
3157.84824	0.07575
3156.56247	0.07573
3155.27670	0.07554
3153.99093	0.07538
3152.70516	0.07534
3151.41939	0.07529
3150.13363	0.07511
3148.84786	0.07479
3147.56209	0.07446
3146.27632	0.07429
3144.99055	0.07432
3143.70478	0.07445
3142.41901	0.07447
3141.13324	0.07424
3139.84748	0.07381
3138.56171	0.07340
3137.27594	0.07322
3135.99017	0.07333
3134.70440	0.07363
3133.41863	0.07394
3132.13286	0.07413
3130.84709	0.07415
3129.56132	0.07398
3128.27556	0.07362
3126.98979	0.07308
3125.70402	0.07246
3124.41825	0.07192
3123.13248	0.07162
3121.84671	0.07155
3120.56094	0.07161
3119.27517	0.07167
3117.98940	0.07166
3116.70364	0.07159
3115.41787	0.07144
3114.13210	0.07114
3112.84633	0.07082
3111.56056	0.07071
3110.27479	0.07091
3108.98902	0.07117
3107.70325	0.07116
3106.41749	0.07085
3105.13172	0.07052
3103.84595	0.07043
3102.56018	0.07061
3101.27441	0.07088
3099.98864	0.07100
3098.70287	0.07087
3097.41710	0.07055
3096.13133	0.07018
3094.84557	0.06986
3093.55980	0.06963
3092.27403	0.06948
3090.98826	0.06942
3089.70249	0.06940
3088.41672	0.06930
3087.13095	0.06905
3085.84518	0.06870
3084.55942	0.06842
3083.27365	0.06833
3081.98788	0.06842
3080.70211	0.06856
3079.41634	0.06867
3078.13057	0.06873
3076.84480	0.06881
3075.55903	0.06888
3074.27326	0.06885
3072.98750	0.06859
3071.70173	0.06816
3070.41596	0.06767
3069.13019	0.06724
3067.84442	0.06694
3066.55865	0.06681
3065.27288	0.06690
3063.98711	0.06719
3062.70135	0.06755
3061.41558	0.06776
3060.12981	0.06766
3058.84404	0.06726
3057.55827	0.06672
3056.27250	0.06620
3054.98673	0.06571
3053.70096	0.06529
3052.41519	0.06506
3051.12943	0.06518
3049.84366	0.06562
3048.55789	0.06611
3047.27212	0.06635
3045.98635	0.06623
3044.70058	0.06586
3043.41481	0.06538
3042.12904	0.06490
3040.84328	0.06451
3039.55751	0.06429
3038.27174	0.06428
3036.98597	0.06437
3035.70020	0.06442
3034.41443	0.06432
3033.12866	0.06404
3031.84289	0.06360
3030.55712	0.06307
3029.27136	0.06254
3027.98559	0.06211
3026.69982	0.06181
3025.41405	0.06162
3024.12828	0.06156
3022.84251	0.06164
3021.55674	0.06183
3020.27097	0.06203
3018.98521	0.06212
3017.69944	0.06205
3016.41367	0.06192
3015.12790	0.06189
3013.84213	0.06202
3012.55636	0.06219
3011.27059	0.06224
3009.98482	0.06207
3008.69905	0.06175
3007.41329	0.06146
3006.12752	0.06139
3004.84175	0.06158
3003.55598	0.06182
3002.27021	0.06184
3000.98444	0.06155
2999.69867	0.06113
2998.41290	0.06084
2997.12714	0.06073
2995.84137	0.06064
2994.55560	0.06039
2993.26983	0.05994
2991.98406	0.05945
2990.69829	0.05919
2989.41252	0.05931
2988.12675	0.05971
2986.84098	0.06011
2985.55522	0.06032
2984.26945	0.06042
2982.98368	0.06065
2981.69791	0.06116
2980.41214	0.06185
2979.12637	0.06241
2977.84060	0.06267
2976.55483	0.06265
2975.26907	0.06253
2973.98330	0.06251
2972.69753	0.06271
2971.41176	0.06314
2970.12599	0.06369
2968.84022	0.06423
2967.55445	0.06470
2966.26868	0.06512
2964.98291	0.06553
2963.69715	0.06598
2962.41138	0.06644
2961.12561	0.06684
2959.83984	0.06714
2958.55407	0.06744
2957.26830	0.06793
2955.98253	0.06863
2954.69676	0.06932
2953.41100	0.06975
2952.12523	0.06988
2950.83946	0.06979
2949.55369	0.06958
2948.26792	0.06937
2946.98215	0.06919
2945.69638	0.06889
2944.41061	0.06833
2943.12484	0.06760
2941.83908	0.06700
2940.55331	0.06687
2939.26754	0.06723
2937.98177	0.06779
2936.69600	0.06824
2935.41023	0.06855
2934.12446	0.06892
2932.83869	0.06953
2931.55293	0.07027
2930.26716	0.07090
2928.98139	0.07126
2927.69562	0.07134
2926.40985	0.07123
2925.12408	0.07104
2923.83831	0.07084
2922.55254	0.07062
2921.26677	0.07024
2919.98101	0.06968
2918.69524	0.06908
2917.40947	0.06865
2916.12370	0.06842
2914.83793	0.06822
2913.55216	0.06790
2912.26639	0.06749
2910.98062	0.06705
2909.69486	0.06662
2908.40909	0.06623
2907.12332	0.06594
2905.83755	0.06571
2904.55178	0.06538
2903.26601	0.06483
2901.98024	0.06417
2900.69447	0.06355
2899.40870	0.06297
2898.12294	0.06238
2896.83717	0.06179
2895.55140	0.06132
2894.26563	0.06099
2892.97986	0.06073
2891.69409	0.06048
2890.40832	0.06021
2889.12255	0.05993
2887.83678	0.05972
2886.55102	0.05961
2885.26525	0.05958
2883.97948	0.05956
2882.69371	0.05950
2881.40794	0.05945
2880.12217	0.05946
2878.83640	0.05955
2877.55063	0.05964
2876.26487	0.05964
2874.97910	0.05949
2873.69333	0.05929
2872.40756	0.05924
2871.12179	0.05948
2869.83602	0.05990
2868.55025	0.06021
2867.26448	0.06017
2865.97871	0.05979
2864.69295	0.05933
2863.40718	0.05903
2862.12141	0.05898
2860.83564	0.05903
2859.54987	0.05897
2858.26410	0.05868
2856.97833	0.05821
2855.69256	0.05768
2854.40680	0.05722
2853.12103	0.05685
2851.83526	0.05650
2850.54949	0.05613
2849.26372	0.05582
2847.97795	0.05567
2846.69218	0.05561
2845.40641	0.05538
2844.12064	0.05483
2842.83488	0.05411
2841.54911	0.05356
2840.26334	0.05330
2838.97757	0.05319
2837.69180	0.05299
2836.40603	0.05258
2835.12026	0.05199
2833.83449	0.05130
2832.54873	0.05068
2831.26296	0.05022
2829.97719	0.04989
2828.69142	0.04964
2827.40565	0.04945
2826.11988	0.04934
2824.83411	0.04928
2823.54834	0.04912
2822.26257	0.04877
2820.97681	0.04831
2819.69104	0.04788
2818.40527	0.04759
2817.11950	0.04739
2815.83373	0.04717
2814.54796	0.04695
2813.26219	0.04684
2811.97642	0.04688
2810.69066	0.04697
2809.40489	0.04696
2808.11912	0.04678
2806.83335	0.04652
2805.54758	0.04634
2804.26181	0.04632
2802.97604	0.04638
2801.69027	0.04639
2800.40450	0.04632
2799.11874	0.04623
2797.83297	0.04620
2796.54720	0.04622
2795.26143	0.04624
2793.97566	0.04618
2792.68989	0.04602
2791.40412	0.04578
2790.11835	0.04550
2788.83259	0.04520
2787.54682	0.04492
2786.26105	0.04473
2784.97528	0.04466
2783.68951	0.04463
2782.40374	0.04457
2781.11797	0.04445
2779.83220	0.04423
2778.54643	0.04398
2777.26067	0.04382
2775.97490	0.04382
2774.68913	0.04391
2773.40336	0.04398
2772.11759	0.04400
2770.83182	0.04397
2769.54605	0.04385
2768.26028	0.04356
2766.97452	0.04316
2765.68875	0.04283
2764.40298	0.04271
2763.11721	0.04279
2761.83144	0.04293
2760.54567	0.04298
2759.25990	0.04292
2757.97413	0.04282
2756.68836	0.04276
2755.40260	0.04273
2754.11683	0.04267
2752.83106	0.04249
2751.54529	0.04224
2750.25952	0.04207
2748.97375	0.04207
2747.68798	0.04218
2746.40221	0.04226
2745.11645	0.04224
2743.83068	0.04215
2742.54491	0.04204
2741.25914	0.04197
2739.97337	0.04196
2738.68760	0.04198
2737.40183	0.04198
2736.11606	0.04199
2734.83029	0.04204
2733.54453	0.04211
2732.25876	0.04211
2730.97299	0.04195
2729.68722	0.04167
2728.40145	0.04135
2727.11568	0.04109
2725.82991	0.04097
2724.54414	0.04100
2723.25838	0.04111
2721.97261	0.04112
2720.68684	0.04089
2719.40107	0.04048
2718.11530	0.04008
2716.82953	0.03988
2715.54376	0.03991
2714.25799	0.04009
2712.97222	0.04027
2711.68646	0.04038
2710.40069	0.04038
2709.11492	0.04032
2707.82915	0.04018
2706.54338	0.03997
2705.25761	0.03975
2703.97184	0.03960
2702.68607	0.03960
2701.40031	0.03975
2700.11454	0.03995
2698.82877	0.04008
2697.54300	0.04009
2696.25723	0.04003
2694.97146	0.03993
2693.68569	0.03975
2692.39992	0.03944
2691.11415	0.03904
2689.82839	0.03865
2688.54262	0.03840
2687.25685	0.03835
2685.97108	0.03849
2684.68531	0.03876
2683.39954	0.03904
2682.11377	0.03925
2680.82800	0.03934
2679.54224	0.03931
2678.25647	0.03918
2676.97070	0.03892
2675.68493	0.03859
2674.39916	0.03829
2673.11339	0.03816
2671.82762	0.03819
2670.54185	0.03823
2669.25608	0.03819
2667.97032	0.03807
2666.68455	0.03799
2665.39878	0.03807
2664.11301	0.03831
2662.82724	0.03859
2661.54147	0.03869
2660.25570	0.03849
2658.96993	0.03816
2657.68417	0.03795
2656.39840	0.03798
2655.11263	0.03809
2653.82686	0.03801
2652.54109	0.03769
2651.25532	0.03733
2649.96955	0.03710
2648.68378	0.03702
2647.39801	0.03696
2646.11225	0.03679
2644.82648	0.03654
2643.54071	0.03627
2642.25494	0.03607
2640.96917	0.03598
2639.68340	0.03595
2638.39763	0.03590
2637.11186	0.03574
2635.82609	0.03547
2634.54033	0.03517
2633.25456	0.03493
2631.96879	0.03480
2630.68302	0.03476
2629.39725	0.03474
2628.11148	0.03461
2626.82571	0.03431
2625.53994	0.03389
2624.25418	0.03351
2622.96841	0.03331
2621.68264	0.03328
2620.39687	0.03335
2619.11110	0.03347
2617.82533	0.03363
2616.53956	0.03380
2615.25379	0.03385
2613.96802	0.03369
2612.68226	0.03340
2611.39649	0.03318
2610.11072	0.03311
2608.82495	0.03305
2607.53918	0.03284
2606.25341	0.03257
2604.96764	0.03240
2603.68187	0.03238
2602.39611	0.03241
2601.11034	0.03245
2599.82457	0.03248
2598.53880	0.03245
2597.25303	0.03229
2595.96726	0.03206
2594.68149	0.03187
2593.39572	0.03174
2592.10995	0.03172
2590.82419	0.03185
2589.53842	0.03205
2588.25265	0.03211
2586.96688	0.03185
2585.68111	0.03132
2584.39534	0.03069
2583.10957	0.03008
2581.82380	0.02954
2580.53804	0.02914
2579.25227	0.02904
2577.96650	0.02927
2576.68073	0.02967
2575.39496	0.03004
2574.10919	0.03024
2572.82342	0.03025
2571.53765	0.03010
2570.25188	0.02991
2568.96612	0.02971
2567.68035	0.02949
2566.39458	0.02923
2565.10881	0.02903
2563.82304	0.02905
2562.53727	0.02933
2561.25150	0.02966
2559.96573	0.02972
2558.67997	0.02941
2557.39420	0.02894
2556.10843	0.02865
2554.82266	0.02866
2553.53689	0.02885
2552.25112	0.02900
2550.96535	0.02901
2549.67958	0.02902
2548.39381	0.02919
2547.10805	0.02951
2545.82228	0.02979
2544.53651	0.02988
2543.25074	0.02983
2541.96497	0.02976
2540.67920	0.02970
2539.39343	0.02957
2538.10766	0.02932
2536.82190	0.02897
2535.53613	0.02862
2534.25036	0.02839
2532.96459	0.02832
2531.67882	0.02829
2530.39305	0.02812
2529.10728	0.02772
2527.82151	0.02729
2526.53574	0.02713
2525.24998	0.02742
2523.96421	0.02793
2522.67844	0.02823
2521.39267	0.02810
2520.10690	0.02765
2518.82113	0.02728
2517.53536	0.02724
2516.24959	0.02749
2514.96383	0.02779
2513.67806	0.02795
2512.39229	0.02801
2511.10652	0.02805
2509.82075	0.02807
2508.53498	0.02805
2507.24921	0.02800
2505.96344	0.02794
2504.67767	0.02787
2503.39191	0.02781
2502.10614	0.02778
2500.82037	0.02769
2499.53460	0.02746
2498.24883	0.02714
2496.96306	0.02686
2495.67729	0.02671
2494.39152	0.02667
2493.10576	0.02676
2491.81999	0.02695
2490.53422	0.02720
2489.24845	0.02733
2487.96268	0.02720
2486.67691	0.02678
2485.39114	0.02633
2484.10537	0.02619
2482.81960	0.02646
2481.53384	0.02691
2480.24807	0.02715
2478.96230	0.02711
2477.67653	0.02692
2476.39076	0.02667
2475.10499	0.02627
2473.81922	0.02570
2472.53345	0.02523
2471.24769	0.02512
2469.96192	0.02534
2468.67615	0.02570
2467.39038	0.02608
2466.10461	0.02642
2464.81884	0.02662
2463.53307	0.02659
2462.24730	0.02647
2460.96153	0.02655
2459.67577	0.02689
2458.39000	0.02726
2457.10423	0.02726
2455.81846	0.02681
2454.53269	0.02625
2453.24692	0.02604
2451.96115	0.02622
2450.67538	0.02647
2449.38962	0.02659
2448.10385	0.02671
2446.81808	0.02693
2445.53231	0.02710
2444.24654	0.02703
2442.96077	0.02680
2441.67500	0.02656
2440.38923	0.02638
2439.10346	0.02622
2437.81770	0.02610
2436.53193	0.02606
2435.24616	0.02605
2433.96039	0.02603
2432.67462	0.02602
2431.38885	0.02605
2430.10308	0.02605
2428.81731	0.02594
2427.53155	0.02577
2426.24578	0.02561
2424.96001	0.02537
2423.67424	0.02501
2422.38847	0.02470
2421.10270	0.02469
2419.81693	0.02499
2418.53116	0.02526
2417.24539	0.02523
2415.95963	0.02495
2414.67386	0.02460
2413.38809	0.02431
2412.10232	0.02418
2410.81655	0.02427
2409.53078	0.02458
2408.24501	0.02502
2406.95924	0.02543
2405.67347	0.02573
2404.38771	0.02588
2403.10194	0.02584
2401.81617	0.02559
2400.53040	0.02521
2399.24463	0.02485
2397.95886	0.02468
2396.67309	0.02474
2395.38732	0.02499
2394.10156	0.02531
2392.81579	0.02563
2391.53002	0.02587
2390.24425	0.02594
2388.95848	0.02581
2387.67271	0.02553
2386.38694	0.02522
2385.10117	0.02495
2383.81540	0.02475
2382.52964	0.02461
2381.24387	0.02458
2379.95810	0.02469
2378.67233	0.02490
2377.38656	0.02513
2376.10079	0.02531
2374.81502	0.02535
2373.52925	0.02530
2372.24349	0.02519
2370.95772	0.02506
2369.67195	0.02483
2368.38618	0.02448
2367.10041	0.02412
2365.81464	0.02392
2364.52887	0.02389
2363.24310	0.02403
2361.95733	0.02428
2360.67157	0.02460
2359.38580	0.02480
2358.10003	0.02491
2356.81426	0.02506
2355.52849	0.02526
2354.24272	0.02541
2352.95695	0.02543
2351.67118	0.02543
2350.38542	0.02552
2349.09965	0.02563
2347.81388	0.02573
2346.52811	0.02601
2345.24234	0.02635
2343.95657	0.02638
2342.67080	0.02604
2341.38503	0.02581
2340.09926	0.02574
2338.81350	0.02530
2337.52773	0.02458
2336.24196	0.02449
2334.95619	0.02487
2333.67042	0.02471
2332.38465	0.02421
2331.09888	0.02437
2329.81311	0.02466
2328.52735	0.02452
2327.24158	0.02508
2325.95581	0.02606
2324.67004	0.02638
2323.38427	0.02656
2322.09850	0.02681
2320.81273	0.02656
2319.52696	0.02651
2318.24119	0.02657
2316.95543	0.02622
2315.66966	0.02593
2314.38389	0.02570
2313.09812	0.02542
2311.81235	0.02532
2310.52658	0.02512
2309.24081	0.02472
2307.95504	0.02428
2306.66928	0.02381
2305.38351	0.02360
2304.09774	0.02369
2302.81197	0.02400
2301.52620	0.02439
2300.24043	0.02458
2298.95466	0.02440
2297.66889	0.02391
2296.38312	0.02340
2295.09736	0.02322
2293.81159	0.02340
2292.52582	0.02369
2291.24005	0.02378
2289.95428	0.02366
2288.66851	0.02345
2287.38274	0.02321
2286.09697	0.02294
2284.81121	0.02268
2283.52544	0.02257
2282.23967	0.02267
2280.95390	0.02285
2279.66813	0.02286
2278.38236	0.02258
2277.09659	0.02217
2275.81082	0.02190
2274.52505	0.02189
2273.23929	0.02210
2271.95352	0.02242
2270.66775	0.02267
2269.38198	0.02262
2268.09621	0.02207
2266.81044	0.02110
2265.52467	0.01998
2264.23890	0.01901
2262.95314	0.01839
2261.66737	0.01833
2260.38160	0.01894
2259.09583	0.02002
2257.81006	0.02099
2256.52429	0.02129
2255.23852	0.02092
2253.95275	0.02035
2252.66698	0.01994
2251.38122	0.01964
2250.09545	0.01942
2248.80968	0.01941
2247.52391	0.01921
2246.23814	0.01913
2244.95237	0.01896
2243.66660	0.01872
2242.38083	0.01858
2241.09507	0.01847
2239.80930	0.01810
2238.52353	0.01740
2237.23776	0.01664
2235.95199	0.01608
2234.66622	0.01573
2233.38045	0.01550
2232.09468	0.01533
2230.80891	0.01525
2229.52315	0.01535
2228.23738	0.01575
2226.95161	0.01633
2225.66584	0.01671
2224.38007	0.01653
2223.09430	0.01586
2221.80853	0.01517
2220.52276	0.01488
2219.23700	0.01505
2217.95123	0.01535
2216.66546	0.01540
2215.37969	0.01516
2214.09392	0.01487
2212.80815	0.01463
2211.52238	0.01424
2210.23661	0.01351
2208.95084	0.01271
2207.66508	0.01245
2206.37931	0.01307
2205.09354	0.01407
2203.80777	0.01452
2202.52200	0.01387
2201.23623	0.01243
2199.95046	0.01097
2198.66469	0.01013
2197.37893	0.01010
2196.09316	0.01062
2194.80739	0.01116
2193.52162	0.01130
2192.23585	0.01111
2190.95008	0.01102
2189.66431	0.01139
2188.37854	0.01212
2187.09277	0.01286
2185.80701	0.01326
2184.52124	0.01310
2183.23547	0.01230
2181.94970	0.01106
2180.66393	0.00988
2179.37816	0.00920
2178.09239	0.00899
2176.80662	0.00897
2175.52085	0.00896
2174.23509	0.00889
2172.94932	0.00867
2171.66355	0.00821
2170.37778	0.00759
2169.09201	0.00708
2167.80624	0.00692
2166.52047	0.00733
2165.23470	0.00833
2163.94894	0.00944
2162.66317	0.00982
2161.37740	0.00886
2160.09163	0.00677
2158.80586	0.00445
2157.52009	0.00296
2156.23432	0.00287
2154.94855	0.00396
2153.66278	0.00551
2152.37702	0.00678
2151.09125	0.00744
2149.80548	0.00757
2148.51971	0.00756
2147.23394	0.00768
2145.94817	0.00777
2144.66240	0.00751
2143.37663	0.00697
2142.09087	0.00678
2140.80510	0.00736
2139.51933	0.00829
2138.23356	0.00875
2136.94779	0.00842
2135.66202	0.00780
2134.37625	0.00755
2133.09048	0.00795
2131.80471	0.00875
2130.51895	0.00955
2129.23318	0.01014
2127.94741	0.01064
2126.66164	0.01134
2125.37587	0.01232
2124.09010	0.01327
2122.80433	0.01372
2121.51856	0.01350
2120.23280	0.01295
2118.94703	0.01253
2117.66126	0.01246
2116.37549	0.01267
2115.08972	0.01299
2113.80395	0.01330
2112.51818	0.01353
2111.23241	0.01361
2109.94664	0.01354
2108.66088	0.01329
2107.37511	0.01276
2106.08934	0.01196
2104.80357	0.01113
2103.51780	0.01063
2102.23203	0.01054
2100.94626	0.01068
2099.66049	0.01147
2098.37473	0.01167
2097.08896	0.01128
2095.80319	0.01078
2094.51742	0.01054
2093.23165	0.01071
2091.94588	0.01113
2090.66011	0.01141
2089.37434	0.01134
2088.08857	0.01103
2086.80281	0.01068
2085.51704	0.01045
2084.23127	0.01041
2082.94550	0.01050
2081.65973	0.01060
2080.37396	0.01059
2079.08819	0.01047
2077.80242	0.01034
2076.51666	0.01025
2075.23089	0.01018
2073.94512	0.01013
2072.65935	0.01013
2071.37358	0.01015
2070.08781	0.01019
2068.80204	0.01028
2067.51627	0.01041
2066.23050	0.01036
2064.94474	0.00987
2063.65897	0.00896
2062.37320	0.00804
2061.08743	0.00759
2059.80166	0.00764
2058.51589	0.00774
2057.23012	0.00740
2055.94435	0.00658
2054.65859	0.00582
2053.37282	0.00573
2052.08705	0.00644
2050.80128	0.00750
2049.51551	0.00830
2048.22974	0.00840
2046.94397	0.00772
2045.65820	0.00646
2044.37243	0.00500
2043.08667	0.00381
2041.80090	0.00314
2040.51513	0.00295
2039.22936	0.00303
2037.94359	0.00313
2036.65782	0.00309
2035.37205	0.00289
2034.08628	0.00257
2032.80052	0.00224
2031.51475	0.00212
2030.22898	0.00241
2028.94321	0.00313
2027.65744	0.00411
2026.37167	0.00496
2025.08590	0.00524
2023.80013	0.00472
2022.51436	0.00364
2021.22860	0.00267
2019.94283	0.00247
2018.65706	0.00314
2017.37129	0.00415
2016.08552	0.00481
2014.79975	0.00491
2013.51398	0.00483
2012.22821	0.00520
2010.94245	0.00625
2009.65668	0.00752
2008.37091	0.00824
2007.08514	0.00803
2005.79937	0.00723
2004.51360	0.00653
2003.22783	0.00629
2001.94206	0.00625
2000.65629	0.00596
1999.37053	0.00533
1998.08476	0.00479
1996.79899	0.00486
1995.51322	0.00563
1994.22745	0.00675
1992.94168	0.00768
1991.65591	0.00816
1990.37014	0.00831
1989.08438	0.00840
1987.79861	0.00850
1986.51284	0.00851
1985.22707	0.00842
1983.94130	0.00851
1982.65553	0.00915
1981.36976	0.01038
1980.08399	0.01168
1978.79822	0.01232
1977.51246	0.01190
1976.22669	0.01064
1974.94092	0.00913
1973.65515	0.00786
1972.36938	0.00709
1971.08361	0.00697
1969.79784	0.00743
1968.51207	0.00817
1967.22631	0.00887
1965.94054	0.00942
1964.65477	0.00995
1963.36900	0.01048
1962.08323	0.01082
1960.79746	0.01078
1959.51169	0.01045
1958.22592	0.01014
1956.94015	0.01011
1955.65439	0.01045
1954.36862	0.01119
1953.08285	0.01215
1951.79708	0.01292
1950.51131	0.01313
1949.22554	0.01277
1947.93977	0.01219
1946.65400	0.01181
1945.36823	0.01182
1944.08247	0.01220
1942.79670	0.01276
1941.51093	0.01319
1940.22516	0.01307
1938.93939	0.01224
1937.65362	0.01097
1936.36785	0.00993
1935.08208	0.00965
1933.79632	0.01012
1932.51055	0.01085
1931.22478	0.01142
1929.93901	0.01170
1928.65324	0.01183
1927.36747	0.01198
1926.08170	0.01223
1924.79593	0.01255
1923.51016	0.01282
1922.22440	0.01293
1920.93863	0.01296
1919.65286	0.01311
1918.36709	0.01344
1917.08132	0.01377
1915.79555	0.01384
1914.50978	0.01362
1913.22401	0.01330
1911.93825	0.01311
1910.65248	0.01311
1909.36671	0.01325
1908.08094	0.01345
1906.79517	0.01366
1905.50940	0.01381
1904.22363	0.01382
1902.93786	0.01370
1901.65209	0.01358
1900.36633	0.01356
1899.08056	0.01361
1897.79479	0.01364
1896.50902	0.01364
1895.22325	0.01368
1893.93748	0.01374
1892.65171	0.01371
1891.36594	0.01354
1890.08018	0.01333
1888.79441	0.01324
1887.50864	0.01334
1886.22287	0.01354
1884.93710	0.01368
1883.65133	0.01369
1882.36556	0.01369
1881.07979	0.01382
1879.79402	0.01406
1878.50826	0.01422
1877.22249	0.01411
1875.93672	0.01370
1874.65095	0.01316
1873.36518	0.01275
1872.07941	0.01267
1870.79364	0.01293
1869.50787	0.01339
1868.22211	0.01381
1866.93634	0.01410
1865.65057	0.01427
1864.36480	0.01436
1863.07903	0.01436
1861.79326	0.01427
1860.50749	0.01417
1859.22172	0.01415
1857.93595	0.01421
1856.65019	0.01423
1855.36442	0.01415
1854.07865	0.01398
1852.79288	0.01387
1851.50711	0.01388
1850.22134	0.01399
1848.93557	0.01413
1847.64980	0.01425
1846.36404	0.01435
1845.07827	0.01445
1843.79250	0.01450
1842.50673	0.01447
1841.22096	0.01442
1839.93519	0.01436
1838.64942	0.01425
1837.36365	0.01402
1836.07788	0.01374
1834.79212	0.01354
1833.50635	0.01352
1832.22058	0.01369
1830.93481	0.01389
1829.64904	0.01398
1828.36327	0.01399
1827.07750	0.01406
1825.79173	0.01423
1824.50597	0.01444
1823.22020	0.01460
1821.93443	0.01474
1820.64866	0.01483
1819.36289	0.01477
1818.07712	0.01457
1816.79135	0.01436
1815.50558	0.01433
1814.21981	0.01450
1812.93405	0.01475
1811.64828	0.01490
1810.36251	0.01491
1809.07674	0.01488
1807.79097	0.01488
1806.50520	0.01489
1805.21943	0.01489
1803.93366	0.01486
1802.64790	0.01485
1801.36213	0.01487
1800.07636	0.01493
1798.79059	0.01502
1797.50482	0.01512
1796.21905	0.01519
1794.93328	0.01525
1793.64751	0.01535
1792.36174	0.01546
1791.07598	0.01552
1789.79021	0.01554
1788.50444	0.01557
1787.21867	0.01564
1785.93290	0.01571
1784.64713	0.01577
1783.36136	0.01583
1782.07559	0.01595
1780.78983	0.01609
1779.50406	0.01616
1778.21829	0.01613
1776.93252	0.01601
1775.64675	0.01592
1774.36098	0.01592
1773.07521	0.01602
1771.78944	0.01616
1770.50367	0.01632
1769.21791	0.01652
1767.93214	0.01671
1766.64637	0.01683
1765.36060	0.01698
1764.07483	0.01722
1762.78906	0.01745
1761.50329	0.01750
1760.21752	0.01739
1758.93176	0.01731
1757.64599	0.01739
1756.36022	0.01752
1755.07445	0.01760
1753.78868	0.01767
1752.50291	0.01779
1751.21714	0.01791
1749.93137	0.01798
1748.64560	0.01804
1747.35984	0.01812
1746.07407	0.01821
1744.78830	0.01829
1743.50253	0.01837
1742.21676	0.01852
1740.93099	0.01874
1739.64522	0.01892
1738.35945	0.01899
1737.07369	0.01905
1735.78792	0.01924
1734.50215	0.01944
1733.21638	0.01951
1731.93061	0.01952
1730.64484	0.01965
1729.35907	0.01989
1728.07330	0.02006
1726.78753	0.02014
1725.50177	0.02026
1724.21600	0.02050
1722.93023	0.02081
1721.64446	0.02113
1720.35869	0.02149
1719.07292	0.02194
1717.78715	0.02237
1716.50138	0.02270
1715.21561	0.02297
1713.92985	0.02325
1712.64408	0.02357
1711.35831	0.02390
1710.07254	0.02423
1708.78677	0.02461
1707.50100	0.02508
1706.21523	0.02562
1704.92946	0.02614
1703.64370	0.02666
1702.35793	0.02725
1701.07216	0.02778
1699.78639	0.02805
1698.50062	0.02822
1697.21485	0.02864
1695.92908	0.02923
1694.64331	0.02967
1693.35754	0.02994
1692.07178	0.03028
1690.78601	0.03071
1689.50024	0.03111
1688.21447	0.03149
1686.92870	0.03200
1685.64293	0.03264
1684.35716	0.03316
1683.07139	0.03345
1681.78563	0.03371
1680.49986	0.03412
1679.21409	0.03466
1677.92832	0.03527
1676.64255	0.03592
1675.35678	0.03648
1674.07101	0.03685
1672.78524	0.03714
1671.49947	0.03751
1670.21371	0.03797
1668.92794	0.03839
1667.64217	0.03876
1666.35640	0.03917
1665.07063	0.03967
1663.78486	0.04020
1662.49909	0.04063
1661.21332	0.04095
1659.92756	0.04121
1658.64179	0.04141
1657.35602	0.04158
1656.07025	0.04191
1654.78448	0.04252
1653.49871	0.04314
1652.21294	0.04337
1650.92717	0.04328
1649.64140	0.04332
1648.35564	0.04371
1647.06987	0.04418
1645.78410	0.04445
1644.49833	0.04452
1643.21256	0.04458
1641.92679	0.04470
1640.64102	0.04482
1639.35525	0.04492
1638.06949	0.04512
1636.78372	0.04542
1635.49795	0.04565
1634.21218	0.04569
1632.92641	0.04565
1631.64064	0.04572
1630.35487	0.04594
1629.06910	0.04622
1627.78333	0.04645
1626.49757	0.04665
1625.21180	0.04689
1623.92603	0.04713
1622.64026	0.04728
1621.35449	0.04733
1620.06872	0.04743
1618.78295	0.04771
1617.49718	0.04810
1616.21142	0.04838
1614.92565	0.04853
1613.63988	0.04871
1612.35411	0.04903
1611.06834	0.04943
1609.78257	0.04981
1608.49680	0.05015
1607.21103	0.05044
1605.92526	0.05070
1604.63950	0.05100
1603.35373	0.05135
1602.06796	0.05174
1600.78219	0.05211
1599.49642	0.05245
1598.21065	0.05278
1596.92488	0.05309
1595.63911	0.05337
1594.35335	0.05358
1593.06758	0.05376
1591.78181	0.05396
1590.49604	0.05420
1589.21027	0.05446
1587.92450	0.05471
1586.63873	0.05492
1585.35296	0.05511
1584.06719	0.05529
1582.78143	0.05549
1581.49566	0.05568
1580.20989	0.05589
1578.92412	0.05620
1577.63835	0.05665
1576.35258	0.05706
1575.06681	0.05726
1573.78104	0.05731
1572.49528	0.05745
1571.20951	0.05773
1569.92374	0.05803
1568.63797	0.05824
1567.35220	0.05840
1566.06643	0.05853
1564.78066	0.05862
1563.49489	0.05867
1562.20912	0.05886
1560.92336	0.05925
1559.63759	0.05964
1558.35182	0.05973
1557.06605	0.05959
1555.78028	0.05951
1554.49451	0.05957
1553.20874	0.05964
1551.92297	0.05968
1550.63721	0.05974
1549.35144	0.05982
1548.06567	0.05985
1546.77990	0.05979
1545.49413	0.05961
1544.20836	0.05932
1542.92259	0.05902
1541.63682	0.05883
1540.35105	0.05868
1539.06529	0.05842
1537.77952	0.05806
1536.49375	0.05782
1535.20798	0.05784
1533.92221	0.05804
1532.63644	0.05821
1531.35067	0.05835
1530.06490	0.05855
1528.77914	0.05886
1527.49337	0.05925
1526.20760	0.05967
1524.92183	0.06016
1523.63606	0.06083
1522.35029	0.06173
1521.06452	0.06270
1519.77875	0.06365
1518.49298	0.06465
1517.20722	0.06578
1515.92145	0.06699
1514.63568	0.06822
1513.34991	0.06949
1512.06414	0.07077
1510.77837	0.07210
1509.49260	0.07361
1508.20683	0.07535
1506.92107	0.07713
1505.63530	0.07868
1504.34953	0.07996
1503.06376	0.08117
1501.77799	0.08242
1500.49222	0.08368
1499.20645	0.08489
1497.92068	0.08604
1496.63491	0.08707
1495.34915	0.08794
1494.06338	0.08871
1492.77761	0.08955
1491.49184	0.09048
1490.20607	0.09147
1488.92030	0.09251
1487.63453	0.09364
1486.34876	0.09486
1485.06299	0.09613
1483.77723	0.09743
1482.49146	0.09878
1481.20569	0.10018
1479.91992	0.10162
1478.63415	0.10305
1477.34838	0.10441
1476.06261	0.10568
1474.77684	0.10688
1473.49108	0.10802
1472.20531	0.10900
1470.91954	0.10975
1469.63377	0.11032
1468.34800	0.11080
1467.06223	0.11124
1465.77646	0.11166
1464.49069	0.11206
1463.20492	0.11248
1461.91916	0.11298
1460.63339	0.11361
1459.34762	0.11439
1458.06185	0.11523
1456.77608	0.11594
1455.49031	0.11639
1454.20454	0.11669
1452.91877	0.11697
1451.63301	0.11724
1450.34724	0.11748
1449.06147	0.11767
1447.77570	0.11778
1446.48993	0.11776
1445.20416	0.11761
1443.91839	0.11737
1442.63262	0.11704
1441.34685	0.11664
1440.06109	0.11626
1438.77532	0.11607
1437.48955	0.11611
1436.20378	0.11631
1434.91801	0.11665
1433.63224	0.11727
1432.34647	0.11828
1431.06070	0.11958
1429.77494	0.12106
1428.48917	0.12263
1427.20340	0.12433
1425.91763	0.12614
1424.63186	0.12799
1423.34609	0.12978
1422.06032	0.13148
1420.77455	0.13312
1419.48878	0.13460
1418.20302	0.13578
1416.91725	0.13667
1415.63148	0.13733
1414.34571	0.13779
1413.05994	0.13801
1411.77417	0.13795
1410.48840	0.13756
1409.20263	0.13682
1407.91687	0.13572
1406.63110	0.13434
1405.34533	0.13269
1404.05956	0.13080
1402.77379	0.12869
1401.48802	0.12642
1400.20225	0.12400
1398.91648	0.12141
1397.63071	0.11871
1396.34495	0.11596
1395.05918	0.11320
1393.77341	0.11037
1392.48764	0.10751
1391.20187	0.10471
1389.91610	0.10205
1388.63033	0.09952
1387.34456	0.09704
1386.05880	0.09454
1384.77303	0.09201
1383.48726	0.08948
1382.20149	0.08695
1380.91572	0.08446
1379.62995	0.08200
1378.34418	0.07954
1377.05841	0.07705
1375.77264	0.07454
1374.48688	0.07206
1373.20111	0.06962
1371.91534	0.06724
1370.62957	0.06496
1369.34380	0.06280
1368.05803	0.06079
1366.77226	0.05894
1365.48649	0.05720
1364.20073	0.05554
1362.91496	0.05394
1361.62919	0.05239
1360.34342	0.05092
1359.05765	0.04955
1357.77188	0.04827
1356.48611	0.04710
1355.20034	0.04605
1353.91457	0.04507
1352.62881	0.04414
1351.34304	0.04321
1350.05727	0.04232
1348.77150	0.04146
1347.48573	0.04066
1346.19996	0.03992
1344.91419	0.03923
1343.62842	0.03858
1342.34266	0.03798
1341.05689	0.03740
1339.77112	0.03685
1338.48535	0.03633
1337.19958	0.03586
1335.91381	0.03542
1334.62804	0.03501
1333.34227	0.03460
1332.05650	0.03419
1330.77074	0.03376
1329.48497	0.03331
1328.19920	0.03287
1326.91343	0.03247
1325.62766	0.03212
1324.34189	0.03183
1323.05612	0.03156
1321.77035	0.03132
1320.48459	0.03107
1319.19882	0.03082
1317.91305	0.03056
1316.62728	0.03032
1315.34151	0.03010
1314.05574	0.02988
1312.76997	0.02967
1311.48420	0.02945
1310.19843	0.02924
1308.91267	0.02902
1307.62690	0.02881
1306.34113	0.02861
1305.05536	0.02846
1303.76959	0.02834
1302.48382	0.02820
1301.19805	0.02800
1299.91228	0.02775
1298.62652	0.02748
1297.34075	0.02726
1296.05498	0.02709
1294.76921	0.02694
1293.48344	0.02679
1292.19767	0.02664
1290.91190	0.02649
1289.62613	0.02635
1288.34036	0.02620
1287.05460	0.02606
1285.76883	0.02594
1284.48306	0.02585
1283.19729	0.02578
1281.91152	0.02571
1280.62575	0.02561
1279.33998	0.02549
1278.05421	0.02533
1276.76845	0.02516
1275.48268	0.02497
1274.19691	0.02481
1272.91114	0.02468
1271.62537	0.02458
1270.33960	0.02451
1269.05383	0.02446
1267.76806	0.02443
1266.48229	0.02440
1265.19653	0.02434
1263.91076	0.02424
1262.62499	0.02413
1261.33922	0.02404
1260.05345	0.02395
1258.76768	0.02384
1257.48191	0.02370
1256.19614	0.02355
1254.91037	0.02341
1253.62461	0.02331
1252.33884	0.02326
1251.05307	0.02322
1249.76730	0.02316
1248.48153	0.02309
1247.19576	0.02301
1245.90999	0.02292
1244.62422	0.02280
1243.33846	0.02264
1242.05269	0.02248
1240.76692	0.02237
1239.48115	0.02233
1238.19538	0.02235
1236.90961	0.02237
1235.62384	0.02235
1234.33807	0.02227
1233.05230	0.02217
1231.76654	0.02207
1230.48077	0.02198
1229.19500	0.02191
1227.90923	0.02184
1226.62346	0.02176
1225.33769	0.02166
1224.05192	0.02154
1222.76615	0.02142
1221.48039	0.02133
1220.19462	0.02127
1218.90885	0.02120
1217.62308	0.02112
1216.33731	0.02105
1215.05154	0.02101
1213.76577	0.02100
1212.48000	0.02098
1211.19423	0.02096
1209.90847	0.02096
1208.62270	0.02100
1207.33693	0.02108
1206.05116	0.02114
1204.76539	0.02114
1203.47962	0.02108
1202.19385	0.02101
1200.90808	0.02092
1199.62232	0.02082
1198.33655	0.02088
1197.05078	0.02091
1195.76501	0.02088
1194.47924	0.02081
1193.19347	0.02076
1191.90770	0.02075
1190.62193	0.02078
1189.33616	0.02080
1188.05040	0.02082
1186.76463	0.02084
1185.47886	0.02086
1184.19309	0.02092
1182.90732	0.02104
1181.62155	0.02120
1180.33578	0.02135
1179.05001	0.02144
1177.76425	0.02150
1176.47848	0.02153
1175.19271	0.02155
1173.90694	0.02157
1172.62117	0.02165
1171.33540	0.02179
1170.04963	0.02197
1168.76386	0.02218
1167.47809	0.02240
1166.19233	0.02264
1164.90656	0.02291
1163.62079	0.02320
1162.33502	0.02350
1161.04925	0.02380
1159.76348	0.02414
1158.47771	0.02453
1157.19194	0.02496
1155.90618	0.02538
1154.62041	0.02577
1153.33464	0.02619
1152.04887	0.02673
1150.76310	0.02742
1149.47733	0.02820
1148.19156	0.02900
1146.90579	0.02979
1145.62002	0.03061
1144.33426	0.03154
1143.04849	0.03260
1141.76272	0.03375
1140.47695	0.03498
1139.19118	0.03630
1137.90541	0.03776
1136.61964	0.03941
1135.33387	0.04129
1134.04811	0.04341
1132.76234	0.04576
1131.47657	0.04834
1130.19080	0.05119
1128.90503	0.05431
1127.61926	0.05771
1126.33349	0.06136
1125.04772	0.06523
1123.76195	0.06928
1122.47619	0.07349
1121.19042	0.07781
1119.90465	0.08221
1118.61888	0.08666
1117.33311	0.09113
1116.04734	0.09554
1114.76157	0.09985
1113.47580	0.10409
1112.19004	0.10833
1110.90427	0.11259
1109.61850	0.11681
1108.33273	0.12091
1107.04696	0.12486
1105.76119	0.12868
1104.47542	0.13242
1103.18965	0.13609
1101.90388	0.13966
1100.61812	0.14307
1099.33235	0.14631
1098.04658	0.14942
1096.76081	0.15248
1095.47504	0.15555
1094.18927	0.15859
1092.90350	0.16151
1091.61773	0.16426
1090.33197	0.16686
1089.04620	0.16935
1087.76043	0.17174
1086.47466	0.17409
1085.18889	0.17647
1083.90312	0.17896
1082.61735	0.18164
1081.33158	0.18451
1080.04581	0.18755
1078.76005	0.19076
1077.47428	0.19417
1076.18851	0.19781
1074.90274	0.20166
1073.61697	0.20564
1072.33120	0.20973
1071.04543	0.21399
1069.75966	0.21846
1068.47390	0.22311
1067.18813	0.22788
1065.90236	0.23275
1064.61659	0.23775
1063.33082	0.24289
1062.04505	0.24811
1060.75928	0.25334
1059.47351	0.25847
1058.18774	0.26349
1056.90198	0.26847
1055.61621	0.27350
1054.33044	0.27860
1053.04467	0.28372
1051.75890	0.28885
1050.47313	0.29406
1049.18736	0.29943
1047.90159	0.30503
1046.61583	0.31085
1045.33006	0.31688
1044.04429	0.32313
1042.75852	0.32958
1041.47275	0.33618
1040.18698	0.34291
1038.90121	0.34976
1037.61544	0.35673
1036.32967	0.36372
1035.04391	0.37057
1033.75814	0.37710
1032.47237	0.38330
1031.18660	0.38919
1029.90083	0.39477
1028.61506	0.39993
1027.32929	0.40451
1026.04352	0.40839
1024.75775	0.41149
1023.47199	0.41384
1022.18622	0.41544
1020.90045	0.41624
1019.61468	0.41614
1018.32891	0.41511
1017.04314	0.41318
1015.75737	0.41035
1014.47160	0.40651
1013.18584	0.40157
1011.90007	0.39555
1010.61430	0.38849
1009.32853	0.38043
1008.04276	0.37138
1006.75699	0.36150
1005.47122	0.35093
1004.18545	0.33975
1002.89968	0.32796
1001.61392	0.31556
1000.32815	0.30259
999.04238	0.28924
997.75661	0.27578
996.47084	0.26247
995.18507	0.24943
993.89930	0.23670
992.61353	0.22430
991.32777	0.21231
990.04200	0.20080
988.75623	0.18984
987.47046	0.17949
986.18469	0.16986
984.89892	0.16099
983.61315	0.15288
982.32738	0.14544
981.04161	0.13858
979.75585	0.13228
978.47008	0.12660
977.18431	0.12161
975.89854	0.11734
974.61277	0.11380
973.32700	0.11104
972.04123	0.10912
970.75546	0.10809
969.46970	0.10792
968.18393	0.10852
966.89816	0.10973
965.61239	0.11136
964.32662	0.11320
963.04085	0.11492
961.75508	0.11609
960.46931	0.11630
959.18354	0.11532
957.89778	0.11319
956.61201	0.11015
955.32624	0.10653
954.04047	0.10265
952.75470	0.09875
951.46893	0.09502
950.18316	0.09150
948.89739	0.08816
947.61163	0.08496
946.32586	0.08187
945.04009	0.07890
943.75432	0.07609
942.46855	0.07346
941.18278	0.07101
939.89701	0.06873
938.61124	0.06660
937.32547	0.06463
936.03971	0.06289
934.75394	0.06135
933.46817	0.06000
932.18240	0.05878
930.89663	0.05760
929.61086	0.05647
928.32509	0.05542
927.03932	0.05454
925.75356	0.05378
924.46779	0.05308
923.18202	0.05239
921.89625	0.05174
920.61048	0.05115
919.32471	0.05058
918.03894	0.04999
916.75317	0.04936
915.46740	0.04876
914.18164	0.04825
912.89587	0.04785
911.61010	0.04750
910.32433	0.04711
909.03856	0.04670
907.75279	0.04632
906.46702	0.04600
905.18125	0.04571
903.89549	0.04541
902.60972	0.04510
901.32395	0.04482
900.03818	0.04461
898.75241	0.04445
897.46664	0.04434
896.18087	0.04426
894.89510	0.04423
893.60933	0.04435
892.32357	0.04466
891.03780	0.04517
889.75203	0.04584
888.46626	0.04673
887.18049	0.04800
885.89472	0.04986
884.60895	0.05256
883.32318	0.05620
882.03742	0.06048
880.75165	0.06466
879.46588	0.06794
878.18011	0.07010
876.89434	0.07163
875.60857	0.07315
874.32280	0.07483
873.03703	0.07617
871.75126	0.07655
870.46550	0.07567
869.17973	0.07371
867.89396	0.07105
866.60819	0.06806
865.32242	0.06492
864.03665	0.06176
862.75088	0.05873
861.46511	0.05601
860.17935	0.05373
858.89358	0.05188
857.60781	0.05037
856.32204	0.04911
855.03627	0.04805
853.75050	0.04714
852.46473	0.04636
851.17896	0.04570
849.89319	0.04517
848.60743	0.04477
847.32166	0.04441
846.03589	0.04403
844.75012	0.04364
843.46435	0.04329
842.17858	0.04298
840.89281	0.04269
839.60704	0.04239
838.32128	0.04210
837.03551	0.04183
835.74974	0.04158
834.46397	0.04136
833.17820	0.04121
831.89243	0.04113
830.60666	0.04107
829.32089	0.04098
828.03512	0.04085
826.74936	0.04072
825.46359	0.04065
824.17782	0.04064
822.89205	0.04067
821.60628	0.04070
820.32051	0.04067
819.03474	0.04059
817.74897	0.04049
816.46321	0.04044
815.17744	0.04046
813.89167	0.04051
812.60590	0.04053
811.32013	0.04048
810.03436	0.04037
808.74859	0.04026
807.46282	0.04018
806.17705	0.04013
804.89129	0.04013
803.60552	0.04016
802.31975	0.04020
801.03398	0.04022
799.74821	0.04023
798.46244	0.04024
797.17667	0.04028
795.89090	0.04034
794.60513	0.04040
793.31937	0.04045
792.03360	0.04043
790.74783	0.04034
789.46206	0.04026
788.17629	0.04020
786.89052	0.04017
785.60475	0.04010
784.31898	0.03994
783.03322	0.03970
781.74745	0.03949
780.46168	0.03943
779.17591	0.03957
777.89014	0.03984
776.60437	0.04012
775.31860	0.04030
774.03283	0.04035
772.74706	0.04025
771.46130	0.04008
770.17553	0.03992
768.88976	0.03986
767.60399	0.03995
766.31822	0.04017
765.03245	0.04046
763.74668	0.04069
762.46091	0.04081
761.17515	0.04086
759.88938	0.04093
758.60361	0.04099
757.31784	0.04099
756.03207	0.04093
754.74630	0.04091
753.46053	0.04098
752.17476	0.04110
750.88899	0.04119
749.60323	0.04123
748.31746	0.04121
747.03169	0.04111
745.74592	0.04092
744.46015	0.04067
743.17438	0.04041
741.88861	0.04019
740.60284	0.04005
739.31708	0.03999
738.03131	0.03999
736.74554	0.04011
735.45977	0.04032
734.17400	0.04054
732.88823	0.04062
731.60246	0.04053
730.31669	0.04038
729.03092	0.04034
727.74516	0.04044
726.45939	0.04062
725.17362	0.04077
723.88785	0.04078
722.60208	0.04096
721.31631	0.04119
720.03054	0.04134
718.74477	0.04140
717.45901	0.04142
716.17324	0.04141
714.88747	0.04135
713.60170	0.04119
712.31593	0.04101
711.03016	0.04086
709.74439	0.04081
708.45862	0.04082
707.17285	0.04083
705.88709	0.04077
704.60132	0.04064
703.31555	0.04050
702.02978	0.04045
700.74401	0.04047
699.45824	0.04053
698.17247	0.04057
696.88670	0.04058
695.60094	0.04060
694.31517	0.04066
693.02940	0.04074
691.74363	0.04083
690.45786	0.04091
689.17209	0.04098
687.88632	0.04100
686.60055	0.04096
685.31478	0.04082
684.02902	0.04060
682.74325	0.04035
681.45748	0.04013
680.17171	0.03998
678.88594	0.03990
677.60017	0.03986
676.31440	0.03985
675.02863	0.03988
673.74287	0.03997
672.45710	0.04014
671.17133	0.04037
669.88556	0.04062
668.59979	0.04077
667.31402	0.04083
666.02825	0.04084
664.74248	0.04063
663.45671	0.04033
662.17095	0.04002
660.88518	0.03978
659.59941	0.03964
658.31364	0.03958
657.02787	0.03955
655.74210	0.03955
654.45633	0.03958
653.17056	0.03963
651.88480	0.03965
650.59903	0.03963
649.31326	0.03959
648.02749	0.03955
646.74172	0.03956
645.45595	0.03965
644.17018	0.03979
642.88441	0.03992
641.59864	0.04006
640.31288	0.04024
639.02711	0.04051
637.74134	0.04087
636.45557	0.04131
635.16980	0.04182
633.88403	0.04241
632.59826	0.04303
631.31249	0.04377
630.02673	0.04503
628.74096	0.04663
627.45519	0.04690
626.16942	0.04887
624.88365	0.05219
623.59788	0.05581
622.31211	0.05929
621.02634	0.06259
619.74057	0.06614
618.45481	0.07038
617.16904	0.07514
615.88327	0.07969
614.59750	0.08354
613.31173	0.08708
612.02596	0.09136
610.74019	0.09730
609.45442	0.10497
608.16866	0.11335
606.88289	0.12098
605.59712	0.12674
604.31135	0.13039
603.02558	0.13233
601.73981	0.13292
600.45404	0.13215
599.16827	0.12987
597.88250	0.12627
596.59674	0.12188
595.31097	0.11739
594.02520	0.11340
592.73943	0.11027
591.45366	0.10814
590.16789	0.10699
588.88212	0.10670
587.59635	0.10717
586.31059	0.10834
585.02482	0.11020
583.73905	0.11275
582.45328	0.11589
581.16751	0.11947
579.88174	0.12330
578.59597	0.12723
577.31020	0.13112
576.02443	0.13491
574.73867	0.13861
573.45290	0.14230
572.16713	0.14610
570.88136	0.15021
569.59559	0.15492
568.30982	0.16053
567.02405	0.16698
565.73828	0.17367
564.45251	0.17963
563.16675	0.18387
561.88098	0.18573
560.59521	0.18489
559.30944	0.18128
558.02367	0.17506
556.73790	0.16669
555.45213	0.15697
554.16636	0.14680
552.88060	0.13685
551.59483	0.12746
550.30906	0.11882
549.02329	0.11110
547.73752	0.10437
546.45175	0.09855
545.16598	0.09340
543.88021	0.08872
542.59444	0.08444
541.30868	0.08059
540.02291	0.07716
538.73714	0.07408
537.45137	0.07125
536.16560	0.06863
534.87983	0.06627
533.59406	0.06418
532.30829	0.06238
531.02253	0.06078
529.73676	0.05930
528.45099	0.05786
527.16522	0.05643
525.87945	0.05506
524.59368	0.05380
523.30791	0.05261
522.02214	0.05139
520.73637	0.05010
519.45061	0.04883
518.16484	0.04773
516.87907	0.04686
515.59330	0.04611
514.30753	0.04534
513.02176	0.04452
511.73599	0.04374
510.45022	0.04306
509.16446	0.04246
507.87869	0.04182
506.59292	0.04106
505.30715	0.04027
504.02138	0.03963
502.73561	0.03921
501.44984	0.03892
500.16407	0.03861
498.87830	0.03821
497.59254	0.03777
496.30677	0.03735
495.02100	0.03699
493.73523	0.03670
492.44946	0.03651
491.16369	0.03639
489.87792	0.03632
488.59215	0.03623
487.30639	0.03612
486.02062	0.03603
484.73485	0.03596
483.44908	0.03594
482.16331	0.03598
480.87754	0.03613
479.59177	0.03638
478.30600	0.03669
477.02023	0.03699
475.73447	0.03726
474.44870	0.03748
473.16293	0.03767
471.87716	0.03781
470.59139	0.03792
469.30562	0.03797
468.01985	0.03794
466.73408	0.03777
465.44832	0.03748
464.16255	0.03709
462.87678	0.03668
461.59101	0.03629
460.30524	0.03596
459.01947	0.03565
457.73370	0.03531
456.44793	0.03491
455.16216	0.03448
453.87640	0.03409
452.59063	0.03375
451.30486	0.03346
450.01909	0.03322
448.73332	0.03304
447.44755	0.03292
446.16178	0.03283
444.87601	0.03270
443.59025	0.03253
442.30448	0.03234
441.01871	0.03221
439.73294	0.03216
438.44717	0.03218
437.16140	0.03224
435.87563	0.03228
434.58986	0.03227
433.30409	0.03220
432.01833	0.03210
430.73256	0.03203
429.44679	0.03206
428.16102	0.03215
426.87525	0.03223
425.58948	0.03222
424.30371	0.03210
423.01794	0.03190
421.73218	0.03168
420.44641	0.03150
419.16064	0.03136
417.87487	0.03126
416.58910	0.03120
415.30333	0.03116
414.01756	0.03113
412.73179	0.03110
411.44602	0.03112
410.16026	0.03120
408.87449	0.03134
407.58872	0.03148
406.30295	0.03160
405.01718	0.03166
403.73141	0.03170
402.44564	0.03175
401.15987	0.03187
399.87411	0.03205
