3997.45528	0.06056
3996.16951	0.06069
3994.88374	0.06082
3993.59798	0.06065
3992.31221	0.06018
3991.02644	0.05979
3989.74067	0.05984
3988.45490	0.06012
3987.16913	0.06007
3985.88336	0.05937
3984.59759	0.05841
3983.31183	0.05789
3982.02606	0.05823
3980.74029	0.05931
3979.45452	0.06076
3978.16875	0.06216
3976.88298	0.06315
3975.59721	0.06340
3974.31144	0.06290
3973.02567	0.06194
3971.73991	0.06099
3970.45414	0.06042
3969.16837	0.06027
3967.88260	0.06035
3966.59683	0.06044
3965.31106	0.06044
3964.02529	0.06032
3962.73952	0.06007
3961.45376	0.05962
3960.16799	0.05911
3958.88222	0.05886
3957.59645	0.05904
3956.31068	0.05943
3955.02491	0.05955
3953.73914	0.05919
3952.45337	0.05855
3951.16760	0.05800
3949.88184	0.05774
3948.59607	0.05779
3947.31030	0.05817
3946.02453	0.05885
3944.73876	0.05967
3943.45299	0.06038
3942.16722	0.06069
3940.88145	0.06043
3939.59569	0.05963
3938.30992	0.05864
3937.02415	0.05791
3935.73838	0.05754
3934.45261	0.05733
3933.16684	0.05709
3931.88107	0.05685
3930.59530	0.05667
3929.30953	0.05653
3928.02377	0.05632
3926.73800	0.05597
3925.45223	0.05559
3924.16646	0.05535
3922.88069	0.05535
3921.59492	0.05559
3920.30915	0.05595
3919.02338	0.05620
3917.73762	0.05611
3916.45185	0.05575
3915.16608	0.05549
3913.88031	0.05567
3912.59454	0.05630
3911.30877	0.05703
3910.02300	0.05755
3908.73723	0.05787
3907.45146	0.05820
3906.16570	0.05854
3904.87993	0.05872
3903.59416	0.05854
3902.30839	0.05796
3901.02262	0.05709
3899.73685	0.05620
3898.45108	0.05567
3897.16531	0.05562
3895.87955	0.05588
3894.59378	0.05605
3893.30801	0.05584
3892.02224	0.05543
3890.73647	0.05532
3889.45070	0.05556
3888.16493	0.05559
3886.87916	0.05509
3885.59339	0.05444
3884.30763	0.05407
3883.02186	0.05391
3881.73609	0.05371
3880.45032	0.05346
3879.16455	0.05335
3877.87878	0.05337
3876.59301	0.05351
3875.30724	0.05380
3874.02148	0.05416
3872.73571	0.05419
3871.44994	0.05375
3870.16417	0.05346
3868.87840	0.05391
3867.59263	0.05471
3866.30686	0.05504
3865.02109	0.05467
3863.73532	0.05399
3862.44956	0.05341
3861.16379	0.05321
3859.87802	0.05361
3858.59225	0.05452
3857.30648	0.05532
3856.02071	0.05522
3854.73494	0.05413
3853.44917	0.05301
3852.16341	0.05286
3850.87764	0.05372
3849.59187	0.05494
3848.30610	0.05575
3847.02033	0.05566
3845.73456	0.05470
3844.44879	0.05341
3843.16302	0.05248
3841.87725	0.05213
3840.59149	0.05212
3839.30572	0.05229
3838.01995	0.05287
3836.73418	0.05388
3835.44841	0.05473
3834.16264	0.05479
3832.87687	0.05426
3831.59110	0.05396
3830.30534	0.05427
3829.01957	0.05482
3827.73380	0.05497
3826.44803	0.05450
3825.16226	0.05351
3823.87649	0.05212
3822.59072	0.05076
3821.30495	0.05019
3820.01918	0.05066
3818.73342	0.05134
3817.44765	0.05147
3816.16188	0.05144
3814.87611	0.05201
3813.59034	0.05298
3812.30457	0.05364
3811.01880	0.05372
3809.73303	0.05329
3808.44726	0.05262
3807.16150	0.05230
3805.87573	0.05271
3804.58996	0.05331
3803.30419	0.05326
3802.01842	0.05257
3800.73265	0.05192
3799.44688	0.05148
3798.16111	0.05087
3796.87535	0.05013
3795.58958	0.04968
3794.30381	0.04964
3793.01804	0.04975
3791.73227	0.04982
3790.44650	0.04996
3789.16073	0.05034
3787.87496	0.05092
3786.58919	0.05141
3785.30343	0.05159
3784.01766	0.05143
3782.73189	0.05107
3781.44612	0.05063
3780.16035	0.05028
3778.87458	0.05022
3777.58881	0.05044
3776.30304	0.05076
3775.01728	0.05093
3773.73151	0.05077
3772.44574	0.05021
3771.15997	0.04954
3769.87420	0.04930
3768.58843	0.04960
3767.30266	0.04998
3766.01689	0.05008
3764.73112	0.05002
3763.44536	0.04997
3762.15959	0.04986
3760.87382	0.04966
3759.58805	0.04959
3758.30228	0.04990
3757.01651	0.05073
3755.73074	0.05183
3754.44497	0.05257
3753.15921	0.05247
3751.87344	0.05160
3750.58767	0.05059
3749.30190	0.05019
3748.01613	0.05052
3746.73036	0.05083
3745.44459	0.05072
3744.15882	0.05078
3742.87305	0.05133
3741.58729	0.05174
3740.30152	0.05153
3739.01575	0.05097
3737.72998	0.05048
3736.44421	0.05030
3735.15844	0.05035
3733.87267	0.05019
3732.58690	0.04969
3731.30114	0.04920
3730.01537	0.04896
3728.72960	0.04874
3727.44383	0.04842
3726.15806	0.04832
3724.87229	0.04863
3723.58652	0.04909
3722.30075	0.04931
3721.01498	0.04915
3719.72922	0.04884
3718.44345	0.04874
3717.15768	0.04902
3715.87191	0.04947
3714.58614	0.04964
3713.30037	0.04932
3712.01460	0.04873
3710.72883	0.04822
3709.44307	0.04785
3708.15730	0.04766
3706.87153	0.04781
3705.58576	0.04831
3704.29999	0.04878
3703.01422	0.04878
3701.72845	0.04830
3700.44268	0.04769
3699.15691	0.04726
3697.87115	0.04696
3696.58538	0.04677
3695.29961	0.04684
3694.01384	0.04725
3692.72807	0.04780
3691.44230	0.04803
3690.15653	0.04772
3688.87076	0.04723
3687.58500	0.04701
3686.29923	0.04707
3685.01346	0.04708
3683.72769	0.04707
3682.44192	0.04737
3681.15615	0.04803
3679.87038	0.04874
3678.58461	0.04888
3677.29884	0.04810
3676.01308	0.04702
3674.72731	0.04670
3673.44154	0.04712
3672.15577	0.04725
3670.87000	0.04653
3669.58423	0.04555
3668.29846	0.04500
3667.01269	0.04504
3665.72693	0.04542
3664.44116	0.04586
3663.15539	0.04622
3661.86962	0.04651
3660.58385	0.04675
3659.29808	0.04674
3658.01231	0.04636
3656.72654	0.04587
3655.44077	0.04584
3654.15501	0.04633
3652.86924	0.04677
3651.58347	0.04666
3650.29770	0.04614
3649.01193	0.04574
3647.72616	0.04576
3646.44039	0.04603
3645.15462	0.04616
3643.86886	0.04602
3642.58309	0.04571
3641.29732	0.04534
3640.01155	0.04498
3638.72578	0.04476
3637.44001	0.04487
3636.15424	0.04528
3634.86847	0.04587
3633.58270	0.04655
3632.29694	0.04711
3631.01117	0.04722
3629.72540	0.04696
3628.43963	0.04690
3627.15386	0.04733
3625.86809	0.04794
3624.58232	0.04840
3623.29655	0.04862
3622.01079	0.04852
3620.72502	0.04808
3619.43925	0.04760
3618.15348	0.04748
3616.86771	0.04775
3615.58194	0.04801
3614.29617	0.04799
3613.01040	0.04793
3611.72463	0.04828
3610.43887	0.04905
3609.15310	0.04979
3607.86733	0.05003
3606.58156	0.04971
3605.29579	0.04916
3604.01002	0.04880
3602.72425	0.04871
3601.43848	0.04875
3600.15272	0.04876
3598.86695	0.04879
3597.58118	0.04893
3596.29541	0.04924
3595.00964	0.04971
3593.72387	0.05035
3592.43810	0.05092
3591.15233	0.05108
3589.86656	0.05067
3588.58080	0.04993
3587.29503	0.04930
3586.00926	0.04898
3584.72349	0.04881
3583.43772	0.04857
3582.15195	0.04825
3580.86618	0.04804
3579.58041	0.04808
3578.29464	0.04836
3577.00888	0.04874
3575.72311	0.04915
3574.43734	0.04961
3573.15157	0.05019
3571.86580	0.05083
3570.58003	0.05130
3569.29426	0.05137
3568.00849	0.05106
3566.72273	0.05064
3565.43696	0.05034
3564.15119	0.05022
3562.86542	0.05026
3561.57965	0.05041
3560.29388	0.05058
3559.00811	0.05067
3557.72234	0.05068
3556.43657	0.05065
3555.15081	0.05062
3553.86504	0.05064
3552.57927	0.05075
3551.29350	0.05098
3550.00773	0.05134
3548.72196	0.05182
3547.43619	0.05242
3546.15042	0.05306
3544.86466	0.05364
3543.57889	0.05407
3542.29312	0.05424
3541.00735	0.05395
3539.72158	0.05309
3538.43581	0.05188
3537.15004	0.05086
3535.86427	0.05049
3534.57850	0.05073
3533.29274	0.05113
3532.00697	0.05131
3530.72120	0.05127
3529.43543	0.05131
3528.14966	0.05164
3526.86389	0.05220
3525.57812	0.05270
3524.29235	0.05285
3523.00659	0.05259
3521.72082	0.05221
3520.43505	0.05211
3519.14928	0.05249
3517.86351	0.05319
3516.57774	0.05394
3515.29197	0.05456
3514.00620	0.05502
3512.72043	0.05529
3511.43467	0.05535
3510.14890	0.05523
3508.86313	0.05503
3507.57736	0.05489
3506.29159	0.05487
3505.00582	0.05494
3503.72005	0.05505
3502.43428	0.05525
3501.14852	0.05561
3499.86275	0.05605
3498.57698	0.05634
3497.29121	0.05634
3496.00544	0.05614
3494.71967	0.05592
3493.43390	0.05576
3492.14813	0.05564
3490.86236	0.05548
3489.57660	0.05529
3488.29083	0.05518
3487.00506	0.05532
3485.71929	0.05573
3484.43352	0.05619
3483.14775	0.05637
3481.86198	0.05614
3480.57621	0.05583
3479.29045	0.05594
3478.00468	0.05651
3476.71891	0.05705
3475.43314	0.05698
3474.14737	0.05622
3472.86160	0.05524
3471.57583	0.05462
3470.29006	0.05463
3469.00429	0.05515
3467.71853	0.05578
3466.43276	0.05609
3465.14699	0.05587
3463.86122	0.05515
3462.57545	0.05430
3461.28968	0.05385
3460.00391	0.05421
3458.71814	0.05531
3457.43238	0.05655
3456.14661	0.05724
3454.86084	0.05714
3453.57507	0.05662
3452.28930	0.05624
3451.00353	0.05626
3449.71776	0.05663
3448.43199	0.05715
3447.14622	0.05768
3445.86046	0.05802
3444.57469	0.05789
3443.28892	0.05720
3442.00315	0.05623
3440.71738	0.05554
3439.43161	0.05543
3438.14584	0.05573
3436.86007	0.05606
3435.57431	0.05622
3434.28854	0.05631
3433.00277	0.05650
3431.71700	0.05683
3430.43123	0.05719
3429.14546	0.05751
3427.85969	0.05770
3426.57392	0.05768
3425.28815	0.05747
3424.00239	0.05716
3422.71662	0.05695
3421.43085	0.05701
3420.14508	0.05737
3418.85931	0.05792
3417.57354	0.05849
3416.28777	0.05897
3415.00200	0.05932
3413.71624	0.05958
3412.43047	0.05982
3411.14470	0.06006
3409.85893	0.06030
3408.57316	0.06057
3407.28739	0.06083
3406.00162	0.06101
3404.71585	0.06098
3403.43008	0.06069
3402.14432	0.06018
3400.85855	0.05956
3399.57278	0.05903
3398.28701	0.05883
3397.00124	0.05913
3395.71547	0.05973
3394.42970	0.06025
3393.14393	0.06051
3391.85817	0.06062
3390.57240	0.06077
3389.28663	0.06106
3388.00086	0.06140
3386.71509	0.06162
3385.42932	0.06155
3384.14355	0.06123
3382.85778	0.06085
3381.57201	0.06064
3380.28625	0.06062
3379.00048	0.06067
3377.71471	0.06073
3376.42894	0.06088
3375.14317	0.06116
3373.85740	0.06150
3372.57163	0.06172
3371.28586	0.06170
3370.00010	0.06145
3368.71433	0.06107
3367.42856	0.06072
3366.14279	0.06060
3364.85702	0.06082
3363.57125	0.06137
3362.28548	0.06213
3360.99971	0.06292
3359.71394	0.06346
3358.42818	0.06356
3357.14241	0.06336
3355.85664	0.06326
3354.57087	0.06342
3353.28510	0.06360
3351.99933	0.06346
3350.71356	0.06300
3349.42779	0.06253
3348.14202	0.06231
3346.85626	0.06235
3345.57049	0.06258
3344.28472	0.06286
3342.99895	0.06308
3341.71318	0.06321
3340.42741	0.06328
3339.14164	0.06343
3337.85587	0.06363
3336.57011	0.06371
3335.28434	0.06354
3333.99857	0.06322
3332.71280	0.06303
3331.42703	0.06324
3330.14126	0.06383
3328.85549	0.06452
3327.56972	0.06493
3326.28395	0.06491
3324.99819	0.06457
3323.71242	0.06415
3322.42665	0.06383
3321.14088	0.06369
3319.85511	0.06379
3318.56934	0.06412
3317.28357	0.06458
3315.99780	0.06505
3314.71204	0.06533
3313.42627	0.06527
3312.14050	0.06488
3310.85473	0.06436
3309.56896	0.06401
3308.28319	0.06399
3306.99742	0.06424
3305.71165	0.06450
3304.42588	0.06455
3303.14012	0.06443
3301.85435	0.06434
3300.56858	0.06444
3299.28281	0.06465
3297.99704	0.06478
3296.71127	0.06478
3295.42550	0.06483
3294.13973	0.06516
3292.85397	0.06573
3291.56820	0.06625
3290.28243	0.06647
3288.99666	0.06643
3287.71089	0.06637
3286.42512	0.06637
3285.13935	0.06627
3283.85358	0.06591
3282.56781	0.06535
3281.28205	0.06491
3279.99628	0.06477
3278.71051	0.06489
3277.42474	0.06508
3276.13897	0.06522
3274.85320	0.06527
3273.56743	0.06524
3272.28166	0.06511
3270.99590	0.06489
3269.71013	0.06457
3268.42436	0.06416
3267.13859	0.06373
3265.85282	0.06338
3264.56705	0.06322
3263.28128	0.06327
3261.99551	0.06347
3260.70974	0.06367
3259.42398	0.06383
3258.13821	0.06398
3256.85244	0.06416
3255.56667	0.06434
3254.28090	0.06442
3252.99513	0.06433
3251.70936	0.06412
3250.42359	0.06392
3249.13783	0.06382
3247.85206	0.06375
3246.56629	0.06358
3245.28052	0.06323
3243.99475	0.06277
3242.70898	0.06237
3241.42321	0.06211
3240.13744	0.06193
3238.85167	0.06171
3237.56591	0.06140
3236.28014	0.06116
3234.99437	0.06122
3233.70860	0.06163
3232.42283	0.06209
3231.13706	0.06225
3229.85129	0.06204
3228.56552	0.06171
3227.27976	0.06152
3225.99399	0.06151
3224.70822	0.06162
3223.42245	0.06178
3222.13668	0.06189
3220.85091	0.06193
3219.56514	0.06194
3218.27937	0.06197
3216.99360	0.06196
3215.70784	0.06188
3214.42207	0.06176
3213.13630	0.06169
3211.85053	0.06173
3210.56476	0.06188
3209.27899	0.06206
3207.99322	0.06205
3206.70745	0.06158
3205.42169	0.06074
3204.13592	0.06001
3202.85015	0.05988
3201.56438	0.06027
3200.27861	0.06067
3198.99284	0.06064
3197.70707	0.06029
3196.42130	0.06000
3195.13553	0.06004
3193.84977	0.06031
3192.56400	0.06060
3191.27823	0.06066
3189.99246	0.06039
3188.70669	0.05982
3187.42092	0.05918
3186.13515	0.05878
3184.84938	0.05880
3183.56362	0.05916
3182.27785	0.05956
3180.99208	0.05975
3179.70631	0.05966
3178.42054	0.05942
3177.13477	0.05921
3175.84900	0.05916
3174.56323	0.05927
3173.27746	0.05942
3171.99170	0.05944
3170.70593	0.05922
3169.42016	0.05888
3168.13439	0.05866
3166.84862	0.05866
3165.56285	0.05869
3164.27708	0.05855
3162.99131	0.05829
3161.70555	0.05814
3160.41978	0.05823
3159.13401	0.05845
3157.84824	0.05859
3156.56247	0.05854
3155.27670	0.05836
3153.99093	0.05821
3152.70516	0.05813
3151.41939	0.05807
3150.13363	0.05794
3148.84786	0.05779
3147.56209	0.05763
3146.27632	0.05747
3144.99055	0.05732
3143.70478	0.05722
3142.41901	0.05717
3141.13324	0.05703
3139.84748	0.05672
3138.56171	0.05639
3137.27594	0.05624
3135.99017	0.05629
3134.70440	0.05632
3133.41863	0.05615
3132.13286	0.05584
3130.84709	0.05551
3129.56132	0.05526
3128.27556	0.05505
3126.98979	0.05486
3125.70402	0.05475
3124.41825	0.05468
3123.13248	0.05460
3121.84671	0.05441
3120.56094	0.05414
3119.27517	0.05388
3117.98940	0.05373
3116.70364	0.05368
3115.41787	0.05372
3114.13210	0.05390
3112.84633	0.05426
3111.56056	0.05476
3110.27479	0.05521
3108.98902	0.05537
3107.70325	0.05516
3106.41749	0.05467
3105.13172	0.05407
3103.84595	0.05354
3102.56018	0.05325
3101.27441	0.05330
3099.98864	0.05356
3098.70287	0.05384
3097.41710	0.05401
3096.13133	0.05409
3094.84557	0.05413
3093.55980	0.05411
3092.27403	0.05396
3090.98826	0.05375
3089.70249	0.05362
3088.41672	0.05372
3087.13095	0.05407
3085.84518	0.05454
3084.55942	0.05489
3083.27365	0.05491
3081.98788	0.05461
3080.70211	0.05424
3079.41634	0.05409
3078.13057	0.05422
3076.84480	0.05441
3075.55903	0.05444
3074.27326	0.05422
3072.98750	0.05386
3071.70173	0.05352
3070.41596	0.05333
3069.13019	0.05334
3067.84442	0.05350
3066.55865	0.05365
3065.27288	0.05358
3063.98711	0.05322
3062.70135	0.05270
3061.41558	0.05229
3060.12981	0.05213
3058.84404	0.05214
3057.55827	0.05215
3056.27250	0.05210
3054.98673	0.05207
3053.70096	0.05214
3052.41519	0.05230
3051.12943	0.05244
3049.84366	0.05248
3048.55789	0.05239
3047.27212	0.05219
3045.98635	0.05192
3044.70058	0.05157
3043.41481	0.05117
3042.12904	0.05081
3040.84328	0.05062
3039.55751	0.05061
3038.27174	0.05071
3036.98597	0.05075
3035.70020	0.05067
3034.41443	0.05048
3033.12866	0.05032
3031.84289	0.05025
3030.55712	0.05027
3029.27136	0.05029
3027.98559	0.05030
3026.69982	0.05036
3025.41405	0.05048
3024.12828	0.05053
3022.84251	0.05040
3021.55674	0.05013
3020.27097	0.04984
3018.98521	0.04959
3017.69944	0.04938
3016.41367	0.04918
3015.12790	0.04899
3013.84213	0.04886
3012.55636	0.04884
3011.27059	0.04889
3009.98482	0.04890
3008.69905	0.04877
3007.41329	0.04852
3006.12752	0.04830
3004.84175	0.04828
3003.55598	0.04850
3002.27021	0.04886
3000.98444	0.04913
2999.69867	0.04913
2998.41290	0.04900
2997.12714	0.04887
2995.84137	0.04885
2994.55560	0.04891
2993.26983	0.04894
2991.98406	0.04889
2990.69829	0.04878
2989.41252	0.04868
2988.12675	0.04862
2986.84098	0.04862
2985.55522	0.04867
2984.26945	0.04874
2982.98368	0.04880
2981.69791	0.04883
2980.41214	0.04893
2979.12637	0.04919
2977.84060	0.04958
2976.55483	0.04994
2975.26907	0.05016
2973.98330	0.05031
2972.69753	0.05054
2971.41176	0.05095
2970.12599	0.05142
2968.84022	0.05176
2967.55445	0.05179
2966.26868	0.05156
2964.98291	0.05132
2963.69715	0.05128
2962.41138	0.05152
2961.12561	0.05196
2959.83984	0.05252
2958.55407	0.05308
2957.26830	0.05349
2955.98253	0.05367
2954.69676	0.05372
2953.41100	0.05381
2952.12523	0.05403
2950.83946	0.05427
2949.55369	0.05439
2948.26792	0.05428
2946.98215	0.05402
2945.69638	0.05379
2944.41061	0.05380
2943.12484	0.05406
2941.83908	0.05439
2940.55331	0.05448
2939.26754	0.05422
2937.98177	0.05374
2936.69600	0.05329
2935.41023	0.05300
2934.12446	0.05293
2932.83869	0.05310
2931.55293	0.05345
2930.26716	0.05377
2928.98139	0.05384
2927.69562	0.05365
2926.40985	0.05343
2925.12408	0.05339
2923.83831	0.05348
2922.55254	0.05356
2921.26677	0.05357
2919.98101	0.05351
2918.69524	0.05340
2917.40947	0.05324
2916.12370	0.05304
2914.83793	0.05284
2913.55216	0.05267
2912.26639	0.05249
2910.98062	0.05228
2909.69486	0.05206
2908.40909	0.05186
2907.12332	0.05175
2905.83755	0.05177
2904.55178	0.05191
2903.26601	0.05208
2901.98024	0.05213
2900.69447	0.05195
2899.40870	0.05162
2898.12294	0.05134
2896.83717	0.05117
2895.55140	0.05098
2894.26563	0.05065
2892.97986	0.05023
2891.69409	0.04987
2890.40832	0.04968
2889.12255	0.04971
2887.83678	0.04988
2886.55102	0.05004
2885.26525	0.05002
2883.97948	0.04983
2882.69371	0.04952
2881.40794	0.04916
2880.12217	0.04885
2878.83640	0.04875
2877.55063	0.04893
2876.26487	0.04932
2874.97910	0.04972
2873.69333	0.04996
2872.40756	0.05001
2871.12179	0.04993
2869.83602	0.04982
2868.55025	0.04973
2867.26448	0.04965
2865.97871	0.04955
2864.69295	0.04941
2863.40718	0.04928
2862.12141	0.04916
2860.83564	0.04905
2859.54987	0.04887
2858.26410	0.04852
2856.97833	0.04797
2855.69256	0.04738
2854.40680	0.04700
2853.12103	0.04695
2851.83526	0.04709
2850.54949	0.04721
2849.26372	0.04725
2847.97795	0.04730
2846.69218	0.04740
2845.40641	0.04753
2844.12064	0.04759
2842.83488	0.04747
2841.54911	0.04713
2840.26334	0.04662
2838.97757	0.04614
2837.69180	0.04588
2836.40603	0.04583
2835.12026	0.04584
2833.83449	0.04580
2832.54873	0.04570
2831.26296	0.04557
2829.97719	0.04540
2828.69142	0.04516
2827.40565	0.04490
2826.11988	0.04468
2824.83411	0.04456
2823.54834	0.04445
2822.26257	0.04427
2820.97681	0.04400
2819.69104	0.04368
2818.40527	0.04335
2817.11950	0.04305
2815.83373	0.04285
2814.54796	0.04281
2813.26219	0.04290
2811.97642	0.04296
2810.69066	0.04289
2809.40489	0.04277
2808.11912	0.04273
2806.83335	0.04277
2805.54758	0.04277
2804.26181	0.04262
2802.97604	0.04237
2801.69027	0.04213
2800.40450	0.04192
2799.11874	0.04170
2797.83297	0.04146
2796.54720	0.04128
2795.26143	0.04124
2793.97566	0.04131
2792.68989	0.04139
2791.40412	0.04141
2790.11835	0.04136
2788.83259	0.04128
2787.54682	0.04121
2786.26105	0.04121
2784.97528	0.04127
2783.68951	0.04134
2782.40374	0.04136
2781.11797	0.04132
2779.83220	0.04123
2778.54643	0.04110
2777.26067	0.04094
2775.97490	0.04079
2774.68913	0.04064
2773.40336	0.04048
2772.11759	0.04034
2770.83182	0.04024
2769.54605	0.04017
2768.26028	0.04009
2766.97452	0.04001
2765.68875	0.03998
2764.40298	0.03998
2763.11721	0.04001
2761.83144	0.04004
2760.54567	0.04006
2759.25990	0.04003
2757.97413	0.03994
2756.68836	0.03980
2755.40260	0.03964
2754.11683	0.03950
2752.83106	0.03935
2751.54529	0.03921
2750.25952	0.03913
2748.97375	0.03912
2747.68798	0.03917
2746.40221	0.03922
2745.11645	0.03920
2743.83068	0.03912
2742.54491	0.03904
2741.25914	0.03905
2739.97337	0.03914
2738.68760	0.03918
2737.40183	0.03911
2736.11606	0.03901
2734.83029	0.03896
2733.54453	0.03896
2732.25876	0.03892
2730.97299	0.03874
2729.68722	0.03847
2728.40145	0.03817
2727.11568	0.03793
2725.82991	0.03782
2724.54414	0.03784
2723.25838	0.03791
2721.97261	0.03797
2720.68684	0.03797
2719.40107	0.03791
2718.11530	0.03782
2716.82953	0.03770
2715.54376	0.03757
2714.25799	0.03743
2712.97222	0.03731
2711.68646	0.03721
2710.40069	0.03714
2709.11492	0.03712
2707.82915	0.03716
2706.54338	0.03722
2705.25761	0.03721
2703.97184	0.03709
2702.68607	0.03692
2701.40031	0.03683
2700.11454	0.03688
2698.82877	0.03700
2697.54300	0.03707
2696.25723	0.03707
2694.97146	0.03706
2693.68569	0.03704
2692.39992	0.03698
2691.11415	0.03686
2689.82839	0.03674
2688.54262	0.03663
2687.25685	0.03657
2685.97108	0.03658
2684.68531	0.03666
2683.39954	0.03673
2682.11377	0.03669
2680.82800	0.03654
2679.54224	0.03636
2678.25647	0.03625
2676.97070	0.03624
2675.68493	0.03630
2674.39916	0.03637
2673.11339	0.03638
2671.82762	0.03628
2670.54185	0.03608
2669.25608	0.03591
2667.97032	0.03590
2666.68455	0.03605
2665.39878	0.03629
2664.11301	0.03652
2662.82724	0.03667
2661.54147	0.03669
2660.25570	0.03655
2658.96993	0.03630
2657.68417	0.03604
2656.39840	0.03591
2655.11263	0.03594
2653.82686	0.03603
2652.54109	0.03611
2651.25532	0.03617
2649.96955	0.03620
2648.68378	0.03614
2647.39801	0.03591
2646.11225	0.03560
2644.82648	0.03539
2643.54071	0.03537
2642.25494	0.03548
2640.96917	0.03558
2639.68340	0.03555
2638.39763	0.03537
2637.11186	0.03514
2635.82609	0.03492
2634.54033	0.03475
2633.25456	0.03459
2631.96879	0.03439
2630.68302	0.03409
2629.39725	0.03374
2628.11148	0.03341
2626.82571	0.03319
2625.53994	0.03310
2624.25418	0.03309
2622.96841	0.03304
2621.68264	0.03295
2620.39687	0.03287
2619.11110	0.03294
2617.82533	0.03314
2616.53956	0.03334
2615.25379	0.03335
2613.96802	0.03318
2612.68226	0.03293
2611.39649	0.03275
2610.11072	0.03267
2608.82495	0.03265
2607.53918	0.03265
2606.25341	0.03261
2604.96764	0.03250
2603.68187	0.03231
2602.39611	0.03205
2601.11034	0.03171
2599.82457	0.03133
2598.53880	0.03105
2597.25303	0.03097
2595.96726	0.03107
2594.68149	0.03122
2593.39572	0.03129
2592.10995	0.03127
2590.82419	0.03121
2589.53842	0.03112
2588.25265	0.03097
2586.96688	0.03074
2585.68111	0.03056
2584.39534	0.03055
2583.10957	0.03071
2581.82380	0.03087
2580.53804	0.03086
2579.25227	0.03067
2577.96650	0.03041
2576.68073	0.03016
2575.39496	0.02993
2574.10919	0.02972
2572.82342	0.02951
2571.53765	0.02930
2570.25188	0.02914
2568.96612	0.02913
2567.68035	0.02924
2566.39458	0.02935
2565.10881	0.02933
2563.82304	0.02920
2562.53727	0.02908
2561.25150	0.02908
2559.96573	0.02921
2558.67997	0.02936
2557.39420	0.02951
2556.10843	0.02970
2554.82266	0.02994
2553.53689	0.03008
2552.25112	0.02989
2550.96535	0.02930
2549.67958	0.02852
2548.39381	0.02789
2547.10805	0.02772
2545.82228	0.02806
2544.53651	0.02867
2543.25074	0.02923
2541.96497	0.02956
2540.67920	0.02964
2539.39343	0.02950
2538.10766	0.02921
2536.82190	0.02889
2535.53613	0.02859
2534.25036	0.02826
2532.96459	0.02783
2531.67882	0.02744
2530.39305	0.02722
2529.10728	0.02721
2527.82151	0.02732
2526.53574	0.02746
2525.24998	0.02760
2523.96421	0.02761
2522.67844	0.02749
2521.39267	0.02737
2520.10690	0.02750
2518.82113	0.02787
2517.53536	0.02827
2516.24959	0.02846
2514.96383	0.02838
2513.67806	0.02807
2512.39229	0.02765
2511.10652	0.02727
2509.82075	0.02711
2508.53498	0.02717
2507.24921	0.02731
2505.96344	0.02743
2504.67767	0.02749
2503.39191	0.02748
2502.10614	0.02739
2500.82037	0.02718
2499.53460	0.02692
2498.24883	0.02670
2496.96306	0.02664
2495.67729	0.02679
2494.39152	0.02699
2493.10576	0.02709
2491.81999	0.02705
2490.53422	0.02697
2489.24845	0.02690
2487.96268	0.02685
2486.67691	0.02680
2485.39114	0.02675
2484.10537	0.02671
2482.81960	0.02675
2481.53384	0.02692
2480.24807	0.02708
2478.96230	0.02707
2477.67653	0.02686
2476.39076	0.02660
2475.10499	0.02646
2473.81922	0.02647
2472.53345	0.02652
2471.24769	0.02651
2469.96192	0.02635
2468.67615	0.02612
2467.39038	0.02598
2466.10461	0.02608
2464.81884	0.02644
2463.53307	0.02697
2462.24730	0.02746
2460.96153	0.02773
2459.67577	0.02772
2458.39000	0.02747
2457.10423	0.02703
2455.81846	0.02654
2454.53269	0.02619
2453.24692	0.02609
2451.96115	0.02618
2450.67538	0.02628
2449.38962	0.02623
2448.10385	0.02596
2446.81808	0.02555
2445.53231	0.02518
2444.24654	0.02501
2442.96077	0.02502
2441.67500	0.02504
2440.38923	0.02497
2439.10346	0.02485
2437.81770	0.02482
2436.53193	0.02494
2435.24616	0.02518
2433.96039	0.02541
2432.67462	0.02552
2431.38885	0.02553
2430.10308	0.02549
2428.81731	0.02547
2427.53155	0.02547
2426.24578	0.02543
2424.96001	0.02531
2423.67424	0.02513
2422.38847	0.02497
2421.10270	0.02489
2419.81693	0.02484
2418.53116	0.02479
2417.24539	0.02481
2415.95963	0.02500
2414.67386	0.02531
2413.38809	0.02558
2412.10232	0.02571
2410.81655	0.02570
2409.53078	0.02565
2408.24501	0.02557
2406.95924	0.02543
2405.67347	0.02520
2404.38771	0.02487
2403.10194	0.02452
2401.81617	0.02433
2400.53040	0.02444
2399.24463	0.02497
2397.95886	0.02532
2396.67309	0.02546
2395.38732	0.02538
2394.10156	0.02513
2392.81579	0.02489
2391.53002	0.02478
2390.24425	0.02483
2388.95848	0.02498
2387.67271	0.02513
2386.38694	0.02519
2385.10117	0.02522
2383.81540	0.02531
2382.52964	0.02552
2381.24387	0.02569
2379.95810	0.02571
2378.67233	0.02539
2377.38656	0.02502
2376.10079	0.02499
2374.81502	0.02516
2373.52925	0.02484
2372.24349	0.02418
2370.95772	0.02380
2369.67195	0.02376
2368.38618	0.02398
2367.10041	0.02424
2365.81464	0.02446
2364.52887	0.02458
2363.24310	0.02460
2361.95733	0.02455
2360.67157	0.02449
2359.38580	0.02454
2358.10003	0.02459
2356.81426	0.02461
2355.52849	0.02480
2354.24272	0.02529
2352.95695	0.02582
2351.67118	0.02575
2350.38542	0.02545
2349.09965	0.02541
2347.81388	0.02540
2346.52811	0.02525
2345.24234	0.02539
2343.95657	0.02596
2342.67080	0.02697
2341.38503	0.02672
2340.09926	0.02563
2338.81350	0.02529
2337.52773	0.02557
2336.24196	0.02514
2334.95619	0.02484
2333.67042	0.02529
2332.38465	0.02618
2331.09888	0.02565
2329.81311	0.02581
2328.52735	0.02661
2327.24158	0.02698
2325.95581	0.02750
2324.67004	0.02806
2323.38427	0.02869
2322.09850	0.02849
2320.81273	0.02802
2319.52696	0.02750
2318.24119	0.02703
2316.95543	0.02661
2315.66966	0.02634
2314.38389	0.02638
2313.09812	0.02637
2311.81235	0.02616
2310.52658	0.02595
2309.24081	0.02580
2307.95504	0.02564
2306.66928	0.02554
2305.38351	0.02545
2304.09774	0.02541
2302.81197	0.02540
2301.52620	0.02538
2300.24043	0.02536
2298.95466	0.02531
2297.66889	0.02520
2296.38312	0.02506
2295.09736	0.02491
2293.81159	0.02478
2292.52582	0.02467
2291.24005	0.02462
2289.95428	0.02465
2288.66851	0.02478
2287.38274	0.02499
2286.09697	0.02521
2284.81121	0.02534
2283.52544	0.02529
2282.23967	0.02501
2280.95390	0.02453
2279.66813	0.02401
2278.38236	0.02375
2277.09659	0.02393
2275.81082	0.02434
2274.52505	0.02460
2273.23929	0.02450
2271.95352	0.02419
2270.66775	0.02386
2269.38198	0.02351
2268.09621	0.02299
2266.81044	0.02224
2265.52467	0.02148
2264.23890	0.02104
2262.95314	0.02104
2261.66737	0.02138
2260.38160	0.02186
2259.09583	0.02223
2257.81006	0.02229
2256.52429	0.02196
2255.23852	0.02133
2253.95275	0.02055
2252.66698	0.01973
2251.38122	0.01898
2250.09545	0.01850
2248.80968	0.01850
2247.52391	0.01854
2246.23814	0.01852
2244.95237	0.01837
2243.66660	0.01813
2242.38083	0.01790
2241.09507	0.01783
2239.80930	0.01812
2238.52353	0.01884
2237.23776	0.01980
2235.95199	0.02060
2234.66622	0.02093
2233.38045	0.02076
2232.09468	0.02028
2230.80891	0.01977
2229.52315	0.01943
2228.23738	0.01939
2226.95161	0.01969
2225.66584	0.02029
2224.38007	0.02104
2223.09430	0.02157
2221.80853	0.02156
2220.52276	0.02103
2219.23700	0.02041
2217.95123	0.01992
2216.66546	0.01937
2215.37969	0.01856
2214.09392	0.01772
2212.80815	0.01726
2211.52238	0.01720
2210.23661	0.01721
2208.95084	0.01708
2207.66508	0.01691
2206.37931	0.01692
2205.09354	0.01724
2203.80777	0.01779
2202.52200	0.01830
2201.23623	0.01841
2199.95046	0.01799
2198.66469	0.01726
2197.37893	0.01659
2196.09316	0.01616
2194.80739	0.01582
2193.52162	0.01527
2192.23585	0.01447
2190.95008	0.01385
2189.66431	0.01391
2188.37854	0.01465
2187.09277	0.01557
2185.80701	0.01627
2184.52124	0.01670
2183.23547	0.01690
2181.94970	0.01682
2180.66393	0.01641
2179.37816	0.01568
2178.09239	0.01477
2176.80662	0.01382
2175.52085	0.01309
2174.23509	0.01282
2172.94932	0.01309
2171.66355	0.01377
2170.37778	0.01471
2169.09201	0.01573
2167.80624	0.01657
2166.52047	0.01690
2165.23470	0.01659
2163.94894	0.01587
2162.66317	0.01501
2161.37740	0.01396
2160.09163	0.01251
2158.80586	0.01086
2157.52009	0.00961
2156.23432	0.00913
2154.94855	0.00926
2153.66278	0.00954
2152.37702	0.00964
2151.09125	0.00949
2149.80548	0.00933
2148.51971	0.00955
2147.23394	0.01032
2145.94817	0.01137
2144.66240	0.01209
2143.37663	0.01204
2142.09087	0.01142
2140.80510	0.01092
2139.51933	0.01098
2138.23356	0.01149
2136.94779	0.01202
2135.66202	0.01237
2134.37625	0.01257
2133.09048	0.01273
2131.80471	0.01294
2130.51895	0.01332
2129.23318	0.01386
2127.94741	0.01447
2126.66164	0.01497
2125.37587	0.01524
2124.09010	0.01520
2122.80433	0.01484
2121.51856	0.01435
2120.23280	0.01407
2118.94703	0.01433
2117.66126	0.01513
2116.37549	0.01608
2115.08972	0.01664
2113.80395	0.01659
2112.51818	0.01613
2111.23241	0.01566
2109.94664	0.01543
2108.66088	0.01544
2107.37511	0.01555
2106.08934	0.01565
2104.80357	0.01575
2103.51780	0.01599
2102.23203	0.01644
2100.94626	0.01701
2099.66049	0.01705
2098.37473	0.01669
2097.08896	0.01570
2095.80319	0.01430
2094.51742	0.01313
2093.23165	0.01265
2091.94588	0.01281
2090.66011	0.01320
2089.37434	0.01348
2088.08857	0.01360
2086.80281	0.01372
2085.51704	0.01387
2084.23127	0.01398
2082.94550	0.01395
2081.65973	0.01386
2080.37396	0.01390
2079.08819	0.01414
2077.80242	0.01448
2076.51666	0.01476
2075.23089	0.01483
2073.94512	0.01463
2072.65935	0.01420
2071.37358	0.01358
2070.08781	0.01288
2068.80204	0.01222
2067.51627	0.01170
2066.23050	0.01141
2064.94474	0.01134
2063.65897	0.01142
2062.37320	0.01150
2061.08743	0.01149
2059.80166	0.01137
2058.51589	0.01123
2057.23012	0.01115
2055.94435	0.01124
2054.65859	0.01151
2053.37282	0.01182
2052.08705	0.01187
2050.80128	0.01143
2049.51551	0.01063
2048.22974	0.00998
2046.94397	0.00994
2045.65820	0.01047
2044.37243	0.01108
2043.08667	0.01120
2041.80090	0.01061
2040.51513	0.00940
2039.22936	0.00781
2037.94359	0.00608
2036.65782	0.00458
2035.37205	0.00382
2034.08628	0.00424
2032.80052	0.00568
2031.51475	0.00739
2030.22898	0.00848
2028.94321	0.00853
2027.65744	0.00771
2026.37167	0.00655
2025.08590	0.00565
2023.80013	0.00538
2022.51436	0.00567
2021.22860	0.00598
2019.94283	0.00581
2018.65706	0.00515
2017.37129	0.00430
2016.08552	0.00356
2014.79975	0.00317
2013.51398	0.00333
2012.22821	0.00406
2010.94245	0.00502
2009.65668	0.00582
2008.37091	0.00645
2007.08514	0.00722
2005.79937	0.00818
2004.51360	0.00905
2003.22783	0.00947
2001.94206	0.00949
2000.65629	0.00938
1999.37053	0.00938
1998.08476	0.00952
1996.79899	0.00977
1995.51322	0.01013
1994.22745	0.01070
1992.94168	0.01149
1991.65591	0.01228
1990.37014	0.01268
1989.08438	0.01245
1987.79861	0.01183
1986.51284	0.01135
1985.22707	0.01132
1983.94130	0.01148
1982.65553	0.01129
1981.36976	0.01048
1980.08399	0.00929
1978.79822	0.00815
1977.51246	0.00744
1976.22669	0.00726
1974.94092	0.00748
1973.65515	0.00788
1972.36938	0.00828
1971.08361	0.00858
1969.79784	0.00877
1968.51207	0.00896
1967.22631	0.00925
1965.94054	0.00963
1964.65477	0.00994
1963.36900	0.01004
1962.08323	0.00994
1960.79746	0.00969
1959.51169	0.00934
1958.22592	0.00899
1956.94015	0.00878
1955.65439	0.00879
1954.36862	0.00893
1953.08285	0.00913
1951.79708	0.00938
1950.51131	0.00963
1949.22554	0.00973
1947.93977	0.00961
1946.65400	0.00945
1945.36823	0.00954
1944.08247	0.00999
1942.79670	0.01060
1941.51093	0.01109
1940.22516	0.01132
1938.93939	0.01133
1937.65362	0.01129
1936.36785	0.01135
1935.08208	0.01159
1933.79632	0.01200
1932.51055	0.01251
1931.22478	0.01297
1929.93901	0.01325
1928.65324	0.01328
1927.36747	0.01307
1926.08170	0.01274
1924.79593	0.01249
1923.51016	0.01255
1922.22440	0.01291
1920.93863	0.01322
1919.65286	0.01310
1918.36709	0.01258
1917.08132	0.01208
1915.79555	0.01194
1914.50978	0.01211
1913.22401	0.01235
1911.93825	0.01251
1910.65248	0.01262
1909.36671	0.01275
1908.08094	0.01288
1906.79517	0.01291
1905.50940	0.01282
1904.22363	0.01280
1902.93786	0.01304
1901.65209	0.01350
1900.36633	0.01392
1899.08056	0.01406
1897.79479	0.01393
1896.50902	0.01373
1895.22325	0.01367
1893.93748	0.01379
1892.65171	0.01399
1891.36594	0.01415
1890.08018	0.01429
1888.79441	0.01439
1887.50864	0.01435
1886.22287	0.01408
1884.93710	0.01366
1883.65133	0.01329
1882.36556	0.01311
1881.07979	0.01309
1879.79402	0.01311
1878.50826	0.01309
1877.22249	0.01300
1875.93672	0.01295
1874.65095	0.01305
1873.36518	0.01332
1872.07941	0.01355
1870.79364	0.01351
1869.50787	0.01321
1868.22211	0.01292
1866.93634	0.01287
1865.65057	0.01299
1864.36480	0.01310
1863.07903	0.01314
1861.79326	0.01316
1860.50749	0.01324
1859.22172	0.01337
1857.93595	0.01350
1856.65019	0.01353
1855.36442	0.01342
1854.07865	0.01322
1852.79288	0.01308
1851.50711	0.01310
1850.22134	0.01329
1848.93557	0.01359
1847.64980	0.01386
1846.36404	0.01400
1845.07827	0.01401
1843.79250	0.01405
1842.50673	0.01420
1841.22096	0.01436
1839.93519	0.01445
1838.64942	0.01444
1837.36365	0.01439
1836.07788	0.01430
1834.79212	0.01417
1833.50635	0.01401
1832.22058	0.01384
1830.93481	0.01373
1829.64904	0.01377
1828.36327	0.01395
1827.07750	0.01415
1825.79173	0.01428
1824.50597	0.01434
1823.22020	0.01431
1821.93443	0.01415
1820.64866	0.01382
1819.36289	0.01340
1818.07712	0.01301
1816.79135	0.01281
1815.50558	0.01287
1814.21981	0.01316
1812.93405	0.01351
1811.64828	0.01381
1810.36251	0.01398
1809.07674	0.01400
1807.79097	0.01391
1806.50520	0.01383
1805.21943	0.01385
1803.93366	0.01393
1802.64790	0.01396
1801.36213	0.01394
1800.07636	0.01393
1798.79059	0.01399
1797.50482	0.01412
1796.21905	0.01427
1794.93328	0.01433
1793.64751	0.01423
1792.36174	0.01408
1791.07598	0.01403
1789.79021	0.01409
1788.50444	0.01421
1787.21867	0.01429
1785.93290	0.01432
1784.64713	0.01430
1783.36136	0.01424
1782.07559	0.01414
1780.78983	0.01408
1779.50406	0.01416
1778.21829	0.01437
1776.93252	0.01463
1775.64675	0.01482
1774.36098	0.01483
1773.07521	0.01471
1771.78944	0.01461
1770.50367	0.01456
1769.21791	0.01446
1767.93214	0.01437
1766.64637	0.01441
1765.36060	0.01453
1764.07483	0.01458
1762.78906	0.01458
1761.50329	0.01462
1760.21752	0.01472
1758.93176	0.01474
1757.64599	0.01465
1756.36022	0.01460
1755.07445	0.01465
1753.78868	0.01468
1752.50291	0.01460
1751.21714	0.01450
1749.93137	0.01448
1748.64560	0.01449
1747.35984	0.01450
1746.07407	0.01451
1744.78830	0.01454
1743.50253	0.01457
1742.21676	0.01452
1740.93099	0.01444
1739.64522	0.01450
1738.35945	0.01478
1737.07369	0.01505
1735.78792	0.01500
1734.50215	0.01475
1733.21638	0.01463
1731.93061	0.01470
1730.64484	0.01476
1729.35907	0.01471
1728.07330	0.01466
1726.78753	0.01469
1725.50177	0.01478
1724.21600	0.01491
1722.93023	0.01512
1721.64446	0.01539
1720.35869	0.01558
1719.07292	0.01563
1717.78715	0.01571
1716.50138	0.01595
1715.21561	0.01629
1713.92985	0.01659
1712.64408	0.01681
1711.35831	0.01705
1710.07254	0.01732
1708.78677	0.01761
1707.50100	0.01790
1706.21523	0.01830
1704.92946	0.01896
1703.64370	0.01979
1702.35793	0.02050
1701.07216	0.02109
1699.78639	0.02187
1698.50062	0.02276
1697.21485	0.02346
1695.92908	0.02400
1694.64331	0.02476
1693.35754	0.02571
1692.07178	0.02656
1690.78601	0.02729
1689.50024	0.02811
1688.21447	0.02900
1686.92870	0.02974
1685.64293	0.03028
1684.35716	0.03093
1683.07139	0.03191
1681.78563	0.03298
1680.49986	0.03391
1679.21409	0.03469
1677.92832	0.03537
1676.64255	0.03596
1675.35678	0.03661
1674.07101	0.03744
1672.78524	0.03834
1671.49947	0.03913
1670.21371	0.03978
1668.92794	0.04044
1667.64217	0.04122
1666.35640	0.04202
1665.07063	0.04276
1663.78486	0.04345
1662.49909	0.04420
1661.21332	0.04501
1659.92756	0.04582
1658.64179	0.04663
1657.35602	0.04744
1656.07025	0.04805
1654.78448	0.04826
1653.49871	0.04834
1652.21294	0.04879
1650.92717	0.04960
1649.64140	0.05025
1648.35564	0.05048
1647.06987	0.05051
1645.78410	0.05067
1644.49833	0.05096
1643.21256	0.05123
1641.92679	0.05138
1640.64102	0.05147
1639.35525	0.05149
1638.06949	0.05131
1636.78372	0.05087
1635.49795	0.05037
1634.21218	0.05002
1632.92641	0.04980
1631.64064	0.04951
1630.35487	0.04910
1629.06910	0.04861
1627.78333	0.04807
1626.49757	0.04742
1625.21180	0.04661
1623.92603	0.04573
1622.64026	0.04497
1621.35449	0.04440
1620.06872	0.04382
1618.78295	0.04297
1617.49718	0.04195
1616.21142	0.04107
1614.92565	0.04049
1613.63988	0.04005
1612.35411	0.03958
1611.06834	0.03907
1609.78257	0.03852
1608.49680	0.03791
1607.21103	0.03729
1605.92526	0.03674
1604.63950	0.03633
1603.35373	0.03602
1602.06796	0.03577
1600.78219	0.03554
1599.49642	0.03538
1598.21065	0.03528
1596.92488	0.03522
1595.63911	0.03516
1594.35335	0.03511
1593.06758	0.03510
1591.78181	0.03515
1590.49604	0.03528
1589.21027	0.03547
1587.92450	0.03566
1586.63873	0.03581
1585.35296	0.03590
1584.06719	0.03597
1582.78143	0.03612
1581.49566	0.03640
1580.20989	0.03679
1578.92412	0.03711
1577.63835	0.03726
1576.35258	0.03744
1575.06681	0.03792
1573.78104	0.03864
1572.49528	0.03928
1571.20951	0.03970
1569.92374	0.04007
1568.63797	0.04053
1567.35220	0.04105
1566.06643	0.04155
1564.78066	0.04208
1563.49489	0.04266
1562.20912	0.04306
1560.92336	0.04312
1559.63759	0.04303
1558.35182	0.04317
1557.06605	0.04357
1555.78028	0.04395
1554.49451	0.04423
1553.20874	0.04454
1551.92297	0.04486
1550.63721	0.04509
1549.35144	0.04524
1548.06567	0.04538
1546.77990	0.04551
1545.49413	0.04567
1544.20836	0.04587
1542.92259	0.04599
1541.63682	0.04588
1540.35105	0.04558
1539.06529	0.04535
1537.77952	0.04529
1536.49375	0.04517
1535.20798	0.04483
1533.92221	0.04443
1532.63644	0.04419
1531.35067	0.04411
1530.06490	0.04401
1528.77914	0.04382
1527.49337	0.04361
1526.20760	0.04350
1524.92183	0.04348
1523.63606	0.04343
1522.35029	0.04328
1521.06452	0.04313
1519.77875	0.04307
1518.49298	0.04296
1517.20722	0.04277
1515.92145	0.04264
1514.63568	0.04264
1513.34991	0.04275
1512.06414	0.04296
1510.77837	0.04326
1509.49260	0.04346
1508.20683	0.04340
1506.92107	0.04319
1505.63530	0.04312
1504.34953	0.04322
1503.06376	0.04329
1501.77799	0.04325
1500.49222	0.04318
1499.20645	0.04311
1497.92068	0.04300
1496.63491	0.04287
1495.34915	0.04285
1494.06338	0.04289
1492.77761	0.04284
1491.49184	0.04266
1490.20607	0.04244
1488.92030	0.04229
1487.63453	0.04225
1486.34876	0.04233
1485.06299	0.04252
1483.77723	0.04279
1482.49146	0.04313
1481.20569	0.04359
1479.91992	0.04413
1478.63415	0.04469
1477.34838	0.04523
1476.06261	0.04579
1474.77684	0.04637
1473.49108	0.04697
1472.20531	0.04764
1470.91954	0.04837
1469.63377	0.04907
1468.34800	0.04967
1467.06223	0.05017
1465.77646	0.05066
1464.49069	0.05122
1463.20492	0.05189
1461.91916	0.05264
1460.63339	0.05339
1459.34762	0.05404
1458.06185	0.05460
1456.77608	0.05525
1455.49031	0.05605
1454.20454	0.05681
1452.91877	0.05737
1451.63301	0.05772
1450.34724	0.05792
1449.06147	0.05799
1447.77570	0.05798
1446.48993	0.05798
1445.20416	0.05795
1443.91839	0.05784
1442.63262	0.05767
1441.34685	0.05752
1440.06109	0.05736
1438.77532	0.05709
1437.48955	0.05672
1436.20378	0.05642
1434.91801	0.05627
1433.63224	0.05619
1432.34647	0.05608
1431.06070	0.05602
1429.77494	0.05607
1428.48917	0.05628
1427.20340	0.05663
1425.91763	0.05710
1424.63186	0.05767
1423.34609	0.05829
1422.06032	0.05882
1420.77455	0.05917
1419.48878	0.05947
1418.20302	0.05989
1416.91725	0.06041
1415.63148	0.06086
1414.34571	0.06114
1413.05994	0.06125
1411.77417	0.06121
1410.48840	0.06108
1409.20263	0.06091
1407.91687	0.06072
1406.63110	0.06045
1405.34533	0.06006
1404.05956	0.05956
1402.77379	0.05898
1401.48802	0.05828
1400.20225	0.05748
1398.91648	0.05666
1397.63071	0.05582
1396.34495	0.05492
1395.05918	0.05397
1393.77341	0.05302
1392.48764	0.05215
1391.20187	0.05132
1389.91610	0.05047
1388.63033	0.04958
1387.34456	0.04869
1386.05880	0.04784
1384.77303	0.04702
1383.48726	0.04622
1382.20149	0.04545
1380.91572	0.04470
1379.62995	0.04397
1378.34418	0.04320
1377.05841	0.04239
1375.77264	0.04152
1374.48688	0.04061
1373.20111	0.03972
1371.91534	0.03886
1370.62957	0.03805
1369.34380	0.03725
1368.05803	0.03648
1366.77226	0.03575
1365.48649	0.03505
1364.20073	0.03436
1362.91496	0.03368
1361.62919	0.03304
1360.34342	0.03245
1359.05765	0.03195
1357.77188	0.03151
1356.48611	0.03114
1355.20034	0.03080
1353.91457	0.03047
1352.62881	0.03017
1351.34304	0.02987
1350.05727	0.02959
1348.77150	0.02934
1347.48573	0.02914
1346.19996	0.02897
1344.91419	0.02883
1343.62842	0.02870
1342.34266	0.02858
1341.05689	0.02849
1339.77112	0.02845
1338.48535	0.02842
1337.19958	0.02834
1335.91381	0.02815
1334.62804	0.02788
1333.34227	0.02760
1332.05650	0.02738
1330.77074	0.02724
1329.48497	0.02714
1328.19920	0.02704
1326.91343	0.02688
1325.62766	0.02667
1324.34189	0.02644
1323.05612	0.02623
1321.77035	0.02607
1320.48459	0.02592
1319.19882	0.02576
1317.91305	0.02558
1316.62728	0.02536
1315.34151	0.02513
1314.05574	0.02493
1312.76997	0.02476
1311.48420	0.02460
1310.19843	0.02445
1308.91267	0.02430
1307.62690	0.02416
1306.34113	0.02403
1305.05536	0.02387
1303.76959	0.02368
1302.48382	0.02348
1301.19805	0.02330
1299.91228	0.02318
1298.62652	0.02312
1297.34075	0.02307
1296.05498	0.02299
1294.76921	0.02286
1293.48344	0.02269
1292.19767	0.02250
1290.91190	0.02233
1289.62613	0.02220
1288.34036	0.02211
1287.05460	0.02211
1285.76883	0.02221
1284.48306	0.02234
1283.19729	0.02241
1281.91152	0.02236
1280.62575	0.02221
1279.33998	0.02206
1278.05421	0.02197
1276.76845	0.02195
1275.48268	0.02194
1274.19691	0.02189
1272.91114	0.02178
1271.62537	0.02164
1270.33960	0.02151
1269.05383	0.02143
1267.76806	0.02139
1266.48229	0.02140
1265.19653	0.02141
1263.91076	0.02141
1262.62499	0.02139
1261.33922	0.02136
1260.05345	0.02134
1258.76768	0.02131
1257.48191	0.02128
1256.19614	0.02125
1254.91037	0.02126
1253.62461	0.02132
1252.33884	0.02142
1251.05307	0.02151
1249.76730	0.02157
1248.48153	0.02160
1247.19576	0.02164
1245.90999	0.02168
1244.62422	0.02169
1243.33846	0.02164
1242.05269	0.02156
1240.76692	0.02146
1239.48115	0.02136
1238.19538	0.02127
1236.90961	0.02119
1235.62384	0.02112
1234.33807	0.02103
1233.05230	0.02093
1231.76654	0.02079
1230.48077	0.02064
1229.19500	0.02049
1227.90923	0.02035
1226.62346	0.02018
1225.33769	0.01999
1224.05192	0.01980
1222.76615	0.01963
1221.48039	0.01949
1220.19462	0.01934
1218.90885	0.01916
1217.62308	0.01894
1216.33731	0.01872
1215.05154	0.01854
1213.76577	0.01840
1212.48000	0.01827
1211.19423	0.01815
1209.90847	0.01806
1208.62270	0.01801
1207.33693	0.01801
1206.05116	0.01801
1204.76539	0.01799
1203.47962	0.01793
1202.19385	0.01786
1200.90808	0.01779
1199.62232	0.01780
1198.33655	0.01773
1197.05078	0.01761
1195.76501	0.01744
1194.47924	0.01723
1193.19347	0.01703
1191.90770	0.01688
1190.62193	0.01677
1189.33616	0.01670
1188.05040	0.01665
1186.76463	0.01660
1185.47886	0.01655
1184.19309	0.01648
1182.90732	0.01638
1181.62155	0.01629
1180.33578	0.01623
1179.05001	0.01619
1177.76425	0.01617
1176.47848	0.01616
1175.19271	0.01616
1173.90694	0.01618
1172.62117	0.01623
1171.33540	0.01630
1170.04963	0.01636
1168.76386	0.01640
1167.47809	0.01641
1166.19233	0.01639
1164.90656	0.01637
1163.62079	0.01638
1162.33502	0.01649
1161.04925	0.01668
1159.76348	0.01690
1158.47771	0.01709
1157.19194	0.01720
1155.90618	0.01727
1154.62041	0.01737
1153.33464	0.01753
1152.04887	0.01775
1150.76310	0.01800
1149.47733	0.01823
1148.19156	0.01839
1146.90579	0.01851
1145.62002	0.01866
1144.33426	0.01891
1143.04849	0.01924
1141.76272	0.01965
1140.47695	0.02012
1139.19118	0.02069
1137.90541	0.02135
1136.61964	0.02208
1135.33387	0.02284
1134.04811	0.02359
1132.76234	0.02434
1131.47657	0.02513
1130.19080	0.02602
1128.90503	0.02706
1127.61926	0.02826
1126.33349	0.02960
1125.04772	0.03104
1123.76195	0.03257
1122.47619	0.03420
1121.19042	0.03596
1119.90465	0.03784
1118.61888	0.03985
1117.33311	0.04194
1116.04734	0.04404
1114.76157	0.04608
1113.47580	0.04804
1112.19004	0.04991
1110.90427	0.05173
1109.61850	0.05353
1108.33273	0.05532
1107.04696	0.05709
1105.76119	0.05882
1104.47542	0.06052
1103.18965	0.06216
1101.90388	0.06376
1100.61812	0.06531
1099.33235	0.06684
1098.04658	0.06835
1096.76081	0.06983
1095.47504	0.07128
1094.18927	0.07264
1092.90350	0.07387
1091.61773	0.07494
1090.33197	0.07583
1089.04620	0.07659
1087.76043	0.07731
1086.47466	0.07808
1085.18889	0.07892
1083.90312	0.07982
1082.61735	0.08077
1081.33158	0.08176
1080.04581	0.08280
1078.76005	0.08390
1077.47428	0.08512
1076.18851	0.08649
1074.90274	0.08799
1073.61697	0.08955
1072.33120	0.09113
1071.04543	0.09271
1069.75966	0.09432
1068.47390	0.09598
1067.18813	0.09772
1065.90236	0.09955
1064.61659	0.10146
1063.33082	0.10338
1062.04505	0.10525
1060.75928	0.10703
1059.47351	0.10878
1058.18774	0.11055
1056.90198	0.11237
1055.61621	0.11417
1054.33044	0.11590
1053.04467	0.11757
1051.75890	0.11924
1050.47313	0.12095
1049.18736	0.12272
1047.90159	0.12450
1046.61583	0.12627
1045.33006	0.12803
1044.04429	0.12981
1042.75852	0.13162
1041.47275	0.13343
1040.18698	0.13523
1038.90121	0.13700
1037.61544	0.13877
1036.32967	0.14053
1035.04391	0.14224
1033.75814	0.14387
1032.47237	0.14542
1031.18660	0.14689
1029.90083	0.14832
1028.61506	0.14970
1027.32929	0.15096
1026.04352	0.15202
1024.75775	0.15286
1023.47199	0.15354
1022.18622	0.15412
1020.90045	0.15460
1019.61468	0.15489
1018.32891	0.15493
1017.04314	0.15470
1015.75737	0.15421
1014.47160	0.15348
1013.18584	0.15254
1011.90007	0.15139
1010.61430	0.15004
1009.32853	0.14847
1008.04276	0.14670
1006.75699	0.14480
1005.47122	0.14283
1004.18545	0.14080
1002.89968	0.13867
1001.61392	0.13642
1000.32815	0.13403
999.04238	0.13152
997.75661	0.12890
996.47084	0.12622
995.18507	0.12349
993.89930	0.12070
992.61353	0.11788
991.32777	0.11509
990.04200	0.11239
988.75623	0.10979
987.47046	0.10721
986.18469	0.10460
984.89892	0.10197
983.61315	0.09934
982.32738	0.09677
981.04161	0.09428
979.75585	0.09187
978.47008	0.08954
977.18431	0.08726
975.89854	0.08505
974.61277	0.08297
973.32700	0.08106
972.04123	0.07940
970.75546	0.07805
969.46970	0.07704
968.18393	0.07634
966.89816	0.07594
965.61239	0.07585
964.32662	0.07605
963.04085	0.07641
961.75508	0.07673
960.46931	0.07683
959.18354	0.07660
957.89778	0.07608
956.61201	0.07532
955.32624	0.07436
954.04047	0.07318
952.75470	0.07183
951.46893	0.07039
950.18316	0.06898
948.89739	0.06765
947.61163	0.06643
946.32586	0.06527
945.04009	0.06411
943.75432	0.06288
942.46855	0.06157
941.18278	0.06028
939.89701	0.05907
938.61124	0.05796
937.32547	0.05692
936.03971	0.05591
934.75394	0.05497
933.46817	0.05410
932.18240	0.05324
930.89663	0.05237
929.61086	0.05151
928.32509	0.05072
927.03932	0.05001
925.75356	0.04936
924.46779	0.04870
923.18202	0.04799
921.89625	0.04726
920.61048	0.04658
919.32471	0.04601
918.03894	0.04550
916.75317	0.04500
915.46740	0.04447
914.18164	0.04397
912.89587	0.04354
911.61010	0.04316
910.32433	0.04274
909.03856	0.04230
907.75279	0.04187
906.46702	0.04148
905.18125	0.04110
903.89549	0.04071
902.60972	0.04035
901.32395	0.04007
900.03818	0.03984
898.75241	0.03961
897.46664	0.03932
896.18087	0.03896
894.89510	0.03859
893.60933	0.03824
892.32357	0.03790
891.03780	0.03757
889.75203	0.03732
888.46626	0.03724
887.18049	0.03738
885.89472	0.03773
884.60895	0.03832
883.32318	0.03922
882.03742	0.04043
880.75165	0.04175
879.46588	0.04286
878.18011	0.04360
876.89434	0.04408
875.60857	0.04460
874.32280	0.04526
873.03703	0.04589
871.75126	0.04619
870.46550	0.04599
869.17973	0.04539
867.89396	0.04455
866.60819	0.04357
865.32242	0.04253
864.03665	0.04153
862.75088	0.04066
861.46511	0.03990
860.17935	0.03916
858.89358	0.03839
857.60781	0.03769
856.32204	0.03712
855.03627	0.03671
853.75050	0.03640
852.46473	0.03611
851.17896	0.03575
849.89319	0.03531
848.60743	0.03484
847.32166	0.03445
846.03589	0.03420
844.75012	0.03408
843.46435	0.03401
842.17858	0.03391
840.89281	0.03375
839.60704	0.03353
838.32128	0.03327
837.03551	0.03302
835.74974	0.03278
834.46397	0.03254
833.17820	0.03228
831.89243	0.03202
830.60666	0.03181
829.32089	0.03168
828.03512	0.03162
826.74936	0.03158
825.46359	0.03153
824.17782	0.03144
822.89205	0.03133
821.60628	0.03118
820.32051	0.03101
819.03474	0.03084
817.74897	0.03073
816.46321	0.03067
815.17744	0.03062
813.89167	0.03054
812.60590	0.03041
811.32013	0.03030
810.03436	0.03024
808.74859	0.03022
807.46282	0.03016
806.17705	0.03005
804.89129	0.02994
803.60552	0.02992
802.31975	0.02999
801.03398	0.03011
799.74821	0.03023
798.46244	0.03028
797.17667	0.03025
795.89090	0.03011
794.60513	0.02992
793.31937	0.02978
792.03360	0.02978
790.74783	0.02990
789.46206	0.03005
788.17629	0.03014
786.89052	0.03010
785.60475	0.02996
784.31898	0.02978
783.03322	0.02965
781.74745	0.02962
780.46168	0.02968
779.17591	0.02977
777.89014	0.02982
776.60437	0.02980
775.31860	0.02972
774.03283	0.02965
772.74706	0.02962
771.46130	0.02966
770.17553	0.02972
768.88976	0.02974
767.60399	0.02969
766.31822	0.02961
765.03245	0.02949
763.74668	0.02936
762.46091	0.02925
761.17515	0.02924
759.88938	0.02934
758.60361	0.02950
757.31784	0.02962
756.03207	0.02966
754.74630	0.02963
753.46053	0.02955
752.17476	0.02944
750.88899	0.02935
749.60323	0.02933
748.31746	0.02938
747.03169	0.02948
745.74592	0.02959
744.46015	0.02966
743.17438	0.02963
741.88861	0.02946
740.60284	0.02921
739.31708	0.02901
738.03131	0.02894
736.74554	0.02895
735.45977	0.02895
734.17400	0.02892
732.88823	0.02890
731.60246	0.02891
730.31669	0.02895
729.03092	0.02902
727.74516	0.02910
726.45939	0.02916
725.17362	0.02915
723.88785	0.02909
722.60208	0.02896
721.31631	0.02888
720.03054	0.02890
718.74477	0.02898
717.45901	0.02906
716.17324	0.02909
714.88747	0.02904
713.60170	0.02895
712.31593	0.02888
711.03016	0.02885
709.74439	0.02884
708.45862	0.02881
707.17285	0.02878
705.88709	0.02879
704.60132	0.02886
703.31555	0.02893
702.02978	0.02895
700.74401	0.02891
699.45824	0.02885
698.17247	0.02880
696.88670	0.02877
695.60094	0.02873
694.31517	0.02870
693.02940	0.02869
691.74363	0.02874
690.45786	0.02881
689.17209	0.02883
687.88632	0.02878
686.60055	0.02869
685.31478	0.02862
684.02902	0.02856
682.74325	0.02847
681.45748	0.02837
680.17171	0.02829
678.88594	0.02823
677.60017	0.02821
676.31440	0.02818
675.02863	0.02816
673.74287	0.02813
672.45710	0.02813
671.17133	0.02817
669.88556	0.02824
668.59979	0.02831
667.31402	0.02838
666.02825	0.02840
664.74248	0.02836
663.45671	0.02828
662.17095	0.02815
660.88518	0.02800
659.59941	0.02789
658.31364	0.02782
657.02787	0.02776
655.74210	0.02768
654.45633	0.02756
653.17056	0.02748
651.88480	0.02748
650.59903	0.02753
649.31326	0.02757
648.02749	0.02756
646.74172	0.02751
645.45595	0.02746
644.17018	0.02745
642.88441	0.02750
641.59864	0.02761
640.31288	0.02774
639.02711	0.02786
637.74134	0.02792
636.45557	0.02794
635.16980	0.02797
633.88403	0.02808
632.59826	0.02825
631.31249	0.02831
630.02673	0.02796
628.74096	0.02765
627.45519	0.02818
626.16942	0.02794
624.88365	0.02726
623.59788	0.02680
622.31211	0.02678
621.02634	0.02736
619.74057	0.02888
618.45481	0.03143
617.16904	0.03450
615.88327	0.03722
614.59750	0.03896
613.31173	0.03972
612.02596	0.04015
610.74019	0.04145
609.45442	0.04471
608.16866	0.04985
606.88289	0.05551
605.59712	0.06017
604.31135	0.06308
603.02558	0.06443
601.73981	0.06481
600.45404	0.06464
599.16827	0.06402
597.88250	0.06291
596.59674	0.06141
595.31097	0.05972
594.02520	0.05812
592.73943	0.05687
591.45366	0.05608
590.16789	0.05568
588.88212	0.05552
587.59635	0.05553
586.31059	0.05572
585.02482	0.05618
583.73905	0.05695
582.45328	0.05805
581.16751	0.05938
579.88174	0.06081
578.59597	0.06226
577.31020	0.06373
576.02443	0.06528
574.73867	0.06693
573.45290	0.06856
572.16713	0.07004
570.88136	0.07144
569.59559	0.07301
568.30982	0.07500
567.02405	0.07745
565.73828	0.08014
564.45251	0.08268
563.16675	0.08469
561.88098	0.08584
560.59521	0.08594
559.30944	0.08502
558.02367	0.08337
556.73790	0.08134
555.45213	0.07910
554.16636	0.07667
552.88060	0.07407
551.59483	0.07150
550.30906	0.06910
549.02329	0.06686
547.73752	0.06471
546.45175	0.06262
545.16598	0.06063
543.88021	0.05882
542.59444	0.05725
541.30868	0.05588
540.02291	0.05463
538.73714	0.05339
537.45137	0.05214
536.16560	0.05097
534.87983	0.04998
533.59406	0.04920
532.30829	0.04850
531.02253	0.04773
529.73676	0.04686
528.45099	0.04594
527.16522	0.04509
525.87945	0.04429
524.59368	0.04347
523.30791	0.04256
522.02214	0.04164
520.73637	0.04086
519.45061	0.04027
518.16484	0.03982
516.87907	0.03939
515.59330	0.03890
514.30753	0.03829
513.02176	0.03758
511.73599	0.03691
510.45022	0.03639
509.16446	0.03601
507.87869	0.03563
506.59292	0.03516
505.30715	0.03466
504.02138	0.03422
502.73561	0.03389
501.44984	0.03358
500.16407	0.03319
498.87830	0.03268
497.59254	0.03213
496.30677	0.03166
495.02100	0.03135
493.73523	0.03115
492.44946	0.03095
491.16369	0.03069
489.87792	0.03040
488.59215	0.03017
487.30639	0.03005
486.02062	0.03000
484.73485	0.02997
483.44908	0.02992
482.16331	0.02983
480.87754	0.02971
479.59177	0.02954
478.30600	0.02937
477.02023	0.02922
475.73447	0.02912
474.44870	0.02909
473.16293	0.02914
471.87716	0.02923
470.59139	0.02930
469.30562	0.02929
468.01985	0.02921
466.73408	0.02907
465.44832	0.02888
464.16255	0.02860
462.87678	0.02821
461.59101	0.02774
460.30524	0.02726
459.01947	0.02686
457.73370	0.02659
456.44793	0.02645
455.16216	0.02634
453.87640	0.02618
452.59063	0.02593
451.30486	0.02563
450.01909	0.02534
448.73332	0.02508
447.44755	0.02484
446.16178	0.02460
444.87601	0.02436
443.59025	0.02414
442.30448	0.02394
441.01871	0.02372
439.73294	0.02344
438.44717	0.02311
437.16140	0.02282
435.87563	0.02263
434.58986	0.02255
433.30409	0.02254
432.01833	0.02253
430.73256	0.02249
429.44679	0.02242
428.16102	0.02232
426.87525	0.02220
425.58948	0.02204
424.30371	0.02187
423.01794	0.02166
421.73218	0.02140
420.44641	0.02109
419.16064	0.02079
417.87487	0.02056
416.58910	0.02037
415.30333	0.02021
414.01756	0.02005
412.73179	0.01992
411.44602	0.01980
410.16026	0.01965
408.87449	0.01948
407.58872	0.01931
406.30295	0.01917
405.01718	0.01907
403.73141	0.01903
402.44564	0.01903
401.15987	0.01902
399.87411	0.01899
