3997.45528	0.03422
3996.16951	0.03473
3994.88374	0.03586
3993.59798	0.03705
3992.31221	0.03747
3991.02644	0.03713
3989.74067	0.03675
3988.45490	0.03670
3987.16913	0.03673
3985.88336	0.03653
3984.59759	0.03612
3983.31183	0.03580
3982.02606	0.03567
3980.74029	0.03556
3979.45452	0.03529
3978.16875	0.03481
3976.88298	0.03431
3975.59721	0.03405
3974.31144	0.03424
3973.02567	0.03491
3971.73991	0.03581
3970.45414	0.03656
3969.16837	0.03692
3967.88260	0.03688
3966.59683	0.03669
3965.31106	0.03663
3964.02529	0.03670
3962.73952	0.03655
3961.45376	0.03582
3960.16799	0.03467
3958.88222	0.03377
3957.59645	0.03364
3956.31068	0.03412
3955.02491	0.03456
3953.73914	0.03457
3952.45337	0.03435
3951.16760	0.03427
3949.88184	0.03446
3948.59607	0.03484
3947.31030	0.03527
3946.02453	0.03551
3944.73876	0.03530
3943.45299	0.03478
3942.16722	0.03455
3940.88145	0.03503
3939.59569	0.03591
3938.30992	0.03654
3937.02415	0.03656
3935.73838	0.03610
3934.45261	0.03556
3933.16684	0.03526
3931.88107	0.03526
3930.59530	0.03534
3929.30953	0.03519
3928.02377	0.03477
3926.73800	0.03426
3925.45223	0.03393
3924.16646	0.03388
3922.88069	0.03399
3921.59492	0.03402
3920.30915	0.03387
3919.02338	0.03366
3917.73762	0.03360
3916.45185	0.03375
3915.16608	0.03397
3913.88031	0.03407
3912.59454	0.03414
3911.30877	0.03434
3910.02300	0.03464
3908.73723	0.03476
3907.45146	0.03446
3906.16570	0.03391
3904.87993	0.03369
3903.59416	0.03428
3902.30839	0.03552
3901.02262	0.03679
3899.73685	0.03756
3898.45108	0.03775
3897.16531	0.03744
3895.87955	0.03681
3894.59378	0.03598
3893.30801	0.03508
3892.02224	0.03436
3890.73647	0.03417
3889.45070	0.03449
3888.16493	0.03475
3886.87916	0.03466
3885.59339	0.03447
3884.30763	0.03438
3883.02186	0.03416
3881.73609	0.03374
3880.45032	0.03353
3879.16455	0.03382
3877.87878	0.03420
3876.59301	0.03413
3875.30724	0.03360
3874.02148	0.03300
3872.73571	0.03247
3871.44994	0.03191
3870.16417	0.03158
3868.87840	0.03185
3867.59263	0.03247
3866.30686	0.03294
3865.02109	0.03314
3863.73532	0.03318
3862.44956	0.03303
3861.16379	0.03268
3859.87802	0.03236
3858.59225	0.03229
3857.30648	0.03223
3856.02071	0.03172
3854.73494	0.03084
3853.44917	0.03028
3852.16341	0.03042
3850.87764	0.03087
3849.59187	0.03115
3848.30610	0.03124
3847.02033	0.03120
3845.73456	0.03106
3844.44879	0.03096
3843.16302	0.03103
3841.87725	0.03123
3840.59149	0.03127
3839.30572	0.03109
3838.01995	0.03110
3836.73418	0.03161
3835.44841	0.03231
3834.16264	0.03261
3832.87687	0.03239
3831.59110	0.03204
3830.30534	0.03187
3829.01957	0.03186
3827.73380	0.03201
3826.44803	0.03245
3825.16226	0.03312
3823.87649	0.03351
3822.59072	0.03334
3821.30495	0.03306
3820.01918	0.03308
3818.73342	0.03312
3817.44765	0.03282
3816.16188	0.03253
3814.87611	0.03273
3813.59034	0.03316
3812.30457	0.03342
3811.01880	0.03343
3809.73303	0.03310
3808.44726	0.03237
3807.16150	0.03164
3805.87573	0.03143
3804.58996	0.03156
3803.30419	0.03157
3802.01842	0.03152
3800.73265	0.03173
3799.44688	0.03196
3798.16111	0.03182
3796.87535	0.03163
3795.58958	0.03192
3794.30381	0.03253
3793.01804	0.03287
3791.73227	0.03279
3790.44650	0.03269
3789.16073	0.03290
3787.87496	0.03328
3786.58919	0.03341
3785.30343	0.03317
3784.01766	0.03286
3782.73189	0.03284
3781.44612	0.03306
3780.16035	0.03316
3778.87458	0.03280
3777.58881	0.03191
3776.30304	0.03089
3775.01728	0.03031
3773.73151	0.03043
3772.44574	0.03095
3771.15997	0.03142
3769.87420	0.03163
3768.58843	0.03159
3767.30266	0.03144
3766.01689	0.03150
3764.73112	0.03199
3763.44536	0.03256
3762.15959	0.03258
3760.87382	0.03194
3759.58805	0.03119
3758.30228	0.03080
3757.01651	0.03080
3755.73074	0.03088
3754.44497	0.03068
3753.15921	0.03009
3751.87344	0.02926
3750.58767	0.02847
3749.30190	0.02809
3748.01613	0.02819
3746.73036	0.02832
3745.44459	0.02840
3744.15882	0.02912
3742.87305	0.03056
3741.58729	0.03176
3740.30152	0.03207
3739.01575	0.03157
3737.72998	0.03069
3736.44421	0.02995
3735.15844	0.02970
3733.87267	0.02976
3732.58690	0.02973
3731.30114	0.02955
3730.01537	0.02931
3728.72960	0.02899
3727.44383	0.02879
3726.15806	0.02901
3724.87229	0.02962
3723.58652	0.03020
3722.30075	0.03037
3721.01498	0.03006
3719.72922	0.02947
3718.44345	0.02897
3717.15768	0.02888
3715.87191	0.02919
3714.58614	0.02954
3713.30037	0.02976
3712.01460	0.03002
3710.72883	0.03047
3709.44307	0.03098
3708.15730	0.03139
3706.87153	0.03184
3705.58576	0.03246
3704.29999	0.03303
3703.01422	0.03307
3701.72845	0.03243
3700.44268	0.03144
3699.15691	0.03065
3697.87115	0.03035
3696.58538	0.03055
3695.29961	0.03102
3694.01384	0.03139
3692.72807	0.03126
3691.44230	0.03047
3690.15653	0.02934
3688.87076	0.02867
3687.58500	0.02899
3686.29923	0.02989
3685.01346	0.03053
3683.72769	0.03066
3682.44192	0.03056
3681.15615	0.03039
3679.87038	0.03014
3678.58461	0.02982
3677.29884	0.02963
3676.01308	0.03000
3674.72731	0.03098
3673.44154	0.03182
3672.15577	0.03183
3670.87000	0.03141
3669.58423	0.03130
3668.29846	0.03149
3667.01269	0.03155
3665.72693	0.03154
3664.44116	0.03182
3663.15539	0.03252
3661.86962	0.03342
3660.58385	0.03432
3659.29808	0.03512
3658.01231	0.03574
3656.72654	0.03608
3655.44077	0.03596
3654.15501	0.03523
3652.86924	0.03403
3651.58347	0.03306
3650.29770	0.03296
3649.01193	0.03368
3647.72616	0.03455
3646.44039	0.03496
3645.15462	0.03484
3643.86886	0.03454
3642.58309	0.03449
3641.29732	0.03488
3640.01155	0.03561
3638.72578	0.03637
3637.44001	0.03693
3636.15424	0.03727
3634.86847	0.03757
3633.58270	0.03789
3632.29694	0.03797
3631.01117	0.03753
3629.72540	0.03689
3628.43963	0.03663
3627.15386	0.03678
3625.86809	0.03686
3624.58232	0.03674
3623.29655	0.03677
3622.01079	0.03710
3620.72502	0.03751
3619.43925	0.03777
3618.15348	0.03782
3616.86771	0.03774
3615.58194	0.03767
3614.29617	0.03781
3613.01040	0.03819
3611.72463	0.03852
3610.43887	0.03859
3609.15310	0.03861
3607.86733	0.03893
3606.58156	0.03948
3605.29579	0.03981
3604.01002	0.03967
3602.72425	0.03929
3601.43848	0.03908
3600.15272	0.03922
3598.86695	0.03953
3597.58118	0.03973
3596.29541	0.03980
3595.00964	0.03997
3593.72387	0.04047
3592.43810	0.04123
3591.15233	0.04185
3589.86656	0.04196
3588.58080	0.04165
3587.29503	0.04138
3586.00926	0.04167
3584.72349	0.04267
3583.43772	0.04408
3582.15195	0.04533
3580.86618	0.04593
3579.58041	0.04577
3578.29464	0.04510
3577.00888	0.04441
3575.72311	0.04405
3574.43734	0.04408
3573.15157	0.04439
3571.86580	0.04489
3570.58003	0.04554
3569.29426	0.04627
3568.00849	0.04689
3566.72273	0.04729
3565.43696	0.04749
3564.15119	0.04756
3562.86542	0.04750
3561.57965	0.04726
3560.29388	0.04685
3559.00811	0.04639
3557.72234	0.04609
3556.43657	0.04604
3555.15081	0.04617
3553.86504	0.04630
3552.57927	0.04643
3551.29350	0.04682
3550.00773	0.04769
3548.72196	0.04885
3547.43619	0.04974
3546.15042	0.04998
3544.86466	0.04971
3543.57889	0.04934
3542.29312	0.04907
3541.00735	0.04878
3539.72158	0.04836
3538.43581	0.04801
3537.15004	0.04801
3535.86427	0.04842
3534.57850	0.04896
3533.29274	0.04931
3532.00697	0.04941
3530.72120	0.04947
3529.43543	0.04967
3528.14966	0.05000
3526.86389	0.05030
3525.57812	0.05048
3524.29235	0.05065
3523.00659	0.05096
3521.72082	0.05141
3520.43505	0.05182
3519.14928	0.05204
3517.86351	0.05209
3516.57774	0.05208
3515.29197	0.05211
3514.00620	0.05213
3512.72043	0.05207
3511.43467	0.05195
3510.14890	0.05198
3508.86313	0.05237
3507.57736	0.05303
3506.29159	0.05361
3505.00582	0.05380
3503.72005	0.05360
3502.43428	0.05326
3501.14852	0.05297
3499.86275	0.05276
3498.57698	0.05262
3497.29121	0.05263
3496.00544	0.05299
3494.71967	0.05370
3493.43390	0.05445
3492.14813	0.05480
3490.86236	0.05452
3489.57660	0.05380
3488.29083	0.05298
3487.00506	0.05240
3485.71929	0.05231
3484.43352	0.05287
3483.14775	0.05406
3481.86198	0.05551
3480.57621	0.05660
3479.29045	0.05688
3478.00468	0.05649
3476.71891	0.05604
3475.43314	0.05603
3474.14737	0.05651
3472.86160	0.05713
3471.57583	0.05760
3470.29006	0.05778
3469.00429	0.05770
3467.71853	0.05736
3466.43276	0.05678
3465.14699	0.05611
3463.86122	0.05564
3462.57545	0.05560
3461.28968	0.05586
3460.00391	0.05621
3458.71814	0.05663
3457.43238	0.05727
3456.14661	0.05801
3454.86084	0.05844
3453.57507	0.05830
3452.28930	0.05776
3451.00353	0.05727
3449.71776	0.05712
3448.43199	0.05738
3447.14622	0.05798
3445.86046	0.05880
3444.57469	0.05964
3443.28892	0.06027
3442.00315	0.06056
3440.71738	0.06053
3439.43161	0.06038
3438.14584	0.06033
3436.86007	0.06045
3435.57431	0.06064
3434.28854	0.06076
3433.00277	0.06069
3431.71700	0.06038
3430.43123	0.05992
3429.14546	0.05956
3427.85969	0.05951
3426.57392	0.05982
3425.28815	0.06033
3424.00239	0.06074
3422.71662	0.06089
3421.43085	0.06080
3420.14508	0.06059
3418.85931	0.06031
3417.57354	0.05994
3416.28777	0.05955
3415.00200	0.05927
3413.71624	0.05923
3412.43047	0.05950
3411.14470	0.06011
3409.85893	0.06094
3408.57316	0.06170
3407.28739	0.06206
3406.00162	0.06195
3404.71585	0.06165
3403.43008	0.06148
3402.14432	0.06156
3400.85855	0.06171
3399.57278	0.06176
3398.28701	0.06171
3397.00124	0.06167
3395.71547	0.06175
3394.42970	0.06198
3393.14393	0.06220
3391.85817	0.06218
3390.57240	0.06185
3389.28663	0.06140
3388.00086	0.06111
3386.71509	0.06108
3385.42932	0.06125
3384.14355	0.06148
3382.85778	0.06167
3381.57201	0.06174
3380.28625	0.06168
3379.00048	0.06158
3377.71471	0.06156
3376.42894	0.06164
3375.14317	0.06171
3373.85740	0.06157
3372.57163	0.06118
3371.28586	0.06078
3370.00010	0.06069
3368.71433	0.06098
3367.42856	0.06144
3366.14279	0.06186
3364.85702	0.06216
3363.57125	0.06231
3362.28548	0.06229
3360.99971	0.06209
3359.71394	0.06173
3358.42818	0.06128
3357.14241	0.06088
3355.85664	0.06072
3354.57087	0.06088
3353.28510	0.06119
3351.99933	0.06137
3350.71356	0.06135
3349.42779	0.06125
3348.14202	0.06123
3346.85626	0.06126
3345.57049	0.06124
3344.28472	0.06114
3342.99895	0.06100
3341.71318	0.06078
3340.42741	0.06043
3339.14164	0.05997
3337.85587	0.05966
3336.57011	0.05975
3335.28434	0.06034
3333.99857	0.06117
3332.71280	0.06184
3331.42703	0.06207
3330.14126	0.06190
3328.85549	0.06157
3327.56972	0.06125
3326.28395	0.06097
3324.99819	0.06064
3323.71242	0.06028
3322.42665	0.05999
3321.14088	0.05978
3319.85511	0.05961
3318.56934	0.05944
3317.28357	0.05947
3315.99780	0.05987
3314.71204	0.06054
3313.42627	0.06110
3312.14050	0.06128
3310.85473	0.06116
3309.56896	0.06098
3308.28319	0.06092
3306.99742	0.06094
3305.71165	0.06096
3304.42588	0.06092
3303.14012	0.06077
3301.85435	0.06051
3300.56858	0.06021
3299.28281	0.06002
3297.99704	0.05996
3296.71127	0.05987
3295.42550	0.05955
3294.13973	0.05897
3292.85397	0.05833
3291.56820	0.05792
3290.28243	0.05790
3288.99666	0.05821
3287.71089	0.05860
3286.42512	0.05883
3285.13935	0.05878
3283.85358	0.05860
3282.56781	0.05856
3281.28205	0.05879
3279.99628	0.05916
3278.71051	0.05942
3277.42474	0.05944
3276.13897	0.05931
3274.85320	0.05922
3273.56743	0.05932
3272.28166	0.05963
3270.99590	0.05998
3269.71013	0.06015
3268.42436	0.05996
3267.13859	0.05941
3265.85282	0.05876
3264.56705	0.05837
3263.28128	0.05839
3261.99551	0.05870
3260.70974	0.05902
3259.42398	0.05921
3258.13821	0.05933
3256.85244	0.05947
3255.56667	0.05957
3254.28090	0.05953
3252.99513	0.05934
3251.70936	0.05902
3250.42359	0.05859
3249.13783	0.05810
3247.85206	0.05770
3246.56629	0.05750
3245.28052	0.05751
3243.99475	0.05762
3242.70898	0.05769
3241.42321	0.05766
3240.13744	0.05745
3238.85167	0.05706
3237.56591	0.05657
3236.28014	0.05619
3234.99437	0.05612
3233.70860	0.05646
3232.42283	0.05710
3231.13706	0.05766
3229.85129	0.05780
3228.56552	0.05743
3227.27976	0.05682
3225.99399	0.05636
3224.70822	0.05620
3223.42245	0.05621
3222.13668	0.05621
3220.85091	0.05618
3219.56514	0.05622
3218.27937	0.05636
3216.99360	0.05655
3215.70784	0.05668
3214.42207	0.05669
3213.13630	0.05648
3211.85053	0.05606
3210.56476	0.05560
3209.27899	0.05534
3207.99322	0.05536
3206.70745	0.05555
3205.42169	0.05569
3204.13592	0.05566
3202.85015	0.05549
3201.56438	0.05523
3200.27861	0.05489
3198.99284	0.05454
3197.70707	0.05427
3196.42130	0.05415
3195.13553	0.05418
3193.84977	0.05430
3192.56400	0.05437
3191.27823	0.05429
3189.99246	0.05404
3188.70669	0.05371
3187.42092	0.05349
3186.13515	0.05346
3184.84938	0.05357
3183.56362	0.05375
3182.27785	0.05399
3180.99208	0.05430
3179.70631	0.05458
3178.42054	0.05469
3177.13477	0.05460
3175.84900	0.05436
3174.56323	0.05403
3173.27746	0.05365
3171.99170	0.05329
3170.70593	0.05304
3169.42016	0.05289
3168.13439	0.05270
3166.84862	0.05240
3165.56285	0.05209
3164.27708	0.05197
3162.99131	0.05215
3161.70555	0.05247
3160.41978	0.05267
3159.13401	0.05258
3157.84824	0.05225
3156.56247	0.05181
3155.27670	0.05140
3153.99093	0.05111
3152.70516	0.05096
3151.41939	0.05093
3150.13363	0.05094
3148.84786	0.05093
3147.56209	0.05088
3146.27632	0.05086
3144.99055	0.05098
3143.70478	0.05121
3142.41901	0.05137
3141.13324	0.05129
3139.84748	0.05100
3138.56171	0.05067
3137.27594	0.05043
3135.99017	0.05021
3134.70440	0.04994
3133.41863	0.04965
3132.13286	0.04949
3130.84709	0.04959
3129.56132	0.04991
3128.27556	0.05028
3126.98979	0.05049
3125.70402	0.05051
3124.41825	0.05043
3123.13248	0.05035
3121.84671	0.05024
3120.56094	0.05006
3119.27517	0.04986
3117.98940	0.04967
3116.70364	0.04945
3115.41787	0.04920
3114.13210	0.04896
3112.84633	0.04882
3111.56056	0.04877
3110.27479	0.04868
3108.98902	0.04850
3107.70325	0.04830
3106.41749	0.04820
3105.13172	0.04815
3103.84595	0.04802
3102.56018	0.04780
3101.27441	0.04763
3099.98864	0.04760
3098.70287	0.04759
3097.41710	0.04746
3096.13133	0.04725
3094.84557	0.04725
3093.55980	0.04754
3092.27403	0.04789
3090.98826	0.04793
3089.70249	0.04758
3088.41672	0.04708
3087.13095	0.04672
3085.84518	0.04658
3084.55942	0.04656
3083.27365	0.04654
3081.98788	0.04650
3080.70211	0.04642
3079.41634	0.04626
3078.13057	0.04601
3076.84480	0.04573
3075.55903	0.04551
3074.27326	0.04540
3072.98750	0.04543
3071.70173	0.04561
3070.41596	0.04590
3069.13019	0.04616
3067.84442	0.04620
3066.55865	0.04600
3065.27288	0.04566
3063.98711	0.04526
3062.70135	0.04484
3061.41558	0.04443
3060.12981	0.04413
3058.84404	0.04403
3057.55827	0.04409
3056.27250	0.04412
3054.98673	0.04405
3053.70096	0.04394
3052.41519	0.04388
3051.12943	0.04383
3049.84366	0.04367
3048.55789	0.04339
3047.27212	0.04314
3045.98635	0.04298
3044.70058	0.04290
3043.41481	0.04285
3042.12904	0.04279
3040.84328	0.04271
3039.55751	0.04253
3038.27174	0.04230
3036.98597	0.04216
3035.70020	0.04221
3034.41443	0.04235
3033.12866	0.04240
3031.84289	0.04234
3030.55712	0.04228
3029.27136	0.04231
3027.98559	0.04232
3026.69982	0.04222
3025.41405	0.04203
3024.12828	0.04179
3022.84251	0.04152
3021.55674	0.04125
3020.27097	0.04103
3018.98521	0.04096
3017.69944	0.04102
3016.41367	0.04114
3015.12790	0.04128
3013.84213	0.04142
3012.55636	0.04147
3011.27059	0.04135
3009.98482	0.04110
3008.69905	0.04093
3007.41329	0.04095
3006.12752	0.04108
3004.84175	0.04117
3003.55598	0.04114
3002.27021	0.04104
3000.98444	0.04102
2999.69867	0.04114
2998.41290	0.04140
2997.12714	0.04165
2995.84137	0.04176
2994.55560	0.04173
2993.26983	0.04164
2991.98406	0.04151
2990.69829	0.04139
2989.41252	0.04137
2988.12675	0.04157
2986.84098	0.04191
2985.55522	0.04223
2984.26945	0.04242
2982.98368	0.04247
2981.69791	0.04248
2980.41214	0.04252
2979.12637	0.04269
2977.84060	0.04307
2976.55483	0.04372
2975.26907	0.04454
2973.98330	0.04536
2972.69753	0.04607
2971.41176	0.04675
2970.12599	0.04758
2968.84022	0.04860
2967.55445	0.04971
2966.26868	0.05074
2964.98291	0.05162
2963.69715	0.05232
2962.41138	0.05286
2961.12561	0.05333
2959.83984	0.05390
2958.55407	0.05469
2957.26830	0.05564
2955.98253	0.05653
2954.69676	0.05714
2953.41100	0.05750
2952.12523	0.05778
2950.83946	0.05813
2949.55369	0.05852
2948.26792	0.05883
2946.98215	0.05888
2945.69638	0.05866
2944.41061	0.05825
2943.12484	0.05782
2941.83908	0.05753
2940.55331	0.05749
2939.26754	0.05770
2937.98177	0.05811
2936.69600	0.05868
2935.41023	0.05936
2934.12446	0.06008
2932.83869	0.06079
2931.55293	0.06143
2930.26716	0.06200
2928.98139	0.06251
2927.69562	0.06301
2926.40985	0.06346
2925.12408	0.06376
2923.83831	0.06378
2922.55254	0.06352
2921.26677	0.06315
2919.98101	0.06281
2918.69524	0.06253
2917.40947	0.06222
2916.12370	0.06179
2914.83793	0.06121
2913.55216	0.06058
2912.26639	0.06008
2910.98062	0.05983
2909.69486	0.05974
2908.40909	0.05958
2907.12332	0.05914
2905.83755	0.05833
2904.55178	0.05731
2903.26601	0.05633
2901.98024	0.05559
2900.69447	0.05518
2899.40870	0.05502
2898.12294	0.05488
2896.83717	0.05451
2895.55140	0.05382
2894.26563	0.05297
2892.97986	0.05218
2891.69409	0.05154
2890.40832	0.05098
2889.12255	0.05045
2887.83678	0.04998
2886.55102	0.04963
2885.26525	0.04939
2883.97948	0.04920
2882.69371	0.04901
2881.40794	0.04889
2880.12217	0.04893
2878.83640	0.04915
2877.55063	0.04948
2876.26487	0.04988
2874.97910	0.05040
2873.69333	0.05102
2872.40756	0.05161
2871.12179	0.05198
2869.83602	0.05210
2868.55025	0.05210
2867.26448	0.05210
2865.97871	0.05213
2864.69295	0.05215
2863.40718	0.05211
2862.12141	0.05196
2860.83564	0.05167
2859.54987	0.05127
2858.26410	0.05093
2856.97833	0.05076
2855.69256	0.05069
2854.40680	0.05053
2853.12103	0.05019
2851.83526	0.04981
2850.54949	0.04950
2849.26372	0.04922
2847.97795	0.04879
2846.69218	0.04811
2845.40641	0.04733
2844.12064	0.04665
2842.83488	0.04609
2841.54911	0.04550
2840.26334	0.04478
2838.97757	0.04399
2837.69180	0.04331
2836.40603	0.04281
2835.12026	0.04233
2833.83449	0.04172
2832.54873	0.04102
2831.26296	0.04037
2829.97719	0.03987
2828.69142	0.03945
2827.40565	0.03903
2826.11988	0.03861
2824.83411	0.03825
2823.54834	0.03799
2822.26257	0.03780
2820.97681	0.03759
2819.69104	0.03728
2818.40527	0.03696
2817.11950	0.03679
2815.83373	0.03681
2814.54796	0.03687
2813.26219	0.03680
2811.97642	0.03651
2810.69066	0.03611
2809.40489	0.03577
2808.11912	0.03559
2806.83335	0.03552
2805.54758	0.03544
2804.26181	0.03525
2802.97604	0.03497
2801.69027	0.03470
2800.40450	0.03455
2799.11874	0.03457
2797.83297	0.03470
2796.54720	0.03481
2795.26143	0.03480
2793.97566	0.03461
2792.68989	0.03431
2791.40412	0.03403
2790.11835	0.03387
2788.83259	0.03385
2787.54682	0.03391
2786.26105	0.03398
2784.97528	0.03407
2783.68951	0.03418
2782.40374	0.03425
2781.11797	0.03418
2779.83220	0.03393
2778.54643	0.03357
2777.26067	0.03329
2775.97490	0.03320
2774.68913	0.03318
2773.40336	0.03304
2772.11759	0.03272
2770.83182	0.03245
2769.54605	0.03252
2768.26028	0.03293
2766.97452	0.03336
2765.68875	0.03356
2764.40298	0.03351
2763.11721	0.03329
2761.83144	0.03294
2760.54567	0.03250
2759.25990	0.03211
2757.97413	0.03189
2756.68836	0.03187
2755.40260	0.03195
2754.11683	0.03206
2752.83106	0.03216
2751.54529	0.03220
2750.25952	0.03218
2748.97375	0.03213
2747.68798	0.03207
2746.40221	0.03199
2745.11645	0.03183
2743.83068	0.03158
2742.54491	0.03134
2741.25914	0.03127
2739.97337	0.03145
2738.68760	0.03178
2737.40183	0.03203
2736.11606	0.03201
2734.83029	0.03171
2733.54453	0.03134
2732.25876	0.03108
2730.97299	0.03093
2729.68722	0.03083
2728.40145	0.03066
2727.11568	0.03042
2725.82991	0.03018
2724.54414	0.03003
2723.25838	0.03007
2721.97261	0.03030
2720.68684	0.03062
2719.40107	0.03088
2718.11530	0.03103
2716.82953	0.03106
2715.54376	0.03102
2714.25799	0.03090
2712.97222	0.03070
2711.68646	0.03041
2710.40069	0.03012
2709.11492	0.02985
2707.82915	0.02966
2706.54338	0.02959
2705.25761	0.02963
2703.97184	0.02972
2702.68607	0.02980
2701.40031	0.02985
2700.11454	0.02988
2698.82877	0.02985
2697.54300	0.02974
2696.25723	0.02964
2694.97146	0.02967
2693.68569	0.02979
2692.39992	0.02985
2691.11415	0.02980
2689.82839	0.02973
2688.54262	0.02973
2687.25685	0.02980
2685.97108	0.02986
2684.68531	0.02986
2683.39954	0.02979
2682.11377	0.02968
2680.82800	0.02955
2679.54224	0.02941
2678.25647	0.02926
2676.97070	0.02910
2675.68493	0.02902
2674.39916	0.02902
2673.11339	0.02905
2671.82762	0.02902
2670.54185	0.02895
2669.25608	0.02891
2667.97032	0.02896
2666.68455	0.02906
2665.39878	0.02915
2664.11301	0.02920
2662.82724	0.02925
2661.54147	0.02929
2660.25570	0.02924
2658.96993	0.02907
2657.68417	0.02879
2656.39840	0.02853
2655.11263	0.02833
2653.82686	0.02815
2652.54109	0.02797
2651.25532	0.02782
2649.96955	0.02773
2648.68378	0.02773
2647.39801	0.02784
2646.11225	0.02808
2644.82648	0.02841
2643.54071	0.02865
2642.25494	0.02864
2640.96917	0.02840
2639.68340	0.02806
2638.39763	0.02775
2637.11186	0.02754
2635.82609	0.02741
2634.54033	0.02731
2633.25456	0.02726
2631.96879	0.02734
2630.68302	0.02758
2629.39725	0.02782
2628.11148	0.02778
2626.82571	0.02734
2625.53994	0.02666
2624.25418	0.02601
2622.96841	0.02552
2621.68264	0.02519
2620.39687	0.02498
2619.11110	0.02493
2617.82533	0.02504
2616.53956	0.02526
2615.25379	0.02545
2613.96802	0.02555
2612.68226	0.02552
2611.39649	0.02541
2610.11072	0.02535
2608.82495	0.02546
2607.53918	0.02570
2606.25341	0.02590
2604.96764	0.02594
2603.68187	0.02590
2602.39611	0.02591
2601.11034	0.02598
2599.82457	0.02594
2598.53880	0.02568
2597.25303	0.02522
2595.96726	0.02470
2594.68149	0.02418
2593.39572	0.02375
2592.10995	0.02356
2590.82419	0.02373
2589.53842	0.02419
2588.25265	0.02470
2586.96688	0.02499
2585.68111	0.02499
2584.39534	0.02483
2583.10957	0.02468
2581.82380	0.02452
2580.53804	0.02426
2579.25227	0.02387
2577.96650	0.02355
2576.68073	0.02343
2575.39496	0.02346
2574.10919	0.02352
2572.82342	0.02354
2571.53765	0.02357
2570.25188	0.02361
2568.96612	0.02364
2567.68035	0.02365
2566.39458	0.02361
2565.10881	0.02352
2563.82304	0.02339
2562.53727	0.02326
2561.25150	0.02305
2559.96573	0.02270
2558.67997	0.02235
2557.39420	0.02225
2556.10843	0.02251
2554.82266	0.02293
2553.53689	0.02322
2552.25112	0.02331
2550.96535	0.02319
2549.67958	0.02282
2548.39381	0.02220
2547.10805	0.02158
2545.82228	0.02137
2544.53651	0.02173
2543.25074	0.02242
2541.96497	0.02310
2540.67920	0.02356
2539.39343	0.02376
2538.10766	0.02370
2536.82190	0.02341
2535.53613	0.02300
2534.25036	0.02256
2532.96459	0.02211
2531.67882	0.02164
2530.39305	0.02124
2529.10728	0.02104
2527.82151	0.02114
2526.53574	0.02149
2525.24998	0.02190
2523.96421	0.02221
2522.67844	0.02238
2521.39267	0.02245
2520.10690	0.02243
2518.82113	0.02230
2517.53536	0.02207
2516.24959	0.02177
2514.96383	0.02144
2513.67806	0.02109
2512.39229	0.02085
2511.10652	0.02085
2509.82075	0.02114
2508.53498	0.02158
2507.24921	0.02199
2505.96344	0.02230
2504.67767	0.02252
2503.39191	0.02262
2502.10614	0.02256
2500.82037	0.02229
2499.53460	0.02188
2498.24883	0.02142
2496.96306	0.02099
2495.67729	0.02063
2494.39152	0.02039
2493.10576	0.02024
2491.81999	0.02014
2490.53422	0.02012
2489.24845	0.02024
2487.96268	0.02051
2486.67691	0.02080
2485.39114	0.02097
2484.10537	0.02099
2482.81960	0.02094
2481.53384	0.02094
2480.24807	0.02110
2478.96230	0.02146
2477.67653	0.02191
2476.39076	0.02226
2475.10499	0.02235
2473.81922	0.02213
2472.53345	0.02166
2471.24769	0.02111
2469.96192	0.02072
2468.67615	0.02064
2467.39038	0.02079
2466.10461	0.02092
2464.81884	0.02095
2463.53307	0.02099
2462.24730	0.02117
2460.96153	0.02140
2459.67577	0.02140
2458.39000	0.02107
2457.10423	0.02064
2455.81846	0.02041
2454.53269	0.02045
2453.24692	0.02054
2451.96115	0.02057
2450.67538	0.02056
2449.38962	0.02053
2448.10385	0.02046
2446.81808	0.02037
2445.53231	0.02038
2444.24654	0.02051
2442.96077	0.02057
2441.67500	0.02045
2440.38923	0.02022
2439.10346	0.02004
2437.81770	0.01996
2436.53193	0.01990
2435.24616	0.01979
2433.96039	0.01962
2432.67462	0.01945
2431.38885	0.01932
2430.10308	0.01926
2428.81731	0.01928
2427.53155	0.01931
2426.24578	0.01930
2424.96001	0.01929
2423.67424	0.01936
2422.38847	0.01956
2421.10270	0.01983
2419.81693	0.02005
2418.53116	0.02014
2417.24539	0.02012
2415.95963	0.02007
2414.67386	0.02000
2413.38809	0.01987
2412.10232	0.01969
2410.81655	0.01960
2409.53078	0.01975
2408.24501	0.02003
2406.95924	0.02018
2405.67347	0.02006
2404.38771	0.01980
2403.10194	0.01960
2401.81617	0.01958
2400.53040	0.01970
2399.24463	0.01993
2397.95886	0.02010
2396.67309	0.02020
2395.38732	0.02025
2394.10156	0.02023
2392.81579	0.02017
2391.53002	0.02012
2390.24425	0.02011
2388.95848	0.02010
2387.67271	0.02001
2386.38694	0.01982
2385.10117	0.01957
2383.81540	0.01937
2382.52964	0.01926
2381.24387	0.01913
2379.95810	0.01879
2378.67233	0.01816
2377.38656	0.01731
2376.10079	0.01643
2374.81502	0.01563
2373.52925	0.01493
2372.24349	0.01426
2370.95772	0.01354
2369.67195	0.01272
2368.38618	0.01177
2367.10041	0.01076
2365.81464	0.00983
2364.52887	0.00918
2363.24310	0.00897
2361.95733	0.00924
2360.67157	0.00988
2359.38580	0.01068
2358.10003	0.01146
2356.81426	0.01222
2355.52849	0.01308
2354.24272	0.01411
2352.95695	0.01518
2351.67118	0.01600
2350.38542	0.01636
2349.09965	0.01627
2347.81388	0.01590
2346.52811	0.01549
2345.24234	0.01518
2343.95657	0.01492
2342.67080	0.01466
2341.38503	0.01434
2340.09926	0.01399
2338.81350	0.01371
2337.52773	0.01356
2336.24196	0.01353
2334.95619	0.01349
2333.67042	0.01334
2332.38465	0.01311
2331.09888	0.01292
2329.81311	0.01293
2328.52735	0.01321
2327.24158	0.01374
2325.95581	0.01447
2324.67004	0.01530
2323.38427	0.01607
2322.09850	0.01661
2320.81273	0.01693
2319.52696	0.01711
2318.24119	0.01728
2316.95543	0.01750
2315.66966	0.01773
2314.38389	0.01793
2313.09812	0.01812
2311.81235	0.01834
2310.52658	0.01861
2309.24081	0.01885
2307.95504	0.01892
2306.66928	0.01876
2305.38351	0.01845
2304.09774	0.01822
2302.81197	0.01826
2301.52620	0.01857
2300.24043	0.01894
2298.95466	0.01915
2297.66889	0.01909
2296.38312	0.01887
2295.09736	0.01869
2293.81159	0.01870
2292.52582	0.01888
2291.24005	0.01910
2289.95428	0.01922
2288.66851	0.01919
2287.38274	0.01905
2286.09697	0.01893
2284.81121	0.01894
2283.52544	0.01908
2282.23967	0.01926
2280.95390	0.01932
2279.66813	0.01918
2278.38236	0.01889
2277.09659	0.01863
2275.81082	0.01855
2274.52505	0.01857
2273.23929	0.01847
2271.95352	0.01815
2270.66775	0.01775
2269.38198	0.01749
2268.09621	0.01734
2266.81044	0.01713
2265.52467	0.01674
2264.23890	0.01634
2262.95314	0.01618
2261.66737	0.01629
2260.38160	0.01652
2259.09583	0.01672
2257.81006	0.01677
2256.52429	0.01658
2255.23852	0.01609
2253.95275	0.01545
2252.66698	0.01495
2251.38122	0.01486
2250.09545	0.01532
2248.80968	0.01619
2247.52391	0.01648
2246.23814	0.01658
2244.95237	0.01655
2243.66660	0.01633
2242.38083	0.01575
2241.09507	0.01480
2239.80930	0.01389
2238.52353	0.01347
2237.23776	0.01355
2235.95199	0.01372
2234.66622	0.01365
2233.38045	0.01329
2232.09468	0.01272
2230.80891	0.01211
2229.52315	0.01175
2228.23738	0.01194
2226.95161	0.01267
2225.66584	0.01357
2224.38007	0.01415
2223.09430	0.01421
2221.80853	0.01397
2220.52276	0.01375
2219.23700	0.01368
2217.95123	0.01369
2216.66546	0.01363
2215.37969	0.01336
2214.09392	0.01264
2212.80815	0.01148
2211.52238	0.01027
2210.23661	0.00970
2208.95084	0.01016
2207.66508	0.01134
2206.37931	0.01226
2205.09354	0.01206
2203.80777	0.01081
2202.52200	0.00951
2201.23623	0.00924
2199.95046	0.01005
2198.66469	0.01102
2197.37893	0.01120
2196.09316	0.01065
2194.80739	0.01018
2193.52162	0.01039
2192.23585	0.01107
2190.95008	0.01176
2189.66431	0.01231
2188.37854	0.01270
2187.09277	0.01274
2185.80701	0.01233
2184.52124	0.01177
2183.23547	0.01135
2181.94970	0.01086
2180.66393	0.00992
2179.37816	0.00868
2178.09239	0.00777
2176.80662	0.00767
2175.52085	0.00821
2174.23509	0.00889
2172.94932	0.00938
2171.66355	0.00969
2170.37778	0.00980
2169.09201	0.00960
2167.80624	0.00923
2166.52047	0.00913
2165.23470	0.00947
2163.94894	0.00967
2162.66317	0.00895
2161.37740	0.00721
2160.09163	0.00529
2158.80586	0.00432
2157.52009	0.00480
2156.23432	0.00609
2154.94855	0.00711
2153.66278	0.00735
2152.37702	0.00720
2151.09125	0.00738
2149.80548	0.00811
2148.51971	0.00903
2147.23394	0.00972
2145.94817	0.01005
2144.66240	0.01007
2143.37663	0.00979
2142.09087	0.00930
2140.80510	0.00886
2139.51933	0.00882
2138.23356	0.00916
2136.94779	0.00953
2135.66202	0.00969
2134.37625	0.00981
2133.09048	0.01008
2131.80471	0.01037
2130.51895	0.01042
2129.23318	0.01015
2127.94741	0.00978
2126.66164	0.00949
2125.37587	0.00932
2124.09010	0.00926
2122.80433	0.00935
2121.51856	0.00971
2120.23280	0.01045
2118.94703	0.01149
2117.66126	0.01247
2116.37549	0.01296
2115.08972	0.01285
2113.80395	0.01245
2112.51818	0.01214
2111.23241	0.01194
2109.94664	0.01166
2108.66088	0.01131
2107.37511	0.01113
2106.08934	0.01123
2104.80357	0.01143
2103.51780	0.01149
2102.23203	0.01133
2100.94626	0.01104
2099.66049	0.01156
2098.37473	0.01163
2097.08896	0.01134
2095.80319	0.01102
2094.51742	0.01068
2093.23165	0.01030
2091.94588	0.00998
2090.66011	0.00985
2089.37434	0.00996
2088.08857	0.01023
2086.80281	0.01046
2085.51704	0.01051
2084.23127	0.01038
2082.94550	0.01025
2081.65973	0.01025
2080.37396	0.01026
2079.08819	0.01007
2077.80242	0.00965
2076.51666	0.00925
2075.23089	0.00921
2073.94512	0.00957
2072.65935	0.01006
2071.37358	0.01040
2070.08781	0.01052
2068.80204	0.01044
2067.51627	0.01016
2066.23050	0.00967
2064.94474	0.00912
2063.65897	0.00878
2062.37320	0.00870
2061.08743	0.00875
2059.80166	0.00877
2058.51589	0.00874
2057.23012	0.00862
2055.94435	0.00834
2054.65859	0.00796
2053.37282	0.00768
2052.08705	0.00766
2050.80128	0.00790
2049.51551	0.00835
2048.22974	0.00896
2046.94397	0.00951
2045.65820	0.00959
2044.37243	0.00889
2043.08667	0.00755
2041.80090	0.00613
2040.51513	0.00506
2039.22936	0.00433
2037.94359	0.00373
2036.65782	0.00337
2035.37205	0.00372
2034.08628	0.00487
2032.80052	0.00630
2031.51475	0.00731
2030.22898	0.00765
2028.94321	0.00760
2027.65744	0.00757
2026.37167	0.00766
2025.08590	0.00759
2023.80013	0.00707
2022.51436	0.00621
2021.22860	0.00551
2019.94283	0.00541
2018.65706	0.00583
2017.37129	0.00632
2016.08552	0.00646
2014.79975	0.00626
2013.51398	0.00597
2012.22821	0.00582
2010.94245	0.00588
2009.65668	0.00612
2008.37091	0.00648
2007.08514	0.00685
2005.79937	0.00719
2004.51360	0.00755
2003.22783	0.00798
2001.94206	0.00850
2000.65629	0.00905
1999.37053	0.00959
1998.08476	0.00997
1996.79899	0.01000
1995.51322	0.00966
1994.22745	0.00922
1992.94168	0.00901
1991.65591	0.00897
1990.37014	0.00875
1989.08438	0.00826
1987.79861	0.00786
1986.51284	0.00794
1985.22707	0.00847
1983.94130	0.00916
1982.65553	0.00991
1981.36976	0.01086
1980.08399	0.01192
1978.79822	0.01263
1977.51246	0.01255
1976.22669	0.01169
1974.94092	0.01045
1973.65515	0.00931
1972.36938	0.00855
1971.08361	0.00825
1969.79784	0.00830
1968.51207	0.00854
1967.22631	0.00872
1965.94054	0.00860
1964.65477	0.00804
1963.36900	0.00721
1962.08323	0.00650
1960.79746	0.00630
1959.51169	0.00671
1958.22592	0.00753
1956.94015	0.00838
1955.65439	0.00908
1954.36862	0.00967
1953.08285	0.01023
1951.79708	0.01065
1950.51131	0.01067
1949.22554	0.01031
1947.93977	0.00990
1946.65400	0.00978
1945.36823	0.00999
1944.08247	0.01027
1942.79670	0.01042
1941.51093	0.01055
1940.22516	0.01080
1938.93939	0.01107
1937.65362	0.01110
1936.36785	0.01083
1935.08208	0.01051
1933.79632	0.01044
1932.51055	0.01073
1931.22478	0.01116
1929.93901	0.01144
1928.65324	0.01142
1927.36747	0.01113
1926.08170	0.01076
1924.79593	0.01046
1923.51016	0.01036
1922.22440	0.01053
1920.93863	0.01086
1919.65286	0.01117
1918.36709	0.01137
1917.08132	0.01151
1915.79555	0.01161
1914.50978	0.01168
1913.22401	0.01180
1911.93825	0.01207
1910.65248	0.01241
1909.36671	0.01263
1908.08094	0.01260
1906.79517	0.01245
1905.50940	0.01240
1904.22363	0.01256
1902.93786	0.01284
1901.65209	0.01305
1900.36633	0.01309
1899.08056	0.01304
1897.79479	0.01299
1896.50902	0.01296
1895.22325	0.01286
1893.93748	0.01264
1892.65171	0.01236
1891.36594	0.01210
1890.08018	0.01192
1888.79441	0.01181
1887.50864	0.01172
1886.22287	0.01165
1884.93710	0.01164
1883.65133	0.01165
1882.36556	0.01162
1881.07979	0.01152
1879.79402	0.01146
1878.50826	0.01156
1877.22249	0.01181
1875.93672	0.01208
1874.65095	0.01224
1873.36518	0.01225
1872.07941	0.01219
1870.79364	0.01209
1869.50787	0.01201
1868.22211	0.01197
1866.93634	0.01193
1865.65057	0.01187
1864.36480	0.01183
1863.07903	0.01186
1861.79326	0.01196
1860.50749	0.01208
1859.22172	0.01216
1857.93595	0.01215
1856.65019	0.01204
1855.36442	0.01186
1854.07865	0.01169
1852.79288	0.01165
1851.50711	0.01175
1850.22134	0.01193
1848.93557	0.01210
1847.64980	0.01217
1846.36404	0.01204
1845.07827	0.01176
1843.79250	0.01156
1842.50673	0.01156
1841.22096	0.01164
1839.93519	0.01168
1838.64942	0.01169
1837.36365	0.01178
1836.07788	0.01197
1834.79212	0.01221
1833.50635	0.01244
1832.22058	0.01257
1830.93481	0.01259
1829.64904	0.01258
1828.36327	0.01263
1827.07750	0.01272
1825.79173	0.01289
1824.50597	0.01316
1823.22020	0.01346
1821.93443	0.01362
1820.64866	0.01353
1819.36289	0.01325
1818.07712	0.01292
1816.79135	0.01266
1815.50558	0.01254
1814.21981	0.01252
1812.93405	0.01248
1811.64828	0.01237
1810.36251	0.01223
1809.07674	0.01216
1807.79097	0.01221
1806.50520	0.01238
1805.21943	0.01256
1803.93366	0.01264
1802.64790	0.01262
1801.36213	0.01256
1800.07636	0.01256
1798.79059	0.01262
1797.50482	0.01270
1796.21905	0.01279
1794.93328	0.01283
1793.64751	0.01285
1792.36174	0.01290
1791.07598	0.01305
1789.79021	0.01323
1788.50444	0.01335
1787.21867	0.01341
1785.93290	0.01346
1784.64713	0.01354
1783.36136	0.01362
1782.07559	0.01367
1780.78983	0.01374
1779.50406	0.01387
1778.21829	0.01404
1776.93252	0.01414
1775.64675	0.01410
1774.36098	0.01393
1773.07521	0.01382
1771.78944	0.01395
1770.50367	0.01423
1769.21791	0.01444
1767.93214	0.01453
1766.64637	0.01459
1765.36060	0.01462
1764.07483	0.01457
1762.78906	0.01451
1761.50329	0.01458
1760.21752	0.01474
1758.93176	0.01482
1757.64599	0.01482
1756.36022	0.01490
1755.07445	0.01511
1753.78868	0.01526
1752.50291	0.01522
1751.21714	0.01511
1749.93137	0.01515
1748.64560	0.01536
1747.35984	0.01563
1746.07407	0.01586
1744.78830	0.01600
1743.50253	0.01605
1742.21676	0.01603
1740.93099	0.01602
1739.64522	0.01615
1738.35945	0.01643
1737.07369	0.01661
1735.78792	0.01650
1734.50215	0.01637
1733.21638	0.01656
1731.93061	0.01700
1730.64484	0.01737
1729.35907	0.01758
1728.07330	0.01776
1726.78753	0.01793
1725.50177	0.01805
1724.21600	0.01818
1722.93023	0.01840
1721.64446	0.01870
1720.35869	0.01891
1719.07292	0.01895
1717.78715	0.01905
1716.50138	0.01936
1715.21561	0.01978
1713.92985	0.02012
1712.64408	0.02032
1711.35831	0.02047
1710.07254	0.02064
1708.78677	0.02085
1707.50100	0.02109
1706.21523	0.02138
1704.92946	0.02177
1703.64370	0.02211
1702.35793	0.02219
1701.07216	0.02216
1699.78639	0.02241
1698.50062	0.02287
1697.21485	0.02318
1695.92908	0.02341
1694.64331	0.02385
1693.35754	0.02440
1692.07178	0.02470
1690.78601	0.02476
1689.50024	0.02486
1688.21447	0.02503
1686.92870	0.02505
1685.64293	0.02490
1684.35716	0.02493
1683.07139	0.02529
1681.78563	0.02572
1680.49986	0.02598
1679.21409	0.02614
1677.92832	0.02630
1676.64255	0.02646
1675.35678	0.02667
1674.07101	0.02697
1672.78524	0.02720
1671.49947	0.02721
1670.21371	0.02713
1668.92794	0.02724
1667.64217	0.02760
1666.35640	0.02801
1665.07063	0.02827
1663.78486	0.02843
1662.49909	0.02867
1661.21332	0.02901
1659.92756	0.02933
1658.64179	0.02957
1657.35602	0.02975
1656.07025	0.02973
1654.78448	0.02942
1653.49871	0.02918
1652.21294	0.02945
1650.92717	0.03008
1649.64140	0.03049
1648.35564	0.03047
1647.06987	0.03036
1645.78410	0.03048
1644.49833	0.03081
1643.21256	0.03113
1641.92679	0.03135
1640.64102	0.03154
1639.35525	0.03169
1638.06949	0.03172
1636.78372	0.03168
1635.49795	0.03183
1634.21218	0.03224
1632.92641	0.03269
1631.64064	0.03293
1630.35487	0.03299
1629.06910	0.03305
1627.78333	0.03322
1626.49757	0.03344
1625.21180	0.03362
1623.92603	0.03377
1622.64026	0.03401
1621.35449	0.03435
1620.06872	0.03459
1618.78295	0.03461
1617.49718	0.03454
1616.21142	0.03469
1614.92565	0.03510
1613.63988	0.03552
1612.35411	0.03575
1611.06834	0.03587
1609.78257	0.03598
1608.49680	0.03614
1607.21103	0.03637
1605.92526	0.03664
1604.63950	0.03695
1603.35373	0.03726
1602.06796	0.03754
1600.78219	0.03777
1599.49642	0.03793
1598.21065	0.03802
1596.92488	0.03810
1595.63911	0.03821
1594.35335	0.03834
1593.06758	0.03846
1591.78181	0.03852
1590.49604	0.03853
1589.21027	0.03851
1587.92450	0.03849
1586.63873	0.03848
1585.35296	0.03847
1584.06719	0.03845
1582.78143	0.03843
1581.49566	0.03844
1580.20989	0.03843
1578.92412	0.03829
1577.63835	0.03799
1576.35258	0.03777
1575.06681	0.03788
1573.78104	0.03813
1572.49528	0.03819
1571.20951	0.03802
1569.92374	0.03786
1568.63797	0.03787
1567.35220	0.03795
1566.06643	0.03793
1564.78066	0.03786
1563.49489	0.03778
1562.20912	0.03753
1560.92336	0.03704
1559.63759	0.03660
1558.35182	0.03656
1557.06605	0.03683
1555.78028	0.03701
1554.49451	0.03700
1553.20874	0.03696
1551.92297	0.03695
1550.63721	0.03689
1549.35144	0.03678
1548.06567	0.03664
1546.77990	0.03644
1545.49413	0.03617
1544.20836	0.03587
1542.92259	0.03550
1541.63682	0.03504
1540.35105	0.03466
1539.06529	0.03462
1537.77952	0.03489
1536.49375	0.03512
1535.20798	0.03513
1533.92221	0.03512
1532.63644	0.03534
1531.35067	0.03574
1530.06490	0.03611
1528.77914	0.03635
1527.49337	0.03656
1526.20760	0.03685
1524.92183	0.03722
1523.63606	0.03757
1522.35029	0.03792
1521.06452	0.03845
1519.77875	0.03920
1518.49298	0.03996
1517.20722	0.04065
1515.92145	0.04136
1514.63568	0.04217
1513.34991	0.04304
1512.06414	0.04394
1510.77837	0.04483
1509.49260	0.04559
1508.20683	0.04622
1506.92107	0.04699
1505.63530	0.04816
1504.34953	0.04954
1503.06376	0.05070
1501.77799	0.05147
1500.49222	0.05202
1499.20645	0.05252
1497.92068	0.05301
1496.63491	0.05355
1495.34915	0.05415
1494.06338	0.05472
1492.77761	0.05514
1491.49184	0.05545
1490.20607	0.05586
1488.92030	0.05647
1487.63453	0.05722
1486.34876	0.05803
1485.06299	0.05883
1483.77723	0.05962
1482.49146	0.06040
1481.20569	0.06122
1479.91992	0.06206
1478.63415	0.06285
1477.34838	0.06356
1476.06261	0.06421
1474.77684	0.06481
1473.49108	0.06541
1472.20531	0.06611
1470.91954	0.06689
1469.63377	0.06764
1468.34800	0.06823
1467.06223	0.06864
1465.77646	0.06898
1464.49069	0.06937
1463.20492	0.06987
1461.91916	0.07044
1460.63339	0.07096
1459.34762	0.07131
1458.06185	0.07157
1456.77608	0.07200
1455.49031	0.07270
1454.20454	0.07341
1452.91877	0.07391
1451.63301	0.07421
1450.34724	0.07441
1449.06147	0.07456
1447.77570	0.07465
1446.48993	0.07467
1445.20416	0.07457
1443.91839	0.07434
1442.63262	0.07405
1441.34685	0.07379
1440.06109	0.07349
1438.77532	0.07311
1437.48955	0.07275
1436.20378	0.07264
1434.91801	0.07284
1433.63224	0.07318
1432.34647	0.07355
1431.06070	0.07400
1429.77494	0.07462
1428.48917	0.07543
1427.20340	0.07634
1425.91763	0.07730
1424.63186	0.07828
1423.34609	0.07921
1422.06032	0.08001
1420.77455	0.08062
1419.48878	0.08120
1418.20302	0.08185
1416.91725	0.08249
1415.63148	0.08293
1414.34571	0.08314
1413.05994	0.08317
1411.77417	0.08307
1410.48840	0.08284
1409.20263	0.08245
1407.91687	0.08183
1406.63110	0.08098
1405.34533	0.07996
1404.05956	0.07890
1402.77379	0.07782
1401.48802	0.07665
1400.20225	0.07538
1398.91648	0.07407
1397.63071	0.07276
1396.34495	0.07140
1395.05918	0.07001
1393.77341	0.06865
1392.48764	0.06736
1391.20187	0.06609
1389.91610	0.06478
1388.63033	0.06349
1387.34456	0.06230
1386.05880	0.06121
1384.77303	0.06014
1383.48726	0.05906
1382.20149	0.05799
1380.91572	0.05696
1379.62995	0.05593
1378.34418	0.05480
1377.05841	0.05355
1375.77264	0.05217
1374.48688	0.05071
1373.20111	0.04924
1371.91534	0.04777
1370.62957	0.04634
1369.34380	0.04500
1368.05803	0.04381
1366.77226	0.04274
1365.48649	0.04171
1364.20073	0.04066
1362.91496	0.03960
1361.62919	0.03858
1360.34342	0.03762
1359.05765	0.03672
1357.77188	0.03588
1356.48611	0.03512
1355.20034	0.03444
1353.91457	0.03379
1352.62881	0.03316
1351.34304	0.03253
1350.05727	0.03195
1348.77150	0.03143
1347.48573	0.03095
1346.19996	0.03046
1344.91419	0.02993
1343.62842	0.02940
1342.34266	0.02890
1341.05689	0.02846
1339.77112	0.02809
1338.48535	0.02777
1337.19958	0.02750
1335.91381	0.02726
1334.62804	0.02705
1333.34227	0.02683
1332.05650	0.02659
1330.77074	0.02633
1329.48497	0.02608
1328.19920	0.02585
1326.91343	0.02564
1325.62766	0.02546
1324.34189	0.02530
1323.05612	0.02513
1321.77035	0.02495
1320.48459	0.02475
1319.19882	0.02453
1317.91305	0.02435
1316.62728	0.02421
1315.34151	0.02411
1314.05574	0.02400
1312.76997	0.02385
1311.48420	0.02363
1310.19843	0.02339
1308.91267	0.02320
1307.62690	0.02308
1306.34113	0.02303
1305.05536	0.02298
1303.76959	0.02289
1302.48382	0.02275
1301.19805	0.02259
1299.91228	0.02244
1298.62652	0.02231
1297.34075	0.02220
1296.05498	0.02214
1294.76921	0.02210
1293.48344	0.02207
1292.19767	0.02200
1290.91190	0.02191
1289.62613	0.02181
1288.34036	0.02175
1287.05460	0.02170
1285.76883	0.02164
1284.48306	0.02154
1283.19729	0.02140
1281.91152	0.02126
1280.62575	0.02116
1279.33998	0.02111
1278.05421	0.02109
1276.76845	0.02105
1275.48268	0.02096
1274.19691	0.02082
1272.91114	0.02066
1271.62537	0.02051
1270.33960	0.02041
1269.05383	0.02037
1267.76806	0.02039
1266.48229	0.02042
1265.19653	0.02044
1263.91076	0.02040
1262.62499	0.02031
1261.33922	0.02019
1260.05345	0.02007
1258.76768	0.01998
1257.48191	0.01989
1256.19614	0.01979
1254.91037	0.01969
1253.62461	0.01962
1252.33884	0.01960
1251.05307	0.01958
1249.76730	0.01955
1248.48153	0.01951
1247.19576	0.01948
1245.90999	0.01948
1244.62422	0.01950
1243.33846	0.01954
1242.05269	0.01960
1240.76692	0.01966
1239.48115	0.01967
1238.19538	0.01961
1236.90961	0.01950
1235.62384	0.01942
1234.33807	0.01941
1233.05230	0.01945
1231.76654	0.01947
1230.48077	0.01944
1229.19500	0.01938
1227.90923	0.01933
1226.62346	0.01932
1225.33769	0.01935
1224.05192	0.01940
1222.76615	0.01945
1221.48039	0.01947
1220.19462	0.01946
1218.90885	0.01943
1217.62308	0.01941
1216.33731	0.01942
1215.05154	0.01947
1213.76577	0.01955
1212.48000	0.01965
1211.19423	0.01975
1209.90847	0.01985
1208.62270	0.01994
1207.33693	0.02004
1206.05116	0.02014
1204.76539	0.02023
1203.47962	0.02033
1202.19385	0.02045
1200.90808	0.02052
1199.62232	0.02049
1198.33655	0.02054
1197.05078	0.02057
1195.76501	0.02061
1194.47924	0.02064
1193.19347	0.02069
1191.90770	0.02080
1190.62193	0.02097
1189.33616	0.02114
1188.05040	0.02128
1186.76463	0.02140
1185.47886	0.02153
1184.19309	0.02169
1182.90732	0.02185
1181.62155	0.02198
1180.33578	0.02211
1179.05001	0.02226
1177.76425	0.02245
1176.47848	0.02263
1175.19271	0.02276
1173.90694	0.02286
1172.62117	0.02298
1171.33540	0.02312
1170.04963	0.02326
1168.76386	0.02342
1167.47809	0.02363
1166.19233	0.02392
1164.90656	0.02423
1163.62079	0.02450
1162.33502	0.02471
1161.04925	0.02492
1159.76348	0.02516
1158.47771	0.02542
1157.19194	0.02566
1155.90618	0.02588
1154.62041	0.02608
1153.33464	0.02630
1152.04887	0.02657
1150.76310	0.02689
1149.47733	0.02724
1148.19156	0.02759
1146.90579	0.02797
1145.62002	0.02843
1144.33426	0.02900
1143.04849	0.02961
1141.76272	0.03021
1140.47695	0.03080
1139.19118	0.03148
1137.90541	0.03232
1136.61964	0.03329
1135.33387	0.03435
1134.04811	0.03548
1132.76234	0.03670
1131.47657	0.03807
1130.19080	0.03962
1128.90503	0.04134
1127.61926	0.04319
1126.33349	0.04515
1125.04772	0.04721
1123.76195	0.04938
1122.47619	0.05164
1121.19042	0.05398
1119.90465	0.05640
1118.61888	0.05887
1117.33311	0.06141
1116.04734	0.06396
1114.76157	0.06646
1113.47580	0.06883
1112.19004	0.07108
1110.90427	0.07328
1109.61850	0.07544
1108.33273	0.07756
1107.04696	0.07961
1105.76119	0.08156
1104.47542	0.08339
1103.18965	0.08512
1101.90388	0.08681
1100.61812	0.08853
1099.33235	0.09031
1098.04658	0.09208
1096.76081	0.09376
1095.47504	0.09527
1094.18927	0.09662
1092.90350	0.09784
1091.61773	0.09896
1090.33197	0.09999
1089.04620	0.10095
1087.76043	0.10191
1086.47466	0.10289
1085.18889	0.10392
1083.90312	0.10498
1082.61735	0.10606
1081.33158	0.10720
1080.04581	0.10844
1078.76005	0.10981
1077.47428	0.11134
1076.18851	0.11299
1074.90274	0.11471
1073.61697	0.11649
1072.33120	0.11834
1071.04543	0.12031
1069.75966	0.12240
1068.47390	0.12461
1067.18813	0.12686
1065.90236	0.12916
1064.61659	0.13150
1063.33082	0.13388
1062.04505	0.13626
1060.75928	0.13861
1059.47351	0.14093
1058.18774	0.14324
1056.90198	0.14559
1055.61621	0.14794
1054.33044	0.15025
1053.04467	0.15248
1051.75890	0.15469
1050.47313	0.15697
1049.18736	0.15937
1047.90159	0.16184
1046.61583	0.16433
1045.33006	0.16680
1044.04429	0.16929
1042.75852	0.17182
1041.47275	0.17440
1040.18698	0.17701
1038.90121	0.17967
1037.61544	0.18233
1036.32967	0.18494
1035.04391	0.18741
1033.75814	0.18975
1032.47237	0.19196
1031.18660	0.19402
1029.90083	0.19588
1028.61506	0.19749
1027.32929	0.19885
1026.04352	0.19998
1024.75775	0.20088
1023.47199	0.20150
1022.18622	0.20180
1020.90045	0.20175
1019.61468	0.20140
1018.32891	0.20080
1017.04314	0.19992
1015.75737	0.19870
1014.47160	0.19710
1013.18584	0.19512
1011.90007	0.19283
1010.61430	0.19029
1009.32853	0.18748
1008.04276	0.18433
1006.75699	0.18084
1005.47122	0.17712
1004.18545	0.17321
1002.89968	0.16912
1001.61392	0.16484
1000.32815	0.16042
999.04238	0.15597
997.75661	0.15157
996.47084	0.14720
995.18507	0.14285
993.89930	0.13855
992.61353	0.13431
991.32777	0.13014
990.04200	0.12605
988.75623	0.12209
987.47046	0.11830
986.18469	0.11471
984.89892	0.11129
983.61315	0.10797
982.32738	0.10475
981.04161	0.10166
979.75585	0.09877
978.47008	0.09613
977.18431	0.09374
975.89854	0.09160
974.61277	0.08969
973.32700	0.08801
972.04123	0.08657
970.75546	0.08543
969.46970	0.08465
968.18393	0.08426
966.89816	0.08429
965.61239	0.08468
964.32662	0.08525
963.04085	0.08573
961.75508	0.08590
960.46931	0.08564
959.18354	0.08494
957.89778	0.08380
956.61201	0.08229
955.32624	0.08053
954.04047	0.07864
952.75470	0.07674
951.46893	0.07493
950.18316	0.07321
948.89739	0.07156
947.61163	0.06992
946.32586	0.06829
945.04009	0.06672
943.75432	0.06525
942.46855	0.06386
941.18278	0.06249
939.89701	0.06118
938.61124	0.05998
937.32547	0.05893
936.03971	0.05796
934.75394	0.05700
933.46817	0.05602
932.18240	0.05503
930.89663	0.05407
929.61086	0.05320
928.32509	0.05246
927.03932	0.05182
925.75356	0.05120
924.46779	0.05056
923.18202	0.04994
921.89625	0.04938
920.61048	0.04890
919.32471	0.04843
918.03894	0.04791
916.75317	0.04733
915.46740	0.04673
914.18164	0.04618
912.89587	0.04571
911.61010	0.04530
910.32433	0.04495
909.03856	0.04462
907.75279	0.04428
906.46702	0.04389
905.18125	0.04342
903.89549	0.04290
902.60972	0.04238
901.32395	0.04193
900.03818	0.04156
898.75241	0.04124
897.46664	0.04091
896.18087	0.04057
894.89510	0.04024
893.60933	0.03996
892.32357	0.03975
891.03780	0.03963
889.75203	0.03966
888.46626	0.03988
887.18049	0.04035
885.89472	0.04116
884.60895	0.04242
883.32318	0.04422
882.03742	0.04638
880.75165	0.04852
879.46588	0.05027
878.18011	0.05153
876.89434	0.05256
875.60857	0.05369
874.32280	0.05493
873.03703	0.05596
871.75126	0.05639
870.46550	0.05604
869.17973	0.05498
867.89396	0.05337
866.60819	0.05139
865.32242	0.04930
864.03665	0.04728
862.75088	0.04542
861.46511	0.04373
860.17935	0.04224
858.89358	0.04100
857.60781	0.04002
856.32204	0.03925
855.03627	0.03865
853.75050	0.03816
852.46473	0.03770
851.17896	0.03723
849.89319	0.03676
848.60743	0.03634
847.32166	0.03600
846.03589	0.03573
844.75012	0.03548
843.46435	0.03522
842.17858	0.03494
840.89281	0.03465
839.60704	0.03436
838.32128	0.03410
837.03551	0.03389
835.74974	0.03372
834.46397	0.03359
833.17820	0.03346
831.89243	0.03335
830.60666	0.03326
829.32089	0.03320
828.03512	0.03314
826.74936	0.03307
825.46359	0.03298
824.17782	0.03288
822.89205	0.03278
821.60628	0.03270
820.32051	0.03267
819.03474	0.03265
817.74897	0.03262
816.46321	0.03255
815.17744	0.03250
813.89167	0.03255
812.60590	0.03270
811.32013	0.03285
810.03436	0.03287
808.74859	0.03276
807.46282	0.03266
806.17705	0.03266
804.89129	0.03276
803.60552	0.03294
802.31975	0.03315
801.03398	0.03339
799.74821	0.03362
798.46244	0.03381
797.17667	0.03396
795.89090	0.03406
794.60513	0.03403
793.31937	0.03389
792.03360	0.03371
790.74783	0.03362
789.46206	0.03366
788.17629	0.03375
786.89052	0.03384
785.60475	0.03393
784.31898	0.03403
783.03322	0.03409
781.74745	0.03403
780.46168	0.03389
779.17591	0.03375
777.89014	0.03372
776.60437	0.03377
775.31860	0.03382
774.03283	0.03381
772.74706	0.03378
771.46130	0.03379
770.17553	0.03384
768.88976	0.03385
767.60399	0.03380
766.31822	0.03375
765.03245	0.03372
763.74668	0.03366
762.46091	0.03355
761.17515	0.03345
759.88938	0.03341
758.60361	0.03342
757.31784	0.03338
756.03207	0.03325
754.74630	0.03307
753.46053	0.03291
752.17476	0.03286
750.88899	0.03292
749.60323	0.03301
748.31746	0.03306
747.03169	0.03300
745.74592	0.03283
744.46015	0.03260
743.17438	0.03240
741.88861	0.03230
740.60284	0.03231
739.31708	0.03232
738.03131	0.03226
736.74554	0.03215
735.45977	0.03203
734.17400	0.03190
732.88823	0.03178
731.60246	0.03172
730.31669	0.03176
729.03092	0.03186
727.74516	0.03195
726.45939	0.03200
725.17362	0.03201
723.88785	0.03191
722.60208	0.03205
721.31631	0.03226
720.03054	0.03237
718.74477	0.03239
717.45901	0.03237
716.17324	0.03232
714.88747	0.03217
713.60170	0.03188
712.31593	0.03152
711.03016	0.03118
709.74439	0.03093
708.45862	0.03078
707.17285	0.03073
705.88709	0.03074
704.60132	0.03079
703.31555	0.03083
702.02978	0.03086
700.74401	0.03087
699.45824	0.03091
698.17247	0.03104
696.88670	0.03124
695.60094	0.03146
694.31517	0.03162
693.02940	0.03169
691.74363	0.03168
690.45786	0.03163
689.17209	0.03156
687.88632	0.03147
686.60055	0.03134
685.31478	0.03118
684.02902	0.03100
682.74325	0.03083
681.45748	0.03066
680.17171	0.03050
678.88594	0.03034
677.60017	0.03023
676.31440	0.03015
675.02863	0.03013
673.74287	0.03012
672.45710	0.03008
671.17133	0.02999
669.88556	0.02987
668.59979	0.02981
667.31402	0.02987
666.02825	0.03001
664.74248	0.03012
663.45671	0.03019
662.17095	0.03019
660.88518	0.03014
659.59941	0.03000
658.31364	0.02983
657.02787	0.02969
655.74210	0.02961
654.45633	0.02961
653.17056	0.02967
651.88480	0.02975
650.59903	0.02981
649.31326	0.02985
648.02749	0.02989
646.74172	0.02997
645.45595	0.03010
644.17018	0.03024
642.88441	0.03033
641.59864	0.03037
640.31288	0.03038
639.02711	0.03039
637.74134	0.03040
636.45557	0.03044
635.16980	0.03055
633.88403	0.03075
632.59826	0.03097
631.31249	0.03125
630.02673	0.03212
628.74096	0.03336
627.45519	0.03298
626.16942	0.03457
624.88365	0.03753
623.59788	0.04050
622.31211	0.04294
621.02634	0.04454
619.74057	0.04535
618.45481	0.04592
617.16904	0.04685
615.88327	0.04815
614.59750	0.04928
613.31173	0.04984
612.02596	0.05027
610.74019	0.05174
609.45442	0.05511
608.16866	0.05993
606.88289	0.06504
605.59712	0.06965
604.31135	0.07337
603.02558	0.07576
601.73981	0.07650
600.45404	0.07574
599.16827	0.07404
597.88250	0.07196
596.59674	0.06991
595.31097	0.06808
594.02520	0.06656
592.73943	0.06536
591.45366	0.06452
590.16789	0.06403
588.88212	0.06389
587.59635	0.06407
586.31059	0.06453
585.02482	0.06521
583.73905	0.06606
582.45328	0.06711
581.16751	0.06840
579.88174	0.06989
578.59597	0.07153
577.31020	0.07327
576.02443	0.07506
574.73867	0.07680
573.45290	0.07837
572.16713	0.07978
570.88136	0.08120
569.59559	0.08290
568.30982	0.08503
567.02405	0.08752
565.73828	0.09007
564.45251	0.09228
563.16675	0.09380
561.88098	0.09441
560.59521	0.09404
559.30944	0.09264
558.02367	0.09026
556.73790	0.08700
555.45213	0.08310
554.16636	0.07896
552.88060	0.07494
551.59483	0.07126
550.30906	0.06800
549.02329	0.06516
547.73752	0.06267
546.45175	0.06046
545.16598	0.05848
543.88021	0.05672
542.59444	0.05522
541.30868	0.05392
540.02291	0.05275
538.73714	0.05163
537.45137	0.05056
536.16560	0.04958
534.87983	0.04870
533.59406	0.04787
532.30829	0.04705
531.02253	0.04623
529.73676	0.04545
528.45099	0.04477
527.16522	0.04418
525.87945	0.04361
524.59368	0.04296
523.30791	0.04223
522.02214	0.04151
520.73637	0.04088
519.45061	0.04033
518.16484	0.03981
516.87907	0.03931
515.59330	0.03890
514.30753	0.03858
513.02176	0.03829
511.73599	0.03793
510.45022	0.03748
509.16446	0.03700
507.87869	0.03654
506.59292	0.03615
505.30715	0.03578
504.02138	0.03538
502.73561	0.03499
501.44984	0.03471
500.16407	0.03463
498.87830	0.03470
497.59254	0.03477
496.30677	0.03478
495.02100	0.03477
493.73523	0.03478
492.44946	0.03478
491.16369	0.03475
489.87792	0.03468
488.59215	0.03464
487.30639	0.03464
486.02062	0.03468
484.73485	0.03472
483.44908	0.03481
482.16331	0.03502
480.87754	0.03539
479.59177	0.03584
478.30600	0.03632
477.02023	0.03678
475.73447	0.03722
474.44870	0.03761
473.16293	0.03788
471.87716	0.03805
470.59139	0.03813
469.30562	0.03818
468.01985	0.03820
466.73408	0.03818
465.44832	0.03812
464.16255	0.03805
462.87678	0.03795
461.59101	0.03777
460.30524	0.03750
459.01947	0.03720
457.73370	0.03694
456.44793	0.03673
455.16216	0.03653
453.87640	0.03632
452.59063	0.03610
451.30486	0.03584
450.01909	0.03550
448.73332	0.03511
447.44755	0.03475
446.16178	0.03451
444.87601	0.03438
443.59025	0.03431
442.30448	0.03423
441.01871	0.03416
439.73294	0.03408
438.44717	0.03402
437.16140	0.03399
435.87563	0.03398
434.58986	0.03397
433.30409	0.03391
432.01833	0.03378
430.73256	0.03360
429.44679	0.03338
428.16102	0.03315
426.87525	0.03294
425.58948	0.03275
424.30371	0.03257
423.01794	0.03239
421.73218	0.03217
420.44641	0.03191
419.16064	0.03166
417.87487	0.03145
416.58910	0.03125
415.30333	0.03101
414.01756	0.03071
412.73179	0.03035
411.44602	0.02995
410.16026	0.02955
408.87449	0.02919
407.58872	0.02891
406.30295	0.02873
405.01718	0.02866
403.73141	0.02866
402.44564	0.02868
401.15987	0.02866
399.87411	0.02862
