3997.45528	0.05640
3996.16951	0.05685
3994.88374	0.05762
3993.59798	0.05836
3992.31221	0.05853
3991.02644	0.05797
3989.74067	0.05703
3988.45490	0.05617
3987.16913	0.05559
3985.88336	0.05510
3984.59759	0.05455
3983.31183	0.05418
3982.02606	0.05428
3980.74029	0.05476
3979.45452	0.05510
3978.16875	0.05499
3976.88298	0.05463
3975.59721	0.05448
3974.31144	0.05471
3973.02567	0.05506
3971.73991	0.05515
3970.45414	0.05491
3969.16837	0.05454
3967.88260	0.05432
3966.59683	0.05435
3965.31106	0.05451
3964.02529	0.05459
3962.73952	0.05445
3961.45376	0.05411
3960.16799	0.05373
3958.88222	0.05338
3957.59645	0.05304
3956.31068	0.05262
3955.02491	0.05219
3953.73914	0.05202
3952.45337	0.05236
3951.16760	0.05313
3949.88184	0.05395
3948.59607	0.05439
3947.31030	0.05436
3946.02453	0.05408
3944.73876	0.05383
3943.45299	0.05370
3942.16722	0.05358
3940.88145	0.05330
3939.59569	0.05286
3938.30992	0.05241
3937.02415	0.05215
3935.73838	0.05213
3934.45261	0.05226
3933.16684	0.05244
3931.88107	0.05263
3930.59530	0.05289
3929.30953	0.05324
3928.02377	0.05354
3926.73800	0.05364
3925.45223	0.05349
3924.16646	0.05317
3922.88069	0.05287
3921.59492	0.05264
3920.30915	0.05235
3919.02338	0.05198
3917.73762	0.05165
3916.45185	0.05145
3915.16608	0.05125
3913.88031	0.05085
3912.59454	0.05022
3911.30877	0.04956
3910.02300	0.04907
3908.73723	0.04886
3907.45146	0.04910
3906.16570	0.04997
3904.87993	0.05127
3903.59416	0.05239
3902.30839	0.05276
3901.02262	0.05244
3899.73685	0.05191
3898.45108	0.05158
3897.16531	0.05148
3895.87955	0.05134
3894.59378	0.05102
3893.30801	0.05075
3892.02224	0.05084
3890.73647	0.05133
3889.45070	0.05188
3888.16493	0.05216
3886.87916	0.05198
3885.59339	0.05140
3884.30763	0.05075
3883.02186	0.05034
3881.73609	0.05019
3880.45032	0.05013
3879.16455	0.05005
3877.87878	0.05000
3876.59301	0.04990
3875.30724	0.04966
3874.02148	0.04940
3872.73571	0.04954
3871.44994	0.05026
3870.16417	0.05111
3868.87840	0.05145
3867.59263	0.05120
3866.30686	0.05071
3865.02109	0.05029
3863.73532	0.05011
3862.44956	0.05023
3861.16379	0.05047
3859.87802	0.05052
3858.59225	0.05015
3857.30648	0.04951
3856.02071	0.04903
3854.73494	0.04897
3853.44917	0.04916
3852.16341	0.04933
3850.87764	0.04942
3849.59187	0.04944
3848.30610	0.04939
3847.02033	0.04935
3845.73456	0.04946
3844.44879	0.04971
3843.16302	0.04998
3841.87725	0.05028
3840.59149	0.05064
3839.30572	0.05083
3838.01995	0.05048
3836.73418	0.04961
3835.44841	0.04881
3834.16264	0.04857
3832.87687	0.04879
3831.59110	0.04907
3830.30534	0.04920
3829.01957	0.04926
3827.73380	0.04938
3826.44803	0.04956
3825.16226	0.04975
3823.87649	0.04992
3822.59072	0.04986
3821.30495	0.04933
3820.01918	0.04857
3818.73342	0.04833
3817.44765	0.04897
3816.16188	0.04976
3814.87611	0.04977
3813.59034	0.04900
3812.30457	0.04812
3811.01880	0.04765
3809.73303	0.04764
3808.44726	0.04775
3807.16150	0.04746
3805.87573	0.04658
3804.58996	0.04567
3803.30419	0.04536
3802.01842	0.04558
3800.73265	0.04579
3799.44688	0.04575
3798.16111	0.04571
3796.87535	0.04585
3795.58958	0.04618
3794.30381	0.04671
3793.01804	0.04729
3791.73227	0.04759
3790.44650	0.04739
3789.16073	0.04688
3787.87496	0.04644
3786.58919	0.04634
3785.30343	0.04654
3784.01766	0.04691
3782.73189	0.04743
3781.44612	0.04808
3780.16035	0.04863
3778.87458	0.04868
3777.58881	0.04806
3776.30304	0.04700
3775.01728	0.04598
3773.73151	0.04538
3772.44574	0.04538
3771.15997	0.04587
3769.87420	0.04645
3768.58843	0.04677
3767.30266	0.04672
3766.01689	0.04645
3764.73112	0.04614
3763.44536	0.04605
3762.15959	0.04627
3760.87382	0.04659
3759.58805	0.04666
3758.30228	0.04636
3757.01651	0.04590
3755.73074	0.04552
3754.44497	0.04519
3753.15921	0.04470
3751.87344	0.04407
3750.58767	0.04373
3749.30190	0.04402
3748.01613	0.04481
3746.73036	0.04576
3745.44459	0.04646
3744.15882	0.04659
3742.87305	0.04639
3741.58729	0.04645
3740.30152	0.04682
3739.01575	0.04708
3737.72998	0.04691
3736.44421	0.04636
3735.15844	0.04583
3733.87267	0.04576
3732.58690	0.04607
3731.30114	0.04618
3730.01537	0.04575
3728.72960	0.04505
3727.44383	0.04451
3726.15806	0.04422
3724.87229	0.04403
3723.58652	0.04383
3722.30075	0.04369
3721.01498	0.04377
3719.72922	0.04414
3718.44345	0.04465
3717.15768	0.04508
3715.87191	0.04535
3714.58614	0.04552
3713.30037	0.04554
3712.01460	0.04528
3710.72883	0.04479
3709.44307	0.04431
3708.15730	0.04395
3706.87153	0.04366
3705.58576	0.04345
3704.29999	0.04345
3703.01422	0.04372
3701.72845	0.04402
3700.44268	0.04407
3699.15691	0.04385
3697.87115	0.04363
3696.58538	0.04360
3695.29961	0.04375
3694.01384	0.04390
3692.72807	0.04392
3691.44230	0.04373
3690.15653	0.04336
3688.87076	0.04289
3687.58500	0.04246
3686.29923	0.04235
3685.01346	0.04268
3683.72769	0.04326
3682.44192	0.04373
3681.15615	0.04380
3679.87038	0.04329
3678.58461	0.04236
3677.29884	0.04149
3676.01308	0.04111
3674.72731	0.04127
3673.44154	0.04177
3672.15577	0.04233
3670.87000	0.04265
3669.58423	0.04267
3668.29846	0.04258
3667.01269	0.04248
3665.72693	0.04223
3664.44116	0.04189
3663.15539	0.04168
3661.86962	0.04177
3660.58385	0.04207
3659.29808	0.04244
3658.01231	0.04273
3656.72654	0.04271
3655.44077	0.04221
3654.15501	0.04138
3652.86924	0.04062
3651.58347	0.04021
3650.29770	0.04016
3649.01193	0.04035
3647.72616	0.04070
3646.44039	0.04104
3645.15462	0.04118
3643.86886	0.04101
3642.58309	0.04067
3641.29732	0.04056
3640.01155	0.04095
3638.72578	0.04168
3637.44001	0.04231
3636.15424	0.04255
3634.86847	0.04251
3633.58270	0.04235
3632.29694	0.04214
3631.01117	0.04187
3629.72540	0.04143
3628.43963	0.04077
3627.15386	0.04013
3625.86809	0.03994
3624.58232	0.04046
3623.29655	0.04148
3622.01079	0.04242
3620.72502	0.04275
3619.43925	0.04243
3618.15348	0.04192
3616.86771	0.04176
3615.58194	0.04199
3614.29617	0.04215
3613.01040	0.04180
3611.72463	0.04090
3610.43887	0.03979
3609.15310	0.03900
3607.86733	0.03894
3606.58156	0.03964
3605.29579	0.04057
3604.01002	0.04107
3602.72425	0.04097
3601.43848	0.04064
3600.15272	0.04053
3598.86695	0.04071
3597.58118	0.04092
3596.29541	0.04095
3595.00964	0.04079
3593.72387	0.04055
3592.43810	0.04036
3591.15233	0.04020
3589.86656	0.04000
3588.58080	0.03973
3587.29503	0.03941
3586.00926	0.03915
3584.72349	0.03905
3583.43772	0.03911
3582.15195	0.03918
3580.86618	0.03918
3579.58041	0.03921
3578.29464	0.03934
3577.00888	0.03952
3575.72311	0.03958
3574.43734	0.03954
3573.15157	0.03966
3571.86580	0.04012
3570.58003	0.04078
3569.29426	0.04120
3568.00849	0.04105
3566.72273	0.04046
3565.43696	0.03985
3564.15119	0.03958
3562.86542	0.03957
3561.57965	0.03957
3560.29388	0.03944
3559.00811	0.03932
3557.72234	0.03936
3556.43657	0.03956
3555.15081	0.03977
3553.86504	0.03991
3552.57927	0.03995
3551.29350	0.03986
3550.00773	0.03962
3548.72196	0.03932
3547.43619	0.03911
3546.15042	0.03906
3544.86466	0.03910
3543.57889	0.03914
3542.29312	0.03920
3541.00735	0.03931
3539.72158	0.03939
3538.43581	0.03927
3537.15004	0.03886
3535.86427	0.03825
3534.57850	0.03765
3533.29274	0.03729
3532.00697	0.03732
3530.72120	0.03770
3529.43543	0.03816
3528.14966	0.03844
3526.86389	0.03845
3525.57812	0.03829
3524.29235	0.03806
3523.00659	0.03776
3521.72082	0.03744
3520.43505	0.03727
3519.14928	0.03738
3517.86351	0.03771
3516.57774	0.03808
3515.29197	0.03832
3514.00620	0.03838
3512.72043	0.03845
3511.43467	0.03876
3510.14890	0.03932
3508.86313	0.03978
3507.57736	0.03978
3506.29159	0.03930
3505.00582	0.03868
3503.72005	0.03835
3502.43428	0.03841
3501.14852	0.03864
3499.86275	0.03873
3498.57698	0.03847
3497.29121	0.03790
3496.00544	0.03721
3494.71967	0.03664
3493.43390	0.03638
3492.14813	0.03647
3490.86236	0.03677
3489.57660	0.03704
3488.29083	0.03707
3487.00506	0.03695
3485.71929	0.03695
3484.43352	0.03728
3483.14775	0.03779
3481.86198	0.03807
3480.57621	0.03791
3479.29045	0.03760
3478.00468	0.03759
3476.71891	0.03797
3475.43314	0.03836
3474.14737	0.03832
3472.86160	0.03777
3471.57583	0.03696
3470.29006	0.03626
3469.00429	0.03593
3467.71853	0.03599
3466.43276	0.03622
3465.14699	0.03634
3463.86122	0.03626
3462.57545	0.03613
3461.28968	0.03611
3460.00391	0.03626
3458.71814	0.03648
3457.43238	0.03666
3456.14661	0.03676
3454.86084	0.03677
3453.57507	0.03671
3452.28930	0.03663
3451.00353	0.03663
3449.71776	0.03676
3448.43199	0.03698
3447.14622	0.03719
3445.86046	0.03738
3444.57469	0.03757
3443.28892	0.03764
3442.00315	0.03745
3440.71738	0.03699
3439.43161	0.03647
3438.14584	0.03602
3436.86007	0.03564
3435.57431	0.03531
3434.28854	0.03512
3433.00277	0.03515
3431.71700	0.03536
3430.43123	0.03560
3429.14546	0.03575
3427.85969	0.03576
3426.57392	0.03574
3425.28815	0.03584
3424.00239	0.03616
3422.71662	0.03660
3421.43085	0.03690
3420.14508	0.03688
3418.85931	0.03660
3417.57354	0.03626
3416.28777	0.03601
3415.00200	0.03581
3413.71624	0.03567
3412.43047	0.03566
3411.14470	0.03586
3409.85893	0.03618
3408.57316	0.03648
3407.28739	0.03677
3406.00162	0.03723
3404.71585	0.03800
3403.43008	0.03891
3402.14432	0.03957
3400.85855	0.03971
3399.57278	0.03943
3398.28701	0.03902
3397.00124	0.03861
3395.71547	0.03820
3394.42970	0.03780
3393.14393	0.03750
3391.85817	0.03735
3390.57240	0.03727
3389.28663	0.03730
3388.00086	0.03763
3386.71509	0.03835
3385.42932	0.03923
3384.14355	0.03988
3382.85778	0.04008
3381.57201	0.03984
3380.28625	0.03929
3379.00048	0.03859
3377.71471	0.03799
3376.42894	0.03772
3375.14317	0.03785
3373.85740	0.03826
3372.57163	0.03875
3371.28586	0.03922
3370.00010	0.03964
3368.71433	0.03995
3367.42856	0.04011
3366.14279	0.04013
3364.85702	0.04007
3363.57125	0.04002
3362.28548	0.04008
3360.99971	0.04035
3359.71394	0.04078
3358.42818	0.04116
3357.14241	0.04124
3355.85664	0.04103
3354.57087	0.04078
3353.28510	0.04073
3351.99933	0.04085
3350.71356	0.04093
3349.42779	0.04089
3348.14202	0.04090
3346.85626	0.04115
3345.57049	0.04157
3344.28472	0.04186
3342.99895	0.04180
3341.71318	0.04141
3340.42741	0.04100
3339.14164	0.04099
3337.85587	0.04149
3336.57011	0.04225
3335.28434	0.04289
3333.99857	0.04317
3332.71280	0.04323
3331.42703	0.04330
3330.14126	0.04353
3328.85549	0.04388
3327.56972	0.04423
3326.28395	0.04449
3324.99819	0.04462
3323.71242	0.04463
3322.42665	0.04451
3321.14088	0.04432
3319.85511	0.04418
3318.56934	0.04419
3317.28357	0.04440
3315.99780	0.04476
3314.71204	0.04514
3313.42627	0.04536
3312.14050	0.04537
3310.85473	0.04538
3309.56896	0.04560
3308.28319	0.04591
3306.99742	0.04601
3305.71165	0.04583
3304.42588	0.04563
3303.14012	0.04563
3301.85435	0.04581
3300.56858	0.04606
3299.28281	0.04639
3297.99704	0.04680
3296.71127	0.04720
3295.42550	0.04741
3294.13973	0.04738
3292.85397	0.04716
3291.56820	0.04687
3290.28243	0.04663
3288.99666	0.04653
3287.71089	0.04654
3286.42512	0.04661
3285.13935	0.04674
3283.85358	0.04698
3282.56781	0.04732
3281.28205	0.04762
3279.99628	0.04780
3278.71051	0.04787
3277.42474	0.04789
3276.13897	0.04788
3274.85320	0.04783
3273.56743	0.04784
3272.28166	0.04803
3270.99590	0.04835
3269.71013	0.04854
3268.42436	0.04840
3267.13859	0.04799
3265.85282	0.04758
3264.56705	0.04734
3263.28128	0.04726
3261.99551	0.04730
3260.70974	0.04745
3259.42398	0.04773
3258.13821	0.04799
3256.85244	0.04807
3255.56667	0.04795
3254.28090	0.04778
3252.99513	0.04765
3251.70936	0.04748
3250.42359	0.04725
3249.13783	0.04709
3247.85206	0.04717
3246.56629	0.04747
3245.28052	0.04783
3243.99475	0.04815
3242.70898	0.04845
3241.42321	0.04874
3240.13744	0.04897
3238.85167	0.04907
3237.56591	0.04900
3236.28014	0.04878
3234.99437	0.04852
3233.70860	0.04833
3232.42283	0.04826
3231.13706	0.04823
3229.85129	0.04818
3228.56552	0.04814
3227.27976	0.04823
3225.99399	0.04849
3224.70822	0.04870
3223.42245	0.04865
3222.13668	0.04835
3220.85091	0.04814
3219.56514	0.04827
3218.27937	0.04870
3216.99360	0.04913
3215.70784	0.04929
3214.42207	0.04908
3213.13630	0.04865
3211.85053	0.04826
3210.56476	0.04805
3209.27899	0.04800
3207.99322	0.04802
3206.70745	0.04811
3205.42169	0.04831
3204.13592	0.04859
3202.85015	0.04875
3201.56438	0.04867
3200.27861	0.04847
3198.99284	0.04851
3197.70707	0.04904
3196.42130	0.04993
3195.13553	0.05069
3193.84977	0.05086
3192.56400	0.05043
3191.27823	0.04977
3189.99246	0.04931
3188.70669	0.04918
3187.42092	0.04918
3186.13515	0.04912
3184.84938	0.04901
3183.56362	0.04899
3182.27785	0.04913
3180.99208	0.04933
3179.70631	0.04955
3178.42054	0.04976
3177.13477	0.04993
3175.84900	0.05000
3174.56323	0.04996
3173.27746	0.04980
3171.99170	0.04950
3170.70593	0.04903
3169.42016	0.04853
3168.13439	0.04820
3166.84862	0.04810
3165.56285	0.04810
3164.27708	0.04805
3162.99131	0.04800
3161.70555	0.04808
3160.41978	0.04834
3159.13401	0.04863
3157.84824	0.04876
3156.56247	0.04867
3155.27670	0.04850
3153.99093	0.04840
3152.70516	0.04838
3151.41939	0.04842
3150.13363	0.04855
3148.84786	0.04877
3147.56209	0.04893
3146.27632	0.04892
3144.99055	0.04878
3143.70478	0.04867
3142.41901	0.04867
3141.13324	0.04870
3139.84748	0.04863
3138.56171	0.04844
3137.27594	0.04822
3135.99017	0.04809
3134.70440	0.04811
3133.41863	0.04819
3132.13286	0.04815
3130.84709	0.04790
3129.56132	0.04756
3128.27556	0.04733
3126.98979	0.04735
3125.70402	0.04756
3124.41825	0.04778
3123.13248	0.04784
3121.84671	0.04769
3120.56094	0.04741
3119.27517	0.04716
3117.98940	0.04708
3116.70364	0.04726
3115.41787	0.04769
3114.13210	0.04824
3112.84633	0.04875
3111.56056	0.04910
3110.27479	0.04922
3108.98902	0.04908
3107.70325	0.04877
3106.41749	0.04847
3105.13172	0.04834
3103.84595	0.04839
3102.56018	0.04850
3101.27441	0.04859
3099.98864	0.04867
3098.70287	0.04882
3097.41710	0.04909
3096.13133	0.04944
3094.84557	0.04974
3093.55980	0.04982
3092.27403	0.04956
3090.98826	0.04903
3089.70249	0.04852
3088.41672	0.04827
3087.13095	0.04828
3085.84518	0.04835
3084.55942	0.04830
3083.27365	0.04820
3081.98788	0.04821
3080.70211	0.04839
3079.41634	0.04865
3078.13057	0.04883
3076.84480	0.04886
3075.55903	0.04881
3074.27326	0.04880
3072.98750	0.04887
3071.70173	0.04890
3070.41596	0.04874
3069.13019	0.04839
3067.84442	0.04807
3066.55865	0.04802
3065.27288	0.04825
3063.98711	0.04854
3062.70135	0.04868
3061.41558	0.04867
3060.12981	0.04864
3058.84404	0.04863
3057.55827	0.04856
3056.27250	0.04837
3054.98673	0.04807
3053.70096	0.04775
3052.41519	0.04752
3051.12943	0.04745
3049.84366	0.04752
3048.55789	0.04773
3047.27212	0.04798
3045.98635	0.04816
3044.70058	0.04818
3043.41481	0.04807
3042.12904	0.04796
3040.84328	0.04791
3039.55751	0.04788
3038.27174	0.04777
3036.98597	0.04752
3035.70020	0.04720
3034.41443	0.04696
3033.12866	0.04691
3031.84289	0.04704
3030.55712	0.04722
3029.27136	0.04725
3027.98559	0.04705
3026.69982	0.04671
3025.41405	0.04638
3024.12828	0.04614
3022.84251	0.04595
3021.55674	0.04574
3020.27097	0.04559
3018.98521	0.04560
3017.69944	0.04572
3016.41367	0.04576
3015.12790	0.04556
3013.84213	0.04517
3012.55636	0.04482
3011.27059	0.04468
3009.98482	0.04478
3008.69905	0.04502
3007.41329	0.04528
3006.12752	0.04547
3004.84175	0.04550
3003.55598	0.04533
3002.27021	0.04503
3000.98444	0.04470
2999.69867	0.04439
2998.41290	0.04407
2997.12714	0.04374
2995.84137	0.04350
2994.55560	0.04340
2993.26983	0.04332
2991.98406	0.04316
2990.69829	0.04300
2989.41252	0.04300
2988.12675	0.04309
2986.84098	0.04308
2985.55522	0.04291
2984.26945	0.04270
2982.98368	0.04253
2981.69791	0.04234
2980.41214	0.04208
2979.12637	0.04174
2977.84060	0.04143
2976.55483	0.04117
2975.26907	0.04094
2973.98330	0.04064
2972.69753	0.04023
2971.41176	0.03980
2970.12599	0.03947
2968.84022	0.03922
2967.55445	0.03891
2966.26868	0.03848
2964.98291	0.03800
2963.69715	0.03750
2962.41138	0.03701
2961.12561	0.03650
2959.83984	0.03604
2958.55407	0.03576
2957.26830	0.03574
2955.98253	0.03589
2954.69676	0.03597
2953.41100	0.03578
2952.12523	0.03527
2950.83946	0.03460
2949.55369	0.03404
2948.26792	0.03376
2946.98215	0.03372
2945.69638	0.03368
2944.41061	0.03340
2943.12484	0.03273
2941.83908	0.03167
2940.55331	0.03037
2939.26754	0.02909
2937.98177	0.02804
2936.69600	0.02712
2935.41023	0.02602
2934.12446	0.02464
2932.83869	0.02313
2931.55293	0.02175
2930.26716	0.02060
2928.98139	0.01961
2927.69562	0.01873
2926.40985	0.01799
2925.12408	0.01736
2923.83831	0.01685
2922.55254	0.01650
2921.26677	0.01641
2919.98101	0.01662
2918.69524	0.01711
2917.40947	0.01791
2916.12370	0.01914
2914.83793	0.02084
2913.55216	0.02285
2912.26639	0.02481
2910.98062	0.02640
2909.69486	0.02753
2908.40909	0.02830
2907.12332	0.02895
2905.83755	0.02965
2904.55178	0.03047
2903.26601	0.03135
2901.98024	0.03215
2900.69447	0.03278
2899.40870	0.03326
2898.12294	0.03363
2896.83717	0.03393
2895.55140	0.03420
2894.26563	0.03448
2892.97986	0.03482
2891.69409	0.03520
2890.40832	0.03551
2889.12255	0.03559
2887.83678	0.03539
2886.55102	0.03508
2885.26525	0.03489
2883.97948	0.03492
2882.69371	0.03504
2881.40794	0.03508
2880.12217	0.03502
2878.83640	0.03495
2877.55063	0.03499
2876.26487	0.03511
2874.97910	0.03515
2873.69333	0.03492
2872.40756	0.03444
2871.12179	0.03397
2869.83602	0.03370
2868.55025	0.03358
2867.26448	0.03337
2865.97871	0.03289
2864.69295	0.03215
2863.40718	0.03124
2862.12141	0.03027
2860.83564	0.02931
2859.54987	0.02840
2858.26410	0.02750
2856.97833	0.02655
2855.69256	0.02562
2854.40680	0.02481
2853.12103	0.02421
2851.83526	0.02391
2850.54949	0.02412
2849.26372	0.02502
2847.97795	0.02660
2846.69218	0.02857
2845.40641	0.03051
2844.12064	0.03212
2842.83488	0.03334
2841.54911	0.03429
2840.26334	0.03516
2838.97757	0.03595
2837.69180	0.03656
2836.40603	0.03693
2835.12026	0.03715
2833.83449	0.03737
2832.54873	0.03764
2831.26296	0.03792
2829.97719	0.03816
2828.69142	0.03831
2827.40565	0.03833
2826.11988	0.03830
2824.83411	0.03827
2823.54834	0.03830
2822.26257	0.03832
2820.97681	0.03826
2819.69104	0.03811
2818.40527	0.03791
2817.11950	0.03774
2815.83373	0.03767
2814.54796	0.03771
2813.26219	0.03777
2811.97642	0.03776
2810.69066	0.03772
2809.40489	0.03771
2808.11912	0.03779
2806.83335	0.03791
2805.54758	0.03799
2804.26181	0.03797
2802.97604	0.03784
2801.69027	0.03765
2800.40450	0.03749
2799.11874	0.03737
2797.83297	0.03723
2796.54720	0.03702
2795.26143	0.03679
2793.97566	0.03666
2792.68989	0.03674
2791.40412	0.03695
2790.11835	0.03712
2788.83259	0.03709
2787.54682	0.03693
2786.26105	0.03680
2784.97528	0.03683
2783.68951	0.03697
2782.40374	0.03709
2781.11797	0.03709
2779.83220	0.03701
2778.54643	0.03697
2777.26067	0.03706
2775.97490	0.03727
2774.68913	0.03752
2773.40336	0.03769
2772.11759	0.03771
2770.83182	0.03752
2769.54605	0.03717
2768.26028	0.03678
2766.97452	0.03645
2765.68875	0.03624
2764.40298	0.03616
2763.11721	0.03622
2761.83144	0.03634
2760.54567	0.03634
2759.25990	0.03615
2757.97413	0.03594
2756.68836	0.03591
2755.40260	0.03610
2754.11683	0.03631
2752.83106	0.03638
2751.54529	0.03628
2750.25952	0.03614
2748.97375	0.03606
2747.68798	0.03608
2746.40221	0.03614
2745.11645	0.03618
2743.83068	0.03620
2742.54491	0.03625
2741.25914	0.03633
2739.97337	0.03639
2738.68760	0.03631
2737.40183	0.03608
2736.11606	0.03581
2734.83029	0.03567
2733.54453	0.03572
2732.25876	0.03581
2730.97299	0.03573
2729.68722	0.03540
2728.40145	0.03501
2727.11568	0.03481
2725.82991	0.03486
2724.54414	0.03503
2723.25838	0.03516
2721.97261	0.03525
2720.68684	0.03531
2719.40107	0.03539
2718.11530	0.03550
2716.82953	0.03557
2715.54376	0.03547
2714.25799	0.03521
2712.97222	0.03496
2711.68646	0.03490
2710.40069	0.03500
2709.11492	0.03509
2707.82915	0.03505
2706.54338	0.03491
2705.25761	0.03480
2703.97184	0.03475
2702.68607	0.03475
2701.40031	0.03474
2700.11454	0.03470
2698.82877	0.03470
2697.54300	0.03474
2696.25723	0.03475
2694.97146	0.03465
2693.68569	0.03443
2692.39992	0.03420
2691.11415	0.03405
2689.82839	0.03402
2688.54262	0.03404
2687.25685	0.03407
2685.97108	0.03406
2684.68531	0.03399
2683.39954	0.03390
2682.11377	0.03384
2680.82800	0.03382
2679.54224	0.03383
2678.25647	0.03386
2676.97070	0.03392
2675.68493	0.03395
2674.39916	0.03390
2673.11339	0.03376
2671.82762	0.03362
2670.54185	0.03353
2669.25608	0.03349
2667.97032	0.03348
2666.68455	0.03354
2665.39878	0.03366
2664.11301	0.03378
2662.82724	0.03385
2661.54147	0.03387
2660.25570	0.03393
2658.96993	0.03405
2657.68417	0.03414
2656.39840	0.03407
2655.11263	0.03381
2653.82686	0.03351
2652.54109	0.03331
2651.25532	0.03322
2649.96955	0.03316
2648.68378	0.03304
2647.39801	0.03285
2646.11225	0.03262
2644.82648	0.03246
2643.54071	0.03243
2642.25494	0.03250
2640.96917	0.03255
2639.68340	0.03247
2638.39763	0.03227
2637.11186	0.03207
2635.82609	0.03190
2634.54033	0.03175
2633.25456	0.03154
2631.96879	0.03133
2630.68302	0.03129
2629.39725	0.03147
2628.11148	0.03175
2626.82571	0.03190
2625.53994	0.03176
2624.25418	0.03141
2622.96841	0.03104
2621.68264	0.03079
2620.39687	0.03063
2619.11110	0.03047
2617.82533	0.03029
2616.53956	0.03009
2615.25379	0.02990
2613.96802	0.02981
2612.68226	0.02992
2611.39649	0.03019
2610.11072	0.03049
2608.82495	0.03070
2607.53918	0.03075
2606.25341	0.03066
2604.96764	0.03051
2603.68187	0.03039
2602.39611	0.03033
2601.11034	0.03022
2599.82457	0.02999
2598.53880	0.02972
2597.25303	0.02961
2595.96726	0.02972
2594.68149	0.02990
2593.39572	0.02992
2592.10995	0.02971
2590.82419	0.02944
2589.53842	0.02933
2588.25265	0.02934
2586.96688	0.02933
2585.68111	0.02921
2584.39534	0.02911
2583.10957	0.02915
2581.82380	0.02929
2580.53804	0.02941
2579.25227	0.02948
2577.96650	0.02954
2576.68073	0.02961
2575.39496	0.02965
2574.10919	0.02961
2572.82342	0.02947
2571.53765	0.02918
2570.25188	0.02876
2568.96612	0.02836
2567.68035	0.02818
2566.39458	0.02827
2565.10881	0.02847
2563.82304	0.02853
2562.53727	0.02835
2561.25150	0.02805
2559.96573	0.02773
2558.67997	0.02738
2557.39420	0.02708
2556.10843	0.02702
2554.82266	0.02732
2553.53689	0.02786
2552.25112	0.02838
2550.96535	0.02876
2549.67958	0.02889
2548.39381	0.02873
2547.10805	0.02837
2545.82228	0.02807
2544.53651	0.02793
2543.25074	0.02776
2541.96497	0.02738
2540.67920	0.02699
2539.39343	0.02696
2538.10766	0.02733
2536.82190	0.02777
2535.53613	0.02796
2534.25036	0.02782
2532.96459	0.02747
2531.67882	0.02701
2530.39305	0.02658
2529.10728	0.02636
2527.82151	0.02644
2526.53574	0.02668
2525.24998	0.02686
2523.96421	0.02689
2522.67844	0.02690
2521.39267	0.02700
2520.10690	0.02715
2518.82113	0.02736
2517.53536	0.02776
2516.24959	0.02832
2514.96383	0.02866
2513.67806	0.02837
2512.39229	0.02754
2511.10652	0.02673
2509.82075	0.02642
2508.53498	0.02660
2507.24921	0.02698
2505.96344	0.02727
2504.67767	0.02735
2503.39191	0.02727
2502.10614	0.02705
2500.82037	0.02671
2499.53460	0.02628
2498.24883	0.02588
2496.96306	0.02571
2495.67729	0.02584
2494.39152	0.02617
2493.10576	0.02648
2491.81999	0.02658
2490.53422	0.02647
2489.24845	0.02629
2487.96268	0.02619
2486.67691	0.02618
2485.39114	0.02618
2484.10537	0.02621
2482.81960	0.02631
2481.53384	0.02648
2480.24807	0.02662
2478.96230	0.02662
2477.67653	0.02653
2476.39076	0.02648
2475.10499	0.02648
2473.81922	0.02646
2472.53345	0.02634
2471.24769	0.02619
2469.96192	0.02608
2468.67615	0.02602
2467.39038	0.02599
2466.10461	0.02604
2464.81884	0.02614
2463.53307	0.02617
2462.24730	0.02600
2460.96153	0.02571
2459.67577	0.02550
2458.39000	0.02552
2457.10423	0.02571
2455.81846	0.02587
2454.53269	0.02583
2453.24692	0.02565
2451.96115	0.02550
2450.67538	0.02543
2449.38962	0.02540
2448.10385	0.02538
2446.81808	0.02542
2445.53231	0.02553
2444.24654	0.02564
2442.96077	0.02568
2441.67500	0.02559
2440.38923	0.02538
2439.10346	0.02515
2437.81770	0.02501
2436.53193	0.02500
2435.24616	0.02502
2433.96039	0.02497
2432.67462	0.02485
2431.38885	0.02477
2430.10308	0.02479
2428.81731	0.02493
2427.53155	0.02509
2426.24578	0.02516
2424.96001	0.02509
2423.67424	0.02508
2422.38847	0.02531
2421.10270	0.02574
2419.81693	0.02607
2418.53116	0.02603
2417.24539	0.02561
2415.95963	0.02503
2414.67386	0.02460
2413.38809	0.02451
2412.10232	0.02474
2410.81655	0.02510
2409.53078	0.02536
2408.24501	0.02544
2406.95924	0.02539
2405.67347	0.02525
2404.38771	0.02506
2403.10194	0.02486
2401.81617	0.02468
2400.53040	0.02458
2399.24463	0.02450
2397.95886	0.02447
2396.67309	0.02441
2395.38732	0.02429
2394.10156	0.02417
2392.81579	0.02414
2391.53002	0.02424
2390.24425	0.02442
2388.95848	0.02453
2387.67271	0.02450
2386.38694	0.02439
2385.10117	0.02436
2383.81540	0.02448
2382.52964	0.02475
2381.24387	0.02508
2379.95810	0.02537
2378.67233	0.02552
2377.38656	0.02553
2376.10079	0.02545
2374.81502	0.02532
2373.52925	0.02513
2372.24349	0.02482
2370.95772	0.02444
2369.67195	0.02416
2368.38618	0.02415
2367.10041	0.02434
2365.81464	0.02453
2364.52887	0.02454
2363.24310	0.02444
2361.95733	0.02445
2360.67157	0.02473
2359.38580	0.02515
2358.10003	0.02548
2356.81426	0.02555
2355.52849	0.02536
2354.24272	0.02505
2352.95695	0.02478
2351.67118	0.02463
2350.38542	0.02458
2349.09965	0.02459
2347.81388	0.02462
2346.52811	0.02468
2345.24234	0.02474
2343.95657	0.02470
2342.67080	0.02460
2341.38503	0.02457
2340.09926	0.02467
2338.81350	0.02484
2337.52773	0.02499
2336.24196	0.02507
2334.95619	0.02497
2333.67042	0.02461
2332.38465	0.02421
2331.09888	0.02409
2329.81311	0.02421
2328.52735	0.02436
2327.24158	0.02462
2325.95581	0.02497
2324.67004	0.02528
2323.38427	0.02551
2322.09850	0.02555
2320.81273	0.02528
2319.52696	0.02495
2318.24119	0.02473
2316.95543	0.02465
2315.66966	0.02468
2314.38389	0.02464
2313.09812	0.02442
2311.81235	0.02412
2310.52658	0.02383
2309.24081	0.02367
2307.95504	0.02370
2306.66928	0.02382
2305.38351	0.02393
2304.09774	0.02391
2302.81197	0.02377
2301.52620	0.02366
2300.24043	0.02366
2298.95466	0.02373
2297.66889	0.02370
2296.38312	0.02354
2295.09736	0.02338
2293.81159	0.02331
2292.52582	0.02335
2291.24005	0.02338
2289.95428	0.02332
2288.66851	0.02317
2287.38274	0.02293
2286.09697	0.02259
2284.81121	0.02216
2283.52544	0.02166
2282.23967	0.02118
2280.95390	0.02081
2279.66813	0.02065
2278.38236	0.02070
2277.09659	0.02095
2275.81082	0.02135
2274.52505	0.02178
2273.23929	0.02208
2271.95352	0.02215
2270.66775	0.02195
2269.38198	0.02155
2268.09621	0.02104
2266.81044	0.02058
2265.52467	0.02031
2264.23890	0.02024
2262.95314	0.02029
2261.66737	0.02037
2260.38160	0.02045
2259.09583	0.02053
2257.81006	0.02057
2256.52429	0.02058
2255.23852	0.02059
2253.95275	0.02066
2252.66698	0.02075
2251.38122	0.02071
2250.09545	0.02052
2248.80968	0.02032
2247.52391	0.02022
2246.23814	0.02042
2244.95237	0.02069
2243.66660	0.02060
2242.38083	0.02006
2241.09507	0.01937
2239.80930	0.01892
2238.52353	0.01889
2237.23776	0.01908
2235.95199	0.01920
2234.66622	0.01900
2233.38045	0.01837
2232.09468	0.01749
2230.80891	0.01674
2229.52315	0.01651
2228.23738	0.01686
2226.95161	0.01747
2225.66584	0.01792
2224.38007	0.01800
2223.09430	0.01772
2221.80853	0.01720
2220.52276	0.01664
2219.23700	0.01626
2217.95123	0.01617
2216.66546	0.01627
2215.37969	0.01641
2214.09392	0.01654
2212.80815	0.01667
2211.52238	0.01666
2210.23661	0.01637
2208.95084	0.01602
2207.66508	0.01609
2206.37931	0.01662
2205.09354	0.01711
2203.80777	0.01700
2202.52200	0.01638
2201.23623	0.01573
2199.95046	0.01538
2198.66469	0.01529
2197.37893	0.01535
2196.09316	0.01550
2194.80739	0.01569
2193.52162	0.01575
2192.23585	0.01549
2190.95008	0.01487
2189.66431	0.01408
2188.37854	0.01348
2187.09277	0.01334
2185.80701	0.01372
2184.52124	0.01456
2183.23547	0.01571
2181.94970	0.01690
2180.66393	0.01777
2179.37816	0.01800
2178.09239	0.01748
2176.80662	0.01631
2175.52085	0.01479
2174.23509	0.01340
2172.94932	0.01266
2171.66355	0.01283
2170.37778	0.01365
2169.09201	0.01436
2167.80624	0.01425
2166.52047	0.01335
2165.23470	0.01245
2163.94894	0.01218
2162.66317	0.01226
2161.37740	0.01184
2160.09163	0.01050
2158.80586	0.00880
2157.52009	0.00766
2156.23432	0.00750
2154.94855	0.00804
2153.66278	0.00867
2152.37702	0.00904
2151.09125	0.00933
2149.80548	0.00991
2148.51971	0.01078
2147.23394	0.01135
2145.94817	0.01108
2144.66240	0.01009
2143.37663	0.00917
2142.09087	0.00910
2140.80510	0.01006
2139.51933	0.01158
2138.23356	0.01285
2136.94779	0.01342
2135.66202	0.01356
2134.37625	0.01393
2133.09048	0.01469
2131.80471	0.01530
2130.51895	0.01525
2129.23318	0.01463
2127.94741	0.01387
2126.66164	0.01331
2125.37587	0.01317
2124.09010	0.01364
2122.80433	0.01460
2121.51856	0.01539
2120.23280	0.01542
2118.94703	0.01472
2117.66126	0.01386
2116.37549	0.01337
2115.08972	0.01337
2113.80395	0.01373
2112.51818	0.01421
2111.23241	0.01452
2109.94664	0.01446
2108.66088	0.01406
2107.37511	0.01354
2106.08934	0.01312
2104.80357	0.01297
2103.51780	0.01316
2102.23203	0.01368
2100.94626	0.01434
2099.66049	0.01467
2098.37473	0.01479
2097.08896	0.01458
2095.80319	0.01399
2094.51742	0.01326
2093.23165	0.01268
2091.94588	0.01239
2090.66011	0.01235
2089.37434	0.01247
2088.08857	0.01274
2086.80281	0.01309
2085.51704	0.01340
2084.23127	0.01358
2082.94550	0.01364
2081.65973	0.01369
2080.37396	0.01376
2079.08819	0.01385
2077.80242	0.01392
2076.51666	0.01397
2075.23089	0.01392
2073.94512	0.01369
2072.65935	0.01332
2071.37358	0.01298
2070.08781	0.01286
2068.80204	0.01294
2067.51627	0.01305
2066.23050	0.01298
2064.94474	0.01262
2063.65897	0.01208
2062.37320	0.01172
2061.08743	0.01179
2059.80166	0.01212
2058.51589	0.01225
2057.23012	0.01196
2055.94435	0.01157
2054.65859	0.01146
2053.37282	0.01153
2052.08705	0.01123
2050.80128	0.01024
2049.51551	0.00887
2048.22974	0.00782
2046.94397	0.00748
2045.65820	0.00772
2044.37243	0.00816
2043.08667	0.00857
2041.80090	0.00888
2040.51513	0.00894
2039.22936	0.00858
2037.94359	0.00772
2036.65782	0.00643
2035.37205	0.00495
2034.08628	0.00372
2032.80052	0.00321
2031.51475	0.00362
2030.22898	0.00467
2028.94321	0.00587
2027.65744	0.00681
2026.37167	0.00733
2025.08590	0.00736
2023.80013	0.00680
2022.51436	0.00582
2021.22860	0.00497
2019.94283	0.00495
2018.65706	0.00594
2017.37129	0.00733
2016.08552	0.00822
2014.79975	0.00820
2013.51398	0.00758
2012.22821	0.00703
2010.94245	0.00711
2009.65668	0.00787
2008.37091	0.00893
2007.08514	0.00979
2005.79937	0.01025
2004.51360	0.01041
2003.22783	0.01042
2001.94206	0.01030
2000.65629	0.01004
1999.37053	0.00970
1998.08476	0.00946
1996.79899	0.00944
1995.51322	0.00963
1994.22745	0.00992
1992.94168	0.01026
1991.65591	0.01074
1990.37014	0.01151
1989.08438	0.01238
1987.79861	0.01281
1986.51284	0.01231
1985.22707	0.01098
1983.94130	0.00950
1982.65553	0.00857
1981.36976	0.00847
1980.08399	0.00902
1978.79822	0.00971
1977.51246	0.01007
1976.22669	0.01010
1974.94092	0.01030
1973.65515	0.01106
1972.36938	0.01216
1971.08361	0.01297
1969.79784	0.01321
1968.51207	0.01319
1967.22631	0.01321
1965.94054	0.01310
1964.65477	0.01246
1963.36900	0.01127
1962.08323	0.01006
1960.79746	0.00945
1959.51169	0.00965
1958.22592	0.01038
1956.94015	0.01123
1955.65439	0.01194
1954.36862	0.01237
1953.08285	0.01245
1951.79708	0.01226
1950.51131	0.01189
1949.22554	0.01139
1947.93977	0.01072
1946.65400	0.00998
1945.36823	0.00946
1944.08247	0.00947
1942.79670	0.01001
1941.51093	0.01076
1940.22516	0.01139
1938.93939	0.01175
1937.65362	0.01193
1936.36785	0.01204
1935.08208	0.01217
1933.79632	0.01234
1932.51055	0.01252
1931.22478	0.01262
1929.93901	0.01257
1928.65324	0.01241
1927.36747	0.01227
1926.08170	0.01229
1924.79593	0.01256
1923.51016	0.01310
1922.22440	0.01370
1920.93863	0.01405
1919.65286	0.01397
1918.36709	0.01352
1917.08132	0.01301
1915.79555	0.01270
1914.50978	0.01274
1913.22401	0.01308
1911.93825	0.01357
1910.65248	0.01399
1909.36671	0.01418
1908.08094	0.01407
1906.79517	0.01377
1905.50940	0.01350
1904.22363	0.01344
1902.93786	0.01359
1901.65209	0.01376
1900.36633	0.01373
1899.08056	0.01347
1897.79479	0.01317
1896.50902	0.01313
1895.22325	0.01345
1893.93748	0.01396
1892.65171	0.01431
1891.36594	0.01432
1890.08018	0.01404
1888.79441	0.01371
1887.50864	0.01352
1886.22287	0.01352
1884.93710	0.01355
1883.65133	0.01343
1882.36556	0.01311
1881.07979	0.01274
1879.79402	0.01254
1878.50826	0.01262
1877.22249	0.01294
1875.93672	0.01336
1874.65095	0.01376
1873.36518	0.01404
1872.07941	0.01419
1870.79364	0.01427
1869.50787	0.01436
1868.22211	0.01442
1866.93634	0.01435
1865.65057	0.01407
1864.36480	0.01366
1863.07903	0.01333
1861.79326	0.01319
1860.50749	0.01319
1859.22172	0.01320
1857.93595	0.01316
1856.65019	0.01315
1855.36442	0.01323
1854.07865	0.01335
1852.79288	0.01340
1851.50711	0.01332
1850.22134	0.01319
1848.93557	0.01311
1847.64980	0.01314
1846.36404	0.01330
1845.07827	0.01351
1843.79250	0.01362
1842.50673	0.01353
1841.22096	0.01333
1839.93519	0.01316
1838.64942	0.01310
1837.36365	0.01311
1836.07788	0.01316
1834.79212	0.01324
1833.50635	0.01338
1832.22058	0.01358
1830.93481	0.01375
1829.64904	0.01379
1828.36327	0.01367
1827.07750	0.01353
1825.79173	0.01344
1824.50597	0.01336
1823.22020	0.01323
1821.93443	0.01303
1820.64866	0.01279
1819.36289	0.01257
1818.07712	0.01249
1816.79135	0.01261
1815.50558	0.01290
1814.21981	0.01325
1812.93405	0.01355
1811.64828	0.01376
1810.36251	0.01385
1809.07674	0.01382
1807.79097	0.01370
1806.50520	0.01349
1805.21943	0.01325
1803.93366	0.01307
1802.64790	0.01300
1801.36213	0.01299
1800.07636	0.01299
1798.79059	0.01295
1797.50482	0.01289
1796.21905	0.01287
1794.93328	0.01293
1793.64751	0.01308
1792.36174	0.01322
1791.07598	0.01326
1789.79021	0.01321
1788.50444	0.01316
1787.21867	0.01314
1785.93290	0.01311
1784.64713	0.01305
1783.36136	0.01297
1782.07559	0.01293
1780.78983	0.01296
1779.50406	0.01300
1778.21829	0.01300
1776.93252	0.01292
1775.64675	0.01278
1774.36098	0.01262
1773.07521	0.01247
1771.78944	0.01231
1770.50367	0.01224
1769.21791	0.01232
1767.93214	0.01248
1766.64637	0.01257
1765.36060	0.01256
1764.07483	0.01246
1762.78906	0.01231
1761.50329	0.01207
1760.21752	0.01177
1758.93176	0.01148
1757.64599	0.01121
1756.36022	0.01096
1755.07445	0.01075
1753.78868	0.01061
1752.50291	0.01049
1751.21714	0.01024
1749.93137	0.00982
1748.64560	0.00932
1747.35984	0.00887
1746.07407	0.00853
1744.78830	0.00828
1743.50253	0.00810
1742.21676	0.00793
1740.93099	0.00772
1739.64522	0.00737
1738.35945	0.00693
1737.07369	0.00658
1735.78792	0.00645
1734.50215	0.00644
1733.21638	0.00635
1731.93061	0.00615
1730.64484	0.00601
1729.35907	0.00599
1728.07330	0.00606
1726.78753	0.00622
1725.50177	0.00647
1724.21600	0.00675
1722.93023	0.00699
1721.64446	0.00724
1720.35869	0.00759
1719.07292	0.00809
1717.78715	0.00863
1716.50138	0.00910
1715.21561	0.00954
1713.92985	0.01002
1712.64408	0.01053
1711.35831	0.01101
1710.07254	0.01146
1708.78677	0.01194
1707.50100	0.01249
1706.21523	0.01312
1704.92946	0.01374
1703.64370	0.01440
1702.35793	0.01522
1701.07216	0.01618
1699.78639	0.01708
1698.50062	0.01793
1697.21485	0.01889
1695.92908	0.01993
1694.64331	0.02090
1693.35754	0.02187
1692.07178	0.02295
1690.78601	0.02408
1689.50024	0.02507
1688.21447	0.02589
1686.92870	0.02669
1685.64293	0.02755
1684.35716	0.02837
1683.07139	0.02908
1681.78563	0.02978
1680.49986	0.03054
1679.21409	0.03130
1677.92832	0.03202
1676.64255	0.03276
1675.35678	0.03350
1674.07101	0.03423
1672.78524	0.03498
1671.49947	0.03580
1670.21371	0.03658
1668.92794	0.03723
1667.64217	0.03776
1666.35640	0.03828
1665.07063	0.03890
1663.78486	0.03960
1662.49909	0.04033
1661.21332	0.04106
1659.92756	0.04179
1658.64179	0.04248
1657.35602	0.04311
1656.07025	0.04377
1654.78448	0.04460
1653.49871	0.04546
1652.21294	0.04606
1650.92717	0.04638
1649.64140	0.04671
1648.35564	0.04718
1647.06987	0.04768
1645.78410	0.04807
1644.49833	0.04835
1643.21256	0.04859
1641.92679	0.04881
1640.64102	0.04894
1639.35525	0.04895
1638.06949	0.04890
1636.78372	0.04885
1635.49795	0.04875
1634.21218	0.04857
1632.92641	0.04836
1631.64064	0.04813
1630.35487	0.04781
1629.06910	0.04731
1627.78333	0.04662
1626.49757	0.04584
1625.21180	0.04504
1623.92603	0.04425
1622.64026	0.04341
1621.35449	0.04248
1620.06872	0.04152
1618.78295	0.04063
1617.49718	0.03977
1616.21142	0.03887
1614.92565	0.03792
1613.63988	0.03701
1612.35411	0.03617
1611.06834	0.03532
1609.78257	0.03447
1608.49680	0.03365
1607.21103	0.03293
1605.92526	0.03230
1604.63950	0.03173
1603.35373	0.03116
1602.06796	0.03061
1600.78219	0.03011
1599.49642	0.02973
1598.21065	0.02946
1596.92488	0.02929
1595.63911	0.02917
1594.35335	0.02908
1593.06758	0.02903
1591.78181	0.02904
1590.49604	0.02911
1589.21027	0.02926
1587.92450	0.02945
1586.63873	0.02967
1585.35296	0.02990
1584.06719	0.03019
1582.78143	0.03054
1581.49566	0.03092
1580.20989	0.03132
1578.92412	0.03177
1577.63835	0.03232
1576.35258	0.03287
1575.06681	0.03330
1573.78104	0.03370
1572.49528	0.03423
1571.20951	0.03492
1569.92374	0.03563
1568.63797	0.03628
1567.35220	0.03690
1566.06643	0.03750
1564.78066	0.03804
1563.49489	0.03851
1562.20912	0.03900
1560.92336	0.03963
1559.63759	0.04029
1558.35182	0.04080
1557.06605	0.04119
1555.78028	0.04164
1554.49451	0.04219
1553.20874	0.04273
1551.92297	0.04324
1550.63721	0.04372
1549.35144	0.04417
1548.06567	0.04454
1546.77990	0.04482
1545.49413	0.04501
1544.20836	0.04515
1542.92259	0.04532
1541.63682	0.04560
1540.35105	0.04595
1539.06529	0.04620
1537.77952	0.04629
1536.49375	0.04638
1535.20798	0.04658
1533.92221	0.04682
1532.63644	0.04699
1531.35067	0.04710
1530.06490	0.04723
1528.77914	0.04742
1527.49337	0.04764
1526.20760	0.04785
1524.92183	0.04802
1523.63606	0.04824
1522.35029	0.04850
1521.06452	0.04875
1519.77875	0.04895
1518.49298	0.04916
1517.20722	0.04940
1515.92145	0.04964
1514.63568	0.04986
1513.34991	0.05012
1512.06414	0.05040
1510.77837	0.05065
1509.49260	0.05093
1508.20683	0.05130
1506.92107	0.05171
1505.63530	0.05202
1504.34953	0.05221
1503.06376	0.05239
1501.77799	0.05258
1500.49222	0.05271
1499.20645	0.05278
1497.92068	0.05284
1496.63491	0.05288
1495.34915	0.05287
1494.06338	0.05282
1492.77761	0.05284
1491.49184	0.05295
1490.20607	0.05309
1488.92030	0.05322
1487.63453	0.05335
1486.34876	0.05354
1485.06299	0.05382
1483.77723	0.05417
1482.49146	0.05456
1481.20569	0.05494
1479.91992	0.05532
1478.63415	0.05572
1477.34838	0.05618
1476.06261	0.05663
1474.77684	0.05702
1473.49108	0.05729
1472.20531	0.05738
1470.91954	0.05733
1469.63377	0.05730
1468.34800	0.05741
1467.06223	0.05772
1465.77646	0.05819
1464.49069	0.05871
1463.20492	0.05918
1461.91916	0.05959
1460.63339	0.06002
1459.34762	0.06056
1458.06185	0.06124
1456.77608	0.06191
1455.49031	0.06246
1454.20454	0.06292
1452.91877	0.06337
1451.63301	0.06384
1450.34724	0.06433
1449.06147	0.06485
1447.77570	0.06534
1446.48993	0.06569
1445.20416	0.06588
1443.91839	0.06593
1442.63262	0.06587
1441.34685	0.06576
1440.06109	0.06565
1438.77532	0.06563
1437.48955	0.06569
1436.20378	0.06575
1434.91801	0.06577
1433.63224	0.06587
1432.34647	0.06610
1431.06070	0.06647
1429.77494	0.06693
1428.48917	0.06748
1427.20340	0.06813
1425.91763	0.06885
1424.63186	0.06956
1423.34609	0.07020
1422.06032	0.07083
1420.77455	0.07150
1419.48878	0.07218
1418.20302	0.07279
1416.91725	0.07331
1415.63148	0.07381
1414.34571	0.07426
1413.05994	0.07462
1411.77417	0.07484
1410.48840	0.07490
1409.20263	0.07483
1407.91687	0.07468
1406.63110	0.07449
1405.34533	0.07424
1404.05956	0.07386
1402.77379	0.07332
1401.48802	0.07265
1400.20225	0.07185
1398.91648	0.07095
1397.63071	0.06997
1396.34495	0.06896
1395.05918	0.06793
1393.77341	0.06686
1392.48764	0.06571
1391.20187	0.06452
1389.91610	0.06331
1388.63033	0.06209
1387.34456	0.06081
1386.05880	0.05945
1384.77303	0.05802
1383.48726	0.05659
1382.20149	0.05519
1380.91572	0.05385
1379.62995	0.05253
1378.34418	0.05123
1377.05841	0.04992
1375.77264	0.04864
1374.48688	0.04738
1373.20111	0.04611
1371.91534	0.04482
1370.62957	0.04355
1369.34380	0.04234
1368.05803	0.04119
1366.77226	0.04010
1365.48649	0.03906
1364.20073	0.03809
1362.91496	0.03717
1361.62919	0.03627
1360.34342	0.03540
1359.05765	0.03461
1357.77188	0.03391
1356.48611	0.03328
1355.20034	0.03270
1353.91457	0.03215
1352.62881	0.03161
1351.34304	0.03111
1350.05727	0.03068
1348.77150	0.03033
1347.48573	0.03004
1346.19996	0.02977
1344.91419	0.02951
1343.62842	0.02925
1342.34266	0.02901
1341.05689	0.02878
1339.77112	0.02853
1338.48535	0.02823
1337.19958	0.02790
1335.91381	0.02757
1334.62804	0.02727
1333.34227	0.02702
1332.05650	0.02677
1330.77074	0.02653
1329.48497	0.02626
1328.19920	0.02596
1326.91343	0.02561
1325.62766	0.02525
1324.34189	0.02490
1323.05612	0.02460
1321.77035	0.02434
1320.48459	0.02413
1319.19882	0.02393
1317.91305	0.02373
1316.62728	0.02352
1315.34151	0.02330
1314.05574	0.02309
1312.76997	0.02288
1311.48420	0.02268
1310.19843	0.02249
1308.91267	0.02230
1307.62690	0.02213
1306.34113	0.02197
1305.05536	0.02178
1303.76959	0.02155
1302.48382	0.02130
1301.19805	0.02103
1299.91228	0.02077
1298.62652	0.02052
1297.34075	0.02025
1296.05498	0.01994
1294.76921	0.01959
1293.48344	0.01920
1292.19767	0.01881
1290.91190	0.01843
1289.62613	0.01806
1288.34036	0.01768
1287.05460	0.01730
1285.76883	0.01694
1284.48306	0.01660
1283.19729	0.01626
1281.91152	0.01592
1280.62575	0.01565
1279.33998	0.01551
1278.05421	0.01553
1276.76845	0.01572
1275.48268	0.01599
1274.19691	0.01627
1272.91114	0.01652
1271.62537	0.01672
1270.33960	0.01687
1269.05383	0.01694
1267.76806	0.01694
1266.48229	0.01692
1265.19653	0.01688
1263.91076	0.01685
1262.62499	0.01682
1261.33922	0.01683
1260.05345	0.01690
1258.76768	0.01705
1257.48191	0.01725
1256.19614	0.01745
1254.91037	0.01756
1253.62461	0.01757
1252.33884	0.01755
1251.05307	0.01754
1249.76730	0.01757
1248.48153	0.01765
1247.19576	0.01777
1245.90999	0.01792
1244.62422	0.01807
1243.33846	0.01818
1242.05269	0.01821
1240.76692	0.01816
1239.48115	0.01806
1238.19538	0.01792
1236.90961	0.01779
1235.62384	0.01767
1234.33807	0.01757
1233.05230	0.01749
1231.76654	0.01742
1230.48077	0.01733
1229.19500	0.01716
1227.90923	0.01689
1226.62346	0.01655
1225.33769	0.01621
1224.05192	0.01591
1222.76615	0.01569
1221.48039	0.01552
1220.19462	0.01538
1218.90885	0.01522
1217.62308	0.01503
1216.33731	0.01483
1215.05154	0.01464
1213.76577	0.01449
1212.48000	0.01438
1211.19423	0.01428
1209.90847	0.01421
1208.62270	0.01416
1207.33693	0.01415
1206.05116	0.01416
1204.76539	0.01417
1203.47962	0.01417
1202.19385	0.01414
1200.90808	0.01410
1199.62232	0.01407
1198.33655	0.01398
1197.05078	0.01387
1195.76501	0.01373
1194.47924	0.01355
1193.19347	0.01335
1191.90770	0.01313
1190.62193	0.01292
1189.33616	0.01270
1188.05040	0.01250
1186.76463	0.01233
1185.47886	0.01222
1184.19309	0.01217
1182.90732	0.01218
1181.62155	0.01224
1180.33578	0.01232
1179.05001	0.01235
1177.76425	0.01231
1176.47848	0.01218
1175.19271	0.01201
1173.90694	0.01186
1172.62117	0.01175
1171.33540	0.01167
1170.04963	0.01157
1168.76386	0.01146
1167.47809	0.01131
1166.19233	0.01113
1164.90656	0.01091
1163.62079	0.01070
1162.33502	0.01058
1161.04925	0.01058
1159.76348	0.01071
1158.47771	0.01093
1157.19194	0.01120
1155.90618	0.01152
1154.62041	0.01187
1153.33464	0.01225
1152.04887	0.01264
1150.76310	0.01302
1149.47733	0.01339
1148.19156	0.01373
1146.90579	0.01406
1145.62002	0.01440
1144.33426	0.01477
1143.04849	0.01519
1141.76272	0.01563
1140.47695	0.01607
1139.19118	0.01652
1137.90541	0.01701
1136.61964	0.01757
1135.33387	0.01821
1134.04811	0.01897
1132.76234	0.01984
1131.47657	0.02082
1130.19080	0.02194
1128.90503	0.02320
1127.61926	0.02460
1126.33349	0.02612
1125.04772	0.02774
1123.76195	0.02951
1122.47619	0.03143
1121.19042	0.03348
1119.90465	0.03561
1118.61888	0.03777
1117.33311	0.03990
1116.04734	0.04200
1114.76157	0.04404
1113.47580	0.04608
1112.19004	0.04813
1110.90427	0.05020
1109.61850	0.05228
1108.33273	0.05441
1107.04696	0.05659
1105.76119	0.05874
1104.47542	0.06075
1103.18965	0.06261
1101.90388	0.06437
1100.61812	0.06609
1099.33235	0.06773
1098.04658	0.06928
1096.76081	0.07074
1095.47504	0.07214
1094.18927	0.07353
1092.90350	0.07493
1091.61773	0.07634
1090.33197	0.07771
1089.04620	0.07899
1087.76043	0.08019
1086.47466	0.08140
1085.18889	0.08271
1083.90312	0.08413
1082.61735	0.08560
1081.33158	0.08709
1080.04581	0.08858
1078.76005	0.09008
1077.47428	0.09161
1076.18851	0.09320
1074.90274	0.09487
1073.61697	0.09663
1072.33120	0.09850
1071.04543	0.10047
1069.75966	0.10250
1068.47390	0.10451
1067.18813	0.10651
1065.90236	0.10858
1064.61659	0.11079
1063.33082	0.11312
1062.04505	0.11546
1060.75928	0.11773
1059.47351	0.11998
1058.18774	0.12227
1056.90198	0.12459
1055.61621	0.12687
1054.33044	0.12904
1053.04467	0.13111
1051.75890	0.13309
1050.47313	0.13506
1049.18736	0.13710
1047.90159	0.13926
1046.61583	0.14153
1045.33006	0.14386
1044.04429	0.14620
1042.75852	0.14855
1041.47275	0.15089
1040.18698	0.15321
1038.90121	0.15552
1037.61544	0.15781
1036.32967	0.16011
1035.04391	0.16241
1033.75814	0.16469
1032.47237	0.16689
1031.18660	0.16895
1029.90083	0.17081
1028.61506	0.17247
1027.32929	0.17397
1026.04352	0.17529
1024.75775	0.17640
1023.47199	0.17732
1022.18622	0.17813
1020.90045	0.17880
1019.61468	0.17922
1018.32891	0.17928
1017.04314	0.17895
1015.75737	0.17827
1014.47160	0.17730
1013.18584	0.17607
1011.90007	0.17459
1010.61430	0.17286
1009.32853	0.17086
1008.04276	0.16857
1006.75699	0.16598
1005.47122	0.16314
1004.18545	0.16010
1002.89968	0.15690
1001.61392	0.15357
1000.32815	0.15012
999.04238	0.14652
997.75661	0.14276
996.47084	0.13887
995.18507	0.13493
993.89930	0.13102
992.61353	0.12716
991.32777	0.12334
990.04200	0.11955
988.75623	0.11580
987.47046	0.11215
986.18469	0.10865
984.89892	0.10531
983.61315	0.10209
982.32738	0.09896
981.04161	0.09595
979.75585	0.09313
978.47008	0.09049
977.18431	0.08798
975.89854	0.08559
974.61277	0.08338
973.32700	0.08143
972.04123	0.07978
970.75546	0.07843
969.46970	0.07742
968.18393	0.07679
966.89816	0.07654
965.61239	0.07659
964.32662	0.07680
963.04085	0.07703
961.75508	0.07712
960.46931	0.07699
959.18354	0.07663
957.89778	0.07600
956.61201	0.07509
955.32624	0.07391
954.04047	0.07252
952.75470	0.07102
951.46893	0.06946
950.18316	0.06786
948.89739	0.06625
947.61163	0.06468
946.32586	0.06321
945.04009	0.06185
943.75432	0.06059
942.46855	0.05938
941.18278	0.05817
939.89701	0.05697
938.61124	0.05579
937.32547	0.05465
936.03971	0.05353
934.75394	0.05243
933.46817	0.05138
932.18240	0.05041
930.89663	0.04951
929.61086	0.04866
928.32509	0.04787
927.03932	0.04716
925.75356	0.04653
924.46779	0.04594
923.18202	0.04536
921.89625	0.04478
920.61048	0.04423
919.32471	0.04370
918.03894	0.04319
916.75317	0.04268
915.46740	0.04218
914.18164	0.04169
912.89587	0.04122
911.61010	0.04078
910.32433	0.04043
909.03856	0.04019
907.75279	0.03997
906.46702	0.03964
905.18125	0.03910
903.89549	0.03847
902.60972	0.03791
901.32395	0.03751
900.03818	0.03726
898.75241	0.03712
897.46664	0.03702
896.18087	0.03689
894.89510	0.03665
893.60933	0.03632
892.32357	0.03600
891.03780	0.03574
889.75203	0.03561
888.46626	0.03561
887.18049	0.03577
885.89472	0.03618
884.60895	0.03694
883.32318	0.03816
882.03742	0.03981
880.75165	0.04165
879.46588	0.04333
878.18011	0.04467
876.89434	0.04571
875.60857	0.04663
874.32280	0.04751
873.03703	0.04824
871.75126	0.04865
870.46550	0.04864
869.17973	0.04823
867.89396	0.04751
866.60819	0.04655
865.32242	0.04538
864.03665	0.04407
862.75088	0.04273
861.46511	0.04146
860.17935	0.04028
858.89358	0.03918
857.60781	0.03812
856.32204	0.03714
855.03627	0.03633
853.75050	0.03571
852.46473	0.03523
851.17896	0.03474
849.89319	0.03421
848.60743	0.03369
847.32166	0.03327
846.03589	0.03293
844.75012	0.03259
843.46435	0.03223
842.17858	0.03185
840.89281	0.03151
839.60704	0.03127
838.32128	0.03114
837.03551	0.03107
835.74974	0.03101
834.46397	0.03095
833.17820	0.03089
831.89243	0.03081
830.60666	0.03066
829.32089	0.03047
828.03512	0.03025
826.74936	0.03004
825.46359	0.02984
824.17782	0.02964
822.89205	0.02951
821.60628	0.02946
820.32051	0.02945
819.03474	0.02943
817.74897	0.02935
816.46321	0.02927
815.17744	0.02924
813.89167	0.02928
812.60590	0.02930
811.32013	0.02925
810.03436	0.02913
808.74859	0.02901
807.46282	0.02898
806.17705	0.02903
804.89129	0.02913
803.60552	0.02923
802.31975	0.02931
801.03398	0.02936
799.74821	0.02936
798.46244	0.02932
797.17667	0.02930
795.89090	0.02931
794.60513	0.02929
793.31937	0.02918
792.03360	0.02903
790.74783	0.02894
789.46206	0.02895
788.17629	0.02901
786.89052	0.02907
785.60475	0.02911
784.31898	0.02909
783.03322	0.02901
781.74745	0.02886
780.46168	0.02872
779.17591	0.02864
777.89014	0.02861
776.60437	0.02860
775.31860	0.02860
774.03283	0.02863
772.74706	0.02868
771.46130	0.02874
770.17553	0.02875
768.88976	0.02873
767.60399	0.02870
766.31822	0.02873
765.03245	0.02883
763.74668	0.02898
762.46091	0.02911
761.17515	0.02920
759.88938	0.02925
758.60361	0.02927
757.31784	0.02928
756.03207	0.02929
754.74630	0.02933
753.46053	0.02937
752.17476	0.02937
750.88899	0.02930
749.60323	0.02922
748.31746	0.02920
747.03169	0.02927
745.74592	0.02933
744.46015	0.02930
743.17438	0.02917
741.88861	0.02902
740.60284	0.02897
739.31708	0.02905
738.03131	0.02921
736.74554	0.02938
735.45977	0.02949
734.17400	0.02951
732.88823	0.02949
731.60246	0.02943
730.31669	0.02935
729.03092	0.02923
727.74516	0.02910
726.45939	0.02897
725.17362	0.02889
723.88785	0.02883
722.60208	0.02888
721.31631	0.02898
720.03054	0.02909
718.74477	0.02918
717.45901	0.02923
716.17324	0.02923
714.88747	0.02914
713.60170	0.02900
712.31593	0.02890
711.03016	0.02887
709.74439	0.02891
708.45862	0.02899
707.17285	0.02911
705.88709	0.02925
704.60132	0.02938
703.31555	0.02948
702.02978	0.02953
700.74401	0.02954
699.45824	0.02953
698.17247	0.02952
696.88670	0.02952
695.60094	0.02954
694.31517	0.02955
693.02940	0.02955
691.74363	0.02954
690.45786	0.02953
689.17209	0.02949
687.88632	0.02940
686.60055	0.02929
685.31478	0.02919
684.02902	0.02913
682.74325	0.02911
681.45748	0.02910
680.17171	0.02909
678.88594	0.02907
677.60017	0.02904
676.31440	0.02901
675.02863	0.02896
673.74287	0.02890
672.45710	0.02886
671.17133	0.02886
669.88556	0.02891
668.59979	0.02897
667.31402	0.02898
666.02825	0.02893
664.74248	0.02877
663.45671	0.02859
662.17095	0.02843
660.88518	0.02834
659.59941	0.02831
658.31364	0.02830
657.02787	0.02827
655.74210	0.02821
654.45633	0.02814
653.17056	0.02810
651.88480	0.02808
650.59903	0.02807
649.31326	0.02804
648.02749	0.02801
646.74172	0.02796
645.45595	0.02787
644.17018	0.02775
642.88441	0.02761
641.59864	0.02751
640.31288	0.02749
639.02711	0.02756
637.74134	0.02768
636.45557	0.02782
635.16980	0.02796
633.88403	0.02809
632.59826	0.02825
631.31249	0.02840
630.02673	0.02840
628.74096	0.02834
627.45519	0.02879
626.16942	0.02904
624.88365	0.02932
623.59788	0.02993
622.31211	0.03086
621.02634	0.03207
619.74057	0.03362
618.45481	0.03584
617.16904	0.03901
615.88327	0.04287
614.59750	0.04653
613.31173	0.04905
612.02596	0.05034
610.74019	0.05134
609.45442	0.05329
608.16866	0.05667
606.88289	0.06105
605.59712	0.06561
604.31135	0.06953
603.02558	0.07212
601.73981	0.07311
600.45404	0.07270
599.16827	0.07143
597.88250	0.06978
596.59674	0.06806
595.31097	0.06642
594.02520	0.06497
592.73943	0.06374
591.45366	0.06278
590.16789	0.06210
588.88212	0.06175
587.59635	0.06180
586.31059	0.06229
585.02482	0.06320
583.73905	0.06448
582.45328	0.06604
581.16751	0.06778
579.88174	0.06960
578.59597	0.07142
577.31020	0.07321
576.02443	0.07493
574.73867	0.07654
573.45290	0.07805
572.16713	0.07958
570.88136	0.08128
569.59559	0.08324
568.30982	0.08544
567.02405	0.08782
565.73828	0.09027
564.45251	0.09265
563.16675	0.09472
561.88098	0.09613
560.59521	0.09650
559.30944	0.09562
558.02367	0.09358
556.73790	0.09071
555.45213	0.08738
554.16636	0.08388
552.88060	0.08040
551.59483	0.07702
550.30906	0.07377
549.02329	0.07068
547.73752	0.06777
546.45175	0.06508
545.16598	0.06268
543.88021	0.06058
542.59444	0.05875
541.30868	0.05711
540.02291	0.05561
538.73714	0.05424
537.45137	0.05302
536.16560	0.05197
534.87983	0.05105
533.59406	0.05022
532.30829	0.04937
531.02253	0.04842
529.73676	0.04737
528.45099	0.04632
527.16522	0.04538
525.87945	0.04457
524.59368	0.04377
523.30791	0.04295
522.02214	0.04213
520.73637	0.04141
519.45061	0.04080
518.16484	0.04022
516.87907	0.03964
515.59330	0.03905
514.30753	0.03849
513.02176	0.03792
511.73599	0.03733
510.45022	0.03673
509.16446	0.03619
507.87869	0.03572
506.59292	0.03535
505.30715	0.03508
504.02138	0.03487
502.73561	0.03463
501.44984	0.03424
500.16407	0.03372
498.87830	0.03313
497.59254	0.03255
496.30677	0.03200
495.02100	0.03150
493.73523	0.03110
492.44946	0.03085
491.16369	0.03077
489.87792	0.03079
488.59215	0.03081
487.30639	0.03078
486.02062	0.03069
484.73485	0.03057
483.44908	0.03044
482.16331	0.03034
480.87754	0.03030
479.59177	0.03032
478.30600	0.03036
477.02023	0.03036
475.73447	0.03036
474.44870	0.03042
473.16293	0.03056
471.87716	0.03074
470.59139	0.03088
469.30562	0.03090
468.01985	0.03078
466.73408	0.03060
465.44832	0.03040
464.16255	0.03018
462.87678	0.02988
461.59101	0.02949
460.30524	0.02908
459.01947	0.02872
457.73370	0.02846
456.44793	0.02826
455.16216	0.02804
453.87640	0.02776
452.59063	0.02739
451.30486	0.02699
450.01909	0.02665
448.73332	0.02641
447.44755	0.02628
446.16178	0.02616
444.87601	0.02602
443.59025	0.02584
442.30448	0.02563
441.01871	0.02542
439.73294	0.02523
438.44717	0.02506
437.16140	0.02490
435.87563	0.02479
434.58986	0.02476
433.30409	0.02482
432.01833	0.02491
430.73256	0.02493
429.44679	0.02485
428.16102	0.02467
426.87525	0.02445
425.58948	0.02424
424.30371	0.02405
423.01794	0.02387
421.73218	0.02371
420.44641	0.02359
419.16064	0.02350
417.87487	0.02338
416.58910	0.02320
415.30333	0.02295
414.01756	0.02270
412.73179	0.02251
411.44602	0.02239
410.16026	0.02234
408.87449	0.02230
407.58872	0.02224
406.30295	0.02216
405.01718	0.02208
403.73141	0.02202
402.44564	0.02200
401.15987	0.02203
399.87411	0.02209
