3997.45528	0.06110
3996.16951	0.06103
3994.88374	0.06081
3993.59798	0.06035
3992.31221	0.05984
3991.02644	0.05970
3989.74067	0.06012
3988.45490	0.06090
3987.16913	0.06156
3985.88336	0.06178
3984.59759	0.06165
3983.31183	0.06159
3982.02606	0.06187
3980.74029	0.06234
3979.45452	0.06255
3978.16875	0.06227
3976.88298	0.06171
3975.59721	0.06132
3974.31144	0.06140
3973.02567	0.06196
3971.73991	0.06284
3970.45414	0.06368
3969.16837	0.06407
3967.88260	0.06374
3966.59683	0.06269
3965.31106	0.06119
3964.02529	0.05970
3962.73952	0.05868
3961.45376	0.05843
3960.16799	0.05885
3958.88222	0.05955
3957.59645	0.06015
3956.31068	0.06056
3955.02491	0.06087
3953.73914	0.06114
3952.45337	0.06131
3951.16760	0.06137
3949.88184	0.06150
3948.59607	0.06176
3947.31030	0.06194
3946.02453	0.06177
3944.73876	0.06130
3943.45299	0.06083
3942.16722	0.06055
3940.88145	0.06042
3939.59569	0.06032
3938.30992	0.06021
3937.02415	0.06014
3935.73838	0.06015
3934.45261	0.06019
3933.16684	0.06023
3931.88107	0.06028
3930.59530	0.06038
3929.30953	0.06058
3928.02377	0.06086
3926.73800	0.06125
3925.45223	0.06173
3924.16646	0.06219
3922.88069	0.06247
3921.59492	0.06242
3920.30915	0.06198
3919.02338	0.06122
3917.73762	0.06033
3916.45185	0.05955
3915.16608	0.05900
3913.88031	0.05871
3912.59454	0.05862
3911.30877	0.05863
3910.02300	0.05867
3908.73723	0.05863
3907.45146	0.05844
3906.16570	0.05810
3904.87993	0.05778
3903.59416	0.05765
3902.30839	0.05777
3901.02262	0.05797
3899.73685	0.05803
3898.45108	0.05788
3897.16531	0.05761
3895.87955	0.05741
3894.59378	0.05742
3893.30801	0.05767
3892.02224	0.05807
3890.73647	0.05847
3889.45070	0.05875
3888.16493	0.05888
3886.87916	0.05896
3885.59339	0.05917
3884.30763	0.05962
3883.02186	0.06018
3881.73609	0.06055
3880.45032	0.06045
3879.16455	0.05983
3877.87878	0.05893
3876.59301	0.05820
3875.30724	0.05797
3874.02148	0.05825
3872.73571	0.05869
3871.44994	0.05885
3870.16417	0.05856
3868.87840	0.05807
3867.59263	0.05782
3866.30686	0.05804
3865.02109	0.05853
3863.73532	0.05884
3862.44956	0.05868
3861.16379	0.05814
3859.87802	0.05749
3858.59225	0.05705
3857.30648	0.05706
3856.02071	0.05769
3854.73494	0.05880
3853.44917	0.05994
3852.16341	0.06062
3850.87764	0.06074
3849.59187	0.06053
3848.30610	0.06033
3847.02033	0.06022
3845.73456	0.06010
3844.44879	0.05984
3843.16302	0.05937
3841.87725	0.05868
3840.59149	0.05790
3839.30572	0.05722
3838.01995	0.05675
3836.73418	0.05646
3835.44841	0.05636
3834.16264	0.05653
3832.87687	0.05684
3831.59110	0.05701
3830.30534	0.05688
3829.01957	0.05653
3827.73380	0.05610
3826.44803	0.05565
3825.16226	0.05522
3823.87649	0.05503
3822.59072	0.05522
3821.30495	0.05567
3820.01918	0.05619
3818.73342	0.05678
3817.44765	0.05749
3816.16188	0.05816
3814.87611	0.05838
3813.59034	0.05783
3812.30457	0.05668
3811.01880	0.05548
3809.73303	0.05472
3808.44726	0.05446
3807.16150	0.05445
3805.87573	0.05447
3804.58996	0.05449
3803.30419	0.05462
3802.01842	0.05492
3800.73265	0.05537
3799.44688	0.05591
3798.16111	0.05636
3796.87535	0.05648
3795.58958	0.05619
3794.30381	0.05570
3793.01804	0.05533
3791.73227	0.05520
3790.44650	0.05519
3789.16073	0.05519
3787.87496	0.05528
3786.58919	0.05563
3785.30343	0.05622
3784.01766	0.05678
3782.73189	0.05704
3781.44612	0.05697
3780.16035	0.05675
3778.87458	0.05660
3777.58881	0.05653
3776.30304	0.05649
3775.01728	0.05645
3773.73151	0.05643
3772.44574	0.05639
3771.15997	0.05618
3769.87420	0.05571
3768.58843	0.05503
3767.30266	0.05436
3766.01689	0.05391
3764.73112	0.05373
3763.44536	0.05374
3762.15959	0.05384
3760.87382	0.05400
3759.58805	0.05420
3758.30228	0.05434
3757.01651	0.05434
3755.73074	0.05420
3754.44497	0.05409
3753.15921	0.05419
3751.87344	0.05455
3750.58767	0.05500
3749.30190	0.05522
3748.01613	0.05499
3746.73036	0.05455
3745.44459	0.05438
3744.15882	0.05431
3742.87305	0.05406
3741.58729	0.05382
3740.30152	0.05379
3739.01575	0.05385
3737.72998	0.05390
3736.44421	0.05387
3735.15844	0.05425
3733.87267	0.05475
3732.58690	0.05539
3731.30114	0.05573
3730.01537	0.05506
3728.72960	0.05377
3727.44383	0.05218
3726.15806	0.05104
3724.87229	0.05069
3723.58652	0.05066
3722.30075	0.05100
3721.01498	0.05149
3719.72922	0.05154
3718.44345	0.05158
3717.15768	0.05205
3715.87191	0.05278
3714.58614	0.05300
3713.30037	0.05217
3712.01460	0.05154
3710.72883	0.05158
3709.44307	0.05156
3708.15730	0.05192
3706.87153	0.05217
3705.58576	0.05207
3704.29999	0.05176
3703.01422	0.05134
3701.72845	0.05087
3700.44268	0.05040
3699.15691	0.04999
3697.87115	0.05006
3696.58538	0.05070
3695.29961	0.05142
3694.01384	0.05115
3692.72807	0.05060
3691.44230	0.05037
3690.15653	0.05057
3688.87076	0.05138
3687.58500	0.05230
3686.29923	0.05260
3685.01346	0.05290
3683.72769	0.05327
3682.44192	0.05343
3681.15615	0.05345
3679.87038	0.05308
3678.58461	0.05221
3677.29884	0.05152
3676.01308	0.05127
3674.72731	0.05128
3673.44154	0.05122
3672.15577	0.05091
3670.87000	0.05072
3669.58423	0.05088
3668.29846	0.05125
3667.01269	0.05159
3665.72693	0.05170
3664.44116	0.05170
3663.15539	0.05146
3661.86962	0.05108
3660.58385	0.05077
3659.29808	0.05083
3658.01231	0.05146
3656.72654	0.05256
3655.44077	0.05370
3654.15501	0.05442
3652.86924	0.05446
3651.58347	0.05398
3650.29770	0.05353
3649.01193	0.05365
3647.72616	0.05445
3646.44039	0.05535
3645.15462	0.05559
3643.86886	0.05503
3642.58309	0.05394
3641.29732	0.05287
3640.01155	0.05236
3638.72578	0.05260
3637.44001	0.05337
3636.15424	0.05424
3634.86847	0.05472
3633.58270	0.05494
3632.29694	0.05508
3631.01117	0.05527
3629.72540	0.05606
3628.43963	0.05699
3627.15386	0.05747
3625.86809	0.05702
3624.58232	0.05643
3623.29655	0.05582
3622.01079	0.05564
3620.72502	0.05571
3619.43925	0.05640
3618.15348	0.05724
3616.86771	0.05769
3615.58194	0.05803
3614.29617	0.05881
3613.01040	0.05984
3611.72463	0.06021
3610.43887	0.05980
3609.15310	0.05896
3607.86733	0.05816
3606.58156	0.05763
3605.29579	0.05777
3604.01002	0.05864
3602.72425	0.05944
3601.43848	0.05996
3600.15272	0.06029
3598.86695	0.06052
3597.58118	0.06021
3596.29541	0.06000
3595.00964	0.05971
3593.72387	0.05941
3592.43810	0.05979
3591.15233	0.06017
3589.86656	0.06009
3588.58080	0.06038
3587.29503	0.06099
3586.00926	0.06170
3584.72349	0.06214
3583.43772	0.06222
3582.15195	0.06221
3580.86618	0.06258
3579.58041	0.06333
3578.29464	0.06416
3577.00888	0.06465
3575.72311	0.06467
3574.43734	0.06421
3573.15157	0.06353
3571.86580	0.06298
3570.58003	0.06280
3569.29426	0.06312
3568.00849	0.06374
3566.72273	0.06432
3565.43696	0.06480
3564.15119	0.06517
3562.86542	0.06578
3561.57965	0.06665
3560.29388	0.06745
3559.00811	0.06782
3557.72234	0.06771
3556.43657	0.06736
3555.15081	0.06710
3553.86504	0.06714
3552.57927	0.06750
3551.29350	0.06806
3550.00773	0.06861
3548.72196	0.06891
3547.43619	0.06889
3546.15042	0.06867
3544.86466	0.06840
3543.57889	0.06820
3542.29312	0.06814
3541.00735	0.06834
3539.72158	0.06886
3538.43581	0.06961
3537.15004	0.07044
3535.86427	0.07118
3534.57850	0.07170
3533.29274	0.07182
3532.00697	0.07150
3530.72120	0.07100
3529.43543	0.07077
3528.14966	0.07108
3526.86389	0.07186
3525.57812	0.07282
3524.29235	0.07366
3523.00659	0.07424
3521.72082	0.07448
3520.43505	0.07435
3519.14928	0.07400
3517.86351	0.07375
3516.57774	0.07387
3515.29197	0.07443
3514.00620	0.07529
3512.72043	0.07614
3511.43467	0.07670
3510.14890	0.07683
3508.86313	0.07656
3507.57736	0.07605
3506.29159	0.07554
3505.00582	0.07536
3503.72005	0.07569
3502.43428	0.07643
3501.14852	0.07721
3499.86275	0.07771
3498.57698	0.07789
3497.29121	0.07795
3496.00544	0.07812
3494.71967	0.07841
3493.43390	0.07864
3492.14813	0.07864
3490.86236	0.07842
3489.57660	0.07816
3488.29083	0.07809
3487.00506	0.07825
3485.71929	0.07857
3484.43352	0.07892
3483.14775	0.07921
3481.86198	0.07939
3480.57621	0.07940
3479.29045	0.07930
3478.00468	0.07918
3476.71891	0.07914
3475.43314	0.07922
3474.14737	0.07948
3472.86160	0.07996
3471.57583	0.08063
3470.29006	0.08129
3469.00429	0.08174
3467.71853	0.08180
3466.43276	0.08146
3465.14699	0.08090
3463.86122	0.08043
3462.57545	0.08025
3461.28968	0.08034
3460.00391	0.08063
3458.71814	0.08106
3457.43238	0.08160
3456.14661	0.08216
3454.86084	0.08260
3453.57507	0.08283
3452.28930	0.08286
3451.00353	0.08277
3449.71776	0.08257
3448.43199	0.08224
3447.14622	0.08185
3445.86046	0.08161
3444.57469	0.08183
3443.28892	0.08263
3442.00315	0.08376
3440.71738	0.08475
3439.43161	0.08519
3438.14584	0.08503
3436.86007	0.08448
3435.57431	0.08387
3434.28854	0.08347
3433.00277	0.08335
3431.71700	0.08349
3430.43123	0.08388
3429.14546	0.08450
3427.85969	0.08525
3426.57392	0.08595
3425.28815	0.08650
3424.00239	0.08689
3422.71662	0.08724
3421.43085	0.08760
3420.14508	0.08799
3418.85931	0.08833
3417.57354	0.08856
3416.28777	0.08863
3415.00200	0.08855
3413.71624	0.08844
3412.43047	0.08837
3411.14470	0.08837
3409.85893	0.08841
3408.57316	0.08847
3407.28739	0.08862
3406.00162	0.08892
3404.71585	0.08928
3403.43008	0.08948
3402.14432	0.08929
3400.85855	0.08870
3399.57278	0.08786
3398.28701	0.08703
3397.00124	0.08646
3395.71547	0.08633
3394.42970	0.08676
3393.14393	0.08766
3391.85817	0.08860
3390.57240	0.08912
3389.28663	0.08907
3388.00086	0.08880
3386.71509	0.08875
3385.42932	0.08899
3384.14355	0.08926
3382.85778	0.08931
3381.57201	0.08917
3380.28625	0.08902
3379.00048	0.08898
3377.71471	0.08907
3376.42894	0.08922
3375.14317	0.08947
3373.85740	0.08991
3372.57163	0.09054
3371.28586	0.09115
3370.00010	0.09148
3368.71433	0.09150
3367.42856	0.09144
3366.14279	0.09146
3364.85702	0.09149
3363.57125	0.09139
3362.28548	0.09117
3360.99971	0.09091
3359.71394	0.09069
3358.42818	0.09060
3357.14241	0.09076
3355.85664	0.09125
3354.57087	0.09191
3353.28510	0.09243
3351.99933	0.09262
3350.71356	0.09258
3349.42779	0.09254
3348.14202	0.09266
3346.85626	0.09291
3345.57049	0.09307
3344.28472	0.09298
3342.99895	0.09270
3341.71318	0.09237
3340.42741	0.09208
3339.14164	0.09183
3337.85587	0.09162
3336.57011	0.09150
3335.28434	0.09157
3333.99857	0.09183
3332.71280	0.09219
3331.42703	0.09246
3330.14126	0.09248
3328.85549	0.09229
3327.56972	0.09210
3326.28395	0.09216
3324.99819	0.09247
3323.71242	0.09288
3322.42665	0.09328
3321.14088	0.09368
3319.85511	0.09412
3318.56934	0.09448
3317.28357	0.09459
3315.99780	0.09438
3314.71204	0.09399
3313.42627	0.09360
3312.14050	0.09337
3310.85473	0.09329
3309.56896	0.09323
3308.28319	0.09306
3306.99742	0.09272
3305.71165	0.09231
3304.42588	0.09201
3303.14012	0.09193
3301.85435	0.09201
3300.56858	0.09207
3299.28281	0.09202
3297.99704	0.09194
3296.71127	0.09200
3295.42550	0.09231
3294.13973	0.09274
3292.85397	0.09304
3291.56820	0.09301
3290.28243	0.09269
3288.99666	0.09221
3287.71089	0.09169
3286.42512	0.09128
3285.13935	0.09124
3283.85358	0.09165
3282.56781	0.09219
3281.28205	0.09236
3279.99628	0.09198
3278.71051	0.09134
3277.42474	0.09089
3276.13897	0.09084
3274.85320	0.09114
3273.56743	0.09158
3272.28166	0.09194
3270.99590	0.09210
3269.71013	0.09209
3268.42436	0.09199
3267.13859	0.09191
3265.85282	0.09187
3264.56705	0.09181
3263.28128	0.09164
3261.99551	0.09131
3260.70974	0.09095
3259.42398	0.09078
3258.13821	0.09093
3256.85244	0.09128
3255.56667	0.09153
3254.28090	0.09143
3252.99513	0.09094
3251.70936	0.09022
3250.42359	0.08952
3249.13783	0.08902
3247.85206	0.08870
3246.56629	0.08843
3245.28052	0.08817
3243.99475	0.08800
3242.70898	0.08805
3241.42321	0.08830
3240.13744	0.08861
3238.85167	0.08884
3237.56591	0.08894
3236.28014	0.08896
3234.99437	0.08893
3233.70860	0.08891
3232.42283	0.08894
3231.13706	0.08903
3229.85129	0.08919
3228.56552	0.08935
3227.27976	0.08943
3225.99399	0.08940
3224.70822	0.08921
3223.42245	0.08889
3222.13668	0.08841
3220.85091	0.08779
3219.56514	0.08712
3218.27937	0.08658
3216.99360	0.08632
3215.70784	0.08638
3214.42207	0.08667
3213.13630	0.08699
3211.85053	0.08708
3210.56476	0.08678
3209.27899	0.08614
3207.99322	0.08539
3206.70745	0.08482
3205.42169	0.08464
3204.13592	0.08485
3202.85015	0.08526
3201.56438	0.08564
3200.27861	0.08592
3198.99284	0.08618
3197.70707	0.08638
3196.42130	0.08641
3195.13553	0.08619
3193.84977	0.08587
3192.56400	0.08566
3191.27823	0.08564
3189.99246	0.08565
3188.70669	0.08548
3187.42092	0.08506
3186.13515	0.08458
3184.84938	0.08421
3183.56362	0.08401
3182.27785	0.08390
3180.99208	0.08385
3179.70631	0.08388
3178.42054	0.08400
3177.13477	0.08411
3175.84900	0.08408
3174.56323	0.08384
3173.27746	0.08343
3171.99170	0.08291
3170.70593	0.08241
3169.42016	0.08212
3168.13439	0.08215
3166.84862	0.08253
3165.56285	0.08306
3164.27708	0.08348
3162.99131	0.08355
3161.70555	0.08317
3160.41978	0.08250
3159.13401	0.08185
3157.84824	0.08146
3156.56247	0.08127
3155.27670	0.08109
3153.99093	0.08081
3152.70516	0.08052
3151.41939	0.08034
3150.13363	0.08029
3148.84786	0.08030
3147.56209	0.08029
3146.27632	0.08022
3144.99055	0.08009
3143.70478	0.07994
3142.41901	0.07984
3141.13324	0.07983
3139.84748	0.07983
3138.56171	0.07979
3137.27594	0.07968
3135.99017	0.07946
3134.70440	0.07912
3133.41863	0.07867
3132.13286	0.07819
3130.84709	0.07779
3129.56132	0.07756
3128.27556	0.07752
3126.98979	0.07761
3125.70402	0.07771
3124.41825	0.07774
3123.13248	0.07777
3121.84671	0.07791
3120.56094	0.07808
3119.27517	0.07805
3117.98940	0.07772
3116.70364	0.07728
3115.41787	0.07706
3114.13210	0.07718
3112.84633	0.07744
3111.56056	0.07761
3110.27479	0.07763
3108.98902	0.07760
3107.70325	0.07759
3106.41749	0.07757
3105.13172	0.07741
3103.84595	0.07710
3102.56018	0.07677
3101.27441	0.07664
3099.98864	0.07676
3098.70287	0.07697
3097.41710	0.07699
3096.13133	0.07666
3094.84557	0.07613
3093.55980	0.07565
3092.27403	0.07539
3090.98826	0.07537
3089.70249	0.07557
3088.41672	0.07595
3087.13095	0.07643
3085.84518	0.07687
3084.55942	0.07722
3083.27365	0.07745
3081.98788	0.07746
3080.70211	0.07711
3079.41634	0.07651
3078.13057	0.07592
3076.84480	0.07554
3075.55903	0.07533
3074.27326	0.07510
3072.98750	0.07473
3071.70173	0.07423
3070.41596	0.07369
3069.13019	0.07323
3067.84442	0.07297
3066.55865	0.07293
3065.27288	0.07305
3063.98711	0.07322
3062.70135	0.07332
3061.41558	0.07329
3060.12981	0.07314
3058.84404	0.07299
3057.55827	0.07292
3056.27250	0.07293
3054.98673	0.07290
3053.70096	0.07272
3052.41519	0.07236
3051.12943	0.07194
3049.84366	0.07168
3048.55789	0.07167
3047.27212	0.07184
3045.98635	0.07198
3044.70058	0.07196
3043.41481	0.07175
3042.12904	0.07145
3040.84328	0.07118
3039.55751	0.07100
3038.27174	0.07094
3036.98597	0.07101
3035.70020	0.07123
3034.41443	0.07158
3033.12866	0.07188
3031.84289	0.07194
3030.55712	0.07173
3029.27136	0.07136
3027.98559	0.07095
3026.69982	0.07054
3025.41405	0.07010
3024.12828	0.06969
3022.84251	0.06945
3021.55674	0.06954
3020.27097	0.06999
3018.98521	0.07058
3017.69944	0.07096
3016.41367	0.07090
3015.12790	0.07048
3013.84213	0.06993
3012.55636	0.06951
3011.27059	0.06928
3009.98482	0.06923
3008.69905	0.06930
3007.41329	0.06941
3006.12752	0.06948
3004.84175	0.06938
3003.55598	0.06903
3002.27021	0.06848
3000.98444	0.06788
2999.69867	0.06743
2998.41290	0.06727
2997.12714	0.06735
2995.84137	0.06753
2994.55560	0.06767
2993.26983	0.06773
2991.98406	0.06780
2990.69829	0.06799
2989.41252	0.06822
2988.12675	0.06827
2986.84098	0.06806
2985.55522	0.06787
2984.26945	0.06799
2982.98368	0.06849
2981.69791	0.06922
2980.41214	0.06999
2979.12637	0.07067
2977.84060	0.07121
2976.55483	0.07165
2975.26907	0.07212
2973.98330	0.07268
2972.69753	0.07327
2971.41176	0.07383
2970.12599	0.07450
2968.84022	0.07545
2967.55445	0.07671
2966.26868	0.07808
2964.98291	0.07924
2963.69715	0.08009
2962.41138	0.08082
2961.12561	0.08171
2959.83984	0.08280
2958.55407	0.08386
2957.26830	0.08467
2955.98253	0.08521
2954.69676	0.08559
2953.41100	0.08592
2952.12523	0.08623
2950.83946	0.08655
2949.55369	0.08694
2948.26792	0.08738
2946.98215	0.08772
2945.69638	0.08779
2944.41061	0.08754
2943.12484	0.08716
2941.83908	0.08699
2940.55331	0.08726
2939.26754	0.08797
2937.98177	0.08900
2936.69600	0.09015
2935.41023	0.09121
2934.12446	0.09204
2932.83869	0.09269
2931.55293	0.09332
2930.26716	0.09407
2928.98139	0.09491
2927.69562	0.09577
2926.40985	0.09661
2925.12408	0.09737
2923.83831	0.09791
2922.55254	0.09817
2921.26677	0.09823
2919.98101	0.09817
2918.69524	0.09796
2917.40947	0.09748
2916.12370	0.09665
2914.83793	0.09553
2913.55216	0.09426
2912.26639	0.09306
2910.98062	0.09209
2909.69486	0.09138
2908.40909	0.09087
2907.12332	0.09049
2905.83755	0.09009
2904.55178	0.08955
2903.26601	0.08881
2901.98024	0.08797
2900.69447	0.08715
2899.40870	0.08637
2898.12294	0.08559
2896.83717	0.08490
2895.55140	0.08437
2894.26563	0.08392
2892.97986	0.08334
2891.69409	0.08254
2890.40832	0.08168
2889.12255	0.08102
2887.83678	0.08066
2886.55102	0.08045
2885.26525	0.08019
2883.97948	0.07978
2882.69371	0.07926
2881.40794	0.07877
2880.12217	0.07851
2878.83640	0.07862
2877.55063	0.07908
2876.26487	0.07964
2874.97910	0.08008
2873.69333	0.08032
2872.40756	0.08048
2871.12179	0.08068
2869.83602	0.08095
2868.55025	0.08120
2867.26448	0.08132
2865.97871	0.08134
2864.69295	0.08139
2863.40718	0.08159
2862.12141	0.08194
2860.83564	0.08230
2859.54987	0.08254
2858.26410	0.08266
2856.97833	0.08273
2855.69256	0.08278
2854.40680	0.08280
2853.12103	0.08272
2851.83526	0.08252
2850.54949	0.08220
2849.26372	0.08169
2847.97795	0.08095
2846.69218	0.07993
2845.40641	0.07877
2844.12064	0.07764
2842.83488	0.07667
2841.54911	0.07586
2840.26334	0.07512
2838.97757	0.07433
2837.69180	0.07346
2836.40603	0.07261
2835.12026	0.07188
2833.83449	0.07120
2832.54873	0.07046
2831.26296	0.06962
2829.97719	0.06878
2828.69142	0.06808
2827.40565	0.06758
2826.11988	0.06719
2824.83411	0.06682
2823.54834	0.06645
2822.26257	0.06613
2820.97681	0.06588
2819.69104	0.06559
2818.40527	0.06517
2817.11950	0.06471
2815.83373	0.06436
2814.54796	0.06415
2813.26219	0.06400
2811.97642	0.06383
2810.69066	0.06364
2809.40489	0.06348
2808.11912	0.06339
2806.83335	0.06335
2805.54758	0.06329
2804.26181	0.06315
2802.97604	0.06292
2801.69027	0.06267
2800.40450	0.06244
2799.11874	0.06222
2797.83297	0.06196
2796.54720	0.06161
2795.26143	0.06122
2793.97566	0.06090
2792.68989	0.06069
2791.40412	0.06058
2790.11835	0.06063
2788.83259	0.06083
2787.54682	0.06104
2786.26105	0.06100
2784.97528	0.06064
2783.68951	0.06014
2782.40374	0.05979
2781.11797	0.05968
2779.83220	0.05967
2778.54643	0.05953
2777.26067	0.05920
2775.97490	0.05884
2774.68913	0.05868
2773.40336	0.05879
2772.11759	0.05902
2770.83182	0.05913
2769.54605	0.05902
2768.26028	0.05875
2766.97452	0.05850
2765.68875	0.05838
2764.40298	0.05840
2763.11721	0.05848
2761.83144	0.05845
2760.54567	0.05819
2759.25990	0.05787
2757.97413	0.05776
2756.68836	0.05797
2755.40260	0.05829
2754.11683	0.05843
2752.83106	0.05826
2751.54529	0.05787
2750.25952	0.05742
2748.97375	0.05709
2747.68798	0.05697
2746.40221	0.05701
2745.11645	0.05710
2743.83068	0.05716
2742.54491	0.05719
2741.25914	0.05716
2739.97337	0.05703
2738.68760	0.05684
2737.40183	0.05668
2736.11606	0.05661
2734.83029	0.05664
2733.54453	0.05671
2732.25876	0.05672
2730.97299	0.05654
2729.68722	0.05620
2728.40145	0.05593
2727.11568	0.05595
2725.82991	0.05615
2724.54414	0.05624
2723.25838	0.05606
2721.97261	0.05574
2720.68684	0.05551
2719.40107	0.05545
2718.11530	0.05548
2716.82953	0.05549
2715.54376	0.05546
2714.25799	0.05547
2712.97222	0.05552
2711.68646	0.05551
2710.40069	0.05530
2709.11492	0.05495
2707.82915	0.05466
2706.54338	0.05460
2705.25761	0.05475
2703.97184	0.05491
2702.68607	0.05489
2701.40031	0.05471
2700.11454	0.05452
2698.82877	0.05443
2697.54300	0.05443
2696.25723	0.05445
2694.97146	0.05442
2693.68569	0.05436
2692.39992	0.05433
2691.11415	0.05436
2689.82839	0.05437
2688.54262	0.05430
2687.25685	0.05416
2685.97108	0.05398
2684.68531	0.05378
2683.39954	0.05352
2682.11377	0.05325
2680.82800	0.05302
2679.54224	0.05291
2678.25647	0.05292
2676.97070	0.05303
2675.68493	0.05316
2674.39916	0.05322
2673.11339	0.05311
2671.82762	0.05287
2670.54185	0.05269
2669.25608	0.05275
2667.97032	0.05300
2666.68455	0.05324
2665.39878	0.05330
2664.11301	0.05319
2662.82724	0.05305
2661.54147	0.05301
2660.25570	0.05307
2658.96993	0.05317
2657.68417	0.05317
2656.39840	0.05299
2655.11263	0.05264
2653.82686	0.05225
2652.54109	0.05194
2651.25532	0.05179
2649.96955	0.05172
2648.68378	0.05166
2647.39801	0.05152
2646.11225	0.05130
2644.82648	0.05101
2643.54071	0.05063
2642.25494	0.05027
2640.96917	0.05008
2639.68340	0.05014
2638.39763	0.05025
2637.11186	0.05011
2635.82609	0.04967
2634.54033	0.04911
2633.25456	0.04874
2631.96879	0.04863
2630.68302	0.04865
2629.39725	0.04857
2628.11148	0.04832
2626.82571	0.04802
2625.53994	0.04784
2624.25418	0.04783
2622.96841	0.04783
2621.68264	0.04766
2620.39687	0.04726
2619.11110	0.04677
2617.82533	0.04636
2616.53956	0.04612
2615.25379	0.04610
2613.96802	0.04623
2612.68226	0.04638
2611.39649	0.04645
2610.11072	0.04643
2608.82495	0.04637
2607.53918	0.04632
2606.25341	0.04630
2604.96764	0.04628
2603.68187	0.04619
2602.39611	0.04594
2601.11034	0.04550
2599.82457	0.04499
2598.53880	0.04454
2597.25303	0.04429
2595.96726	0.04430
2594.68149	0.04452
2593.39572	0.04477
2592.10995	0.04485
2590.82419	0.04469
2589.53842	0.04443
2588.25265	0.04422
2586.96688	0.04415
2585.68111	0.04418
2584.39534	0.04429
2583.10957	0.04444
2581.82380	0.04452
2580.53804	0.04438
2579.25227	0.04398
2577.96650	0.04346
2576.68073	0.04301
2575.39496	0.04278
2574.10919	0.04267
2572.82342	0.04251
2571.53765	0.04220
2570.25188	0.04186
2568.96612	0.04169
2567.68035	0.04185
2566.39458	0.04228
2565.10881	0.04278
2563.82304	0.04310
2562.53727	0.04315
2561.25150	0.04302
2559.96573	0.04277
2558.67997	0.04242
2557.39420	0.04204
2556.10843	0.04182
2554.82266	0.04192
2553.53689	0.04232
2552.25112	0.04272
2550.96535	0.04285
2549.67958	0.04266
2548.39381	0.04231
2547.10805	0.04195
2545.82228	0.04154
2544.53651	0.04101
2543.25074	0.04042
2541.96497	0.03995
2540.67920	0.03971
2539.39343	0.03976
2538.10766	0.04004
2536.82190	0.04038
2535.53613	0.04058
2534.25036	0.04063
2532.96459	0.04063
2531.67882	0.04064
2530.39305	0.04067
2529.10728	0.04070
2527.82151	0.04075
2526.53574	0.04080
2525.24998	0.04083
2523.96421	0.04081
2522.67844	0.04072
2521.39267	0.04051
2520.10690	0.04020
2518.82113	0.03989
2517.53536	0.03977
2516.24959	0.03986
2514.96383	0.03999
2513.67806	0.03997
2512.39229	0.03978
2511.10652	0.03961
2509.82075	0.03962
2508.53498	0.03970
2507.24921	0.03965
2505.96344	0.03949
2504.67767	0.03944
2503.39191	0.03958
2502.10614	0.03969
2500.82037	0.03955
2499.53460	0.03920
2498.24883	0.03885
2496.96306	0.03861
2495.67729	0.03847
2494.39152	0.03847
2493.10576	0.03867
2491.81999	0.03900
2490.53422	0.03927
2489.24845	0.03939
2487.96268	0.03948
2486.67691	0.03965
2485.39114	0.03986
2484.10537	0.03992
2482.81960	0.03968
2481.53384	0.03915
2480.24807	0.03859
2478.96230	0.03835
2477.67653	0.03856
2476.39076	0.03904
2475.10499	0.03942
2473.81922	0.03952
2472.53345	0.03947
2471.24769	0.03948
2469.96192	0.03963
2468.67615	0.03984
2467.39038	0.03999
2466.10461	0.04002
2464.81884	0.03991
2463.53307	0.03959
2462.24730	0.03910
2460.96153	0.03866
2459.67577	0.03852
2458.39000	0.03879
2457.10423	0.03933
2455.81846	0.03979
2454.53269	0.03988
2453.24692	0.03954
2451.96115	0.03900
2450.67538	0.03854
2449.38962	0.03833
2448.10385	0.03834
2446.81808	0.03850
2445.53231	0.03867
2444.24654	0.03871
2442.96077	0.03849
2441.67500	0.03802
2440.38923	0.03752
2439.10346	0.03729
2437.81770	0.03742
2436.53193	0.03771
2435.24616	0.03785
2433.96039	0.03775
2432.67462	0.03755
2431.38885	0.03746
2430.10308	0.03747
2428.81731	0.03751
2427.53155	0.03752
2426.24578	0.03753
2424.96001	0.03754
2423.67424	0.03756
2422.38847	0.03762
2421.10270	0.03773
2419.81693	0.03781
2418.53116	0.03778
2417.24539	0.03753
2415.95963	0.03708
2414.67386	0.03657
2413.38809	0.03624
2412.10232	0.03626
2410.81655	0.03660
2409.53078	0.03704
2408.24501	0.03737
2406.95924	0.03753
2405.67347	0.03754
2404.38771	0.03744
2403.10194	0.03726
2401.81617	0.03709
2400.53040	0.03702
2399.24463	0.03702
2397.95886	0.03713
2396.67309	0.03733
2395.38732	0.03749
2394.10156	0.03756
2392.81579	0.03751
2391.53002	0.03743
2390.24425	0.03740
2388.95848	0.03753
2387.67271	0.03794
2386.38694	0.03860
2385.10117	0.03921
2383.81540	0.03949
2382.52964	0.03934
2381.24387	0.03906
2379.95810	0.03846
2378.67233	0.03784
2377.38656	0.03778
2376.10079	0.03699
2374.81502	0.03550
2373.52925	0.03464
2372.24349	0.03387
2370.95772	0.03408
2369.67195	0.03275
2368.38618	0.03108
2367.10041	0.03267
2365.81464	0.03592
2364.52887	0.03541
2363.24310	0.03336
2361.95733	0.03414
2360.67157	0.03694
2359.38580	0.03667
2358.10003	0.03521
2356.81426	0.03435
2355.52849	0.03300
2354.24272	0.03251
2352.95695	0.03319
2351.67118	0.03784
2350.38542	0.04903
2349.09965	0.05603
2347.81388	0.04745
2346.52811	0.03341
2345.24234	0.02795
2343.95657	0.03093
2342.67080	0.03350
2341.38503	0.03469
2340.09926	0.03719
2338.81350	0.03976
2337.52773	0.04168
2336.24196	0.04027
2334.95619	0.03802
2333.67042	0.03765
2332.38465	0.03615
2331.09888	0.03538
2329.81311	0.03713
2328.52735	0.03766
2327.24158	0.03907
2325.95581	0.04136
2324.67004	0.04093
2323.38427	0.03974
2322.09850	0.03915
2320.81273	0.03651
2319.52696	0.03555
2318.24119	0.03697
2316.95543	0.03745
2315.66966	0.03728
2314.38389	0.03655
2313.09812	0.03566
2311.81235	0.03545
2310.52658	0.03480
2309.24081	0.03470
2307.95504	0.03536
2306.66928	0.03535
2305.38351	0.03603
2304.09774	0.03661
2302.81197	0.03643
2301.52620	0.03602
2300.24043	0.03544
2298.95466	0.03519
2297.66889	0.03487
2296.38312	0.03459
2295.09736	0.03447
2293.81159	0.03452
2292.52582	0.03482
2291.24005	0.03492
2289.95428	0.03488
2288.66851	0.03466
2287.38274	0.03437
2286.09697	0.03406
2284.81121	0.03387
2283.52544	0.03372
2282.23967	0.03348
2280.95390	0.03321
2279.66813	0.03287
2278.38236	0.03260
2277.09659	0.03229
2275.81082	0.03202
2274.52505	0.03175
2273.23929	0.03135
2271.95352	0.03094
2270.66775	0.03071
2269.38198	0.03067
2268.09621	0.03058
2266.81044	0.03035
2265.52467	0.02999
2264.23890	0.02963
2262.95314	0.02940
2261.66737	0.02916
2260.38160	0.02890
2259.09583	0.02882
2257.81006	0.02877
2256.52429	0.02867
2255.23852	0.02839
2253.95275	0.02819
2252.66698	0.02816
2251.38122	0.02825
2250.09545	0.02838
2248.80968	0.02829
2247.52391	0.02782
2246.23814	0.02720
2244.95237	0.02694
2243.66660	0.02744
2242.38083	0.02860
2241.09507	0.02988
2239.80930	0.03071
2238.52353	0.03093
2237.23776	0.03077
2235.95199	0.03044
2234.66622	0.02986
2233.38045	0.02891
2232.09468	0.02779
2230.80891	0.02690
2229.52315	0.02638
2228.23738	0.02607
2226.95161	0.02589
2225.66584	0.02598
2224.38007	0.02628
2223.09430	0.02628
2221.80853	0.02563
2220.52276	0.02472
2219.23700	0.02429
2217.95123	0.02457
2216.66546	0.02498
2215.37969	0.02477
2214.09392	0.02376
2212.80815	0.02254
2211.52238	0.02184
2210.23661	0.02184
2208.95084	0.02218
2207.66508	0.02247
2206.37931	0.02261
2205.09354	0.02267
2203.80777	0.02266
2202.52200	0.02249
2201.23623	0.02208
2199.95046	0.02143
2198.66469	0.02064
2197.37893	0.02000
2196.09316	0.01987
2194.80739	0.02051
2193.52162	0.02176
2192.23585	0.02308
2190.95008	0.02376
2189.66431	0.02332
2188.37854	0.02183
2187.09277	0.01988
2185.80701	0.01822
2184.52124	0.01723
2183.23547	0.01694
2181.94970	0.01732
2180.66393	0.01830
2179.37816	0.01941
2178.09239	0.01985
2176.80662	0.01915
2175.52085	0.01781
2174.23509	0.01691
2172.94932	0.01714
2171.66355	0.01814
2170.37778	0.01902
2169.09201	0.01920
2167.80624	0.01874
2166.52047	0.01787
2165.23470	0.01675
2163.94894	0.01551
2162.66317	0.01436
2161.37740	0.01348
2160.09163	0.01283
2158.80586	0.01230
2157.52009	0.01184
2156.23432	0.01155
2154.94855	0.01170
2153.66278	0.01248
2152.37702	0.01388
2151.09125	0.01562
2149.80548	0.01743
2148.51971	0.01902
2147.23394	0.01997
2145.94817	0.01996
2144.66240	0.01916
2143.37663	0.01831
2142.09087	0.01827
2140.80510	0.01937
2139.51933	0.02112
2138.23356	0.02251
2136.94779	0.02280
2135.66202	0.02218
2134.37625	0.02142
2133.09048	0.02105
2131.80471	0.02100
2130.51895	0.02101
2129.23318	0.02101
2127.94741	0.02108
2126.66164	0.02122
2125.37587	0.02136
2124.09010	0.02144
2122.80433	0.02147
2121.51856	0.02162
2120.23280	0.02201
2118.94703	0.02248
2117.66126	0.02267
2116.37549	0.02243
2115.08972	0.02215
2113.80395	0.02220
2112.51818	0.02239
2111.23241	0.02219
2109.94664	0.02151
2108.66088	0.02087
2107.37511	0.02082
2106.08934	0.02137
2104.80357	0.02212
2103.51780	0.02269
2102.23203	0.02292
2100.94626	0.02294
2099.66049	0.02297
2098.37473	0.02282
2097.08896	0.02237
2095.80319	0.02174
2094.51742	0.02129
2093.23165	0.02139
2091.94588	0.02200
2090.66011	0.02273
2089.37434	0.02316
2088.08857	0.02320
2086.80281	0.02298
2085.51704	0.02261
2084.23127	0.02216
2082.94550	0.02169
2081.65973	0.02132
2080.37396	0.02111
2079.08819	0.02102
2077.80242	0.02085
2076.51666	0.02039
2075.23089	0.01957
2073.94512	0.01860
2072.65935	0.01788
2071.37358	0.01777
2070.08781	0.01832
2068.80204	0.01921
2067.51627	0.01986
2066.23050	0.01977
2064.94474	0.01897
2063.65897	0.01807
2062.37320	0.01772
2061.08743	0.01803
2059.80166	0.01859
2058.51589	0.01893
2057.23012	0.01885
2055.94435	0.01841
2054.65859	0.01788
2053.37282	0.01767
2052.08705	0.01798
2050.80128	0.01858
2049.51551	0.01881
2048.22974	0.01817
2046.94397	0.01675
2045.65820	0.01512
2044.37243	0.01388
2043.08667	0.01335
2041.80090	0.01345
2040.51513	0.01378
2039.22936	0.01386
2037.94359	0.01351
2036.65782	0.01295
2035.37205	0.01254
2034.08628	0.01236
2032.80052	0.01217
2031.51475	0.01173
2030.22898	0.01103
2028.94321	0.01029
2027.65744	0.00972
2026.37167	0.00946
2025.08590	0.00964
2023.80013	0.01034
2022.51436	0.01141
2021.22860	0.01247
2019.94283	0.01318
2018.65706	0.01353
2017.37129	0.01372
2016.08552	0.01378
2014.79975	0.01348
2013.51398	0.01275
2012.22821	0.01195
2010.94245	0.01153
2009.65668	0.01153
2008.37091	0.01179
2007.08514	0.01234
2005.79937	0.01329
2004.51360	0.01447
2003.22783	0.01539
2001.94206	0.01576
2000.65629	0.01578
1999.37053	0.01591
1998.08476	0.01634
1996.79899	0.01697
1995.51322	0.01751
1994.22745	0.01773
1992.94168	0.01751
1991.65591	0.01696
1990.37014	0.01629
1989.08438	0.01574
1987.79861	0.01543
1986.51284	0.01538
1985.22707	0.01553
1983.94130	0.01576
1982.65553	0.01595
1981.36976	0.01605
1980.08399	0.01609
1978.79822	0.01609
1977.51246	0.01606
1976.22669	0.01599
1974.94092	0.01595
1973.65515	0.01602
1972.36938	0.01626
1971.08361	0.01667
1969.79784	0.01709
1968.51207	0.01723
1967.22631	0.01690
1965.94054	0.01613
1964.65477	0.01511
1963.36900	0.01410
1962.08323	0.01352
1960.79746	0.01380
1959.51169	0.01484
1958.22592	0.01598
1956.94015	0.01658
1955.65439	0.01666
1954.36862	0.01679
1953.08285	0.01737
1951.79708	0.01828
1950.51131	0.01911
1949.22554	0.01958
1947.93977	0.01959
1946.65400	0.01922
1945.36823	0.01868
1944.08247	0.01834
1942.79670	0.01850
1941.51093	0.01907
1940.22516	0.01970
1938.93939	0.02008
1937.65362	0.02019
1936.36785	0.02018
1935.08208	0.02018
1933.79632	0.02020
1932.51055	0.02016
1931.22478	0.01997
1929.93901	0.01958
1928.65324	0.01912
1927.36747	0.01878
1926.08170	0.01871
1924.79593	0.01891
1923.51016	0.01929
1922.22440	0.01978
1920.93863	0.02028
1919.65286	0.02064
1918.36709	0.02073
1917.08132	0.02050
1915.79555	0.02015
1914.50978	0.02002
1913.22401	0.02026
1911.93825	0.02070
1910.65248	0.02095
1909.36671	0.02088
1908.08094	0.02073
1906.79517	0.02079
1905.50940	0.02112
1904.22363	0.02149
1902.93786	0.02167
1901.65209	0.02165
1900.36633	0.02152
1899.08056	0.02138
1897.79479	0.02127
1896.50902	0.02118
1895.22325	0.02115
1893.93748	0.02119
1892.65171	0.02137
1891.36594	0.02163
1890.08018	0.02188
1888.79441	0.02202
1887.50864	0.02208
1886.22287	0.02213
1884.93710	0.02218
1883.65133	0.02214
1882.36556	0.02193
1881.07979	0.02157
1879.79402	0.02118
1878.50826	0.02092
1877.22249	0.02091
1875.93672	0.02111
1874.65095	0.02142
1873.36518	0.02175
1872.07941	0.02206
1870.79364	0.02229
1869.50787	0.02232
1868.22211	0.02214
1866.93634	0.02184
1865.65057	0.02160
1864.36480	0.02152
1863.07903	0.02159
1861.79326	0.02174
1860.50749	0.02184
1859.22172	0.02184
1857.93595	0.02179
1856.65019	0.02176
1855.36442	0.02177
1854.07865	0.02179
1852.79288	0.02178
1851.50711	0.02171
1850.22134	0.02159
1848.93557	0.02146
1847.64980	0.02138
1846.36404	0.02144
1845.07827	0.02165
1843.79250	0.02193
1842.50673	0.02211
1841.22096	0.02210
1839.93519	0.02192
1838.64942	0.02166
1837.36365	0.02141
1836.07788	0.02122
1834.79212	0.02111
1833.50635	0.02108
1832.22058	0.02112
1830.93481	0.02124
1829.64904	0.02141
1828.36327	0.02158
1827.07750	0.02169
1825.79173	0.02170
1824.50597	0.02165
1823.22020	0.02159
1821.93443	0.02154
1820.64866	0.02145
1819.36289	0.02131
1818.07712	0.02117
1816.79135	0.02114
1815.50558	0.02126
1814.21981	0.02150
1812.93405	0.02173
1811.64828	0.02188
1810.36251	0.02197
1809.07674	0.02207
1807.79097	0.02219
1806.50520	0.02230
1805.21943	0.02235
1803.93366	0.02234
1802.64790	0.02232
1801.36213	0.02233
1800.07636	0.02232
1798.79059	0.02226
1797.50482	0.02220
1796.21905	0.02224
1794.93328	0.02236
1793.64751	0.02250
1792.36174	0.02254
1791.07598	0.02247
1789.79021	0.02230
1788.50444	0.02213
1787.21867	0.02202
1785.93290	0.02200
1784.64713	0.02204
1783.36136	0.02207
1782.07559	0.02210
1780.78983	0.02216
1779.50406	0.02225
1778.21829	0.02239
1776.93252	0.02256
1775.64675	0.02273
1774.36098	0.02283
1773.07521	0.02281
1771.78944	0.02270
1770.50367	0.02261
1769.21791	0.02262
1767.93214	0.02274
1766.64637	0.02289
1765.36060	0.02303
1764.07483	0.02314
1762.78906	0.02324
1761.50329	0.02330
1760.21752	0.02333
1758.93176	0.02330
1757.64599	0.02323
1756.36022	0.02315
1755.07445	0.02311
1753.78868	0.02314
1752.50291	0.02323
1751.21714	0.02330
1749.93137	0.02333
1748.64560	0.02336
1747.35984	0.02342
1746.07407	0.02354
1744.78830	0.02370
1743.50253	0.02386
1742.21676	0.02402
1740.93099	0.02419
1739.64522	0.02434
1738.35945	0.02446
1737.07369	0.02458
1735.78792	0.02473
1734.50215	0.02492
1733.21638	0.02509
1731.93061	0.02521
1730.64484	0.02528
1729.35907	0.02532
1728.07330	0.02536
1726.78753	0.02541
1725.50177	0.02551
1724.21600	0.02564
1722.93023	0.02580
1721.64446	0.02599
1720.35869	0.02622
1719.07292	0.02647
1717.78715	0.02673
1716.50138	0.02706
1715.21561	0.02746
1713.92985	0.02793
1712.64408	0.02840
1711.35831	0.02882
1710.07254	0.02920
1708.78677	0.02957
1707.50100	0.02996
1706.21523	0.03041
1704.92946	0.03093
1703.64370	0.03151
1702.35793	0.03213
1701.07216	0.03276
1699.78639	0.03337
1698.50062	0.03397
1697.21485	0.03456
1695.92908	0.03514
1694.64331	0.03572
1693.35754	0.03630
1692.07178	0.03692
1690.78601	0.03759
1689.50024	0.03827
1688.21447	0.03892
1686.92870	0.03955
1685.64293	0.04020
1684.35716	0.04089
1683.07139	0.04156
1681.78563	0.04216
1680.49986	0.04273
1679.21409	0.04335
1677.92832	0.04411
1676.64255	0.04500
1675.35678	0.04595
1674.07101	0.04687
1672.78524	0.04772
1671.49947	0.04851
1670.21371	0.04929
1668.92794	0.05009
1667.64217	0.05089
1666.35640	0.05168
1665.07063	0.05243
1663.78486	0.05316
1662.49909	0.05387
1661.21332	0.05453
1659.92756	0.05511
1658.64179	0.05559
1657.35602	0.05600
1656.07025	0.05641
1654.78448	0.05684
1653.49871	0.05729
1652.21294	0.05771
1650.92717	0.05805
1649.64140	0.05834
1648.35564	0.05859
1647.06987	0.05879
1645.78410	0.05892
1644.49833	0.05901
1643.21256	0.05906
1641.92679	0.05907
1640.64102	0.05901
1639.35525	0.05886
1638.06949	0.05862
1636.78372	0.05836
1635.49795	0.05809
1634.21218	0.05783
1632.92641	0.05760
1631.64064	0.05736
1630.35487	0.05708
1629.06910	0.05673
1627.78333	0.05635
1626.49757	0.05596
1625.21180	0.05556
1623.92603	0.05510
1622.64026	0.05458
1621.35449	0.05403
1620.06872	0.05351
1618.78295	0.05308
1617.49718	0.05271
1616.21142	0.05238
1614.92565	0.05204
1613.63988	0.05171
1612.35411	0.05144
1611.06834	0.05128
1609.78257	0.05122
1608.49680	0.05121
1607.21103	0.05117
1605.92526	0.05108
1604.63950	0.05096
1603.35373	0.05083
1602.06796	0.05071
1600.78219	0.05063
1599.49642	0.05060
1598.21065	0.05062
1596.92488	0.05068
1595.63911	0.05078
1594.35335	0.05090
1593.06758	0.05105
1591.78181	0.05119
1590.49604	0.05133
1589.21027	0.05149
1587.92450	0.05171
1586.63873	0.05198
1585.35296	0.05226
1584.06719	0.05253
1582.78143	0.05280
1581.49566	0.05311
1580.20989	0.05346
1578.92412	0.05382
1577.63835	0.05420
1576.35258	0.05462
1575.06681	0.05508
1573.78104	0.05554
1572.49528	0.05601
1571.20951	0.05650
1569.92374	0.05701
1568.63797	0.05751
1567.35220	0.05796
1566.06643	0.05832
1564.78066	0.05864
1563.49489	0.05895
1562.20912	0.05930
1560.92336	0.05972
1559.63759	0.06015
1558.35182	0.06053
1557.06605	0.06078
1555.78028	0.06093
1554.49451	0.06101
1553.20874	0.06108
1551.92297	0.06115
1550.63721	0.06119
1549.35144	0.06118
1548.06567	0.06111
1546.77990	0.06099
1545.49413	0.06086
1544.20836	0.06071
1542.92259	0.06052
1541.63682	0.06026
1540.35105	0.05994
1539.06529	0.05958
1537.77952	0.05922
1536.49375	0.05887
1535.20798	0.05856
1533.92221	0.05829
1532.63644	0.05806
1531.35067	0.05789
1530.06490	0.05780
1528.77914	0.05780
1527.49337	0.05786
1526.20760	0.05798
1524.92183	0.05816
1523.63606	0.05841
1522.35029	0.05873
1521.06452	0.05910
1519.77875	0.05951
1518.49298	0.05998
1517.20722	0.06052
1515.92145	0.06113
1514.63568	0.06180
1513.34991	0.06251
1512.06414	0.06327
1510.77837	0.06406
1509.49260	0.06490
1508.20683	0.06577
1506.92107	0.06664
1505.63530	0.06746
1504.34953	0.06819
1503.06376	0.06887
1501.77799	0.06951
1500.49222	0.07013
1499.20645	0.07071
1497.92068	0.07123
1496.63491	0.07170
1495.34915	0.07212
1494.06338	0.07252
1492.77761	0.07292
1491.49184	0.07338
1490.20607	0.07392
1488.92030	0.07453
1487.63453	0.07518
1486.34876	0.07589
1485.06299	0.07669
1483.77723	0.07759
1482.49146	0.07857
1481.20569	0.07962
1479.91992	0.08069
1478.63415	0.08174
1477.34838	0.08277
1476.06261	0.08377
1474.77684	0.08474
1473.49108	0.08568
1472.20531	0.08656
1470.91954	0.08736
1469.63377	0.08810
1468.34800	0.08876
1467.06223	0.08935
1465.77646	0.08988
1464.49069	0.09038
1463.20492	0.09087
1461.91916	0.09136
1460.63339	0.09187
1459.34762	0.09243
1458.06185	0.09309
1456.77608	0.09382
1455.49031	0.09454
1454.20454	0.09519
1452.91877	0.09574
1451.63301	0.09619
1450.34724	0.09657
1449.06147	0.09690
1447.77570	0.09717
1446.48993	0.09734
1445.20416	0.09739
1443.91839	0.09734
1442.63262	0.09721
1441.34685	0.09702
1440.06109	0.09678
1438.77532	0.09652
1437.48955	0.09630
1436.20378	0.09616
1434.91801	0.09614
1433.63224	0.09627
1432.34647	0.09656
1431.06070	0.09706
1429.77494	0.09777
1428.48917	0.09864
1427.20340	0.09963
1425.91763	0.10069
1424.63186	0.10182
1423.34609	0.10299
1422.06032	0.10415
1420.77455	0.10526
1419.48878	0.10635
1418.20302	0.10740
1416.91725	0.10837
1415.63148	0.10919
1414.34571	0.10981
1413.05994	0.11021
1411.77417	0.11042
1410.48840	0.11048
1409.20263	0.11040
1407.91687	0.11016
1406.63110	0.10973
1405.34533	0.10912
1404.05956	0.10833
1402.77379	0.10737
1401.48802	0.10626
1400.20225	0.10504
1398.91648	0.10376
1397.63071	0.10243
1396.34495	0.10106
1395.05918	0.09963
1393.77341	0.09813
1392.48764	0.09654
1391.20187	0.09491
1389.91610	0.09327
1388.63033	0.09170
1387.34456	0.09023
1386.05880	0.08888
1384.77303	0.08762
1383.48726	0.08639
1382.20149	0.08515
1380.91572	0.08389
1379.62995	0.08258
1378.34418	0.08124
1377.05841	0.07983
1375.77264	0.07832
1374.48688	0.07667
1373.20111	0.07488
1371.91534	0.07298
1370.62957	0.07108
1369.34380	0.06927
1368.05803	0.06763
1366.77226	0.06613
1365.48649	0.06472
1364.20073	0.06333
1362.91496	0.06192
1361.62919	0.06054
1360.34342	0.05919
1359.05765	0.05790
1357.77188	0.05670
1356.48611	0.05562
1355.20034	0.05467
1353.91457	0.05384
1352.62881	0.05309
1351.34304	0.05239
1350.05727	0.05171
1348.77150	0.05103
1347.48573	0.05036
1346.19996	0.04974
1344.91419	0.04920
1343.62842	0.04871
1342.34266	0.04822
1341.05689	0.04772
1339.77112	0.04721
1338.48535	0.04674
1337.19958	0.04631
1335.91381	0.04590
1334.62804	0.04549
1333.34227	0.04507
1332.05650	0.04463
1330.77074	0.04421
1329.48497	0.04381
1328.19920	0.04344
1326.91343	0.04307
1325.62766	0.04270
1324.34189	0.04230
1323.05612	0.04191
1321.77035	0.04155
1320.48459	0.04124
1319.19882	0.04096
1317.91305	0.04068
1316.62728	0.04038
1315.34151	0.04006
1314.05574	0.03974
1312.76997	0.03946
1311.48420	0.03922
1310.19843	0.03898
1308.91267	0.03872
1307.62690	0.03844
1306.34113	0.03815
1305.05536	0.03790
1303.76959	0.03769
1302.48382	0.03749
1301.19805	0.03726
1299.91228	0.03697
1298.62652	0.03667
1297.34075	0.03639
1296.05498	0.03616
1294.76921	0.03598
1293.48344	0.03585
1292.19767	0.03576
1290.91190	0.03570
1289.62613	0.03563
1288.34036	0.03554
1287.05460	0.03542
1285.76883	0.03528
1284.48306	0.03513
1283.19729	0.03498
1281.91152	0.03483
1280.62575	0.03468
1279.33998	0.03450
1278.05421	0.03431
1276.76845	0.03410
1275.48268	0.03390
1274.19691	0.03371
1272.91114	0.03356
1271.62537	0.03346
1270.33960	0.03341
1269.05383	0.03336
1267.76806	0.03330
1266.48229	0.03322
1265.19653	0.03313
1263.91076	0.03303
1262.62499	0.03293
1261.33922	0.03286
1260.05345	0.03281
1258.76768	0.03275
1257.48191	0.03266
1256.19614	0.03257
1254.91037	0.03254
1253.62461	0.03259
1252.33884	0.03268
1251.05307	0.03272
1249.76730	0.03269
1248.48153	0.03258
1247.19576	0.03240
1245.90999	0.03219
1244.62422	0.03199
1243.33846	0.03185
1242.05269	0.03176
1240.76692	0.03168
1239.48115	0.03157
1238.19538	0.03142
1236.90961	0.03128
1235.62384	0.03117
1234.33807	0.03106
1233.05230	0.03091
1231.76654	0.03070
1230.48077	0.03045
1229.19500	0.03021
1227.90923	0.02998
1226.62346	0.02975
1225.33769	0.02950
1224.05192	0.02925
1222.76615	0.02901
1221.48039	0.02876
1220.19462	0.02850
1218.90885	0.02822
1217.62308	0.02794
1216.33731	0.02769
1215.05154	0.02751
1213.76577	0.02741
1212.48000	0.02735
1211.19423	0.02730
1209.90847	0.02723
1208.62270	0.02715
1207.33693	0.02706
1206.05116	0.02699
1204.76539	0.02691
1203.47962	0.02682
1202.19385	0.02671
1200.90808	0.02655
1199.62232	0.02636
1198.33655	0.02616
1197.05078	0.02599
1195.76501	0.02585
1194.47924	0.02572
1193.19347	0.02555
1191.90770	0.02536
1190.62193	0.02517
1189.33616	0.02500
1188.05040	0.02487
1186.76463	0.02479
1185.47886	0.02473
1184.19309	0.02466
1182.90732	0.02453
1181.62155	0.02435
1180.33578	0.02414
1179.05001	0.02397
1177.76425	0.02387
1176.47848	0.02386
1175.19271	0.02388
1173.90694	0.02391
1172.62117	0.02392
1171.33540	0.02390
1170.04963	0.02386
1168.76386	0.02385
1167.47809	0.02388
1166.19233	0.02395
1164.90656	0.02402
1163.62079	0.02405
1162.33502	0.02404
1161.04925	0.02400
1159.76348	0.02395
1158.47771	0.02395
1157.19194	0.02403
1155.90618	0.02416
1154.62041	0.02425
1153.33464	0.02427
1152.04887	0.02428
1150.76310	0.02433
1149.47733	0.02444
1148.19156	0.02463
1146.90579	0.02488
1145.62002	0.02517
1144.33426	0.02549
1143.04849	0.02585
1141.76272	0.02628
1140.47695	0.02677
1139.19118	0.02735
1137.90541	0.02806
1136.61964	0.02898
1135.33387	0.03010
1134.04811	0.03136
1132.76234	0.03272
1131.47657	0.03423
1130.19080	0.03595
1128.90503	0.03789
1127.61926	0.04002
1126.33349	0.04236
1125.04772	0.04500
1123.76195	0.04794
1122.47619	0.05111
1121.19042	0.05439
1119.90465	0.05767
1118.61888	0.06090
1117.33311	0.06408
1116.04734	0.06719
1114.76157	0.07024
1113.47580	0.07322
1112.19004	0.07615
1110.90427	0.07901
1109.61850	0.08173
1108.33273	0.08425
1107.04696	0.08656
1105.76119	0.08872
1104.47542	0.09076
1103.18965	0.09270
1101.90388	0.09456
1100.61812	0.09636
1099.33235	0.09814
1098.04658	0.09990
1096.76081	0.10160
1095.47504	0.10315
1094.18927	0.10451
1092.90350	0.10571
1091.61773	0.10685
1090.33197	0.10798
1089.04620	0.10906
1087.76043	0.11007
1086.47466	0.11107
1085.18889	0.11215
1083.90312	0.11334
1082.61735	0.11460
1081.33158	0.11592
1080.04581	0.11736
1078.76005	0.11894
1077.47428	0.12064
1076.18851	0.12242
1074.90274	0.12428
1073.61697	0.12628
1072.33120	0.12845
1071.04543	0.13079
1069.75966	0.13319
1068.47390	0.13558
1067.18813	0.13792
1065.90236	0.14026
1064.61659	0.14265
1063.33082	0.14510
1062.04505	0.14757
1060.75928	0.15005
1059.47351	0.15256
1058.18774	0.15513
1056.90198	0.15773
1055.61621	0.16032
1054.33044	0.16284
1053.04467	0.16532
1051.75890	0.16782
1050.47313	0.17040
1049.18736	0.17309
1047.90159	0.17590
1046.61583	0.17885
1045.33006	0.18194
1044.04429	0.18509
1042.75852	0.18821
1041.47275	0.19126
1040.18698	0.19432
1038.90121	0.19751
1037.61544	0.20085
1036.32967	0.20425
1035.04391	0.20761
1033.75814	0.21082
1032.47237	0.21382
1031.18660	0.21656
1029.90083	0.21903
1028.61506	0.22124
1027.32929	0.22320
1026.04352	0.22495
1024.75775	0.22648
1023.47199	0.22776
1022.18622	0.22870
1020.90045	0.22926
1019.61468	0.22943
1018.32891	0.22922
1017.04314	0.22860
1015.75737	0.22754
1014.47160	0.22609
1013.18584	0.22426
1011.90007	0.22204
1010.61430	0.21935
1009.32853	0.21617
1008.04276	0.21253
1006.75699	0.20850
1005.47122	0.20418
1004.18545	0.19967
1002.89968	0.19499
1001.61392	0.19013
1000.32815	0.18508
999.04238	0.17987
997.75661	0.17456
996.47084	0.16915
995.18507	0.16369
993.89930	0.15823
992.61353	0.15288
991.32777	0.14766
990.04200	0.14260
988.75623	0.13770
987.47046	0.13303
986.18469	0.12859
984.89892	0.12437
983.61315	0.12039
982.32738	0.11668
981.04161	0.11325
979.75585	0.11003
978.47008	0.10694
977.18431	0.10398
975.89854	0.10122
974.61277	0.09880
973.32700	0.09678
972.04123	0.09517
970.75546	0.09396
969.46970	0.09318
968.18393	0.09283
966.89816	0.09290
965.61239	0.09334
964.32662	0.09402
963.04085	0.09474
961.75508	0.09526
960.46931	0.09540
959.18354	0.09506
957.89778	0.09422
956.61201	0.09291
955.32624	0.09119
954.04047	0.08924
952.75470	0.08723
951.46893	0.08527
950.18316	0.08342
948.89739	0.08169
947.61163	0.08004
946.32586	0.07845
945.04009	0.07684
943.75432	0.07520
942.46855	0.07354
941.18278	0.07195
939.89701	0.07050
938.61124	0.06922
937.32547	0.06808
936.03971	0.06704
934.75394	0.06604
933.46817	0.06505
932.18240	0.06403
930.89663	0.06298
929.61086	0.06194
928.32509	0.06100
927.03932	0.06018
925.75356	0.05947
924.46779	0.05881
923.18202	0.05817
921.89625	0.05757
920.61048	0.05697
919.32471	0.05632
918.03894	0.05561
916.75317	0.05492
915.46740	0.05430
914.18164	0.05375
912.89587	0.05322
911.61010	0.05269
910.32433	0.05216
909.03856	0.05166
907.75279	0.05119
906.46702	0.05073
905.18125	0.05028
903.89549	0.04986
902.60972	0.04950
901.32395	0.04916
900.03818	0.04880
898.75241	0.04844
897.46664	0.04808
896.18087	0.04773
894.89510	0.04738
893.60933	0.04704
892.32357	0.04679
891.03780	0.04672
889.75203	0.04689
888.46626	0.04729
887.18049	0.04785
885.89472	0.04860
884.60895	0.04969
883.32318	0.05130
882.03742	0.05342
880.75165	0.05571
879.46588	0.05778
878.18011	0.05941
876.89434	0.06076
875.60857	0.06211
874.32280	0.06356
873.03703	0.06487
871.75126	0.06572
870.46550	0.06594
869.17973	0.06551
867.89396	0.06450
866.60819	0.06291
865.32242	0.06084
864.03665	0.05853
862.75088	0.05631
861.46511	0.05436
860.17935	0.05272
858.89358	0.05136
857.60781	0.05025
856.32204	0.04939
855.03627	0.04872
853.75050	0.04815
852.46473	0.04761
851.17896	0.04707
849.89319	0.04654
848.60743	0.04607
847.32166	0.04567
846.03589	0.04532
844.75012	0.04498
843.46435	0.04468
842.17858	0.04441
840.89281	0.04414
839.60704	0.04387
838.32128	0.04361
837.03551	0.04341
835.74974	0.04325
834.46397	0.04308
833.17820	0.04287
831.89243	0.04264
830.60666	0.04244
829.32089	0.04227
828.03512	0.04210
826.74936	0.04194
825.46359	0.04179
824.17782	0.04168
822.89205	0.04160
821.60628	0.04155
820.32051	0.04151
819.03474	0.04148
817.74897	0.04143
816.46321	0.04134
815.17744	0.04125
813.89167	0.04117
812.60590	0.04108
811.32013	0.04098
810.03436	0.04085
808.74859	0.04072
807.46282	0.04062
806.17705	0.04055
804.89129	0.04053
803.60552	0.04055
802.31975	0.04059
801.03398	0.04063
799.74821	0.04063
798.46244	0.04058
797.17667	0.04045
795.89090	0.04027
794.60513	0.04011
793.31937	0.04002
792.03360	0.03999
790.74783	0.03996
789.46206	0.03988
788.17629	0.03976
786.89052	0.03968
785.60475	0.03965
784.31898	0.03960
783.03322	0.03949
781.74745	0.03934
780.46168	0.03920
779.17591	0.03910
777.89014	0.03902
776.60437	0.03896
775.31860	0.03894
774.03283	0.03895
772.74706	0.03898
771.46130	0.03899
770.17553	0.03897
768.88976	0.03892
767.60399	0.03884
766.31822	0.03876
765.03245	0.03871
763.74668	0.03875
762.46091	0.03886
761.17515	0.03901
759.88938	0.03916
758.60361	0.03928
757.31784	0.03936
756.03207	0.03937
754.74630	0.03931
753.46053	0.03921
752.17476	0.03913
750.88899	0.03911
749.60323	0.03916
748.31746	0.03923
747.03169	0.03926
745.74592	0.03924
744.46015	0.03919
743.17438	0.03915
741.88861	0.03909
740.60284	0.03902
739.31708	0.03891
738.03131	0.03879
736.74554	0.03869
735.45977	0.03860
734.17400	0.03852
732.88823	0.03846
731.60246	0.03852
730.31669	0.03870
729.03092	0.03889
727.74516	0.03897
726.45939	0.03892
725.17362	0.03883
723.88785	0.03903
722.60208	0.03924
721.31631	0.03900
720.03054	0.03887
718.74477	0.03922
717.45901	0.03920
716.17324	0.03896
714.88747	0.03880
713.60170	0.03873
712.31593	0.03865
711.03016	0.03855
709.74439	0.03844
708.45862	0.03835
707.17285	0.03831
705.88709	0.03835
704.60132	0.03848
703.31555	0.03864
702.02978	0.03880
700.74401	0.03892
699.45824	0.03901
698.17247	0.03912
696.88670	0.03922
695.60094	0.03932
694.31517	0.03944
693.02940	0.03960
691.74363	0.03977
690.45786	0.03995
689.17209	0.04010
687.88632	0.04019
686.60055	0.04024
685.31478	0.04027
684.02902	0.04027
682.74325	0.04027
681.45748	0.04029
680.17171	0.04030
678.88594	0.04024
677.60017	0.04004
676.31440	0.03972
675.02863	0.03957
673.74287	0.04043
672.45710	0.04322
671.17133	0.04618
669.88556	0.04295
668.59979	0.03308
667.31402	0.03460
666.02825	0.04360
664.74248	0.04420
663.45671	0.04050
662.17095	0.03810
660.88518	0.03746
659.59941	0.03756
658.31364	0.03779
657.02787	0.03791
655.74210	0.03789
654.45633	0.03787
653.17056	0.03776
651.88480	0.03762
650.59903	0.03740
649.31326	0.03708
648.02749	0.03693
646.74172	0.03674
645.45595	0.03638
644.17018	0.03601
642.88441	0.03569
641.59864	0.03545
640.31288	0.03527
639.02711	0.03515
637.74134	0.03508
636.45557	0.03510
635.16980	0.03516
633.88403	0.03523
632.59826	0.03530
631.31249	0.03539
630.02673	0.03558
628.74096	0.03598
627.45519	0.03653
626.16942	0.03743
624.88365	0.03832
623.59788	0.03912
622.31211	0.04060
621.02634	0.04358
619.74057	0.04740
618.45481	0.05036
617.16904	0.05176
615.88327	0.05241
614.59750	0.05346
613.31173	0.05548
612.02596	0.05857
610.74019	0.06282
609.45442	0.06812
608.16866	0.07382
606.88289	0.07910
605.59712	0.08347
604.31135	0.08675
603.02558	0.08882
601.73981	0.08968
600.45404	0.08944
599.16827	0.08831
597.88250	0.08658
596.59674	0.08455
595.31097	0.08246
594.02520	0.08045
592.73943	0.07856
591.45366	0.07686
590.16789	0.07552
588.88212	0.07477
587.59635	0.07472
586.31059	0.07529
585.02482	0.07634
583.73905	0.07775
582.45328	0.07946
581.16751	0.08133
579.88174	0.08326
578.59597	0.08519
577.31020	0.08712
576.02443	0.08907
574.73867	0.09097
573.45290	0.09276
572.16713	0.09444
570.88136	0.09621
569.59559	0.09839
568.30982	0.10126
567.02405	0.10484
565.73828	0.10879
564.45251	0.11249
563.16675	0.11532
561.88098	0.11686
560.59521	0.11685
559.30944	0.11527
558.02367	0.11234
556.73790	0.10852
555.45213	0.10420
554.16636	0.09965
552.88060	0.09497
551.59483	0.09032
550.30906	0.08585
549.02329	0.08170
547.73752	0.07793
546.45175	0.07461
545.16598	0.07171
543.88021	0.06919
542.59444	0.06695
541.30868	0.06493
540.02291	0.06311
538.73714	0.06146
537.45137	0.05996
536.16560	0.05861
534.87983	0.05739
533.59406	0.05627
532.30829	0.05519
531.02253	0.05412
529.73676	0.05307
528.45099	0.05203
527.16522	0.05103
525.87945	0.05008
524.59368	0.04917
523.30791	0.04832
522.02214	0.04752
520.73637	0.04681
519.45061	0.04621
518.16484	0.04570
516.87907	0.04522
515.59330	0.04468
514.30753	0.04404
513.02176	0.04338
511.73599	0.04280
510.45022	0.04234
509.16446	0.04198
507.87869	0.04165
506.59292	0.04129
505.30715	0.04085
504.02138	0.04025
502.73561	0.03951
501.44984	0.03878
500.16407	0.03819
498.87830	0.03779
497.59254	0.03752
496.30677	0.03721
495.02100	0.03679
493.73523	0.03631
492.44946	0.03591
491.16369	0.03563
489.87792	0.03543
488.59215	0.03519
487.30639	0.03491
486.02062	0.03462
484.73485	0.03442
483.44908	0.03433
482.16331	0.03431
480.87754	0.03431
479.59177	0.03427
478.30600	0.03423
477.02023	0.03423
475.73447	0.03433
474.44870	0.03455
473.16293	0.03481
471.87716	0.03496
470.59139	0.03494
469.30562	0.03480
468.01985	0.03466
466.73408	0.03455
465.44832	0.03438
464.16255	0.03408
462.87678	0.03366
461.59101	0.03319
460.30524	0.03279
459.01947	0.03252
457.73370	0.03236
456.44793	0.03223
455.16216	0.03201
453.87640	0.03162
452.59063	0.03112
451.30486	0.03062
450.01909	0.03022
448.73332	0.02993
447.44755	0.02970
446.16178	0.02946
444.87601	0.02920
443.59025	0.02893
442.30448	0.02866
441.01871	0.02839
439.73294	0.02814
438.44717	0.02790
437.16140	0.02771
435.87563	0.02758
434.58986	0.02748
433.30409	0.02740
432.01833	0.02734
430.73256	0.02728
429.44679	0.02718
428.16102	0.02704
426.87525	0.02684
425.58948	0.02660
424.30371	0.02634
423.01794	0.02612
421.73218	0.02593
420.44641	0.02577
419.16064	0.02562
417.87487	0.02549
416.58910	0.02536
415.30333	0.02523
414.01756	0.02507
412.73179	0.02488
411.44602	0.02468
410.16026	0.02447
408.87449	0.02425
407.58872	0.02407
406.30295	0.02396
405.01718	0.02394
403.73141	0.02396
402.44564	0.02398
401.15987	0.02402
399.87411	0.02406
