3997.45528	0.04067
3996.16951	0.04017
3994.88374	0.03965
3993.59798	0.03907
3992.31221	0.03864
3991.02644	0.03861
3989.74067	0.03903
3988.45490	0.03972
3987.16913	0.04037
3985.88336	0.04070
3984.59759	0.04059
3983.31183	0.04016
3982.02606	0.03972
3980.74029	0.03965
3979.45452	0.04017
3978.16875	0.04115
3976.88298	0.04214
3975.59721	0.04262
3974.31144	0.04238
3973.02567	0.04164
3971.73991	0.04080
3970.45414	0.04017
3969.16837	0.03970
3967.88260	0.03924
3966.59683	0.03879
3965.31106	0.03848
3964.02529	0.03844
3962.73952	0.03859
3961.45376	0.03876
3960.16799	0.03881
3958.88222	0.03866
3957.59645	0.03835
3956.31068	0.03804
3955.02491	0.03795
3953.73914	0.03821
3952.45337	0.03866
3951.16760	0.03897
3949.88184	0.03891
3948.59607	0.03854
3947.31030	0.03818
3946.02453	0.03807
3944.73876	0.03816
3943.45299	0.03820
3942.16722	0.03802
3940.88145	0.03769
3939.59569	0.03733
3938.30992	0.03700
3937.02415	0.03674
3935.73838	0.03668
3934.45261	0.03687
3933.16684	0.03720
3931.88107	0.03747
3930.59530	0.03766
3929.30953	0.03791
3928.02377	0.03833
3926.73800	0.03878
3925.45223	0.03908
3924.16646	0.03916
3922.88069	0.03910
3921.59492	0.03891
3920.30915	0.03854
3919.02338	0.03813
3917.73762	0.03788
3916.45185	0.03779
3915.16608	0.03770
3913.88031	0.03751
3912.59454	0.03719
3911.30877	0.03673
3910.02300	0.03627
3908.73723	0.03617
3907.45146	0.03675
3906.16570	0.03788
3904.87993	0.03895
3903.59416	0.03940
3902.30839	0.03922
3901.02262	0.03882
3899.73685	0.03857
3898.45108	0.03859
3897.16531	0.03876
3895.87955	0.03890
3894.59378	0.03892
3893.30801	0.03887
3892.02224	0.03882
3890.73647	0.03874
3889.45070	0.03858
3888.16493	0.03840
3886.87916	0.03815
3885.59339	0.03774
3884.30763	0.03727
3883.02186	0.03693
3881.73609	0.03671
3880.45032	0.03653
3879.16455	0.03642
3877.87878	0.03652
3876.59301	0.03683
3875.30724	0.03729
3874.02148	0.03789
3872.73571	0.03863
3871.44994	0.03922
3870.16417	0.03924
3868.87840	0.03863
3867.59263	0.03778
3866.30686	0.03703
3865.02109	0.03641
3863.73532	0.03593
3862.44956	0.03572
3861.16379	0.03580
3859.87802	0.03609
3858.59225	0.03656
3857.30648	0.03718
3856.02071	0.03767
3854.73494	0.03754
3853.44917	0.03666
3852.16341	0.03570
3850.87764	0.03551
3849.59187	0.03620
3848.30610	0.03719
3847.02033	0.03791
3845.73456	0.03821
3844.44879	0.03813
3843.16302	0.03774
3841.87725	0.03713
3840.59149	0.03641
3839.30572	0.03564
3838.01995	0.03486
3836.73418	0.03435
3835.44841	0.03448
3834.16264	0.03524
3832.87687	0.03611
3831.59110	0.03652
3830.30534	0.03644
3829.01957	0.03629
3827.73380	0.03649
3826.44803	0.03707
3825.16226	0.03779
3823.87649	0.03831
3822.59072	0.03838
3821.30495	0.03803
3820.01918	0.03762
3818.73342	0.03750
3817.44765	0.03753
3816.16188	0.03723
3814.87611	0.03663
3813.59034	0.03636
3812.30457	0.03671
3811.01880	0.03728
3809.73303	0.03753
3808.44726	0.03728
3807.16150	0.03667
3805.87573	0.03609
3804.58996	0.03604
3803.30419	0.03655
3802.01842	0.03698
3800.73265	0.03677
3799.44688	0.03622
3798.16111	0.03604
3796.87535	0.03636
3795.58958	0.03674
3794.30381	0.03681
3793.01804	0.03650
3791.73227	0.03593
3790.44650	0.03537
3789.16073	0.03518
3787.87496	0.03547
3786.58919	0.03596
3785.30343	0.03624
3784.01766	0.03623
3782.73189	0.03622
3781.44612	0.03648
3780.16035	0.03692
3778.87458	0.03732
3777.58881	0.03754
3776.30304	0.03749
3775.01728	0.03711
3773.73151	0.03640
3772.44574	0.03570
3771.15997	0.03543
3769.87420	0.03573
3768.58843	0.03642
3767.30266	0.03711
3766.01689	0.03739
3764.73112	0.03708
3763.44536	0.03647
3762.15959	0.03597
3760.87382	0.03572
3759.58805	0.03553
3758.30228	0.03532
3757.01651	0.03518
3755.73074	0.03518
3754.44497	0.03513
3753.15921	0.03469
3751.87344	0.03379
3750.58767	0.03294
3749.30190	0.03267
3748.01613	0.03304
3746.73036	0.03356
3745.44459	0.03362
3744.15882	0.03306
3742.87305	0.03262
3741.58729	0.03316
3740.30152	0.03450
3739.01575	0.03574
3737.72998	0.03631
3736.44421	0.03628
3735.15844	0.03608
3733.87267	0.03608
3732.58690	0.03624
3731.30114	0.03622
3730.01537	0.03589
3728.72960	0.03547
3727.44383	0.03514
3726.15806	0.03480
3724.87229	0.03434
3723.58652	0.03386
3722.30075	0.03356
3721.01498	0.03355
3719.72922	0.03382
3718.44345	0.03428
3717.15768	0.03479
3715.87191	0.03518
3714.58614	0.03516
3713.30037	0.03449
3712.01460	0.03339
3710.72883	0.03245
3709.44307	0.03217
3708.15730	0.03249
3706.87153	0.03286
3705.58576	0.03271
3704.29999	0.03194
3703.01422	0.03100
3701.72845	0.03056
3700.44268	0.03076
3699.15691	0.03117
3697.87115	0.03142
3696.58538	0.03155
3695.29961	0.03167
3694.01384	0.03186
3692.72807	0.03210
3691.44230	0.03226
3690.15653	0.03217
3688.87076	0.03180
3687.58500	0.03130
3686.29923	0.03089
3685.01346	0.03081
3683.72769	0.03106
3682.44192	0.03148
3681.15615	0.03202
3679.87038	0.03254
3678.58461	0.03290
3677.29884	0.03317
3676.01308	0.03344
3674.72731	0.03369
3673.44154	0.03394
3672.15577	0.03419
3670.87000	0.03431
3669.58423	0.03417
3668.29846	0.03383
3667.01269	0.03344
3665.72693	0.03303
3664.44116	0.03267
3663.15539	0.03244
3661.86962	0.03239
3660.58385	0.03252
3659.29808	0.03274
3658.01231	0.03286
3656.72654	0.03277
3655.44077	0.03256
3654.15501	0.03258
3652.86924	0.03296
3651.58347	0.03332
3650.29770	0.03313
3649.01193	0.03228
3647.72616	0.03129
3646.44039	0.03078
3645.15462	0.03089
3643.86886	0.03126
3642.58309	0.03157
3641.29732	0.03185
3640.01155	0.03232
3638.72578	0.03295
3637.44001	0.03348
3636.15424	0.03372
3634.86847	0.03372
3633.58270	0.03364
3632.29694	0.03359
3631.01117	0.03349
3629.72540	0.03313
3628.43963	0.03248
3627.15386	0.03197
3625.86809	0.03209
3624.58232	0.03279
3623.29655	0.03355
3622.01079	0.03397
3620.72502	0.03406
3619.43925	0.03407
3618.15348	0.03410
3616.86771	0.03411
3615.58194	0.03395
3614.29617	0.03366
3613.01040	0.03343
3611.72463	0.03345
3610.43887	0.03363
3609.15310	0.03376
3607.86733	0.03387
3606.58156	0.03423
3605.29579	0.03494
3604.01002	0.03573
3602.72425	0.03623
3601.43848	0.03641
3600.15272	0.03644
3598.86695	0.03639
3597.58118	0.03620
3596.29541	0.03595
3595.00964	0.03576
3593.72387	0.03574
3592.43810	0.03601
3591.15233	0.03655
3589.86656	0.03706
3588.58080	0.03714
3587.29503	0.03668
3586.00926	0.03598
3584.72349	0.03545
3583.43772	0.03532
3582.15195	0.03540
3580.86618	0.03552
3579.58041	0.03575
3578.29464	0.03629
3577.00888	0.03700
3575.72311	0.03752
3574.43734	0.03765
3573.15157	0.03755
3571.86580	0.03755
3570.58003	0.03777
3569.29426	0.03818
3568.00849	0.03859
3566.72273	0.03885
3565.43696	0.03883
3564.15119	0.03849
3562.86542	0.03795
3561.57965	0.03750
3560.29388	0.03750
3559.00811	0.03799
3557.72234	0.03864
3556.43657	0.03904
3555.15081	0.03892
3553.86504	0.03839
3552.57927	0.03782
3551.29350	0.03752
3550.00773	0.03763
3548.72196	0.03804
3547.43619	0.03860
3546.15042	0.03923
3544.86466	0.03986
3543.57889	0.04040
3542.29312	0.04075
3541.00735	0.04091
3539.72158	0.04093
3538.43581	0.04081
3537.15004	0.04059
3535.86427	0.04043
3534.57850	0.04058
3533.29274	0.04099
3532.00697	0.04132
3530.72120	0.04120
3529.43543	0.04074
3528.14966	0.04044
3526.86389	0.04062
3525.57812	0.04108
3524.29235	0.04143
3523.00659	0.04158
3521.72082	0.04181
3520.43505	0.04226
3519.14928	0.04269
3517.86351	0.04270
3516.57774	0.04229
3515.29197	0.04191
3514.00620	0.04199
3512.72043	0.04246
3511.43467	0.04287
3510.14890	0.04277
3508.86313	0.04220
3507.57736	0.04157
3506.29159	0.04140
3505.00582	0.04189
3503.72005	0.04275
3502.43428	0.04341
3501.14852	0.04349
3499.86275	0.04316
3498.57698	0.04296
3497.29121	0.04323
3496.00544	0.04385
3494.71967	0.04441
3493.43390	0.04461
3492.14813	0.04450
3490.86236	0.04428
3489.57660	0.04410
3488.29083	0.04393
3487.00506	0.04370
3485.71929	0.04344
3484.43352	0.04327
3483.14775	0.04320
3481.86198	0.04315
3480.57621	0.04309
3479.29045	0.04319
3478.00468	0.04358
3476.71891	0.04421
3475.43314	0.04477
3474.14737	0.04499
3472.86160	0.04493
3471.57583	0.04484
3470.29006	0.04496
3469.00429	0.04528
3467.71853	0.04567
3466.43276	0.04598
3465.14699	0.04608
3463.86122	0.04592
3462.57545	0.04557
3461.28968	0.04527
3460.00391	0.04527
3458.71814	0.04559
3457.43238	0.04606
3456.14661	0.04645
3454.86084	0.04664
3453.57507	0.04664
3452.28930	0.04650
3451.00353	0.04633
3449.71776	0.04625
3448.43199	0.04631
3447.14622	0.04646
3445.86046	0.04664
3444.57469	0.04684
3443.28892	0.04706
3442.00315	0.04722
3440.71738	0.04730
3439.43161	0.04739
3438.14584	0.04756
3436.86007	0.04773
3435.57431	0.04778
3434.28854	0.04772
3433.00277	0.04758
3431.71700	0.04736
3430.43123	0.04703
3429.14546	0.04668
3427.85969	0.04655
3426.57392	0.04675
3425.28815	0.04711
3424.00239	0.04730
3422.71662	0.04718
3421.43085	0.04692
3420.14508	0.04681
3418.85931	0.04704
3417.57354	0.04753
3416.28777	0.04809
3415.00200	0.04846
3413.71624	0.04845
3412.43047	0.04812
3411.14470	0.04777
3409.85893	0.04768
3408.57316	0.04791
3407.28739	0.04830
3406.00162	0.04872
3404.71585	0.04912
3403.43008	0.04948
3402.14432	0.04981
3400.85855	0.05014
3399.57278	0.05033
3398.28701	0.05031
3397.00124	0.05007
3395.71547	0.04956
3394.42970	0.04902
3393.14393	0.04873
3391.85817	0.04879
3390.57240	0.04908
3389.28663	0.04939
3388.00086	0.04957
3386.71509	0.04961
3385.42932	0.04966
3384.14355	0.04985
3382.85778	0.05018
3381.57201	0.05050
3380.28625	0.05069
3379.00048	0.05071
3377.71471	0.05066
3376.42894	0.05054
3375.14317	0.05026
3373.85740	0.04973
3372.57163	0.04915
3371.28586	0.04892
3370.00010	0.04926
3368.71433	0.04999
3367.42856	0.05066
3366.14279	0.05099
3364.85702	0.05107
3363.57125	0.05110
3362.28548	0.05122
3360.99971	0.05138
3359.71394	0.05150
3358.42818	0.05156
3357.14241	0.05161
3355.85664	0.05171
3354.57087	0.05192
3353.28510	0.05221
3351.99933	0.05234
3350.71356	0.05212
3349.42779	0.05161
3348.14202	0.05119
3346.85626	0.05120
3345.57049	0.05159
3344.28472	0.05203
3342.99895	0.05226
3341.71318	0.05228
3340.42741	0.05222
3339.14164	0.05215
3337.85587	0.05210
3336.57011	0.05205
3335.28434	0.05195
3333.99857	0.05180
3332.71280	0.05167
3331.42703	0.05167
3330.14126	0.05178
3328.85549	0.05178
3327.56972	0.05148
3326.28395	0.05097
3324.99819	0.05059
3323.71242	0.05060
3322.42665	0.05096
3321.14088	0.05147
3319.85511	0.05199
3318.56934	0.05244
3317.28357	0.05278
3315.99780	0.05296
3314.71204	0.05295
3313.42627	0.05276
3312.14050	0.05249
3310.85473	0.05235
3309.56896	0.05243
3308.28319	0.05263
3306.99742	0.05271
3305.71165	0.05253
3304.42588	0.05214
3303.14012	0.05180
3301.85435	0.05179
3300.56858	0.05222
3299.28281	0.05284
3297.99704	0.05329
3296.71127	0.05335
3295.42550	0.05309
3294.13973	0.05277
3292.85397	0.05262
3291.56820	0.05270
3290.28243	0.05290
3288.99666	0.05317
3287.71089	0.05345
3286.42512	0.05358
3285.13935	0.05338
3283.85358	0.05288
3282.56781	0.05236
3281.28205	0.05206
3279.99628	0.05196
3278.71051	0.05202
3277.42474	0.05224
3276.13897	0.05262
3274.85320	0.05292
3273.56743	0.05290
3272.28166	0.05252
3270.99590	0.05200
3269.71013	0.05160
3268.42436	0.05140
3267.13859	0.05133
3265.85282	0.05128
3264.56705	0.05124
3263.28128	0.05126
3261.99551	0.05137
3260.70974	0.05152
3259.42398	0.05164
3258.13821	0.05174
3256.85244	0.05181
3255.56667	0.05185
3254.28090	0.05184
3252.99513	0.05176
3251.70936	0.05162
3250.42359	0.05139
3249.13783	0.05104
3247.85206	0.05060
3246.56629	0.05018
3245.28052	0.04994
3243.99475	0.04990
3242.70898	0.04990
3241.42321	0.04983
3240.13744	0.04981
3238.85167	0.05006
3237.56591	0.05055
3236.28014	0.05096
3234.99437	0.05098
3233.70860	0.05057
3232.42283	0.05001
3231.13706	0.04962
3229.85129	0.04957
3228.56552	0.04977
3227.27976	0.04998
3225.99399	0.04996
3224.70822	0.04970
3223.42245	0.04934
3222.13668	0.04914
3220.85091	0.04923
3219.56514	0.04948
3218.27937	0.04965
3216.99360	0.04967
3215.70784	0.04971
3214.42207	0.04989
3213.13630	0.05006
3211.85053	0.05004
3210.56476	0.04980
3209.27899	0.04952
3207.99322	0.04937
3206.70745	0.04933
3205.42169	0.04929
3204.13592	0.04917
3202.85015	0.04905
3201.56438	0.04903
3200.27861	0.04909
3198.99284	0.04914
3197.70707	0.04911
3196.42130	0.04901
3195.13553	0.04893
3193.84977	0.04886
3192.56400	0.04869
3191.27823	0.04842
3189.99246	0.04822
3188.70669	0.04833
3187.42092	0.04870
3186.13515	0.04904
3184.84938	0.04900
3183.56362	0.04856
3182.27785	0.04797
3180.99208	0.04753
3179.70631	0.04733
3178.42054	0.04728
3177.13477	0.04719
3175.84900	0.04699
3174.56323	0.04677
3173.27746	0.04670
3171.99170	0.04687
3170.70593	0.04712
3169.42016	0.04728
3168.13439	0.04733
3166.84862	0.04736
3165.56285	0.04743
3164.27708	0.04748
3162.99131	0.04744
3161.70555	0.04728
3160.41978	0.04703
3159.13401	0.04666
3157.84824	0.04621
3156.56247	0.04573
3155.27670	0.04534
3153.99093	0.04513
3152.70516	0.04514
3151.41939	0.04530
3150.13363	0.04550
3148.84786	0.04565
3147.56209	0.04573
3146.27632	0.04577
3144.99055	0.04584
3143.70478	0.04593
3142.41901	0.04597
3141.13324	0.04581
3139.84748	0.04538
3138.56171	0.04480
3137.27594	0.04438
3135.99017	0.04438
3134.70440	0.04475
3133.41863	0.04514
3132.13286	0.04523
3130.84709	0.04501
3129.56132	0.04467
3128.27556	0.04442
3126.98979	0.04431
3125.70402	0.04429
3124.41825	0.04429
3123.13248	0.04430
3121.84671	0.04440
3120.56094	0.04465
3119.27517	0.04502
3117.98940	0.04538
3116.70364	0.04555
3115.41787	0.04542
3114.13210	0.04498
3112.84633	0.04440
3111.56056	0.04394
3110.27479	0.04371
3108.98902	0.04359
3107.70325	0.04340
3106.41749	0.04313
3105.13172	0.04299
3103.84595	0.04312
3102.56018	0.04344
3101.27441	0.04376
3099.98864	0.04406
3098.70287	0.04437
3097.41710	0.04467
3096.13133	0.04484
3094.84557	0.04479
3093.55980	0.04456
3092.27403	0.04423
3090.98826	0.04394
3089.70249	0.04380
3088.41672	0.04384
3087.13095	0.04390
3085.84518	0.04380
3084.55942	0.04360
3083.27365	0.04350
3081.98788	0.04363
3080.70211	0.04385
3079.41634	0.04391
3078.13057	0.04376
3076.84480	0.04357
3075.55903	0.04352
3074.27326	0.04360
3072.98750	0.04365
3071.70173	0.04357
3070.41596	0.04344
3069.13019	0.04339
3067.84442	0.04348
3066.55865	0.04358
3065.27288	0.04353
3063.98711	0.04329
3062.70135	0.04300
3061.41558	0.04285
3060.12981	0.04288
3058.84404	0.04290
3057.55827	0.04275
3056.27250	0.04245
3054.98673	0.04213
3053.70096	0.04193
3052.41519	0.04183
3051.12943	0.04176
3049.84366	0.04164
3048.55789	0.04154
3047.27212	0.04155
3045.98635	0.04172
3044.70058	0.04200
3043.41481	0.04229
3042.12904	0.04247
3040.84328	0.04251
3039.55751	0.04239
3038.27174	0.04210
3036.98597	0.04166
3035.70020	0.04118
3034.41443	0.04079
3033.12866	0.04065
3031.84289	0.04078
3030.55712	0.04105
3029.27136	0.04119
3027.98559	0.04103
3026.69982	0.04063
3025.41405	0.04026
3024.12828	0.04012
3022.84251	0.04018
3021.55674	0.04033
3020.27097	0.04055
3018.98521	0.04091
3017.69944	0.04131
3016.41367	0.04156
3015.12790	0.04152
3013.84213	0.04125
3012.55636	0.04097
3011.27059	0.04079
3009.98482	0.04068
3008.69905	0.04052
3007.41329	0.04028
3006.12752	0.04009
3004.84175	0.04011
3003.55598	0.04031
3002.27021	0.04047
3000.98444	0.04037
2999.69867	0.03990
2998.41290	0.03954
2997.12714	0.03945
2995.84137	0.03962
2994.55560	0.03994
2993.26983	0.04030
2991.98406	0.04059
2990.69829	0.04065
2989.41252	0.04041
2988.12675	0.03997
2986.84098	0.03957
2985.55522	0.03944
2984.26945	0.03968
2982.98368	0.04020
2981.69791	0.04070
2980.41214	0.04095
2979.12637	0.04090
2977.84060	0.04067
2976.55483	0.04042
2975.26907	0.04033
2973.98330	0.04056
2972.69753	0.04110
2971.41176	0.04177
2970.12599	0.04232
2968.84022	0.04268
2967.55445	0.04301
2966.26868	0.04348
2964.98291	0.04409
2963.69715	0.04461
2962.41138	0.04487
2961.12561	0.04489
2959.83984	0.04489
2958.55407	0.04504
2957.26830	0.04536
2955.98253	0.04571
2954.69676	0.04590
2953.41100	0.04595
2952.12523	0.04607
2950.83946	0.04643
2949.55369	0.04698
2948.26792	0.04747
2946.98215	0.04777
2945.69638	0.04793
2944.41061	0.04798
2943.12484	0.04789
2941.83908	0.04762
2940.55331	0.04722
2939.26754	0.04685
2937.98177	0.04665
2936.69600	0.04670
2935.41023	0.04699
2934.12446	0.04751
2932.83869	0.04819
2931.55293	0.04889
2930.26716	0.04940
2928.98139	0.04956
2927.69562	0.04945
2926.40985	0.04926
2925.12408	0.04916
2923.83831	0.04920
2922.55254	0.04934
2921.26677	0.04945
2919.98101	0.04947
2918.69524	0.04937
2917.40947	0.04918
2916.12370	0.04885
2914.83793	0.04842
2913.55216	0.04802
2912.26639	0.04777
2910.98062	0.04762
2909.69486	0.04745
2908.40909	0.04723
2907.12332	0.04702
2905.83755	0.04691
2904.55178	0.04688
2903.26601	0.04683
2901.98024	0.04663
2900.69447	0.04630
2899.40870	0.04595
2898.12294	0.04563
2896.83717	0.04523
2895.55140	0.04470
2894.26563	0.04417
2892.97986	0.04387
2891.69409	0.04386
2890.40832	0.04402
2889.12255	0.04418
2887.83678	0.04421
2886.55102	0.04412
2885.26525	0.04394
2883.97948	0.04375
2882.69371	0.04361
2881.40794	0.04351
2880.12217	0.04349
2878.83640	0.04359
2877.55063	0.04377
2876.26487	0.04394
2874.97910	0.04406
2873.69333	0.04415
2872.40756	0.04423
2871.12179	0.04426
2869.83602	0.04416
2868.55025	0.04399
2867.26448	0.04384
2865.97871	0.04381
2864.69295	0.04392
2863.40718	0.04406
2862.12141	0.04413
2860.83564	0.04408
2859.54987	0.04396
2858.26410	0.04383
2856.97833	0.04369
2855.69256	0.04358
2854.40680	0.04358
2853.12103	0.04373
2851.83526	0.04385
2850.54949	0.04369
2849.26372	0.04318
2847.97795	0.04253
2846.69218	0.04199
2845.40641	0.04169
2844.12064	0.04159
2842.83488	0.04158
2841.54911	0.04152
2840.26334	0.04137
2838.97757	0.04114
2837.69180	0.04087
2836.40603	0.04053
2835.12026	0.04008
2833.83449	0.03957
2832.54873	0.03918
2831.26296	0.03899
2829.97719	0.03896
2828.69142	0.03891
2827.40565	0.03870
2826.11988	0.03831
2824.83411	0.03791
2823.54834	0.03763
2822.26257	0.03748
2820.97681	0.03738
2819.69104	0.03735
2818.40527	0.03745
2817.11950	0.03762
2815.83373	0.03767
2814.54796	0.03751
2813.26219	0.03721
2811.97642	0.03695
2810.69066	0.03684
2809.40489	0.03684
2808.11912	0.03686
2806.83335	0.03682
2805.54758	0.03665
2804.26181	0.03637
2802.97604	0.03605
2801.69027	0.03585
2800.40450	0.03579
2799.11874	0.03577
2797.83297	0.03566
2796.54720	0.03549
2795.26143	0.03538
2793.97566	0.03536
2792.68989	0.03533
2791.40412	0.03523
2790.11835	0.03510
2788.83259	0.03505
2787.54682	0.03510
2786.26105	0.03518
2784.97528	0.03524
2783.68951	0.03526
2782.40374	0.03523
2781.11797	0.03514
2779.83220	0.03499
2778.54643	0.03478
2777.26067	0.03459
2775.97490	0.03451
2774.68913	0.03456
2773.40336	0.03466
2772.11759	0.03473
2770.83182	0.03474
2769.54605	0.03470
2768.26028	0.03463
2766.97452	0.03449
2765.68875	0.03428
2764.40298	0.03408
2763.11721	0.03400
2761.83144	0.03407
2760.54567	0.03421
2759.25990	0.03432
2757.97413	0.03438
2756.68836	0.03440
2755.40260	0.03437
2754.11683	0.03428
2752.83106	0.03414
2751.54529	0.03402
2750.25952	0.03396
2748.97375	0.03392
2747.68798	0.03385
2746.40221	0.03372
2745.11645	0.03357
2743.83068	0.03347
2742.54491	0.03344
2741.25914	0.03354
2739.97337	0.03377
2738.68760	0.03402
2737.40183	0.03414
2736.11606	0.03406
2734.83029	0.03387
2733.54453	0.03363
2732.25876	0.03345
2730.97299	0.03340
2729.68722	0.03352
2728.40145	0.03367
2727.11568	0.03366
2725.82991	0.03344
2724.54414	0.03313
2723.25838	0.03291
2721.97261	0.03284
2720.68684	0.03285
2719.40107	0.03278
2718.11530	0.03258
2716.82953	0.03230
2715.54376	0.03208
2714.25799	0.03202
2712.97222	0.03211
2711.68646	0.03225
2710.40069	0.03229
2709.11492	0.03220
2707.82915	0.03205
2706.54338	0.03197
2705.25761	0.03202
2703.97184	0.03215
2702.68607	0.03228
2701.40031	0.03238
2700.11454	0.03245
2698.82877	0.03244
2697.54300	0.03229
2696.25723	0.03204
2694.97146	0.03179
2693.68569	0.03161
2692.39992	0.03147
2691.11415	0.03136
2689.82839	0.03128
2688.54262	0.03132
2687.25685	0.03148
2685.97108	0.03172
2684.68531	0.03196
2683.39954	0.03214
2682.11377	0.03223
2680.82800	0.03218
2679.54224	0.03200
2678.25647	0.03174
2676.97070	0.03150
2675.68493	0.03138
2674.39916	0.03144
2673.11339	0.03162
2671.82762	0.03177
2670.54185	0.03179
2669.25608	0.03167
2667.97032	0.03149
2666.68455	0.03136
2665.39878	0.03138
2664.11301	0.03158
2662.82724	0.03191
2661.54147	0.03224
2660.25570	0.03245
2658.96993	0.03249
2657.68417	0.03240
2656.39840	0.03230
2655.11263	0.03222
2653.82686	0.03217
2652.54109	0.03209
2651.25532	0.03198
2649.96955	0.03190
2648.68378	0.03186
2647.39801	0.03183
2646.11225	0.03180
2644.82648	0.03181
2643.54071	0.03186
2642.25494	0.03184
2640.96917	0.03166
2639.68340	0.03136
2638.39763	0.03106
2637.11186	0.03090
2635.82609	0.03091
2634.54033	0.03103
2633.25456	0.03110
2631.96879	0.03101
2630.68302	0.03079
2629.39725	0.03055
2628.11148	0.03034
2626.82571	0.03017
2625.53994	0.02998
2624.25418	0.02979
2622.96841	0.02964
2621.68264	0.02956
2620.39687	0.02948
2619.11110	0.02930
2617.82533	0.02912
2616.53956	0.02913
2615.25379	0.02938
2613.96802	0.02965
2612.68226	0.02963
2611.39649	0.02927
2610.11072	0.02882
2608.82495	0.02854
2607.53918	0.02851
2606.25341	0.02857
2604.96764	0.02857
2603.68187	0.02848
2602.39611	0.02835
2601.11034	0.02823
2599.82457	0.02812
2598.53880	0.02802
2597.25303	0.02793
2595.96726	0.02788
2594.68149	0.02784
2593.39572	0.02775
2592.10995	0.02754
2590.82419	0.02724
2589.53842	0.02701
2588.25265	0.02694
2586.96688	0.02702
2585.68111	0.02718
2584.39534	0.02734
2583.10957	0.02744
2581.82380	0.02739
2580.53804	0.02714
2579.25227	0.02679
2577.96650	0.02661
2576.68073	0.02676
2575.39496	0.02708
2574.10919	0.02722
2572.82342	0.02693
2571.53765	0.02632
2570.25188	0.02578
2568.96612	0.02561
2567.68035	0.02583
2566.39458	0.02615
2565.10881	0.02630
2563.82304	0.02621
2562.53727	0.02602
2561.25150	0.02586
2559.96573	0.02573
2558.67997	0.02554
2557.39420	0.02521
2556.10843	0.02480
2554.82266	0.02448
2553.53689	0.02438
2552.25112	0.02453
2550.96535	0.02486
2549.67958	0.02519
2548.39381	0.02530
2547.10805	0.02517
2545.82228	0.02497
2544.53651	0.02495
2543.25074	0.02511
2541.96497	0.02525
2540.67920	0.02523
2539.39343	0.02514
2538.10766	0.02511
2536.82190	0.02508
2535.53613	0.02493
2534.25036	0.02467
2532.96459	0.02446
2531.67882	0.02444
2530.39305	0.02458
2529.10728	0.02469
2527.82151	0.02468
2526.53574	0.02462
2525.24998	0.02459
2523.96421	0.02457
2522.67844	0.02447
2521.39267	0.02425
2520.10690	0.02399
2518.82113	0.02387
2517.53536	0.02399
2516.24959	0.02430
2514.96383	0.02456
2513.67806	0.02457
2512.39229	0.02435
2511.10652	0.02412
2509.82075	0.02398
2508.53498	0.02383
2507.24921	0.02360
2505.96344	0.02340
2504.67767	0.02333
2503.39191	0.02332
2502.10614	0.02326
2500.82037	0.02312
2499.53460	0.02308
2498.24883	0.02329
2496.96306	0.02373
2495.67729	0.02419
2494.39152	0.02440
2493.10576	0.02425
2491.81999	0.02391
2490.53422	0.02359
2489.24845	0.02338
2487.96268	0.02321
2486.67691	0.02306
2485.39114	0.02300
2484.10537	0.02311
2482.81960	0.02337
2481.53384	0.02359
2480.24807	0.02362
2478.96230	0.02340
2477.67653	0.02306
2476.39076	0.02277
2475.10499	0.02266
2473.81922	0.02269
2472.53345	0.02272
2471.24769	0.02262
2469.96192	0.02245
2468.67615	0.02239
2467.39038	0.02248
2466.10461	0.02266
2464.81884	0.02286
2463.53307	0.02308
2462.24730	0.02327
2460.96153	0.02332
2459.67577	0.02320
2458.39000	0.02308
2457.10423	0.02306
2455.81846	0.02313
2454.53269	0.02325
2453.24692	0.02337
2451.96115	0.02349
2450.67538	0.02359
2449.38962	0.02367
2448.10385	0.02372
2446.81808	0.02376
2445.53231	0.02377
2444.24654	0.02377
2442.96077	0.02371
2441.67500	0.02360
2440.38923	0.02344
2439.10346	0.02322
2437.81770	0.02292
2436.53193	0.02257
2435.24616	0.02222
2433.96039	0.02193
2432.67462	0.02176
2431.38885	0.02175
2430.10308	0.02191
2428.81731	0.02214
2427.53155	0.02231
2426.24578	0.02240
2424.96001	0.02242
2423.67424	0.02234
2422.38847	0.02210
2421.10270	0.02177
2419.81693	0.02154
2418.53116	0.02154
2417.24539	0.02169
2415.95963	0.02184
2414.67386	0.02189
2413.38809	0.02186
2412.10232	0.02176
2410.81655	0.02156
2409.53078	0.02124
2408.24501	0.02091
2406.95924	0.02070
2405.67347	0.02069
2404.38771	0.02088
2403.10194	0.02122
2401.81617	0.02163
2400.53040	0.02194
2399.24463	0.02215
2397.95886	0.02179
2396.67309	0.02147
2395.38732	0.02145
2394.10156	0.02163
2392.81579	0.02182
2391.53002	0.02181
2390.24425	0.02160
2388.95848	0.02132
2387.67271	0.02118
2386.38694	0.02123
2385.10117	0.02136
2383.81540	0.02144
2382.52964	0.02149
2381.24387	0.02161
2379.95810	0.02185
2378.67233	0.02211
2377.38656	0.02228
2376.10079	0.02235
2374.81502	0.02224
2373.52925	0.02204
2372.24349	0.02181
2370.95772	0.02163
2369.67195	0.02138
2368.38618	0.02118
2367.10041	0.02119
2365.81464	0.02147
2364.52887	0.02177
2363.24310	0.02206
2361.95733	0.02244
2360.67157	0.02313
2359.38580	0.02364
2358.10003	0.02368
2356.81426	0.02334
2355.52849	0.02289
2354.24272	0.02248
2352.95695	0.02231
2351.67118	0.02264
2350.38542	0.02314
2349.09965	0.02326
2347.81388	0.02311
2346.52811	0.02348
2345.24234	0.02400
2343.95657	0.02357
2342.67080	0.02254
2341.38503	0.02281
2340.09926	0.02425
2338.81350	0.02421
2337.52773	0.02269
2336.24196	0.02300
2334.95619	0.02456
2333.67042	0.02390
2332.38465	0.02203
2331.09888	0.02253
2329.81311	0.02349
2328.52735	0.02283
2327.24158	0.02401
2325.95581	0.02625
2324.67004	0.02650
2323.38427	0.02662
2322.09850	0.02718
2320.81273	0.02624
2319.52696	0.02575
2318.24119	0.02583
2316.95543	0.02513
2315.66966	0.02487
2314.38389	0.02490
2313.09812	0.02460
2311.81235	0.02471
2310.52658	0.02464
2309.24081	0.02437
2307.95504	0.02420
2306.66928	0.02384
2305.38351	0.02367
2304.09774	0.02356
2302.81197	0.02335
2301.52620	0.02311
2300.24043	0.02274
2298.95466	0.02233
2297.66889	0.02181
2296.38312	0.02130
2295.09736	0.02113
2293.81159	0.02150
2292.52582	0.02234
2291.24005	0.02317
2289.95428	0.02361
2288.66851	0.02359
2287.38274	0.02331
2286.09697	0.02299
2284.81121	0.02269
2283.52544	0.02237
2282.23967	0.02202
2280.95390	0.02180
2279.66813	0.02187
2278.38236	0.02223
2277.09659	0.02265
2275.81082	0.02288
2274.52505	0.02284
2273.23929	0.02260
2271.95352	0.02227
2270.66775	0.02180
2269.38198	0.02106
2268.09621	0.02011
2266.81044	0.01934
2265.52467	0.01905
2264.23890	0.01916
2262.95314	0.01932
2261.66737	0.01926
2260.38160	0.01901
2259.09583	0.01880
2257.81006	0.01878
2256.52429	0.01882
2255.23852	0.01876
2253.95275	0.01855
2252.66698	0.01813
2251.38122	0.01741
2250.09545	0.01671
2248.80968	0.01672
2247.52391	0.01665
2246.23814	0.01689
2244.95237	0.01747
2243.66660	0.01830
2242.38083	0.01897
2241.09507	0.01898
2239.80930	0.01832
2238.52353	0.01762
2237.23776	0.01742
2235.95199	0.01770
2234.66622	0.01792
2233.38045	0.01770
2232.09468	0.01713
2230.80891	0.01646
2229.52315	0.01574
2228.23738	0.01494
2226.95161	0.01428
2225.66584	0.01431
2224.38007	0.01513
2223.09430	0.01609
2221.80853	0.01637
2220.52276	0.01592
2219.23700	0.01542
2217.95123	0.01542
2216.66546	0.01586
2215.37969	0.01630
2214.09392	0.01630
2212.80815	0.01569
2211.52238	0.01478
2210.23661	0.01422
2208.95084	0.01433
2207.66508	0.01464
2206.37931	0.01442
2205.09354	0.01365
2203.80777	0.01310
2202.52200	0.01342
2201.23623	0.01442
2199.95046	0.01533
2198.66469	0.01556
2197.37893	0.01508
2196.09316	0.01421
2194.80739	0.01327
2193.52162	0.01243
2192.23585	0.01177
2190.95008	0.01133
2189.66431	0.01121
2188.37854	0.01147
2187.09277	0.01195
2185.80701	0.01224
2184.52124	0.01195
2183.23547	0.01102
2181.94970	0.00989
2180.66393	0.00921
2179.37816	0.00936
2178.09239	0.01017
2176.80662	0.01105
2175.52085	0.01158
2174.23509	0.01180
2172.94932	0.01194
2171.66355	0.01191
2170.37778	0.01158
2169.09201	0.01120
2167.80624	0.01115
2166.52047	0.01140
2165.23470	0.01152
2163.94894	0.01134
2162.66317	0.01101
2161.37740	0.01051
2160.09163	0.00945
2158.80586	0.00762
2157.52009	0.00550
2156.23432	0.00401
2154.94855	0.00379
2153.66278	0.00467
2152.37702	0.00582
2151.09125	0.00646
2149.80548	0.00643
2148.51971	0.00628
2147.23394	0.00663
2145.94817	0.00747
2144.66240	0.00824
2143.37663	0.00841
2142.09087	0.00799
2140.80510	0.00748
2139.51933	0.00739
2138.23356	0.00786
2136.94779	0.00850
2135.66202	0.00876
2134.37625	0.00846
2133.09048	0.00802
2131.80471	0.00803
2130.51895	0.00865
2129.23318	0.00957
2127.94741	0.01042
2126.66164	0.01117
2125.37587	0.01195
2124.09010	0.01273
2122.80433	0.01340
2121.51856	0.01393
2120.23280	0.01434
2118.94703	0.01448
2117.66126	0.01419
2116.37549	0.01357
2115.08972	0.01299
2113.80395	0.01278
2112.51818	0.01300
2111.23241	0.01356
2109.94664	0.01421
2108.66088	0.01457
2107.37511	0.01436
2106.08934	0.01366
2104.80357	0.01293
2103.51780	0.01259
2102.23203	0.01271
2100.94626	0.01298
2099.66049	0.01210
2098.37473	0.01154
2097.08896	0.01117
2095.80319	0.01090
2094.51742	0.01091
2093.23165	0.01129
2091.94588	0.01189
2090.66011	0.01251
2089.37434	0.01296
2088.08857	0.01313
2086.80281	0.01310
2085.51704	0.01306
2084.23127	0.01315
2082.94550	0.01335
2081.65973	0.01343
2080.37396	0.01316
2079.08819	0.01256
2077.80242	0.01203
2076.51666	0.01192
2075.23089	0.01214
2073.94512	0.01214
2072.65935	0.01166
2071.37358	0.01098
2070.08781	0.01056
2068.80204	0.01054
2067.51627	0.01074
2066.23050	0.01090
2064.94474	0.01087
2063.65897	0.01060
2062.37320	0.01013
2061.08743	0.00961
2059.80166	0.00922
2058.51589	0.00911
2057.23012	0.00940
2055.94435	0.01009
2054.65859	0.01097
2053.37282	0.01164
2052.08705	0.01166
2050.80128	0.01091
2049.51551	0.00974
2048.22974	0.00887
2046.94397	0.00876
2045.65820	0.00921
2044.37243	0.00963
2043.08667	0.00961
2041.80090	0.00918
2040.51513	0.00852
2039.22936	0.00763
2037.94359	0.00640
2036.65782	0.00497
2035.37205	0.00385
2034.08628	0.00353
2032.80052	0.00405
2031.51475	0.00491
2030.22898	0.00565
2028.94321	0.00621
2027.65744	0.00672
2026.37167	0.00711
2025.08590	0.00708
2023.80013	0.00638
2022.51436	0.00520
2021.22860	0.00403
2019.94283	0.00342
2018.65706	0.00351
2017.37129	0.00401
2016.08552	0.00452
2014.79975	0.00489
2013.51398	0.00517
2012.22821	0.00530
2010.94245	0.00496
2009.65668	0.00389
2008.37091	0.00233
2007.08514	0.00098
2005.79937	0.00047
2004.51360	0.00090
2003.22783	0.00209
2001.94206	0.00389
2000.65629	0.00608
1999.37053	0.00808
1998.08476	0.00926
1996.79899	0.00953
1995.51322	0.00936
1994.22745	0.00912
1992.94168	0.00874
1991.65591	0.00810
1990.37014	0.00740
1989.08438	0.00700
1987.79861	0.00710
1986.51284	0.00754
1985.22707	0.00801
1983.94130	0.00817
1982.65553	0.00781
1981.36976	0.00690
1980.08399	0.00563
1978.79822	0.00440
1977.51246	0.00379
1976.22669	0.00415
1974.94092	0.00516
1973.65515	0.00609
1972.36938	0.00647
1971.08361	0.00644
1969.79784	0.00640
1968.51207	0.00650
1967.22631	0.00658
1965.94054	0.00653
1964.65477	0.00652
1963.36900	0.00670
1962.08323	0.00697
1960.79746	0.00708
1959.51169	0.00704
1958.22592	0.00712
1956.94015	0.00747
1955.65439	0.00794
1954.36862	0.00834
1953.08285	0.00870
1951.79708	0.00919
1950.51131	0.00979
1949.22554	0.01023
1947.93977	0.01026
1946.65400	0.00997
1945.36823	0.00969
1944.08247	0.00961
1942.79670	0.00965
1941.51093	0.00963
1940.22516	0.00953
1938.93939	0.00954
1937.65362	0.00976
1936.36785	0.01007
1935.08208	0.01016
1933.79632	0.00984
1932.51055	0.00933
1931.22478	0.00908
1929.93901	0.00936
1928.65324	0.01004
1927.36747	0.01072
1926.08170	0.01112
1924.79593	0.01121
1923.51016	0.01112
1922.22440	0.01105
1920.93863	0.01103
1919.65286	0.01096
1918.36709	0.01076
1917.08132	0.01055
1915.79555	0.01054
1914.50978	0.01076
1913.22401	0.01102
1911.93825	0.01114
1910.65248	0.01103
1909.36671	0.01077
1908.08094	0.01053
1906.79517	0.01050
1905.50940	0.01071
1904.22363	0.01105
1902.93786	0.01135
1901.65209	0.01150
1900.36633	0.01144
1899.08056	0.01120
1897.79479	0.01090
1896.50902	0.01070
1895.22325	0.01065
1893.93748	0.01074
1892.65171	0.01098
1891.36594	0.01136
1890.08018	0.01171
1888.79441	0.01175
1887.50864	0.01140
1886.22287	0.01096
1884.93710	0.01080
1883.65133	0.01099
1882.36556	0.01129
1881.07979	0.01145
1879.79402	0.01144
1878.50826	0.01138
1877.22249	0.01132
1875.93672	0.01127
1874.65095	0.01120
1873.36518	0.01111
1872.07941	0.01101
1870.79364	0.01093
1869.50787	0.01089
1868.22211	0.01095
1866.93634	0.01109
1865.65057	0.01128
1864.36480	0.01144
1863.07903	0.01155
1861.79326	0.01157
1860.50749	0.01151
1859.22172	0.01140
1857.93595	0.01130
1856.65019	0.01133
1855.36442	0.01148
1854.07865	0.01165
1852.79288	0.01171
1851.50711	0.01164
1850.22134	0.01155
1848.93557	0.01148
1847.64980	0.01146
1846.36404	0.01151
1845.07827	0.01170
1843.79250	0.01193
1842.50673	0.01206
1841.22096	0.01205
1839.93519	0.01197
1838.64942	0.01193
1837.36365	0.01196
1836.07788	0.01202
1834.79212	0.01204
1833.50635	0.01202
1832.22058	0.01198
1830.93481	0.01197
1829.64904	0.01199
1828.36327	0.01199
1827.07750	0.01196
1825.79173	0.01184
1824.50597	0.01162
1823.22020	0.01138
1821.93443	0.01117
1820.64866	0.01099
1819.36289	0.01080
1818.07712	0.01066
1816.79135	0.01066
1815.50558	0.01085
1814.21981	0.01121
1812.93405	0.01164
1811.64828	0.01203
1810.36251	0.01232
1809.07674	0.01252
1807.79097	0.01266
1806.50520	0.01272
1805.21943	0.01268
1803.93366	0.01261
1802.64790	0.01257
1801.36213	0.01257
1800.07636	0.01255
1798.79059	0.01253
1797.50482	0.01253
1796.21905	0.01258
1794.93328	0.01267
1793.64751	0.01275
1792.36174	0.01274
1791.07598	0.01267
1789.79021	0.01261
1788.50444	0.01260
1787.21867	0.01265
1785.93290	0.01268
1784.64713	0.01267
1783.36136	0.01259
1782.07559	0.01246
1780.78983	0.01228
1779.50406	0.01212
1778.21829	0.01206
1776.93252	0.01214
1775.64675	0.01230
1774.36098	0.01245
1773.07521	0.01253
1771.78944	0.01257
1770.50367	0.01265
1769.21791	0.01280
1767.93214	0.01292
1766.64637	0.01296
1765.36060	0.01295
1764.07483	0.01298
1762.78906	0.01301
1761.50329	0.01297
1760.21752	0.01288
1758.93176	0.01282
1757.64599	0.01283
1756.36022	0.01292
1755.07445	0.01304
1753.78868	0.01315
1752.50291	0.01317
1751.21714	0.01307
1749.93137	0.01291
1748.64560	0.01283
1747.35984	0.01286
1746.07407	0.01291
1744.78830	0.01292
1743.50253	0.01288
1742.21676	0.01284
1740.93099	0.01281
1739.64522	0.01279
1738.35945	0.01275
1737.07369	0.01273
1735.78792	0.01275
1734.50215	0.01272
1733.21638	0.01262
1731.93061	0.01257
1730.64484	0.01271
1729.35907	0.01296
1728.07330	0.01316
1726.78753	0.01324
1725.50177	0.01327
1724.21600	0.01329
1722.93023	0.01333
1721.64446	0.01340
1720.35869	0.01354
1719.07292	0.01370
1717.78715	0.01381
1716.50138	0.01389
1715.21561	0.01404
1713.92985	0.01432
1712.64408	0.01466
1711.35831	0.01501
1710.07254	0.01534
1708.78677	0.01568
1707.50100	0.01606
1706.21523	0.01646
1704.92946	0.01687
1703.64370	0.01729
1702.35793	0.01777
1701.07216	0.01825
1699.78639	0.01864
1698.50062	0.01907
1697.21485	0.01965
1695.92908	0.02032
1694.64331	0.02094
1693.35754	0.02158
1692.07178	0.02239
1690.78601	0.02326
1689.50024	0.02399
1688.21447	0.02457
1686.92870	0.02511
1685.64293	0.02567
1684.35716	0.02616
1683.07139	0.02661
1681.78563	0.02716
1680.49986	0.02786
1679.21409	0.02859
1677.92832	0.02927
1676.64255	0.02994
1675.35678	0.03062
1674.07101	0.03132
1672.78524	0.03208
1671.49947	0.03289
1670.21371	0.03364
1668.92794	0.03423
1667.64217	0.03474
1666.35640	0.03530
1665.07063	0.03595
1663.78486	0.03656
1662.49909	0.03704
1661.21332	0.03743
1659.92756	0.03787
1658.64179	0.03845
1657.35602	0.03909
1656.07025	0.03971
1654.78448	0.04021
1653.49871	0.04049
1652.21294	0.04056
1650.92717	0.04067
1649.64140	0.04103
1648.35564	0.04153
1647.06987	0.04190
1645.78410	0.04202
1644.49833	0.04204
1643.21256	0.04211
1641.92679	0.04223
1640.64102	0.04234
1639.35525	0.04238
1638.06949	0.04232
1636.78372	0.04212
1635.49795	0.04174
1634.21218	0.04127
1632.92641	0.04088
1631.64064	0.04066
1630.35487	0.04053
1629.06910	0.04031
1627.78333	0.03994
1626.49757	0.03944
1625.21180	0.03886
1623.92603	0.03822
1622.64026	0.03755
1621.35449	0.03690
1620.06872	0.03634
1618.78295	0.03584
1617.49718	0.03527
1616.21142	0.03459
1614.92565	0.03394
1613.63988	0.03348
1612.35411	0.03319
1611.06834	0.03291
1609.78257	0.03253
1608.49680	0.03213
1607.21103	0.03176
1605.92526	0.03145
1604.63950	0.03118
1603.35373	0.03093
1602.06796	0.03072
1600.78219	0.03056
1599.49642	0.03045
1598.21065	0.03035
1596.92488	0.03020
1595.63911	0.03000
1594.35335	0.02983
1593.06758	0.02972
1591.78181	0.02971
1590.49604	0.02973
1589.21027	0.02974
1587.92450	0.02974
1586.63873	0.02975
1585.35296	0.02981
1584.06719	0.02992
1582.78143	0.03005
1581.49566	0.03017
1580.20989	0.03026
1578.92412	0.03035
1577.63835	0.03045
1576.35258	0.03050
1575.06681	0.03053
1573.78104	0.03066
1572.49528	0.03097
1571.20951	0.03139
1569.92374	0.03177
1568.63797	0.03205
1567.35220	0.03230
1566.06643	0.03255
1564.78066	0.03281
1563.49489	0.03304
1562.20912	0.03329
1560.92336	0.03355
1559.63759	0.03372
1558.35182	0.03376
1557.06605	0.03380
1555.78028	0.03400
1554.49451	0.03434
1553.20874	0.03467
1551.92297	0.03494
1550.63721	0.03518
1549.35144	0.03535
1548.06567	0.03546
1546.77990	0.03555
1545.49413	0.03564
1544.20836	0.03569
1542.92259	0.03570
1541.63682	0.03567
1540.35105	0.03563
1539.06529	0.03554
1537.77952	0.03548
1536.49375	0.03553
1535.20798	0.03572
1533.92221	0.03591
1532.63644	0.03601
1531.35067	0.03606
1530.06490	0.03613
1528.77914	0.03623
1527.49337	0.03631
1526.20760	0.03633
1524.92183	0.03630
1523.63606	0.03627
1522.35029	0.03628
1521.06452	0.03632
1519.77875	0.03641
1518.49298	0.03660
1517.20722	0.03685
1515.92145	0.03709
1514.63568	0.03730
1513.34991	0.03756
1512.06414	0.03786
1510.77837	0.03816
1509.49260	0.03844
1508.20683	0.03866
1506.92107	0.03880
1505.63530	0.03885
1504.34953	0.03893
1503.06376	0.03916
1501.77799	0.03946
1500.49222	0.03968
1499.20645	0.03973
1497.92068	0.03969
1496.63491	0.03965
1495.34915	0.03967
1494.06338	0.03981
1492.77761	0.04005
1491.49184	0.04032
1490.20607	0.04056
1488.92030	0.04078
1487.63453	0.04105
1486.34876	0.04139
1485.06299	0.04175
1483.77723	0.04211
1482.49146	0.04248
1481.20569	0.04286
1479.91992	0.04326
1478.63415	0.04370
1477.34838	0.04419
1476.06261	0.04467
1474.77684	0.04514
1473.49108	0.04559
1472.20531	0.04600
1470.91954	0.04641
1469.63377	0.04689
1468.34800	0.04743
1467.06223	0.04798
1465.77646	0.04845
1464.49069	0.04879
1463.20492	0.04904
1461.91916	0.04928
1460.63339	0.04959
1459.34762	0.04997
1458.06185	0.05039
1456.77608	0.05077
1455.49031	0.05107
1454.20454	0.05138
1452.91877	0.05171
1451.63301	0.05200
1450.34724	0.05222
1449.06147	0.05239
1447.77570	0.05254
1446.48993	0.05263
1445.20416	0.05264
1443.91839	0.05256
1442.63262	0.05235
1441.34685	0.05205
1440.06109	0.05172
1438.77532	0.05145
1437.48955	0.05123
1436.20378	0.05103
1434.91801	0.05087
1433.63224	0.05082
1432.34647	0.05092
1431.06070	0.05115
1429.77494	0.05145
1428.48917	0.05180
1427.20340	0.05220
1425.91763	0.05264
1424.63186	0.05313
1423.34609	0.05367
1422.06032	0.05424
1420.77455	0.05480
1419.48878	0.05525
1418.20302	0.05560
1416.91725	0.05593
1415.63148	0.05631
1414.34571	0.05667
1413.05994	0.05690
1411.77417	0.05697
1410.48840	0.05692
1409.20263	0.05681
1407.91687	0.05666
1406.63110	0.05648
1405.34533	0.05626
1404.05956	0.05595
1402.77379	0.05553
1401.48802	0.05498
1400.20225	0.05429
1398.91648	0.05353
1397.63071	0.05276
1396.34495	0.05202
1395.05918	0.05128
1393.77341	0.05050
1392.48764	0.04972
1391.20187	0.04897
1389.91610	0.04828
1388.63033	0.04761
1387.34456	0.04694
1386.05880	0.04624
1384.77303	0.04553
1383.48726	0.04483
1382.20149	0.04415
1380.91572	0.04349
1379.62995	0.04285
1378.34418	0.04216
1377.05841	0.04141
1375.77264	0.04059
1374.48688	0.03973
1373.20111	0.03887
1371.91534	0.03803
1370.62957	0.03722
1369.34380	0.03644
1368.05803	0.03567
1366.77226	0.03487
1365.48649	0.03410
1364.20073	0.03337
1362.91496	0.03272
1361.62919	0.03212
1360.34342	0.03157
1359.05765	0.03103
1357.77188	0.03051
1356.48611	0.03003
1355.20034	0.02963
1353.91457	0.02930
1352.62881	0.02901
1351.34304	0.02872
1350.05727	0.02842
1348.77150	0.02814
1347.48573	0.02788
1346.19996	0.02764
1344.91419	0.02745
1343.62842	0.02728
1342.34266	0.02715
1341.05689	0.02704
1339.77112	0.02692
1338.48535	0.02680
1337.19958	0.02666
1335.91381	0.02652
1334.62804	0.02634
1333.34227	0.02613
1332.05650	0.02590
1330.77074	0.02570
1329.48497	0.02553
1328.19920	0.02533
1326.91343	0.02508
1325.62766	0.02480
1324.34189	0.02458
1323.05612	0.02446
1321.77035	0.02444
1320.48459	0.02443
1319.19882	0.02437
1317.91305	0.02422
1316.62728	0.02401
1315.34151	0.02380
1314.05574	0.02362
1312.76997	0.02346
1311.48420	0.02330
1310.19843	0.02313
1308.91267	0.02295
1307.62690	0.02277
1306.34113	0.02260
1305.05536	0.02245
1303.76959	0.02229
1302.48382	0.02212
1301.19805	0.02193
1299.91228	0.02173
1298.62652	0.02154
1297.34075	0.02139
1296.05498	0.02128
1294.76921	0.02121
1293.48344	0.02116
1292.19767	0.02111
1290.91190	0.02104
1289.62613	0.02096
1288.34036	0.02089
1287.05460	0.02084
1285.76883	0.02080
1284.48306	0.02078
1283.19729	0.02076
1281.91152	0.02075
1280.62575	0.02069
1279.33998	0.02059
1278.05421	0.02047
1276.76845	0.02040
1275.48268	0.02039
1274.19691	0.02039
1272.91114	0.02037
1271.62537	0.02032
1270.33960	0.02026
1269.05383	0.02024
1267.76806	0.02023
1266.48229	0.02024
1265.19653	0.02022
1263.91076	0.02017
1262.62499	0.02010
1261.33922	0.02003
1260.05345	0.01998
1258.76768	0.01996
1257.48191	0.01996
1256.19614	0.01997
1254.91037	0.01999
1253.62461	0.02003
1252.33884	0.02010
1251.05307	0.02017
1249.76730	0.02024
1248.48153	0.02030
1247.19576	0.02032
1245.90999	0.02029
1244.62422	0.02024
1243.33846	0.02017
1242.05269	0.02014
1240.76692	0.02013
1239.48115	0.02014
1238.19538	0.02011
1236.90961	0.02004
1235.62384	0.01995
1234.33807	0.01987
1233.05230	0.01981
1231.76654	0.01974
1230.48077	0.01963
1229.19500	0.01950
1227.90923	0.01936
1226.62346	0.01923
1225.33769	0.01908
1224.05192	0.01890
1222.76615	0.01871
1221.48039	0.01856
1220.19462	0.01846
1218.90885	0.01837
1217.62308	0.01825
1216.33731	0.01811
1215.05154	0.01796
1213.76577	0.01785
1212.48000	0.01780
1211.19423	0.01780
1209.90847	0.01782
1208.62270	0.01782
1207.33693	0.01779
1206.05116	0.01772
1204.76539	0.01766
1203.47962	0.01762
1202.19385	0.01761
1200.90808	0.01770
1199.62232	0.01797
1198.33655	0.01805
1197.05078	0.01807
1195.76501	0.01802
1194.47924	0.01789
1193.19347	0.01774
1191.90770	0.01762
1190.62193	0.01757
1189.33616	0.01759
1188.05040	0.01763
1186.76463	0.01765
1185.47886	0.01764
1184.19309	0.01760
1182.90732	0.01757
1181.62155	0.01754
1180.33578	0.01748
1179.05001	0.01737
1177.76425	0.01723
1176.47848	0.01715
1175.19271	0.01719
1173.90694	0.01733
1172.62117	0.01752
1171.33540	0.01768
1170.04963	0.01777
1168.76386	0.01781
1167.47809	0.01784
1166.19233	0.01789
1164.90656	0.01796
1163.62079	0.01799
1162.33502	0.01796
1161.04925	0.01793
1159.76348	0.01792
1158.47771	0.01797
1157.19194	0.01806
1155.90618	0.01816
1154.62041	0.01828
1153.33464	0.01844
1152.04887	0.01859
1150.76310	0.01873
1149.47733	0.01884
1148.19156	0.01900
1146.90579	0.01924
1145.62002	0.01954
1144.33426	0.01985
1143.04849	0.02015
1141.76272	0.02051
1140.47695	0.02096
1139.19118	0.02151
1137.90541	0.02211
1136.61964	0.02268
1135.33387	0.02319
1134.04811	0.02365
1132.76234	0.02414
1131.47657	0.02476
1130.19080	0.02557
1128.90503	0.02656
1127.61926	0.02767
1126.33349	0.02884
1125.04772	0.03006
1123.76195	0.03138
1122.47619	0.03285
1121.19042	0.03443
1119.90465	0.03605
1118.61888	0.03766
1117.33311	0.03923
1116.04734	0.04081
1114.76157	0.04241
1113.47580	0.04406
1112.19004	0.04574
1110.90427	0.04743
1109.61850	0.04907
1108.33273	0.05067
1107.04696	0.05222
1105.76119	0.05375
1104.47542	0.05525
1103.18965	0.05672
1101.90388	0.05818
1100.61812	0.05960
1099.33235	0.06094
1098.04658	0.06217
1096.76081	0.06332
1095.47504	0.06441
1094.18927	0.06547
1092.90350	0.06651
1091.61773	0.06751
1090.33197	0.06845
1089.04620	0.06936
1087.76043	0.07026
1086.47466	0.07118
1085.18889	0.07213
1083.90312	0.07310
1082.61735	0.07405
1081.33158	0.07499
1080.04581	0.07593
1078.76005	0.07694
1077.47428	0.07809
1076.18851	0.07934
1074.90274	0.08064
1073.61697	0.08193
1072.33120	0.08319
1071.04543	0.08445
1069.75966	0.08570
1068.47390	0.08697
1067.18813	0.08827
1065.90236	0.08963
1064.61659	0.09109
1063.33082	0.09265
1062.04505	0.09424
1060.75928	0.09578
1059.47351	0.09719
1058.18774	0.09850
1056.90198	0.09975
1055.61621	0.10099
1054.33044	0.10224
1053.04467	0.10350
1051.75890	0.10475
1050.47313	0.10603
1049.18736	0.10736
1047.90159	0.10876
1046.61583	0.11023
1045.33006	0.11175
1044.04429	0.11326
1042.75852	0.11473
1041.47275	0.11616
1040.18698	0.11756
1038.90121	0.11897
1037.61544	0.12041
1036.32967	0.12185
1035.04391	0.12325
1033.75814	0.12457
1032.47237	0.12579
1031.18660	0.12689
1029.90083	0.12788
1028.61506	0.12875
1027.32929	0.12949
1026.04352	0.13015
1024.75775	0.13076
1023.47199	0.13131
1022.18622	0.13173
1020.90045	0.13190
1019.61468	0.13179
1018.32891	0.13148
1017.04314	0.13106
1015.75737	0.13055
1014.47160	0.12994
1013.18584	0.12918
1011.90007	0.12827
1010.61430	0.12724
1009.32853	0.12608
1008.04276	0.12475
1006.75699	0.12316
1005.47122	0.12133
1004.18545	0.11932
1002.89968	0.11724
1001.61392	0.11514
1000.32815	0.11298
999.04238	0.11073
997.75661	0.10837
996.47084	0.10596
995.18507	0.10354
993.89930	0.10114
992.61353	0.09873
991.32777	0.09629
990.04200	0.09385
988.75623	0.09145
987.47046	0.08913
986.18469	0.08689
984.89892	0.08468
983.61315	0.08245
982.32738	0.08021
981.04161	0.07803
979.75585	0.07598
978.47008	0.07407
977.18431	0.07229
975.89854	0.07061
974.61277	0.06904
973.32700	0.06759
972.04123	0.06631
970.75546	0.06526
969.46970	0.06444
968.18393	0.06386
966.89816	0.06354
965.61239	0.06349
964.32662	0.06361
963.04085	0.06376
961.75508	0.06380
960.46931	0.06369
959.18354	0.06343
957.89778	0.06300
956.61201	0.06236
955.32624	0.06150
954.04047	0.06046
952.75470	0.05936
951.46893	0.05825
950.18316	0.05716
948.89739	0.05613
947.61163	0.05516
946.32586	0.05418
945.04009	0.05314
943.75432	0.05205
942.46855	0.05102
941.18278	0.05012
939.89701	0.04935
938.61124	0.04863
937.32547	0.04790
936.03971	0.04713
934.75394	0.04633
933.46817	0.04551
932.18240	0.04471
930.89663	0.04397
929.61086	0.04334
928.32509	0.04281
927.03932	0.04234
925.75356	0.04186
924.46779	0.04133
923.18202	0.04078
921.89625	0.04026
920.61048	0.03981
919.32471	0.03944
918.03894	0.03912
916.75317	0.03879
915.46740	0.03845
914.18164	0.03808
912.89587	0.03771
911.61010	0.03735
910.32433	0.03702
909.03856	0.03670
907.75279	0.03635
906.46702	0.03600
905.18125	0.03568
903.89549	0.03537
902.60972	0.03504
901.32395	0.03467
900.03818	0.03430
898.75241	0.03396
897.46664	0.03360
896.18087	0.03314
894.89510	0.03266
893.60933	0.03230
892.32357	0.03218
891.03780	0.03224
889.75203	0.03235
888.46626	0.03242
887.18049	0.03249
885.89472	0.03273
884.60895	0.03331
883.32318	0.03433
882.03742	0.03566
880.75165	0.03698
879.46588	0.03800
878.18011	0.03870
876.89434	0.03928
875.60857	0.03999
874.32280	0.04085
873.03703	0.04167
871.75126	0.04216
870.46550	0.04215
869.17973	0.04164
867.89396	0.04076
866.60819	0.03973
865.32242	0.03870
864.03665	0.03776
862.75088	0.03687
861.46511	0.03598
860.17935	0.03510
858.89358	0.03433
857.60781	0.03369
856.32204	0.03314
855.03627	0.03263
853.75050	0.03217
852.46473	0.03178
851.17896	0.03142
849.89319	0.03105
848.60743	0.03067
847.32166	0.03031
846.03589	0.03001
844.75012	0.02979
843.46435	0.02965
842.17858	0.02952
840.89281	0.02940
839.60704	0.02931
838.32128	0.02926
837.03551	0.02920
835.74974	0.02906
834.46397	0.02887
833.17820	0.02869
831.89243	0.02855
830.60666	0.02841
829.32089	0.02826
828.03512	0.02814
826.74936	0.02809
825.46359	0.02810
824.17782	0.02810
822.89205	0.02804
821.60628	0.02792
820.32051	0.02775
819.03474	0.02754
817.74897	0.02730
816.46321	0.02709
815.17744	0.02699
813.89167	0.02701
812.60590	0.02711
811.32013	0.02722
810.03436	0.02730
808.74859	0.02733
807.46282	0.02732
806.17705	0.02728
804.89129	0.02726
803.60552	0.02733
802.31975	0.02751
801.03398	0.02769
799.74821	0.02779
798.46244	0.02780
797.17667	0.02777
795.89090	0.02773
794.60513	0.02766
793.31937	0.02756
792.03360	0.02745
790.74783	0.02734
789.46206	0.02725
788.17629	0.02720
786.89052	0.02718
785.60475	0.02719
784.31898	0.02719
783.03322	0.02717
781.74745	0.02715
780.46168	0.02713
779.17591	0.02712
777.89014	0.02712
776.60437	0.02717
775.31860	0.02725
774.03283	0.02730
772.74706	0.02729
771.46130	0.02722
770.17553	0.02716
768.88976	0.02712
767.60399	0.02708
766.31822	0.02700
765.03245	0.02691
763.74668	0.02686
762.46091	0.02684
761.17515	0.02681
759.88938	0.02677
758.60361	0.02675
757.31784	0.02677
756.03207	0.02681
754.74630	0.02689
753.46053	0.02699
752.17476	0.02708
750.88899	0.02706
749.60323	0.02694
748.31746	0.02677
747.03169	0.02666
745.74592	0.02665
744.46015	0.02671
743.17438	0.02681
741.88861	0.02692
740.60284	0.02698
739.31708	0.02692
738.03131	0.02674
736.74554	0.02651
735.45977	0.02629
734.17400	0.02611
732.88823	0.02601
731.60246	0.02599
730.31669	0.02601
729.03092	0.02597
727.74516	0.02588
726.45939	0.02576
725.17362	0.02571
723.88785	0.02579
722.60208	0.02592
721.31631	0.02609
720.03054	0.02623
718.74477	0.02629
717.45901	0.02628
716.17324	0.02621
714.88747	0.02611
713.60170	0.02603
712.31593	0.02603
711.03016	0.02611
709.74439	0.02624
708.45862	0.02634
707.17285	0.02638
705.88709	0.02636
704.60132	0.02632
703.31555	0.02625
702.02978	0.02619
700.74401	0.02617
699.45824	0.02625
698.17247	0.02641
696.88670	0.02657
695.60094	0.02665
694.31517	0.02663
693.02940	0.02656
691.74363	0.02651
690.45786	0.02652
689.17209	0.02657
687.88632	0.02660
686.60055	0.02655
685.31478	0.02643
684.02902	0.02628
682.74325	0.02614
681.45748	0.02601
680.17171	0.02589
678.88594	0.02578
677.60017	0.02573
676.31440	0.02574
675.02863	0.02575
673.74287	0.02574
672.45710	0.02572
671.17133	0.02578
669.88556	0.02593
668.59979	0.02603
667.31402	0.02600
666.02825	0.02602
664.74248	0.02588
663.45671	0.02568
662.17095	0.02548
660.88518	0.02532
659.59941	0.02520
658.31364	0.02513
657.02787	0.02511
655.74210	0.02510
654.45633	0.02508
653.17056	0.02505
651.88480	0.02502
650.59903	0.02500
649.31326	0.02500
648.02749	0.02501
646.74172	0.02500
645.45595	0.02497
644.17018	0.02495
642.88441	0.02496
641.59864	0.02502
640.31288	0.02512
639.02711	0.02522
637.74134	0.02529
636.45557	0.02535
635.16980	0.02544
633.88403	0.02565
632.59826	0.02599
631.31249	0.02615
630.02673	0.02546
628.74096	0.02490
627.45519	0.02672
626.16942	0.02642
624.88365	0.02481
623.59788	0.02376
622.31211	0.02384
621.02634	0.02476
619.74057	0.02612
618.45481	0.02795
617.16904	0.03043
615.88327	0.03328
614.59750	0.03593
613.31173	0.03805
612.02596	0.03975
610.74019	0.04145
609.45442	0.04336
608.16866	0.04545
606.88289	0.04755
605.59712	0.04938
604.31135	0.05065
603.02558	0.05123
601.73981	0.05136
600.45404	0.05137
599.16827	0.05141
597.88250	0.05140
596.59674	0.05119
595.31097	0.05075
594.02520	0.05017
592.73943	0.04957
591.45366	0.04906
590.16789	0.04872
588.88212	0.04866
587.59635	0.04893
586.31059	0.04953
585.02482	0.05036
583.73905	0.05133
582.45328	0.05237
581.16751	0.05348
579.88174	0.05467
578.59597	0.05593
577.31020	0.05724
576.02443	0.05851
574.73867	0.05967
573.45290	0.06070
572.16713	0.06167
570.88136	0.06272
569.59559	0.06396
568.30982	0.06542
567.02405	0.06705
565.73828	0.06875
564.45251	0.07038
563.16675	0.07177
561.88098	0.07271
560.59521	0.07294
559.30944	0.07231
558.02367	0.07093
556.73790	0.06904
555.45213	0.06686
554.16636	0.06451
552.88060	0.06209
551.59483	0.05969
550.30906	0.05739
549.02329	0.05521
547.73752	0.05325
546.45175	0.05159
545.16598	0.05024
543.88021	0.04908
542.59444	0.04797
541.30868	0.04684
540.02291	0.04572
538.73714	0.04467
537.45137	0.04369
536.16560	0.04276
534.87983	0.04188
533.59406	0.04107
532.30829	0.04031
531.02253	0.03955
529.73676	0.03873
528.45099	0.03791
527.16522	0.03720
525.87945	0.03670
524.59368	0.03637
523.30791	0.03607
522.02214	0.03568
520.73637	0.03518
519.45061	0.03465
518.16484	0.03418
516.87907	0.03379
515.59330	0.03344
514.30753	0.03306
513.02176	0.03269
511.73599	0.03239
510.45022	0.03217
509.16446	0.03195
507.87869	0.03162
506.59292	0.03116
505.30715	0.03066
504.02138	0.03024
502.73561	0.02992
501.44984	0.02967
500.16407	0.02945
498.87830	0.02924
497.59254	0.02904
496.30677	0.02884
495.02100	0.02865
493.73523	0.02849
492.44946	0.02840
491.16369	0.02835
489.87792	0.02825
488.59215	0.02804
487.30639	0.02774
486.02062	0.02748
484.73485	0.02735
483.44908	0.02739
482.16331	0.02754
480.87754	0.02776
479.59177	0.02800
478.30600	0.02826
477.02023	0.02851
475.73447	0.02871
474.44870	0.02885
473.16293	0.02891
471.87716	0.02889
470.59139	0.02880
469.30562	0.02867
468.01985	0.02854
466.73408	0.02841
465.44832	0.02827
464.16255	0.02807
462.87678	0.02780
461.59101	0.02752
460.30524	0.02723
459.01947	0.02693
457.73370	0.02664
456.44793	0.02641
455.16216	0.02625
453.87640	0.02611
452.59063	0.02589
451.30486	0.02556
450.01909	0.02521
448.73332	0.02492
447.44755	0.02472
446.16178	0.02458
444.87601	0.02441
443.59025	0.02418
442.30448	0.02394
441.01871	0.02373
439.73294	0.02359
438.44717	0.02351
437.16140	0.02346
435.87563	0.02341
434.58986	0.02335
433.30409	0.02329
432.01833	0.02323
430.73256	0.02318
429.44679	0.02313
428.16102	0.02307
426.87525	0.02297
425.58948	0.02282
424.30371	0.02263
423.01794	0.02243
421.73218	0.02224
420.44641	0.02206
419.16064	0.02187
417.87487	0.02168
416.58910	0.02153
415.30333	0.02143
414.01756	0.02132
412.73179	0.02118
411.44602	0.02101
410.16026	0.02084
408.87449	0.02072
407.58872	0.02065
406.30295	0.02060
405.01718	0.02055
403.73141	0.02048
402.44564	0.02043
401.15987	0.02045
399.87411	0.02054
