3997.45528	0.04077
3996.16951	0.04053
3994.88374	0.04001
3993.59798	0.03950
3992.31221	0.03927
3991.02644	0.03915
3989.74067	0.03874
3988.45490	0.03806
3987.16913	0.03755
3985.88336	0.03767
3984.59759	0.03847
3983.31183	0.03955
3982.02606	0.04029
3980.74029	0.04035
3979.45452	0.03987
3978.16875	0.03920
3976.88298	0.03862
3975.59721	0.03828
3974.31144	0.03838
3973.02567	0.03902
3971.73991	0.03998
3970.45414	0.04081
3969.16837	0.04126
3967.88260	0.04146
3966.59683	0.04158
3965.31106	0.04159
3964.02529	0.04123
3962.73952	0.04040
3961.45376	0.03927
3960.16799	0.03825
3958.88222	0.03771
3957.59645	0.03789
3956.31068	0.03873
3955.02491	0.03984
3953.73914	0.04068
3952.45337	0.04093
3951.16760	0.04066
3949.88184	0.04026
3948.59607	0.03999
3947.31030	0.03969
3946.02453	0.03910
3944.73876	0.03832
3943.45299	0.03788
3942.16722	0.03817
3940.88145	0.03902
3939.59569	0.03988
3938.30992	0.04024
3937.02415	0.04003
3935.73838	0.03955
3934.45261	0.03925
3933.16684	0.03936
3931.88107	0.03973
3930.59530	0.03995
3929.30953	0.03976
3928.02377	0.03927
3926.73800	0.03892
3925.45223	0.03906
3924.16646	0.03961
3922.88069	0.04014
3921.59492	0.04018
3920.30915	0.03966
3919.02338	0.03892
3917.73762	0.03846
3916.45185	0.03847
3915.16608	0.03873
3913.88031	0.03888
3912.59454	0.03869
3911.30877	0.03825
3910.02300	0.03790
3908.73723	0.03793
3907.45146	0.03839
3906.16570	0.03910
3904.87993	0.03970
3903.59416	0.03987
3902.30839	0.03954
3901.02262	0.03892
3899.73685	0.03825
3898.45108	0.03769
3897.16531	0.03730
3895.87955	0.03710
3894.59378	0.03709
3893.30801	0.03720
3892.02224	0.03723
3890.73647	0.03691
3889.45070	0.03640
3888.16493	0.03627
3886.87916	0.03668
3885.59339	0.03710
3884.30763	0.03711
3883.02186	0.03684
3881.73609	0.03656
3880.45032	0.03640
3879.16455	0.03651
3877.87878	0.03705
3876.59301	0.03784
3875.30724	0.03840
3874.02148	0.03859
3872.73571	0.03883
3871.44994	0.03938
3870.16417	0.03972
3868.87840	0.03936
3867.59263	0.03872
3866.30686	0.03840
3865.02109	0.03834
3863.73532	0.03821
3862.44956	0.03804
3861.16379	0.03792
3859.87802	0.03774
3858.59225	0.03751
3857.30648	0.03771
3856.02071	0.03878
3854.73494	0.04023
3853.44917	0.04094
3852.16341	0.04058
3850.87764	0.03991
3849.59187	0.03959
3848.30610	0.03956
3847.02033	0.03956
3845.73456	0.03955
3844.44879	0.03955
3843.16302	0.03944
3841.87725	0.03912
3840.59149	0.03872
3839.30572	0.03836
3838.01995	0.03793
3836.73418	0.03742
3835.44841	0.03706
3834.16264	0.03699
3832.87687	0.03691
3831.59110	0.03646
3830.30534	0.03581
3829.01957	0.03544
3827.73380	0.03548
3826.44803	0.03566
3825.16226	0.03583
3823.87649	0.03630
3822.59072	0.03710
3821.30495	0.03763
3820.01918	0.03757
3818.73342	0.03739
3817.44765	0.03746
3816.16188	0.03716
3814.87611	0.03603
3813.59034	0.03470
3812.30457	0.03416
3811.01880	0.03468
3809.73303	0.03598
3808.44726	0.03758
3807.16150	0.03879
3805.87573	0.03929
3804.58996	0.03961
3803.30419	0.04029
3802.01842	0.04087
3800.73265	0.04049
3799.44688	0.03930
3798.16111	0.03826
3796.87535	0.03783
3795.58958	0.03762
3794.30381	0.03714
3793.01804	0.03626
3791.73227	0.03524
3790.44650	0.03448
3789.16073	0.03423
3787.87496	0.03435
3786.58919	0.03456
3785.30343	0.03479
3784.01766	0.03516
3782.73189	0.03576
3781.44612	0.03644
3780.16035	0.03689
3778.87458	0.03683
3777.58881	0.03619
3776.30304	0.03515
3775.01728	0.03407
3773.73151	0.03340
3772.44574	0.03342
3771.15997	0.03395
3769.87420	0.03443
3768.58843	0.03454
3767.30266	0.03449
3766.01689	0.03457
3764.73112	0.03489
3763.44536	0.03543
3762.15959	0.03612
3760.87382	0.03666
3759.58805	0.03660
3758.30228	0.03583
3757.01651	0.03469
3755.73074	0.03398
3754.44497	0.03439
3753.15921	0.03580
3751.87344	0.03726
3750.58767	0.03780
3749.30190	0.03724
3748.01613	0.03644
3746.73036	0.03652
3745.44459	0.03730
3744.15882	0.03740
3742.87305	0.03627
3741.58729	0.03502
3740.30152	0.03474
3739.01575	0.03551
3737.72998	0.03668
3736.44421	0.03743
3735.15844	0.03730
3733.87267	0.03666
3732.58690	0.03593
3731.30114	0.03513
3730.01537	0.03426
3728.72960	0.03372
3727.44383	0.03386
3726.15806	0.03446
3724.87229	0.03509
3723.58652	0.03548
3722.30075	0.03555
3721.01498	0.03526
3719.72922	0.03474
3718.44345	0.03414
3717.15768	0.03364
3715.87191	0.03344
3714.58614	0.03372
3713.30037	0.03434
3712.01460	0.03487
3710.72883	0.03511
3709.44307	0.03517
3708.15730	0.03506
3706.87153	0.03479
3705.58576	0.03448
3704.29999	0.03433
3703.01422	0.03431
3701.72845	0.03424
3700.44268	0.03399
3699.15691	0.03372
3697.87115	0.03359
3696.58538	0.03354
3695.29961	0.03337
3694.01384	0.03311
3692.72807	0.03307
3691.44230	0.03370
3690.15653	0.03507
3688.87076	0.03641
3687.58500	0.03683
3686.29923	0.03637
3685.01346	0.03575
3683.72769	0.03551
3682.44192	0.03560
3681.15615	0.03575
3679.87038	0.03577
3678.58461	0.03576
3677.29884	0.03586
3676.01308	0.03582
3674.72731	0.03533
3673.44154	0.03484
3672.15577	0.03506
3670.87000	0.03585
3669.58423	0.03647
3668.29846	0.03674
3667.01269	0.03708
3665.72693	0.03768
3664.44116	0.03822
3663.15539	0.03835
3661.86962	0.03794
3660.58385	0.03720
3659.29808	0.03655
3658.01231	0.03630
3656.72654	0.03638
3655.44077	0.03645
3654.15501	0.03650
3652.86924	0.03679
3651.58347	0.03735
3650.29770	0.03777
3649.01193	0.03761
3647.72616	0.03688
3646.44039	0.03600
3645.15462	0.03540
3643.86886	0.03519
3642.58309	0.03528
3641.29732	0.03559
3640.01155	0.03611
3638.72578	0.03679
3637.44001	0.03754
3636.15424	0.03824
3634.86847	0.03867
3633.58270	0.03870
3632.29694	0.03873
3631.01117	0.03944
3629.72540	0.04077
3628.43963	0.04190
3627.15386	0.04232
3625.86809	0.04239
3624.58232	0.04254
3623.29655	0.04280
3622.01079	0.04295
3620.72502	0.04297
3619.43925	0.04296
3618.15348	0.04318
3616.86771	0.04379
3615.58194	0.04457
3614.29617	0.04509
3613.01040	0.04518
3611.72463	0.04511
3610.43887	0.04505
3609.15310	0.04481
3607.86733	0.04417
3606.58156	0.04348
3605.29579	0.04328
3604.01002	0.04370
3602.72425	0.04443
3601.43848	0.04512
3600.15272	0.04568
3598.86695	0.04627
3597.58118	0.04701
3596.29541	0.04773
3595.00964	0.04818
3593.72387	0.04823
3592.43810	0.04808
3591.15233	0.04822
3589.86656	0.04889
3588.58080	0.04977
3587.29503	0.05040
3586.00926	0.05067
3584.72349	0.05074
3583.43772	0.05082
3582.15195	0.05092
3580.86618	0.05097
3579.58041	0.05099
3578.29464	0.05101
3577.00888	0.05107
3575.72311	0.05124
3574.43734	0.05149
3573.15157	0.05167
3571.86580	0.05181
3570.58003	0.05217
3569.29426	0.05297
3568.00849	0.05409
3566.72273	0.05515
3565.43696	0.05593
3564.15119	0.05652
3562.86542	0.05695
3561.57965	0.05708
3560.29388	0.05684
3559.00811	0.05638
3557.72234	0.05599
3556.43657	0.05574
3555.15081	0.05548
3553.86504	0.05512
3552.57927	0.05484
3551.29350	0.05499
3550.00773	0.05578
3548.72196	0.05714
3547.43619	0.05860
3546.15042	0.05957
3544.86466	0.05970
3543.57889	0.05923
3542.29312	0.05868
3541.00735	0.05844
3539.72158	0.05853
3538.43581	0.05887
3537.15004	0.05935
3535.86427	0.05983
3534.57850	0.06010
3533.29274	0.06015
3532.00697	0.06023
3530.72120	0.06064
3529.43543	0.06147
3528.14966	0.06249
3526.86389	0.06333
3525.57812	0.06377
3524.29235	0.06385
3523.00659	0.06387
3521.72082	0.06405
3520.43505	0.06435
3519.14928	0.06462
3517.86351	0.06475
3516.57774	0.06487
3515.29197	0.06512
3514.00620	0.06550
3512.72043	0.06586
3511.43467	0.06609
3510.14890	0.06623
3508.86313	0.06635
3507.57736	0.06647
3506.29159	0.06649
3505.00582	0.06644
3503.72005	0.06653
3502.43428	0.06699
3501.14852	0.06774
3499.86275	0.06845
3498.57698	0.06873
3497.29121	0.06852
3496.00544	0.06804
3494.71967	0.06762
3493.43390	0.06741
3492.14813	0.06737
3490.86236	0.06739
3489.57660	0.06759
3488.29083	0.06826
3487.00506	0.06953
3485.71929	0.07107
3484.43352	0.07223
3483.14775	0.07247
3481.86198	0.07168
3480.57621	0.07034
3479.29045	0.06925
3478.00468	0.06897
3476.71891	0.06949
3475.43314	0.07035
3474.14737	0.07107
3472.86160	0.07148
3471.57583	0.07161
3470.29006	0.07154
3469.00429	0.07147
3467.71853	0.07160
3466.43276	0.07205
3465.14699	0.07267
3463.86122	0.07317
3462.57545	0.07334
3461.28968	0.07323
3460.00391	0.07308
3458.71814	0.07315
3457.43238	0.07355
3456.14661	0.07412
3454.86084	0.07463
3453.57507	0.07490
3452.28930	0.07499
3451.00353	0.07510
3449.71776	0.07532
3448.43199	0.07559
3447.14622	0.07584
3445.86046	0.07607
3444.57469	0.07639
3443.28892	0.07676
3442.00315	0.07696
3440.71738	0.07685
3439.43161	0.07648
3438.14584	0.07611
3436.86007	0.07593
3435.57431	0.07600
3434.28854	0.07625
3433.00277	0.07656
3431.71700	0.07683
3430.43123	0.07703
3429.14546	0.07714
3427.85969	0.07711
3426.57392	0.07697
3425.28815	0.07687
3424.00239	0.07701
3422.71662	0.07746
3421.43085	0.07804
3420.14508	0.07854
3418.85931	0.07883
3417.57354	0.07891
3416.28777	0.07884
3415.00200	0.07880
3413.71624	0.07900
3412.43047	0.07946
3411.14470	0.08002
3409.85893	0.08053
3408.57316	0.08096
3407.28739	0.08129
3406.00162	0.08137
3404.71585	0.08113
3403.43008	0.08073
3402.14432	0.08046
3400.85855	0.08052
3399.57278	0.08086
3398.28701	0.08128
3397.00124	0.08160
3395.71547	0.08182
3394.42970	0.08202
3393.14393	0.08226
3391.85817	0.08241
3390.57240	0.08234
3389.28663	0.08221
3388.00086	0.08230
3386.71509	0.08273
3385.42932	0.08323
3384.14355	0.08342
3382.85778	0.08323
3381.57201	0.08286
3380.28625	0.08262
3379.00048	0.08261
3377.71471	0.08272
3376.42894	0.08280
3375.14317	0.08277
3373.85740	0.08268
3372.57163	0.08255
3371.28586	0.08242
3370.00010	0.08239
3368.71433	0.08256
3367.42856	0.08295
3366.14279	0.08338
3364.85702	0.08366
3363.57125	0.08372
3362.28548	0.08361
3360.99971	0.08344
3359.71394	0.08329
3358.42818	0.08324
3357.14241	0.08329
3355.85664	0.08339
3354.57087	0.08345
3353.28510	0.08345
3351.99933	0.08340
3350.71356	0.08337
3349.42779	0.08341
3348.14202	0.08355
3346.85626	0.08371
3345.57049	0.08383
3344.28472	0.08384
3342.99895	0.08375
3341.71318	0.08367
3340.42741	0.08368
3339.14164	0.08371
3337.85587	0.08363
3336.57011	0.08341
3335.28434	0.08320
3333.99857	0.08316
3332.71280	0.08334
3331.42703	0.08369
3330.14126	0.08412
3328.85549	0.08452
3327.56972	0.08473
3326.28395	0.08469
3324.99819	0.08449
3323.71242	0.08431
3322.42665	0.08423
3321.14088	0.08419
3319.85511	0.08413
3318.56934	0.08408
3317.28357	0.08409
3315.99780	0.08412
3314.71204	0.08408
3313.42627	0.08394
3312.14050	0.08378
3310.85473	0.08371
3309.56896	0.08374
3308.28319	0.08381
3306.99742	0.08386
3305.71165	0.08385
3304.42588	0.08374
3303.14012	0.08349
3301.85435	0.08303
3300.56858	0.08246
3299.28281	0.08204
3297.99704	0.08205
3296.71127	0.08259
3295.42550	0.08341
3294.13973	0.08412
3292.85397	0.08446
3291.56820	0.08445
3290.28243	0.08426
3288.99666	0.08402
3287.71089	0.08373
3286.42512	0.08338
3285.13935	0.08306
3283.85358	0.08292
3282.56781	0.08300
3281.28205	0.08321
3279.99628	0.08335
3278.71051	0.08328
3277.42474	0.08297
3276.13897	0.08253
3274.85320	0.08207
3273.56743	0.08167
3272.28166	0.08132
3270.99590	0.08109
3269.71013	0.08110
3268.42436	0.08143
3267.13859	0.08190
3265.85282	0.08220
3264.56705	0.08210
3263.28128	0.08169
3261.99551	0.08128
3260.70974	0.08112
3259.42398	0.08123
3258.13821	0.08137
3256.85244	0.08130
3255.56667	0.08099
3254.28090	0.08069
3252.99513	0.08062
3251.70936	0.08073
3250.42359	0.08081
3249.13783	0.08075
3247.85206	0.08070
3246.56629	0.08087
3245.28052	0.08128
3243.99475	0.08175
3242.70898	0.08201
3241.42321	0.08194
3240.13744	0.08164
3238.85167	0.08137
3237.56591	0.08130
3236.28014	0.08142
3234.99437	0.08153
3233.70860	0.08146
3232.42283	0.08116
3231.13706	0.08071
3229.85129	0.08022
3228.56552	0.07985
3227.27976	0.07972
3225.99399	0.07986
3224.70822	0.08017
3223.42245	0.08046
3222.13668	0.08063
3220.85091	0.08069
3219.56514	0.08072
3218.27937	0.08069
3216.99360	0.08059
3215.70784	0.08046
3214.42207	0.08040
3213.13630	0.08039
3211.85053	0.08028
3210.56476	0.07995
3209.27899	0.07953
3207.99322	0.07929
3206.70745	0.07945
3205.42169	0.07999
3204.13592	0.08063
3202.85015	0.08092
3201.56438	0.08052
3200.27861	0.07950
3198.99284	0.07834
3197.70707	0.07758
3196.42130	0.07746
3195.13553	0.07783
3193.84977	0.07838
3192.56400	0.07885
3191.27823	0.07914
3189.99246	0.07923
3188.70669	0.07918
3187.42092	0.07907
3186.13515	0.07890
3184.84938	0.07865
3183.56362	0.07837
3182.27785	0.07815
3180.99208	0.07800
3179.70631	0.07781
3178.42054	0.07753
3177.13477	0.07730
3175.84900	0.07726
3174.56323	0.07739
3173.27746	0.07752
3171.99170	0.07752
3170.70593	0.07741
3169.42016	0.07724
3168.13439	0.07708
3166.84862	0.07695
3165.56285	0.07684
3164.27708	0.07673
3162.99131	0.07666
3161.70555	0.07658
3160.41978	0.07632
3159.13401	0.07576
3157.84824	0.07505
3156.56247	0.07449
3155.27670	0.07430
3153.99093	0.07439
3152.70516	0.07447
3151.41939	0.07436
3150.13363	0.07411
3148.84786	0.07389
3147.56209	0.07384
3146.27632	0.07401
3144.99055	0.07429
3143.70478	0.07449
3142.41901	0.07445
3141.13324	0.07422
3139.84748	0.07396
3138.56171	0.07380
3137.27594	0.07367
3135.99017	0.07348
3134.70440	0.07330
3133.41863	0.07328
3132.13286	0.07342
3130.84709	0.07353
3129.56132	0.07341
3128.27556	0.07294
3126.98979	0.07224
3125.70402	0.07168
3124.41825	0.07164
3123.13248	0.07213
3121.84671	0.07279
3120.56094	0.07320
3119.27517	0.07323
3117.98940	0.07309
3116.70364	0.07295
3115.41787	0.07287
3114.13210	0.07278
3112.84633	0.07263
3111.56056	0.07241
3110.27479	0.07207
3108.98902	0.07164
3107.70325	0.07120
3106.41749	0.07086
3105.13172	0.07063
3103.84595	0.07047
3102.56018	0.07040
3101.27441	0.07042
3099.98864	0.07048
3098.70287	0.07040
3097.41710	0.07008
3096.13133	0.06959
3094.84557	0.06912
3093.55980	0.06878
3092.27403	0.06854
3090.98826	0.06832
3089.70249	0.06824
3088.41672	0.06843
3087.13095	0.06884
3085.84518	0.06916
3084.55942	0.06916
3083.27365	0.06886
3081.98788	0.06852
3080.70211	0.06838
3079.41634	0.06849
3078.13057	0.06872
3076.84480	0.06881
3075.55903	0.06861
3074.27326	0.06818
3072.98750	0.06769
3071.70173	0.06728
3070.41596	0.06699
3069.13019	0.06681
3067.84442	0.06677
3066.55865	0.06685
3065.27288	0.06697
3063.98711	0.06702
3062.70135	0.06697
3061.41558	0.06683
3060.12981	0.06665
3058.84404	0.06644
3057.55827	0.06624
3056.27250	0.06612
3054.98673	0.06615
3053.70096	0.06622
3052.41519	0.06618
3051.12943	0.06598
3049.84366	0.06576
3048.55789	0.06567
3047.27212	0.06571
3045.98635	0.06577
3044.70058	0.06577
3043.41481	0.06568
3042.12904	0.06554
3040.84328	0.06536
3039.55751	0.06512
3038.27174	0.06482
3036.98597	0.06447
3035.70020	0.06413
3034.41443	0.06390
3033.12866	0.06382
3031.84289	0.06383
3030.55712	0.06382
3029.27136	0.06376
3027.98559	0.06369
3026.69982	0.06369
3025.41405	0.06375
3024.12828	0.06381
3022.84251	0.06377
3021.55674	0.06358
3020.27097	0.06328
3018.98521	0.06298
3017.69944	0.06276
3016.41367	0.06258
3015.12790	0.06235
3013.84213	0.06206
3012.55636	0.06175
3011.27059	0.06141
3009.98482	0.06103
3008.69905	0.06067
3007.41329	0.06046
3006.12752	0.06047
3004.84175	0.06063
3003.55598	0.06085
3002.27021	0.06109
3000.98444	0.06138
2999.69867	0.06174
2998.41290	0.06205
2997.12714	0.06215
2995.84137	0.06196
2994.55560	0.06165
2993.26983	0.06148
2991.98406	0.06151
2990.69829	0.06148
2989.41252	0.06114
2988.12675	0.06055
2986.84098	0.06005
2985.55522	0.05994
2984.26945	0.06027
2982.98368	0.06081
2981.69791	0.06135
2980.41214	0.06181
2979.12637	0.06218
2977.84060	0.06241
2976.55483	0.06249
2975.26907	0.06258
2973.98330	0.06287
2972.69753	0.06345
2971.41176	0.06429
2970.12599	0.06527
2968.84022	0.06624
2967.55445	0.06713
2966.26868	0.06788
2964.98291	0.06854
2963.69715	0.06917
2962.41138	0.06979
2961.12561	0.07030
2959.83984	0.07061
2958.55407	0.07068
2957.26830	0.07065
2955.98253	0.07066
2954.69676	0.07076
2953.41100	0.07087
2952.12523	0.07084
2950.83946	0.07056
2949.55369	0.06999
2948.26792	0.06927
2946.98215	0.06862
2945.69638	0.06824
2944.41061	0.06816
2943.12484	0.06827
2941.83908	0.06838
2940.55331	0.06835
2939.26754	0.06821
2937.98177	0.06813
2936.69600	0.06831
2935.41023	0.06873
2934.12446	0.06925
2932.83869	0.06977
2931.55293	0.07023
2930.26716	0.07053
2928.98139	0.07059
2927.69562	0.07046
2926.40985	0.07027
2925.12408	0.07005
2923.83831	0.06977
2922.55254	0.06944
2921.26677	0.06913
2919.98101	0.06880
2918.69524	0.06835
2917.40947	0.06781
2916.12370	0.06736
2914.83793	0.06715
2913.55216	0.06722
2912.26639	0.06741
2910.98062	0.06755
2909.69486	0.06751
2908.40909	0.06722
2907.12332	0.06668
2905.83755	0.06603
2904.55178	0.06537
2903.26601	0.06476
2901.98024	0.06415
2900.69447	0.06353
2899.40870	0.06297
2898.12294	0.06254
2896.83717	0.06223
2895.55140	0.06195
2894.26563	0.06167
2892.97986	0.06140
2891.69409	0.06114
2890.40832	0.06082
2889.12255	0.06040
2887.83678	0.05998
2886.55102	0.05969
2885.26525	0.05948
2883.97948	0.05924
2882.69371	0.05897
2881.40794	0.05885
2880.12217	0.05894
2878.83640	0.05913
2877.55063	0.05925
2876.26487	0.05928
2874.97910	0.05931
2873.69333	0.05939
2872.40756	0.05955
2871.12179	0.05976
2869.83602	0.05996
2868.55025	0.06005
2867.26448	0.06000
2865.97871	0.05983
2864.69295	0.05961
2863.40718	0.05930
2862.12141	0.05886
2860.83564	0.05838
2859.54987	0.05809
2858.26410	0.05806
2856.97833	0.05813
2855.69256	0.05802
2854.40680	0.05768
2853.12103	0.05726
2851.83526	0.05695
2850.54949	0.05675
2849.26372	0.05657
2847.97795	0.05634
2846.69218	0.05608
2845.40641	0.05575
2844.12064	0.05529
2842.83488	0.05469
2841.54911	0.05403
2840.26334	0.05340
2838.97757	0.05277
2837.69180	0.05216
2836.40603	0.05160
2835.12026	0.05110
2833.83449	0.05064
2832.54873	0.05019
2831.26296	0.04984
2829.97719	0.04961
2828.69142	0.04942
2827.40565	0.04916
2826.11988	0.04886
2824.83411	0.04860
2823.54834	0.04843
2822.26257	0.04830
2820.97681	0.04817
2819.69104	0.04805
2818.40527	0.04800
2817.11950	0.04797
2815.83373	0.04793
2814.54796	0.04794
2813.26219	0.04809
2811.97642	0.04831
2810.69066	0.04844
2809.40489	0.04838
2808.11912	0.04821
2806.83335	0.04805
2805.54758	0.04795
2804.26181	0.04784
2802.97604	0.04764
2801.69027	0.04728
2800.40450	0.04677
2799.11874	0.04628
2797.83297	0.04593
2796.54720	0.04569
2795.26143	0.04547
2793.97566	0.04525
2792.68989	0.04514
2791.40412	0.04520
2790.11835	0.04531
2788.83259	0.04532
2787.54682	0.04515
2786.26105	0.04483
2784.97528	0.04446
2783.68951	0.04418
2782.40374	0.04406
2781.11797	0.04409
2779.83220	0.04420
2778.54643	0.04428
2777.26067	0.04423
2775.97490	0.04403
2774.68913	0.04375
2773.40336	0.04357
2772.11759	0.04352
2770.83182	0.04350
2769.54605	0.04339
2768.26028	0.04325
2766.97452	0.04321
2765.68875	0.04329
2764.40298	0.04341
2763.11721	0.04340
2761.83144	0.04320
2760.54567	0.04292
2759.25990	0.04273
2757.97413	0.04272
2756.68836	0.04282
2755.40260	0.04290
2754.11683	0.04289
2752.83106	0.04282
2751.54529	0.04271
2750.25952	0.04259
2748.97375	0.04245
2747.68798	0.04232
2746.40221	0.04223
2745.11645	0.04218
2743.83068	0.04214
2742.54491	0.04204
2741.25914	0.04187
2739.97337	0.04172
2738.68760	0.04168
2737.40183	0.04173
2736.11606	0.04176
2734.83029	0.04165
2733.54453	0.04150
2732.25876	0.04144
2730.97299	0.04149
2729.68722	0.04150
2728.40145	0.04140
2727.11568	0.04123
2725.82991	0.04110
2724.54414	0.04108
2723.25838	0.04118
2721.97261	0.04128
2720.68684	0.04125
2719.40107	0.04105
2718.11530	0.04081
2716.82953	0.04066
2715.54376	0.04059
2714.25799	0.04048
2712.97222	0.04029
2711.68646	0.04007
2710.40069	0.03997
2709.11492	0.04002
2707.82915	0.04014
2706.54338	0.04019
2705.25761	0.04011
2703.97184	0.03999
2702.68607	0.03990
2701.40031	0.03982
2700.11454	0.03967
2698.82877	0.03943
2697.54300	0.03922
2696.25723	0.03916
2694.97146	0.03924
2693.68569	0.03937
2692.39992	0.03944
2691.11415	0.03938
2689.82839	0.03914
2688.54262	0.03878
2687.25685	0.03844
2685.97108	0.03824
2684.68531	0.03817
2683.39954	0.03811
2682.11377	0.03801
2680.82800	0.03794
2679.54224	0.03792
2678.25647	0.03791
2676.97070	0.03781
2675.68493	0.03765
2674.39916	0.03758
2673.11339	0.03771
2671.82762	0.03805
2670.54185	0.03841
2669.25608	0.03863
2667.97032	0.03862
2666.68455	0.03844
2665.39878	0.03817
2664.11301	0.03790
2662.82724	0.03769
2661.54147	0.03758
2660.25570	0.03761
2658.96993	0.03775
2657.68417	0.03786
2656.39840	0.03780
2655.11263	0.03755
2653.82686	0.03722
2652.54109	0.03695
2651.25532	0.03687
2649.96955	0.03691
2648.68378	0.03697
2647.39801	0.03692
2646.11225	0.03675
2644.82648	0.03650
2643.54071	0.03624
2642.25494	0.03600
2640.96917	0.03580
2639.68340	0.03563
2638.39763	0.03547
2637.11186	0.03534
2635.82609	0.03523
2634.54033	0.03507
2633.25456	0.03481
2631.96879	0.03450
2630.68302	0.03430
2629.39725	0.03425
2628.11148	0.03425
2626.82571	0.03419
2625.53994	0.03403
2624.25418	0.03378
2622.96841	0.03346
2621.68264	0.03310
2620.39687	0.03275
2619.11110	0.03253
2617.82533	0.03255
2616.53956	0.03273
2615.25379	0.03282
2613.96802	0.03265
2612.68226	0.03234
2611.39649	0.03218
2610.11072	0.03226
2608.82495	0.03244
2607.53918	0.03254
2606.25341	0.03246
2604.96764	0.03217
2603.68187	0.03168
2602.39611	0.03113
2601.11034	0.03075
2599.82457	0.03072
2598.53880	0.03099
2597.25303	0.03135
2595.96726	0.03163
2594.68149	0.03173
2593.39572	0.03164
2592.10995	0.03139
2590.82419	0.03101
2589.53842	0.03054
2588.25265	0.03006
2586.96688	0.02980
2585.68111	0.02991
2584.39534	0.03032
2583.10957	0.03074
2581.82380	0.03091
2580.53804	0.03086
2579.25227	0.03077
2577.96650	0.03071
2576.68073	0.03056
2575.39496	0.03014
2574.10919	0.02955
2572.82342	0.02908
2571.53765	0.02892
2570.25188	0.02900
2568.96612	0.02912
2567.68035	0.02917
2566.39458	0.02908
2565.10881	0.02879
2563.82304	0.02845
2562.53727	0.02837
2561.25150	0.02872
2559.96573	0.02928
2558.67997	0.02961
2557.39420	0.02954
2556.10843	0.02934
2554.82266	0.02928
2553.53689	0.02937
2552.25112	0.02940
2550.96535	0.02931
2549.67958	0.02917
2548.39381	0.02905
2547.10805	0.02890
2545.82228	0.02870
2544.53651	0.02852
2543.25074	0.02850
2541.96497	0.02863
2540.67920	0.02881
2539.39343	0.02891
2538.10766	0.02880
2536.82190	0.02841
2535.53613	0.02783
2534.25036	0.02730
2532.96459	0.02702
2531.67882	0.02703
2530.39305	0.02719
2529.10728	0.02741
2527.82151	0.02765
2526.53574	0.02783
2525.24998	0.02787
2523.96421	0.02782
2522.67844	0.02779
2521.39267	0.02785
2520.10690	0.02799
2518.82113	0.02811
2517.53536	0.02811
2516.24959	0.02798
2514.96383	0.02781
2513.67806	0.02775
2512.39229	0.02779
2511.10652	0.02778
2509.82075	0.02769
2508.53498	0.02760
2507.24921	0.02749
2505.96344	0.02722
2504.67767	0.02676
2503.39191	0.02635
2502.10614	0.02628
2500.82037	0.02655
2499.53460	0.02696
2498.24883	0.02724
2496.96306	0.02725
2495.67729	0.02691
2494.39152	0.02628
2493.10576	0.02561
2491.81999	0.02524
2490.53422	0.02530
2489.24845	0.02567
2487.96268	0.02619
2486.67691	0.02671
2485.39114	0.02707
2484.10537	0.02716
2482.81960	0.02708
2481.53384	0.02705
2480.24807	0.02715
2478.96230	0.02727
2477.67653	0.02729
2476.39076	0.02727
2475.10499	0.02728
2473.81922	0.02729
2472.53345	0.02719
2471.24769	0.02695
2469.96192	0.02666
2468.67615	0.02650
2467.39038	0.02653
2466.10461	0.02667
2464.81884	0.02681
2463.53307	0.02692
2462.24730	0.02705
2460.96153	0.02720
2459.67577	0.02733
2458.39000	0.02739
2457.10423	0.02734
2455.81846	0.02717
2454.53269	0.02693
2453.24692	0.02673
2451.96115	0.02659
2450.67538	0.02642
2449.38962	0.02613
2448.10385	0.02579
2446.81808	0.02558
2445.53231	0.02551
2444.24654	0.02546
2442.96077	0.02538
2441.67500	0.02537
2440.38923	0.02544
2439.10346	0.02546
2437.81770	0.02531
2436.53193	0.02513
2435.24616	0.02510
2433.96039	0.02524
2432.67462	0.02543
2431.38885	0.02561
2430.10308	0.02576
2428.81731	0.02581
2427.53155	0.02572
2426.24578	0.02555
2424.96001	0.02542
2423.67424	0.02533
2422.38847	0.02526
2421.10270	0.02523
2419.81693	0.02530
2418.53116	0.02540
2417.24539	0.02537
2415.95963	0.02522
2414.67386	0.02515
2413.38809	0.02525
2412.10232	0.02539
2410.81655	0.02541
2409.53078	0.02528
2408.24501	0.02510
2406.95924	0.02490
2405.67347	0.02461
2404.38771	0.02429
2403.10194	0.02414
2401.81617	0.02437
2400.53040	0.02487
2399.24463	0.02518
2397.95886	0.02510
2396.67309	0.02471
2395.38732	0.02424
2394.10156	0.02390
2392.81579	0.02375
2391.53002	0.02375
2390.24425	0.02384
2388.95848	0.02395
2387.67271	0.02401
2386.38694	0.02399
2385.10117	0.02389
2383.81540	0.02380
2382.52964	0.02379
2381.24387	0.02389
2379.95810	0.02417
2378.67233	0.02459
2377.38656	0.02506
2376.10079	0.02565
2374.81502	0.02614
2373.52925	0.02616
2372.24349	0.02556
2370.95772	0.02425
2369.67195	0.02265
2368.38618	0.02105
2367.10041	0.01961
2365.81464	0.01914
2364.52887	0.02035
2363.24310	0.02234
2361.95733	0.02367
2360.67157	0.02405
2359.38580	0.02427
2358.10003	0.02461
2356.81426	0.02501
2355.52849	0.02546
2354.24272	0.02570
2352.95695	0.02567
2351.67118	0.02497
2350.38542	0.02337
2349.09965	0.02227
2347.81388	0.02297
2346.52811	0.02425
2345.24234	0.02432
2343.95657	0.02348
2342.67080	0.02309
2341.38503	0.02337
2340.09926	0.02385
2338.81350	0.02435
2337.52773	0.02452
2336.24196	0.02436
2334.95619	0.02375
2333.67042	0.02297
2332.38465	0.02284
2331.09888	0.02333
2329.81311	0.02399
2328.52735	0.02473
2327.24158	0.02502
2325.95581	0.02478
2324.67004	0.02448
2323.38427	0.02425
2322.09850	0.02425
2320.81273	0.02467
2319.52696	0.02501
2318.24119	0.02489
2316.95543	0.02457
2315.66966	0.02429
2314.38389	0.02412
2313.09812	0.02388
2311.81235	0.02361
2310.52658	0.02347
2309.24081	0.02355
2307.95504	0.02387
2306.66928	0.02426
2305.38351	0.02444
2304.09774	0.02443
2302.81197	0.02434
2301.52620	0.02421
2300.24043	0.02402
2298.95466	0.02381
2297.66889	0.02368
2296.38312	0.02370
2295.09736	0.02391
2293.81159	0.02421
2292.52582	0.02448
2291.24005	0.02456
2289.95428	0.02437
2288.66851	0.02394
2287.38274	0.02342
2286.09697	0.02296
2284.81121	0.02261
2283.52544	0.02237
2282.23967	0.02219
2280.95390	0.02193
2279.66813	0.02154
2278.38236	0.02106
2277.09659	0.02060
2275.81082	0.02015
2274.52505	0.01967
2273.23929	0.01913
2271.95352	0.01858
2270.66775	0.01809
2269.38198	0.01772
2268.09621	0.01753
2266.81044	0.01762
2265.52467	0.01808
2264.23890	0.01888
2262.95314	0.01986
2261.66737	0.02075
2260.38160	0.02129
2259.09583	0.02142
2257.81006	0.02125
2256.52429	0.02088
2255.23852	0.02034
2253.95275	0.01961
2252.66698	0.01878
2251.38122	0.01805
2250.09545	0.01755
2248.80968	0.01735
2247.52391	0.01745
2246.23814	0.01781
2244.95237	0.01812
2243.66660	0.01797
2242.38083	0.01732
2241.09507	0.01672
2239.80930	0.01680
2238.52353	0.01755
2237.23776	0.01831
2235.95199	0.01846
2234.66622	0.01789
2233.38045	0.01693
2232.09468	0.01601
2230.80891	0.01537
2229.52315	0.01502
2228.23738	0.01493
2226.95161	0.01506
2225.66584	0.01540
2224.38007	0.01589
2223.09430	0.01642
2221.80853	0.01684
2220.52276	0.01694
2219.23700	0.01656
2217.95123	0.01577
2216.66546	0.01501
2215.37969	0.01468
2214.09392	0.01482
2212.80815	0.01505
2211.52238	0.01497
2210.23661	0.01452
2208.95084	0.01394
2207.66508	0.01353
2206.37931	0.01339
2205.09354	0.01322
2203.80777	0.01262
2202.52200	0.01158
2201.23623	0.01059
2199.95046	0.01015
2198.66469	0.01022
2197.37893	0.01042
2196.09316	0.01064
2194.80739	0.01110
2193.52162	0.01184
2192.23585	0.01257
2190.95008	0.01312
2189.66431	0.01372
2188.37854	0.01460
2187.09277	0.01544
2185.80701	0.01566
2184.52124	0.01516
2183.23547	0.01440
2181.94970	0.01375
2180.66393	0.01306
2179.37816	0.01202
2178.09239	0.01083
2176.80662	0.01012
2175.52085	0.01045
2174.23509	0.01167
2172.94932	0.01293
2171.66355	0.01329
2170.37778	0.01249
2169.09201	0.01115
2167.80624	0.01013
2166.52047	0.00965
2165.23470	0.00921
2163.94894	0.00836
2162.66317	0.00709
2161.37740	0.00565
2160.09163	0.00421
2158.80586	0.00309
2157.52009	0.00272
2156.23432	0.00325
2154.94855	0.00437
2153.66278	0.00570
2152.37702	0.00696
2151.09125	0.00793
2149.80548	0.00850
2148.51971	0.00876
2147.23394	0.00885
2145.94817	0.00877
2144.66240	0.00843
2143.37663	0.00792
2142.09087	0.00761
2140.80510	0.00780
2139.51933	0.00854
2138.23356	0.00951
2136.94779	0.01022
2135.66202	0.01038
2134.37625	0.01031
2133.09048	0.01068
2131.80471	0.01173
2130.51895	0.01301
2129.23318	0.01386
2127.94741	0.01401
2126.66164	0.01368
2125.37587	0.01323
2124.09010	0.01287
2122.80433	0.01269
2121.51856	0.01265
2120.23280	0.01269
2118.94703	0.01284
2117.66126	0.01316
2116.37549	0.01350
2115.08972	0.01357
2113.80395	0.01329
2112.51818	0.01295
2111.23241	0.01285
2109.94664	0.01297
2108.66088	0.01306
2107.37511	0.01311
2106.08934	0.01323
2104.80357	0.01342
2103.51780	0.01349
2102.23203	0.01329
2100.94626	0.01297
2099.66049	0.01347
2098.37473	0.01368
2097.08896	0.01348
2095.80319	0.01307
2094.51742	0.01255
2093.23165	0.01217
2091.94588	0.01215
2090.66011	0.01248
2089.37434	0.01284
2088.08857	0.01290
2086.80281	0.01265
2085.51704	0.01240
2084.23127	0.01249
2082.94550	0.01290
2081.65973	0.01332
2080.37396	0.01343
2079.08819	0.01306
2077.80242	0.01235
2076.51666	0.01165
2075.23089	0.01128
2073.94512	0.01124
2072.65935	0.01119
2071.37358	0.01087
2070.08781	0.01035
2068.80204	0.00992
2067.51627	0.00966
2066.23050	0.00947
2064.94474	0.00921
2063.65897	0.00901
2062.37320	0.00914
2061.08743	0.00970
2059.80166	0.01039
2058.51589	0.01077
2057.23012	0.01058
2055.94435	0.01004
2054.65859	0.00955
2053.37282	0.00938
2052.08705	0.00943
2050.80128	0.00943
2049.51551	0.00925
2048.22974	0.00898
2046.94397	0.00862
2045.65820	0.00799
2044.37243	0.00697
2043.08667	0.00579
2041.80090	0.00475
2040.51513	0.00396
2039.22936	0.00347
2037.94359	0.00346
2036.65782	0.00400
2035.37205	0.00473
2034.08628	0.00520
2032.80052	0.00532
2031.51475	0.00531
2030.22898	0.00517
2028.94321	0.00476
2027.65744	0.00425
2026.37167	0.00409
2025.08590	0.00443
2023.80013	0.00485
2022.51436	0.00488
2021.22860	0.00462
2019.94283	0.00468
2018.65706	0.00545
2017.37129	0.00662
2016.08552	0.00762
2014.79975	0.00814
2013.51398	0.00836
2012.22821	0.00849
2010.94245	0.00854
2009.65668	0.00852
2008.37091	0.00858
2007.08514	0.00875
2005.79937	0.00882
2004.51360	0.00861
2003.22783	0.00831
2001.94206	0.00830
2000.65629	0.00872
1999.37053	0.00943
1998.08476	0.01014
1996.79899	0.01051
1995.51322	0.01019
1994.22745	0.00917
1992.94168	0.00806
1991.65591	0.00760
1990.37014	0.00803
1989.08438	0.00893
1987.79861	0.00975
1986.51284	0.01023
1985.22707	0.01040
1983.94130	0.01031
1982.65553	0.01007
1981.36976	0.00996
1980.08399	0.01011
1978.79822	0.01035
1977.51246	0.01043
1976.22669	0.01032
1974.94092	0.01023
1973.65515	0.01033
1972.36938	0.01061
1971.08361	0.01080
1969.79784	0.01061
1968.51207	0.01005
1967.22631	0.00949
1965.94054	0.00927
1964.65477	0.00940
1963.36900	0.00958
1962.08323	0.00967
1960.79746	0.00975
1959.51169	0.01000
1958.22592	0.01045
1956.94015	0.01101
1955.65439	0.01164
1954.36862	0.01229
1953.08285	0.01283
1951.79708	0.01308
1950.51131	0.01298
1949.22554	0.01274
1947.93977	0.01261
1946.65400	0.01261
1945.36823	0.01257
1944.08247	0.01237
1942.79670	0.01210
1941.51093	0.01197
1940.22516	0.01209
1938.93939	0.01246
1937.65362	0.01303
1936.36785	0.01370
1935.08208	0.01430
1933.79632	0.01469
1932.51055	0.01485
1931.22478	0.01487
1929.93901	0.01475
1928.65324	0.01442
1927.36747	0.01390
1926.08170	0.01339
1924.79593	0.01312
1923.51016	0.01313
1922.22440	0.01329
1920.93863	0.01345
1919.65286	0.01355
1918.36709	0.01361
1917.08132	0.01359
1915.79555	0.01351
1914.50978	0.01341
1913.22401	0.01342
1911.93825	0.01360
1910.65248	0.01390
1909.36671	0.01418
1908.08094	0.01434
1906.79517	0.01442
1905.50940	0.01455
1904.22363	0.01474
1902.93786	0.01490
1901.65209	0.01492
1900.36633	0.01481
1899.08056	0.01471
1897.79479	0.01465
1896.50902	0.01452
1895.22325	0.01420
1893.93748	0.01379
1892.65171	0.01351
1891.36594	0.01349
1890.08018	0.01363
1888.79441	0.01376
1887.50864	0.01387
1886.22287	0.01401
1884.93710	0.01416
1883.65133	0.01423
1882.36556	0.01426
1881.07979	0.01437
1879.79402	0.01463
1878.50826	0.01490
1877.22249	0.01501
1875.93672	0.01491
1874.65095	0.01471
1873.36518	0.01452
1872.07941	0.01441
1870.79364	0.01438
1869.50787	0.01436
1868.22211	0.01430
1866.93634	0.01417
1865.65057	0.01399
1864.36480	0.01385
1863.07903	0.01382
1861.79326	0.01390
1860.50749	0.01405
1859.22172	0.01415
1857.93595	0.01419
1856.65019	0.01413
1855.36442	0.01398
1854.07865	0.01378
1852.79288	0.01366
1851.50711	0.01374
1850.22134	0.01395
1848.93557	0.01412
1847.64980	0.01422
1846.36404	0.01436
1845.07827	0.01455
1843.79250	0.01462
1842.50673	0.01452
1841.22096	0.01442
1839.93519	0.01448
1838.64942	0.01462
1837.36365	0.01474
1836.07788	0.01487
1834.79212	0.01504
1833.50635	0.01524
1832.22058	0.01538
1830.93481	0.01539
1829.64904	0.01525
1828.36327	0.01510
1827.07750	0.01510
1825.79173	0.01525
1824.50597	0.01541
1823.22020	0.01550
1821.93443	0.01551
1820.64866	0.01546
1819.36289	0.01532
1818.07712	0.01510
1816.79135	0.01488
1815.50558	0.01474
1814.21981	0.01473
1812.93405	0.01480
1811.64828	0.01487
1810.36251	0.01489
1809.07674	0.01488
1807.79097	0.01485
1806.50520	0.01484
1805.21943	0.01485
1803.93366	0.01495
1802.64790	0.01512
1801.36213	0.01528
1800.07636	0.01536
1798.79059	0.01540
1797.50482	0.01551
1796.21905	0.01571
1794.93328	0.01594
1793.64751	0.01610
1792.36174	0.01607
1791.07598	0.01583
1789.79021	0.01558
1788.50444	0.01551
1787.21867	0.01563
1785.93290	0.01579
1784.64713	0.01588
1783.36136	0.01587
1782.07559	0.01590
1780.78983	0.01601
1779.50406	0.01612
1778.21829	0.01617
1776.93252	0.01621
1775.64675	0.01634
1774.36098	0.01663
1773.07521	0.01689
1771.78944	0.01690
1770.50367	0.01672
1769.21791	0.01658
1767.93214	0.01653
1766.64637	0.01648
1765.36060	0.01645
1764.07483	0.01653
1762.78906	0.01669
1761.50329	0.01675
1760.21752	0.01668
1758.93176	0.01661
1757.64599	0.01667
1756.36022	0.01679
1755.07445	0.01694
1753.78868	0.01719
1752.50291	0.01753
1751.21714	0.01778
1749.93137	0.01783
1748.64560	0.01778
1747.35984	0.01779
1746.07407	0.01785
1744.78830	0.01792
1743.50253	0.01797
1742.21676	0.01805
1740.93099	0.01819
1739.64522	0.01829
1738.35945	0.01832
1737.07369	0.01853
1735.78792	0.01904
1734.50215	0.01949
1733.21638	0.01945
1731.93061	0.01899
1730.64484	0.01858
1729.35907	0.01847
1728.07330	0.01856
1726.78753	0.01873
1725.50177	0.01894
1724.21600	0.01917
1722.93023	0.01940
1721.64446	0.01969
1720.35869	0.02019
1719.07292	0.02087
1717.78715	0.02144
1716.50138	0.02169
1715.21561	0.02168
1713.92985	0.02167
1712.64408	0.02175
1711.35831	0.02193
1710.07254	0.02214
1708.78677	0.02239
1707.50100	0.02270
1706.21523	0.02307
1704.92946	0.02350
1703.64370	0.02412
1702.35793	0.02506
1701.07216	0.02603
1699.78639	0.02655
1698.50062	0.02669
1697.21485	0.02685
1695.92908	0.02705
1694.64331	0.02696
1693.35754	0.02667
1692.07178	0.02660
1690.78601	0.02686
1689.50024	0.02729
1688.21447	0.02785
1686.92870	0.02867
1685.64293	0.02957
1684.35716	0.03007
1683.07139	0.02997
1681.78563	0.02967
1680.49986	0.02964
1679.21409	0.02994
1677.92832	0.03045
1676.64255	0.03102
1675.35678	0.03144
1674.07101	0.03163
1672.78524	0.03179
1671.49947	0.03215
1670.21371	0.03261
1668.92794	0.03293
1667.64217	0.03307
1666.35640	0.03324
1665.07063	0.03364
1663.78486	0.03417
1662.49909	0.03457
1661.21332	0.03475
1659.92756	0.03478
1658.64179	0.03480
1657.35602	0.03499
1656.07025	0.03563
1654.78448	0.03671
1653.49871	0.03763
1652.21294	0.03769
1650.92717	0.03705
1649.64140	0.03658
1648.35564	0.03669
1647.06987	0.03705
1645.78410	0.03717
1644.49833	0.03696
1643.21256	0.03671
1641.92679	0.03662
1640.64102	0.03670
1639.35525	0.03693
1638.06949	0.03731
1636.78372	0.03774
1635.49795	0.03792
1634.21218	0.03774
1632.92641	0.03745
1631.64064	0.03732
1630.35487	0.03740
1629.06910	0.03752
1627.78333	0.03758
1626.49757	0.03762
1625.21180	0.03772
1623.92603	0.03783
1622.64026	0.03781
1621.35449	0.03766
1620.06872	0.03764
1618.78295	0.03792
1617.49718	0.03831
1616.21142	0.03844
1614.92565	0.03825
1613.63988	0.03800
1612.35411	0.03794
1611.06834	0.03805
1609.78257	0.03825
1608.49680	0.03849
1607.21103	0.03872
1605.92526	0.03888
1604.63950	0.03899
1603.35373	0.03905
1602.06796	0.03911
1600.78219	0.03919
1599.49642	0.03929
1598.21065	0.03943
1596.92488	0.03961
1595.63911	0.03984
1594.35335	0.04005
1593.06758	0.04021
1591.78181	0.04032
1590.49604	0.04042
1589.21027	0.04053
1587.92450	0.04069
1586.63873	0.04088
1585.35296	0.04111
1584.06719	0.04131
1582.78143	0.04144
1581.49566	0.04149
1580.20989	0.04158
1578.92412	0.04192
1577.63835	0.04253
1576.35258	0.04306
1575.06681	0.04320
1573.78104	0.04309
1572.49528	0.04314
1571.20951	0.04346
1569.92374	0.04381
1568.63797	0.04398
1567.35220	0.04401
1566.06643	0.04405
1564.78066	0.04413
1563.49489	0.04432
1562.20912	0.04484
1560.92336	0.04572
1559.63759	0.04654
1558.35182	0.04678
1557.06605	0.04651
1555.78028	0.04624
1554.49451	0.04621
1553.20874	0.04631
1551.92297	0.04646
1550.63721	0.04665
1549.35144	0.04685
1548.06567	0.04701
1546.77990	0.04716
1545.49413	0.04734
1544.20836	0.04754
1542.92259	0.04780
1541.63682	0.04812
1540.35105	0.04827
1539.06529	0.04797
1537.77952	0.04734
1536.49375	0.04684
1535.20798	0.04679
1533.92221	0.04698
1532.63644	0.04708
1531.35067	0.04706
1530.06490	0.04712
1528.77914	0.04736
1527.49337	0.04771
1526.20760	0.04806
1524.92183	0.04847
1523.63606	0.04909
1522.35029	0.04994
1521.06452	0.05076
1519.77875	0.05142
1518.49298	0.05204
1517.20722	0.05276
1515.92145	0.05353
1514.63568	0.05433
1513.34991	0.05521
1512.06414	0.05616
1510.77837	0.05726
1509.49260	0.05864
1508.20683	0.06027
1506.92107	0.06177
1505.63530	0.06272
1504.34953	0.06320
1503.06376	0.06366
1501.77799	0.06438
1500.49222	0.06530
1499.20645	0.06629
1497.92068	0.06723
1496.63491	0.06799
1495.34915	0.06848
1494.06338	0.06886
1492.77761	0.06938
1491.49184	0.07014
1490.20607	0.07101
1488.92030	0.07186
1487.63453	0.07267
1486.34876	0.07350
1485.06299	0.07440
1483.77723	0.07542
1482.49146	0.07658
1481.20569	0.07778
1479.91992	0.07898
1478.63415	0.08016
1477.34838	0.08133
1476.06261	0.08249
1474.77684	0.08363
1473.49108	0.08467
1472.20531	0.08543
1470.91954	0.08583
1469.63377	0.08603
1468.34800	0.08625
1467.06223	0.08658
1465.77646	0.08694
1464.49069	0.08719
1463.20492	0.08733
1461.91916	0.08751
1460.63339	0.08789
1459.34762	0.08855
1458.06185	0.08929
1456.77608	0.08971
1455.49031	0.08967
1454.20454	0.08943
1452.91877	0.08930
1451.63301	0.08935
1450.34724	0.08945
1449.06147	0.08946
1447.77570	0.08929
1446.48993	0.08892
1445.20416	0.08844
1443.91839	0.08794
1442.63262	0.08745
1441.34685	0.08697
1440.06109	0.08661
1438.77532	0.08648
1437.48955	0.08649
1436.20378	0.08647
1434.91801	0.08644
1433.63224	0.08664
1432.34647	0.08724
1431.06070	0.08818
1429.77494	0.08934
1428.48917	0.09063
1427.20340	0.09205
1425.91763	0.09355
1424.63186	0.09509
1423.34609	0.09664
1422.06032	0.09829
1420.77455	0.10001
1419.48878	0.10157
1418.20302	0.10274
1416.91725	0.10355
1415.63148	0.10417
1414.34571	0.10469
1413.05994	0.10502
1411.77417	0.10509
1410.48840	0.10490
1409.20263	0.10447
1407.91687	0.10383
1406.63110	0.10292
1405.34533	0.10171
1404.05956	0.10015
1402.77379	0.09835
1401.48802	0.09644
1400.20225	0.09448
1398.91648	0.09246
1397.63071	0.09037
1396.34495	0.08825
1395.05918	0.08608
1393.77341	0.08379
1392.48764	0.08145
1391.20187	0.07922
1389.91610	0.07719
1388.63033	0.07531
1387.34456	0.07343
1386.05880	0.07147
1384.77303	0.06951
1383.48726	0.06765
1382.20149	0.06586
1380.91572	0.06408
1379.62995	0.06226
1378.34418	0.06041
1377.05841	0.05853
1375.77264	0.05664
1374.48688	0.05473
1373.20111	0.05279
1371.91534	0.05088
1370.62957	0.04906
1369.34380	0.04738
1368.05803	0.04583
1366.77226	0.04439
1365.48649	0.04309
1364.20073	0.04190
1362.91496	0.04071
1361.62919	0.03949
1360.34342	0.03827
1359.05765	0.03715
1357.77188	0.03618
1356.48611	0.03535
1355.20034	0.03462
1353.91457	0.03392
1352.62881	0.03323
1351.34304	0.03252
1350.05727	0.03180
1348.77150	0.03110
1347.48573	0.03045
1346.19996	0.02987
1344.91419	0.02936
1343.62842	0.02892
1342.34266	0.02855
1341.05689	0.02825
1339.77112	0.02796
1338.48535	0.02764
1337.19958	0.02725
1335.91381	0.02681
1334.62804	0.02637
1333.34227	0.02600
1332.05650	0.02571
1330.77074	0.02550
1329.48497	0.02531
1328.19920	0.02513
1326.91343	0.02497
1325.62766	0.02483
1324.34189	0.02470
1323.05612	0.02457
1321.77035	0.02441
1320.48459	0.02422
1319.19882	0.02402
1317.91305	0.02383
1316.62728	0.02366
1315.34151	0.02350
1314.05574	0.02333
1312.76997	0.02312
1311.48420	0.02289
1310.19843	0.02270
1308.91267	0.02258
1307.62690	0.02253
1306.34113	0.02250
1305.05536	0.02241
1303.76959	0.02221
1302.48382	0.02193
1301.19805	0.02164
1299.91228	0.02141
1298.62652	0.02127
1297.34075	0.02120
1296.05498	0.02114
1294.76921	0.02109
1293.48344	0.02103
1292.19767	0.02099
1290.91190	0.02095
1289.62613	0.02090
1288.34036	0.02082
1287.05460	0.02072
1285.76883	0.02062
1284.48306	0.02052
1283.19729	0.02043
1281.91152	0.02033
1280.62575	0.02022
1279.33998	0.02013
1278.05421	0.02008
1276.76845	0.02008
1275.48268	0.02012
1274.19691	0.02019
1272.91114	0.02029
1271.62537	0.02048
1270.33960	0.02088
1269.05383	0.02154
1267.76806	0.02244
1266.48229	0.02350
1265.19653	0.02459
1263.91076	0.02554
1262.62499	0.02620
1261.33922	0.02642
1260.05345	0.02614
1258.76768	0.02541
1257.48191	0.02439
1256.19614	0.02327
1254.91037	0.02223
1253.62461	0.02135
1252.33884	0.02063
1251.05307	0.02005
1249.76730	0.01957
1248.48153	0.01919
1247.19576	0.01889
1245.90999	0.01865
1244.62422	0.01844
1243.33846	0.01822
1242.05269	0.01802
1240.76692	0.01786
1239.48115	0.01774
1238.19538	0.01768
1236.90961	0.01764
1235.62384	0.01762
1234.33807	0.01759
1233.05230	0.01753
1231.76654	0.01744
1230.48077	0.01733
1229.19500	0.01720
1227.90923	0.01706
1226.62346	0.01695
1225.33769	0.01688
1224.05192	0.01685
1222.76615	0.01684
1221.48039	0.01681
1220.19462	0.01677
1218.90885	0.01675
1217.62308	0.01677
1216.33731	0.01682
1215.05154	0.01685
1213.76577	0.01682
1212.48000	0.01671
1211.19423	0.01659
1209.90847	0.01650
1208.62270	0.01647
1207.33693	0.01649
1206.05116	0.01654
1204.76539	0.01661
1203.47962	0.01668
1202.19385	0.01675
1200.90808	0.01674
1199.62232	0.01663
1198.33655	0.01657
1197.05078	0.01653
1195.76501	0.01656
1194.47924	0.01665
1193.19347	0.01672
1191.90770	0.01670
1190.62193	0.01659
1189.33616	0.01649
1188.05040	0.01649
1186.76463	0.01659
1185.47886	0.01671
1184.19309	0.01678
1182.90732	0.01680
1181.62155	0.01681
1180.33578	0.01682
1179.05001	0.01689
1177.76425	0.01702
1176.47848	0.01720
1175.19271	0.01737
1173.90694	0.01750
1172.62117	0.01761
1171.33540	0.01779
1170.04963	0.01806
1168.76386	0.01837
1167.47809	0.01866
1166.19233	0.01891
1164.90656	0.01918
1163.62079	0.01949
1162.33502	0.01982
1161.04925	0.02015
1159.76348	0.02050
1158.47771	0.02084
1157.19194	0.02119
1155.90618	0.02156
1154.62041	0.02199
1153.33464	0.02247
1152.04887	0.02300
1150.76310	0.02354
1149.47733	0.02416
1148.19156	0.02489
1146.90579	0.02576
1145.62002	0.02670
1144.33426	0.02771
1143.04849	0.02879
1141.76272	0.02993
1140.47695	0.03110
1139.19118	0.03233
1137.90541	0.03367
1136.61964	0.03518
1135.33387	0.03689
1134.04811	0.03877
1132.76234	0.04080
1131.47657	0.04299
1130.19080	0.04539
1128.90503	0.04811
1127.61926	0.05121
1126.33349	0.05464
1125.04772	0.05826
1123.76195	0.06193
1122.47619	0.06566
1121.19042	0.06953
1119.90465	0.07356
1118.61888	0.07768
1117.33311	0.08179
1116.04734	0.08585
1114.76157	0.08986
1113.47580	0.09384
1112.19004	0.09777
1110.90427	0.10165
1109.61850	0.10553
1108.33273	0.10943
1107.04696	0.11330
1105.76119	0.11706
1104.47542	0.12068
1103.18965	0.12423
1101.90388	0.12773
1100.61812	0.13119
1099.33235	0.13454
1098.04658	0.13776
1096.76081	0.14081
1095.47504	0.14363
1094.18927	0.14622
1092.90350	0.14858
1091.61773	0.15080
1090.33197	0.15294
1089.04620	0.15502
1087.76043	0.15703
1086.47466	0.15899
1085.18889	0.16102
1083.90312	0.16320
1082.61735	0.16557
1081.33158	0.16811
1080.04581	0.17082
1078.76005	0.17375
1077.47428	0.17688
1076.18851	0.18019
1074.90274	0.18367
1073.61697	0.18731
1072.33120	0.19110
1071.04543	0.19500
1069.75966	0.19896
1068.47390	0.20298
1067.18813	0.20707
1065.90236	0.21128
1064.61659	0.21563
1063.33082	0.22011
1062.04505	0.22463
1060.75928	0.22906
1059.47351	0.23335
1058.18774	0.23757
1056.90198	0.24177
1055.61621	0.24600
1054.33044	0.25028
1053.04467	0.25458
1051.75890	0.25893
1050.47313	0.26340
1049.18736	0.26807
1047.90159	0.27300
1046.61583	0.27815
1045.33006	0.28345
1044.04429	0.28889
1042.75852	0.29452
1041.47275	0.30033
1040.18698	0.30625
1038.90121	0.31217
1037.61544	0.31803
1036.32967	0.32384
1035.04391	0.32957
1033.75814	0.33515
1032.47237	0.34044
1031.18660	0.34535
1029.90083	0.34983
1028.61506	0.35385
1027.32929	0.35733
1026.04352	0.36022
1024.75775	0.36249
1023.47199	0.36416
1022.18622	0.36526
1020.90045	0.36574
1019.61468	0.36552
1018.32891	0.36458
1017.04314	0.36301
1015.75737	0.36083
1014.47160	0.35799
1013.18584	0.35443
1011.90007	0.35015
1010.61430	0.34515
1009.32853	0.33941
1008.04276	0.33292
1006.75699	0.32572
1005.47122	0.31794
1004.18545	0.30966
1002.89968	0.30092
1001.61392	0.29174
1000.32815	0.28221
999.04238	0.27239
997.75661	0.26233
996.47084	0.25204
995.18507	0.24157
993.89930	0.23105
992.61353	0.22067
991.32777	0.21060
990.04200	0.20095
988.75623	0.19173
987.47046	0.18295
986.18469	0.17460
984.89892	0.16670
983.61315	0.15925
982.32738	0.15228
981.04161	0.14580
979.75585	0.13981
978.47008	0.13430
977.18431	0.12929
975.89854	0.12484
974.61277	0.12101
973.32700	0.11785
972.04123	0.11544
970.75546	0.11384
969.46970	0.11307
968.18393	0.11308
966.89816	0.11369
965.61239	0.11472
964.32662	0.11595
963.04085	0.11711
961.75508	0.11785
960.46931	0.11783
959.18354	0.11682
957.89778	0.11480
956.61201	0.11196
955.32624	0.10857
954.04047	0.10497
952.75470	0.10136
951.46893	0.09784
950.18316	0.09443
948.89739	0.09113
947.61163	0.08799
946.32586	0.08501
945.04009	0.08218
943.75432	0.07949
942.46855	0.07698
941.18278	0.07470
939.89701	0.07266
938.61124	0.07078
937.32547	0.06894
936.03971	0.06711
934.75394	0.06534
933.46817	0.06377
932.18240	0.06243
930.89663	0.06132
929.61086	0.06032
928.32509	0.05934
927.03932	0.05837
925.75356	0.05742
924.46779	0.05657
923.18202	0.05584
921.89625	0.05521
920.61048	0.05461
919.32471	0.05402
918.03894	0.05344
916.75317	0.05289
915.46740	0.05238
914.18164	0.05189
912.89587	0.05141
911.61010	0.05095
910.32433	0.05050
909.03856	0.05007
907.75279	0.04968
906.46702	0.04935
905.18125	0.04902
903.89549	0.04865
902.60972	0.04825
901.32395	0.04787
900.03818	0.04754
898.75241	0.04726
897.46664	0.04701
896.18087	0.04682
894.89510	0.04667
893.60933	0.04658
892.32357	0.04656
891.03780	0.04669
889.75203	0.04703
888.46626	0.04762
887.18049	0.04849
885.89472	0.04979
884.60895	0.05173
883.32318	0.05441
882.03742	0.05759
880.75165	0.06069
879.46588	0.06316
878.18011	0.06484
876.89434	0.06609
875.60857	0.06739
874.32280	0.06885
873.03703	0.07011
871.75126	0.07069
870.46550	0.07035
869.17973	0.06916
867.89396	0.06736
866.60819	0.06521
865.32242	0.06292
864.03665	0.06064
862.75088	0.05847
861.46511	0.05647
860.17935	0.05469
858.89358	0.05316
857.60781	0.05185
856.32204	0.05069
855.03627	0.04966
853.75050	0.04876
852.46473	0.04801
851.17896	0.04742
849.89319	0.04697
848.60743	0.04660
847.32166	0.04628
846.03589	0.04599
844.75012	0.04571
843.46435	0.04545
842.17858	0.04519
840.89281	0.04490
839.60704	0.04460
838.32128	0.04435
837.03551	0.04418
835.74974	0.04412
834.46397	0.04417
833.17820	0.04429
831.89243	0.04439
830.60666	0.04443
829.32089	0.04447
828.03512	0.04461
826.74936	0.04492
825.46359	0.04535
824.17782	0.04580
822.89205	0.04622
821.60628	0.04665
820.32051	0.04712
819.03474	0.04763
817.74897	0.04814
816.46321	0.04860
815.17744	0.04899
813.89167	0.04933
812.60590	0.04967
811.32013	0.05008
810.03436	0.05059
808.74859	0.05117
807.46282	0.05176
806.17705	0.05230
804.89129	0.05272
803.60552	0.05296
802.31975	0.05299
801.03398	0.05284
799.74821	0.05257
798.46244	0.05222
797.17667	0.05180
795.89090	0.05135
794.60513	0.05087
793.31937	0.05038
792.03360	0.04984
790.74783	0.04922
789.46206	0.04855
788.17629	0.04785
786.89052	0.04715
785.60475	0.04642
784.31898	0.04567
783.03322	0.04496
781.74745	0.04435
780.46168	0.04385
779.17591	0.04345
777.89014	0.04317
776.60437	0.04302
775.31860	0.04296
774.03283	0.04291
772.74706	0.04284
771.46130	0.04275
770.17553	0.04268
768.88976	0.04261
767.60399	0.04250
766.31822	0.04233
765.03245	0.04217
763.74668	0.04209
762.46091	0.04207
761.17515	0.04210
759.88938	0.04219
758.60361	0.04236
757.31784	0.04258
756.03207	0.04270
754.74630	0.04266
753.46053	0.04252
752.17476	0.04242
750.88899	0.04240
749.60323	0.04239
748.31746	0.04229
747.03169	0.04210
745.74592	0.04188
744.46015	0.04168
743.17438	0.04150
741.88861	0.04131
740.60284	0.04113
739.31708	0.04102
738.03131	0.04100
736.74554	0.04106
735.45977	0.04111
734.17400	0.04112
732.88823	0.04116
731.60246	0.04129
730.31669	0.04148
729.03092	0.04163
727.74516	0.04165
726.45939	0.04157
725.17362	0.04148
723.88785	0.04140
722.60208	0.04135
721.31631	0.04137
720.03054	0.04139
718.74477	0.04136
717.45901	0.04138
716.17324	0.04140
714.88747	0.04136
713.60170	0.04129
712.31593	0.04123
711.03016	0.04122
709.74439	0.04126
708.45862	0.04130
707.17285	0.04131
705.88709	0.04127
704.60132	0.04122
703.31555	0.04118
702.02978	0.04116
700.74401	0.04112
699.45824	0.04104
698.17247	0.04092
696.88670	0.04078
695.60094	0.04064
694.31517	0.04052
693.02940	0.04042
691.74363	0.04035
690.45786	0.04029
689.17209	0.04025
687.88632	0.04024
686.60055	0.04024
685.31478	0.04022
684.02902	0.04013
682.74325	0.03996
681.45748	0.03977
680.17171	0.03964
678.88594	0.03961
677.60017	0.03969
676.31440	0.03980
675.02863	0.03984
673.74287	0.03968
672.45710	0.03923
671.17133	0.03881
669.88556	0.03927
668.59979	0.04062
667.31402	0.04070
666.02825	0.03976
664.74248	0.03952
663.45671	0.03965
662.17095	0.03960
660.88518	0.03943
659.59941	0.03927
658.31364	0.03917
657.02787	0.03910
655.74210	0.03903
654.45633	0.03894
653.17056	0.03884
651.88480	0.03877
650.59903	0.03878
649.31326	0.03890
648.02749	0.03909
646.74172	0.03932
645.45595	0.03956
644.17018	0.03980
642.88441	0.04007
641.59864	0.04039
640.31288	0.04075
639.02711	0.04112
637.74134	0.04148
636.45557	0.04184
635.16980	0.04226
633.88403	0.04278
632.59826	0.04349
631.31249	0.04456
630.02673	0.04609
628.74096	0.04735
627.45519	0.04740
626.16942	0.04945
624.88365	0.05298
623.59788	0.05691
622.31211	0.06072
621.02634	0.06414
619.74057	0.06725
618.45481	0.07035
617.16904	0.07361
615.88327	0.07703
614.59750	0.08069
613.31173	0.08480
612.02596	0.08967
610.74019	0.09558
609.45442	0.10223
608.16866	0.10873
606.88289	0.11457
605.59712	0.11999
604.31135	0.12497
603.02558	0.12874
601.73981	0.13038
600.45404	0.12965
599.16827	0.12696
597.88250	0.12305
596.59674	0.11867
595.31097	0.11439
594.02520	0.11049
592.73943	0.10713
591.45366	0.10450
590.16789	0.10281
588.88212	0.10221
587.59635	0.10260
586.31059	0.10376
585.02482	0.10547
583.73905	0.10762
582.45328	0.11019
581.16751	0.11318
579.88174	0.11660
578.59597	0.12037
577.31020	0.12433
576.02443	0.12824
574.73867	0.13196
573.45290	0.13551
572.16713	0.13910
570.88136	0.14304
569.59559	0.14761
568.30982	0.15283
567.02405	0.15846
565.73828	0.16406
564.45251	0.16914
563.16675	0.17312
561.88098	0.17543
560.59521	0.17559
559.30944	0.17335
558.02367	0.16871
556.73790	0.16190
555.45213	0.15349
554.16636	0.14436
552.88060	0.13540
551.59483	0.12717
550.30906	0.11974
549.02329	0.11301
547.73752	0.10692
546.45175	0.10155
545.16598	0.09689
543.88021	0.09269
542.59444	0.08865
541.30868	0.08464
540.02291	0.08081
538.73714	0.07738
537.45137	0.07436
536.16560	0.07166
534.87983	0.06917
533.59406	0.06689
532.30829	0.06484
531.02253	0.06301
529.73676	0.06134
528.45099	0.05976
527.16522	0.05823
525.87945	0.05672
524.59368	0.05527
523.30791	0.05394
522.02214	0.05274
520.73637	0.05169
519.45061	0.05074
518.16484	0.04981
516.87907	0.04882
515.59330	0.04777
514.30753	0.04674
513.02176	0.04579
511.73599	0.04487
510.45022	0.04396
509.16446	0.04309
507.87869	0.04237
506.59292	0.04182
505.30715	0.04139
504.02138	0.04095
502.73561	0.04040
501.44984	0.03976
500.16407	0.03913
498.87830	0.03860
497.59254	0.03820
496.30677	0.03786
495.02100	0.03752
493.73523	0.03717
492.44946	0.03688
491.16369	0.03671
489.87792	0.03663
488.59215	0.03654
487.30639	0.03638
486.02062	0.03619
484.73485	0.03607
483.44908	0.03607
482.16331	0.03612
480.87754	0.03618
479.59177	0.03621
478.30600	0.03626
477.02023	0.03637
475.73447	0.03656
474.44870	0.03681
473.16293	0.03705
471.87716	0.03720
470.59139	0.03721
469.30562	0.03711
468.01985	0.03692
466.73408	0.03667
465.44832	0.03637
464.16255	0.03601
462.87678	0.03562
461.59101	0.03528
460.30524	0.03500
459.01947	0.03469
457.73370	0.03427
456.44793	0.03377
455.16216	0.03334
453.87640	0.03308
452.59063	0.03292
451.30486	0.03276
450.01909	0.03253
448.73332	0.03226
447.44755	0.03199
446.16178	0.03178
444.87601	0.03169
443.59025	0.03166
442.30448	0.03163
441.01871	0.03154
439.73294	0.03144
438.44717	0.03138
437.16140	0.03135
435.87563	0.03128
434.58986	0.03112
433.30409	0.03092
432.01833	0.03080
430.73256	0.03080
429.44679	0.03086
428.16102	0.03090
426.87525	0.03087
425.58948	0.03080
424.30371	0.03073
423.01794	0.03065
421.73218	0.03059
420.44641	0.03056
419.16064	0.03056
417.87487	0.03053
416.58910	0.03046
415.30333	0.03039
414.01756	0.03037
412.73179	0.03043
411.44602	0.03054
410.16026	0.03072
408.87449	0.03094
407.58872	0.03121
406.30295	0.03147
405.01718	0.03166
403.73141	0.03178
402.44564	0.03184
401.15987	0.03192
399.87411	0.03202
