3997.45528	0.02501
3996.16951	0.02488
3994.88374	0.02443
3993.59798	0.02390
3992.31221	0.02376
3991.02644	0.02414
3989.74067	0.02478
3988.45490	0.02533
3987.16913	0.02569
3985.88336	0.02589
3984.59759	0.02591
3983.31183	0.02569
3982.02606	0.02531
3980.74029	0.02500
3979.45452	0.02495
3978.16875	0.02520
3976.88298	0.02560
3975.59721	0.02597
3974.31144	0.02616
3973.02567	0.02619
3971.73991	0.02615
3970.45414	0.02607
3969.16837	0.02587
3967.88260	0.02558
3966.59683	0.02532
3965.31106	0.02522
3964.02529	0.02523
3962.73952	0.02513
3961.45376	0.02476
3960.16799	0.02413
3958.88222	0.02342
3957.59645	0.02285
3956.31068	0.02256
3955.02491	0.02263
3953.73914	0.02315
3952.45337	0.02403
3951.16760	0.02492
3949.88184	0.02530
3948.59607	0.02490
3947.31030	0.02400
3946.02453	0.02318
3944.73876	0.02285
3943.45299	0.02297
3942.16722	0.02330
3940.88145	0.02365
3939.59569	0.02393
3938.30992	0.02401
3937.02415	0.02387
3935.73838	0.02366
3934.45261	0.02366
3933.16684	0.02394
3931.88107	0.02427
3930.59530	0.02448
3929.30953	0.02464
3928.02377	0.02486
3926.73800	0.02501
3925.45223	0.02478
3924.16646	0.02416
3922.88069	0.02354
3921.59492	0.02323
3920.30915	0.02322
3919.02338	0.02330
3917.73762	0.02332
3916.45185	0.02328
3915.16608	0.02329
3913.88031	0.02346
3912.59454	0.02369
3911.30877	0.02365
3910.02300	0.02312
3908.73723	0.02241
3907.45146	0.02211
3906.16570	0.02251
3904.87993	0.02332
3903.59416	0.02414
3902.30839	0.02487
3901.02262	0.02552
3899.73685	0.02590
3898.45108	0.02567
3897.16531	0.02481
3895.87955	0.02369
3894.59378	0.02288
3893.30801	0.02272
3892.02224	0.02312
3890.73647	0.02353
3889.45070	0.02353
3888.16493	0.02320
3886.87916	0.02300
3885.59339	0.02319
3884.30763	0.02371
3883.02186	0.02422
3881.73609	0.02439
3880.45032	0.02417
3879.16455	0.02383
3877.87878	0.02368
3876.59301	0.02373
3875.30724	0.02383
3874.02148	0.02392
3872.73571	0.02402
3871.44994	0.02408
3870.16417	0.02390
3868.87840	0.02348
3867.59263	0.02316
3866.30686	0.02313
3865.02109	0.02317
3863.73532	0.02300
3862.44956	0.02271
3861.16379	0.02254
3859.87802	0.02257
3858.59225	0.02279
3857.30648	0.02322
3856.02071	0.02386
3854.73494	0.02447
3853.44917	0.02467
3852.16341	0.02448
3850.87764	0.02437
3849.59187	0.02455
3848.30610	0.02474
3847.02033	0.02466
3845.73456	0.02434
3844.44879	0.02401
3843.16302	0.02374
3841.87725	0.02339
3840.59149	0.02290
3839.30572	0.02240
3838.01995	0.02209
3836.73418	0.02207
3835.44841	0.02237
3834.16264	0.02297
3832.87687	0.02373
3831.59110	0.02435
3830.30534	0.02455
3829.01957	0.02421
3827.73380	0.02351
3826.44803	0.02275
3825.16226	0.02234
3823.87649	0.02258
3822.59072	0.02336
3821.30495	0.02413
3820.01918	0.02444
3818.73342	0.02439
3817.44765	0.02423
3816.16188	0.02384
3814.87611	0.02315
3813.59034	0.02252
3812.30457	0.02231
3811.01880	0.02245
3809.73303	0.02268
3808.44726	0.02284
3807.16150	0.02283
3805.87573	0.02272
3804.58996	0.02282
3803.30419	0.02335
3802.01842	0.02396
3800.73265	0.02416
3799.44688	0.02391
3798.16111	0.02361
3796.87535	0.02346
3795.58958	0.02332
3794.30381	0.02308
3793.01804	0.02276
3791.73227	0.02241
3790.44650	0.02217
3789.16073	0.02218
3787.87496	0.02244
3786.58919	0.02275
3785.30343	0.02283
3784.01766	0.02260
3782.73189	0.02234
3781.44612	0.02237
3780.16035	0.02267
3778.87458	0.02299
3777.58881	0.02325
3776.30304	0.02352
3775.01728	0.02375
3773.73151	0.02377
3772.44574	0.02358
3771.15997	0.02333
3769.87420	0.02310
3768.58843	0.02285
3767.30266	0.02249
3766.01689	0.02198
3764.73112	0.02146
3763.44536	0.02125
3762.15959	0.02157
3760.87382	0.02216
3759.58805	0.02244
3758.30228	0.02208
3757.01651	0.02130
3755.73074	0.02058
3754.44497	0.02030
3753.15921	0.02049
3751.87344	0.02093
3750.58767	0.02144
3749.30190	0.02182
3748.01613	0.02200
3746.73036	0.02203
3745.44459	0.02186
3744.15882	0.02134
3742.87305	0.02076
3741.58729	0.02069
3740.30152	0.02122
3739.01575	0.02199
3737.72998	0.02273
3736.44421	0.02331
3735.15844	0.02372
3733.87267	0.02404
3732.58690	0.02426
3731.30114	0.02411
3730.01537	0.02343
3728.72960	0.02246
3727.44383	0.02157
3726.15806	0.02092
3724.87229	0.02047
3723.58652	0.02017
3722.30075	0.01999
3721.01498	0.01992
3719.72922	0.01996
3718.44345	0.02017
3717.15768	0.02059
3715.87191	0.02113
3714.58614	0.02161
3713.30037	0.02183
3712.01460	0.02176
3710.72883	0.02160
3709.44307	0.02155
3708.15730	0.02150
3706.87153	0.02115
3705.58576	0.02044
3704.29999	0.01979
3703.01422	0.01983
3701.72845	0.02062
3700.44268	0.02149
3699.15691	0.02171
3697.87115	0.02125
3696.58538	0.02068
3695.29961	0.02043
3694.01384	0.02051
3692.72807	0.02076
3691.44230	0.02110
3690.15653	0.02146
3688.87076	0.02165
3687.58500	0.02146
3686.29923	0.02109
3685.01346	0.02098
3683.72769	0.02136
3682.44192	0.02209
3681.15615	0.02285
3679.87038	0.02323
3678.58461	0.02308
3677.29884	0.02258
3676.01308	0.02204
3674.72731	0.02169
3673.44154	0.02182
3672.15577	0.02255
3670.87000	0.02351
3669.58423	0.02402
3668.29846	0.02379
3667.01269	0.02305
3665.72693	0.02221
3664.44116	0.02153
3663.15539	0.02105
3661.86962	0.02069
3660.58385	0.02050
3659.29808	0.02053
3658.01231	0.02069
3656.72654	0.02079
3655.44077	0.02076
3654.15501	0.02079
3652.86924	0.02106
3651.58347	0.02147
3650.29770	0.02171
3649.01193	0.02164
3647.72616	0.02138
3646.44039	0.02118
3645.15462	0.02123
3643.86886	0.02157
3642.58309	0.02219
3641.29732	0.02287
3640.01155	0.02330
3638.72578	0.02324
3637.44001	0.02277
3636.15424	0.02218
3634.86847	0.02173
3633.58270	0.02155
3632.29694	0.02174
3631.01117	0.02237
3629.72540	0.02316
3628.43963	0.02366
3627.15386	0.02364
3625.86809	0.02339
3624.58232	0.02324
3623.29655	0.02334
3622.01079	0.02358
3620.72502	0.02385
3619.43925	0.02403
3618.15348	0.02404
3616.86771	0.02372
3615.58194	0.02306
3614.29617	0.02231
3613.01040	0.02197
3611.72463	0.02239
3610.43887	0.02348
3609.15310	0.02474
3607.86733	0.02563
3606.58156	0.02591
3605.29579	0.02570
3604.01002	0.02530
3602.72425	0.02499
3601.43848	0.02488
3600.15272	0.02486
3598.86695	0.02473
3597.58118	0.02440
3596.29541	0.02403
3595.00964	0.02394
3593.72387	0.02430
3592.43810	0.02502
3591.15233	0.02582
3589.86656	0.02639
3588.58080	0.02642
3587.29503	0.02573
3586.00926	0.02450
3584.72349	0.02331
3583.43772	0.02277
3582.15195	0.02300
3580.86618	0.02373
3579.58041	0.02461
3578.29464	0.02540
3577.00888	0.02588
3575.72311	0.02594
3574.43734	0.02572
3573.15157	0.02557
3571.86580	0.02572
3570.58003	0.02612
3569.29426	0.02658
3568.00849	0.02696
3566.72273	0.02719
3565.43696	0.02714
3564.15119	0.02672
3562.86542	0.02605
3561.57965	0.02554
3560.29388	0.02558
3559.00811	0.02616
3557.72234	0.02682
3556.43657	0.02704
3555.15081	0.02665
3553.86504	0.02593
3552.57927	0.02529
3551.29350	0.02499
3550.00773	0.02509
3548.72196	0.02554
3547.43619	0.02630
3546.15042	0.02716
3544.86466	0.02787
3543.57889	0.02825
3542.29312	0.02841
3541.00735	0.02860
3539.72158	0.02891
3538.43581	0.02919
3537.15004	0.02926
3535.86427	0.02912
3534.57850	0.02898
3533.29274	0.02902
3532.00697	0.02920
3530.72120	0.02934
3529.43543	0.02927
3528.14966	0.02900
3526.86389	0.02861
3525.57812	0.02814
3524.29235	0.02776
3523.00659	0.02766
3521.72082	0.02790
3520.43505	0.02823
3519.14928	0.02825
3517.86351	0.02783
3516.57774	0.02723
3515.29197	0.02690
3514.00620	0.02708
3512.72043	0.02765
3511.43467	0.02818
3510.14890	0.02832
3508.86313	0.02809
3507.57736	0.02788
3506.29159	0.02805
3505.00582	0.02865
3503.72005	0.02933
3502.43428	0.02971
3501.14852	0.02968
3499.86275	0.02948
3498.57698	0.02947
3497.29121	0.02985
3496.00544	0.03052
3494.71967	0.03117
3493.43390	0.03155
3492.14813	0.03161
3490.86236	0.03152
3489.57660	0.03145
3488.29083	0.03141
3487.00506	0.03127
3485.71929	0.03092
3484.43352	0.03040
3483.14775	0.02992
3481.86198	0.02969
3480.57621	0.02973
3479.29045	0.02994
3478.00468	0.03022
3476.71891	0.03053
3475.43314	0.03091
3474.14737	0.03124
3472.86160	0.03135
3471.57583	0.03119
3470.29006	0.03095
3469.00429	0.03093
3467.71853	0.03128
3466.43276	0.03180
3465.14699	0.03209
3463.86122	0.03191
3462.57545	0.03138
3461.28968	0.03089
3460.00391	0.03073
3458.71814	0.03085
3457.43238	0.03098
3456.14661	0.03083
3454.86084	0.03041
3453.57507	0.02994
3452.28930	0.02979
3451.00353	0.03018
3449.71776	0.03102
3448.43199	0.03201
3447.14622	0.03284
3445.86046	0.03335
3444.57469	0.03354
3443.28892	0.03347
3442.00315	0.03327
3440.71738	0.03310
3439.43161	0.03299
3438.14584	0.03283
3436.86007	0.03247
3435.57431	0.03194
3434.28854	0.03152
3433.00277	0.03142
3431.71700	0.03164
3430.43123	0.03192
3429.14546	0.03205
3427.85969	0.03206
3426.57392	0.03209
3425.28815	0.03223
3424.00239	0.03237
3422.71662	0.03231
3421.43085	0.03198
3420.14508	0.03155
3418.85931	0.03135
3417.57354	0.03159
3416.28777	0.03217
3415.00200	0.03279
3413.71624	0.03320
3412.43047	0.03327
3411.14470	0.03303
3409.85893	0.03256
3408.57316	0.03201
3407.28739	0.03161
3406.00162	0.03156
3404.71585	0.03189
3403.43008	0.03247
3402.14432	0.03309
3400.85855	0.03364
3399.57278	0.03401
3398.28701	0.03412
3397.00124	0.03392
3395.71547	0.03357
3394.42970	0.03338
3393.14393	0.03359
3391.85817	0.03412
3390.57240	0.03462
3389.28663	0.03475
3388.00086	0.03446
3386.71509	0.03401
3385.42932	0.03367
3384.14355	0.03355
3382.85778	0.03364
3381.57201	0.03393
3380.28625	0.03434
3379.00048	0.03474
3377.71471	0.03496
3376.42894	0.03486
3375.14317	0.03442
3373.85740	0.03381
3372.57163	0.03331
3371.28586	0.03321
3370.00010	0.03355
3368.71433	0.03411
3367.42856	0.03460
3366.14279	0.03485
3364.85702	0.03483
3363.57125	0.03458
3362.28548	0.03416
3360.99971	0.03370
3359.71394	0.03333
3358.42818	0.03316
3357.14241	0.03325
3355.85664	0.03353
3354.57087	0.03385
3353.28510	0.03402
3351.99933	0.03399
3350.71356	0.03380
3349.42779	0.03351
3348.14202	0.03323
3346.85626	0.03304
3345.57049	0.03300
3344.28472	0.03305
3342.99895	0.03312
3341.71318	0.03315
3340.42741	0.03306
3339.14164	0.03286
3337.85587	0.03266
3336.57011	0.03263
3335.28434	0.03286
3333.99857	0.03325
3332.71280	0.03364
3331.42703	0.03391
3330.14126	0.03404
3328.85549	0.03397
3327.56972	0.03363
3326.28395	0.03309
3324.99819	0.03264
3323.71242	0.03253
3322.42665	0.03274
3321.14088	0.03310
3319.85511	0.03345
3318.56934	0.03376
3317.28357	0.03407
3315.99780	0.03433
3314.71204	0.03439
3313.42627	0.03414
3312.14050	0.03372
3310.85473	0.03349
3309.56896	0.03364
3308.28319	0.03403
3306.99742	0.03429
3305.71165	0.03421
3304.42588	0.03385
3303.14012	0.03349
3301.85435	0.03345
3300.56858	0.03376
3299.28281	0.03413
3297.99704	0.03415
3296.71127	0.03371
3295.42550	0.03308
3294.13973	0.03264
3292.85397	0.03258
3291.56820	0.03286
3290.28243	0.03328
3288.99666	0.03370
3287.71089	0.03405
3286.42512	0.03421
3285.13935	0.03412
3283.85358	0.03377
3282.56781	0.03327
3281.28205	0.03283
3279.99628	0.03262
3278.71051	0.03272
3277.42474	0.03304
3276.13897	0.03338
3274.85320	0.03358
3273.56743	0.03351
3272.28166	0.03321
3270.99590	0.03281
3269.71013	0.03254
3268.42436	0.03251
3267.13859	0.03262
3265.85282	0.03272
3264.56705	0.03278
3263.28128	0.03285
3261.99551	0.03296
3260.70974	0.03307
3259.42398	0.03315
3258.13821	0.03322
3256.85244	0.03327
3255.56667	0.03322
3254.28090	0.03302
3252.99513	0.03278
3251.70936	0.03268
3250.42359	0.03278
3249.13783	0.03290
3247.85206	0.03286
3246.56629	0.03263
3245.28052	0.03243
3243.99475	0.03240
3242.70898	0.03249
3241.42321	0.03258
3240.13744	0.03259
3238.85167	0.03259
3237.56591	0.03264
3236.28014	0.03275
3234.99437	0.03279
3233.70860	0.03261
3232.42283	0.03214
3231.13706	0.03160
3229.85129	0.03134
3228.56552	0.03155
3227.27976	0.03201
3225.99399	0.03241
3224.70822	0.03259
3223.42245	0.03263
3222.13668	0.03261
3220.85091	0.03250
3219.56514	0.03215
3218.27937	0.03156
3216.99360	0.03092
3215.70784	0.03050
3214.42207	0.03044
3213.13630	0.03058
3211.85053	0.03069
3210.56476	0.03072
3209.27899	0.03077
3207.99322	0.03090
3206.70745	0.03108
3205.42169	0.03126
3204.13592	0.03143
3202.85015	0.03164
3201.56438	0.03193
3200.27861	0.03224
3198.99284	0.03243
3197.70707	0.03237
3196.42130	0.03208
3195.13553	0.03168
3193.84977	0.03125
3192.56400	0.03081
3191.27823	0.03041
3189.99246	0.03014
3188.70669	0.03009
3187.42092	0.03024
3186.13515	0.03040
3184.84938	0.03040
3183.56362	0.03031
3182.27785	0.03040
3180.99208	0.03078
3179.70631	0.03129
3178.42054	0.03158
3177.13477	0.03141
3175.84900	0.03086
3174.56323	0.03024
3173.27746	0.02987
3171.99170	0.02984
3170.70593	0.03003
3169.42016	0.03027
3168.13439	0.03046
3166.84862	0.03056
3165.56285	0.03059
3164.27708	0.03058
3162.99131	0.03062
3161.70555	0.03076
3160.41978	0.03093
3159.13401	0.03101
3157.84824	0.03090
3156.56247	0.03060
3155.27670	0.03026
3153.99093	0.03000
3152.70516	0.02989
3151.41939	0.02989
3150.13363	0.02986
3148.84786	0.02970
3147.56209	0.02947
3146.27632	0.02934
3144.99055	0.02947
3143.70478	0.02983
3142.41901	0.03018
3141.13324	0.03028
3139.84748	0.03009
3138.56171	0.02975
3137.27594	0.02944
3135.99017	0.02925
3134.70440	0.02921
3133.41863	0.02931
3132.13286	0.02954
3130.84709	0.02985
3129.56132	0.03012
3128.27556	0.03026
3126.98979	0.03025
3125.70402	0.03011
3124.41825	0.02991
3123.13248	0.02973
3121.84671	0.02965
3120.56094	0.02965
3119.27517	0.02963
3117.98940	0.02952
3116.70364	0.02935
3115.41787	0.02921
3114.13210	0.02907
3112.84633	0.02885
3111.56056	0.02850
3110.27479	0.02802
3108.98902	0.02750
3107.70325	0.02717
3106.41749	0.02721
3105.13172	0.02759
3103.84595	0.02807
3102.56018	0.02838
3101.27441	0.02851
3099.98864	0.02859
3098.70287	0.02874
3097.41710	0.02890
3096.13133	0.02900
3094.84557	0.02901
3093.55980	0.02897
3092.27403	0.02888
3090.98826	0.02870
3089.70249	0.02849
3088.41672	0.02833
3087.13095	0.02828
3085.84518	0.02830
3084.55942	0.02833
3083.27365	0.02838
3081.98788	0.02849
3080.70211	0.02865
3079.41634	0.02884
3078.13057	0.02898
3076.84480	0.02902
3075.55903	0.02891
3074.27326	0.02866
3072.98750	0.02833
3071.70173	0.02805
3070.41596	0.02796
3069.13019	0.02809
3067.84442	0.02828
3066.55865	0.02830
3065.27288	0.02808
3063.98711	0.02778
3062.70135	0.02757
3061.41558	0.02749
3060.12981	0.02743
3058.84404	0.02727
3057.55827	0.02699
3056.27250	0.02664
3054.98673	0.02641
3053.70096	0.02651
3052.41519	0.02699
3051.12943	0.02766
3049.84366	0.02818
3048.55789	0.02833
3047.27212	0.02810
3045.98635	0.02772
3044.70058	0.02745
3043.41481	0.02740
3042.12904	0.02751
3040.84328	0.02764
3039.55751	0.02771
3038.27174	0.02772
3036.98597	0.02765
3035.70020	0.02744
3034.41443	0.02717
3033.12866	0.02698
3031.84289	0.02700
3030.55712	0.02718
3029.27136	0.02738
3027.98559	0.02747
3026.69982	0.02744
3025.41405	0.02736
3024.12828	0.02724
3022.84251	0.02708
3021.55674	0.02690
3020.27097	0.02679
3018.98521	0.02682
3017.69944	0.02689
3016.41367	0.02686
3015.12790	0.02673
3013.84213	0.02665
3012.55636	0.02672
3011.27059	0.02684
3009.98482	0.02681
3008.69905	0.02655
3007.41329	0.02619
3006.12752	0.02589
3004.84175	0.02576
3003.55598	0.02579
3002.27021	0.02589
3000.98444	0.02600
2999.69867	0.02617
2998.41290	0.02643
2997.12714	0.02671
2995.84137	0.02685
2994.55560	0.02679
2993.26983	0.02664
2991.98406	0.02648
2990.69829	0.02635
2989.41252	0.02625
2988.12675	0.02619
2986.84098	0.02617
2985.55522	0.02618
2984.26945	0.02629
2982.98368	0.02652
2981.69791	0.02679
2980.41214	0.02692
2979.12637	0.02681
2977.84060	0.02658
2976.55483	0.02643
2975.26907	0.02649
2973.98330	0.02678
2972.69753	0.02726
2971.41176	0.02785
2970.12599	0.02839
2968.84022	0.02876
2967.55445	0.02901
2966.26868	0.02931
2964.98291	0.02975
2963.69715	0.03019
2962.41138	0.03048
2961.12561	0.03062
2959.83984	0.03073
2958.55407	0.03096
2957.26830	0.03137
2955.98253	0.03187
2954.69676	0.03230
2953.41100	0.03259
2952.12523	0.03280
2950.83946	0.03299
2949.55369	0.03307
2948.26792	0.03296
2946.98215	0.03278
2945.69638	0.03270
2944.41061	0.03274
2943.12484	0.03273
2941.83908	0.03257
2940.55331	0.03232
2939.26754	0.03211
2937.98177	0.03207
2936.69600	0.03220
2935.41023	0.03249
2934.12446	0.03294
2932.83869	0.03350
2931.55293	0.03403
2930.26716	0.03432
2928.98139	0.03427
2927.69562	0.03402
2926.40985	0.03382
2925.12408	0.03382
2923.83831	0.03402
2922.55254	0.03429
2921.26677	0.03448
2919.98101	0.03451
2918.69524	0.03442
2917.40947	0.03428
2916.12370	0.03413
2914.83793	0.03391
2913.55216	0.03364
2912.26639	0.03336
2910.98062	0.03316
2909.69486	0.03301
2908.40909	0.03279
2907.12332	0.03244
2905.83755	0.03207
2904.55178	0.03176
2903.26601	0.03145
2901.98024	0.03102
2900.69447	0.03049
2899.40870	0.03011
2898.12294	0.03003
2896.83717	0.03013
2895.55140	0.03020
2894.26563	0.03014
2892.97986	0.02998
2891.69409	0.02983
2890.40832	0.02978
2889.12255	0.02983
2887.83678	0.02990
2886.55102	0.02988
2885.26525	0.02974
2883.97948	0.02951
2882.69371	0.02925
2881.40794	0.02901
2880.12217	0.02883
2878.83640	0.02872
2877.55063	0.02871
2876.26487	0.02882
2874.97910	0.02908
2873.69333	0.02944
2872.40756	0.02975
2871.12179	0.02982
2869.83602	0.02962
2868.55025	0.02925
2867.26448	0.02889
2865.97871	0.02871
2864.69295	0.02872
2863.40718	0.02884
2862.12141	0.02896
2860.83564	0.02899
2859.54987	0.02896
2858.26410	0.02892
2856.97833	0.02897
2855.69256	0.02913
2854.40680	0.02937
2853.12103	0.02958
2851.83526	0.02964
2850.54949	0.02947
2849.26372	0.02910
2847.97795	0.02866
2846.69218	0.02825
2845.40641	0.02793
2844.12064	0.02773
2842.83488	0.02762
2841.54911	0.02756
2840.26334	0.02749
2838.97757	0.02733
2837.69180	0.02706
2836.40603	0.02668
2835.12026	0.02630
2833.83449	0.02601
2832.54873	0.02583
2831.26296	0.02570
2829.97719	0.02555
2828.69142	0.02535
2827.40565	0.02510
2826.11988	0.02489
2824.83411	0.02482
2823.54834	0.02492
2822.26257	0.02505
2820.97681	0.02508
2819.69104	0.02506
2818.40527	0.02507
2817.11950	0.02507
2815.83373	0.02495
2814.54796	0.02465
2813.26219	0.02425
2811.97642	0.02389
2810.69066	0.02366
2809.40489	0.02366
2808.11912	0.02387
2806.83335	0.02418
2805.54758	0.02438
2804.26181	0.02433
2802.97604	0.02401
2801.69027	0.02358
2800.40450	0.02318
2799.11874	0.02291
2797.83297	0.02280
2796.54720	0.02283
2795.26143	0.02295
2793.97566	0.02307
2792.68989	0.02306
2791.40412	0.02289
2790.11835	0.02265
2788.83259	0.02246
2787.54682	0.02237
2786.26105	0.02235
2784.97528	0.02239
2783.68951	0.02249
2782.40374	0.02259
2781.11797	0.02259
2779.83220	0.02245
2778.54643	0.02228
2777.26067	0.02219
2775.97490	0.02221
2774.68913	0.02225
2773.40336	0.02221
2772.11759	0.02207
2770.83182	0.02192
2769.54605	0.02186
2768.26028	0.02187
2766.97452	0.02189
2765.68875	0.02187
2764.40298	0.02184
2763.11721	0.02184
2761.83144	0.02185
2760.54567	0.02185
2759.25990	0.02187
2757.97413	0.02193
2756.68836	0.02204
2755.40260	0.02213
2754.11683	0.02215
2752.83106	0.02207
2751.54529	0.02193
2750.25952	0.02180
2748.97375	0.02173
2747.68798	0.02171
2746.40221	0.02168
2745.11645	0.02162
2743.83068	0.02154
2742.54491	0.02149
2741.25914	0.02153
2739.97337	0.02171
2738.68760	0.02193
2737.40183	0.02204
2736.11606	0.02198
2734.83029	0.02182
2733.54453	0.02167
2732.25876	0.02163
2730.97299	0.02169
2729.68722	0.02182
2728.40145	0.02193
2727.11568	0.02191
2725.82991	0.02175
2724.54414	0.02155
2723.25838	0.02145
2721.97261	0.02144
2720.68684	0.02142
2719.40107	0.02129
2718.11530	0.02107
2716.82953	0.02083
2715.54376	0.02063
2714.25799	0.02056
2712.97222	0.02063
2711.68646	0.02079
2710.40069	0.02090
2709.11492	0.02086
2707.82915	0.02072
2706.54338	0.02057
2705.25761	0.02046
2703.97184	0.02039
2702.68607	0.02036
2701.40031	0.02040
2700.11454	0.02055
2698.82877	0.02072
2697.54300	0.02086
2696.25723	0.02096
2694.97146	0.02108
2693.68569	0.02121
2692.39992	0.02126
2691.11415	0.02118
2689.82839	0.02102
2688.54262	0.02085
2687.25685	0.02070
2685.97108	0.02055
2684.68531	0.02043
2683.39954	0.02036
2682.11377	0.02037
2680.82800	0.02048
2679.54224	0.02064
2678.25647	0.02076
2676.97070	0.02080
2675.68493	0.02078
2674.39916	0.02078
2673.11339	0.02080
2671.82762	0.02078
2670.54185	0.02063
2669.25608	0.02041
2667.97032	0.02023
2666.68455	0.02015
2665.39878	0.02019
2664.11301	0.02028
2662.82724	0.02037
2661.54147	0.02042
2660.25570	0.02044
2658.96993	0.02044
2657.68417	0.02039
2656.39840	0.02025
2655.11263	0.02005
2653.82686	0.01990
2652.54109	0.01986
2651.25532	0.01993
2649.96955	0.01999
2648.68378	0.01996
2647.39801	0.01981
2646.11225	0.01961
2644.82648	0.01945
2643.54071	0.01938
2642.25494	0.01932
2640.96917	0.01918
2639.68340	0.01895
2638.39763	0.01877
2637.11186	0.01874
2635.82609	0.01884
2634.54033	0.01895
2633.25456	0.01897
2631.96879	0.01892
2630.68302	0.01886
2629.39725	0.01876
2628.11148	0.01858
2626.82571	0.01833
2625.53994	0.01813
2624.25418	0.01806
2622.96841	0.01814
2621.68264	0.01825
2620.39687	0.01823
2619.11110	0.01803
2617.82533	0.01777
2616.53956	0.01763
2615.25379	0.01772
2613.96802	0.01791
2612.68226	0.01801
2611.39649	0.01793
2610.11072	0.01784
2608.82495	0.01796
2607.53918	0.01834
2606.25341	0.01874
2604.96764	0.01881
2603.68187	0.01842
2602.39611	0.01782
2601.11034	0.01739
2599.82457	0.01722
2598.53880	0.01712
2597.25303	0.01696
2595.96726	0.01684
2594.68149	0.01686
2593.39572	0.01688
2592.10995	0.01675
2590.82419	0.01657
2589.53842	0.01658
2588.25265	0.01682
2586.96688	0.01709
2585.68111	0.01723
2584.39534	0.01724
2583.10957	0.01710
2581.82380	0.01683
2580.53804	0.01650
2579.25227	0.01629
2577.96650	0.01635
2576.68073	0.01668
2575.39496	0.01711
2574.10919	0.01732
2572.82342	0.01709
2571.53765	0.01652
2570.25188	0.01603
2568.96612	0.01589
2567.68035	0.01603
2566.39458	0.01618
2565.10881	0.01625
2563.82304	0.01633
2562.53727	0.01640
2561.25150	0.01630
2559.96573	0.01599
2558.67997	0.01563
2557.39420	0.01538
2556.10843	0.01513
2554.82266	0.01476
2553.53689	0.01439
2552.25112	0.01431
2550.96535	0.01464
2549.67958	0.01515
2548.39381	0.01549
2547.10805	0.01552
2545.82228	0.01542
2544.53651	0.01541
2543.25074	0.01551
2541.96497	0.01559
2540.67920	0.01561
2539.39343	0.01560
2538.10766	0.01560
2536.82190	0.01554
2535.53613	0.01541
2534.25036	0.01527
2532.96459	0.01521
2531.67882	0.01531
2530.39305	0.01556
2529.10728	0.01582
2527.82151	0.01591
2526.53574	0.01575
2525.24998	0.01548
2523.96421	0.01532
2522.67844	0.01533
2521.39267	0.01537
2520.10690	0.01514
2518.82113	0.01459
2517.53536	0.01406
2516.24959	0.01396
2514.96383	0.01435
2513.67806	0.01487
2512.39229	0.01517
2511.10652	0.01527
2509.82075	0.01527
2508.53498	0.01519
2507.24921	0.01498
2505.96344	0.01465
2504.67767	0.01433
2503.39191	0.01414
2502.10614	0.01416
2500.82037	0.01441
2499.53460	0.01482
2498.24883	0.01524
2496.96306	0.01552
2495.67729	0.01552
2494.39152	0.01528
2493.10576	0.01490
2491.81999	0.01447
2490.53422	0.01402
2489.24845	0.01362
2487.96268	0.01341
2486.67691	0.01349
2485.39114	0.01375
2484.10537	0.01398
2482.81960	0.01406
2481.53384	0.01404
2480.24807	0.01403
2478.96230	0.01409
2477.67653	0.01419
2476.39076	0.01424
2475.10499	0.01420
2473.81922	0.01412
2472.53345	0.01407
2471.24769	0.01406
2469.96192	0.01412
2468.67615	0.01432
2467.39038	0.01467
2466.10461	0.01499
2464.81884	0.01514
2463.53307	0.01515
2462.24730	0.01515
2460.96153	0.01518
2459.67577	0.01510
2458.39000	0.01483
2457.10423	0.01442
2455.81846	0.01404
2454.53269	0.01387
2453.24692	0.01397
2451.96115	0.01425
2450.67538	0.01454
2449.38962	0.01470
2448.10385	0.01469
2446.81808	0.01457
2445.53231	0.01444
2444.24654	0.01435
2442.96077	0.01433
2441.67500	0.01438
2440.38923	0.01448
2439.10346	0.01455
2437.81770	0.01454
2436.53193	0.01441
2435.24616	0.01423
2433.96039	0.01404
2432.67462	0.01385
2431.38885	0.01364
2430.10308	0.01339
2428.81731	0.01316
2427.53155	0.01306
2426.24578	0.01314
2424.96001	0.01330
2423.67424	0.01335
2422.38847	0.01322
2421.10270	0.01304
2419.81693	0.01297
2418.53116	0.01305
2417.24539	0.01323
2415.95963	0.01348
2414.67386	0.01374
2413.38809	0.01398
2412.10232	0.01410
2410.81655	0.01405
2409.53078	0.01386
2408.24501	0.01368
2406.95924	0.01360
2405.67347	0.01357
2404.38771	0.01351
2403.10194	0.01347
2401.81617	0.01353
2400.53040	0.01362
2399.24463	0.01356
2397.95886	0.01339
2396.67309	0.01326
2395.38732	0.01329
2394.10156	0.01346
2392.81579	0.01367
2391.53002	0.01378
2390.24425	0.01376
2388.95848	0.01366
2387.67271	0.01360
2386.38694	0.01366
2385.10117	0.01378
2383.81540	0.01388
2382.52964	0.01395
2381.24387	0.01400
2379.95810	0.01403
2378.67233	0.01401
2377.38656	0.01393
2376.10079	0.01387
2374.81502	0.01380
2373.52925	0.01372
2372.24349	0.01354
2370.95772	0.01327
2369.67195	0.01297
2368.38618	0.01284
2367.10041	0.01299
2365.81464	0.01339
2364.52887	0.01384
2363.24310	0.01419
2361.95733	0.01441
2360.67157	0.01458
2359.38580	0.01465
2358.10003	0.01458
2356.81426	0.01449
2355.52849	0.01448
2354.24272	0.01455
2352.95695	0.01466
2351.67118	0.01478
2350.38542	0.01481
2349.09965	0.01466
2347.81388	0.01447
2346.52811	0.01448
2345.24234	0.01456
2343.95657	0.01441
2342.67080	0.01414
2341.38503	0.01425
2340.09926	0.01467
2338.81350	0.01470
2337.52773	0.01439
2336.24196	0.01461
2334.95619	0.01514
2333.67042	0.01502
2332.38465	0.01448
2331.09888	0.01455
2329.81311	0.01481
2328.52735	0.01481
2327.24158	0.01536
2325.95581	0.01613
2324.67004	0.01627
2323.38427	0.01621
2322.09850	0.01619
2320.81273	0.01577
2319.52696	0.01545
2318.24119	0.01530
2316.95543	0.01502
2315.66966	0.01494
2314.38389	0.01505
2313.09812	0.01516
2311.81235	0.01535
2310.52658	0.01534
2309.24081	0.01503
2307.95504	0.01458
2306.66928	0.01414
2305.38351	0.01394
2304.09774	0.01389
2302.81197	0.01383
2301.52620	0.01371
2300.24043	0.01360
2298.95466	0.01358
2297.66889	0.01355
2296.38312	0.01342
2295.09736	0.01327
2293.81159	0.01325
2292.52582	0.01339
2291.24005	0.01353
2289.95428	0.01345
2288.66851	0.01307
2287.38274	0.01254
2286.09697	0.01214
2284.81121	0.01202
2283.52544	0.01210
2282.23967	0.01212
2280.95390	0.01202
2279.66813	0.01201
2278.38236	0.01234
2277.09659	0.01302
2275.81082	0.01368
2274.52505	0.01393
2273.23929	0.01363
2271.95352	0.01301
2270.66775	0.01244
2269.38198	0.01207
2268.09621	0.01182
2266.81044	0.01149
2265.52467	0.01098
2264.23890	0.01030
2262.95314	0.00965
2261.66737	0.00931
2260.38160	0.00948
2259.09583	0.01003
2257.81006	0.01048
2256.52429	0.01042
2255.23852	0.00987
2253.95275	0.00927
2252.66698	0.00898
2251.38122	0.00896
2250.09545	0.00901
2248.80968	0.00909
2247.52391	0.00930
2246.23814	0.00984
2244.95237	0.01057
2243.66660	0.01118
2242.38083	0.01135
2241.09507	0.01096
2239.80930	0.01020
2238.52353	0.00960
2237.23776	0.00955
2235.95199	0.00987
2234.66622	0.01004
2233.38045	0.00984
2232.09468	0.00954
2230.80891	0.00942
2229.52315	0.00940
2228.23738	0.00930
2226.95161	0.00922
2225.66584	0.00946
2224.38007	0.01006
2223.09430	0.01069
2221.80853	0.01101
2220.52276	0.01092
2219.23700	0.01057
2217.95123	0.01021
2216.66546	0.00994
2215.37969	0.00964
2214.09392	0.00909
2212.80815	0.00823
2211.52238	0.00742
2210.23661	0.00703
2208.95084	0.00701
2207.66508	0.00695
2206.37931	0.00657
2205.09354	0.00606
2203.80777	0.00598
2202.52200	0.00675
2201.23623	0.00816
2199.95046	0.00943
2198.66469	0.00982
2197.37893	0.00926
2196.09316	0.00820
2194.80739	0.00700
2193.52162	0.00582
2192.23585	0.00492
2190.95008	0.00462
2189.66431	0.00494
2188.37854	0.00555
2187.09277	0.00605
2185.80701	0.00617
2184.52124	0.00593
2183.23547	0.00565
2181.94970	0.00564
2180.66393	0.00582
2179.37816	0.00593
2178.09239	0.00592
2176.80662	0.00601
2175.52085	0.00621
2174.23509	0.00631
2172.94932	0.00618
2171.66355	0.00599
2170.37778	0.00595
2169.09201	0.00624
2167.80624	0.00682
2166.52047	0.00745
2165.23470	0.00772
2163.94894	0.00737
2162.66317	0.00650
2161.37740	0.00556
2160.09163	0.00496
2158.80586	0.00471
2157.52009	0.00449
2156.23432	0.00423
2154.94855	0.00427
2153.66278	0.00482
2152.37702	0.00556
2151.09125	0.00586
2149.80548	0.00549
2148.51971	0.00479
2147.23394	0.00440
2145.94817	0.00464
2144.66240	0.00528
2143.37663	0.00568
2142.09087	0.00532
2140.80510	0.00437
2139.51933	0.00371
2138.23356	0.00397
2136.94779	0.00487
2135.66202	0.00547
2134.37625	0.00526
2133.09048	0.00466
2131.80471	0.00437
2130.51895	0.00468
2129.23318	0.00534
2127.94741	0.00588
2126.66164	0.00608
2125.37587	0.00603
2124.09010	0.00610
2122.80433	0.00654
2121.51856	0.00720
2120.23280	0.00768
2118.94703	0.00770
2117.66126	0.00736
2116.37549	0.00695
2115.08972	0.00665
2113.80395	0.00649
2112.51818	0.00655
2111.23241	0.00696
2109.94664	0.00761
2108.66088	0.00800
2107.37511	0.00772
2106.08934	0.00697
2104.80357	0.00644
2103.51780	0.00659
2102.23203	0.00716
2100.94626	0.00744
2099.66049	0.00713
2098.37473	0.00638
2097.08896	0.00575
2095.80319	0.00571
2094.51742	0.00631
2093.23165	0.00721
2091.94588	0.00797
2090.66011	0.00837
2089.37434	0.00840
2088.08857	0.00819
2086.80281	0.00776
2085.51704	0.00715
2084.23127	0.00661
2082.94550	0.00644
2081.65973	0.00671
2080.37396	0.00714
2079.08819	0.00738
2077.80242	0.00731
2076.51666	0.00694
2075.23089	0.00637
2073.94512	0.00577
2072.65935	0.00544
2071.37358	0.00564
2070.08781	0.00622
2068.80204	0.00669
2067.51627	0.00667
2066.23050	0.00618
2064.94474	0.00553
2063.65897	0.00495
2062.37320	0.00449
2061.08743	0.00418
2059.80166	0.00407
2058.51589	0.00412
2057.23012	0.00418
2055.94435	0.00413
2054.65859	0.00413
2053.37282	0.00434
2052.08705	0.00469
2050.80128	0.00493
2049.51551	0.00498
2048.22974	0.00505
2046.94397	0.00527
2045.65820	0.00547
2044.37243	0.00539
2043.08667	0.00492
2041.80090	0.00417
2040.51513	0.00327
2039.22936	0.00241
2037.94359	0.00180
2036.65782	0.00160
2035.37205	0.00175
2034.08628	0.00200
2032.80052	0.00215
2031.51475	0.00227
2030.22898	0.00255
2028.94321	0.00301
2027.65744	0.00345
2026.37167	0.00363
2025.08590	0.00348
2023.80013	0.00309
2022.51436	0.00263
2021.22860	0.00230
2019.94283	0.00231
2018.65706	0.00274
2017.37129	0.00345
2016.08552	0.00415
2014.79975	0.00462
2013.51398	0.00483
2012.22821	0.00480
2010.94245	0.00438
2009.65668	0.00345
2008.37091	0.00232
2007.08514	0.00174
2005.79937	0.00211
2004.51360	0.00304
2003.22783	0.00384
2001.94206	0.00427
2000.65629	0.00451
1999.37053	0.00471
1998.08476	0.00485
1996.79899	0.00495
1995.51322	0.00515
1994.22745	0.00534
1992.94168	0.00522
1991.65591	0.00460
1990.37014	0.00372
1989.08438	0.00315
1987.79861	0.00330
1986.51284	0.00410
1985.22707	0.00501
1983.94130	0.00550
1982.65553	0.00552
1981.36976	0.00544
1980.08399	0.00552
1978.79822	0.00569
1977.51246	0.00573
1976.22669	0.00552
1974.94092	0.00499
1973.65515	0.00415
1972.36938	0.00326
1971.08361	0.00271
1969.79784	0.00280
1968.51207	0.00353
1967.22631	0.00469
1965.94054	0.00602
1964.65477	0.00725
1963.36900	0.00817
1962.08323	0.00859
1960.79746	0.00849
1959.51169	0.00804
1958.22592	0.00745
1956.94015	0.00678
1955.65439	0.00609
1954.36862	0.00555
1953.08285	0.00537
1951.79708	0.00560
1950.51131	0.00601
1949.22554	0.00633
1947.93977	0.00649
1946.65400	0.00663
1945.36823	0.00688
1944.08247	0.00723
1942.79670	0.00751
1941.51093	0.00763
1940.22516	0.00766
1938.93939	0.00773
1937.65362	0.00778
1936.36785	0.00767
1935.08208	0.00738
1933.79632	0.00704
1932.51055	0.00677
1931.22478	0.00660
1929.93901	0.00651
1928.65324	0.00658
1927.36747	0.00682
1926.08170	0.00708
1924.79593	0.00716
1923.51016	0.00701
1922.22440	0.00683
1920.93863	0.00682
1919.65286	0.00699
1918.36709	0.00718
1917.08132	0.00727
1915.79555	0.00733
1914.50978	0.00745
1913.22401	0.00765
1911.93825	0.00780
1910.65248	0.00777
1909.36671	0.00752
1908.08094	0.00719
1906.79517	0.00701
1905.50940	0.00712
1904.22363	0.00740
1902.93786	0.00765
1901.65209	0.00778
1900.36633	0.00784
1899.08056	0.00794
1897.79479	0.00802
1896.50902	0.00801
1895.22325	0.00788
1893.93748	0.00776
1892.65171	0.00779
1891.36594	0.00799
1890.08018	0.00822
1888.79441	0.00823
1887.50864	0.00797
1886.22287	0.00764
1884.93710	0.00751
1883.65133	0.00764
1882.36556	0.00794
1881.07979	0.00828
1879.79402	0.00860
1878.50826	0.00880
1877.22249	0.00876
1875.93672	0.00844
1874.65095	0.00794
1873.36518	0.00745
1872.07941	0.00718
1870.79364	0.00720
1869.50787	0.00742
1868.22211	0.00769
1866.93634	0.00791
1865.65057	0.00804
1864.36480	0.00806
1863.07903	0.00793
1861.79326	0.00773
1860.50749	0.00758
1859.22172	0.00755
1857.93595	0.00764
1856.65019	0.00777
1855.36442	0.00794
1854.07865	0.00806
1852.79288	0.00809
1851.50711	0.00799
1850.22134	0.00789
1848.93557	0.00787
1847.64980	0.00798
1846.36404	0.00819
1845.07827	0.00842
1843.79250	0.00854
1842.50673	0.00847
1841.22096	0.00828
1839.93519	0.00808
1838.64942	0.00796
1837.36365	0.00793
1836.07788	0.00791
1834.79212	0.00782
1833.50635	0.00772
1832.22058	0.00776
1830.93481	0.00797
1829.64904	0.00827
1828.36327	0.00848
1827.07750	0.00857
1825.79173	0.00858
1824.50597	0.00855
1823.22020	0.00849
1821.93443	0.00841
1820.64866	0.00828
1819.36289	0.00812
1818.07712	0.00797
1816.79135	0.00788
1815.50558	0.00784
1814.21981	0.00784
1812.93405	0.00791
1811.64828	0.00808
1810.36251	0.00833
1809.07674	0.00859
1807.79097	0.00880
1806.50520	0.00890
1805.21943	0.00889
1803.93366	0.00882
1802.64790	0.00874
1801.36213	0.00869
1800.07636	0.00869
1798.79059	0.00871
1797.50482	0.00876
1796.21905	0.00883
1794.93328	0.00895
1793.64751	0.00910
1792.36174	0.00920
1791.07598	0.00920
1789.79021	0.00912
1788.50444	0.00907
1787.21867	0.00907
1785.93290	0.00908
1784.64713	0.00906
1783.36136	0.00900
1782.07559	0.00894
1780.78983	0.00890
1779.50406	0.00886
1778.21829	0.00883
1776.93252	0.00883
1775.64675	0.00890
1774.36098	0.00906
1773.07521	0.00924
1771.78944	0.00934
1770.50367	0.00940
1769.21791	0.00946
1767.93214	0.00951
1766.64637	0.00950
1765.36060	0.00945
1764.07483	0.00942
1762.78906	0.00942
1761.50329	0.00942
1760.21752	0.00940
1758.93176	0.00941
1757.64599	0.00948
1756.36022	0.00958
1755.07445	0.00970
1753.78868	0.00984
1752.50291	0.00993
1751.21714	0.00990
1749.93137	0.00981
1748.64560	0.00976
1747.35984	0.00979
1746.07407	0.00984
1744.78830	0.00983
1743.50253	0.00976
1742.21676	0.00972
1740.93099	0.00975
1739.64522	0.00979
1738.35945	0.00982
1737.07369	0.00989
1735.78792	0.01007
1734.50215	0.01025
1733.21638	0.01030
1731.93061	0.01027
1730.64484	0.01026
1729.35907	0.01028
1728.07330	0.01025
1726.78753	0.01019
1725.50177	0.01016
1724.21600	0.01017
1722.93023	0.01022
1721.64446	0.01035
1720.35869	0.01061
1719.07292	0.01100
1717.78715	0.01133
1716.50138	0.01149
1715.21561	0.01152
1713.92985	0.01153
1712.64408	0.01159
1711.35831	0.01170
1710.07254	0.01187
1708.78677	0.01209
1707.50100	0.01230
1706.21523	0.01243
1704.92946	0.01246
1703.64370	0.01249
1702.35793	0.01267
1701.07216	0.01292
1699.78639	0.01308
1698.50062	0.01319
1697.21485	0.01339
1695.92908	0.01362
1694.64331	0.01370
1693.35754	0.01369
1692.07178	0.01376
1690.78601	0.01390
1689.50024	0.01399
1688.21447	0.01403
1686.92870	0.01418
1685.64293	0.01448
1684.35716	0.01476
1683.07139	0.01491
1681.78563	0.01500
1680.49986	0.01515
1679.21409	0.01532
1677.92832	0.01547
1676.64255	0.01559
1675.35678	0.01567
1674.07101	0.01569
1672.78524	0.01578
1671.49947	0.01603
1670.21371	0.01636
1668.92794	0.01661
1667.64217	0.01675
1666.35640	0.01687
1665.07063	0.01704
1663.78486	0.01723
1662.49909	0.01734
1661.21332	0.01739
1659.92756	0.01744
1658.64179	0.01757
1657.35602	0.01777
1656.07025	0.01810
1654.78448	0.01853
1653.49871	0.01884
1652.21294	0.01880
1650.92717	0.01855
1649.64140	0.01844
1648.35564	0.01860
1647.06987	0.01881
1645.78410	0.01886
1644.49833	0.01874
1643.21256	0.01861
1641.92679	0.01856
1640.64102	0.01857
1639.35525	0.01861
1638.06949	0.01873
1636.78372	0.01889
1635.49795	0.01897
1634.21218	0.01890
1632.92641	0.01877
1631.64064	0.01873
1630.35487	0.01880
1629.06910	0.01893
1627.78333	0.01902
1626.49757	0.01908
1625.21180	0.01913
1623.92603	0.01918
1622.64026	0.01921
1621.35449	0.01920
1620.06872	0.01921
1618.78295	0.01926
1617.49718	0.01930
1616.21142	0.01923
1614.92565	0.01911
1613.63988	0.01907
1612.35411	0.01917
1611.06834	0.01934
1609.78257	0.01949
1608.49680	0.01960
1607.21103	0.01968
1605.92526	0.01973
1604.63950	0.01978
1603.35373	0.01982
1602.06796	0.01986
1600.78219	0.01990
1599.49642	0.01996
1598.21065	0.02001
1596.92488	0.02004
1595.63911	0.02004
1594.35335	0.02004
1593.06758	0.02006
1591.78181	0.02014
1590.49604	0.02027
1589.21027	0.02041
1587.92450	0.02055
1586.63873	0.02066
1585.35296	0.02076
1584.06719	0.02084
1582.78143	0.02088
1581.49566	0.02087
1580.20989	0.02083
1578.92412	0.02085
1577.63835	0.02099
1576.35258	0.02115
1575.06681	0.02118
1573.78104	0.02112
1572.49528	0.02110
1571.20951	0.02120
1569.92374	0.02135
1568.63797	0.02147
1567.35220	0.02154
1566.06643	0.02160
1564.78066	0.02163
1563.49489	0.02166
1562.20912	0.02178
1560.92336	0.02203
1559.63759	0.02225
1558.35182	0.02226
1557.06605	0.02213
1555.78028	0.02204
1554.49451	0.02201
1553.20874	0.02197
1551.92297	0.02192
1550.63721	0.02188
1549.35144	0.02184
1548.06567	0.02177
1546.77990	0.02169
1545.49413	0.02166
1544.20836	0.02167
1542.92259	0.02172
1541.63682	0.02183
1540.35105	0.02192
1539.06529	0.02187
1537.77952	0.02168
1536.49375	0.02151
1535.20798	0.02150
1533.92221	0.02159
1532.63644	0.02167
1531.35067	0.02171
1530.06490	0.02179
1528.77914	0.02193
1527.49337	0.02211
1526.20760	0.02226
1524.92183	0.02242
1523.63606	0.02264
1522.35029	0.02294
1521.06452	0.02324
1519.77875	0.02348
1518.49298	0.02374
1517.20722	0.02405
1515.92145	0.02439
1514.63568	0.02474
1513.34991	0.02517
1512.06414	0.02565
1510.77837	0.02617
1509.49260	0.02675
1508.20683	0.02738
1506.92107	0.02795
1505.63530	0.02833
1504.34953	0.02856
1503.06376	0.02880
1501.77799	0.02911
1500.49222	0.02945
1499.20645	0.02975
1497.92068	0.03002
1496.63491	0.03025
1495.34915	0.03044
1494.06338	0.03064
1492.77761	0.03094
1491.49184	0.03136
1490.20607	0.03182
1488.92030	0.03227
1487.63453	0.03266
1486.34876	0.03301
1485.06299	0.03332
1483.77723	0.03366
1482.49146	0.03402
1481.20569	0.03437
1479.91992	0.03472
1478.63415	0.03509
1477.34838	0.03550
1476.06261	0.03592
1474.77684	0.03635
1473.49108	0.03676
1472.20531	0.03711
1470.91954	0.03739
1469.63377	0.03765
1468.34800	0.03796
1467.06223	0.03829
1465.77646	0.03858
1464.49069	0.03874
1463.20492	0.03879
1461.91916	0.03885
1460.63339	0.03902
1459.34762	0.03938
1458.06185	0.03981
1456.77608	0.04013
1455.49031	0.04022
1454.20454	0.04020
1452.91877	0.04021
1451.63301	0.04031
1450.34724	0.04048
1449.06147	0.04068
1447.77570	0.04083
1446.48993	0.04090
1445.20416	0.04091
1443.91839	0.04088
1442.63262	0.04080
1441.34685	0.04063
1440.06109	0.04041
1438.77532	0.04021
1437.48955	0.04009
1436.20378	0.04001
1434.91801	0.03996
1433.63224	0.04003
1432.34647	0.04025
1431.06070	0.04058
1429.77494	0.04096
1428.48917	0.04136
1427.20340	0.04181
1425.91763	0.04233
1424.63186	0.04290
1423.34609	0.04348
1422.06032	0.04407
1420.77455	0.04466
1419.48878	0.04516
1418.20302	0.04550
1416.91725	0.04569
1415.63148	0.04582
1414.34571	0.04590
1413.05994	0.04591
1411.77417	0.04584
1410.48840	0.04570
1409.20263	0.04551
1407.91687	0.04527
1406.63110	0.04497
1405.34533	0.04459
1404.05956	0.04410
1402.77379	0.04353
1401.48802	0.04293
1400.20225	0.04232
1398.91648	0.04170
1397.63071	0.04106
1396.34495	0.04041
1395.05918	0.03973
1393.77341	0.03898
1392.48764	0.03818
1391.20187	0.03740
1389.91610	0.03669
1388.63033	0.03608
1387.34456	0.03552
1386.05880	0.03496
1384.77303	0.03436
1383.48726	0.03375
1382.20149	0.03312
1380.91572	0.03251
1379.62995	0.03192
1378.34418	0.03132
1377.05841	0.03067
1375.77264	0.02997
1374.48688	0.02924
1373.20111	0.02851
1371.91534	0.02780
1370.62957	0.02712
1369.34380	0.02645
1368.05803	0.02580
1366.77226	0.02515
1365.48649	0.02452
1364.20073	0.02392
1362.91496	0.02338
1361.62919	0.02287
1360.34342	0.02240
1359.05765	0.02195
1357.77188	0.02151
1356.48611	0.02109
1355.20034	0.02070
1353.91457	0.02033
1352.62881	0.01998
1351.34304	0.01962
1350.05727	0.01928
1348.77150	0.01900
1347.48573	0.01879
1346.19996	0.01862
1344.91419	0.01845
1343.62842	0.01827
1342.34266	0.01806
1341.05689	0.01785
1339.77112	0.01763
1338.48535	0.01741
1337.19958	0.01720
1335.91381	0.01700
1334.62804	0.01682
1333.34227	0.01663
1332.05650	0.01647
1330.77074	0.01632
1329.48497	0.01618
1328.19920	0.01602
1326.91343	0.01583
1325.62766	0.01565
1324.34189	0.01552
1323.05612	0.01547
1321.77035	0.01548
1320.48459	0.01549
1319.19882	0.01544
1317.91305	0.01532
1316.62728	0.01519
1315.34151	0.01511
1314.05574	0.01508
1312.76997	0.01505
1311.48420	0.01497
1310.19843	0.01484
1308.91267	0.01470
1307.62690	0.01457
1306.34113	0.01445
1305.05536	0.01434
1303.76959	0.01426
1302.48382	0.01424
1301.19805	0.01424
1299.91228	0.01423
1298.62652	0.01415
1297.34075	0.01398
1296.05498	0.01380
1294.76921	0.01366
1293.48344	0.01360
1292.19767	0.01359
1290.91190	0.01357
1289.62613	0.01352
1288.34036	0.01346
1287.05460	0.01339
1285.76883	0.01334
1284.48306	0.01330
1283.19729	0.01324
1281.91152	0.01318
1280.62575	0.01309
1279.33998	0.01300
1278.05421	0.01291
1276.76845	0.01283
1275.48268	0.01277
1274.19691	0.01274
1272.91114	0.01272
1271.62537	0.01270
1270.33960	0.01266
1269.05383	0.01265
1267.76806	0.01266
1266.48229	0.01271
1265.19653	0.01275
1263.91076	0.01274
1262.62499	0.01266
1261.33922	0.01255
1260.05345	0.01245
1258.76768	0.01239
1257.48191	0.01236
1256.19614	0.01232
1254.91037	0.01226
1253.62461	0.01217
1252.33884	0.01212
1251.05307	0.01211
1249.76730	0.01214
1248.48153	0.01219
1247.19576	0.01222
1245.90999	0.01221
1244.62422	0.01218
1243.33846	0.01214
1242.05269	0.01213
1240.76692	0.01214
1239.48115	0.01214
1238.19538	0.01212
1236.90961	0.01209
1235.62384	0.01207
1234.33807	0.01207
1233.05230	0.01207
1231.76654	0.01202
1230.48077	0.01191
1229.19500	0.01179
1227.90923	0.01169
1226.62346	0.01166
1225.33769	0.01171
1224.05192	0.01180
1222.76615	0.01189
1221.48039	0.01197
1220.19462	0.01204
1218.90885	0.01210
1217.62308	0.01214
1216.33731	0.01214
1215.05154	0.01213
1213.76577	0.01213
1212.48000	0.01216
1211.19423	0.01223
1209.90847	0.01231
1208.62270	0.01236
1207.33693	0.01237
1206.05116	0.01235
1204.76539	0.01234
1203.47962	0.01237
1202.19385	0.01241
1200.90808	0.01245
1199.62232	0.01250
1198.33655	0.01260
1197.05078	0.01271
1195.76501	0.01277
1194.47924	0.01277
1193.19347	0.01272
1191.90770	0.01270
1190.62193	0.01270
1189.33616	0.01273
1188.05040	0.01277
1186.76463	0.01282
1185.47886	0.01288
1184.19309	0.01295
1182.90732	0.01302
1181.62155	0.01307
1180.33578	0.01309
1179.05001	0.01309
1177.76425	0.01310
1176.47848	0.01315
1175.19271	0.01325
1173.90694	0.01342
1172.62117	0.01363
1171.33540	0.01384
1170.04963	0.01402
1168.76386	0.01417
1167.47809	0.01433
1166.19233	0.01452
1164.90656	0.01471
1163.62079	0.01487
1162.33502	0.01494
1161.04925	0.01495
1159.76348	0.01490
1158.47771	0.01483
1157.19194	0.01477
1155.90618	0.01479
1154.62041	0.01491
1153.33464	0.01509
1152.04887	0.01529
1150.76310	0.01546
1149.47733	0.01566
1148.19156	0.01592
1146.90579	0.01626
1145.62002	0.01665
1144.33426	0.01705
1143.04849	0.01747
1141.76272	0.01793
1140.47695	0.01846
1139.19118	0.01905
1137.90541	0.01967
1136.61964	0.02029
1135.33387	0.02088
1134.04811	0.02146
1132.76234	0.02213
1131.47657	0.02296
1130.19080	0.02396
1128.90503	0.02512
1127.61926	0.02639
1126.33349	0.02776
1125.04772	0.02928
1123.76195	0.03093
1122.47619	0.03267
1121.19042	0.03440
1119.90465	0.03608
1118.61888	0.03771
1117.33311	0.03936
1116.04734	0.04106
1114.76157	0.04282
1113.47580	0.04459
1112.19004	0.04628
1110.90427	0.04783
1109.61850	0.04924
1108.33273	0.05059
1107.04696	0.05196
1105.76119	0.05334
1104.47542	0.05467
1103.18965	0.05594
1101.90388	0.05715
1100.61812	0.05834
1099.33235	0.05952
1098.04658	0.06068
1096.76081	0.06177
1095.47504	0.06277
1094.18927	0.06367
1092.90350	0.06450
1091.61773	0.06531
1090.33197	0.06609
1089.04620	0.06682
1087.76043	0.06754
1086.47466	0.06831
1085.18889	0.06918
1083.90312	0.07014
1082.61735	0.07109
1081.33158	0.07199
1080.04581	0.07288
1078.76005	0.07385
1077.47428	0.07495
1076.18851	0.07616
1074.90274	0.07743
1073.61697	0.07872
1072.33120	0.08003
1071.04543	0.08135
1069.75966	0.08267
1068.47390	0.08398
1067.18813	0.08531
1065.90236	0.08671
1064.61659	0.08819
1063.33082	0.08972
1062.04505	0.09122
1060.75928	0.09267
1059.47351	0.09406
1058.18774	0.09538
1056.90198	0.09665
1055.61621	0.09788
1054.33044	0.09915
1053.04467	0.10047
1051.75890	0.10181
1050.47313	0.10314
1049.18736	0.10446
1047.90159	0.10582
1046.61583	0.10728
1045.33006	0.10885
1044.04429	0.11049
1042.75852	0.11212
1041.47275	0.11366
1040.18698	0.11511
1038.90121	0.11653
1037.61544	0.11794
1036.32967	0.11929
1035.04391	0.12055
1033.75814	0.12172
1032.47237	0.12278
1031.18660	0.12366
1029.90083	0.12436
1028.61506	0.12490
1027.32929	0.12531
1026.04352	0.12557
1024.75775	0.12566
1023.47199	0.12559
1022.18622	0.12538
1020.90045	0.12502
1019.61468	0.12442
1018.32891	0.12352
1017.04314	0.12234
1015.75737	0.12099
1014.47160	0.11954
1013.18584	0.11797
1011.90007	0.11619
1010.61430	0.11418
1009.32853	0.11200
1008.04276	0.10970
1006.75699	0.10727
1005.47122	0.10468
1004.18545	0.10192
1002.89968	0.09904
1001.61392	0.09614
1000.32815	0.09327
999.04238	0.09042
997.75661	0.08755
996.47084	0.08463
995.18507	0.08167
993.89930	0.07873
992.61353	0.07588
991.32777	0.07317
990.04200	0.07064
988.75623	0.06827
987.47046	0.06607
986.18469	0.06397
984.89892	0.06192
983.61315	0.05991
982.32738	0.05803
981.04161	0.05636
979.75585	0.05490
978.47008	0.05357
977.18431	0.05230
975.89854	0.05108
974.61277	0.04995
973.32700	0.04898
972.04123	0.04818
970.75546	0.04760
969.46970	0.04722
968.18393	0.04706
966.89816	0.04708
965.61239	0.04728
964.32662	0.04757
963.04085	0.04785
961.75508	0.04796
960.46931	0.04789
959.18354	0.04765
957.89778	0.04726
956.61201	0.04669
955.32624	0.04593
954.04047	0.04501
952.75470	0.04401
951.46893	0.04297
950.18316	0.04192
948.89739	0.04093
947.61163	0.04006
946.32586	0.03924
945.04009	0.03841
943.75432	0.03756
942.46855	0.03677
941.18278	0.03609
939.89701	0.03550
938.61124	0.03492
937.32547	0.03430
936.03971	0.03367
934.75394	0.03310
933.46817	0.03263
932.18240	0.03221
930.89663	0.03178
929.61086	0.03134
928.32509	0.03095
927.03932	0.03063
925.75356	0.03034
924.46779	0.03001
923.18202	0.02962
921.89625	0.02923
920.61048	0.02894
919.32471	0.02873
918.03894	0.02855
916.75317	0.02831
915.46740	0.02803
914.18164	0.02780
912.89587	0.02770
911.61010	0.02769
910.32433	0.02766
909.03856	0.02750
907.75279	0.02722
906.46702	0.02691
905.18125	0.02667
903.89549	0.02649
902.60972	0.02628
901.32395	0.02596
900.03818	0.02556
898.75241	0.02515
897.46664	0.02478
896.18087	0.02446
894.89510	0.02416
893.60933	0.02394
892.32357	0.02388
891.03780	0.02399
889.75203	0.02419
888.46626	0.02442
887.18049	0.02468
885.89472	0.02510
884.60895	0.02583
883.32318	0.02691
882.03742	0.02815
880.75165	0.02925
879.46588	0.03000
878.18011	0.03046
876.89434	0.03087
875.60857	0.03144
874.32280	0.03211
873.03703	0.03270
871.75126	0.03299
870.46550	0.03284
869.17973	0.03227
867.89396	0.03141
866.60819	0.03043
865.32242	0.02947
864.03665	0.02858
862.75088	0.02774
861.46511	0.02697
860.17935	0.02630
858.89358	0.02572
857.60781	0.02519
856.32204	0.02467
855.03627	0.02415
853.75050	0.02369
852.46473	0.02335
851.17896	0.02308
849.89319	0.02283
848.60743	0.02255
847.32166	0.02228
846.03589	0.02206
844.75012	0.02191
843.46435	0.02180
842.17858	0.02171
840.89281	0.02162
839.60704	0.02157
838.32128	0.02155
837.03551	0.02152
835.74974	0.02138
834.46397	0.02112
833.17820	0.02084
831.89243	0.02067
830.60666	0.02062
829.32089	0.02063
828.03512	0.02067
826.74936	0.02074
825.46359	0.02085
824.17782	0.02092
822.89205	0.02092
821.60628	0.02083
820.32051	0.02070
819.03474	0.02058
817.74897	0.02047
816.46321	0.02041
815.17744	0.02042
813.89167	0.02055
812.60590	0.02078
811.32013	0.02106
810.03436	0.02130
808.74859	0.02143
807.46282	0.02146
806.17705	0.02151
804.89129	0.02166
803.60552	0.02193
802.31975	0.02224
801.03398	0.02246
799.74821	0.02250
798.46244	0.02242
797.17667	0.02237
795.89090	0.02239
794.60513	0.02247
793.31937	0.02253
792.03360	0.02252
790.74783	0.02246
789.46206	0.02232
788.17629	0.02215
786.89052	0.02200
785.60475	0.02196
784.31898	0.02206
783.03322	0.02225
781.74745	0.02245
780.46168	0.02257
779.17591	0.02258
777.89014	0.02256
776.60437	0.02262
775.31860	0.02274
774.03283	0.02279
772.74706	0.02272
771.46130	0.02259
770.17553	0.02250
768.88976	0.02247
767.60399	0.02248
766.31822	0.02248
765.03245	0.02246
763.74668	0.02242
762.46091	0.02236
761.17515	0.02226
759.88938	0.02213
758.60361	0.02204
757.31784	0.02200
756.03207	0.02200
754.74630	0.02197
753.46053	0.02188
752.17476	0.02176
750.88899	0.02169
749.60323	0.02167
748.31746	0.02171
747.03169	0.02173
745.74592	0.02169
744.46015	0.02158
743.17438	0.02143
741.88861	0.02127
740.60284	0.02113
739.31708	0.02099
738.03131	0.02087
736.74554	0.02077
735.45977	0.02066
734.17400	0.02050
732.88823	0.02033
731.60246	0.02023
730.31669	0.02022
729.03092	0.02025
727.74516	0.02028
726.45939	0.02026
725.17362	0.02022
723.88785	0.02021
722.60208	0.02027
721.31631	0.02041
720.03054	0.02053
718.74477	0.02058
717.45901	0.02051
716.17324	0.02035
714.88747	0.02017
713.60170	0.02004
712.31593	0.02002
711.03016	0.02007
709.74439	0.02014
708.45862	0.02017
707.17285	0.02013
705.88709	0.02008
704.60132	0.02005
703.31555	0.02007
702.02978	0.02014
700.74401	0.02026
699.45824	0.02043
698.17247	0.02062
696.88670	0.02077
695.60094	0.02082
694.31517	0.02078
693.02940	0.02071
691.74363	0.02069
690.45786	0.02073
689.17209	0.02077
687.88632	0.02078
686.60055	0.02072
685.31478	0.02059
684.02902	0.02043
682.74325	0.02029
681.45748	0.02018
680.17171	0.02009
678.88594	0.01999
677.60017	0.01988
676.31440	0.01978
675.02863	0.01970
673.74287	0.01967
672.45710	0.01969
671.17133	0.01976
669.88556	0.01985
668.59979	0.01986
667.31402	0.01980
666.02825	0.01970
664.74248	0.01955
663.45671	0.01938
662.17095	0.01920
660.88518	0.01905
659.59941	0.01897
658.31364	0.01894
657.02787	0.01894
655.74210	0.01891
654.45633	0.01885
653.17056	0.01879
651.88480	0.01879
650.59903	0.01883
649.31326	0.01892
648.02749	0.01899
646.74172	0.01900
645.45595	0.01892
644.17018	0.01880
642.88441	0.01869
641.59864	0.01865
640.31288	0.01869
639.02711	0.01877
637.74134	0.01887
636.45557	0.01896
635.16980	0.01908
633.88403	0.01924
632.59826	0.01943
631.31249	0.01962
630.02673	0.01990
628.74096	0.02030
627.45519	0.02059
626.16942	0.02130
624.88365	0.02239
623.59788	0.02374
622.31211	0.02534
621.02634	0.02702
619.74057	0.02838
618.45481	0.02905
617.16904	0.02900
615.88327	0.02849
614.59750	0.02799
613.31173	0.02829
612.02596	0.03036
610.74019	0.03451
609.45442	0.03965
608.16866	0.04402
606.88289	0.04671
605.59712	0.04799
604.31135	0.04845
603.02558	0.04844
601.73981	0.04815
600.45404	0.04770
599.16827	0.04707
597.88250	0.04609
596.59674	0.04469
595.31097	0.04313
594.02520	0.04185
592.73943	0.04111
591.45366	0.04083
590.16789	0.04078
588.88212	0.04090
587.59635	0.04125
586.31059	0.04184
585.02482	0.04260
583.73905	0.04344
582.45328	0.04436
581.16751	0.04541
579.88174	0.04657
578.59597	0.04772
577.31020	0.04879
576.02443	0.04975
574.73867	0.05067
573.45290	0.05164
572.16713	0.05270
570.88136	0.05392
569.59559	0.05535
568.30982	0.05701
567.02405	0.05876
565.73828	0.06039
564.45251	0.06170
563.16675	0.06259
561.88098	0.06295
560.59521	0.06256
559.30944	0.06121
558.02367	0.05894
556.73790	0.05610
555.45213	0.05312
554.16636	0.05023
552.88060	0.04746
551.59483	0.04476
550.30906	0.04220
549.02329	0.03997
547.73752	0.03816
546.45175	0.03673
545.16598	0.03555
543.88021	0.03449
542.59444	0.03354
541.30868	0.03272
540.02291	0.03205
538.73714	0.03146
537.45137	0.03093
536.16560	0.03043
534.87983	0.02993
533.59406	0.02937
532.30829	0.02872
531.02253	0.02804
529.73676	0.02748
528.45099	0.02711
527.16522	0.02687
525.87945	0.02662
524.59368	0.02633
523.30791	0.02606
522.02214	0.02590
520.73637	0.02582
519.45061	0.02572
518.16484	0.02553
516.87907	0.02525
515.59330	0.02490
514.30753	0.02451
513.02176	0.02410
511.73599	0.02370
510.45022	0.02333
509.16446	0.02296
507.87869	0.02255
506.59292	0.02207
505.30715	0.02160
504.02138	0.02128
502.73561	0.02117
501.44984	0.02122
500.16407	0.02132
498.87830	0.02144
497.59254	0.02153
496.30677	0.02160
495.02100	0.02163
493.73523	0.02167
492.44946	0.02177
491.16369	0.02191
489.87792	0.02199
488.59215	0.02196
487.30639	0.02186
486.02062	0.02178
484.73485	0.02182
483.44908	0.02200
482.16331	0.02228
480.87754	0.02259
479.59177	0.02289
478.30600	0.02320
477.02023	0.02351
475.73447	0.02385
474.44870	0.02419
473.16293	0.02452
471.87716	0.02475
470.59139	0.02482
469.30562	0.02474
468.01985	0.02459
466.73408	0.02444
465.44832	0.02431
464.16255	0.02420
462.87678	0.02408
461.59101	0.02392
460.30524	0.02372
459.01947	0.02352
457.73370	0.02336
456.44793	0.02328
455.16216	0.02323
453.87640	0.02314
452.59063	0.02295
451.30486	0.02269
450.01909	0.02240
448.73332	0.02217
447.44755	0.02200
446.16178	0.02189
444.87601	0.02183
443.59025	0.02178
442.30448	0.02170
441.01871	0.02155
439.73294	0.02137
438.44717	0.02121
437.16140	0.02112
435.87563	0.02108
434.58986	0.02106
433.30409	0.02105
432.01833	0.02106
430.73256	0.02105
429.44679	0.02098
428.16102	0.02083
426.87525	0.02064
425.58948	0.02048
424.30371	0.02039
423.01794	0.02032
421.73218	0.02022
420.44641	0.02007
419.16064	0.01984
417.87487	0.01957
416.58910	0.01930
415.30333	0.01908
414.01756	0.01890
412.73179	0.01874
411.44602	0.01863
410.16026	0.01855
408.87449	0.01848
407.58872	0.01840
406.30295	0.01828
405.01718	0.01817
403.73141	0.01809
402.44564	0.01811
401.15987	0.01825
399.87411	0.01848
