3997.45528	-0.00930
3996.16951	-0.00895
3994.88374	-0.00899
3993.59798	-0.00936
3992.31221	-0.00952
3991.02644	-0.00902
3989.74067	-0.00800
3988.45490	-0.00712
3987.16913	-0.00691
3985.88336	-0.00739
3984.59759	-0.00808
3983.31183	-0.00843
3982.02606	-0.00813
3980.74029	-0.00726
3979.45452	-0.00626
3978.16875	-0.00567
3976.88298	-0.00574
3975.59721	-0.00624
3974.31144	-0.00663
3973.02567	-0.00642
3971.73991	-0.00558
3970.45414	-0.00454
3969.16837	-0.00382
3967.88260	-0.00364
3966.59683	-0.00395
3965.31106	-0.00459
3964.02529	-0.00531
3962.73952	-0.00573
3961.45376	-0.00556
3960.16799	-0.00494
3958.88222	-0.00430
3957.59645	-0.00397
3956.31068	-0.00391
3955.02491	-0.00380
3953.73914	-0.00336
3952.45337	-0.00262
3951.16760	-0.00200
3949.88184	-0.00193
3948.59607	-0.00243
3947.31030	-0.00314
3946.02453	-0.00380
3944.73876	-0.00436
3943.45299	-0.00476
3942.16722	-0.00490
3940.88145	-0.00483
3939.59569	-0.00468
3938.30992	-0.00447
3937.02415	-0.00412
3935.73838	-0.00375
3934.45261	-0.00356
3933.16684	-0.00365
3931.88107	-0.00394
3930.59530	-0.00430
3929.30953	-0.00456
3928.02377	-0.00450
3926.73800	-0.00400
3925.45223	-0.00305
3924.16646	-0.00171
3922.88069	-0.00042
3921.59492	0.00018
3920.30915	-0.00024
3919.02338	-0.00142
3917.73762	-0.00256
3916.45185	-0.00295
3915.16608	-0.00265
3913.88031	-0.00224
3912.59454	-0.00208
3911.30877	-0.00197
3910.02300	-0.00167
3908.73723	-0.00119
3907.45146	-0.00083
3906.16570	-0.00090
3904.87993	-0.00139
3903.59416	-0.00205
3902.30839	-0.00270
3901.02262	-0.00328
3899.73685	-0.00356
3898.45108	-0.00326
3897.16531	-0.00257
3895.87955	-0.00197
3894.59378	-0.00184
3893.30801	-0.00215
3892.02224	-0.00239
3890.73647	-0.00186
3889.45070	-0.00079
3888.16493	-0.00032
3886.87916	-0.00065
3885.59339	-0.00064
3884.30763	0.00026
3883.02186	0.00113
3881.73609	0.00110
3880.45032	0.00063
3879.16455	0.00052
3877.87878	0.00069
3876.59301	0.00065
3875.30724	0.00049
3874.02148	0.00047
3872.73571	0.00019
3871.44994	-0.00081
3870.16417	-0.00179
3868.87840	-0.00177
3867.59263	-0.00110
3866.30686	-0.00058
3865.02109	-0.00016
3863.73532	0.00034
3862.44956	0.00050
3861.16379	0.00021
3859.87802	0.00011
3858.59225	0.00069
3857.30648	0.00140
3856.02071	0.00141
3854.73494	0.00104
3853.44917	0.00168
3852.16341	0.00350
3850.87764	0.00499
3849.59187	0.00516
3848.30610	0.00446
3847.02033	0.00351
3845.73456	0.00251
3844.44879	0.00161
3843.16302	0.00108
3841.87725	0.00087
3840.59149	0.00040
3839.30572	-0.00047
3838.01995	-0.00093
3836.73418	-0.00027
3835.44841	0.00099
3834.16264	0.00183
3832.87687	0.00198
3831.59110	0.00174
3830.30534	0.00127
3829.01957	0.00060
3827.73380	0.00001
3826.44803	0.00004
3825.16226	0.00063
3823.87649	0.00098
3822.59072	0.00097
3821.30495	0.00157
3820.01918	0.00299
3818.73342	0.00372
3817.44765	0.00280
3816.16188	0.00165
3814.87611	0.00174
3813.59034	0.00232
3812.30457	0.00204
3811.01880	0.00087
3809.73303	-0.00056
3808.44726	-0.00160
3807.16150	-0.00130
3805.87573	0.00071
3804.58996	0.00286
3803.30419	0.00345
3802.01842	0.00294
3800.73265	0.00309
3799.44688	0.00399
3798.16111	0.00441
3796.87535	0.00413
3795.58958	0.00388
3794.30381	0.00383
3793.01804	0.00361
3791.73227	0.00319
3790.44650	0.00279
3789.16073	0.00253
3787.87496	0.00238
3786.58919	0.00234
3785.30343	0.00253
3784.01766	0.00294
3782.73189	0.00324
3781.44612	0.00309
3780.16035	0.00266
3778.87458	0.00243
3777.58881	0.00250
3776.30304	0.00262
3775.01728	0.00276
3773.73151	0.00305
3772.44574	0.00328
3771.15997	0.00317
3769.87420	0.00284
3768.58843	0.00241
3767.30266	0.00183
3766.01689	0.00130
3764.73112	0.00126
3763.44536	0.00160
3762.15959	0.00177
3760.87382	0.00171
3759.58805	0.00183
3758.30228	0.00229
3757.01651	0.00289
3755.73074	0.00322
3754.44497	0.00293
3753.15921	0.00231
3751.87344	0.00215
3750.58767	0.00291
3749.30190	0.00437
3748.01613	0.00552
3746.73036	0.00491
3745.44459	0.00290
3744.15882	0.00178
3742.87305	0.00237
3741.58729	0.00310
3740.30152	0.00296
3739.01575	0.00241
3737.72998	0.00200
3736.44421	0.00190
3735.15844	0.00213
3733.87267	0.00219
3732.58690	0.00193
3731.30114	0.00165
3730.01537	0.00117
3728.72960	0.00008
3727.44383	-0.00139
3726.15806	-0.00231
3724.87229	-0.00245
3723.58652	-0.00248
3722.30075	-0.00272
3721.01498	-0.00305
3719.72922	-0.00317
3718.44345	-0.00259
3717.15768	-0.00119
3715.87191	0.00041
3714.58614	0.00118
3713.30037	0.00083
3712.01460	0.00015
3710.72883	-0.00020
3709.44307	-0.00033
3708.15730	-0.00025
3706.87153	-0.00009
3705.58576	-0.00012
3704.29999	-0.00052
3703.01422	-0.00115
3701.72845	-0.00164
3700.44268	-0.00182
3699.15691	-0.00186
3697.87115	-0.00173
3696.58538	-0.00120
3695.29961	-0.00021
3694.01384	0.00083
3692.72807	0.00168
3691.44230	0.00201
3690.15653	0.00166
3688.87076	0.00131
3687.58500	0.00183
3686.29923	0.00295
3685.01346	0.00358
3683.72769	0.00326
3682.44192	0.00263
3681.15615	0.00252
3679.87038	0.00312
3678.58461	0.00376
3677.29884	0.00393
3676.01308	0.00429
3674.72731	0.00551
3673.44154	0.00643
3672.15577	0.00551
3670.87000	0.00366
3669.58423	0.00296
3668.29846	0.00362
3667.01269	0.00437
3665.72693	0.00466
3664.44116	0.00491
3663.15539	0.00534
3661.86962	0.00585
3660.58385	0.00628
3659.29808	0.00655
3658.01231	0.00667
3656.72654	0.00689
3655.44077	0.00745
3654.15501	0.00787
3652.86924	0.00747
3651.58347	0.00651
3650.29770	0.00603
3649.01193	0.00662
3647.72616	0.00788
3646.44039	0.00903
3645.15462	0.00962
3643.86886	0.00969
3642.58309	0.00953
3641.29732	0.00941
3640.01155	0.00950
3638.72578	0.00988
3637.44001	0.01032
3636.15424	0.01045
3634.86847	0.01026
3633.58270	0.01040
3632.29694	0.01106
3631.01117	0.01171
3629.72540	0.01216
3628.43963	0.01266
3627.15386	0.01293
3625.86809	0.01234
3624.58232	0.01131
3623.29655	0.01068
3622.01079	0.01078
3620.72502	0.01124
3619.43925	0.01200
3618.15348	0.01292
3616.86771	0.01362
3615.58194	0.01402
3614.29617	0.01461
3613.01040	0.01562
3611.72463	0.01645
3610.43887	0.01645
3609.15310	0.01576
3607.86733	0.01521
3606.58156	0.01526
3605.29579	0.01579
3604.01002	0.01646
3602.72425	0.01695
3601.43848	0.01717
3600.15272	0.01722
3598.86695	0.01709
3597.58118	0.01662
3596.29541	0.01603
3595.00964	0.01562
3593.72387	0.01580
3592.43810	0.01666
3591.15233	0.01749
3589.86656	0.01783
3588.58080	0.01819
3587.29503	0.01903
3586.00926	0.02007
3584.72349	0.02059
3583.43772	0.02028
3582.15195	0.01964
3580.86618	0.01936
3579.58041	0.01962
3578.29464	0.02030
3577.00888	0.02124
3575.72311	0.02225
3574.43734	0.02309
3573.15157	0.02367
3571.86580	0.02414
3570.58003	0.02464
3569.29426	0.02514
3568.00849	0.02556
3566.72273	0.02583
3565.43696	0.02600
3564.15119	0.02609
3562.86542	0.02621
3561.57965	0.02639
3560.29388	0.02652
3559.00811	0.02660
3557.72234	0.02676
3556.43657	0.02714
3555.15081	0.02764
3553.86504	0.02806
3552.57927	0.02839
3551.29350	0.02883
3550.00773	0.02947
3548.72196	0.03009
3547.43619	0.03042
3546.15042	0.03033
3544.86466	0.02988
3543.57889	0.02922
3542.29312	0.02861
3541.00735	0.02837
3539.72158	0.02863
3538.43581	0.02932
3537.15004	0.03017
3535.86427	0.03094
3534.57850	0.03143
3533.29274	0.03155
3532.00697	0.03145
3530.72120	0.03143
3529.43543	0.03171
3528.14966	0.03225
3526.86389	0.03288
3525.57812	0.03345
3524.29235	0.03401
3523.00659	0.03463
3521.72082	0.03518
3520.43505	0.03538
3519.14928	0.03514
3517.86351	0.03474
3516.57774	0.03463
3515.29197	0.03504
3514.00620	0.03583
3512.72043	0.03662
3511.43467	0.03712
3510.14890	0.03726
3508.86313	0.03710
3507.57736	0.03680
3506.29159	0.03666
3505.00582	0.03696
3503.72005	0.03773
3502.43428	0.03865
3501.14852	0.03932
3499.86275	0.03963
3498.57698	0.03972
3497.29121	0.03975
3496.00544	0.03985
3494.71967	0.04013
3493.43390	0.04054
3492.14813	0.04093
3490.86236	0.04108
3489.57660	0.04096
3488.29083	0.04077
3487.00506	0.04071
3485.71929	0.04082
3484.43352	0.04098
3483.14775	0.04112
3481.86198	0.04121
3480.57621	0.04128
3479.29045	0.04133
3478.00468	0.04143
3476.71891	0.04168
3475.43314	0.04215
3474.14737	0.04280
3472.86160	0.04354
3471.57583	0.04426
3470.29006	0.04484
3469.00429	0.04517
3467.71853	0.04517
3466.43276	0.04485
3465.14699	0.04429
3463.86122	0.04370
3462.57545	0.04337
3461.28968	0.04342
3460.00391	0.04373
3458.71814	0.04410
3457.43238	0.04447
3456.14661	0.04481
3454.86084	0.04508
3453.57507	0.04532
3452.28930	0.04563
3451.00353	0.04599
3449.71776	0.04611
3448.43199	0.04571
3447.14622	0.04493
3445.86046	0.04435
3444.57469	0.04440
3443.28892	0.04516
3442.00315	0.04634
3440.71738	0.04749
3439.43161	0.04819
3438.14584	0.04824
3436.86007	0.04773
3435.57431	0.04710
3434.28854	0.04677
3433.00277	0.04687
3431.71700	0.04717
3430.43123	0.04738
3429.14546	0.04749
3427.85969	0.04770
3426.57392	0.04814
3425.28815	0.04867
3424.00239	0.04906
3422.71662	0.04921
3421.43085	0.04933
3420.14508	0.04968
3418.85931	0.05028
3417.57354	0.05083
3416.28777	0.05105
3415.00200	0.05099
3413.71624	0.05087
3412.43047	0.05080
3411.14470	0.05068
3409.85893	0.05039
3408.57316	0.05008
3407.28739	0.05013
3406.00162	0.05072
3404.71585	0.05148
3403.43008	0.05185
3402.14432	0.05153
3400.85855	0.05073
3399.57278	0.04990
3398.28701	0.04946
3397.00124	0.04954
3395.71547	0.05008
3394.42970	0.05086
3393.14393	0.05160
3391.85817	0.05210
3390.57240	0.05230
3389.28663	0.05233
3388.00086	0.05236
3386.71509	0.05247
3385.42932	0.05266
3384.14355	0.05284
3382.85778	0.05288
3381.57201	0.05273
3380.28625	0.05246
3379.00048	0.05227
3377.71471	0.05235
3376.42894	0.05269
3375.14317	0.05316
3373.85740	0.05357
3372.57163	0.05384
3371.28586	0.05402
3370.00010	0.05422
3368.71433	0.05446
3367.42856	0.05464
3366.14279	0.05462
3364.85702	0.05438
3363.57125	0.05400
3362.28548	0.05361
3360.99971	0.05326
3359.71394	0.05295
3358.42818	0.05269
3357.14241	0.05261
3355.85664	0.05285
3354.57087	0.05343
3353.28510	0.05423
3351.99933	0.05501
3350.71356	0.05561
3349.42779	0.05590
3348.14202	0.05580
3346.85626	0.05533
3345.57049	0.05463
3344.28472	0.05400
3342.99895	0.05367
3341.71318	0.05368
3340.42741	0.05381
3339.14164	0.05379
3337.85587	0.05362
3336.57011	0.05353
3335.28434	0.05373
3333.99857	0.05416
3332.71280	0.05452
3331.42703	0.05461
3330.14126	0.05441
3328.85549	0.05412
3327.56972	0.05395
3326.28395	0.05409
3324.99819	0.05454
3323.71242	0.05516
3322.42665	0.05573
3321.14088	0.05607
3319.85511	0.05604
3318.56934	0.05561
3317.28357	0.05491
3315.99780	0.05421
3314.71204	0.05381
3313.42627	0.05379
3312.14050	0.05403
3310.85473	0.05429
3309.56896	0.05436
3308.28319	0.05417
3306.99742	0.05379
3305.71165	0.05339
3304.42588	0.05311
3303.14012	0.05300
3301.85435	0.05310
3300.56858	0.05343
3299.28281	0.05388
3297.99704	0.05421
3296.71127	0.05424
3295.42550	0.05402
3294.13973	0.05377
3292.85397	0.05364
3291.56820	0.05364
3290.28243	0.05366
3288.99666	0.05356
3287.71089	0.05328
3286.42512	0.05294
3285.13935	0.05277
3283.85358	0.05297
3282.56781	0.05342
3281.28205	0.05379
3279.99628	0.05378
3278.71051	0.05343
3277.42474	0.05306
3276.13897	0.05292
3274.85320	0.05304
3273.56743	0.05323
3272.28166	0.05335
3270.99590	0.05338
3269.71013	0.05339
3268.42436	0.05340
3267.13859	0.05343
3265.85282	0.05350
3264.56705	0.05359
3263.28128	0.05367
3261.99551	0.05372
3260.70974	0.05377
3259.42398	0.05386
3258.13821	0.05402
3256.85244	0.05416
3255.56667	0.05411
3254.28090	0.05373
3252.99513	0.05307
3251.70936	0.05237
3250.42359	0.05199
3249.13783	0.05206
3247.85206	0.05234
3246.56629	0.05251
3245.28052	0.05246
3243.99475	0.05233
3242.70898	0.05232
3241.42321	0.05242
3240.13744	0.05250
3238.85167	0.05246
3237.56591	0.05236
3236.28014	0.05238
3234.99437	0.05264
3233.70860	0.05307
3232.42283	0.05343
3231.13706	0.05355
3229.85129	0.05337
3228.56552	0.05298
3227.27976	0.05249
3225.99399	0.05200
3224.70822	0.05163
3223.42245	0.05151
3222.13668	0.05161
3220.85091	0.05177
3219.56514	0.05185
3218.27937	0.05188
3216.99360	0.05190
3215.70784	0.05193
3214.42207	0.05193
3213.13630	0.05186
3211.85053	0.05171
3210.56476	0.05149
3209.27899	0.05123
3207.99322	0.05092
3206.70745	0.05060
3205.42169	0.05032
3204.13592	0.05015
3202.85015	0.05009
3201.56438	0.05008
3200.27861	0.05018
3198.99284	0.05041
3197.70707	0.05064
3196.42130	0.05058
3195.13553	0.05013
3193.84977	0.04959
3192.56400	0.04936
3191.27823	0.04958
3189.99246	0.05000
3188.70669	0.05031
3187.42092	0.05041
3186.13515	0.05034
3184.84938	0.05016
3183.56362	0.04993
3182.27785	0.04985
3180.99208	0.05009
3179.70631	0.05059
3178.42054	0.05098
3177.13477	0.05095
3175.84900	0.05048
3174.56323	0.04988
3173.27746	0.04948
3171.99170	0.04937
3170.70593	0.04938
3169.42016	0.04934
3168.13439	0.04922
3166.84862	0.04919
3165.56285	0.04936
3164.27708	0.04956
3162.99131	0.04950
3161.70555	0.04910
3160.41978	0.04863
3159.13401	0.04839
3157.84824	0.04843
3156.56247	0.04849
3155.27670	0.04835
3153.99093	0.04803
3152.70516	0.04766
3151.41939	0.04737
3150.13363	0.04727
3148.84786	0.04743
3147.56209	0.04782
3146.27632	0.04824
3144.99055	0.04851
3143.70478	0.04856
3142.41901	0.04843
3141.13324	0.04815
3139.84748	0.04776
3138.56171	0.04733
3137.27594	0.04699
3135.99017	0.04679
3134.70440	0.04672
3133.41863	0.04670
3132.13286	0.04664
3130.84709	0.04652
3129.56132	0.04642
3128.27556	0.04645
3126.98979	0.04661
3125.70402	0.04678
3124.41825	0.04688
3123.13248	0.04692
3121.84671	0.04692
3120.56094	0.04682
3119.27517	0.04660
3117.98940	0.04631
3116.70364	0.04607
3115.41787	0.04603
3114.13210	0.04617
3112.84633	0.04629
3111.56056	0.04617
3110.27479	0.04579
3108.98902	0.04538
3107.70325	0.04517
3106.41749	0.04518
3105.13172	0.04525
3103.84595	0.04527
3102.56018	0.04524
3101.27441	0.04529
3099.98864	0.04547
3098.70287	0.04572
3097.41710	0.04588
3096.13133	0.04582
3094.84557	0.04552
3093.55980	0.04503
3092.27403	0.04452
3090.98826	0.04420
3089.70249	0.04419
3088.41672	0.04445
3087.13095	0.04481
3085.84518	0.04508
3084.55942	0.04519
3083.27365	0.04509
3081.98788	0.04478
3080.70211	0.04432
3079.41634	0.04380
3078.13057	0.04333
3076.84480	0.04306
3075.55903	0.04311
3074.27326	0.04344
3072.98750	0.04373
3071.70173	0.04363
3070.41596	0.04303
3069.13019	0.04227
3067.84442	0.04182
3066.55865	0.04192
3065.27288	0.04240
3063.98711	0.04291
3062.70135	0.04318
3061.41558	0.04318
3060.12981	0.04306
3058.84404	0.04298
3057.55827	0.04296
3056.27250	0.04291
3054.98673	0.04266
3053.70096	0.04223
3052.41519	0.04181
3051.12943	0.04159
3049.84366	0.04165
3048.55789	0.04186
3047.27212	0.04209
3045.98635	0.04225
3044.70058	0.04230
3043.41481	0.04220
3042.12904	0.04193
3040.84328	0.04158
3039.55751	0.04132
3038.27174	0.04125
3036.98597	0.04131
3035.70020	0.04137
3034.41443	0.04143
3033.12866	0.04156
3031.84289	0.04185
3030.55712	0.04220
3029.27136	0.04243
3027.98559	0.04237
3026.69982	0.04201
3025.41405	0.04150
3024.12828	0.04101
3022.84251	0.04070
3021.55674	0.04072
3020.27097	0.04109
3018.98521	0.04159
3017.69944	0.04190
3016.41367	0.04183
3015.12790	0.04148
3013.84213	0.04107
3012.55636	0.04077
3011.27059	0.04064
3009.98482	0.04068
3008.69905	0.04084
3007.41329	0.04106
3006.12752	0.04122
3004.84175	0.04115
3003.55598	0.04078
3002.27021	0.04019
3000.98444	0.03952
2999.69867	0.03900
2998.41290	0.03889
2997.12714	0.03921
2995.84137	0.03977
2994.55560	0.04020
2993.26983	0.04027
2991.98406	0.04005
2990.69829	0.03984
2989.41252	0.03980
2988.12675	0.03993
2986.84098	0.04016
2985.55522	0.04047
2984.26945	0.04084
2982.98368	0.04119
2981.69791	0.04149
2980.41214	0.04181
2979.12637	0.04216
2977.84060	0.04246
2976.55483	0.04265
2975.26907	0.04277
2973.98330	0.04287
2972.69753	0.04305
2971.41176	0.04338
2970.12599	0.04388
2968.84022	0.04453
2967.55445	0.04524
2966.26868	0.04596
2964.98291	0.04668
2963.69715	0.04734
2962.41138	0.04789
2961.12561	0.04841
2959.83984	0.04899
2958.55407	0.04955
2957.26830	0.04990
2955.98253	0.04995
2954.69676	0.04981
2953.41100	0.04961
2952.12523	0.04942
2950.83946	0.04928
2949.55369	0.04930
2948.26792	0.04948
2946.98215	0.04967
2945.69638	0.04967
2944.41061	0.04942
2943.12484	0.04904
2941.83908	0.04878
2940.55331	0.04886
2939.26754	0.04929
2937.98177	0.04988
2936.69600	0.05038
2935.41023	0.05066
2934.12446	0.05085
2932.83869	0.05112
2931.55293	0.05160
2930.26716	0.05222
2928.98139	0.05284
2927.69562	0.05339
2926.40985	0.05381
2925.12408	0.05405
2923.83831	0.05403
2922.55254	0.05376
2921.26677	0.05334
2919.98101	0.05286
2918.69524	0.05233
2917.40947	0.05170
2916.12370	0.05096
2914.83793	0.05014
2913.55216	0.04933
2912.26639	0.04871
2910.98062	0.04839
2909.69486	0.04832
2908.40909	0.04824
2907.12332	0.04794
2905.83755	0.04744
2904.55178	0.04695
2903.26601	0.04662
2901.98024	0.04645
2900.69447	0.04630
2899.40870	0.04595
2898.12294	0.04541
2896.83717	0.04490
2895.55140	0.04464
2894.26563	0.04455
2892.97986	0.04427
2891.69409	0.04360
2890.40832	0.04278
2889.12255	0.04228
2887.83678	0.04230
2886.55102	0.04261
2885.26525	0.04277
2883.97948	0.04260
2882.69371	0.04221
2881.40794	0.04194
2880.12217	0.04201
2878.83640	0.04239
2877.55063	0.04285
2876.26487	0.04313
2874.97910	0.04312
2873.69333	0.04296
2872.40756	0.04287
2871.12179	0.04295
2869.83602	0.04311
2868.55025	0.04320
2867.26448	0.04318
2865.97871	0.04308
2864.69295	0.04294
2863.40718	0.04276
2862.12141	0.04261
2860.83564	0.04259
2859.54987	0.04273
2858.26410	0.04296
2856.97833	0.04315
2855.69256	0.04319
2854.40680	0.04304
2853.12103	0.04277
2851.83526	0.04248
2850.54949	0.04222
2849.26372	0.04184
2847.97795	0.04120
2846.69218	0.04038
2845.40641	0.03962
2844.12064	0.03904
2842.83488	0.03861
2841.54911	0.03820
2840.26334	0.03780
2838.97757	0.03741
2837.69180	0.03702
2836.40603	0.03656
2835.12026	0.03606
2833.83449	0.03560
2832.54873	0.03518
2831.26296	0.03477
2829.97719	0.03440
2828.69142	0.03417
2827.40565	0.03413
2826.11988	0.03421
2824.83411	0.03425
2823.54834	0.03411
2822.26257	0.03378
2820.97681	0.03334
2819.69104	0.03289
2818.40527	0.03247
2817.11950	0.03208
2815.83373	0.03179
2814.54796	0.03169
2813.26219	0.03178
2811.97642	0.03197
2810.69066	0.03214
2809.40489	0.03228
2808.11912	0.03239
2806.83335	0.03242
2805.54758	0.03233
2804.26181	0.03216
2802.97604	0.03204
2801.69027	0.03203
2800.40450	0.03206
2799.11874	0.03204
2797.83297	0.03194
2796.54720	0.03180
2795.26143	0.03162
2793.97566	0.03138
2792.68989	0.03107
2791.40412	0.03078
2790.11835	0.03064
2788.83259	0.03067
2787.54682	0.03076
2786.26105	0.03076
2784.97528	0.03065
2783.68951	0.03046
2782.40374	0.03026
2781.11797	0.03009
2779.83220	0.02995
2778.54643	0.02982
2777.26067	0.02968
2775.97490	0.02953
2774.68913	0.02944
2773.40336	0.02949
2772.11759	0.02965
2770.83182	0.02979
2769.54605	0.02978
2768.26028	0.02960
2766.97452	0.02942
2765.68875	0.02943
2764.40298	0.02965
2763.11721	0.02980
2761.83144	0.02967
2760.54567	0.02928
2759.25990	0.02892
2757.97413	0.02882
2756.68836	0.02892
2755.40260	0.02899
2754.11683	0.02891
2752.83106	0.02873
2751.54529	0.02860
2750.25952	0.02860
2748.97375	0.02874
2747.68798	0.02890
2746.40221	0.02897
2745.11645	0.02888
2743.83068	0.02869
2742.54491	0.02848
2741.25914	0.02827
2739.97337	0.02807
2738.68760	0.02795
2737.40183	0.02798
2736.11606	0.02812
2734.83029	0.02825
2733.54453	0.02829
2732.25876	0.02819
2730.97299	0.02795
2729.68722	0.02763
2728.40145	0.02744
2727.11568	0.02749
2725.82991	0.02768
2724.54414	0.02772
2723.25838	0.02748
2721.97261	0.02718
2720.68684	0.02710
2719.40107	0.02730
2718.11530	0.02751
2716.82953	0.02752
2715.54376	0.02742
2714.25799	0.02743
2712.97222	0.02757
2711.68646	0.02763
2710.40069	0.02749
2709.11492	0.02721
2707.82915	0.02696
2706.54338	0.02685
2705.25761	0.02687
2703.97184	0.02693
2702.68607	0.02694
2701.40031	0.02683
2700.11454	0.02661
2698.82877	0.02634
2697.54300	0.02612
2696.25723	0.02602
2694.97146	0.02608
2693.68569	0.02625
2692.39992	0.02647
2691.11415	0.02663
2689.82839	0.02661
2688.54262	0.02643
2687.25685	0.02616
2685.97108	0.02592
2684.68531	0.02576
2683.39954	0.02575
2682.11377	0.02587
2680.82800	0.02600
2679.54224	0.02600
2678.25647	0.02582
2676.97070	0.02558
2675.68493	0.02543
2674.39916	0.02540
2673.11339	0.02541
2671.82762	0.02541
2670.54185	0.02544
2669.25608	0.02557
2667.97032	0.02578
2666.68455	0.02593
2665.39878	0.02597
2664.11301	0.02594
2662.82724	0.02588
2661.54147	0.02586
2660.25570	0.02590
2658.96993	0.02594
2657.68417	0.02590
2656.39840	0.02572
2655.11263	0.02552
2653.82686	0.02544
2652.54109	0.02551
2651.25532	0.02562
2649.96955	0.02564
2648.68378	0.02551
2647.39801	0.02529
2646.11225	0.02503
2644.82648	0.02476
2643.54071	0.02442
2642.25494	0.02404
2640.96917	0.02374
2639.68340	0.02363
2638.39763	0.02367
2637.11186	0.02369
2635.82609	0.02356
2634.54033	0.02334
2633.25456	0.02315
2631.96879	0.02308
2630.68302	0.02311
2629.39725	0.02316
2628.11148	0.02315
2626.82571	0.02305
2625.53994	0.02287
2624.25418	0.02258
2622.96841	0.02217
2621.68264	0.02169
2620.39687	0.02127
2619.11110	0.02106
2617.82533	0.02107
2616.53956	0.02124
2615.25379	0.02155
2613.96802	0.02192
2612.68226	0.02221
2611.39649	0.02226
2610.11072	0.02206
2608.82495	0.02174
2607.53918	0.02142
2606.25341	0.02109
2604.96764	0.02075
2603.68187	0.02047
2602.39611	0.02034
2601.11034	0.02032
2599.82457	0.02036
2598.53880	0.02036
2597.25303	0.02030
2595.96726	0.02018
2594.68149	0.02004
2593.39572	0.01990
2592.10995	0.01981
2590.82419	0.01979
2589.53842	0.01985
2588.25265	0.01993
2586.96688	0.01991
2585.68111	0.01973
2584.39534	0.01950
2583.10957	0.01939
2581.82380	0.01946
2580.53804	0.01953
2579.25227	0.01934
2577.96650	0.01886
2576.68073	0.01828
2575.39496	0.01792
2574.10919	0.01800
2572.82342	0.01840
2571.53765	0.01880
2570.25188	0.01894
2568.96612	0.01888
2567.68035	0.01882
2566.39458	0.01882
2565.10881	0.01881
2563.82304	0.01876
2562.53727	0.01878
2561.25150	0.01893
2559.96573	0.01910
2558.67997	0.01915
2557.39420	0.01908
2556.10843	0.01897
2554.82266	0.01890
2553.53689	0.01890
2552.25112	0.01896
2550.96535	0.01895
2549.67958	0.01870
2548.39381	0.01813
2547.10805	0.01742
2545.82228	0.01691
2544.53651	0.01682
2543.25074	0.01707
2541.96497	0.01742
2540.67920	0.01760
2539.39343	0.01754
2538.10766	0.01736
2536.82190	0.01716
2535.53613	0.01696
2534.25036	0.01677
2532.96459	0.01668
2531.67882	0.01676
2530.39305	0.01699
2529.10728	0.01729
2527.82151	0.01758
2526.53574	0.01782
2525.24998	0.01798
2523.96421	0.01804
2522.67844	0.01798
2521.39267	0.01776
2520.10690	0.01739
2518.82113	0.01694
2517.53536	0.01658
2516.24959	0.01645
2514.96383	0.01652
2513.67806	0.01659
2512.39229	0.01648
2511.10652	0.01632
2509.82075	0.01634
2508.53498	0.01664
2507.24921	0.01703
2505.96344	0.01737
2504.67767	0.01762
2503.39191	0.01777
2502.10614	0.01771
2500.82037	0.01740
2499.53460	0.01697
2498.24883	0.01667
2496.96306	0.01658
2495.67729	0.01670
2494.39152	0.01702
2493.10576	0.01748
2491.81999	0.01784
2490.53422	0.01789
2489.24845	0.01769
2487.96268	0.01754
2486.67691	0.01753
2485.39114	0.01744
2484.10537	0.01708
2482.81960	0.01660
2481.53384	0.01631
2480.24807	0.01639
2478.96230	0.01674
2477.67653	0.01709
2476.39076	0.01717
2475.10499	0.01692
2473.81922	0.01655
2472.53345	0.01632
2471.24769	0.01633
2469.96192	0.01645
2468.67615	0.01657
2467.39038	0.01673
2466.10461	0.01701
2464.81884	0.01740
2463.53307	0.01771
2462.24730	0.01779
2460.96153	0.01769
2459.67577	0.01760
2458.39000	0.01769
2457.10423	0.01798
2455.81846	0.01831
2454.53269	0.01845
2453.24692	0.01827
2451.96115	0.01791
2450.67538	0.01761
2449.38962	0.01751
2448.10385	0.01758
2446.81808	0.01764
2445.53231	0.01754
2444.24654	0.01723
2442.96077	0.01679
2441.67500	0.01637
2440.38923	0.01607
2439.10346	0.01589
2437.81770	0.01578
2436.53193	0.01566
2435.24616	0.01553
2433.96039	0.01548
2432.67462	0.01560
2431.38885	0.01589
2430.10308	0.01615
2428.81731	0.01622
2427.53155	0.01610
2426.24578	0.01593
2424.96001	0.01585
2423.67424	0.01590
2422.38847	0.01603
2421.10270	0.01616
2419.81693	0.01628
2418.53116	0.01637
2417.24539	0.01637
2415.95963	0.01618
2414.67386	0.01578
2413.38809	0.01537
2412.10232	0.01523
2410.81655	0.01550
2409.53078	0.01599
2408.24501	0.01639
2406.95924	0.01651
2405.67347	0.01635
2404.38771	0.01603
2403.10194	0.01568
2401.81617	0.01546
2400.53040	0.01547
2399.24463	0.01626
2397.95886	0.01687
2396.67309	0.01702
2395.38732	0.01690
2394.10156	0.01663
2392.81579	0.01623
2391.53002	0.01574
2390.24425	0.01532
2388.95848	0.01506
2387.67271	0.01502
2386.38694	0.01508
2385.10117	0.01505
2383.81540	0.01485
2382.52964	0.01451
2381.24387	0.01425
2379.95810	0.01407
2378.67233	0.01396
2377.38656	0.01387
2376.10079	0.01333
2374.81502	0.01230
2373.52925	0.01121
2372.24349	0.01018
2370.95772	0.00962
2369.67195	0.00899
2368.38618	0.00848
2367.10041	0.00887
2365.81464	0.00967
2364.52887	0.00952
2363.24310	0.00875
2361.95733	0.00842
2360.67157	0.00853
2359.38580	0.00815
2358.10003	0.00774
2356.81426	0.00744
2355.52849	0.00681
2354.24272	0.00635
2352.95695	0.00630
2351.67118	0.00738
2350.38542	0.01011
2349.09965	0.01194
2347.81388	0.01048
2346.52811	0.00810
2345.24234	0.00778
2343.95657	0.00909
2342.67080	0.01003
2341.38503	0.01067
2340.09926	0.01166
2338.81350	0.01240
2337.52773	0.01253
2336.24196	0.01140
2334.95619	0.00998
2333.67042	0.00942
2332.38465	0.00920
2331.09888	0.00953
2329.81311	0.01072
2328.52735	0.01189
2327.24158	0.01325
2325.95581	0.01467
2324.67004	0.01542
2323.38427	0.01572
2322.09850	0.01573
2320.81273	0.01502
2319.52696	0.01429
2318.24119	0.01402
2316.95543	0.01395
2315.66966	0.01400
2314.38389	0.01408
2313.09812	0.01414
2311.81235	0.01402
2310.52658	0.01373
2309.24081	0.01359
2307.95504	0.01369
2306.66928	0.01387
2305.38351	0.01421
2304.09774	0.01451
2302.81197	0.01460
2301.52620	0.01450
2300.24043	0.01433
2298.95466	0.01420
2297.66889	0.01413
2296.38312	0.01419
2295.09736	0.01438
2293.81159	0.01464
2292.52582	0.01487
2291.24005	0.01490
2289.95428	0.01473
2288.66851	0.01443
2287.38274	0.01413
2286.09697	0.01393
2284.81121	0.01397
2283.52544	0.01421
2282.23967	0.01444
2280.95390	0.01448
2279.66813	0.01427
2278.38236	0.01403
2277.09659	0.01396
2275.81082	0.01413
2274.52505	0.01438
2273.23929	0.01445
2271.95352	0.01427
2270.66775	0.01393
2269.38198	0.01357
2268.09621	0.01329
2266.81044	0.01309
2265.52467	0.01286
2264.23890	0.01251
2262.95314	0.01214
2261.66737	0.01194
2260.38160	0.01206
2259.09583	0.01243
2257.81006	0.01277
2256.52429	0.01287
2255.23852	0.01266
2253.95275	0.01219
2252.66698	0.01157
2251.38122	0.01096
2250.09545	0.01065
2248.80968	0.01074
2247.52391	0.01060
2246.23814	0.01040
2244.95237	0.01030
2243.66660	0.01057
2242.38083	0.01120
2241.09507	0.01184
2239.80930	0.01202
2238.52353	0.01155
2237.23776	0.01069
2235.95199	0.00996
2234.66622	0.00968
2233.38045	0.00984
2232.09468	0.01025
2230.80891	0.01067
2229.52315	0.01078
2228.23738	0.01035
2226.95161	0.00954
2225.66584	0.00878
2224.38007	0.00835
2223.09430	0.00826
2221.80853	0.00835
2220.52276	0.00860
2219.23700	0.00912
2217.95123	0.01004
2216.66546	0.01120
2215.37969	0.01199
2214.09392	0.01165
2212.80815	0.00999
2211.52238	0.00782
2210.23661	0.00640
2208.95084	0.00633
2207.66508	0.00706
2206.37931	0.00748
2205.09354	0.00707
2203.80777	0.00625
2202.52200	0.00567
2201.23623	0.00552
2199.95046	0.00556
2198.66469	0.00557
2197.37893	0.00565
2196.09316	0.00598
2194.80739	0.00666
2193.52162	0.00751
2192.23585	0.00816
2190.95008	0.00815
2189.66431	0.00722
2188.37854	0.00561
2187.09277	0.00401
2185.80701	0.00305
2184.52124	0.00279
2183.23547	0.00284
2181.94970	0.00300
2180.66393	0.00331
2179.37816	0.00369
2178.09239	0.00377
2176.80662	0.00340
2175.52085	0.00294
2174.23509	0.00296
2172.94932	0.00350
2171.66355	0.00409
2170.37778	0.00414
2169.09201	0.00344
2167.80624	0.00220
2166.52047	0.00095
2165.23470	0.00032
2163.94894	0.00060
2162.66317	0.00145
2161.37740	0.00202
2160.09163	0.00163
2158.80586	0.00036
2157.52009	-0.00104
2156.23432	-0.00175
2154.94855	-0.00143
2153.66278	-0.00033
2152.37702	0.00088
2151.09125	0.00167
2149.80548	0.00205
2148.51971	0.00235
2147.23394	0.00278
2145.94817	0.00332
2144.66240	0.00375
2143.37663	0.00396
2142.09087	0.00407
2140.80510	0.00446
2139.51933	0.00527
2138.23356	0.00602
2136.94779	0.00605
2135.66202	0.00530
2134.37625	0.00447
2133.09048	0.00426
2131.80471	0.00473
2130.51895	0.00551
2129.23318	0.00624
2127.94741	0.00677
2126.66164	0.00701
2125.37587	0.00697
2124.09010	0.00671
2122.80433	0.00644
2121.51856	0.00642
2120.23280	0.00673
2118.94703	0.00707
2117.66126	0.00705
2116.37549	0.00664
2115.08972	0.00629
2113.80395	0.00639
2112.51818	0.00679
2111.23241	0.00706
2109.94664	0.00710
2108.66088	0.00716
2107.37511	0.00742
2106.08934	0.00781
2104.80357	0.00827
2103.51780	0.00879
2102.23203	0.00930
2100.94626	0.00955
2099.66049	0.00974
2098.37473	0.00908
2097.08896	0.00786
2095.80319	0.00678
2094.51742	0.00641
2093.23165	0.00684
2091.94588	0.00763
2090.66011	0.00821
2089.37434	0.00829
2088.08857	0.00801
2086.80281	0.00767
2085.51704	0.00738
2084.23127	0.00706
2082.94550	0.00664
2081.65973	0.00623
2080.37396	0.00600
2079.08819	0.00598
2077.80242	0.00597
2076.51666	0.00584
2075.23089	0.00563
2073.94512	0.00553
2072.65935	0.00563
2071.37358	0.00585
2070.08781	0.00597
2068.80204	0.00583
2067.51627	0.00541
2066.23050	0.00493
2064.94474	0.00468
2063.65897	0.00476
2062.37320	0.00496
2061.08743	0.00504
2059.80166	0.00500
2058.51589	0.00507
2057.23012	0.00523
2055.94435	0.00513
2054.65859	0.00455
2053.37282	0.00379
2052.08705	0.00344
2050.80128	0.00374
2049.51551	0.00433
2048.22974	0.00468
2046.94397	0.00450
2045.65820	0.00380
2044.37243	0.00288
2043.08667	0.00220
2041.80090	0.00216
2040.51513	0.00274
2039.22936	0.00345
2037.94359	0.00372
2036.65782	0.00343
2035.37205	0.00304
2034.08628	0.00300
2032.80052	0.00325
2031.51475	0.00328
2030.22898	0.00276
2028.94321	0.00195
2027.65744	0.00137
2026.37167	0.00128
2025.08590	0.00157
2023.80013	0.00209
2022.51436	0.00287
2021.22860	0.00382
2019.94283	0.00461
2018.65706	0.00492
2017.37129	0.00491
2016.08552	0.00496
2014.79975	0.00522
2013.51398	0.00552
2012.22821	0.00576
2010.94245	0.00591
2009.65668	0.00579
2008.37091	0.00520
2007.08514	0.00438
2005.79937	0.00388
2004.51360	0.00395
2003.22783	0.00429
2001.94206	0.00453
2000.65629	0.00465
1999.37053	0.00483
1998.08476	0.00512
1996.79899	0.00532
1995.51322	0.00526
1994.22745	0.00501
1992.94168	0.00484
1991.65591	0.00495
1990.37014	0.00532
1989.08438	0.00586
1987.79861	0.00648
1986.51284	0.00711
1985.22707	0.00759
1983.94130	0.00785
1982.65553	0.00798
1981.36976	0.00808
1980.08399	0.00808
1978.79822	0.00780
1977.51246	0.00720
1976.22669	0.00643
1974.94092	0.00579
1973.65515	0.00559
1972.36938	0.00596
1971.08361	0.00669
1969.79784	0.00729
1968.51207	0.00737
1967.22631	0.00701
1965.94054	0.00656
1964.65477	0.00621
1963.36900	0.00587
1962.08323	0.00547
1960.79746	0.00514
1959.51169	0.00504
1958.22592	0.00513
1956.94015	0.00528
1955.65439	0.00554
1954.36862	0.00602
1953.08285	0.00663
1951.79708	0.00719
1950.51131	0.00757
1949.22554	0.00777
1947.93977	0.00771
1946.65400	0.00737
1945.36823	0.00688
1944.08247	0.00656
1942.79670	0.00666
1941.51093	0.00713
1940.22516	0.00767
1938.93939	0.00809
1937.65362	0.00837
1936.36785	0.00857
1935.08208	0.00870
1933.79632	0.00871
1932.51055	0.00860
1931.22478	0.00837
1929.93901	0.00809
1928.65324	0.00787
1927.36747	0.00775
1926.08170	0.00764
1924.79593	0.00742
1923.51016	0.00717
1922.22440	0.00712
1920.93863	0.00734
1919.65286	0.00769
1918.36709	0.00799
1917.08132	0.00815
1915.79555	0.00813
1914.50978	0.00804
1913.22401	0.00805
1911.93825	0.00813
1910.65248	0.00812
1909.36671	0.00796
1908.08094	0.00787
1906.79517	0.00802
1905.50940	0.00836
1904.22363	0.00874
1902.93786	0.00910
1901.65209	0.00945
1900.36633	0.00972
1899.08056	0.00973
1897.79479	0.00942
1896.50902	0.00900
1895.22325	0.00877
1893.93748	0.00887
1892.65171	0.00918
1891.36594	0.00945
1890.08018	0.00963
1888.79441	0.00980
1887.50864	0.01000
1886.22287	0.01018
1884.93710	0.01026
1883.65133	0.01020
1882.36556	0.01000
1881.07979	0.00970
1879.79402	0.00940
1878.50826	0.00922
1877.22249	0.00923
1875.93672	0.00938
1874.65095	0.00961
1873.36518	0.00986
1872.07941	0.01010
1870.79364	0.01023
1869.50787	0.01021
1868.22211	0.01008
1866.93634	0.00989
1865.65057	0.00971
1864.36480	0.00961
1863.07903	0.00967
1861.79326	0.00988
1860.50749	0.01014
1859.22172	0.01031
1857.93595	0.01030
1856.65019	0.01012
1855.36442	0.00984
1854.07865	0.00958
1852.79288	0.00937
1851.50711	0.00919
1850.22134	0.00910
1848.93557	0.00917
1847.64980	0.00942
1846.36404	0.00963
1845.07827	0.00971
1843.79250	0.00985
1842.50673	0.01013
1841.22096	0.01030
1839.93519	0.01022
1838.64942	0.01000
1837.36365	0.00984
1836.07788	0.00977
1834.79212	0.00975
1833.50635	0.00976
1832.22058	0.00974
1830.93481	0.00972
1829.64904	0.00986
1828.36327	0.01010
1827.07750	0.01018
1825.79173	0.01003
1824.50597	0.00991
1823.22020	0.01000
1821.93443	0.01021
1820.64866	0.01038
1819.36289	0.01038
1818.07712	0.01018
1816.79135	0.00993
1815.50558	0.00979
1814.21981	0.00982
1812.93405	0.00993
1811.64828	0.01007
1810.36251	0.01022
1809.07674	0.01032
1807.79097	0.01032
1806.50520	0.01023
1805.21943	0.01013
1803.93366	0.01008
1802.64790	0.01006
1801.36213	0.01010
1800.07636	0.01021
1798.79059	0.01038
1797.50482	0.01064
1796.21905	0.01097
1794.93328	0.01122
1793.64751	0.01128
1792.36174	0.01127
1791.07598	0.01133
1789.79021	0.01141
1788.50444	0.01133
1787.21867	0.01110
1785.93290	0.01086
1784.64713	0.01078
1783.36136	0.01085
1782.07559	0.01093
1780.78983	0.01097
1779.50406	0.01104
1778.21829	0.01124
1776.93252	0.01156
1775.64675	0.01189
1774.36098	0.01200
1773.07521	0.01198
1771.78944	0.01208
1770.50367	0.01222
1769.21791	0.01216
1767.93214	0.01200
1766.64637	0.01203
1765.36060	0.01219
1764.07483	0.01222
1762.78906	0.01214
1761.50329	0.01220
1760.21752	0.01239
1758.93176	0.01248
1757.64599	0.01241
1756.36022	0.01243
1755.07445	0.01265
1753.78868	0.01281
1752.50291	0.01276
1751.21714	0.01267
1749.93137	0.01271
1748.64560	0.01275
1747.35984	0.01269
1746.07407	0.01262
1744.78830	0.01263
1743.50253	0.01272
1742.21676	0.01276
1740.93099	0.01276
1739.64522	0.01295
1738.35945	0.01348
1737.07369	0.01394
1735.78792	0.01391
1734.50215	0.01370
1733.21638	0.01387
1731.93061	0.01426
1730.64484	0.01430
1729.35907	0.01398
1728.07330	0.01370
1726.78753	0.01361
1725.50177	0.01366
1724.21600	0.01381
1722.93023	0.01417
1721.64446	0.01467
1720.35869	0.01504
1719.07292	0.01516
1717.78715	0.01533
1716.50138	0.01577
1715.21561	0.01625
1713.92985	0.01649
1712.64408	0.01652
1711.35831	0.01655
1710.07254	0.01668
1708.78677	0.01688
1707.50100	0.01707
1706.21523	0.01737
1704.92946	0.01801
1703.64370	0.01877
1702.35793	0.01913
1701.07216	0.01922
1699.78639	0.01972
1698.50062	0.02041
1697.21485	0.02050
1695.92908	0.02013
1694.64331	0.02011
1693.35754	0.02039
1692.07178	0.02044
1690.78601	0.02037
1689.50024	0.02070
1688.21447	0.02139
1686.92870	0.02186
1685.64293	0.02188
1684.35716	0.02198
1683.07139	0.02246
1681.78563	0.02289
1680.49986	0.02298
1679.21409	0.02300
1677.92832	0.02315
1676.64255	0.02332
1675.35678	0.02367
1674.07101	0.02433
1672.78524	0.02502
1671.49947	0.02532
1670.21371	0.02535
1668.92794	0.02548
1667.64217	0.02588
1666.35640	0.02629
1665.07063	0.02646
1663.78486	0.02643
1662.49909	0.02646
1661.21332	0.02664
1659.92756	0.02693
1658.64179	0.02742
1657.35602	0.02817
1656.07025	0.02878
1654.78448	0.02875
1653.49871	0.02851
1652.21294	0.02886
1650.92717	0.02962
1649.64140	0.02985
1648.35564	0.02930
1647.06987	0.02868
1645.78410	0.02852
1644.49833	0.02870
1643.21256	0.02880
1641.92679	0.02873
1640.64102	0.02875
1639.35525	0.02894
1638.06949	0.02902
1636.78372	0.02887
1635.49795	0.02879
1634.21218	0.02900
1632.92641	0.02928
1631.64064	0.02933
1630.35487	0.02922
1629.06910	0.02921
1627.78333	0.02938
1626.49757	0.02961
1625.21180	0.02966
1623.92603	0.02955
1622.64026	0.02955
1621.35449	0.02977
1620.06872	0.02994
1618.78295	0.02978
1617.49718	0.02950
1616.21142	0.02956
1614.92565	0.02994
1613.63988	0.03021
1612.35411	0.03020
1611.06834	0.03019
1609.78257	0.03037
1608.49680	0.03066
1607.21103	0.03093
1605.92526	0.03112
1604.63950	0.03122
1603.35373	0.03128
1602.06796	0.03136
1600.78219	0.03147
1599.49642	0.03160
1598.21065	0.03173
1596.92488	0.03186
1595.63911	0.03199
1594.35335	0.03214
1593.06758	0.03230
1591.78181	0.03248
1590.49604	0.03267
1589.21027	0.03289
1587.92450	0.03314
1586.63873	0.03340
1585.35296	0.03363
1584.06719	0.03381
1582.78143	0.03398
1581.49566	0.03429
1580.20989	0.03476
1578.92412	0.03510
1577.63835	0.03511
1576.35258	0.03510
1575.06681	0.03552
1573.78104	0.03617
1572.49528	0.03653
1571.20951	0.03653
1569.92374	0.03657
1568.63797	0.03684
1567.35220	0.03712
1566.06643	0.03725
1564.78066	0.03748
1563.49489	0.03803
1562.20912	0.03856
1560.92336	0.03871
1559.63759	0.03875
1558.35182	0.03919
1557.06605	0.03979
1555.78028	0.03985
1554.49451	0.03942
1553.20874	0.03905
1551.92297	0.03892
1550.63721	0.03889
1549.35144	0.03895
1548.06567	0.03915
1546.77990	0.03940
1545.49413	0.03969
1544.20836	0.04005
1542.92259	0.04028
1541.63682	0.04012
1540.35105	0.03968
1539.06529	0.03945
1537.77952	0.03953
1536.49375	0.03948
1535.20798	0.03907
1533.92221	0.03865
1532.63644	0.03866
1531.35067	0.03898
1530.06490	0.03928
1528.77914	0.03950
1527.49337	0.03981
1526.20760	0.04039
1524.92183	0.04118
1523.63606	0.04191
1522.35029	0.04248
1521.06452	0.04317
1519.77875	0.04405
1518.49298	0.04482
1517.20722	0.04540
1515.92145	0.04608
1514.63568	0.04699
1513.34991	0.04800
1512.06414	0.04917
1510.77837	0.05054
1509.49260	0.05186
1508.20683	0.05287
1506.92107	0.05378
1505.63530	0.05498
1504.34953	0.05631
1503.06376	0.05734
1501.77799	0.05803
1500.49222	0.05872
1499.20645	0.05952
1497.92068	0.06026
1496.63491	0.06096
1495.34915	0.06174
1494.06338	0.06254
1492.77761	0.06317
1491.49184	0.06365
1490.20607	0.06421
1488.92030	0.06492
1487.63453	0.06562
1486.34876	0.06628
1485.06299	0.06694
1483.77723	0.06767
1482.49146	0.06848
1481.20569	0.06941
1479.91992	0.07043
1478.63415	0.07147
1477.34838	0.07250
1476.06261	0.07350
1474.77684	0.07438
1473.49108	0.07508
1472.20531	0.07577
1470.91954	0.07652
1469.63377	0.07717
1468.34800	0.07754
1467.06223	0.07765
1465.77646	0.07769
1464.49069	0.07789
1463.20492	0.07835
1461.91916	0.07901
1460.63339	0.07968
1459.34762	0.08018
1458.06185	0.08052
1456.77608	0.08099
1455.49031	0.08170
1454.20454	0.08226
1452.91877	0.08245
1451.63301	0.08243
1450.34724	0.08244
1449.06147	0.08244
1447.77570	0.08234
1446.48993	0.08216
1445.20416	0.08183
1443.91839	0.08139
1442.63262	0.08098
1441.34685	0.08079
1440.06109	0.08076
1438.77532	0.08069
1437.48955	0.08059
1436.20378	0.08073
1434.91801	0.08113
1433.63224	0.08158
1432.34647	0.08200
1431.06070	0.08260
1429.77494	0.08351
1428.48917	0.08466
1427.20340	0.08587
1425.91763	0.08706
1424.63186	0.08832
1423.34609	0.08971
1422.06032	0.09104
1420.77455	0.09208
1419.48878	0.09296
1418.20302	0.09386
1416.91725	0.09464
1415.63148	0.09504
1414.34571	0.09509
1413.05994	0.09498
1411.77417	0.09476
1410.48840	0.09444
1409.20263	0.09397
1407.91687	0.09326
1406.63110	0.09227
1405.34533	0.09105
1404.05956	0.08973
1402.77379	0.08834
1401.48802	0.08678
1400.20225	0.08508
1398.91648	0.08339
1397.63071	0.08175
1396.34495	0.08002
1395.05918	0.07812
1393.77341	0.07618
1392.48764	0.07425
1391.20187	0.07226
1389.91610	0.07016
1388.63033	0.06806
1387.34456	0.06611
1386.05880	0.06433
1384.77303	0.06259
1383.48726	0.06078
1382.20149	0.05898
1380.91572	0.05725
1379.62995	0.05556
1378.34418	0.05387
1377.05841	0.05211
1375.77264	0.05027
1374.48688	0.04842
1373.20111	0.04664
1371.91534	0.04493
1370.62957	0.04324
1369.34380	0.04161
1368.05803	0.04015
1366.77226	0.03887
1365.48649	0.03769
1364.20073	0.03651
1362.91496	0.03535
1361.62919	0.03428
1360.34342	0.03329
1359.05765	0.03233
1357.77188	0.03141
1356.48611	0.03054
1355.20034	0.02975
1353.91457	0.02902
1352.62881	0.02834
1351.34304	0.02769
1350.05727	0.02709
1348.77150	0.02652
1347.48573	0.02597
1346.19996	0.02546
1344.91419	0.02501
1343.62842	0.02461
1342.34266	0.02421
1341.05689	0.02380
1339.77112	0.02340
1338.48535	0.02305
1337.19958	0.02274
1335.91381	0.02247
1334.62804	0.02220
1333.34227	0.02193
1332.05650	0.02165
1330.77074	0.02137
1329.48497	0.02112
1328.19920	0.02089
1326.91343	0.02068
1325.62766	0.02048
1324.34189	0.02027
1323.05612	0.02007
1321.77035	0.01988
1320.48459	0.01970
1319.19882	0.01952
1317.91305	0.01934
1316.62728	0.01916
1315.34151	0.01898
1314.05574	0.01884
1312.76997	0.01876
1311.48420	0.01871
1310.19843	0.01866
1308.91267	0.01858
1307.62690	0.01847
1306.34113	0.01831
1305.05536	0.01811
1303.76959	0.01789
1302.48382	0.01770
1301.19805	0.01757
1299.91228	0.01748
1298.62652	0.01743
1297.34075	0.01737
1296.05498	0.01729
1294.76921	0.01720
1293.48344	0.01711
1292.19767	0.01704
1290.91190	0.01698
1289.62613	0.01692
1288.34036	0.01684
1287.05460	0.01673
1285.76883	0.01661
1284.48306	0.01650
1283.19729	0.01640
1281.91152	0.01632
1280.62575	0.01623
1279.33998	0.01614
1278.05421	0.01606
1276.76845	0.01597
1275.48268	0.01586
1274.19691	0.01573
1272.91114	0.01561
1271.62537	0.01553
1270.33960	0.01550
1269.05383	0.01550
1267.76806	0.01549
1266.48229	0.01545
1265.19653	0.01537
1263.91076	0.01527
1262.62499	0.01518
1261.33922	0.01510
1260.05345	0.01505
1258.76768	0.01501
1257.48191	0.01498
1256.19614	0.01495
1254.91037	0.01494
1253.62461	0.01494
1252.33884	0.01495
1251.05307	0.01493
1249.76730	0.01487
1248.48153	0.01479
1247.19576	0.01470
1245.90999	0.01461
1244.62422	0.01452
1243.33846	0.01443
1242.05269	0.01436
1240.76692	0.01429
1239.48115	0.01422
1238.19538	0.01414
1236.90961	0.01408
1235.62384	0.01406
1234.33807	0.01405
1233.05230	0.01402
1231.76654	0.01399
1230.48077	0.01397
1229.19500	0.01397
1227.90923	0.01398
1226.62346	0.01398
1225.33769	0.01395
1224.05192	0.01391
1222.76615	0.01387
1221.48039	0.01382
1220.19462	0.01375
1218.90885	0.01366
1217.62308	0.01355
1216.33731	0.01347
1215.05154	0.01344
1213.76577	0.01347
1212.48000	0.01354
1211.19423	0.01364
1209.90847	0.01374
1208.62270	0.01383
1207.33693	0.01386
1206.05116	0.01384
1204.76539	0.01379
1203.47962	0.01375
1202.19385	0.01373
1200.90808	0.01372
1199.62232	0.01367
1198.33655	0.01371
1197.05078	0.01374
1195.76501	0.01377
1194.47924	0.01381
1193.19347	0.01385
1191.90770	0.01390
1190.62193	0.01393
1189.33616	0.01392
1188.05040	0.01392
1186.76463	0.01396
1185.47886	0.01404
1184.19309	0.01409
1182.90732	0.01409
1181.62155	0.01405
1180.33578	0.01401
1179.05001	0.01403
1177.76425	0.01413
1176.47848	0.01430
1175.19271	0.01449
1173.90694	0.01464
1172.62117	0.01473
1171.33540	0.01478
1170.04963	0.01483
1168.76386	0.01494
1167.47809	0.01512
1166.19233	0.01535
1164.90656	0.01559
1163.62079	0.01580
1162.33502	0.01595
1161.04925	0.01608
1159.76348	0.01626
1158.47771	0.01653
1157.19194	0.01687
1155.90618	0.01724
1154.62041	0.01759
1153.33464	0.01793
1152.04887	0.01831
1150.76310	0.01875
1149.47733	0.01924
1148.19156	0.01976
1146.90579	0.02034
1145.62002	0.02097
1144.33426	0.02163
1143.04849	0.02230
1141.76272	0.02302
1140.47695	0.02386
1139.19118	0.02486
1137.90541	0.02602
1136.61964	0.02731
1135.33387	0.02870
1134.04811	0.03016
1132.76234	0.03172
1131.47657	0.03347
1130.19080	0.03548
1128.90503	0.03772
1127.61926	0.04013
1126.33349	0.04270
1125.04772	0.04548
1123.76195	0.04848
1122.47619	0.05168
1121.19042	0.05497
1119.90465	0.05827
1118.61888	0.06152
1117.33311	0.06473
1116.04734	0.06796
1114.76157	0.07121
1113.47580	0.07441
1112.19004	0.07748
1110.90427	0.08041
1109.61850	0.08326
1108.33273	0.08608
1107.04696	0.08884
1105.76119	0.09153
1104.47542	0.09418
1103.18965	0.09678
1101.90388	0.09932
1100.61812	0.10177
1099.33235	0.10409
1098.04658	0.10630
1096.76081	0.10847
1095.47504	0.11059
1094.18927	0.11265
1092.90350	0.11460
1091.61773	0.11641
1090.33197	0.11808
1089.04620	0.11966
1087.76043	0.12120
1086.47466	0.12279
1085.18889	0.12443
1083.90312	0.12614
1082.61735	0.12791
1081.33158	0.12975
1080.04581	0.13171
1078.76005	0.13379
1077.47428	0.13600
1076.18851	0.13833
1074.90274	0.14079
1073.61697	0.14340
1072.33120	0.14617
1071.04543	0.14908
1069.75966	0.15211
1068.47390	0.15518
1067.18813	0.15826
1065.90236	0.16136
1064.61659	0.16449
1063.33082	0.16766
1062.04505	0.17089
1060.75928	0.17416
1059.47351	0.17748
1058.18774	0.18081
1056.90198	0.18408
1055.61621	0.18731
1054.33044	0.19052
1053.04467	0.19373
1051.75890	0.19696
1050.47313	0.20018
1049.18736	0.20342
1047.90159	0.20673
1046.61583	0.21014
1045.33006	0.21367
1044.04429	0.21724
1042.75852	0.22079
1041.47275	0.22432
1040.18698	0.22788
1038.90121	0.23152
1037.61544	0.23520
1036.32967	0.23884
1035.04391	0.24236
1033.75814	0.24573
1032.47237	0.24889
1031.18660	0.25177
1029.90083	0.25426
1028.61506	0.25629
1027.32929	0.25792
1026.04352	0.25918
1024.75775	0.26012
1023.47199	0.26071
1022.18622	0.26089
1020.90045	0.26059
1019.61468	0.25978
1018.32891	0.25848
1017.04314	0.25668
1015.75737	0.25437
1014.47160	0.25157
1013.18584	0.24834
1011.90007	0.24466
1010.61430	0.24052
1009.32853	0.23594
1008.04276	0.23099
1006.75699	0.22572
1005.47122	0.22012
1004.18545	0.21421
1002.89968	0.20808
1001.61392	0.20181
1000.32815	0.19541
999.04238	0.18885
997.75661	0.18211
996.47084	0.17529
995.18507	0.16852
993.89930	0.16188
992.61353	0.15539
991.32777	0.14905
990.04200	0.14286
988.75623	0.13689
987.47046	0.13116
986.18469	0.12570
984.89892	0.12051
983.61315	0.11559
982.32738	0.11095
981.04161	0.10660
979.75585	0.10254
978.47008	0.09879
977.18431	0.09538
975.89854	0.09236
974.61277	0.08979
973.32700	0.08774
972.04123	0.08623
970.75546	0.08526
969.46970	0.08488
968.18393	0.08508
966.89816	0.08579
965.61239	0.08685
964.32662	0.08802
963.04085	0.08903
961.75508	0.08963
960.46931	0.08959
959.18354	0.08883
957.89778	0.08735
956.61201	0.08530
955.32624	0.08287
954.04047	0.08027
952.75470	0.07765
951.46893	0.07509
950.18316	0.07262
948.89739	0.07029
947.61163	0.06813
946.32586	0.06611
945.04009	0.06413
943.75432	0.06211
942.46855	0.06008
941.18278	0.05813
939.89701	0.05637
938.61124	0.05481
937.32547	0.05337
936.03971	0.05203
934.75394	0.05081
933.46817	0.04972
932.18240	0.04868
930.89663	0.04762
929.61086	0.04656
928.32509	0.04558
927.03932	0.04471
925.75356	0.04393
924.46779	0.04317
923.18202	0.04247
921.89625	0.04187
920.61048	0.04139
919.32471	0.04098
918.03894	0.04060
916.75317	0.04020
915.46740	0.03973
914.18164	0.03918
912.89587	0.03858
911.61010	0.03798
910.32433	0.03747
909.03856	0.03709
907.75279	0.03685
906.46702	0.03665
905.18125	0.03644
903.89549	0.03621
902.60972	0.03596
901.32395	0.03569
900.03818	0.03541
898.75241	0.03517
897.46664	0.03499
896.18087	0.03488
894.89510	0.03483
893.60933	0.03478
892.32357	0.03477
891.03780	0.03488
889.75203	0.03520
888.46626	0.03576
887.18049	0.03659
885.89472	0.03775
884.60895	0.03941
883.32318	0.04167
882.03742	0.04437
880.75165	0.04707
879.46588	0.04934
878.18011	0.05105
876.89434	0.05247
875.60857	0.05391
874.32280	0.05540
873.03703	0.05660
871.75126	0.05714
870.46550	0.05687
869.17973	0.05591
867.89396	0.05443
866.60819	0.05251
865.32242	0.05025
864.03665	0.04783
862.75088	0.04552
861.46511	0.04347
860.17935	0.04170
858.89358	0.04018
857.60781	0.03891
856.32204	0.03788
855.03627	0.03705
853.75050	0.03634
852.46473	0.03569
851.17896	0.03509
849.89319	0.03455
848.60743	0.03406
847.32166	0.03364
846.03589	0.03329
844.75012	0.03305
843.46435	0.03288
842.17858	0.03273
840.89281	0.03253
839.60704	0.03227
838.32128	0.03201
837.03551	0.03178
835.74974	0.03159
834.46397	0.03141
833.17820	0.03125
831.89243	0.03111
830.60666	0.03095
829.32089	0.03080
828.03512	0.03066
826.74936	0.03056
825.46359	0.03051
824.17782	0.03046
822.89205	0.03039
821.60628	0.03030
820.32051	0.03023
819.03474	0.03020
817.74897	0.03021
816.46321	0.03020
815.17744	0.03010
813.89167	0.02993
812.60590	0.02981
811.32013	0.02981
810.03436	0.02990
808.74859	0.02998
807.46282	0.02998
806.17705	0.02993
804.89129	0.02991
803.60552	0.02992
802.31975	0.02994
801.03398	0.02991
799.74821	0.02983
798.46244	0.02973
797.17667	0.02966
795.89090	0.02965
794.60513	0.02968
793.31937	0.02973
792.03360	0.02973
790.74783	0.02968
789.46206	0.02957
788.17629	0.02948
786.89052	0.02941
785.60475	0.02938
784.31898	0.02935
783.03322	0.02932
781.74745	0.02930
780.46168	0.02929
779.17591	0.02931
777.89014	0.02936
776.60437	0.02942
775.31860	0.02948
774.03283	0.02953
772.74706	0.02954
771.46130	0.02950
770.17553	0.02943
768.88976	0.02937
767.60399	0.02934
766.31822	0.02933
765.03245	0.02930
763.74668	0.02924
762.46091	0.02922
761.17515	0.02927
759.88938	0.02939
758.60361	0.02956
757.31784	0.02975
756.03207	0.02993
754.74630	0.03006
753.46053	0.03012
752.17476	0.03011
750.88899	0.03008
749.60323	0.03006
748.31746	0.03006
747.03169	0.03004
745.74592	0.02998
744.46015	0.02992
743.17438	0.02987
741.88861	0.02984
740.60284	0.02982
739.31708	0.02977
738.03131	0.02972
736.74554	0.02970
735.45977	0.02974
734.17400	0.02984
732.88823	0.02997
731.60246	0.03008
730.31669	0.03013
729.03092	0.03012
727.74516	0.03008
726.45939	0.03006
725.17362	0.03004
723.88785	0.02996
722.60208	0.03005
721.31631	0.03020
720.03054	0.03036
718.74477	0.03054
717.45901	0.03055
716.17324	0.03045
714.88747	0.03034
713.60170	0.03021
712.31593	0.03006
711.03016	0.02992
709.74439	0.02979
708.45862	0.02967
707.17285	0.02956
705.88709	0.02949
704.60132	0.02945
703.31555	0.02946
702.02978	0.02950
700.74401	0.02957
699.45824	0.02965
698.17247	0.02973
696.88670	0.02981
695.60094	0.02989
694.31517	0.02999
693.02940	0.03010
691.74363	0.03020
690.45786	0.03026
689.17209	0.03025
687.88632	0.03015
686.60055	0.02999
685.31478	0.02983
684.02902	0.02975
682.74325	0.02978
681.45748	0.02985
680.17171	0.02989
678.88594	0.02983
677.60017	0.02971
676.31440	0.02957
675.02863	0.02953
673.74287	0.02989
672.45710	0.03096
671.17133	0.03232
669.88556	0.03219
668.59979	0.03006
667.31402	0.03007
666.02825	0.03178
664.74248	0.03150
663.45671	0.03018
662.17095	0.02929
660.88518	0.02899
659.59941	0.02899
658.31364	0.02906
657.02787	0.02910
655.74210	0.02911
654.45633	0.02913
653.17056	0.02915
651.88480	0.02918
650.59903	0.02920
649.31326	0.02918
648.02749	0.02916
646.74172	0.02912
645.45595	0.02908
644.17018	0.02909
642.88441	0.02914
641.59864	0.02923
640.31288	0.02936
639.02711	0.02953
637.74134	0.02975
636.45557	0.02999
635.16980	0.03022
633.88403	0.03046
632.59826	0.03081
631.31249	0.03145
630.02673	0.03251
628.74096	0.03355
627.45519	0.03392
626.16942	0.03546
624.88365	0.03760
623.59788	0.03968
622.31211	0.04205
621.02634	0.04521
619.74057	0.04872
618.45481	0.05155
617.16904	0.05356
615.88327	0.05547
614.59750	0.05785
613.31173	0.06070
612.02596	0.06414
610.74019	0.06868
609.45442	0.07434
608.16866	0.08027
606.88289	0.08547
605.59712	0.08962
604.31135	0.09278
603.02558	0.09506
601.73981	0.09640
600.45404	0.09658
599.16827	0.09538
597.88250	0.09296
596.59674	0.08981
595.31097	0.08650
594.02520	0.08344
592.73943	0.08077
591.45366	0.07862
590.16789	0.07715
588.88212	0.07656
587.59635	0.07691
586.31059	0.07804
585.02482	0.07975
583.73905	0.08187
582.45328	0.08425
581.16751	0.08675
579.88174	0.08929
578.59597	0.09186
577.31020	0.09446
576.02443	0.09704
574.73867	0.09949
573.45290	0.10181
572.16713	0.10412
570.88136	0.10665
569.59559	0.10960
568.30982	0.11301
567.02405	0.11680
565.73828	0.12075
564.45251	0.12438
563.16675	0.12705
561.88098	0.12818
560.59521	0.12748
559.30944	0.12497
558.02367	0.12085
556.73790	0.11553
555.45213	0.10949
554.16636	0.10324
552.88060	0.09719
551.59483	0.09157
550.30906	0.08650
549.02329	0.08189
547.73752	0.07753
546.45175	0.07326
545.16598	0.06917
543.88021	0.06551
542.59444	0.06246
541.30868	0.06000
540.02291	0.05794
538.73714	0.05608
537.45137	0.05429
536.16560	0.05249
534.87983	0.05072
533.59406	0.04904
532.30829	0.04748
531.02253	0.04606
529.73676	0.04480
528.45099	0.04370
527.16522	0.04271
525.87945	0.04177
524.59368	0.04079
523.30791	0.03975
522.02214	0.03870
520.73637	0.03773
519.45061	0.03692
518.16484	0.03624
516.87907	0.03565
515.59330	0.03506
514.30753	0.03446
513.02176	0.03386
511.73599	0.03325
510.45022	0.03265
509.16446	0.03210
507.87869	0.03166
506.59292	0.03133
505.30715	0.03106
504.02138	0.03073
502.73561	0.03029
501.44984	0.02975
500.16407	0.02917
498.87830	0.02866
497.59254	0.02826
496.30677	0.02795
495.02100	0.02766
493.73523	0.02741
492.44946	0.02727
491.16369	0.02722
489.87792	0.02718
488.59215	0.02705
487.30639	0.02685
486.02062	0.02663
484.73485	0.02644
483.44908	0.02629
482.16331	0.02625
480.87754	0.02634
479.59177	0.02656
478.30600	0.02685
477.02023	0.02719
475.73447	0.02756
474.44870	0.02789
473.16293	0.02810
471.87716	0.02812
470.59139	0.02794
469.30562	0.02765
468.01985	0.02736
466.73408	0.02714
465.44832	0.02694
464.16255	0.02671
462.87678	0.02642
461.59101	0.02611
460.30524	0.02580
459.01947	0.02554
457.73370	0.02535
456.44793	0.02519
455.16216	0.02496
453.87640	0.02464
452.59063	0.02430
451.30486	0.02404
450.01909	0.02385
448.73332	0.02368
447.44755	0.02351
446.16178	0.02334
444.87601	0.02318
443.59025	0.02305
442.30448	0.02294
441.01871	0.02283
439.73294	0.02268
438.44717	0.02249
437.16140	0.02230
435.87563	0.02214
434.58986	0.02201
433.30409	0.02187
432.01833	0.02173
430.73256	0.02165
429.44679	0.02162
428.16102	0.02162
426.87525	0.02163
425.58948	0.02161
424.30371	0.02159
423.01794	0.02157
421.73218	0.02148
420.44641	0.02127
419.16064	0.02102
417.87487	0.02086
416.58910	0.02078
415.30333	0.02072
414.01756	0.02065
412.73179	0.02057
411.44602	0.02052
410.16026	0.02052
408.87449	0.02059
407.58872	0.02071
406.30295	0.02084
405.01718	0.02096
403.73141	0.02108
402.44564	0.02119
401.15987	0.02125
399.87411	0.02128
