3997.45528	0.06376
3996.16951	0.06309
3994.88374	0.06281
3993.59798	0.06295
3992.31221	0.06337
3991.02644	0.06389
3989.74067	0.06439
3988.45490	0.06479
3987.16913	0.06514
3985.88336	0.06538
3984.59759	0.06545
3983.31183	0.06530
3982.02606	0.06509
3980.74029	0.06502
3979.45452	0.06519
3978.16875	0.06550
3976.88298	0.06574
3975.59721	0.06580
3974.31144	0.06569
3973.02567	0.06549
3971.73991	0.06519
3970.45414	0.06481
3969.16837	0.06438
3967.88260	0.06400
3966.59683	0.06371
3965.31106	0.06353
3964.02529	0.06351
3962.73952	0.06370
3961.45376	0.06415
3960.16799	0.06476
3958.88222	0.06523
3957.59645	0.06521
3956.31068	0.06462
3955.02491	0.06388
3953.73914	0.06355
3952.45337	0.06389
3951.16760	0.06460
3949.88184	0.06522
3948.59607	0.06554
3947.31030	0.06565
3946.02453	0.06567
3944.73876	0.06562
3943.45299	0.06547
3942.16722	0.06534
3940.88145	0.06532
3939.59569	0.06538
3938.30992	0.06535
3937.02415	0.06511
3935.73838	0.06459
3934.45261	0.06394
3933.16684	0.06343
3931.88107	0.06326
3930.59530	0.06338
3929.30953	0.06360
3928.02377	0.06374
3926.73800	0.06379
3925.45223	0.06384
3924.16646	0.06401
3922.88069	0.06420
3921.59492	0.06412
3920.30915	0.06367
3919.02338	0.06316
3917.73762	0.06300
3916.45185	0.06332
3915.16608	0.06392
3913.88031	0.06456
3912.59454	0.06509
3911.30877	0.06534
3910.02300	0.06516
3908.73723	0.06464
3907.45146	0.06417
3906.16570	0.06400
3904.87993	0.06410
3903.59416	0.06423
3902.30839	0.06414
3901.02262	0.06384
3899.73685	0.06352
3898.45108	0.06340
3897.16531	0.06357
3895.87955	0.06400
3894.59378	0.06449
3893.30801	0.06459
3892.02224	0.06405
3890.73647	0.06329
3889.45070	0.06287
3888.16493	0.06271
3886.87916	0.06237
3885.59339	0.06186
3884.30763	0.06159
3883.02186	0.06175
3881.73609	0.06204
3880.45032	0.06222
3879.16455	0.06227
3877.87878	0.06232
3876.59301	0.06252
3875.30724	0.06315
3874.02148	0.06435
3872.73571	0.06567
3871.44994	0.06626
3870.16417	0.06593
3868.87840	0.06518
3867.59263	0.06447
3866.30686	0.06387
3865.02109	0.06334
3863.73532	0.06289
3862.44956	0.06244
3861.16379	0.06201
3859.87802	0.06195
3858.59225	0.06264
3857.30648	0.06391
3856.02071	0.06486
3854.73494	0.06479
3853.44917	0.06404
3852.16341	0.06348
3850.87764	0.06342
3849.59187	0.06351
3848.30610	0.06340
3847.02033	0.06300
3845.73456	0.06249
3844.44879	0.06208
3843.16302	0.06189
3841.87725	0.06184
3840.59149	0.06158
3839.30572	0.06085
3838.01995	0.05978
3836.73418	0.05886
3835.44841	0.05841
3834.16264	0.05851
3832.87687	0.05908
3831.59110	0.05991
3830.30534	0.06064
3829.01957	0.06105
3827.73380	0.06129
3826.44803	0.06169
3825.16226	0.06217
3823.87649	0.06216
3822.59072	0.06142
3821.30495	0.06051
3820.01918	0.06004
3818.73342	0.05984
3817.44765	0.05941
3816.16188	0.05886
3814.87611	0.05877
3813.59034	0.05937
3812.30457	0.06048
3811.01880	0.06169
3809.73303	0.06240
3808.44726	0.06225
3807.16150	0.06169
3805.87573	0.06142
3804.58996	0.06138
3803.30419	0.06094
3802.01842	0.06004
3800.73265	0.05945
3799.44688	0.05972
3798.16111	0.06054
3796.87535	0.06131
3795.58958	0.06170
3794.30381	0.06162
3793.01804	0.06118
3791.73227	0.06070
3790.44650	0.06037
3789.16073	0.06017
3787.87496	0.05997
3786.58919	0.05976
3785.30343	0.05969
3784.01766	0.05983
3782.73189	0.05996
3781.44612	0.05976
3780.16035	0.05928
3778.87458	0.05888
3777.58881	0.05873
3776.30304	0.05863
3775.01728	0.05837
3773.73151	0.05810
3772.44574	0.05804
3771.15997	0.05824
3769.87420	0.05849
3768.58843	0.05852
3767.30266	0.05821
3766.01689	0.05775
3764.73112	0.05768
3763.44536	0.05835
3762.15959	0.05957
3760.87382	0.06061
3759.58805	0.06076
3758.30228	0.05990
3757.01651	0.05871
3755.73074	0.05799
3754.44497	0.05786
3753.15921	0.05774
3751.87344	0.05714
3750.58767	0.05633
3749.30190	0.05621
3748.01613	0.05715
3746.73036	0.05816
3745.44459	0.05816
3744.15882	0.05742
3742.87305	0.05697
3741.58729	0.05727
3740.30152	0.05802
3739.01575	0.05858
3737.72998	0.05846
3736.44421	0.05785
3735.15844	0.05730
3733.87267	0.05703
3732.58690	0.05690
3731.30114	0.05680
3730.01537	0.05677
3728.72960	0.05685
3727.44383	0.05715
3726.15806	0.05768
3724.87229	0.05814
3723.58652	0.05812
3722.30075	0.05752
3721.01498	0.05665
3719.72922	0.05589
3718.44345	0.05541
3717.15768	0.05525
3715.87191	0.05541
3714.58614	0.05584
3713.30037	0.05631
3712.01460	0.05649
3710.72883	0.05628
3709.44307	0.05585
3708.15730	0.05553
3706.87153	0.05546
3705.58576	0.05545
3704.29999	0.05534
3703.01422	0.05523
3701.72845	0.05531
3700.44268	0.05562
3699.15691	0.05587
3697.87115	0.05568
3696.58538	0.05516
3695.29961	0.05496
3694.01384	0.05555
3692.72807	0.05667
3691.44230	0.05756
3690.15653	0.05765
3688.87076	0.05708
3687.58500	0.05647
3686.29923	0.05615
3685.01346	0.05576
3683.72769	0.05497
3682.44192	0.05421
3681.15615	0.05432
3679.87038	0.05572
3678.58461	0.05772
3677.29884	0.05895
3676.01308	0.05879
3674.72731	0.05782
3673.44154	0.05685
3672.15577	0.05618
3670.87000	0.05581
3669.58423	0.05569
3668.29846	0.05568
3667.01269	0.05570
3665.72693	0.05596
3664.44116	0.05655
3663.15539	0.05720
3661.86962	0.05757
3660.58385	0.05762
3659.29808	0.05753
3658.01231	0.05743
3656.72654	0.05747
3655.44077	0.05788
3654.15501	0.05868
3652.86924	0.05954
3651.58347	0.06012
3650.29770	0.06031
3649.01193	0.06015
3647.72616	0.05971
3646.44039	0.05921
3645.15462	0.05902
3643.86886	0.05940
3642.58309	0.06023
3641.29732	0.06108
3640.01155	0.06156
3638.72578	0.06161
3637.44001	0.06139
3636.15424	0.06113
3634.86847	0.06105
3633.58270	0.06145
3632.29694	0.06231
3631.01117	0.06321
3629.72540	0.06367
3628.43963	0.06371
3627.15386	0.06361
3625.86809	0.06358
3624.58232	0.06366
3623.29655	0.06377
3622.01079	0.06382
3620.72502	0.06390
3619.43925	0.06423
3618.15348	0.06486
3616.86771	0.06552
3615.58194	0.06596
3614.29617	0.06617
3613.01040	0.06625
3611.72463	0.06613
3610.43887	0.06579
3609.15310	0.06559
3607.86733	0.06591
3606.58156	0.06663
3605.29579	0.06716
3604.01002	0.06705
3602.72425	0.06653
3601.43848	0.06625
3600.15272	0.06671
3598.86695	0.06780
3597.58118	0.06889
3596.29541	0.06947
3595.00964	0.06962
3593.72387	0.06978
3592.43810	0.07013
3591.15233	0.07049
3589.86656	0.07071
3588.58080	0.07077
3587.29503	0.07074
3586.00926	0.07062
3584.72349	0.07043
3583.43772	0.07024
3582.15195	0.07019
3580.86618	0.07039
3579.58041	0.07075
3578.29464	0.07104
3577.00888	0.07114
3575.72311	0.07119
3574.43734	0.07150
3573.15157	0.07218
3571.86580	0.07311
3570.58003	0.07407
3569.29426	0.07486
3568.00849	0.07535
3566.72273	0.07547
3565.43696	0.07535
3564.15119	0.07528
3562.86542	0.07545
3561.57965	0.07588
3560.29388	0.07650
3559.00811	0.07724
3557.72234	0.07793
3556.43657	0.07833
3555.15081	0.07832
3553.86504	0.07806
3552.57927	0.07787
3551.29350	0.07790
3550.00773	0.07812
3548.72196	0.07851
3547.43619	0.07913
3546.15042	0.07996
3544.86466	0.08078
3543.57889	0.08131
3542.29312	0.08145
3541.00735	0.08139
3539.72158	0.08138
3538.43581	0.08160
3537.15004	0.08202
3535.86427	0.08243
3534.57850	0.08264
3533.29274	0.08260
3532.00697	0.08246
3530.72120	0.08233
3529.43543	0.08224
3528.14966	0.08224
3526.86389	0.08245
3525.57812	0.08294
3524.29235	0.08362
3523.00659	0.08427
3521.72082	0.08479
3520.43505	0.08518
3519.14928	0.08558
3517.86351	0.08607
3516.57774	0.08661
3515.29197	0.08704
3514.00620	0.08726
3512.72043	0.08727
3511.43467	0.08711
3510.14890	0.08693
3508.86313	0.08681
3507.57736	0.08673
3506.29159	0.08659
3505.00582	0.08644
3503.72005	0.08656
3502.43428	0.08721
3501.14852	0.08837
3499.86275	0.08958
3498.57698	0.09026
3497.29121	0.09013
3496.00544	0.08948
3494.71967	0.08899
3493.43390	0.08915
3492.14813	0.08998
3490.86236	0.09100
3489.57660	0.09165
3488.29083	0.09173
3487.00506	0.09151
3485.71929	0.09138
3484.43352	0.09154
3483.14775	0.09192
3481.86198	0.09239
3480.57621	0.09289
3479.29045	0.09343
3478.00468	0.09391
3476.71891	0.09417
3475.43314	0.09415
3474.14737	0.09395
3472.86160	0.09376
3471.57583	0.09366
3470.29006	0.09372
3469.00429	0.09401
3467.71853	0.09458
3466.43276	0.09529
3465.14699	0.09585
3463.86122	0.09610
3462.57545	0.09617
3461.28968	0.09623
3460.00391	0.09631
3458.71814	0.09642
3457.43238	0.09667
3456.14661	0.09707
3454.86084	0.09743
3453.57507	0.09745
3452.28930	0.09714
3451.00353	0.09681
3449.71776	0.09681
3448.43199	0.09718
3447.14622	0.09761
3445.86046	0.09771
3444.57469	0.09736
3443.28892	0.09676
3442.00315	0.09631
3440.71738	0.09619
3439.43161	0.09635
3438.14584	0.09662
3436.86007	0.09689
3435.57431	0.09713
3434.28854	0.09744
3433.00277	0.09789
3431.71700	0.09842
3430.43123	0.09891
3429.14546	0.09936
3427.85969	0.09980
3426.57392	0.10012
3425.28815	0.10005
3424.00239	0.09954
3422.71662	0.09902
3421.43085	0.09903
3420.14508	0.09968
3418.85931	0.10054
3417.57354	0.10104
3416.28777	0.10100
3415.00200	0.10063
3413.71624	0.10028
3412.43047	0.10018
3411.14470	0.10045
3409.85893	0.10105
3408.57316	0.10178
3407.28739	0.10230
3406.00162	0.10242
3404.71585	0.10229
3403.43008	0.10231
3402.14432	0.10278
3400.85855	0.10363
3399.57278	0.10443
3398.28701	0.10484
3397.00124	0.10475
3395.71547	0.10428
3394.42970	0.10377
3393.14393	0.10358
3391.85817	0.10376
3390.57240	0.10406
3389.28663	0.10422
3388.00086	0.10421
3386.71509	0.10424
3385.42932	0.10446
3384.14355	0.10488
3382.85778	0.10535
3381.57201	0.10566
3380.28625	0.10560
3379.00048	0.10517
3377.71471	0.10461
3376.42894	0.10428
3375.14317	0.10436
3373.85740	0.10471
3372.57163	0.10506
3371.28586	0.10523
3370.00010	0.10528
3368.71433	0.10534
3367.42856	0.10546
3366.14279	0.10557
3364.85702	0.10561
3363.57125	0.10561
3362.28548	0.10565
3360.99971	0.10575
3359.71394	0.10593
3358.42818	0.10613
3357.14241	0.10630
3355.85664	0.10636
3354.57087	0.10634
3353.28510	0.10644
3351.99933	0.10676
3350.71356	0.10719
3349.42779	0.10740
3348.14202	0.10722
3346.85626	0.10675
3345.57049	0.10626
3344.28472	0.10588
3342.99895	0.10564
3341.71318	0.10551
3340.42741	0.10555
3339.14164	0.10571
3337.85587	0.10587
3336.57011	0.10595
3335.28434	0.10589
3333.99857	0.10570
3332.71280	0.10549
3331.42703	0.10546
3330.14126	0.10575
3328.85549	0.10627
3327.56972	0.10669
3326.28395	0.10679
3324.99819	0.10668
3323.71242	0.10658
3322.42665	0.10651
3321.14088	0.10630
3319.85511	0.10588
3318.56934	0.10540
3317.28357	0.10514
3315.99780	0.10529
3314.71204	0.10590
3313.42627	0.10686
3312.14050	0.10787
3310.85473	0.10860
3309.56896	0.10882
3308.28319	0.10853
3306.99742	0.10788
3305.71165	0.10705
3304.42588	0.10628
3303.14012	0.10577
3301.85435	0.10557
3300.56858	0.10550
3299.28281	0.10539
3297.99704	0.10522
3296.71127	0.10513
3295.42550	0.10519
3294.13973	0.10529
3292.85397	0.10530
3291.56820	0.10523
3290.28243	0.10523
3288.99666	0.10534
3287.71089	0.10547
3286.42512	0.10547
3285.13935	0.10532
3283.85358	0.10511
3282.56781	0.10488
3281.28205	0.10459
3279.99628	0.10424
3278.71051	0.10391
3277.42474	0.10371
3276.13897	0.10372
3274.85320	0.10388
3273.56743	0.10405
3272.28166	0.10412
3270.99590	0.10412
3269.71013	0.10416
3268.42436	0.10427
3267.13859	0.10436
3265.85282	0.10431
3264.56705	0.10412
3263.28128	0.10395
3261.99551	0.10399
3260.70974	0.10427
3259.42398	0.10461
3258.13821	0.10478
3256.85244	0.10468
3255.56667	0.10437
3254.28090	0.10405
3252.99513	0.10390
3251.70936	0.10402
3250.42359	0.10433
3249.13783	0.10459
3247.85206	0.10455
3246.56629	0.10422
3245.28052	0.10381
3243.99475	0.10363
3242.70898	0.10374
3241.42321	0.10399
3240.13744	0.10410
3238.85167	0.10393
3237.56591	0.10357
3236.28014	0.10323
3234.99437	0.10298
3233.70860	0.10277
3232.42283	0.10253
3231.13706	0.10227
3229.85129	0.10208
3228.56552	0.10203
3227.27976	0.10213
3225.99399	0.10230
3224.70822	0.10250
3223.42245	0.10271
3222.13668	0.10291
3220.85091	0.10304
3219.56514	0.10302
3218.27937	0.10284
3216.99360	0.10250
3215.70784	0.10208
3214.42207	0.10170
3213.13630	0.10144
3211.85053	0.10132
3210.56476	0.10126
3209.27899	0.10119
3207.99322	0.10111
3206.70745	0.10106
3205.42169	0.10109
3204.13592	0.10126
3202.85015	0.10153
3201.56438	0.10175
3200.27861	0.10166
3198.99284	0.10119
3197.70707	0.10054
3196.42130	0.10003
3195.13553	0.09975
3193.84977	0.09948
3192.56400	0.09905
3191.27823	0.09860
3189.99246	0.09850
3188.70669	0.09894
3187.42092	0.09970
3186.13515	0.10030
3184.84938	0.10042
3183.56362	0.10012
3182.27785	0.09969
3180.99208	0.09934
3179.70631	0.09900
3178.42054	0.09859
3177.13477	0.09813
3175.84900	0.09775
3174.56323	0.09754
3173.27746	0.09748
3171.99170	0.09757
3170.70593	0.09781
3169.42016	0.09812
3168.13439	0.09839
3166.84862	0.09848
3165.56285	0.09831
3164.27708	0.09793
3162.99131	0.09749
3161.70555	0.09723
3160.41978	0.09721
3159.13401	0.09725
3157.84824	0.09711
3156.56247	0.09679
3155.27670	0.09647
3153.99093	0.09629
3152.70516	0.09623
3151.41939	0.09617
3150.13363	0.09602
3148.84786	0.09577
3147.56209	0.09547
3146.27632	0.09523
3144.99055	0.09507
3143.70478	0.09485
3142.41901	0.09444
3141.13324	0.09392
3139.84748	0.09358
3138.56171	0.09361
3137.27594	0.09394
3135.99017	0.09434
3134.70440	0.09463
3133.41863	0.09471
3132.13286	0.09459
3130.84709	0.09432
3129.56132	0.09399
3128.27556	0.09375
3126.98979	0.09367
3125.70402	0.09373
3124.41825	0.09382
3123.13248	0.09379
3121.84671	0.09360
3120.56094	0.09328
3119.27517	0.09295
3117.98940	0.09275
3116.70364	0.09273
3115.41787	0.09276
3114.13210	0.09268
3112.84633	0.09243
3111.56056	0.09211
3110.27479	0.09183
3108.98902	0.09166
3107.70325	0.09161
3106.41749	0.09171
3105.13172	0.09192
3103.84595	0.09211
3102.56018	0.09214
3101.27441	0.09189
3099.98864	0.09137
3098.70287	0.09070
3097.41710	0.09011
3096.13133	0.08980
3094.84557	0.08977
3093.55980	0.08986
3092.27403	0.08991
3090.98826	0.08989
3089.70249	0.08983
3088.41672	0.08976
3087.13095	0.08963
3085.84518	0.08942
3084.55942	0.08921
3083.27365	0.08917
3081.98788	0.08942
3080.70211	0.08982
3079.41634	0.09012
3078.13057	0.09013
3076.84480	0.08987
3075.55903	0.08945
3074.27326	0.08902
3072.98750	0.08869
3071.70173	0.08851
3070.41596	0.08848
3069.13019	0.08854
3067.84442	0.08860
3066.55865	0.08861
3065.27288	0.08858
3063.98711	0.08858
3062.70135	0.08864
3061.41558	0.08866
3060.12981	0.08848
3058.84404	0.08808
3057.55827	0.08764
3056.27250	0.08734
3054.98673	0.08720
3053.70096	0.08715
3052.41519	0.08716
3051.12943	0.08724
3049.84366	0.08737
3048.55789	0.08741
3047.27212	0.08730
3045.98635	0.08704
3044.70058	0.08667
3043.41481	0.08614
3042.12904	0.08541
3040.84328	0.08467
3039.55751	0.08428
3038.27174	0.08443
3036.98597	0.08494
3035.70020	0.08536
3034.41443	0.08540
3033.12866	0.08504
3031.84289	0.08455
3030.55712	0.08413
3029.27136	0.08386
3027.98559	0.08369
3026.69982	0.08355
3025.41405	0.08337
3024.12828	0.08312
3022.84251	0.08286
3021.55674	0.08268
3020.27097	0.08264
3018.98521	0.08271
3017.69944	0.08283
3016.41367	0.08294
3015.12790	0.08301
3013.84213	0.08301
3012.55636	0.08288
3011.27059	0.08254
3009.98482	0.08203
3008.69905	0.08156
3007.41329	0.08137
3006.12752	0.08151
3004.84175	0.08175
3003.55598	0.08179
3002.27021	0.08159
3000.98444	0.08129
2999.69867	0.08105
2998.41290	0.08105
2997.12714	0.08117
2995.84137	0.08126
2994.55560	0.08119
2993.26983	0.08096
2991.98406	0.08073
2990.69829	0.08078
2989.41252	0.08111
2988.12675	0.08150
2986.84098	0.08169
2985.55522	0.08167
2984.26945	0.08170
2982.98368	0.08204
2981.69791	0.08274
2980.41214	0.08367
2979.12637	0.08464
2977.84060	0.08558
2976.55483	0.08653
2975.26907	0.08755
2973.98330	0.08873
2972.69753	0.09012
2971.41176	0.09169
2970.12599	0.09330
2968.84022	0.09483
2967.55445	0.09631
2966.26868	0.09783
2964.98291	0.09949
2963.69715	0.10135
2962.41138	0.10333
2961.12561	0.10520
2959.83984	0.10674
2958.55407	0.10790
2957.26830	0.10885
2955.98253	0.10986
2954.69676	0.11103
2953.41100	0.11227
2952.12523	0.11335
2950.83946	0.11406
2949.55369	0.11432
2948.26792	0.11420
2946.98215	0.11388
2945.69638	0.11347
2944.41061	0.11309
2943.12484	0.11291
2941.83908	0.11312
2940.55331	0.11381
2939.26754	0.11486
2937.98177	0.11604
2936.69600	0.11722
2935.41023	0.11845
2934.12446	0.11983
2932.83869	0.12141
2931.55293	0.12309
2930.26716	0.12471
2928.98139	0.12616
2927.69562	0.12736
2926.40985	0.12824
2925.12408	0.12875
2923.83831	0.12886
2922.55254	0.12860
2921.26677	0.12802
2919.98101	0.12720
2918.69524	0.12632
2917.40947	0.12545
2916.12370	0.12452
2914.83793	0.12339
2913.55216	0.12207
2912.26639	0.12072
2910.98062	0.11948
2909.69486	0.11833
2908.40909	0.11720
2907.12332	0.11607
2905.83755	0.11495
2904.55178	0.11383
2903.26601	0.11274
2901.98024	0.11173
2900.69447	0.11075
2899.40870	0.10967
2898.12294	0.10845
2896.83717	0.10723
2895.55140	0.10622
2894.26563	0.10536
2892.97986	0.10443
2891.69409	0.10330
2890.40832	0.10210
2889.12255	0.10101
2887.83678	0.10011
2886.55102	0.09934
2885.26525	0.09866
2883.97948	0.09811
2882.69371	0.09770
2881.40794	0.09744
2880.12217	0.09735
2878.83640	0.09748
2877.55063	0.09783
2876.26487	0.09831
2874.97910	0.09878
2873.69333	0.09919
2872.40756	0.09973
2871.12179	0.10059
2869.83602	0.10167
2868.55025	0.10262
2867.26448	0.10310
2865.97871	0.10309
2864.69295	0.10285
2863.40718	0.10267
2862.12141	0.10266
2860.83564	0.10273
2859.54987	0.10275
2858.26410	0.10269
2856.97833	0.10257
2855.69256	0.10241
2854.40680	0.10213
2853.12103	0.10161
2851.83526	0.10084
2850.54949	0.09991
2849.26372	0.09897
2847.97795	0.09803
2846.69218	0.09696
2845.40641	0.09568
2844.12064	0.09424
2842.83488	0.09286
2841.54911	0.09163
2840.26334	0.09045
2838.97757	0.08914
2837.69180	0.08767
2836.40603	0.08613
2835.12026	0.08465
2833.83449	0.08326
2832.54873	0.08194
2831.26296	0.08074
2829.97719	0.07972
2828.69142	0.07886
2827.40565	0.07810
2826.11988	0.07739
2824.83411	0.07677
2823.54834	0.07627
2822.26257	0.07587
2820.97681	0.07551
2819.69104	0.07508
2818.40527	0.07453
2817.11950	0.07389
2815.83373	0.07326
2814.54796	0.07280
2813.26219	0.07256
2811.97642	0.07244
2810.69066	0.07231
2809.40489	0.07209
2808.11912	0.07185
2806.83335	0.07161
2805.54758	0.07140
2804.26181	0.07116
2802.97604	0.07089
2801.69027	0.07054
2800.40450	0.07015
2799.11874	0.06981
2797.83297	0.06965
2796.54720	0.06964
2795.26143	0.06964
2793.97566	0.06951
2792.68989	0.06922
2791.40412	0.06884
2790.11835	0.06844
2788.83259	0.06811
2787.54682	0.06789
2786.26105	0.06779
2784.97528	0.06772
2783.68951	0.06757
2782.40374	0.06734
2781.11797	0.06709
2779.83220	0.06683
2778.54643	0.06650
2777.26067	0.06616
2775.97490	0.06594
2774.68913	0.06594
2773.40336	0.06611
2772.11759	0.06630
2770.83182	0.06633
2769.54605	0.06607
2768.26028	0.06558
2766.97452	0.06508
2765.68875	0.06482
2764.40298	0.06490
2763.11721	0.06514
2761.83144	0.06531
2760.54567	0.06528
2759.25990	0.06513
2757.97413	0.06496
2756.68836	0.06480
2755.40260	0.06463
2754.11683	0.06441
2752.83106	0.06414
2751.54529	0.06389
2750.25952	0.06378
2748.97375	0.06387
2747.68798	0.06406
2746.40221	0.06413
2745.11645	0.06392
2743.83068	0.06352
2742.54491	0.06317
2741.25914	0.06301
2739.97337	0.06306
2738.68760	0.06321
2737.40183	0.06334
2736.11606	0.06337
2734.83029	0.06328
2733.54453	0.06306
2732.25876	0.06278
2730.97299	0.06259
2729.68722	0.06255
2728.40145	0.06261
2727.11568	0.06260
2725.82991	0.06245
2724.54414	0.06223
2723.25838	0.06207
2721.97261	0.06198
2720.68684	0.06185
2719.40107	0.06162
2718.11530	0.06133
2716.82953	0.06110
2715.54376	0.06094
2714.25799	0.06080
2712.97222	0.06064
2711.68646	0.06047
2710.40069	0.06036
2709.11492	0.06034
2707.82915	0.06041
2706.54338	0.06047
2705.25761	0.06048
2703.97184	0.06043
2702.68607	0.06035
2701.40031	0.06030
2700.11454	0.06024
2698.82877	0.06013
2697.54300	0.05996
2696.25723	0.05979
2694.97146	0.05962
2693.68569	0.05940
2692.39992	0.05915
2691.11415	0.05900
2689.82839	0.05899
2688.54262	0.05907
2687.25685	0.05909
2685.97108	0.05904
2684.68531	0.05900
2683.39954	0.05902
2682.11377	0.05903
2680.82800	0.05891
2679.54224	0.05862
2678.25647	0.05824
2676.97070	0.05791
2675.68493	0.05772
2674.39916	0.05766
2673.11339	0.05767
2671.82762	0.05773
2670.54185	0.05780
2669.25608	0.05789
2667.97032	0.05801
2666.68455	0.05818
2665.39878	0.05838
2664.11301	0.05851
2662.82724	0.05848
2661.54147	0.05831
2660.25570	0.05811
2658.96993	0.05801
2657.68417	0.05805
2656.39840	0.05812
2655.11263	0.05808
2653.82686	0.05787
2652.54109	0.05756
2651.25532	0.05727
2649.96955	0.05715
2648.68378	0.05721
2647.39801	0.05736
2646.11225	0.05741
2644.82648	0.05718
2643.54071	0.05662
2642.25494	0.05594
2640.96917	0.05549
2639.68340	0.05540
2638.39763	0.05546
2637.11186	0.05532
2635.82609	0.05491
2634.54033	0.05443
2633.25456	0.05406
2631.96879	0.05377
2630.68302	0.05342
2629.39725	0.05303
2628.11148	0.05269
2626.82571	0.05251
2625.53994	0.05249
2624.25418	0.05255
2622.96841	0.05259
2621.68264	0.05254
2620.39687	0.05243
2619.11110	0.05233
2617.82533	0.05227
2616.53956	0.05219
2615.25379	0.05200
2613.96802	0.05165
2612.68226	0.05124
2611.39649	0.05094
2610.11072	0.05084
2608.82495	0.05087
2607.53918	0.05082
2606.25341	0.05059
2604.96764	0.05030
2603.68187	0.05006
2602.39611	0.04982
2601.11034	0.04955
2599.82457	0.04933
2598.53880	0.04928
2597.25303	0.04938
2595.96726	0.04948
2594.68149	0.04946
2593.39572	0.04933
2592.10995	0.04918
2590.82419	0.04913
2589.53842	0.04922
2588.25265	0.04936
2586.96688	0.04939
2585.68111	0.04919
2584.39534	0.04867
2583.10957	0.04784
2581.82380	0.04688
2580.53804	0.04612
2579.25227	0.04581
2577.96650	0.04597
2576.68073	0.04640
2575.39496	0.04685
2574.10919	0.04713
2572.82342	0.04714
2571.53765	0.04688
2570.25188	0.04644
2568.96612	0.04592
2567.68035	0.04540
2566.39458	0.04497
2565.10881	0.04471
2563.82304	0.04473
2562.53727	0.04499
2561.25150	0.04526
2559.96573	0.04523
2558.67997	0.04491
2557.39420	0.04467
2556.10843	0.04481
2554.82266	0.04524
2553.53689	0.04560
2552.25112	0.04568
2550.96535	0.04555
2549.67958	0.04548
2548.39381	0.04559
2547.10805	0.04575
2545.82228	0.04581
2544.53651	0.04574
2543.25074	0.04560
2541.96497	0.04542
2540.67920	0.04520
2539.39343	0.04500
2538.10766	0.04482
2536.82190	0.04450
2535.53613	0.04397
2534.25036	0.04344
2532.96459	0.04320
2531.67882	0.04332
2530.39305	0.04353
2529.10728	0.04352
2527.82151	0.04322
2526.53574	0.04284
2525.24998	0.04265
2523.96421	0.04273
2522.67844	0.04294
2521.39267	0.04301
2520.10690	0.04284
2518.82113	0.04261
2517.53536	0.04261
2516.24959	0.04295
2514.96383	0.04343
2513.67806	0.04374
2512.39229	0.04384
2511.10652	0.04377
2509.82075	0.04349
2508.53498	0.04295
2507.24921	0.04236
2505.96344	0.04202
2504.67767	0.04206
2503.39191	0.04234
2502.10614	0.04265
2500.82037	0.04285
2499.53460	0.04289
2498.24883	0.04274
2496.96306	0.04247
2495.67729	0.04220
2494.39152	0.04206
2493.10576	0.04211
2491.81999	0.04234
2490.53422	0.04264
2489.24845	0.04286
2487.96268	0.04286
2486.67691	0.04261
2485.39114	0.04221
2484.10537	0.04178
2482.81960	0.04144
2481.53384	0.04119
2480.24807	0.04098
2478.96230	0.04084
2477.67653	0.04090
2476.39076	0.04122
2475.10499	0.04169
2473.81922	0.04206
2472.53345	0.04221
2471.24769	0.04216
2469.96192	0.04204
2468.67615	0.04198
2467.39038	0.04205
2466.10461	0.04218
2464.81884	0.04219
2463.53307	0.04197
2462.24730	0.04164
2460.96153	0.04150
2459.67577	0.04170
2458.39000	0.04201
2457.10423	0.04209
2455.81846	0.04187
2454.53269	0.04164
2453.24692	0.04158
2451.96115	0.04156
2450.67538	0.04135
2449.38962	0.04096
2448.10385	0.04059
2446.81808	0.04038
2445.53231	0.04028
2444.24654	0.04019
2442.96077	0.04011
2441.67500	0.04004
2440.38923	0.03993
2439.10346	0.03973
2437.81770	0.03953
2436.53193	0.03950
2435.24616	0.03970
2433.96039	0.03998
2432.67462	0.04017
2431.38885	0.04023
2430.10308	0.04018
2428.81731	0.04004
2427.53155	0.03981
2426.24578	0.03958
2424.96001	0.03940
2423.67424	0.03930
2422.38847	0.03934
2421.10270	0.03955
2419.81693	0.03978
2418.53116	0.03982
2417.24539	0.03962
2415.95963	0.03932
2414.67386	0.03905
2413.38809	0.03877
2412.10232	0.03844
2410.81655	0.03817
2409.53078	0.03809
2408.24501	0.03818
2406.95924	0.03835
2405.67347	0.03853
2404.38771	0.03873
2403.10194	0.03893
2401.81617	0.03908
2400.53040	0.03915
2399.24463	0.03917
2397.95886	0.03913
2396.67309	0.03917
2395.38732	0.03925
2394.10156	0.03925
2392.81579	0.03917
2391.53002	0.03908
2390.24425	0.03907
2388.95848	0.03911
2387.67271	0.03910
2386.38694	0.03893
2385.10117	0.03862
2383.81540	0.03824
2382.52964	0.03793
2381.24387	0.03778
2379.95810	0.03788
2378.67233	0.03812
2377.38656	0.03851
2376.10079	0.03905
2374.81502	0.03946
2373.52925	0.03917
2372.24349	0.03838
2370.95772	0.03777
2369.67195	0.03761
2368.38618	0.03768
2367.10041	0.03763
2365.81464	0.03752
2364.52887	0.03741
2363.24310	0.03740
2361.95733	0.03748
2360.67157	0.03751
2359.38580	0.03775
2358.10003	0.03830
2356.81426	0.03901
2355.52849	0.03975
2354.24272	0.04043
2352.95695	0.04084
2351.67118	0.04055
2350.38542	0.04011
2349.09965	0.04013
2347.81388	0.04027
2346.52811	0.03995
2345.24234	0.03974
2343.95657	0.04046
2342.67080	0.04181
2341.38503	0.04142
2340.09926	0.03961
2338.81350	0.03918
2337.52773	0.04009
2336.24196	0.03950
2334.95619	0.03823
2333.67042	0.03865
2332.38465	0.04004
2331.09888	0.03921
2329.81311	0.03893
2328.52735	0.04040
2327.24158	0.04109
2325.95581	0.04147
2324.67004	0.04256
2323.38427	0.04324
2322.09850	0.04258
2320.81273	0.04225
2319.52696	0.04181
2318.24119	0.04133
2316.95543	0.04128
2315.66966	0.04110
2314.38389	0.04091
2313.09812	0.04076
2311.81235	0.04022
2310.52658	0.03976
2309.24081	0.03941
2307.95504	0.03901
2306.66928	0.03877
2305.38351	0.03853
2304.09774	0.03835
2302.81197	0.03821
2301.52620	0.03797
2300.24043	0.03767
2298.95466	0.03726
2297.66889	0.03687
2296.38312	0.03673
2295.09736	0.03698
2293.81159	0.03748
2292.52582	0.03787
2291.24005	0.03797
2289.95428	0.03782
2288.66851	0.03759
2287.38274	0.03732
2286.09697	0.03692
2284.81121	0.03639
2283.52544	0.03581
2282.23967	0.03528
2280.95390	0.03487
2279.66813	0.03457
2278.38236	0.03437
2277.09659	0.03426
2275.81082	0.03423
2274.52505	0.03429
2273.23929	0.03445
2271.95352	0.03464
2270.66775	0.03469
2269.38198	0.03449
2268.09621	0.03403
2266.81044	0.03336
2265.52467	0.03253
2264.23890	0.03170
2262.95314	0.03109
2261.66737	0.03098
2260.38160	0.03139
2259.09583	0.03191
2257.81006	0.03196
2256.52429	0.03130
2255.23852	0.03031
2253.95275	0.02945
2252.66698	0.02889
2251.38122	0.02846
2250.09545	0.02813
2248.80968	0.02814
2247.52391	0.02803
2246.23814	0.02821
2244.95237	0.02848
2243.66660	0.02865
2242.38083	0.02866
2241.09507	0.02853
2239.80930	0.02822
2238.52353	0.02772
2237.23776	0.02717
2235.95199	0.02683
2234.66622	0.02683
2233.38045	0.02702
2232.09468	0.02722
2230.80891	0.02741
2229.52315	0.02776
2228.23738	0.02828
2226.95161	0.02874
2225.66584	0.02875
2224.38007	0.02801
2223.09430	0.02657
2221.80853	0.02493
2220.52276	0.02384
2219.23700	0.02379
2217.95123	0.02453
2216.66546	0.02520
2215.37969	0.02521
2214.09392	0.02476
2212.80815	0.02442
2211.52238	0.02437
2210.23661	0.02427
2208.95084	0.02387
2207.66508	0.02351
2206.37931	0.02361
2205.09354	0.02401
2203.80777	0.02406
2202.52200	0.02331
2201.23623	0.02210
2199.95046	0.02111
2198.66469	0.02074
2197.37893	0.02074
2196.09316	0.02075
2194.80739	0.02082
2193.52162	0.02138
2192.23585	0.02258
2190.95008	0.02379
2189.66431	0.02411
2188.37854	0.02331
2187.09277	0.02216
2185.80701	0.02166
2184.52124	0.02198
2183.23547	0.02257
2181.94970	0.02285
2180.66393	0.02279
2179.37816	0.02248
2178.09239	0.02179
2176.80662	0.02063
2175.52085	0.01935
2174.23509	0.01849
2172.94932	0.01825
2171.66355	0.01826
2170.37778	0.01822
2169.09201	0.01826
2167.80624	0.01862
2166.52047	0.01919
2165.23470	0.01947
2163.94894	0.01909
2162.66317	0.01785
2161.37740	0.01551
2160.09163	0.01209
2158.80586	0.00853
2157.52009	0.00647
2156.23432	0.00675
2154.94855	0.00866
2153.66278	0.01083
2152.37702	0.01242
2151.09125	0.01341
2149.80548	0.01416
2148.51971	0.01494
2147.23394	0.01564
2145.94817	0.01594
2144.66240	0.01570
2143.37663	0.01527
2142.09087	0.01526
2140.80510	0.01596
2139.51933	0.01696
2138.23356	0.01755
2136.94779	0.01732
2135.66202	0.01657
2134.37625	0.01607
2133.09048	0.01633
2131.80471	0.01722
2130.51895	0.01819
2129.23318	0.01885
2127.94741	0.01917
2126.66164	0.01938
2125.37587	0.01974
2124.09010	0.02029
2122.80433	0.02099
2121.51856	0.02170
2120.23280	0.02236
2118.94703	0.02289
2117.66126	0.02324
2116.37549	0.02335
2115.08972	0.02321
2113.80395	0.02290
2112.51818	0.02253
2111.23241	0.02229
2109.94664	0.02239
2108.66088	0.02285
2107.37511	0.02343
2106.08934	0.02374
2104.80357	0.02361
2103.51780	0.02312
2102.23203	0.02249
2100.94626	0.02193
2099.66049	0.02272
2098.37473	0.02306
2097.08896	0.02283
2095.80319	0.02249
2094.51742	0.02223
2093.23165	0.02211
2091.94588	0.02202
2090.66011	0.02185
2089.37434	0.02160
2088.08857	0.02136
2086.80281	0.02120
2085.51704	0.02111
2084.23127	0.02110
2082.94550	0.02119
2081.65973	0.02138
2080.37396	0.02161
2079.08819	0.02184
2077.80242	0.02200
2076.51666	0.02200
2075.23089	0.02180
2073.94512	0.02151
2072.65935	0.02138
2071.37358	0.02160
2070.08781	0.02204
2068.80204	0.02243
2067.51627	0.02259
2066.23050	0.02239
2064.94474	0.02170
2063.65897	0.02051
2062.37320	0.01908
2061.08743	0.01782
2059.80166	0.01698
2058.51589	0.01643
2057.23012	0.01601
2055.94435	0.01581
2054.65859	0.01610
2053.37282	0.01692
2052.08705	0.01789
2050.80128	0.01852
2049.51551	0.01861
2048.22974	0.01826
2046.94397	0.01759
2045.65820	0.01661
2044.37243	0.01540
2043.08667	0.01412
2041.80090	0.01291
2040.51513	0.01199
2039.22936	0.01162
2037.94359	0.01199
2036.65782	0.01286
2035.37205	0.01367
2034.08628	0.01395
2032.80052	0.01359
2031.51475	0.01270
2030.22898	0.01155
2028.94321	0.01048
2027.65744	0.00992
2026.37167	0.01006
2025.08590	0.01073
2023.80013	0.01151
2022.51436	0.01209
2021.22860	0.01244
2019.94283	0.01272
2018.65706	0.01310
2017.37129	0.01362
2016.08552	0.01417
2014.79975	0.01458
2013.51398	0.01480
2012.22821	0.01504
2010.94245	0.01544
2009.65668	0.01589
2008.37091	0.01601
2007.08514	0.01563
2005.79937	0.01494
2004.51360	0.01436
2003.22783	0.01416
2001.94206	0.01424
2000.65629	0.01421
1999.37053	0.01378
1998.08476	0.01306
1996.79899	0.01258
1995.51322	0.01279
1994.22745	0.01360
1992.94168	0.01452
1991.65591	0.01512
1990.37014	0.01535
1989.08438	0.01535
1987.79861	0.01524
1986.51284	0.01516
1985.22707	0.01545
1983.94130	0.01647
1982.65553	0.01828
1981.36976	0.02037
1980.08399	0.02182
1978.79822	0.02185
1977.51246	0.02052
1976.22669	0.01866
1974.94092	0.01716
1973.65515	0.01639
1972.36938	0.01627
1971.08361	0.01661
1969.79784	0.01713
1968.51207	0.01751
1967.22631	0.01742
1965.94054	0.01688
1964.65477	0.01630
1963.36900	0.01612
1962.08323	0.01638
1960.79746	0.01668
1959.51169	0.01655
1958.22592	0.01595
1956.94015	0.01533
1955.65439	0.01528
1954.36862	0.01608
1953.08285	0.01740
1951.79708	0.01848
1950.51131	0.01880
1949.22554	0.01847
1947.93977	0.01804
1946.65400	0.01794
1945.36823	0.01823
1944.08247	0.01872
1942.79670	0.01919
1941.51093	0.01946
1940.22516	0.01935
1938.93939	0.01880
1937.65362	0.01807
1936.36785	0.01765
1935.08208	0.01798
1933.79632	0.01897
1932.51055	0.02007
1931.22478	0.02069
1929.93901	0.02062
1928.65324	0.02015
1927.36747	0.01975
1926.08170	0.01974
1924.79593	0.02009
1923.51016	0.02054
1922.22440	0.02084
1920.93863	0.02098
1919.65286	0.02113
1918.36709	0.02147
1917.08132	0.02194
1915.79555	0.02228
1914.50978	0.02227
1913.22401	0.02198
1911.93825	0.02168
1910.65248	0.02151
1909.36671	0.02143
1908.08094	0.02136
1906.79517	0.02132
1905.50940	0.02145
1904.22363	0.02181
1902.93786	0.02227
1901.65209	0.02261
1900.36633	0.02271
1899.08056	0.02261
1897.79479	0.02239
1896.50902	0.02210
1895.22325	0.02187
1893.93748	0.02182
1892.65171	0.02199
1891.36594	0.02225
1890.08018	0.02240
1888.79441	0.02230
1887.50864	0.02204
1886.22287	0.02181
1884.93710	0.02177
1883.65133	0.02193
1882.36556	0.02215
1881.07979	0.02235
1879.79402	0.02246
1878.50826	0.02246
1877.22249	0.02232
1875.93672	0.02205
1874.65095	0.02177
1873.36518	0.02165
1872.07941	0.02179
1870.79364	0.02214
1869.50787	0.02252
1868.22211	0.02280
1866.93634	0.02294
1865.65057	0.02301
1864.36480	0.02308
1863.07903	0.02315
1861.79326	0.02312
1860.50749	0.02298
1859.22172	0.02283
1857.93595	0.02276
1856.65019	0.02274
1855.36442	0.02272
1854.07865	0.02271
1852.79288	0.02274
1851.50711	0.02285
1850.22134	0.02304
1848.93557	0.02331
1847.64980	0.02358
1846.36404	0.02367
1845.07827	0.02349
1843.79250	0.02314
1842.50673	0.02278
1841.22096	0.02252
1839.93519	0.02235
1838.64942	0.02226
1837.36365	0.02220
1836.07788	0.02216
1834.79212	0.02219
1833.50635	0.02231
1832.22058	0.02246
1830.93481	0.02256
1829.64904	0.02263
1828.36327	0.02276
1827.07750	0.02293
1825.79173	0.02311
1824.50597	0.02328
1823.22020	0.02343
1821.93443	0.02351
1820.64866	0.02346
1819.36289	0.02325
1818.07712	0.02293
1816.79135	0.02262
1815.50558	0.02247
1814.21981	0.02250
1812.93405	0.02267
1811.64828	0.02290
1810.36251	0.02313
1809.07674	0.02331
1807.79097	0.02342
1806.50520	0.02346
1805.21943	0.02342
1803.93366	0.02333
1802.64790	0.02322
1801.36213	0.02316
1800.07636	0.02321
1798.79059	0.02341
1797.50482	0.02370
1796.21905	0.02401
1794.93328	0.02420
1793.64751	0.02423
1792.36174	0.02419
1791.07598	0.02421
1789.79021	0.02432
1788.50444	0.02443
1787.21867	0.02447
1785.93290	0.02439
1784.64713	0.02426
1783.36136	0.02416
1782.07559	0.02414
1780.78983	0.02418
1779.50406	0.02425
1778.21829	0.02429
1776.93252	0.02432
1775.64675	0.02431
1774.36098	0.02428
1773.07521	0.02426
1771.78944	0.02432
1770.50367	0.02440
1769.21791	0.02446
1767.93214	0.02449
1766.64637	0.02460
1765.36060	0.02477
1764.07483	0.02492
1762.78906	0.02505
1761.50329	0.02516
1760.21752	0.02526
1758.93176	0.02528
1757.64599	0.02522
1756.36022	0.02515
1755.07445	0.02513
1753.78868	0.02510
1752.50291	0.02504
1751.21714	0.02498
1749.93137	0.02498
1748.64560	0.02501
1747.35984	0.02507
1746.07407	0.02518
1744.78830	0.02536
1743.50253	0.02553
1742.21676	0.02561
1740.93099	0.02559
1739.64522	0.02564
1738.35945	0.02590
1737.07369	0.02623
1735.78792	0.02635
1734.50215	0.02622
1733.21638	0.02605
1731.93061	0.02597
1730.64484	0.02598
1729.35907	0.02603
1728.07330	0.02614
1726.78753	0.02627
1725.50177	0.02639
1724.21600	0.02654
1722.93023	0.02680
1721.64446	0.02718
1720.35869	0.02754
1719.07292	0.02778
1717.78715	0.02792
1716.50138	0.02807
1715.21561	0.02825
1713.92985	0.02847
1712.64408	0.02876
1711.35831	0.02913
1710.07254	0.02955
1708.78677	0.02997
1707.50100	0.03040
1706.21523	0.03091
1704.92946	0.03163
1703.64370	0.03244
1702.35793	0.03303
1701.07216	0.03334
1699.78639	0.03361
1698.50062	0.03392
1697.21485	0.03411
1695.92908	0.03419
1694.64331	0.03438
1693.35754	0.03471
1692.07178	0.03509
1690.78601	0.03557
1689.50024	0.03623
1688.21447	0.03700
1686.92870	0.03759
1685.64293	0.03783
1684.35716	0.03789
1683.07139	0.03805
1681.78563	0.03835
1680.49986	0.03879
1679.21409	0.03936
1677.92832	0.03998
1676.64255	0.04049
1675.35678	0.04090
1674.07101	0.04132
1672.78524	0.04180
1671.49947	0.04223
1670.21371	0.04260
1668.92794	0.04296
1667.64217	0.04342
1666.35640	0.04396
1665.07063	0.04451
1663.78486	0.04499
1662.49909	0.04540
1661.21332	0.04578
1659.92756	0.04617
1658.64179	0.04666
1657.35602	0.04731
1656.07025	0.04793
1654.78448	0.04823
1653.49871	0.04822
1652.21294	0.04821
1650.92717	0.04832
1649.64140	0.04843
1648.35564	0.04843
1647.06987	0.04841
1645.78410	0.04849
1644.49833	0.04862
1643.21256	0.04870
1641.92679	0.04869
1640.64102	0.04871
1639.35525	0.04881
1638.06949	0.04891
1636.78372	0.04889
1635.49795	0.04875
1634.21218	0.04863
1632.92641	0.04856
1631.64064	0.04852
1630.35487	0.04848
1629.06910	0.04846
1627.78333	0.04846
1626.49757	0.04846
1625.21180	0.04840
1623.92603	0.04825
1622.64026	0.04813
1621.35449	0.04816
1620.06872	0.04830
1618.78295	0.04840
1617.49718	0.04837
1616.21142	0.04831
1614.92565	0.04834
1613.63988	0.04843
1612.35411	0.04855
1611.06834	0.04869
1609.78257	0.04887
1608.49680	0.04906
1607.21103	0.04927
1605.92526	0.04950
1604.63950	0.04973
1603.35373	0.04998
1602.06796	0.05025
1600.78219	0.05053
1599.49642	0.05083
1598.21065	0.05115
1596.92488	0.05149
1595.63911	0.05185
1594.35335	0.05223
1593.06758	0.05262
1591.78181	0.05303
1590.49604	0.05344
1589.21027	0.05386
1587.92450	0.05430
1586.63873	0.05477
1585.35296	0.05527
1584.06719	0.05579
1582.78143	0.05635
1581.49566	0.05702
1580.20989	0.05781
1578.92412	0.05858
1577.63835	0.05915
1576.35258	0.05963
1575.06681	0.06022
1573.78104	0.06100
1572.49528	0.06178
1571.20951	0.06246
1569.92374	0.06307
1568.63797	0.06372
1567.35220	0.06440
1566.06643	0.06511
1564.78066	0.06594
1563.49489	0.06694
1562.20912	0.06794
1560.92336	0.06873
1559.63759	0.06930
1558.35182	0.06984
1557.06605	0.07041
1555.78028	0.07090
1554.49451	0.07129
1553.20874	0.07167
1551.92297	0.07204
1550.63721	0.07242
1549.35144	0.07284
1548.06567	0.07330
1546.77990	0.07371
1545.49413	0.07398
1544.20836	0.07411
1542.92259	0.07404
1541.63682	0.07371
1540.35105	0.07320
1539.06529	0.07274
1537.77952	0.07249
1536.49375	0.07232
1535.20798	0.07210
1533.92221	0.07186
1532.63644	0.07175
1531.35067	0.07182
1530.06490	0.07201
1528.77914	0.07227
1527.49337	0.07263
1526.20760	0.07313
1524.92183	0.07377
1523.63606	0.07449
1522.35029	0.07524
1521.06452	0.07609
1519.77875	0.07706
1518.49298	0.07808
1517.20722	0.07913
1515.92145	0.08031
1514.63568	0.08162
1513.34991	0.08303
1512.06414	0.08457
1510.77837	0.08629
1509.49260	0.08808
1508.20683	0.08977
1506.92107	0.09135
1505.63530	0.09291
1504.34953	0.09448
1503.06376	0.09599
1501.77799	0.09743
1500.49222	0.09882
1499.20645	0.10015
1497.92068	0.10132
1496.63491	0.10235
1495.34915	0.10334
1494.06338	0.10431
1492.77761	0.10522
1491.49184	0.10612
1490.20607	0.10710
1488.92030	0.10821
1487.63453	0.10943
1486.34876	0.11073
1485.06299	0.11208
1483.77723	0.11350
1482.49146	0.11499
1481.20569	0.11661
1479.91992	0.11833
1478.63415	0.12010
1477.34838	0.12184
1476.06261	0.12351
1474.77684	0.12505
1473.49108	0.12645
1472.20531	0.12781
1470.91954	0.12917
1469.63377	0.13048
1468.34800	0.13170
1467.06223	0.13278
1465.77646	0.13375
1464.49069	0.13471
1463.20492	0.13575
1461.91916	0.13693
1460.63339	0.13821
1459.34762	0.13943
1458.06185	0.14047
1456.77608	0.14137
1455.49031	0.14222
1454.20454	0.14296
1452.91877	0.14351
1451.63301	0.14391
1450.34724	0.14421
1449.06147	0.14439
1447.77570	0.14442
1446.48993	0.14429
1445.20416	0.14398
1443.91839	0.14354
1442.63262	0.14306
1441.34685	0.14266
1440.06109	0.14234
1438.77532	0.14208
1437.48955	0.14190
1436.20378	0.14191
1434.91801	0.14223
1433.63224	0.14287
1432.34647	0.14383
1431.06070	0.14510
1429.77494	0.14663
1428.48917	0.14836
1427.20340	0.15023
1425.91763	0.15224
1424.63186	0.15441
1423.34609	0.15671
1422.06032	0.15899
1420.77455	0.16109
1419.48878	0.16292
1418.20302	0.16452
1416.91725	0.16586
1415.63148	0.16693
1414.34571	0.16774
1413.05994	0.16828
1411.77417	0.16850
1410.48840	0.16835
1409.20263	0.16780
1407.91687	0.16688
1406.63110	0.16566
1405.34533	0.16417
1404.05956	0.16244
1402.77379	0.16039
1401.48802	0.15798
1400.20225	0.15523
1398.91648	0.15223
1397.63071	0.14909
1396.34495	0.14580
1395.05918	0.14240
1393.77341	0.13896
1392.48764	0.13553
1391.20187	0.13209
1389.91610	0.12868
1388.63033	0.12537
1387.34456	0.12223
1386.05880	0.11924
1384.77303	0.11634
1383.48726	0.11347
1382.20149	0.11065
1380.91572	0.10790
1379.62995	0.10521
1378.34418	0.10251
1377.05841	0.09972
1375.77264	0.09678
1374.48688	0.09370
1373.20111	0.09053
1371.91534	0.08734
1370.62957	0.08421
1369.34380	0.08123
1368.05803	0.07847
1366.77226	0.07593
1365.48649	0.07354
1364.20073	0.07121
1362.91496	0.06894
1361.62919	0.06678
1360.34342	0.06478
1359.05765	0.06294
1357.77188	0.06125
1356.48611	0.05971
1355.20034	0.05830
1353.91457	0.05702
1352.62881	0.05586
1351.34304	0.05479
1350.05727	0.05375
1348.77150	0.05273
1347.48573	0.05173
1346.19996	0.05078
1344.91419	0.04992
1343.62842	0.04912
1342.34266	0.04838
1341.05689	0.04768
1339.77112	0.04707
1338.48535	0.04653
1337.19958	0.04604
1335.91381	0.04554
1334.62804	0.04504
1333.34227	0.04453
1332.05650	0.04403
1330.77074	0.04352
1329.48497	0.04303
1328.19920	0.04256
1326.91343	0.04214
1325.62766	0.04180
1324.34189	0.04153
1323.05612	0.04132
1321.77035	0.04112
1320.48459	0.04087
1319.19882	0.04058
1317.91305	0.04026
1316.62728	0.03995
1315.34151	0.03964
1314.05574	0.03933
1312.76997	0.03903
1311.48420	0.03877
1310.19843	0.03854
1308.91267	0.03833
1307.62690	0.03809
1306.34113	0.03784
1305.05536	0.03759
1303.76959	0.03734
1302.48382	0.03704
1301.19805	0.03671
1299.91228	0.03635
1298.62652	0.03600
1297.34075	0.03566
1296.05498	0.03532
1294.76921	0.03498
1293.48344	0.03465
1292.19767	0.03437
1290.91190	0.03415
1289.62613	0.03398
1288.34036	0.03381
1287.05460	0.03363
1285.76883	0.03345
1284.48306	0.03327
1283.19729	0.03309
1281.91152	0.03286
1280.62575	0.03259
1279.33998	0.03231
1278.05421	0.03207
1276.76845	0.03186
1275.48268	0.03166
1274.19691	0.03144
1272.91114	0.03121
1271.62537	0.03100
1270.33960	0.03082
1269.05383	0.03064
1267.76806	0.03049
1266.48229	0.03036
1265.19653	0.03026
1263.91076	0.03014
1262.62499	0.03000
1261.33922	0.02981
1260.05345	0.02959
1258.76768	0.02935
1257.48191	0.02915
1256.19614	0.02901
1254.91037	0.02893
1253.62461	0.02888
1252.33884	0.02881
1251.05307	0.02870
1249.76730	0.02854
1248.48153	0.02835
1247.19576	0.02814
1245.90999	0.02791
1244.62422	0.02767
1243.33846	0.02743
1242.05269	0.02724
1240.76692	0.02715
1239.48115	0.02715
1238.19538	0.02718
1236.90961	0.02718
1235.62384	0.02707
1234.33807	0.02688
1233.05230	0.02667
1231.76654	0.02651
1230.48077	0.02640
1229.19500	0.02628
1227.90923	0.02613
1226.62346	0.02596
1225.33769	0.02577
1224.05192	0.02559
1222.76615	0.02539
1221.48039	0.02521
1220.19462	0.02504
1218.90885	0.02489
1217.62308	0.02474
1216.33731	0.02461
1215.05154	0.02451
1213.76577	0.02444
1212.48000	0.02440
1211.19423	0.02437
1209.90847	0.02436
1208.62270	0.02436
1207.33693	0.02436
1206.05116	0.02435
1204.76539	0.02431
1203.47962	0.02427
1202.19385	0.02422
1200.90808	0.02410
1199.62232	0.02391
1198.33655	0.02385
1197.05078	0.02377
1195.76501	0.02367
1194.47924	0.02358
1193.19347	0.02351
1191.90770	0.02347
1190.62193	0.02343
1189.33616	0.02340
1188.05040	0.02337
1186.76463	0.02334
1185.47886	0.02331
1184.19309	0.02330
1182.90732	0.02331
1181.62155	0.02336
1180.33578	0.02344
1179.05001	0.02351
1177.76425	0.02355
1176.47848	0.02358
1175.19271	0.02360
1173.90694	0.02364
1172.62117	0.02369
1171.33540	0.02379
1170.04963	0.02395
1168.76386	0.02416
1167.47809	0.02440
1166.19233	0.02464
1164.90656	0.02488
1163.62079	0.02513
1162.33502	0.02542
1161.04925	0.02575
1159.76348	0.02611
1158.47771	0.02650
1157.19194	0.02693
1155.90618	0.02737
1154.62041	0.02782
1153.33464	0.02832
1152.04887	0.02890
1150.76310	0.02955
1149.47733	0.03022
1148.19156	0.03090
1146.90579	0.03162
1145.62002	0.03246
1144.33426	0.03343
1143.04849	0.03446
1141.76272	0.03552
1140.47695	0.03666
1139.19118	0.03792
1137.90541	0.03931
1136.61964	0.04084
1135.33387	0.04258
1134.04811	0.04458
1132.76234	0.04688
1131.47657	0.04946
1130.19080	0.05230
1128.90503	0.05539
1127.61926	0.05871
1126.33349	0.06225
1125.04772	0.06600
1123.76195	0.06995
1122.47619	0.07406
1121.19042	0.07830
1119.90465	0.08268
1118.61888	0.08717
1117.33311	0.09175
1116.04734	0.09639
1114.76157	0.10103
1113.47580	0.10561
1112.19004	0.11012
1110.90427	0.11457
1109.61850	0.11896
1108.33273	0.12327
1107.04696	0.12749
1105.76119	0.13162
1104.47542	0.13569
1103.18965	0.13968
1101.90388	0.14354
1100.61812	0.14720
1099.33235	0.15063
1098.04658	0.15383
1096.76081	0.15691
1095.47504	0.15998
1094.18927	0.16306
1092.90350	0.16607
1091.61773	0.16890
1090.33197	0.17149
1089.04620	0.17389
1087.76043	0.17619
1086.47466	0.17849
1085.18889	0.18085
1083.90312	0.18328
1082.61735	0.18581
1081.33158	0.18847
1080.04581	0.19133
1078.76005	0.19445
1077.47428	0.19783
1076.18851	0.20141
1074.90274	0.20516
1073.61697	0.20904
1072.33120	0.21306
1071.04543	0.21717
1069.75966	0.22135
1068.47390	0.22558
1067.18813	0.22994
1065.90236	0.23449
1064.61659	0.23925
1063.33082	0.24410
1062.04505	0.24887
1060.75928	0.25347
1059.47351	0.25793
1058.18774	0.26238
1056.90198	0.26692
1055.61621	0.27152
1054.33044	0.27608
1053.04467	0.28060
1051.75890	0.28516
1050.47313	0.28988
1049.18736	0.29482
1047.90159	0.29995
1046.61583	0.30520
1045.33006	0.31053
1044.04429	0.31602
1042.75852	0.32173
1041.47275	0.32763
1040.18698	0.33360
1038.90121	0.33952
1037.61544	0.34541
1036.32967	0.35137
1035.04391	0.35743
1033.75814	0.36349
1032.47237	0.36933
1031.18660	0.37475
1029.90083	0.37966
1028.61506	0.38410
1027.32929	0.38815
1026.04352	0.39184
1024.75775	0.39507
1023.47199	0.39771
1022.18622	0.39969
1020.90045	0.40101
1019.61468	0.40171
1018.32891	0.40182
1017.04314	0.40131
1015.75737	0.40012
1014.47160	0.39823
1013.18584	0.39566
1011.90007	0.39241
1010.61430	0.38840
1009.32853	0.38354
1008.04276	0.37784
1006.75699	0.37145
1005.47122	0.36456
1004.18545	0.35724
1002.89968	0.34947
1001.61392	0.34119
1000.32815	0.33236
999.04238	0.32299
997.75661	0.31323
996.47084	0.30325
995.18507	0.29318
993.89930	0.28311
992.61353	0.27315
991.32777	0.26335
990.04200	0.25375
988.75623	0.24431
987.47046	0.23500
986.18469	0.22591
984.89892	0.21718
983.61315	0.20895
982.32738	0.20125
981.04161	0.19403
979.75585	0.18725
978.47008	0.18092
977.18431	0.17508
975.89854	0.16976
974.61277	0.16503
973.32700	0.16100
972.04123	0.15782
970.75546	0.15555
969.46970	0.15415
968.18393	0.15355
966.89816	0.15371
965.61239	0.15453
964.32662	0.15579
963.04085	0.15712
961.75508	0.15811
960.46931	0.15840
959.18354	0.15775
957.89778	0.15609
956.61201	0.15351
955.32624	0.15023
954.04047	0.14646
952.75470	0.14244
951.46893	0.13839
950.18316	0.13447
948.89739	0.13072
947.61163	0.12706
946.32586	0.12342
945.04009	0.11987
943.75432	0.11652
942.46855	0.11338
941.18278	0.11040
939.89701	0.10751
938.61124	0.10474
937.32547	0.10213
936.03971	0.09968
934.75394	0.09738
933.46817	0.09524
932.18240	0.09321
930.89663	0.09125
929.61086	0.08937
928.32509	0.08764
927.03932	0.08612
925.75356	0.08478
924.46779	0.08353
923.18202	0.08235
921.89625	0.08125
920.61048	0.08023
919.32471	0.07926
918.03894	0.07825
916.75317	0.07715
915.46740	0.07598
914.18164	0.07483
912.89587	0.07385
911.61010	0.07307
910.32433	0.07240
909.03856	0.07178
907.75279	0.07113
906.46702	0.07044
905.18125	0.06972
903.89549	0.06902
902.60972	0.06842
901.32395	0.06790
900.03818	0.06741
898.75241	0.06689
897.46664	0.06630
896.18087	0.06570
894.89510	0.06518
893.60933	0.06486
892.32357	0.06479
891.03780	0.06501
889.75203	0.06552
888.46626	0.06634
887.18049	0.06759
885.89472	0.06951
884.60895	0.07242
883.32318	0.07645
882.03742	0.08128
880.75165	0.08612
879.46588	0.09009
878.18011	0.09282
876.89434	0.09470
875.60857	0.09642
874.32280	0.09826
873.03703	0.09989
871.75126	0.10070
870.46550	0.10034
869.17973	0.09886
867.89396	0.09649
866.60819	0.09346
865.32242	0.09001
864.03665	0.08641
862.75088	0.08295
861.46511	0.07979
860.17935	0.07699
858.89358	0.07456
857.60781	0.07248
856.32204	0.07068
855.03627	0.06908
853.75050	0.06762
852.46473	0.06631
851.17896	0.06517
849.89319	0.06422
848.60743	0.06342
847.32166	0.06266
846.03589	0.06186
844.75012	0.06105
843.46435	0.06032
842.17858	0.05970
840.89281	0.05916
839.60704	0.05866
838.32128	0.05817
837.03551	0.05770
835.74974	0.05725
834.46397	0.05684
833.17820	0.05654
831.89243	0.05631
830.60666	0.05610
829.32089	0.05585
828.03512	0.05554
826.74936	0.05520
825.46359	0.05482
824.17782	0.05443
822.89205	0.05411
821.60628	0.05392
820.32051	0.05383
819.03474	0.05371
817.74897	0.05351
816.46321	0.05332
815.17744	0.05325
813.89167	0.05327
812.60590	0.05324
811.32013	0.05309
810.03436	0.05280
808.74859	0.05245
807.46282	0.05212
806.17705	0.05187
804.89129	0.05171
803.60552	0.05160
802.31975	0.05150
801.03398	0.05142
799.74821	0.05136
798.46244	0.05128
797.17667	0.05114
795.89090	0.05095
794.60513	0.05073
793.31937	0.05048
792.03360	0.05024
790.74783	0.05008
789.46206	0.05001
788.17629	0.04999
786.89052	0.04989
785.60475	0.04967
784.31898	0.04939
783.03322	0.04912
781.74745	0.04890
780.46168	0.04876
779.17591	0.04871
777.89014	0.04876
776.60437	0.04885
775.31860	0.04891
774.03283	0.04888
772.74706	0.04876
771.46130	0.04860
770.17553	0.04849
768.88976	0.04847
767.60399	0.04853
766.31822	0.04864
765.03245	0.04876
763.74668	0.04885
762.46091	0.04893
761.17515	0.04904
759.88938	0.04921
758.60361	0.04935
757.31784	0.04941
756.03207	0.04936
754.74630	0.04929
753.46053	0.04925
752.17476	0.04924
750.88899	0.04925
749.60323	0.04928
748.31746	0.04930
747.03169	0.04926
745.74592	0.04916
744.46015	0.04898
743.17438	0.04873
741.88861	0.04843
740.60284	0.04810
739.31708	0.04780
738.03131	0.04766
736.74554	0.04776
735.45977	0.04802
734.17400	0.04821
732.88823	0.04816
731.60246	0.04791
730.31669	0.04762
729.03092	0.04740
727.74516	0.04726
726.45939	0.04716
725.17362	0.04712
723.88785	0.04706
722.60208	0.04713
721.31631	0.04723
720.03054	0.04727
718.74477	0.04725
717.45901	0.04721
716.17324	0.04716
714.88747	0.04704
713.60170	0.04687
712.31593	0.04667
711.03016	0.04646
709.74439	0.04628
708.45862	0.04612
707.17285	0.04598
705.88709	0.04584
704.60132	0.04569
703.31555	0.04558
702.02978	0.04555
700.74401	0.04558
699.45824	0.04563
698.17247	0.04564
696.88670	0.04560
695.60094	0.04551
694.31517	0.04540
693.02940	0.04532
691.74363	0.04529
690.45786	0.04527
689.17209	0.04519
687.88632	0.04505
686.60055	0.04485
685.31478	0.04462
684.02902	0.04435
682.74325	0.04404
681.45748	0.04374
680.17171	0.04352
678.88594	0.04337
677.60017	0.04328
676.31440	0.04322
675.02863	0.04321
673.74287	0.04330
672.45710	0.04346
671.17133	0.04364
669.88556	0.04376
668.59979	0.04382
667.31402	0.04385
666.02825	0.04372
664.74248	0.04345
663.45671	0.04309
662.17095	0.04270
660.88518	0.04239
659.59941	0.04220
658.31364	0.04208
657.02787	0.04197
655.74210	0.04185
654.45633	0.04171
653.17056	0.04155
651.88480	0.04141
650.59903	0.04130
649.31326	0.04124
648.02749	0.04122
646.74172	0.04122
645.45595	0.04121
644.17018	0.04122
642.88441	0.04129
641.59864	0.04142
640.31288	0.04160
639.02711	0.04179
637.74134	0.04199
636.45557	0.04228
635.16980	0.04272
633.88403	0.04332
632.59826	0.04404
631.31249	0.04493
630.02673	0.04663
628.74096	0.04906
627.45519	0.04946
626.16942	0.05251
624.88365	0.05761
623.59788	0.06316
622.31211	0.06836
621.02634	0.07253
619.74057	0.07540
618.45481	0.07765
617.16904	0.08016
615.88327	0.08317
614.59750	0.08635
613.31173	0.08958
612.02596	0.09346
610.74019	0.09909
609.45442	0.10717
608.16866	0.11712
606.88289	0.12723
605.59712	0.13565
604.31135	0.14122
603.02558	0.14366
601.73981	0.14329
600.45404	0.14081
599.16827	0.13709
597.88250	0.13293
596.59674	0.12880
595.31097	0.12489
594.02520	0.12133
592.73943	0.11828
591.45366	0.11593
590.16789	0.11439
588.88212	0.11369
587.59635	0.11387
586.31059	0.11490
585.02482	0.11666
583.73905	0.11898
582.45328	0.12178
581.16751	0.12505
579.88174	0.12881
578.59597	0.13289
577.31020	0.13700
576.02443	0.14084
574.73867	0.14433
573.45290	0.14764
572.16713	0.15113
570.88136	0.15514
569.59559	0.15988
568.30982	0.16540
567.02405	0.17150
565.73828	0.17769
564.45251	0.18331
563.16675	0.18764
561.88098	0.19010
560.59521	0.19024
559.30944	0.18784
558.02367	0.18304
556.73790	0.17628
555.45213	0.16824
554.16636	0.15956
552.88060	0.15078
551.59483	0.14230
550.30906	0.13438
549.02329	0.12721
547.73752	0.12081
546.45175	0.11510
545.16598	0.10993
543.88021	0.10512
542.59444	0.10058
541.30868	0.09633
540.02291	0.09244
538.73714	0.08893
537.45137	0.08576
536.16560	0.08284
534.87983	0.08012
533.59406	0.07756
532.30829	0.07516
531.02253	0.07295
529.73676	0.07090
528.45099	0.06900
527.16522	0.06722
525.87945	0.06555
524.59368	0.06398
523.30791	0.06242
522.02214	0.06083
520.73637	0.05919
519.45061	0.05762
518.16484	0.05620
516.87907	0.05496
515.59330	0.05384
514.30753	0.05277
513.02176	0.05173
511.73599	0.05076
510.45022	0.04992
509.16446	0.04920
507.87869	0.04850
506.59292	0.04771
505.30715	0.04683
504.02138	0.04594
502.73561	0.04513
501.44984	0.04440
500.16407	0.04371
498.87830	0.04302
497.59254	0.04241
496.30677	0.04188
495.02100	0.04142
493.73523	0.04103
492.44946	0.04072
491.16369	0.04050
489.87792	0.04029
488.59215	0.04003
487.30639	0.03974
486.02062	0.03949
484.73485	0.03932
483.44908	0.03923
482.16331	0.03920
480.87754	0.03923
479.59177	0.03934
478.30600	0.03952
477.02023	0.03976
475.73447	0.04001
474.44870	0.04028
473.16293	0.04052
471.87716	0.04071
470.59139	0.04083
469.30562	0.04087
468.01985	0.04081
466.73408	0.04061
465.44832	0.04027
464.16255	0.03981
462.87678	0.03927
461.59101	0.03870
460.30524	0.03814
459.01947	0.03764
457.73370	0.03724
456.44793	0.03694
455.16216	0.03667
453.87640	0.03636
452.59063	0.03598
451.30486	0.03555
450.01909	0.03511
448.73332	0.03473
447.44755	0.03447
446.16178	0.03433
444.87601	0.03425
443.59025	0.03415
442.30448	0.03399
441.01871	0.03377
439.73294	0.03356
438.44717	0.03341
437.16140	0.03337
435.87563	0.03343
434.58986	0.03351
433.30409	0.03351
432.01833	0.03343
430.73256	0.03333
429.44679	0.03326
428.16102	0.03321
426.87525	0.03314
425.58948	0.03301
424.30371	0.03286
423.01794	0.03277
421.73218	0.03272
420.44641	0.03269
419.16064	0.03263
417.87487	0.03254
416.58910	0.03241
415.30333	0.03225
414.01756	0.03210
412.73179	0.03196
411.44602	0.03187
410.16026	0.03188
408.87449	0.03201
407.58872	0.03226
406.30295	0.03253
405.01718	0.03273
403.73141	0.03281
402.44564	0.03283
401.15987	0.03286
399.87411	0.03294
