3997.45528	0.04214
3996.16951	0.04189
3994.88374	0.04194
3993.59798	0.04204
3992.31221	0.04191
3991.02644	0.04171
3989.74067	0.04178
3988.45490	0.04207
3987.16913	0.04208
3985.88336	0.04154
3984.59759	0.04076
3983.31183	0.04033
3982.02606	0.04051
3980.74029	0.04103
3979.45452	0.04150
3978.16875	0.04175
3976.88298	0.04180
3975.59721	0.04165
3974.31144	0.04135
3973.02567	0.04104
3971.73991	0.04101
3970.45414	0.04140
3969.16837	0.04203
3967.88260	0.04250
3966.59683	0.04258
3965.31106	0.04240
3964.02529	0.04224
3962.73952	0.04217
3961.45376	0.04203
3960.16799	0.04176
3958.88222	0.04153
3957.59645	0.04139
3956.31068	0.04119
3955.02491	0.04079
3953.73914	0.04021
3952.45337	0.03961
3951.16760	0.03921
3949.88184	0.03920
3948.59607	0.03965
3947.31030	0.04039
3946.02453	0.04104
3944.73876	0.04115
3943.45299	0.04059
3942.16722	0.03978
3940.88145	0.03944
3939.59569	0.03988
3938.30992	0.04058
3937.02415	0.04076
3935.73838	0.04028
3934.45261	0.03970
3933.16684	0.03952
3931.88107	0.03970
3930.59530	0.03987
3929.30953	0.03979
3928.02377	0.03947
3926.73800	0.03915
3925.45223	0.03900
3924.16646	0.03904
3922.88069	0.03929
3921.59492	0.03974
3920.30915	0.04028
3919.02338	0.04078
3917.73762	0.04107
3916.45185	0.04095
3915.16608	0.04041
3913.88031	0.03985
3912.59454	0.03969
3911.30877	0.04000
3910.02300	0.04043
3908.73723	0.04049
3907.45146	0.04002
3906.16570	0.03932
3904.87993	0.03888
3903.59416	0.03902
3902.30839	0.03974
3901.02262	0.04076
3899.73685	0.04158
3898.45108	0.04181
3897.16531	0.04152
3895.87955	0.04108
3894.59378	0.04080
3893.30801	0.04076
3892.02224	0.04063
3890.73647	0.03998
3889.45070	0.03904
3888.16493	0.03863
3886.87916	0.03879
3885.59339	0.03866
3884.30763	0.03801
3883.02186	0.03775
3881.73609	0.03855
3880.45032	0.03969
3879.16455	0.04019
3877.87878	0.04008
3876.59301	0.03994
3875.30724	0.03980
3874.02148	0.03938
3872.73571	0.03889
3871.44994	0.03884
3870.16417	0.03894
3868.87840	0.03864
3867.59263	0.03826
3866.30686	0.03826
3865.02109	0.03838
3863.73532	0.03826
3862.44956	0.03815
3861.16379	0.03827
3859.87802	0.03831
3858.59225	0.03800
3857.30648	0.03786
3856.02071	0.03857
3854.73494	0.03964
3853.44917	0.03956
3852.16341	0.03789
3850.87764	0.03607
3849.59187	0.03548
3848.30610	0.03604
3847.02033	0.03687
3845.73456	0.03724
3844.44879	0.03677
3843.16302	0.03558
3841.87725	0.03440
3840.59149	0.03427
3839.30572	0.03546
3838.01995	0.03708
3836.73418	0.03797
3835.44841	0.03802
3834.16264	0.03786
3832.87687	0.03779
3831.59110	0.03765
3830.30534	0.03736
3829.01957	0.03712
3827.73380	0.03707
3826.44803	0.03704
3825.16226	0.03699
3823.87649	0.03727
3822.59072	0.03781
3821.30495	0.03779
3820.01918	0.03704
3818.73342	0.03673
3817.44765	0.03763
3816.16188	0.03855
3814.87611	0.03815
3813.59034	0.03692
3812.30457	0.03605
3811.01880	0.03583
3809.73303	0.03612
3808.44726	0.03675
3807.16150	0.03715
3805.87573	0.03694
3804.58996	0.03690
3803.30419	0.03787
3802.01842	0.03911
3800.73265	0.03921
3799.44688	0.03830
3798.16111	0.03772
3796.87535	0.03790
3795.58958	0.03819
3794.30381	0.03816
3793.01804	0.03785
3791.73227	0.03742
3790.44650	0.03696
3789.16073	0.03665
3787.87496	0.03658
3786.58919	0.03677
3785.30343	0.03708
3784.01766	0.03745
3782.73189	0.03794
3781.44612	0.03859
3780.16035	0.03903
3778.87458	0.03876
3777.58881	0.03784
3776.30304	0.03687
3775.01728	0.03633
3773.73151	0.03634
3772.44574	0.03678
3771.15997	0.03723
3769.87420	0.03709
3768.58843	0.03635
3767.30266	0.03573
3766.01689	0.03572
3764.73112	0.03611
3763.44536	0.03658
3762.15959	0.03709
3760.87382	0.03751
3759.58805	0.03758
3758.30228	0.03721
3757.01651	0.03647
3755.73074	0.03558
3754.44497	0.03489
3753.15921	0.03446
3751.87344	0.03401
3750.58767	0.03327
3749.30190	0.03217
3748.01613	0.03132
3746.73036	0.03186
3745.44459	0.03360
3744.15882	0.03471
3742.87305	0.03454
3741.58729	0.03449
3740.30152	0.03545
3739.01575	0.03672
3737.72998	0.03728
3736.44421	0.03659
3735.15844	0.03493
3733.87267	0.03333
3732.58690	0.03252
3731.30114	0.03224
3730.01537	0.03209
3728.72960	0.03215
3727.44383	0.03255
3726.15806	0.03319
3724.87229	0.03398
3723.58652	0.03471
3722.30075	0.03487
3721.01498	0.03430
3719.72922	0.03353
3718.44345	0.03315
3717.15768	0.03320
3715.87191	0.03345
3714.58614	0.03390
3713.30037	0.03456
3712.01460	0.03517
3710.72883	0.03547
3709.44307	0.03547
3708.15730	0.03531
3706.87153	0.03514
3705.58576	0.03518
3704.29999	0.03556
3703.01422	0.03600
3701.72845	0.03605
3700.44268	0.03551
3699.15691	0.03469
3697.87115	0.03400
3696.58538	0.03355
3695.29961	0.03338
3694.01384	0.03358
3692.72807	0.03401
3691.44230	0.03447
3690.15653	0.03486
3688.87076	0.03486
3687.58500	0.03417
3686.29923	0.03323
3685.01346	0.03286
3683.72769	0.03319
3682.44192	0.03364
3681.15615	0.03367
3679.87038	0.03326
3678.58461	0.03307
3677.29884	0.03370
3676.01308	0.03455
3674.72731	0.03470
3673.44154	0.03462
3672.15577	0.03544
3670.87000	0.03675
3669.58423	0.03701
3668.29846	0.03591
3667.01269	0.03462
3665.72693	0.03412
3664.44116	0.03455
3663.15539	0.03541
3661.86962	0.03618
3660.58385	0.03671
3659.29808	0.03735
3658.01231	0.03834
3656.72654	0.03901
3655.44077	0.03841
3654.15501	0.03669
3652.86924	0.03529
3651.58347	0.03528
3650.29770	0.03632
3649.01193	0.03728
3647.72616	0.03750
3646.44039	0.03730
3645.15462	0.03742
3643.86886	0.03823
3642.58309	0.03940
3641.29732	0.04028
3640.01155	0.04051
3638.72578	0.04012
3637.44001	0.03953
3636.15424	0.03925
3634.86847	0.03946
3633.58270	0.03979
3632.29694	0.03994
3631.01117	0.03995
3629.72540	0.03968
3628.43963	0.03890
3627.15386	0.03806
3625.86809	0.03791
3624.58232	0.03842
3623.29655	0.03903
3622.01079	0.03958
3620.72502	0.04017
3619.43925	0.04054
3618.15348	0.04047
3616.86771	0.04030
3615.58194	0.04052
3614.29617	0.04097
3613.01040	0.04105
3611.72463	0.04059
3610.43887	0.04006
3609.15310	0.03988
3607.86733	0.04006
3606.58156	0.04044
3605.29579	0.04081
3604.01002	0.04093
3602.72425	0.04085
3601.43848	0.04092
3600.15272	0.04145
3598.86695	0.04242
3597.58118	0.04357
3596.29541	0.04452
3595.00964	0.04492
3593.72387	0.04462
3592.43810	0.04386
3591.15233	0.04318
3589.86656	0.04299
3588.58080	0.04319
3587.29503	0.04346
3586.00926	0.04378
3584.72349	0.04442
3583.43772	0.04548
3582.15195	0.04661
3580.86618	0.04731
3579.58041	0.04739
3578.29464	0.04709
3577.00888	0.04683
3575.72311	0.04676
3574.43734	0.04668
3573.15157	0.04639
3571.86580	0.04609
3570.58003	0.04631
3569.29426	0.04728
3568.00849	0.04852
3566.72273	0.04937
3565.43696	0.04969
3564.15119	0.04985
3562.86542	0.05001
3561.57965	0.04998
3560.29388	0.04955
3559.00811	0.04885
3557.72234	0.04823
3556.43657	0.04790
3555.15081	0.04785
3553.86504	0.04793
3552.57927	0.04807
3551.29350	0.04827
3550.00773	0.04861
3548.72196	0.04908
3547.43619	0.04949
3546.15042	0.04962
3544.86466	0.04948
3543.57889	0.04932
3542.29312	0.04942
3541.00735	0.04977
3539.72158	0.05013
3538.43581	0.05033
3537.15004	0.05037
3535.86427	0.05042
3534.57850	0.05060
3533.29274	0.05091
3532.00697	0.05122
3530.72120	0.05143
3529.43543	0.05153
3528.14966	0.05156
3526.86389	0.05160
3525.57812	0.05177
3524.29235	0.05214
3523.00659	0.05259
3521.72082	0.05287
3520.43505	0.05293
3519.14928	0.05292
3517.86351	0.05303
3516.57774	0.05333
3515.29197	0.05375
3514.00620	0.05416
3512.72043	0.05438
3511.43467	0.05434
3510.14890	0.05419
3508.86313	0.05423
3507.57736	0.05463
3506.29159	0.05520
3505.00582	0.05550
3503.72005	0.05521
3502.43428	0.05439
3501.14852	0.05351
3499.86275	0.05309
3498.57698	0.05341
3497.29121	0.05441
3496.00544	0.05573
3494.71967	0.05684
3493.43390	0.05730
3492.14813	0.05704
3490.86236	0.05640
3489.57660	0.05582
3488.29083	0.05548
3487.00506	0.05528
3485.71929	0.05507
3484.43352	0.05495
3483.14775	0.05514
3481.86198	0.05570
3480.57621	0.05639
3479.29045	0.05688
3478.00468	0.05705
3476.71891	0.05704
3475.43314	0.05711
3474.14737	0.05740
3472.86160	0.05790
3471.57583	0.05848
3470.29006	0.05904
3469.00429	0.05945
3467.71853	0.05956
3466.43276	0.05925
3465.14699	0.05867
3463.86122	0.05813
3462.57545	0.05780
3461.28968	0.05770
3460.00391	0.05789
3458.71814	0.05853
3457.43238	0.05961
3456.14661	0.06070
3454.86084	0.06127
3453.57507	0.06107
3452.28930	0.06031
3451.00353	0.05943
3449.71776	0.05884
3448.43199	0.05879
3447.14622	0.05930
3445.86046	0.06012
3444.57469	0.06097
3443.28892	0.06158
3442.00315	0.06173
3440.71738	0.06143
3439.43161	0.06091
3438.14584	0.06053
3436.86007	0.06051
3435.57431	0.06086
3434.28854	0.06136
3433.00277	0.06177
3431.71700	0.06188
3430.43123	0.06163
3429.14546	0.06117
3427.85969	0.06081
3426.57392	0.06075
3425.28815	0.06100
3424.00239	0.06147
3422.71662	0.06206
3421.43085	0.06263
3420.14508	0.06294
3418.85931	0.06288
3417.57354	0.06255
3416.28777	0.06218
3415.00200	0.06192
3413.71624	0.06180
3412.43047	0.06183
3411.14470	0.06206
3409.85893	0.06252
3408.57316	0.06305
3407.28739	0.06330
3406.00162	0.06309
3404.71585	0.06259
3403.43008	0.06230
3402.14432	0.06249
3400.85855	0.06302
3399.57278	0.06347
3398.28701	0.06360
3397.00124	0.06338
3395.71547	0.06301
3394.42970	0.06273
3393.14393	0.06267
3391.85817	0.06282
3390.57240	0.06313
3389.28663	0.06354
3388.00086	0.06393
3386.71509	0.06416
3385.42932	0.06411
3384.14355	0.06382
3382.85778	0.06342
3381.57201	0.06309
3380.28625	0.06295
3379.00048	0.06302
3377.71471	0.06320
3376.42894	0.06331
3375.14317	0.06323
3373.85740	0.06302
3372.57163	0.06286
3371.28586	0.06295
3370.00010	0.06331
3368.71433	0.06378
3367.42856	0.06416
3366.14279	0.06439
3364.85702	0.06454
3363.57125	0.06464
3362.28548	0.06466
3360.99971	0.06465
3359.71394	0.06462
3358.42818	0.06453
3357.14241	0.06434
3355.85664	0.06420
3354.57087	0.06430
3353.28510	0.06457
3351.99933	0.06467
3350.71356	0.06445
3349.42779	0.06408
3348.14202	0.06388
3346.85626	0.06393
3345.57049	0.06414
3344.28472	0.06440
3342.99895	0.06463
3341.71318	0.06470
3340.42741	0.06444
3339.14164	0.06395
3337.85587	0.06357
3336.57011	0.06362
3335.28434	0.06400
3333.99857	0.06432
3332.71280	0.06424
3331.42703	0.06382
3330.14126	0.06342
3328.85549	0.06334
3327.56972	0.06360
3326.28395	0.06399
3324.99819	0.06425
3323.71242	0.06433
3322.42665	0.06427
3321.14088	0.06415
3319.85511	0.06404
3318.56934	0.06405
3317.28357	0.06431
3315.99780	0.06481
3314.71204	0.06525
3313.42627	0.06527
3312.14050	0.06484
3310.85473	0.06441
3309.56896	0.06438
3308.28319	0.06470
3306.99742	0.06494
3305.71165	0.06487
3304.42588	0.06468
3303.14012	0.06467
3301.85435	0.06489
3300.56858	0.06510
3299.28281	0.06499
3297.99704	0.06446
3296.71127	0.06368
3295.42550	0.06302
3294.13973	0.06276
3292.85397	0.06295
3291.56820	0.06343
3290.28243	0.06395
3288.99666	0.06427
3287.71089	0.06424
3286.42512	0.06385
3285.13935	0.06323
3283.85358	0.06266
3282.56781	0.06249
3281.28205	0.06290
3279.99628	0.06369
3278.71051	0.06433
3277.42474	0.06439
3276.13897	0.06397
3274.85320	0.06352
3273.56743	0.06344
3272.28166	0.06373
3270.99590	0.06415
3269.71013	0.06447
3268.42436	0.06465
3267.13859	0.06469
3265.85282	0.06456
3264.56705	0.06424
3263.28128	0.06381
3261.99551	0.06337
3260.70974	0.06298
3259.42398	0.06276
3258.13821	0.06282
3256.85244	0.06319
3255.56667	0.06369
3254.28090	0.06406
3252.99513	0.06413
3251.70936	0.06392
3250.42359	0.06353
3249.13783	0.06312
3247.85206	0.06281
3246.56629	0.06266
3245.28052	0.06260
3243.99475	0.06252
3242.70898	0.06238
3241.42321	0.06217
3240.13744	0.06193
3238.85167	0.06163
3237.56591	0.06135
3236.28014	0.06125
3234.99437	0.06147
3233.70860	0.06195
3232.42283	0.06246
3231.13706	0.06273
3229.85129	0.06268
3228.56552	0.06242
3227.27976	0.06209
3225.99399	0.06181
3224.70822	0.06163
3223.42245	0.06152
3222.13668	0.06144
3220.85091	0.06133
3219.56514	0.06115
3218.27937	0.06092
3216.99360	0.06075
3215.70784	0.06069
3214.42207	0.06064
3213.13630	0.06045
3211.85053	0.06019
3210.56476	0.06008
3209.27899	0.06027
3207.99322	0.06059
3206.70745	0.06071
3205.42169	0.06044
3204.13592	0.05989
3202.85015	0.05934
3201.56438	0.05905
3200.27861	0.05908
3198.99284	0.05932
3197.70707	0.05954
3196.42130	0.05959
3195.13553	0.05945
3193.84977	0.05920
3192.56400	0.05889
3191.27823	0.05855
3189.99246	0.05827
3188.70669	0.05815
3187.42092	0.05824
3186.13515	0.05850
3184.84938	0.05891
3183.56362	0.05944
3182.27785	0.05998
3180.99208	0.06043
3179.70631	0.06075
3178.42054	0.06084
3177.13477	0.06058
3175.84900	0.05998
3174.56323	0.05928
3173.27746	0.05886
3171.99170	0.05886
3170.70593	0.05912
3169.42016	0.05926
3168.13439	0.05902
3166.84862	0.05848
3165.56285	0.05800
3164.27708	0.05788
3162.99131	0.05801
3161.70555	0.05802
3160.41978	0.05771
3159.13401	0.05718
3157.84824	0.05674
3156.56247	0.05652
3155.27670	0.05648
3153.99093	0.05656
3152.70516	0.05668
3151.41939	0.05679
3150.13363	0.05680
3148.84786	0.05668
3147.56209	0.05654
3146.27632	0.05653
3144.99055	0.05673
3143.70478	0.05705
3142.41901	0.05735
3141.13324	0.05759
3139.84748	0.05777
3138.56171	0.05790
3137.27594	0.05796
3135.99017	0.05794
3134.70440	0.05784
3133.41863	0.05762
3132.13286	0.05730
3130.84709	0.05699
3129.56132	0.05674
3128.27556	0.05652
3126.98979	0.05630
3125.70402	0.05613
3124.41825	0.05607
3123.13248	0.05607
3121.84671	0.05601
3120.56094	0.05581
3119.27517	0.05558
3117.98940	0.05542
3116.70364	0.05538
3115.41787	0.05541
3114.13210	0.05543
3112.84633	0.05546
3111.56056	0.05549
3110.27479	0.05548
3108.98902	0.05537
3107.70325	0.05520
3106.41749	0.05508
3105.13172	0.05501
3103.84595	0.05489
3102.56018	0.05462
3101.27441	0.05429
3099.98864	0.05406
3098.70287	0.05394
3097.41710	0.05381
3096.13133	0.05364
3094.84557	0.05354
3093.55980	0.05356
3092.27403	0.05353
3090.98826	0.05324
3089.70249	0.05274
3088.41672	0.05238
3087.13095	0.05246
3085.84518	0.05293
3084.55942	0.05342
3083.27365	0.05363
3081.98788	0.05355
3080.70211	0.05337
3079.41634	0.05320
3078.13057	0.05303
3076.84480	0.05277
3075.55903	0.05242
3074.27326	0.05211
3072.98750	0.05200
3071.70173	0.05216
3070.41596	0.05241
3069.13019	0.05245
3067.84442	0.05216
3066.55865	0.05175
3065.27288	0.05154
3063.98711	0.05158
3062.70135	0.05167
3061.41558	0.05162
3060.12981	0.05152
3058.84404	0.05154
3057.55827	0.05174
3056.27250	0.05197
3054.98673	0.05205
3053.70096	0.05192
3052.41519	0.05160
3051.12943	0.05116
3049.84366	0.05069
3048.55789	0.05031
3047.27212	0.05010
3045.98635	0.05001
3044.70058	0.04996
3043.41481	0.04992
3042.12904	0.04992
3040.84328	0.04989
3039.55751	0.04974
3038.27174	0.04947
3036.98597	0.04925
3035.70020	0.04924
3034.41443	0.04941
3033.12866	0.04955
3031.84289	0.04951
3030.55712	0.04934
3029.27136	0.04919
3027.98559	0.04912
3026.69982	0.04906
3025.41405	0.04895
3024.12828	0.04880
3022.84251	0.04868
3021.55674	0.04866
3020.27097	0.04871
3018.98521	0.04874
3017.69944	0.04868
3016.41367	0.04852
3015.12790	0.04836
3013.84213	0.04828
3012.55636	0.04828
3011.27059	0.04830
3009.98482	0.04830
3008.69905	0.04831
3007.41329	0.04829
3006.12752	0.04817
3004.84175	0.04794
3003.55598	0.04765
3002.27021	0.04740
3000.98444	0.04725
2999.69867	0.04726
2998.41290	0.04746
2997.12714	0.04775
2995.84137	0.04799
2994.55560	0.04806
2993.26983	0.04797
2991.98406	0.04783
2990.69829	0.04778
2989.41252	0.04786
2988.12675	0.04801
2986.84098	0.04808
2985.55522	0.04803
2984.26945	0.04787
2982.98368	0.04771
2981.69791	0.04765
2980.41214	0.04783
2979.12637	0.04823
2977.84060	0.04876
2976.55483	0.04930
2975.26907	0.04979
2973.98330	0.05021
2972.69753	0.05055
2971.41176	0.05092
2970.12599	0.05147
2968.84022	0.05231
2967.55445	0.05335
2966.26868	0.05437
2964.98291	0.05521
2963.69715	0.05583
2962.41138	0.05627
2961.12561	0.05661
2959.83984	0.05696
2958.55407	0.05740
2957.26830	0.05794
2955.98253	0.05848
2954.69676	0.05897
2953.41100	0.05937
2952.12523	0.05962
2950.83946	0.05973
2949.55369	0.05977
2948.26792	0.05983
2946.98215	0.05988
2945.69638	0.05979
2944.41061	0.05950
2943.12484	0.05910
2941.83908	0.05874
2940.55331	0.05859
2939.26754	0.05874
2937.98177	0.05917
2936.69600	0.05975
2935.41023	0.06036
2934.12446	0.06101
2932.83869	0.06170
2931.55293	0.06239
2930.26716	0.06302
2928.98139	0.06354
2927.69562	0.06396
2926.40985	0.06428
2925.12408	0.06448
2923.83831	0.06449
2922.55254	0.06425
2921.26677	0.06378
2919.98101	0.06321
2918.69524	0.06269
2917.40947	0.06227
2916.12370	0.06183
2914.83793	0.06126
2913.55216	0.06064
2912.26639	0.06017
2910.98062	0.05994
2909.69486	0.05988
2908.40909	0.05981
2907.12332	0.05956
2905.83755	0.05906
2904.55178	0.05836
2903.26601	0.05764
2901.98024	0.05711
2900.69447	0.05685
2899.40870	0.05677
2898.12294	0.05667
2896.83717	0.05638
2895.55140	0.05587
2894.26563	0.05518
2892.97986	0.05437
2891.69409	0.05356
2890.40832	0.05292
2889.12255	0.05260
2887.83678	0.05251
2886.55102	0.05240
2885.26525	0.05216
2883.97948	0.05187
2882.69371	0.05169
2881.40794	0.05164
2880.12217	0.05159
2878.83640	0.05150
2877.55063	0.05147
2876.26487	0.05166
2874.97910	0.05207
2873.69333	0.05257
2872.40756	0.05301
2871.12179	0.05333
2869.83602	0.05350
2868.55025	0.05355
2867.26448	0.05356
2865.97871	0.05358
2864.69295	0.05363
2863.40718	0.05369
2862.12141	0.05369
2860.83564	0.05355
2859.54987	0.05327
2858.26410	0.05291
2856.97833	0.05259
2855.69256	0.05233
2854.40680	0.05207
2853.12103	0.05169
2851.83526	0.05122
2850.54949	0.05079
2849.26372	0.05053
2847.97795	0.05036
2846.69218	0.05010
2845.40641	0.04963
2844.12064	0.04906
2842.83488	0.04853
2841.54911	0.04802
2840.26334	0.04747
2838.97757	0.04692
2837.69180	0.04650
2836.40603	0.04624
2835.12026	0.04595
2833.83449	0.04547
2832.54873	0.04483
2831.26296	0.04419
2829.97719	0.04365
2828.69142	0.04321
2827.40565	0.04287
2826.11988	0.04267
2824.83411	0.04254
2823.54834	0.04242
2822.26257	0.04226
2820.97681	0.04210
2819.69104	0.04199
2818.40527	0.04195
2817.11950	0.04200
2815.83373	0.04208
2814.54796	0.04209
2813.26219	0.04191
2811.97642	0.04151
2810.69066	0.04101
2809.40489	0.04057
2808.11912	0.04032
2806.83335	0.04025
2805.54758	0.04018
2804.26181	0.03994
2802.97604	0.03961
2801.69027	0.03942
2800.40450	0.03951
2799.11874	0.03973
2797.83297	0.03986
2796.54720	0.03980
2795.26143	0.03960
2793.97566	0.03931
2792.68989	0.03898
2791.40412	0.03866
2790.11835	0.03843
2788.83259	0.03832
2787.54682	0.03825
2786.26105	0.03821
2784.97528	0.03825
2783.68951	0.03840
2782.40374	0.03854
2781.11797	0.03854
2779.83220	0.03834
2778.54643	0.03805
2777.26067	0.03780
2775.97490	0.03766
2774.68913	0.03762
2773.40336	0.03759
2772.11759	0.03750
2770.83182	0.03741
2769.54605	0.03744
2768.26028	0.03764
2766.97452	0.03785
2765.68875	0.03789
2764.40298	0.03776
2763.11721	0.03757
2761.83144	0.03739
2760.54567	0.03718
2759.25990	0.03695
2757.97413	0.03677
2756.68836	0.03672
2755.40260	0.03681
2754.11683	0.03697
2752.83106	0.03713
2751.54529	0.03723
2750.25952	0.03727
2748.97375	0.03724
2747.68798	0.03715
2746.40221	0.03698
2745.11645	0.03670
2743.83068	0.03635
2742.54491	0.03608
2741.25914	0.03608
2739.97337	0.03631
2738.68760	0.03653
2737.40183	0.03652
2736.11606	0.03624
2734.83029	0.03589
2733.54453	0.03570
2732.25876	0.03570
2730.97299	0.03578
2729.68722	0.03579
2728.40145	0.03564
2727.11568	0.03535
2725.82991	0.03504
2724.54414	0.03486
2723.25838	0.03489
2721.97261	0.03512
2720.68684	0.03541
2719.40107	0.03562
2718.11530	0.03567
2716.82953	0.03560
2715.54376	0.03549
2714.25799	0.03537
2712.97222	0.03520
2711.68646	0.03502
2710.40069	0.03486
2709.11492	0.03477
2707.82915	0.03469
2706.54338	0.03460
2705.25761	0.03449
2703.97184	0.03444
2702.68607	0.03447
2701.40031	0.03455
2700.11454	0.03455
2698.82877	0.03442
2697.54300	0.03421
2696.25723	0.03411
2694.97146	0.03424
2693.68569	0.03451
2692.39992	0.03472
2691.11415	0.03473
2689.82839	0.03458
2688.54262	0.03445
2687.25685	0.03444
2685.97108	0.03448
2684.68531	0.03442
2683.39954	0.03426
2682.11377	0.03411
2680.82800	0.03409
2679.54224	0.03416
2678.25647	0.03418
2676.97070	0.03408
2675.68493	0.03395
2674.39916	0.03389
2673.11339	0.03392
2671.82762	0.03395
2670.54185	0.03392
2669.25608	0.03385
2667.97032	0.03380
2666.68455	0.03379
2665.39878	0.03382
2664.11301	0.03387
2662.82724	0.03389
2661.54147	0.03386
2660.25570	0.03377
2658.96993	0.03364
2657.68417	0.03343
2656.39840	0.03311
2655.11263	0.03271
2653.82686	0.03235
2652.54109	0.03221
2651.25532	0.03228
2649.96955	0.03242
2648.68378	0.03248
2647.39801	0.03247
2646.11225	0.03248
2644.82648	0.03257
2643.54071	0.03268
2642.25494	0.03272
2640.96917	0.03261
2639.68340	0.03230
2638.39763	0.03185
2637.11186	0.03139
2635.82609	0.03106
2634.54033	0.03092
2633.25456	0.03092
2631.96879	0.03108
2630.68302	0.03142
2629.39725	0.03179
2628.11148	0.03187
2626.82571	0.03140
2625.53994	0.03055
2624.25418	0.02980
2622.96841	0.02946
2621.68264	0.02942
2620.39687	0.02943
2619.11110	0.02934
2617.82533	0.02921
2616.53956	0.02910
2615.25379	0.02901
2613.96802	0.02890
2612.68226	0.02884
2611.39649	0.02894
2610.11072	0.02925
2608.82495	0.02958
2607.53918	0.02970
2606.25341	0.02953
2604.96764	0.02917
2603.68187	0.02881
2602.39611	0.02859
2601.11034	0.02852
2599.82457	0.02847
2598.53880	0.02831
2597.25303	0.02804
2595.96726	0.02777
2594.68149	0.02762
2593.39572	0.02757
2592.10995	0.02755
2590.82419	0.02753
2589.53842	0.02754
2588.25265	0.02765
2586.96688	0.02779
2585.68111	0.02787
2584.39534	0.02781
2583.10957	0.02764
2581.82380	0.02737
2580.53804	0.02708
2579.25227	0.02686
2577.96650	0.02681
2576.68073	0.02695
2575.39496	0.02718
2574.10919	0.02734
2572.82342	0.02734
2571.53765	0.02722
2570.25188	0.02711
2568.96612	0.02709
2567.68035	0.02702
2566.39458	0.02685
2565.10881	0.02665
2563.82304	0.02659
2562.53727	0.02669
2561.25150	0.02681
2559.96573	0.02680
2558.67997	0.02662
2557.39420	0.02632
2556.10843	0.02599
2554.82266	0.02573
2553.53689	0.02564
2552.25112	0.02576
2550.96535	0.02595
2549.67958	0.02594
2548.39381	0.02567
2547.10805	0.02531
2545.82228	0.02519
2544.53651	0.02539
2543.25074	0.02579
2541.96497	0.02618
2540.67920	0.02640
2539.39343	0.02634
2538.10766	0.02601
2536.82190	0.02553
2535.53613	0.02508
2534.25036	0.02480
2532.96459	0.02471
2531.67882	0.02468
2530.39305	0.02465
2529.10728	0.02466
2527.82151	0.02490
2526.53574	0.02541
2525.24998	0.02600
2523.96421	0.02643
2522.67844	0.02651
2521.39267	0.02625
2520.10690	0.02577
2518.82113	0.02532
2517.53536	0.02505
2516.24959	0.02491
2514.96383	0.02470
2513.67806	0.02434
2512.39229	0.02410
2511.10652	0.02431
2509.82075	0.02495
2508.53498	0.02564
2507.24921	0.02601
2505.96344	0.02599
2504.67767	0.02578
2503.39191	0.02557
2502.10614	0.02546
2500.82037	0.02538
2499.53460	0.02522
2498.24883	0.02496
2496.96306	0.02467
2495.67729	0.02444
2494.39152	0.02430
2493.10576	0.02425
2491.81999	0.02425
2490.53422	0.02419
2489.24845	0.02400
2487.96268	0.02373
2486.67691	0.02353
2485.39114	0.02349
2484.10537	0.02353
2482.81960	0.02349
2481.53384	0.02337
2480.24807	0.02337
2478.96230	0.02370
2477.67653	0.02435
2476.39076	0.02503
2475.10499	0.02540
2473.81922	0.02527
2472.53345	0.02477
2471.24769	0.02417
2469.96192	0.02374
2468.67615	0.02354
2467.39038	0.02347
2466.10461	0.02350
2464.81884	0.02361
2463.53307	0.02378
2462.24730	0.02388
2460.96153	0.02382
2459.67577	0.02360
2458.39000	0.02330
2457.10423	0.02305
2455.81846	0.02300
2454.53269	0.02320
2453.24692	0.02358
2451.96115	0.02402
2450.67538	0.02443
2449.38962	0.02468
2448.10385	0.02467
2446.81808	0.02449
2445.53231	0.02430
2444.24654	0.02415
2442.96077	0.02387
2441.67500	0.02343
2440.38923	0.02303
2439.10346	0.02286
2437.81770	0.02290
2436.53193	0.02297
2435.24616	0.02295
2433.96039	0.02280
2432.67462	0.02255
2431.38885	0.02226
2430.10308	0.02210
2428.81731	0.02218
2427.53155	0.02245
2426.24578	0.02270
2424.96001	0.02276
2423.67424	0.02268
2422.38847	0.02261
2421.10270	0.02265
2419.81693	0.02276
2418.53116	0.02282
2417.24539	0.02278
2415.95963	0.02273
2414.67386	0.02278
2413.38809	0.02288
2412.10232	0.02290
2410.81655	0.02282
2409.53078	0.02278
2408.24501	0.02287
2406.95924	0.02302
2405.67347	0.02310
2404.38771	0.02309
2403.10194	0.02304
2401.81617	0.02292
2400.53040	0.02269
2399.24463	0.02244
2397.95886	0.02220
2396.67309	0.02210
2395.38732	0.02220
2394.10156	0.02240
2392.81579	0.02253
2391.53002	0.02257
2390.24425	0.02264
2388.95848	0.02278
2387.67271	0.02290
2386.38694	0.02284
2385.10117	0.02261
2383.81540	0.02238
2382.52964	0.02226
2381.24387	0.02216
2379.95810	0.02183
2378.67233	0.02120
2377.38656	0.02041
2376.10079	0.01966
2374.81502	0.01906
2373.52925	0.01860
2372.24349	0.01820
2370.95772	0.01773
2369.67195	0.01706
2368.38618	0.01616
2367.10041	0.01518
2365.81464	0.01435
2364.52887	0.01382
2363.24310	0.01361
2361.95733	0.01361
2360.67157	0.01378
2359.38580	0.01410
2358.10003	0.01463
2356.81426	0.01540
2355.52849	0.01640
2354.24272	0.01758
2352.95695	0.01870
2351.67118	0.01948
2350.38542	0.01974
2349.09965	0.01957
2347.81388	0.01923
2346.52811	0.01891
2345.24234	0.01862
2343.95657	0.01827
2342.67080	0.01781
2341.38503	0.01733
2340.09926	0.01696
2338.81350	0.01676
2337.52773	0.01666
2336.24196	0.01652
2334.95619	0.01623
2333.67042	0.01584
2332.38465	0.01555
2331.09888	0.01551
2329.81311	0.01576
2328.52735	0.01622
2327.24158	0.01683
2325.95581	0.01754
2324.67004	0.01827
2323.38427	0.01896
2322.09850	0.01954
2320.81273	0.01999
2319.52696	0.02027
2318.24119	0.02041
2316.95543	0.02049
2315.66966	0.02064
2314.38389	0.02089
2313.09812	0.02119
2311.81235	0.02145
2310.52658	0.02163
2309.24081	0.02170
2307.95504	0.02163
2306.66928	0.02142
2305.38351	0.02112
2304.09774	0.02087
2302.81197	0.02074
2301.52620	0.02080
2300.24043	0.02107
2298.95466	0.02147
2297.66889	0.02188
2296.38312	0.02210
2295.09736	0.02204
2293.81159	0.02172
2292.52582	0.02136
2291.24005	0.02121
2289.95428	0.02133
2288.66851	0.02150
2287.38274	0.02142
2286.09697	0.02105
2284.81121	0.02066
2283.52544	0.02051
2282.23967	0.02065
2280.95390	0.02081
2279.66813	0.02073
2278.38236	0.02043
2277.09659	0.02013
2275.81082	0.02000
2274.52505	0.01999
2273.23929	0.01997
2271.95352	0.01991
2270.66775	0.01987
2269.38198	0.01986
2268.09621	0.01977
2266.81044	0.01951
2265.52467	0.01913
2264.23890	0.01880
2262.95314	0.01866
2261.66737	0.01876
2260.38160	0.01904
2259.09583	0.01937
2257.81006	0.01951
2256.52429	0.01932
2255.23852	0.01884
2253.95275	0.01829
2252.66698	0.01787
2251.38122	0.01767
2250.09545	0.01782
2248.80968	0.01836
2247.52391	0.01853
2246.23814	0.01861
2244.95237	0.01853
2243.66660	0.01823
2242.38083	0.01764
2241.09507	0.01683
2239.80930	0.01608
2238.52353	0.01584
2237.23776	0.01617
2235.95199	0.01661
2234.66622	0.01660
2233.38045	0.01606
2232.09468	0.01536
2230.80891	0.01490
2229.52315	0.01473
2228.23738	0.01471
2226.95161	0.01478
2225.66584	0.01496
2224.38007	0.01530
2223.09430	0.01582
2221.80853	0.01635
2220.52276	0.01658
2219.23700	0.01628
2217.95123	0.01567
2216.66546	0.01514
2215.37969	0.01471
2214.09392	0.01393
2212.80815	0.01267
2211.52238	0.01154
2210.23661	0.01133
2208.95084	0.01218
2207.66508	0.01336
2206.37931	0.01395
2205.09354	0.01352
2203.80777	0.01257
2202.52200	0.01212
2201.23623	0.01280
2199.95046	0.01424
2198.66469	0.01530
2197.37893	0.01517
2196.09316	0.01413
2194.80739	0.01313
2193.52162	0.01280
2192.23585	0.01303
2190.95008	0.01346
2189.66431	0.01405
2188.37854	0.01487
2187.09277	0.01560
2185.80701	0.01575
2184.52124	0.01519
2183.23547	0.01425
2181.94970	0.01316
2180.66393	0.01180
2179.37816	0.01019
2178.09239	0.00895
2176.80662	0.00879
2175.52085	0.00957
2174.23509	0.01036
2172.94932	0.01047
2171.66355	0.00989
2170.37778	0.00886
2169.09201	0.00759
2167.80624	0.00658
2166.52047	0.00659
2165.23470	0.00769
2163.94894	0.00874
2162.66317	0.00849
2161.37740	0.00692
2160.09163	0.00519
2158.80586	0.00443
2157.52009	0.00474
2156.23432	0.00547
2154.94855	0.00608
2153.66278	0.00647
2152.37702	0.00684
2151.09125	0.00737
2149.80548	0.00813
2148.51971	0.00914
2147.23394	0.01028
2145.94817	0.01135
2144.66240	0.01207
2143.37663	0.01226
2142.09087	0.01186
2140.80510	0.01103
2139.51933	0.01008
2138.23356	0.00935
2136.94779	0.00902
2135.66202	0.00920
2134.37625	0.00988
2133.09048	0.01072
2131.80471	0.01116
2130.51895	0.01095
2129.23318	0.01042
2127.94741	0.01009
2126.66164	0.01010
2125.37587	0.01025
2124.09010	0.01045
2122.80433	0.01075
2121.51856	0.01117
2120.23280	0.01170
2118.94703	0.01233
2117.66126	0.01296
2116.37549	0.01329
2115.08972	0.01304
2113.80395	0.01241
2112.51818	0.01197
2111.23241	0.01209
2109.94664	0.01267
2108.66088	0.01332
2107.37511	0.01372
2106.08934	0.01374
2104.80357	0.01337
2103.51780	0.01277
2102.23203	0.01214
2100.94626	0.01155
2099.66049	0.01161
2098.37473	0.01124
2097.08896	0.01061
2095.80319	0.01025
2094.51742	0.01036
2093.23165	0.01082
2091.94588	0.01128
2090.66011	0.01142
2089.37434	0.01119
2088.08857	0.01080
2086.80281	0.01049
2085.51704	0.01034
2084.23127	0.01030
2082.94550	0.01037
2081.65973	0.01059
2080.37396	0.01087
2079.08819	0.01093
2077.80242	0.01068
2076.51666	0.01041
2075.23089	0.01057
2073.94512	0.01118
2072.65935	0.01179
2071.37358	0.01189
2070.08781	0.01137
2068.80204	0.01056
2067.51627	0.00989
2066.23050	0.00959
2064.94474	0.00960
2063.65897	0.00965
2062.37320	0.00944
2061.08743	0.00892
2059.80166	0.00831
2058.51589	0.00786
2057.23012	0.00750
2055.94435	0.00701
2054.65859	0.00637
2053.37282	0.00578
2052.08705	0.00549
2050.80128	0.00557
2049.51551	0.00601
2048.22974	0.00665
2046.94397	0.00717
2045.65820	0.00729
2044.37243	0.00706
2043.08667	0.00675
2041.80090	0.00638
2040.51513	0.00568
2039.22936	0.00435
2037.94359	0.00263
2036.65782	0.00141
2035.37205	0.00165
2034.08628	0.00345
2032.80052	0.00591
2031.51475	0.00783
2030.22898	0.00868
2028.94321	0.00868
2027.65744	0.00833
2026.37167	0.00788
2025.08590	0.00725
2023.80013	0.00634
2022.51436	0.00536
2021.22860	0.00477
2019.94283	0.00486
2018.65706	0.00538
2017.37129	0.00575
2016.08552	0.00561
2014.79975	0.00511
2013.51398	0.00474
2012.22821	0.00494
2010.94245	0.00562
2009.65668	0.00625
2008.37091	0.00634
2007.08514	0.00594
2005.79937	0.00563
2004.51360	0.00589
2003.22783	0.00669
2001.94206	0.00765
2000.65629	0.00845
1999.37053	0.00900
1998.08476	0.00935
1996.79899	0.00959
1995.51322	0.00976
1994.22745	0.00986
1992.94168	0.00983
1991.65591	0.00955
1990.37014	0.00897
1989.08438	0.00815
1987.79861	0.00736
1986.51284	0.00708
1985.22707	0.00771
1983.94130	0.00925
1982.65553	0.01121
1981.36976	0.01298
1980.08399	0.01404
1978.79822	0.01407
1977.51246	0.01302
1976.22669	0.01120
1974.94092	0.00927
1973.65515	0.00806
1972.36938	0.00808
1971.08361	0.00914
1969.79784	0.01037
1968.51207	0.01096
1967.22631	0.01072
1965.94054	0.01007
1964.65477	0.00950
1963.36900	0.00923
1962.08323	0.00909
1960.79746	0.00885
1959.51169	0.00850
1958.22592	0.00825
1956.94015	0.00838
1955.65439	0.00903
1954.36862	0.01004
1953.08285	0.01101
1951.79708	0.01152
1950.51131	0.01141
1949.22554	0.01093
1947.93977	0.01047
1946.65400	0.01040
1945.36823	0.01078
1944.08247	0.01141
1942.79670	0.01190
1941.51093	0.01203
1940.22516	0.01192
1938.93939	0.01180
1937.65362	0.01171
1936.36785	0.01160
1935.08208	0.01150
1933.79632	0.01160
1932.51055	0.01201
1931.22478	0.01257
1929.93901	0.01297
1928.65324	0.01304
1927.36747	0.01285
1926.08170	0.01261
1924.79593	0.01241
1923.51016	0.01227
1922.22440	0.01222
1920.93863	0.01235
1919.65286	0.01264
1918.36709	0.01283
1917.08132	0.01269
1915.79555	0.01234
1914.50978	0.01215
1913.22401	0.01232
1911.93825	0.01284
1910.65248	0.01345
1909.36671	0.01385
1908.08094	0.01394
1906.79517	0.01387
1905.50940	0.01389
1904.22363	0.01403
1902.93786	0.01413
1901.65209	0.01408
1900.36633	0.01399
1899.08056	0.01406
1897.79479	0.01432
1896.50902	0.01456
1895.22325	0.01451
1893.93748	0.01412
1892.65171	0.01363
1891.36594	0.01333
1890.08018	0.01324
1888.79441	0.01321
1887.50864	0.01321
1886.22287	0.01334
1884.93710	0.01358
1883.65133	0.01376
1882.36556	0.01368
1881.07979	0.01338
1879.79402	0.01306
1878.50826	0.01296
1877.22249	0.01311
1875.93672	0.01335
1874.65095	0.01346
1873.36518	0.01340
1872.07941	0.01331
1870.79364	0.01334
1869.50787	0.01342
1868.22211	0.01334
1866.93634	0.01305
1865.65057	0.01273
1864.36480	0.01253
1863.07903	0.01248
1861.79326	0.01254
1860.50749	0.01274
1859.22172	0.01309
1857.93595	0.01347
1856.65019	0.01367
1855.36442	0.01356
1854.07865	0.01325
1852.79288	0.01298
1851.50711	0.01295
1850.22134	0.01309
1848.93557	0.01321
1847.64980	0.01321
1846.36404	0.01323
1845.07827	0.01337
1843.79250	0.01350
1842.50673	0.01353
1841.22096	0.01355
1839.93519	0.01360
1838.64942	0.01360
1837.36365	0.01352
1836.07788	0.01344
1834.79212	0.01345
1833.50635	0.01363
1832.22058	0.01396
1830.93481	0.01430
1829.64904	0.01443
1828.36327	0.01434
1827.07750	0.01429
1825.79173	0.01438
1824.50597	0.01445
1823.22020	0.01440
1821.93443	0.01435
1820.64866	0.01434
1819.36289	0.01434
1818.07712	0.01426
1816.79135	0.01407
1815.50558	0.01384
1814.21981	0.01366
1812.93405	0.01358
1811.64828	0.01356
1810.36251	0.01354
1809.07674	0.01354
1807.79097	0.01361
1806.50520	0.01373
1805.21943	0.01385
1803.93366	0.01393
1802.64790	0.01400
1801.36213	0.01404
1800.07636	0.01409
1798.79059	0.01414
1797.50482	0.01417
1796.21905	0.01416
1794.93328	0.01418
1793.64751	0.01429
1792.36174	0.01439
1791.07598	0.01439
1789.79021	0.01439
1788.50444	0.01454
1787.21867	0.01477
1785.93290	0.01489
1784.64713	0.01480
1783.36136	0.01462
1782.07559	0.01455
1780.78983	0.01462
1779.50406	0.01470
1778.21829	0.01464
1776.93252	0.01446
1775.64675	0.01427
1774.36098	0.01427
1773.07521	0.01442
1771.78944	0.01453
1770.50367	0.01464
1769.21791	0.01489
1767.93214	0.01514
1766.64637	0.01511
1765.36060	0.01490
1764.07483	0.01479
1762.78906	0.01483
1761.50329	0.01480
1760.21752	0.01468
1758.93176	0.01465
1757.64599	0.01476
1756.36022	0.01480
1755.07445	0.01469
1753.78868	0.01462
1752.50291	0.01470
1751.21714	0.01473
1749.93137	0.01463
1748.64560	0.01457
1747.35984	0.01470
1746.07407	0.01492
1744.78830	0.01503
1743.50253	0.01502
1742.21676	0.01502
1740.93099	0.01515
1739.64522	0.01520
1738.35945	0.01506
1737.07369	0.01504
1735.78792	0.01544
1734.50215	0.01588
1733.21638	0.01588
1731.93061	0.01559
1730.64484	0.01554
1729.35907	0.01584
1728.07330	0.01615
1726.78753	0.01633
1725.50177	0.01644
1724.21600	0.01649
1722.93023	0.01642
1721.64446	0.01628
1720.35869	0.01636
1719.07292	0.01675
1717.78715	0.01714
1716.50138	0.01725
1715.21561	0.01723
1713.92985	0.01737
1712.64408	0.01772
1711.35831	0.01813
1710.07254	0.01850
1708.78677	0.01879
1707.50100	0.01902
1706.21523	0.01914
1704.92946	0.01902
1703.64370	0.01892
1702.35793	0.01926
1701.07216	0.01981
1699.78639	0.01996
1698.50062	0.01986
1697.21485	0.02019
1695.92908	0.02085
1694.64331	0.02119
1693.35754	0.02124
1692.07178	0.02148
1690.78601	0.02189
1689.50024	0.02209
1688.21447	0.02212
1686.92870	0.02243
1685.64293	0.02306
1684.35716	0.02346
1683.07139	0.02333
1681.78563	0.02314
1680.49986	0.02330
1679.21409	0.02369
1677.92832	0.02417
1676.64255	0.02472
1675.35678	0.02511
1674.07101	0.02514
1672.78524	0.02504
1671.49947	0.02516
1670.21371	0.02547
1668.92794	0.02571
1667.64217	0.02577
1666.35640	0.02585
1665.07063	0.02615
1663.78486	0.02657
1662.49909	0.02690
1661.21332	0.02704
1659.92756	0.02705
1658.64179	0.02692
1657.35602	0.02667
1656.07025	0.02669
1654.78448	0.02727
1653.49871	0.02787
1652.21294	0.02773
1650.92717	0.02704
1649.64140	0.02676
1648.35564	0.02724
1647.06987	0.02792
1645.78410	0.02822
1644.49833	0.02819
1643.21256	0.02818
1641.92679	0.02827
1640.64102	0.02829
1639.35525	0.02821
1638.06949	0.02824
1636.78372	0.02847
1635.49795	0.02860
1634.21218	0.02844
1632.92641	0.02823
1631.64064	0.02830
1630.35487	0.02860
1629.06910	0.02886
1627.78333	0.02889
1626.49757	0.02877
1625.21180	0.02869
1623.92603	0.02869
1622.64026	0.02856
1621.35449	0.02825
1620.06872	0.02804
1618.78295	0.02820
1617.49718	0.02854
1616.21142	0.02862
1614.92565	0.02839
1613.63988	0.02826
1612.35411	0.02841
1611.06834	0.02864
1609.78257	0.02876
1608.49680	0.02877
1607.21103	0.02875
1605.92526	0.02876
1604.63950	0.02881
1603.35373	0.02889
1602.06796	0.02900
1600.78219	0.02912
1599.49642	0.02924
1598.21065	0.02932
1596.92488	0.02934
1595.63911	0.02932
1594.35335	0.02929
1593.06758	0.02930
1591.78181	0.02934
1590.49604	0.02939
1589.21027	0.02940
1587.92450	0.02941
1586.63873	0.02943
1585.35296	0.02947
1584.06719	0.02953
1582.78143	0.02956
1581.49566	0.02949
1580.20989	0.02935
1578.92412	0.02934
1577.63835	0.02962
1576.35258	0.02992
1575.06681	0.02990
1573.78104	0.02976
1572.49528	0.02994
1571.20951	0.03045
1569.92374	0.03090
1568.63797	0.03104
1567.35220	0.03107
1566.06643	0.03118
1564.78066	0.03125
1563.49489	0.03117
1562.20912	0.03123
1560.92336	0.03170
1559.63759	0.03223
1558.35182	0.03228
1557.06605	0.03204
1555.78028	0.03216
1554.49451	0.03271
1553.20874	0.03332
1551.92297	0.03381
1550.63721	0.03423
1549.35144	0.03453
1548.06567	0.03468
1546.77990	0.03477
1545.49413	0.03479
1544.20836	0.03472
1542.92259	0.03471
1541.63682	0.03501
1540.35105	0.03551
1539.06529	0.03581
1537.77952	0.03583
1536.49375	0.03604
1535.20798	0.03671
1533.92221	0.03757
1532.63644	0.03820
1531.35067	0.03863
1530.06490	0.03911
1528.77914	0.03972
1527.49337	0.04035
1526.20760	0.04087
1524.92183	0.04135
1523.63606	0.04206
1522.35029	0.04307
1521.06452	0.04407
1519.77875	0.04491
1518.49298	0.04586
1517.20722	0.04706
1515.92145	0.04835
1514.63568	0.04962
1513.34991	0.05087
1512.06414	0.05200
1510.77837	0.05297
1509.49260	0.05406
1508.20683	0.05551
1506.92107	0.05710
1505.63530	0.05839
1504.34953	0.05937
1503.06376	0.06039
1501.77799	0.06153
1500.49222	0.06260
1499.20645	0.06353
1497.92068	0.06444
1496.63491	0.06529
1495.34915	0.06593
1494.06338	0.06642
1492.77761	0.06705
1491.49184	0.06788
1490.20607	0.06873
1488.92030	0.06954
1487.63453	0.07039
1486.34876	0.07135
1485.06299	0.07239
1483.77723	0.07351
1482.49146	0.07465
1481.20569	0.07574
1479.91992	0.07674
1478.63415	0.07769
1477.34838	0.07858
1476.06261	0.07941
1474.77684	0.08027
1473.49108	0.08117
1472.20531	0.08194
1470.91954	0.08247
1469.63377	0.08288
1468.34800	0.08336
1467.06223	0.08393
1465.77646	0.08446
1464.49069	0.08478
1463.20492	0.08492
1461.91916	0.08501
1460.63339	0.08527
1459.34762	0.08583
1458.06185	0.08657
1456.77608	0.08713
1455.49031	0.08734
1454.20454	0.08751
1452.91877	0.08788
1451.63301	0.08833
1450.34724	0.08866
1449.06147	0.08884
1447.77570	0.08887
1446.48993	0.08872
1445.20416	0.08844
1443.91839	0.08809
1442.63262	0.08765
1441.34685	0.08711
1440.06109	0.08662
1438.77532	0.08641
1437.48955	0.08647
1436.20378	0.08658
1434.91801	0.08671
1433.63224	0.08711
1432.34647	0.08793
1431.06070	0.08903
1429.77494	0.09024
1428.48917	0.09151
1427.20340	0.09287
1425.91763	0.09432
1424.63186	0.09568
1423.34609	0.09683
1422.06032	0.09790
1420.77455	0.09906
1419.48878	0.10017
1418.20302	0.10100
1416.91725	0.10159
1415.63148	0.10213
1414.34571	0.10260
1413.05994	0.10287
1411.77417	0.10284
1410.48840	0.10246
1409.20263	0.10175
1407.91687	0.10078
1406.63110	0.09962
1405.34533	0.09831
1404.05956	0.09682
1402.77379	0.09517
1401.48802	0.09346
1400.20225	0.09167
1398.91648	0.08973
1397.63071	0.08769
1396.34495	0.08569
1395.05918	0.08373
1393.77341	0.08167
1392.48764	0.07948
1391.20187	0.07730
1389.91610	0.07527
1388.63033	0.07335
1387.34456	0.07146
1386.05880	0.06956
1384.77303	0.06770
1383.48726	0.06592
1382.20149	0.06420
1380.91572	0.06247
1379.62995	0.06069
1378.34418	0.05886
1377.05841	0.05697
1375.77264	0.05509
1374.48688	0.05321
1373.20111	0.05131
1371.91534	0.04942
1370.62957	0.04764
1369.34380	0.04601
1368.05803	0.04447
1366.77226	0.04297
1365.48649	0.04152
1364.20073	0.04015
1362.91496	0.03884
1361.62919	0.03754
1360.34342	0.03629
1359.05765	0.03516
1357.77188	0.03420
1356.48611	0.03338
1355.20034	0.03264
1353.91457	0.03193
1352.62881	0.03122
1351.34304	0.03055
1350.05727	0.02994
1348.77150	0.02940
1347.48573	0.02891
1346.19996	0.02841
1344.91419	0.02789
1343.62842	0.02736
1342.34266	0.02687
1341.05689	0.02647
1339.77112	0.02611
1338.48535	0.02575
1337.19958	0.02538
1335.91381	0.02504
1334.62804	0.02476
1333.34227	0.02451
1332.05650	0.02427
1330.77074	0.02402
1329.48497	0.02380
1328.19920	0.02360
1326.91343	0.02340
1325.62766	0.02321
1324.34189	0.02304
1323.05612	0.02291
1321.77035	0.02277
1320.48459	0.02259
1319.19882	0.02235
1317.91305	0.02210
1316.62728	0.02190
1315.34151	0.02175
1314.05574	0.02162
1312.76997	0.02150
1311.48420	0.02136
1310.19843	0.02123
1308.91267	0.02111
1307.62690	0.02100
1306.34113	0.02088
1305.05536	0.02074
1303.76959	0.02056
1302.48382	0.02039
1301.19805	0.02026
1299.91228	0.02019
1298.62652	0.02012
1297.34075	0.02002
1296.05498	0.01988
1294.76921	0.01975
1293.48344	0.01965
1292.19767	0.01959
1290.91190	0.01954
1289.62613	0.01948
1288.34036	0.01941
1287.05460	0.01931
1285.76883	0.01917
1284.48306	0.01900
1283.19729	0.01882
1281.91152	0.01869
1280.62575	0.01861
1279.33998	0.01857
1278.05421	0.01852
1276.76845	0.01844
1275.48268	0.01832
1274.19691	0.01817
1272.91114	0.01801
1271.62537	0.01784
1270.33960	0.01770
1269.05383	0.01762
1267.76806	0.01762
1266.48229	0.01768
1265.19653	0.01773
1263.91076	0.01772
1262.62499	0.01764
1261.33922	0.01752
1260.05345	0.01739
1258.76768	0.01726
1257.48191	0.01715
1256.19614	0.01704
1254.91037	0.01695
1253.62461	0.01687
1252.33884	0.01677
1251.05307	0.01666
1249.76730	0.01655
1248.48153	0.01645
1247.19576	0.01638
1245.90999	0.01634
1244.62422	0.01631
1243.33846	0.01630
1242.05269	0.01629
1240.76692	0.01626
1239.48115	0.01617
1238.19538	0.01601
1236.90961	0.01582
1235.62384	0.01568
1234.33807	0.01565
1233.05230	0.01569
1231.76654	0.01572
1230.48077	0.01570
1229.19500	0.01565
1227.90923	0.01558
1226.62346	0.01554
1225.33769	0.01551
1224.05192	0.01547
1222.76615	0.01541
1221.48039	0.01533
1220.19462	0.01525
1218.90885	0.01519
1217.62308	0.01513
1216.33731	0.01507
1215.05154	0.01504
1213.76577	0.01507
1212.48000	0.01515
1211.19423	0.01526
1209.90847	0.01535
1208.62270	0.01539
1207.33693	0.01540
1206.05116	0.01539
1204.76539	0.01538
1203.47962	0.01540
1202.19385	0.01544
1200.90808	0.01546
1199.62232	0.01544
1198.33655	0.01552
1197.05078	0.01558
1195.76501	0.01558
1194.47924	0.01553
1193.19347	0.01549
1191.90770	0.01550
1190.62193	0.01560
1189.33616	0.01571
1188.05040	0.01580
1186.76463	0.01585
1185.47886	0.01592
1184.19309	0.01605
1182.90732	0.01622
1181.62155	0.01639
1180.33578	0.01652
1179.05001	0.01664
1177.76425	0.01675
1176.47848	0.01687
1175.19271	0.01701
1173.90694	0.01717
1172.62117	0.01734
1171.33540	0.01749
1170.04963	0.01765
1168.76386	0.01784
1167.47809	0.01811
1166.19233	0.01842
1164.90656	0.01872
1163.62079	0.01897
1162.33502	0.01920
1161.04925	0.01944
1159.76348	0.01971
1158.47771	0.02000
1157.19194	0.02032
1155.90618	0.02069
1154.62041	0.02108
1153.33464	0.02151
1152.04887	0.02198
1150.76310	0.02250
1149.47733	0.02303
1148.19156	0.02355
1146.90579	0.02408
1145.62002	0.02470
1144.33426	0.02544
1143.04849	0.02627
1141.76272	0.02718
1140.47695	0.02818
1139.19118	0.02932
1137.90541	0.03060
1136.61964	0.03201
1135.33387	0.03352
1134.04811	0.03514
1132.76234	0.03692
1131.47657	0.03890
1130.19080	0.04116
1128.90503	0.04372
1127.61926	0.04657
1126.33349	0.04965
1125.04772	0.05286
1123.76195	0.05613
1122.47619	0.05945
1121.19042	0.06283
1119.90465	0.06630
1118.61888	0.06989
1117.33311	0.07355
1116.04734	0.07721
1114.76157	0.08077
1113.47580	0.08418
1112.19004	0.08747
1110.90427	0.09066
1109.61850	0.09377
1108.33273	0.09680
1107.04696	0.09973
1105.76119	0.10258
1104.47542	0.10535
1103.18965	0.10802
1101.90388	0.11064
1100.61812	0.11323
1099.33235	0.11582
1098.04658	0.11838
1096.76081	0.12080
1095.47504	0.12303
1094.18927	0.12508
1092.90350	0.12702
1091.61773	0.12891
1090.33197	0.13081
1089.04620	0.13271
1087.76043	0.13460
1086.47466	0.13647
1085.18889	0.13831
1083.90312	0.14012
1082.61735	0.14200
1081.33158	0.14401
1080.04581	0.14625
1078.76005	0.14877
1077.47428	0.15154
1076.18851	0.15445
1074.90274	0.15739
1073.61697	0.16032
1072.33120	0.16330
1071.04543	0.16642
1069.75966	0.16971
1068.47390	0.17318
1067.18813	0.17677
1065.90236	0.18045
1064.61659	0.18416
1063.33082	0.18789
1062.04505	0.19164
1060.75928	0.19538
1059.47351	0.19910
1058.18774	0.20280
1056.90198	0.20650
1055.61621	0.21019
1054.33044	0.21388
1053.04467	0.21757
1051.75890	0.22129
1050.47313	0.22510
1049.18736	0.22902
1047.90159	0.23304
1046.61583	0.23709
1045.33006	0.24118
1044.04429	0.24534
1042.75852	0.24959
1041.47275	0.25393
1040.18698	0.25836
1038.90121	0.26288
1037.61544	0.26746
1036.32967	0.27199
1035.04391	0.27629
1033.75814	0.28029
1032.47237	0.28401
1031.18660	0.28749
1029.90083	0.29075
1028.61506	0.29375
1027.32929	0.29642
1026.04352	0.29872
1024.75775	0.30055
1023.47199	0.30184
1022.18622	0.30256
1020.90045	0.30272
1019.61468	0.30228
1018.32891	0.30121
1017.04314	0.29952
1015.75737	0.29720
1014.47160	0.29427
1013.18584	0.29077
1011.90007	0.28674
1010.61430	0.28222
1009.32853	0.27714
1008.04276	0.27141
1006.75699	0.26499
1005.47122	0.25798
1004.18545	0.25049
1002.89968	0.24264
1001.61392	0.23446
1000.32815	0.22601
999.04238	0.21740
997.75661	0.20873
996.47084	0.20010
995.18507	0.19159
993.89930	0.18325
992.61353	0.17516
991.32777	0.16737
990.04200	0.15992
988.75623	0.15282
987.47046	0.14607
986.18469	0.13969
984.89892	0.13367
983.61315	0.12801
982.32738	0.12274
981.04161	0.11793
979.75585	0.11359
978.47008	0.10972
977.18431	0.10625
975.89854	0.10321
974.61277	0.10061
973.32700	0.09849
972.04123	0.09692
970.75546	0.09596
969.46970	0.09559
968.18393	0.09574
966.89816	0.09634
965.61239	0.09724
964.32662	0.09824
963.04085	0.09902
961.75508	0.09933
960.46931	0.09901
959.18354	0.09803
957.89778	0.09636
956.61201	0.09411
955.32624	0.09146
954.04047	0.08865
952.75470	0.08586
951.46893	0.08318
950.18316	0.08068
948.89739	0.07833
947.61163	0.07607
946.32586	0.07384
945.04009	0.07168
943.75432	0.06963
942.46855	0.06769
941.18278	0.06585
939.89701	0.06408
938.61124	0.06242
937.32547	0.06092
936.03971	0.05958
934.75394	0.05835
933.46817	0.05715
932.18240	0.05597
930.89663	0.05484
929.61086	0.05385
928.32509	0.05303
927.03932	0.05232
925.75356	0.05162
924.46779	0.05089
923.18202	0.05019
921.89625	0.04957
920.61048	0.04902
919.32471	0.04851
918.03894	0.04801
916.75317	0.04748
915.46740	0.04695
914.18164	0.04641
912.89587	0.04589
911.61010	0.04545
910.32433	0.04512
909.03856	0.04488
907.75279	0.04464
906.46702	0.04431
905.18125	0.04395
903.89549	0.04359
902.60972	0.04324
901.32395	0.04286
900.03818	0.04248
898.75241	0.04219
897.46664	0.04204
896.18087	0.04198
894.89510	0.04192
893.60933	0.04184
892.32357	0.04180
891.03780	0.04189
889.75203	0.04219
888.46626	0.04271
887.18049	0.04351
885.89472	0.04474
884.60895	0.04661
883.32318	0.04918
882.03742	0.05221
880.75165	0.05518
879.46588	0.05763
878.18011	0.05945
876.89434	0.06099
875.60857	0.06266
874.32280	0.06448
873.03703	0.06600
871.75126	0.06665
870.46550	0.06618
869.17973	0.06471
867.89396	0.06256
866.60819	0.06001
865.32242	0.05726
864.03665	0.05449
862.75088	0.05185
861.46511	0.04947
860.17935	0.04745
858.89358	0.04582
857.60781	0.04454
856.32204	0.04356
855.03627	0.04282
853.75050	0.04223
852.46473	0.04166
851.17896	0.04102
849.89319	0.04031
848.60743	0.03964
847.32166	0.03910
846.03589	0.03870
844.75012	0.03837
843.46435	0.03805
842.17858	0.03775
840.89281	0.03748
839.60704	0.03720
838.32128	0.03687
837.03551	0.03652
835.74974	0.03624
834.46397	0.03607
833.17820	0.03597
831.89243	0.03584
830.60666	0.03564
829.32089	0.03544
828.03512	0.03535
826.74936	0.03538
825.46359	0.03540
824.17782	0.03529
822.89205	0.03506
821.60628	0.03483
820.32051	0.03468
819.03474	0.03460
817.74897	0.03455
816.46321	0.03450
815.17744	0.03444
813.89167	0.03440
812.60590	0.03441
811.32013	0.03447
810.03436	0.03456
808.74859	0.03462
807.46282	0.03467
806.17705	0.03469
804.89129	0.03471
803.60552	0.03475
802.31975	0.03482
801.03398	0.03489
799.74821	0.03493
798.46244	0.03494
797.17667	0.03497
795.89090	0.03499
794.60513	0.03495
793.31937	0.03480
792.03360	0.03460
790.74783	0.03446
789.46206	0.03442
788.17629	0.03446
786.89052	0.03453
785.60475	0.03465
784.31898	0.03483
783.03322	0.03499
781.74745	0.03506
780.46168	0.03501
779.17591	0.03491
777.89014	0.03483
776.60437	0.03478
775.31860	0.03476
774.03283	0.03478
772.74706	0.03484
771.46130	0.03491
770.17553	0.03494
768.88976	0.03489
767.60399	0.03478
766.31822	0.03466
765.03245	0.03455
763.74668	0.03448
762.46091	0.03446
761.17515	0.03451
759.88938	0.03459
758.60361	0.03462
757.31784	0.03458
756.03207	0.03457
754.74630	0.03463
753.46053	0.03476
752.17476	0.03485
750.88899	0.03490
749.60323	0.03493
748.31746	0.03495
747.03169	0.03488
745.74592	0.03470
744.46015	0.03447
743.17438	0.03430
741.88861	0.03425
740.60284	0.03426
739.31708	0.03420
738.03131	0.03404
736.74554	0.03386
735.45977	0.03372
734.17400	0.03361
732.88823	0.03353
731.60246	0.03353
730.31669	0.03364
729.03092	0.03380
727.74516	0.03390
726.45939	0.03391
725.17362	0.03387
723.88785	0.03373
722.60208	0.03387
721.31631	0.03415
720.03054	0.03438
718.74477	0.03453
717.45901	0.03458
716.17324	0.03451
714.88747	0.03433
713.60170	0.03409
712.31593	0.03385
711.03016	0.03364
709.74439	0.03347
708.45862	0.03331
707.17285	0.03316
705.88709	0.03304
704.60132	0.03299
703.31555	0.03303
702.02978	0.03312
700.74401	0.03321
699.45824	0.03329
698.17247	0.03337
696.88670	0.03347
695.60094	0.03358
694.31517	0.03364
693.02940	0.03361
691.74363	0.03352
690.45786	0.03342
689.17209	0.03334
687.88632	0.03327
686.60055	0.03318
685.31478	0.03303
684.02902	0.03285
682.74325	0.03268
681.45748	0.03255
680.17171	0.03245
678.88594	0.03237
677.60017	0.03229
676.31440	0.03224
675.02863	0.03222
673.74287	0.03223
672.45710	0.03222
671.17133	0.03217
669.88556	0.03206
668.59979	0.03199
667.31402	0.03202
666.02825	0.03212
664.74248	0.03219
663.45671	0.03215
662.17095	0.03199
660.88518	0.03180
659.59941	0.03164
658.31364	0.03155
657.02787	0.03152
655.74210	0.03153
654.45633	0.03156
653.17056	0.03164
651.88480	0.03175
650.59903	0.03186
649.31326	0.03193
648.02749	0.03201
646.74172	0.03214
645.45595	0.03234
644.17018	0.03257
642.88441	0.03276
641.59864	0.03291
640.31288	0.03305
639.02711	0.03322
637.74134	0.03344
636.45557	0.03371
635.16980	0.03404
633.88403	0.03445
632.59826	0.03490
631.31249	0.03546
630.02673	0.03654
628.74096	0.03795
627.45519	0.03812
626.16942	0.03985
624.88365	0.04263
623.59788	0.04540
622.31211	0.04802
621.02634	0.05065
619.74057	0.05323
618.45481	0.05548
617.16904	0.05732
615.88327	0.05880
614.59750	0.06008
613.31173	0.06181
612.02596	0.06522
610.74019	0.07130
609.45442	0.07932
608.16866	0.08716
606.88289	0.09327
605.59712	0.09775
604.31135	0.10134
603.02558	0.10415
601.73981	0.10567
600.45404	0.10541
599.16827	0.10345
597.88250	0.10034
596.59674	0.09672
595.31097	0.09316
594.02520	0.09001
592.73943	0.08753
591.45366	0.08584
590.16789	0.08497
588.88212	0.08487
587.59635	0.08547
586.31059	0.08667
585.02482	0.08830
583.73905	0.09020
582.45328	0.09230
581.16751	0.09462
579.88174	0.09721
578.59597	0.10002
577.31020	0.10292
576.02443	0.10577
574.73867	0.10854
573.45290	0.11126
572.16713	0.11401
570.88136	0.11693
569.59559	0.12026
568.30982	0.12418
567.02405	0.12860
565.73828	0.13305
564.45251	0.13693
563.16675	0.13968
561.88098	0.14081
560.59521	0.13992
559.30944	0.13678
558.02367	0.13157
556.73790	0.12490
555.45213	0.11751
554.16636	0.11003
552.88060	0.10284
551.59483	0.09613
550.30906	0.09000
549.02329	0.08452
547.73752	0.07972
546.45175	0.07552
545.16598	0.07186
543.88021	0.06866
542.59444	0.06586
541.30868	0.06340
540.02291	0.06122
538.73714	0.05930
537.45137	0.05757
536.16560	0.05593
534.87983	0.05433
533.59406	0.05280
532.30829	0.05136
531.02253	0.05001
529.73676	0.04877
528.45099	0.04767
527.16522	0.04673
525.87945	0.04586
524.59368	0.04494
523.30791	0.04395
522.02214	0.04295
520.73637	0.04205
519.45061	0.04124
518.16484	0.04052
516.87907	0.03984
515.59330	0.03918
514.30753	0.03853
513.02176	0.03787
511.73599	0.03722
510.45022	0.03663
509.16446	0.03613
507.87869	0.03572
506.59292	0.03534
505.30715	0.03492
504.02138	0.03443
502.73561	0.03393
501.44984	0.03356
500.16407	0.03343
498.87830	0.03350
497.59254	0.03360
496.30677	0.03353
495.02100	0.03328
493.73523	0.03294
492.44946	0.03263
491.16369	0.03245
489.87792	0.03239
488.59215	0.03241
487.30639	0.03247
486.02062	0.03255
484.73485	0.03265
483.44908	0.03281
482.16331	0.03303
480.87754	0.03330
479.59177	0.03358
478.30600	0.03388
477.02023	0.03425
475.73447	0.03470
474.44870	0.03518
473.16293	0.03560
471.87716	0.03585
470.59139	0.03594
469.30562	0.03593
468.01985	0.03594
466.73408	0.03600
465.44832	0.03604
464.16255	0.03596
462.87678	0.03567
461.59101	0.03524
460.30524	0.03481
459.01947	0.03444
457.73370	0.03412
456.44793	0.03379
455.16216	0.03348
453.87640	0.03321
452.59063	0.03295
451.30486	0.03268
450.01909	0.03243
448.73332	0.03224
447.44755	0.03210
446.16178	0.03200
444.87601	0.03194
443.59025	0.03189
442.30448	0.03183
441.01871	0.03176
439.73294	0.03168
438.44717	0.03163
437.16140	0.03162
435.87563	0.03162
434.58986	0.03161
433.30409	0.03157
432.01833	0.03152
430.73256	0.03149
429.44679	0.03150
428.16102	0.03154
426.87525	0.03156
425.58948	0.03151
424.30371	0.03137
423.01794	0.03117
421.73218	0.03099
420.44641	0.03086
419.16064	0.03071
417.87487	0.03050
416.58910	0.03031
415.30333	0.03021
414.01756	0.03019
412.73179	0.03018
411.44602	0.03017
410.16026	0.03016
408.87449	0.03014
407.58872	0.03011
406.30295	0.03009
405.01718	0.03009
403.73141	0.03013
402.44564	0.03020
401.15987	0.03033
399.87411	0.03053
