3997.45528	0.05147
3996.16951	0.05090
3994.88374	0.05104
3993.59798	0.05185
3992.31221	0.05258
3991.02644	0.05269
3989.74067	0.05225
3988.45490	0.05161
3987.16913	0.05095
3985.88336	0.05027
3984.59759	0.04980
3983.31183	0.04991
3982.02606	0.05056
3980.74029	0.05117
3979.45452	0.05124
3978.16875	0.05078
3976.88298	0.05030
3975.59721	0.05018
3974.31144	0.05046
3973.02567	0.05096
3971.73991	0.05151
3970.45414	0.05188
3969.16837	0.05191
3967.88260	0.05157
3966.59683	0.05112
3965.31106	0.05085
3964.02529	0.05087
3962.73952	0.05106
3961.45376	0.05119
3960.16799	0.05111
3958.88222	0.05083
3957.59645	0.05048
3956.31068	0.05012
3955.02491	0.04972
3953.73914	0.04929
3952.45337	0.04892
3951.16760	0.04873
3949.88184	0.04867
3948.59607	0.04860
3947.31030	0.04850
3946.02453	0.04850
3944.73876	0.04866
3943.45299	0.04885
3942.16722	0.04888
3940.88145	0.04874
3939.59569	0.04873
3938.30992	0.04909
3937.02415	0.04969
3935.73838	0.05007
3934.45261	0.04994
3933.16684	0.04945
3931.88107	0.04910
3930.59530	0.04924
3929.30953	0.04981
3928.02377	0.05047
3926.73800	0.05086
3925.45223	0.05078
3924.16646	0.05025
3922.88069	0.04950
3921.59492	0.04887
3920.30915	0.04842
3919.02338	0.04794
3917.73762	0.04720
3916.45185	0.04632
3915.16608	0.04562
3913.88031	0.04539
3912.59454	0.04575
3911.30877	0.04655
3910.02300	0.04745
3908.73723	0.04811
3907.45146	0.04845
3906.16570	0.04867
3904.87993	0.04881
3903.59416	0.04870
3902.30839	0.04822
3901.02262	0.04753
3899.73685	0.04693
3898.45108	0.04659
3897.16531	0.04645
3895.87955	0.04648
3894.59378	0.04668
3893.30801	0.04700
3892.02224	0.04730
3890.73647	0.04740
3889.45070	0.04737
3888.16493	0.04749
3886.87916	0.04798
3885.59339	0.04872
3884.30763	0.04932
3883.02186	0.04943
3881.73609	0.04908
3880.45032	0.04857
3879.16455	0.04808
3877.87878	0.04755
3876.59301	0.04688
3875.30724	0.04618
3874.02148	0.04576
3872.73571	0.04591
3871.44994	0.04667
3870.16417	0.04780
3868.87840	0.04874
3867.59263	0.04901
3866.30686	0.04854
3865.02109	0.04773
3863.73532	0.04709
3862.44956	0.04682
3861.16379	0.04672
3859.87802	0.04637
3858.59225	0.04549
3857.30648	0.04434
3856.02071	0.04362
3854.73494	0.04388
3853.44917	0.04494
3852.16341	0.04618
3850.87764	0.04704
3849.59187	0.04737
3848.30610	0.04729
3847.02033	0.04704
3845.73456	0.04684
3844.44879	0.04678
3843.16302	0.04680
3841.87725	0.04679
3840.59149	0.04675
3839.30572	0.04666
3838.01995	0.04638
3836.73418	0.04582
3835.44841	0.04513
3834.16264	0.04467
3832.87687	0.04465
3831.59110	0.04495
3830.30534	0.04530
3829.01957	0.04556
3827.73380	0.04572
3826.44803	0.04576
3825.16226	0.04565
3823.87649	0.04550
3822.59072	0.04556
3821.30495	0.04592
3820.01918	0.04643
3818.73342	0.04688
3817.44765	0.04707
3816.16188	0.04684
3814.87611	0.04608
3813.59034	0.04504
3812.30457	0.04425
3811.01880	0.04412
3809.73303	0.04456
3808.44726	0.04507
3807.16150	0.04524
3805.87573	0.04513
3804.58996	0.04512
3803.30419	0.04545
3802.01842	0.04587
3800.73265	0.04587
3799.44688	0.04523
3798.16111	0.04427
3796.87535	0.04346
3795.58958	0.04300
3794.30381	0.04280
3793.01804	0.04267
3791.73227	0.04253
3790.44650	0.04238
3789.16073	0.04238
3787.87496	0.04268
3786.58919	0.04320
3785.30343	0.04360
3784.01766	0.04358
3782.73189	0.04327
3781.44612	0.04303
3780.16035	0.04301
3778.87458	0.04298
3777.58881	0.04275
3776.30304	0.04239
3775.01728	0.04207
3773.73151	0.04184
3772.44574	0.04159
3771.15997	0.04131
3769.87420	0.04115
3768.58843	0.04118
3767.30266	0.04131
3766.01689	0.04144
3764.73112	0.04155
3763.44536	0.04171
3762.15959	0.04187
3760.87382	0.04189
3759.58805	0.04170
3758.30228	0.04141
3757.01651	0.04132
3755.73074	0.04166
3754.44497	0.04226
3753.15921	0.04267
3751.87344	0.04259
3750.58767	0.04221
3749.30190	0.04195
3748.01613	0.04206
3746.73036	0.04238
3745.44459	0.04264
3744.15882	0.04265
3742.87305	0.04246
3741.58729	0.04224
3740.30152	0.04223
3739.01575	0.04247
3737.72998	0.04276
3736.44421	0.04292
3735.15844	0.04297
3733.87267	0.04300
3732.58690	0.04293
3731.30114	0.04247
3730.01537	0.04154
3728.72960	0.04045
3727.44383	0.03967
3726.15806	0.03942
3724.87229	0.03956
3723.58652	0.03982
3722.30075	0.04000
3721.01498	0.04010
3719.72922	0.04028
3718.44345	0.04067
3717.15768	0.04114
3715.87191	0.04135
3714.58614	0.04116
3713.30037	0.04075
3712.01460	0.04036
3710.72883	0.04003
3709.44307	0.03966
3708.15730	0.03927
3706.87153	0.03905
3705.58576	0.03922
3704.29999	0.03975
3703.01422	0.04031
3701.72845	0.04049
3700.44268	0.04022
3699.15691	0.03985
3697.87115	0.03970
3696.58538	0.03982
3695.29961	0.04002
3694.01384	0.04016
3692.72807	0.04018
3691.44230	0.04015
3690.15653	0.04010
3688.87076	0.03999
3687.58500	0.03978
3686.29923	0.03955
3685.01346	0.03939
3683.72769	0.03931
3682.44192	0.03911
3681.15615	0.03854
3679.87038	0.03755
3678.58461	0.03646
3677.29884	0.03583
3676.01308	0.03605
3674.72731	0.03693
3673.44154	0.03789
3672.15577	0.03840
3670.87000	0.03839
3669.58423	0.03815
3668.29846	0.03796
3667.01269	0.03789
3665.72693	0.03798
3664.44116	0.03833
3663.15539	0.03889
3661.86962	0.03937
3660.58385	0.03947
3659.29808	0.03925
3658.01231	0.03896
3656.72654	0.03868
3655.44077	0.03822
3654.15501	0.03746
3652.86924	0.03665
3651.58347	0.03622
3650.29770	0.03635
3649.01193	0.03682
3647.72616	0.03725
3646.44039	0.03737
3645.15462	0.03716
3643.86886	0.03678
3642.58309	0.03656
3641.29732	0.03668
3640.01155	0.03712
3638.72578	0.03760
3637.44001	0.03779
3636.15424	0.03754
3634.86847	0.03693
3633.58270	0.03631
3632.29694	0.03611
3631.01117	0.03646
3629.72540	0.03702
3628.43963	0.03722
3627.15386	0.03680
3625.86809	0.03620
3624.58232	0.03612
3623.29655	0.03690
3622.01079	0.03807
3620.72502	0.03883
3619.43925	0.03874
3618.15348	0.03800
3616.86771	0.03710
3615.58194	0.03634
3614.29617	0.03573
3613.01040	0.03518
3611.72463	0.03466
3610.43887	0.03438
3609.15310	0.03465
3607.86733	0.03548
3606.58156	0.03635
3605.29579	0.03667
3604.01002	0.03631
3602.72425	0.03564
3601.43848	0.03504
3600.15272	0.03462
3598.86695	0.03436
3597.58118	0.03425
3596.29541	0.03419
3595.00964	0.03398
3593.72387	0.03355
3592.43810	0.03308
3591.15233	0.03293
3589.86656	0.03334
3588.58080	0.03414
3587.29503	0.03486
3586.00926	0.03515
3584.72349	0.03500
3583.43772	0.03466
3582.15195	0.03432
3580.86618	0.03405
3579.58041	0.03379
3578.29464	0.03354
3577.00888	0.03332
3575.72311	0.03324
3574.43734	0.03347
3573.15157	0.03400
3571.86580	0.03454
3570.58003	0.03471
3569.29426	0.03431
3568.00849	0.03358
3566.72273	0.03287
3565.43696	0.03240
3564.15119	0.03212
3562.86542	0.03191
3561.57965	0.03171
3560.29388	0.03157
3559.00811	0.03151
3557.72234	0.03148
3556.43657	0.03143
3555.15081	0.03138
3553.86504	0.03144
3552.57927	0.03166
3551.29350	0.03195
3550.00773	0.03225
3548.72196	0.03256
3547.43619	0.03288
3546.15042	0.03306
3544.86466	0.03291
3543.57889	0.03255
3542.29312	0.03225
3541.00735	0.03215
3539.72158	0.03203
3538.43581	0.03162
3537.15004	0.03095
3535.86427	0.03035
3534.57850	0.03005
3533.29274	0.02999
3532.00697	0.02989
3530.72120	0.02960
3529.43543	0.02923
3528.14966	0.02898
3526.86389	0.02902
3525.57812	0.02932
3524.29235	0.02976
3523.00659	0.03016
3521.72082	0.03030
3520.43505	0.03005
3519.14928	0.02954
3517.86351	0.02907
3516.57774	0.02890
3515.29197	0.02900
3514.00620	0.02914
3512.72043	0.02919
3511.43467	0.02933
3510.14890	0.02970
3508.86313	0.03013
3507.57736	0.03020
3506.29159	0.02971
3505.00582	0.02889
3503.72005	0.02818
3502.43428	0.02785
3501.14852	0.02781
3499.86275	0.02777
3498.57698	0.02754
3497.29121	0.02718
3496.00544	0.02688
3494.71967	0.02677
3493.43390	0.02686
3492.14813	0.02708
3490.86236	0.02733
3489.57660	0.02752
3488.29083	0.02755
3487.00506	0.02745
3485.71929	0.02735
3484.43352	0.02735
3483.14775	0.02741
3481.86198	0.02738
3480.57621	0.02722
3479.29045	0.02709
3478.00468	0.02712
3476.71891	0.02728
3475.43314	0.02743
3474.14737	0.02747
3472.86160	0.02732
3471.57583	0.02693
3470.29006	0.02636
3469.00429	0.02589
3467.71853	0.02575
3466.43276	0.02587
3465.14699	0.02597
3463.86122	0.02583
3462.57545	0.02545
3461.28968	0.02500
3460.00391	0.02465
3458.71814	0.02450
3457.43238	0.02455
3456.14661	0.02464
3454.86084	0.02463
3453.57507	0.02443
3452.28930	0.02417
3451.00353	0.02406
3449.71776	0.02429
3448.43199	0.02477
3447.14622	0.02521
3445.86046	0.02531
3444.57469	0.02504
3443.28892	0.02457
3442.00315	0.02413
3440.71738	0.02386
3439.43161	0.02380
3438.14584	0.02389
3436.86007	0.02401
3435.57431	0.02402
3434.28854	0.02389
3433.00277	0.02376
3431.71700	0.02380
3430.43123	0.02418
3429.14546	0.02486
3427.85969	0.02548
3426.57392	0.02565
3425.28815	0.02527
3424.00239	0.02464
3422.71662	0.02410
3421.43085	0.02376
3420.14508	0.02349
3418.85931	0.02325
3417.57354	0.02314
3416.28777	0.02325
3415.00200	0.02353
3413.71624	0.02384
3412.43047	0.02419
3411.14470	0.02458
3409.85893	0.02496
3408.57316	0.02519
3407.28739	0.02524
3406.00162	0.02527
3404.71585	0.02549
3403.43008	0.02579
3402.14432	0.02585
3400.85855	0.02552
3399.57278	0.02507
3398.28701	0.02486
3397.00124	0.02489
3395.71547	0.02499
3394.42970	0.02497
3393.14393	0.02481
3391.85817	0.02463
3390.57240	0.02459
3389.28663	0.02479
3388.00086	0.02519
3386.71509	0.02561
3385.42932	0.02587
3384.14355	0.02596
3382.85778	0.02594
3381.57201	0.02580
3380.28625	0.02546
3379.00048	0.02495
3377.71471	0.02452
3376.42894	0.02443
3375.14317	0.02474
3373.85740	0.02521
3372.57163	0.02553
3371.28586	0.02557
3370.00010	0.02549
3368.71433	0.02545
3367.42856	0.02552
3366.14279	0.02563
3364.85702	0.02574
3363.57125	0.02581
3362.28548	0.02588
3360.99971	0.02593
3359.71394	0.02600
3358.42818	0.02612
3357.14241	0.02630
3355.85664	0.02650
3354.57087	0.02666
3353.28510	0.02666
3351.99933	0.02645
3350.71356	0.02610
3349.42779	0.02580
3348.14202	0.02576
3346.85626	0.02600
3345.57049	0.02642
3344.28472	0.02679
3342.99895	0.02700
3341.71318	0.02713
3340.42741	0.02750
3339.14164	0.02829
3337.85587	0.02928
3336.57011	0.02994
3335.28434	0.02989
3333.99857	0.02936
3332.71280	0.02889
3331.42703	0.02881
3330.14126	0.02898
3328.85549	0.02910
3327.56972	0.02917
3326.28395	0.02940
3324.99819	0.02985
3323.71242	0.03030
3322.42665	0.03046
3321.14088	0.03026
3319.85511	0.02989
3318.56934	0.02962
3317.28357	0.02962
3315.99780	0.02988
3314.71204	0.03022
3313.42627	0.03042
3312.14050	0.03043
3310.85473	0.03042
3309.56896	0.03058
3308.28319	0.03084
3306.99742	0.03101
3305.71165	0.03101
3304.42588	0.03108
3303.14012	0.03138
3301.85435	0.03182
3300.56858	0.03214
3299.28281	0.03221
3297.99704	0.03212
3296.71127	0.03204
3295.42550	0.03207
3294.13973	0.03220
3292.85397	0.03232
3291.56820	0.03228
3290.28243	0.03206
3288.99666	0.03177
3287.71089	0.03155
3286.42512	0.03146
3285.13935	0.03145
3283.85358	0.03148
3282.56781	0.03159
3281.28205	0.03183
3279.99628	0.03212
3278.71051	0.03234
3277.42474	0.03246
3276.13897	0.03247
3274.85320	0.03240
3273.56743	0.03227
3272.28166	0.03216
3270.99590	0.03216
3269.71013	0.03230
3268.42436	0.03247
3267.13859	0.03253
3265.85282	0.03246
3264.56705	0.03233
3263.28128	0.03218
3261.99551	0.03198
3260.70974	0.03175
3259.42398	0.03168
3258.13821	0.03197
3256.85244	0.03258
3255.56667	0.03322
3254.28090	0.03369
3252.99513	0.03395
3251.70936	0.03403
3250.42359	0.03393
3249.13783	0.03372
3247.85206	0.03356
3246.56629	0.03355
3245.28052	0.03372
3243.99475	0.03394
3242.70898	0.03406
3241.42321	0.03401
3240.13744	0.03383
3238.85167	0.03366
3237.56591	0.03354
3236.28014	0.03334
3234.99437	0.03290
3233.70860	0.03228
3232.42283	0.03176
3231.13706	0.03155
3229.85129	0.03165
3228.56552	0.03195
3227.27976	0.03244
3225.99399	0.03310
3224.70822	0.03378
3223.42245	0.03423
3222.13668	0.03432
3220.85091	0.03412
3219.56514	0.03386
3218.27937	0.03373
3216.99360	0.03382
3215.70784	0.03409
3214.42207	0.03438
3213.13630	0.03453
3211.85053	0.03453
3210.56476	0.03450
3209.27899	0.03455
3207.99322	0.03469
3206.70745	0.03484
3205.42169	0.03486
3204.13592	0.03469
3202.85015	0.03443
3201.56438	0.03426
3200.27861	0.03441
3198.99284	0.03497
3197.70707	0.03577
3196.42130	0.03644
3195.13553	0.03669
3193.84977	0.03642
3192.56400	0.03576
3191.27823	0.03497
3189.99246	0.03430
3188.70669	0.03396
3187.42092	0.03400
3186.13515	0.03425
3184.84938	0.03453
3183.56362	0.03475
3182.27785	0.03496
3180.99208	0.03519
3179.70631	0.03548
3178.42054	0.03579
3177.13477	0.03607
3175.84900	0.03621
3174.56323	0.03621
3173.27746	0.03611
3171.99170	0.03591
3170.70593	0.03554
3169.42016	0.03505
3168.13439	0.03468
3166.84862	0.03465
3165.56285	0.03488
3164.27708	0.03514
3162.99131	0.03530
3161.70555	0.03542
3160.41978	0.03562
3159.13401	0.03591
3157.84824	0.03619
3156.56247	0.03638
3155.27670	0.03647
3153.99093	0.03642
3152.70516	0.03625
3151.41939	0.03599
3150.13363	0.03577
3148.84786	0.03562
3147.56209	0.03552
3146.27632	0.03546
3144.99055	0.03549
3143.70478	0.03566
3142.41901	0.03588
3141.13324	0.03602
3139.84748	0.03594
3138.56171	0.03567
3137.27594	0.03536
3135.99017	0.03517
3134.70440	0.03511
3133.41863	0.03507
3132.13286	0.03494
3130.84709	0.03474
3129.56132	0.03457
3128.27556	0.03451
3126.98979	0.03452
3125.70402	0.03454
3124.41825	0.03454
3123.13248	0.03456
3121.84671	0.03466
3120.56094	0.03484
3119.27517	0.03508
3117.98940	0.03536
3116.70364	0.03571
3115.41787	0.03616
3114.13210	0.03671
3112.84633	0.03724
3111.56056	0.03763
3110.27479	0.03776
3108.98902	0.03763
3107.70325	0.03733
3106.41749	0.03697
3105.13172	0.03669
3103.84595	0.03659
3102.56018	0.03665
3101.27441	0.03673
3099.98864	0.03664
3098.70287	0.03638
3097.41710	0.03612
3096.13133	0.03606
3094.84557	0.03622
3093.55980	0.03641
3092.27403	0.03642
3090.98826	0.03624
3089.70249	0.03602
3088.41672	0.03592
3087.13095	0.03596
3085.84518	0.03609
3084.55942	0.03630
3083.27365	0.03660
3081.98788	0.03694
3080.70211	0.03720
3079.41634	0.03727
3078.13057	0.03711
3076.84480	0.03686
3075.55903	0.03668
3074.27326	0.03666
3072.98750	0.03680
3071.70173	0.03697
3070.41596	0.03707
3069.13019	0.03703
3067.84442	0.03687
3066.55865	0.03670
3065.27288	0.03657
3063.98711	0.03656
3062.70135	0.03677
3061.41558	0.03718
3060.12981	0.03760
3058.84404	0.03774
3057.55827	0.03749
3056.27250	0.03703
3054.98673	0.03665
3053.70096	0.03643
3052.41519	0.03628
3051.12943	0.03613
3049.84366	0.03606
3048.55789	0.03612
3047.27212	0.03623
3045.98635	0.03625
3044.70058	0.03618
3043.41481	0.03616
3042.12904	0.03626
3040.84328	0.03643
3039.55751	0.03657
3038.27174	0.03660
3036.98597	0.03655
3035.70020	0.03644
3034.41443	0.03629
3033.12866	0.03611
3031.84289	0.03597
3030.55712	0.03591
3029.27136	0.03592
3027.98559	0.03590
3026.69982	0.03578
3025.41405	0.03556
3024.12828	0.03536
3022.84251	0.03523
3021.55674	0.03516
3020.27097	0.03508
3018.98521	0.03493
3017.69944	0.03471
3016.41367	0.03445
3015.12790	0.03425
3013.84213	0.03424
3012.55636	0.03449
3011.27059	0.03485
3009.98482	0.03511
3008.69905	0.03512
3007.41329	0.03496
3006.12752	0.03482
3004.84175	0.03478
3003.55598	0.03474
3002.27021	0.03453
3000.98444	0.03416
2999.69867	0.03384
2998.41290	0.03366
2997.12714	0.03361
2995.84137	0.03354
2994.55560	0.03337
2993.26983	0.03308
2991.98406	0.03281
2990.69829	0.03266
2989.41252	0.03261
2988.12675	0.03257
2986.84098	0.03254
2985.55522	0.03259
2984.26945	0.03273
2982.98368	0.03277
2981.69791	0.03258
2980.41214	0.03215
2979.12637	0.03164
2977.84060	0.03116
2976.55483	0.03079
2975.26907	0.03052
2973.98330	0.03030
2972.69753	0.03003
2971.41176	0.02963
2970.12599	0.02908
2968.84022	0.02850
2967.55445	0.02808
2966.26868	0.02794
2964.98291	0.02800
2963.69715	0.02801
2962.41138	0.02779
2961.12561	0.02735
2959.83984	0.02683
2958.55407	0.02641
2957.26830	0.02616
2955.98253	0.02609
2954.69676	0.02611
2953.41100	0.02607
2952.12523	0.02586
2950.83946	0.02551
2949.55369	0.02512
2948.26792	0.02482
2946.98215	0.02468
2945.69638	0.02461
2944.41061	0.02435
2943.12484	0.02368
2941.83908	0.02256
2940.55331	0.02127
2939.26754	0.02014
2937.98177	0.01926
2936.69600	0.01847
2935.41023	0.01755
2934.12446	0.01647
2932.83869	0.01534
2931.55293	0.01429
2930.26716	0.01332
2928.98139	0.01236
2927.69562	0.01139
2926.40985	0.01043
2925.12408	0.00957
2923.83831	0.00883
2922.55254	0.00832
2921.26677	0.00816
2919.98101	0.00844
2918.69524	0.00913
2917.40947	0.01020
2916.12370	0.01169
2914.83793	0.01360
2913.55216	0.01569
2912.26639	0.01762
2910.98062	0.01914
2909.69486	0.02026
2908.40909	0.02110
2907.12332	0.02184
2905.83755	0.02261
2904.55178	0.02337
2903.26601	0.02399
2901.98024	0.02442
2900.69447	0.02473
2899.40870	0.02505
2898.12294	0.02537
2896.83717	0.02570
2895.55140	0.02606
2894.26563	0.02644
2892.97986	0.02677
2891.69409	0.02702
2890.40832	0.02724
2889.12255	0.02739
2887.83678	0.02736
2886.55102	0.02708
2885.26525	0.02671
2883.97948	0.02650
2882.69371	0.02658
2881.40794	0.02684
2880.12217	0.02708
2878.83640	0.02721
2877.55063	0.02724
2876.26487	0.02720
2874.97910	0.02707
2873.69333	0.02688
2872.40756	0.02671
2871.12179	0.02665
2869.83602	0.02665
2868.55025	0.02657
2867.26448	0.02627
2865.97871	0.02572
2864.69295	0.02504
2863.40718	0.02427
2862.12141	0.02342
2860.83564	0.02251
2859.54987	0.02160
2858.26410	0.02072
2856.97833	0.01985
2855.69256	0.01896
2854.40680	0.01811
2853.12103	0.01742
2851.83526	0.01705
2850.54949	0.01720
2849.26372	0.01804
2847.97795	0.01958
2846.69218	0.02162
2845.40641	0.02374
2844.12064	0.02558
2842.83488	0.02697
2841.54911	0.02798
2840.26334	0.02877
2838.97757	0.02941
2837.69180	0.02990
2836.40603	0.03027
2835.12026	0.03051
2833.83449	0.03064
2832.54873	0.03072
2831.26296	0.03085
2829.97719	0.03108
2828.69142	0.03130
2827.40565	0.03144
2826.11988	0.03144
2824.83411	0.03137
2823.54834	0.03134
2822.26257	0.03144
2820.97681	0.03167
2819.69104	0.03188
2818.40527	0.03193
2817.11950	0.03181
2815.83373	0.03153
2814.54796	0.03118
2813.26219	0.03086
2811.97642	0.03065
2810.69066	0.03052
2809.40489	0.03043
2808.11912	0.03040
2806.83335	0.03050
2805.54758	0.03076
2804.26181	0.03108
2802.97604	0.03129
2801.69027	0.03128
2800.40450	0.03104
2799.11874	0.03073
2797.83297	0.03053
2796.54720	0.03046
2795.26143	0.03043
2793.97566	0.03040
2792.68989	0.03038
2791.40412	0.03042
2790.11835	0.03049
2788.83259	0.03052
2787.54682	0.03051
2786.26105	0.03048
2784.97528	0.03055
2783.68951	0.03074
2782.40374	0.03099
2781.11797	0.03111
2779.83220	0.03105
2778.54643	0.03089
2777.26067	0.03078
2775.97490	0.03080
2774.68913	0.03093
2773.40336	0.03109
2772.11759	0.03117
2770.83182	0.03113
2769.54605	0.03100
2768.26028	0.03085
2766.97452	0.03074
2765.68875	0.03067
2764.40298	0.03063
2763.11721	0.03061
2761.83144	0.03052
2760.54567	0.03033
2759.25990	0.03012
2757.97413	0.03002
2756.68836	0.03005
2755.40260	0.03011
2754.11683	0.03016
2752.83106	0.03020
2751.54529	0.03021
2750.25952	0.03013
2748.97375	0.02997
2747.68798	0.02984
2746.40221	0.02982
2745.11645	0.02989
2743.83068	0.02995
2742.54491	0.02993
2741.25914	0.02983
2739.97337	0.02973
2738.68760	0.02967
2737.40183	0.02968
2736.11606	0.02969
2734.83029	0.02966
2733.54453	0.02964
2732.25876	0.02964
2730.97299	0.02958
2729.68722	0.02938
2728.40145	0.02912
2727.11568	0.02897
2725.82991	0.02901
2724.54414	0.02912
2723.25838	0.02915
2721.97261	0.02906
2720.68684	0.02897
2719.40107	0.02903
2718.11530	0.02931
2716.82953	0.02967
2715.54376	0.02988
2714.25799	0.02983
2712.97222	0.02962
2711.68646	0.02943
2710.40069	0.02935
2709.11492	0.02931
2707.82915	0.02922
2706.54338	0.02913
2705.25761	0.02917
2703.97184	0.02938
2702.68607	0.02965
2701.40031	0.02978
2700.11454	0.02971
2698.82877	0.02948
2697.54300	0.02916
2696.25723	0.02882
2694.97146	0.02858
2693.68569	0.02852
2692.39992	0.02862
2691.11415	0.02878
2689.82839	0.02886
2688.54262	0.02888
2687.25685	0.02888
2685.97108	0.02885
2684.68531	0.02871
2683.39954	0.02841
2682.11377	0.02811
2680.82800	0.02799
2679.54224	0.02806
2678.25647	0.02824
2676.97070	0.02844
2675.68493	0.02860
2674.39916	0.02867
2673.11339	0.02859
2671.82762	0.02838
2670.54185	0.02815
2669.25608	0.02804
2667.97032	0.02804
2666.68455	0.02807
2665.39878	0.02807
2664.11301	0.02804
2662.82724	0.02801
2661.54147	0.02802
2660.25570	0.02806
2658.96993	0.02808
2657.68417	0.02804
2656.39840	0.02789
2655.11263	0.02766
2653.82686	0.02747
2652.54109	0.02741
2651.25532	0.02745
2649.96955	0.02751
2648.68378	0.02749
2647.39801	0.02739
2646.11225	0.02721
2644.82648	0.02702
2643.54071	0.02688
2642.25494	0.02683
2640.96917	0.02682
2639.68340	0.02675
2638.39763	0.02657
2637.11186	0.02632
2635.82609	0.02613
2634.54033	0.02600
2633.25456	0.02587
2631.96879	0.02565
2630.68302	0.02541
2629.39725	0.02533
2628.11148	0.02548
2626.82571	0.02574
2625.53994	0.02588
2624.25418	0.02587
2622.96841	0.02582
2621.68264	0.02583
2620.39687	0.02584
2619.11110	0.02578
2617.82533	0.02567
2616.53956	0.02559
2615.25379	0.02551
2613.96802	0.02537
2612.68226	0.02515
2611.39649	0.02489
2610.11072	0.02468
2608.82495	0.02464
2607.53918	0.02481
2606.25341	0.02501
2604.96764	0.02506
2603.68187	0.02490
2602.39611	0.02466
2601.11034	0.02447
2599.82457	0.02438
2598.53880	0.02434
2597.25303	0.02426
2595.96726	0.02408
2594.68149	0.02379
2593.39572	0.02349
2592.10995	0.02334
2590.82419	0.02343
2589.53842	0.02369
2588.25265	0.02387
2586.96688	0.02373
2585.68111	0.02338
2584.39534	0.02320
2583.10957	0.02339
2581.82380	0.02384
2580.53804	0.02424
2579.25227	0.02448
2577.96650	0.02458
2576.68073	0.02457
2575.39496	0.02443
2574.10919	0.02413
2572.82342	0.02371
2571.53765	0.02328
2570.25188	0.02300
2568.96612	0.02294
2567.68035	0.02305
2566.39458	0.02320
2565.10881	0.02335
2563.82304	0.02356
2562.53727	0.02381
2561.25150	0.02401
2559.96573	0.02401
2558.67997	0.02378
2557.39420	0.02343
2556.10843	0.02314
2554.82266	0.02310
2553.53689	0.02335
2552.25112	0.02377
2550.96535	0.02415
2549.67958	0.02430
2548.39381	0.02418
2547.10805	0.02391
2545.82228	0.02368
2544.53651	0.02354
2543.25074	0.02340
2541.96497	0.02313
2540.67920	0.02275
2539.39343	0.02240
2538.10766	0.02221
2536.82190	0.02227
2535.53613	0.02248
2534.25036	0.02270
2532.96459	0.02279
2531.67882	0.02272
2530.39305	0.02261
2529.10728	0.02261
2527.82151	0.02279
2526.53574	0.02303
2525.24998	0.02309
2523.96421	0.02293
2522.67844	0.02276
2521.39267	0.02285
2520.10690	0.02324
2518.82113	0.02372
2517.53536	0.02403
2516.24959	0.02406
2514.96383	0.02373
2513.67806	0.02307
2512.39229	0.02234
2511.10652	0.02186
2509.82075	0.02177
2508.53498	0.02190
2507.24921	0.02199
2505.96344	0.02196
2504.67767	0.02193
2503.39191	0.02199
2502.10614	0.02208
2500.82037	0.02208
2499.53460	0.02197
2498.24883	0.02185
2496.96306	0.02183
2495.67729	0.02192
2494.39152	0.02203
2493.10576	0.02206
2491.81999	0.02198
2490.53422	0.02191
2489.24845	0.02202
2487.96268	0.02228
2486.67691	0.02252
2485.39114	0.02258
2484.10537	0.02251
2482.81960	0.02239
2481.53384	0.02227
2480.24807	0.02212
2478.96230	0.02202
2477.67653	0.02205
2476.39076	0.02227
2475.10499	0.02255
2473.81922	0.02267
2472.53345	0.02254
2471.24769	0.02229
2469.96192	0.02215
2468.67615	0.02217
2467.39038	0.02230
2466.10461	0.02240
2464.81884	0.02241
2463.53307	0.02231
2462.24730	0.02219
2460.96153	0.02221
2459.67577	0.02239
2458.39000	0.02255
2457.10423	0.02244
2455.81846	0.02203
2454.53269	0.02151
2453.24692	0.02122
2451.96115	0.02129
2450.67538	0.02153
2449.38962	0.02170
2448.10385	0.02169
2446.81808	0.02162
2445.53231	0.02160
2444.24654	0.02165
2442.96077	0.02169
2441.67500	0.02167
2440.38923	0.02163
2439.10346	0.02162
2437.81770	0.02164
2436.53193	0.02161
2435.24616	0.02144
2433.96039	0.02118
2432.67462	0.02093
2431.38885	0.02078
2430.10308	0.02074
2428.81731	0.02077
2427.53155	0.02086
2426.24578	0.02099
2424.96001	0.02116
2423.67424	0.02136
2422.38847	0.02159
2421.10270	0.02183
2419.81693	0.02198
2418.53116	0.02190
2417.24539	0.02159
2415.95963	0.02122
2414.67386	0.02103
2413.38809	0.02114
2412.10232	0.02140
2410.81655	0.02157
2409.53078	0.02149
2408.24501	0.02125
2406.95924	0.02106
2405.67347	0.02103
2404.38771	0.02112
2403.10194	0.02122
2401.81617	0.02125
2400.53040	0.02122
2399.24463	0.02107
2397.95886	0.02119
2396.67309	0.02135
2395.38732	0.02137
2394.10156	0.02120
2392.81579	0.02085
2391.53002	0.02049
2390.24425	0.02032
2388.95848	0.02048
2387.67271	0.02091
2386.38694	0.02138
2385.10117	0.02168
2383.81540	0.02179
2382.52964	0.02186
2381.24387	0.02201
2379.95810	0.02223
2378.67233	0.02233
2377.38656	0.02228
2376.10079	0.02225
2374.81502	0.02229
2373.52925	0.02218
2372.24349	0.02184
2370.95772	0.02144
2369.67195	0.02120
2368.38618	0.02112
2367.10041	0.02107
2365.81464	0.02107
2364.52887	0.02107
2363.24310	0.02110
2361.95733	0.02113
2360.67157	0.02108
2359.38580	0.02109
2358.10003	0.02130
2356.81426	0.02160
2355.52849	0.02184
2354.24272	0.02200
2352.95695	0.02211
2351.67118	0.02205
2350.38542	0.02193
2349.09965	0.02188
2347.81388	0.02174
2346.52811	0.02133
2345.24234	0.02098
2343.95657	0.02113
2342.67080	0.02172
2341.38503	0.02181
2340.09926	0.02140
2338.81350	0.02146
2337.52773	0.02189
2336.24196	0.02156
2334.95619	0.02085
2333.67042	0.02082
2332.38465	0.02128
2331.09888	0.02101
2329.81311	0.02088
2328.52735	0.02125
2327.24158	0.02115
2325.95581	0.02084
2324.67004	0.02082
2323.38427	0.02084
2322.09850	0.02055
2320.81273	0.02046
2319.52696	0.02039
2318.24119	0.02034
2316.95543	0.02042
2315.66966	0.02043
2314.38389	0.02043
2313.09812	0.02043
2311.81235	0.02027
2310.52658	0.02010
2309.24081	0.01992
2307.95504	0.01973
2306.66928	0.01964
2305.38351	0.01963
2304.09774	0.01966
2302.81197	0.01969
2301.52620	0.01969
2300.24043	0.01970
2298.95466	0.01966
2297.66889	0.01945
2296.38312	0.01905
2295.09736	0.01861
2293.81159	0.01834
2292.52582	0.01831
2291.24005	0.01840
2289.95428	0.01852
2288.66851	0.01863
2287.38274	0.01870
2286.09697	0.01866
2284.81121	0.01845
2283.52544	0.01815
2282.23967	0.01789
2280.95390	0.01772
2279.66813	0.01761
2278.38236	0.01746
2277.09659	0.01727
2275.81082	0.01710
2274.52505	0.01699
2273.23929	0.01691
2271.95352	0.01683
2270.66775	0.01685
2269.38198	0.01707
2268.09621	0.01742
2266.81044	0.01762
2265.52467	0.01753
2264.23890	0.01726
2262.95314	0.01702
2261.66737	0.01690
2260.38160	0.01688
2259.09583	0.01682
2257.81006	0.01665
2256.52429	0.01649
2255.23852	0.01661
2253.95275	0.01716
2252.66698	0.01789
2251.38122	0.01823
2250.09545	0.01781
2248.80968	0.01675
2247.52391	0.01599
2246.23814	0.01600
2244.95237	0.01647
2243.66660	0.01674
2242.38083	0.01646
2241.09507	0.01582
2239.80930	0.01537
2238.52353	0.01547
2237.23776	0.01597
2235.95199	0.01642
2234.66622	0.01644
2233.38045	0.01594
2232.09468	0.01500
2230.80891	0.01389
2229.52315	0.01300
2228.23738	0.01268
2226.95161	0.01290
2225.66584	0.01336
2224.38007	0.01386
2223.09430	0.01447
2221.80853	0.01513
2220.52276	0.01543
2219.23700	0.01504
2217.95123	0.01422
2216.66546	0.01363
2215.37969	0.01359
2214.09392	0.01385
2212.80815	0.01390
2211.52238	0.01350
2210.23661	0.01281
2208.95084	0.01229
2207.66508	0.01237
2206.37931	0.01299
2205.09354	0.01351
2203.80777	0.01339
2202.52200	0.01288
2201.23623	0.01282
2199.95046	0.01353
2198.66469	0.01432
2197.37893	0.01434
2196.09316	0.01346
2194.80739	0.01234
2193.52162	0.01162
2192.23585	0.01137
2190.95008	0.01136
2189.66431	0.01160
2188.37854	0.01236
2187.09277	0.01365
2185.80701	0.01495
2184.52124	0.01569
2183.23547	0.01570
2181.94970	0.01524
2180.66393	0.01460
2179.37816	0.01397
2178.09239	0.01343
2176.80662	0.01295
2175.52085	0.01246
2174.23509	0.01194
2172.94932	0.01141
2171.66355	0.01090
2170.37778	0.01051
2169.09201	0.01038
2167.80624	0.01049
2166.52047	0.01063
2165.23470	0.01056
2163.94894	0.01030
2162.66317	0.01000
2161.37740	0.00969
2160.09163	0.00927
2158.80586	0.00870
2157.52009	0.00819
2156.23432	0.00798
2154.94855	0.00789
2153.66278	0.00756
2152.37702	0.00706
2151.09125	0.00697
2149.80548	0.00767
2148.51971	0.00879
2147.23394	0.00953
2145.94817	0.00955
2144.66240	0.00923
2143.37663	0.00921
2142.09087	0.00980
2140.80510	0.01080
2139.51933	0.01180
2138.23356	0.01251
2136.94779	0.01284
2135.66202	0.01286
2134.37625	0.01280
2133.09048	0.01288
2131.80471	0.01311
2130.51895	0.01340
2129.23318	0.01362
2127.94741	0.01366
2126.66164	0.01338
2125.37587	0.01285
2124.09010	0.01235
2122.80433	0.01211
2121.51856	0.01203
2120.23280	0.01192
2118.94703	0.01180
2117.66126	0.01178
2116.37549	0.01182
2115.08972	0.01179
2113.80395	0.01174
2112.51818	0.01178
2111.23241	0.01196
2109.94664	0.01212
2108.66088	0.01211
2107.37511	0.01187
2106.08934	0.01150
2104.80357	0.01119
2103.51780	0.01106
2102.23203	0.01115
2100.94626	0.01136
2099.66049	0.01201
2098.37473	0.01238
2097.08896	0.01254
2095.80319	0.01257
2094.51742	0.01239
2093.23165	0.01199
2091.94588	0.01150
2090.66011	0.01107
2089.37434	0.01084
2088.08857	0.01085
2086.80281	0.01099
2085.51704	0.01118
2084.23127	0.01143
2082.94550	0.01185
2081.65973	0.01236
2080.37396	0.01269
2079.08819	0.01260
2077.80242	0.01214
2076.51666	0.01155
2075.23089	0.01104
2073.94512	0.01069
2072.65935	0.01053
2071.37358	0.01055
2070.08781	0.01071
2068.80204	0.01098
2067.51627	0.01138
2066.23050	0.01184
2064.94474	0.01217
2063.65897	0.01217
2062.37320	0.01179
2061.08743	0.01119
2059.80166	0.01053
2058.51589	0.00988
2057.23012	0.00932
2055.94435	0.00901
2054.65859	0.00899
2053.37282	0.00900
2052.08705	0.00875
2050.80128	0.00819
2049.51551	0.00756
2048.22974	0.00715
2046.94397	0.00706
2045.65820	0.00710
2044.37243	0.00704
2043.08667	0.00681
2041.80090	0.00653
2040.51513	0.00632
2039.22936	0.00615
2037.94359	0.00588
2036.65782	0.00545
2035.37205	0.00506
2034.08628	0.00500
2032.80052	0.00548
2031.51475	0.00636
2030.22898	0.00724
2028.94321	0.00777
2027.65744	0.00785
2026.37167	0.00754
2025.08590	0.00684
2023.80013	0.00586
2022.51436	0.00499
2021.22860	0.00474
2019.94283	0.00527
2018.65706	0.00626
2017.37129	0.00717
2016.08552	0.00769
2014.79975	0.00775
2013.51398	0.00742
2012.22821	0.00692
2010.94245	0.00666
2009.65668	0.00699
2008.37091	0.00787
2007.08514	0.00890
2005.79937	0.00966
2004.51360	0.01002
2003.22783	0.01007
2001.94206	0.00997
2000.65629	0.00977
1999.37053	0.00949
1998.08476	0.00926
1996.79899	0.00919
1995.51322	0.00918
1994.22745	0.00902
1992.94168	0.00863
1991.65591	0.00834
1990.37014	0.00847
1989.08438	0.00880
1987.79861	0.00863
1986.51284	0.00755
1985.22707	0.00604
1983.94130	0.00516
1982.65553	0.00565
1981.36976	0.00742
1980.08399	0.00974
1978.79822	0.01163
1977.51246	0.01250
1976.22669	0.01243
1974.94092	0.01209
1973.65515	0.01204
1972.36938	0.01232
1971.08361	0.01256
1969.79784	0.01249
1968.51207	0.01223
1967.22631	0.01196
1965.94054	0.01168
1964.65477	0.01115
1963.36900	0.01040
1962.08323	0.00977
1960.79746	0.00967
1959.51169	0.01019
1958.22592	0.01100
1956.94015	0.01168
1955.65439	0.01199
1954.36862	0.01200
1953.08285	0.01191
1951.79708	0.01177
1950.51131	0.01159
1949.22554	0.01137
1947.93977	0.01110
1946.65400	0.01073
1945.36823	0.01028
1944.08247	0.00998
1942.79670	0.01003
1941.51093	0.01034
1940.22516	0.01067
1938.93939	0.01093
1937.65362	0.01130
1936.36785	0.01190
1935.08208	0.01260
1933.79632	0.01312
1932.51055	0.01329
1931.22478	0.01311
1929.93901	0.01275
1928.65324	0.01238
1927.36747	0.01215
1926.08170	0.01212
1924.79593	0.01231
1923.51016	0.01265
1922.22440	0.01296
1920.93863	0.01308
1919.65286	0.01296
1918.36709	0.01276
1917.08132	0.01268
1915.79555	0.01276
1914.50978	0.01286
1913.22401	0.01281
1911.93825	0.01262
1910.65248	0.01241
1909.36671	0.01228
1908.08094	0.01224
1906.79517	0.01224
1905.50940	0.01225
1904.22363	0.01224
1902.93786	0.01220
1901.65209	0.01215
1900.36633	0.01212
1899.08056	0.01216
1897.79479	0.01225
1896.50902	0.01234
1895.22325	0.01240
1893.93748	0.01244
1892.65171	0.01251
1891.36594	0.01259
1890.08018	0.01257
1888.79441	0.01240
1887.50864	0.01210
1886.22287	0.01183
1884.93710	0.01170
1883.65133	0.01173
1882.36556	0.01186
1881.07979	0.01198
1879.79402	0.01205
1878.50826	0.01203
1877.22249	0.01199
1875.93672	0.01203
1874.65095	0.01218
1873.36518	0.01237
1872.07941	0.01254
1870.79364	0.01268
1869.50787	0.01280
1868.22211	0.01286
1866.93634	0.01275
1865.65057	0.01248
1864.36480	0.01218
1863.07903	0.01200
1861.79326	0.01200
1860.50749	0.01210
1859.22172	0.01217
1857.93595	0.01213
1856.65019	0.01198
1855.36442	0.01181
1854.07865	0.01173
1852.79288	0.01182
1851.50711	0.01207
1850.22134	0.01239
1848.93557	0.01265
1847.64980	0.01278
1846.36404	0.01276
1845.07827	0.01260
1843.79250	0.01238
1842.50673	0.01216
1841.22096	0.01204
1839.93519	0.01205
1838.64942	0.01218
1837.36365	0.01233
1836.07788	0.01246
1834.79212	0.01257
1833.50635	0.01267
1832.22058	0.01277
1830.93481	0.01282
1829.64904	0.01280
1828.36327	0.01274
1827.07750	0.01268
1825.79173	0.01264
1824.50597	0.01259
1823.22020	0.01253
1821.93443	0.01247
1820.64866	0.01243
1819.36289	0.01243
1818.07712	0.01249
1816.79135	0.01263
1815.50558	0.01281
1814.21981	0.01296
1812.93405	0.01304
1811.64828	0.01301
1810.36251	0.01289
1809.07674	0.01276
1807.79097	0.01263
1806.50520	0.01250
1805.21943	0.01234
1803.93366	0.01219
1802.64790	0.01212
1801.36213	0.01218
1800.07636	0.01231
1798.79059	0.01238
1797.50482	0.01234
1796.21905	0.01227
1794.93328	0.01227
1793.64751	0.01239
1792.36174	0.01252
1791.07598	0.01253
1789.79021	0.01239
1788.50444	0.01218
1787.21867	0.01201
1785.93290	0.01192
1784.64713	0.01190
1783.36136	0.01194
1782.07559	0.01200
1780.78983	0.01204
1779.50406	0.01202
1778.21829	0.01193
1776.93252	0.01183
1775.64675	0.01175
1774.36098	0.01170
1773.07521	0.01167
1771.78944	0.01163
1770.50367	0.01160
1769.21791	0.01158
1767.93214	0.01158
1766.64637	0.01154
1765.36060	0.01141
1764.07483	0.01120
1762.78906	0.01094
1761.50329	0.01071
1760.21752	0.01054
1758.93176	0.01039
1757.64599	0.01021
1756.36022	0.01001
1755.07445	0.00985
1753.78868	0.00977
1752.50291	0.00973
1751.21714	0.00963
1749.93137	0.00936
1748.64560	0.00893
1747.35984	0.00843
1746.07407	0.00799
1744.78830	0.00766
1743.50253	0.00745
1742.21676	0.00730
1740.93099	0.00710
1739.64522	0.00682
1738.35945	0.00645
1737.07369	0.00611
1735.78792	0.00590
1734.50215	0.00582
1733.21638	0.00578
1731.93061	0.00567
1730.64484	0.00548
1729.35907	0.00533
1728.07330	0.00532
1726.78753	0.00551
1725.50177	0.00588
1724.21600	0.00632
1722.93023	0.00676
1721.64446	0.00718
1720.35869	0.00760
1719.07292	0.00805
1717.78715	0.00849
1716.50138	0.00883
1715.21561	0.00907
1713.92985	0.00928
1712.64408	0.00955
1711.35831	0.00991
1710.07254	0.01036
1708.78677	0.01086
1707.50100	0.01140
1706.21523	0.01192
1704.92946	0.01244
1703.64370	0.01301
1702.35793	0.01370
1701.07216	0.01451
1699.78639	0.01536
1698.50062	0.01616
1697.21485	0.01688
1695.92908	0.01753
1694.64331	0.01815
1693.35754	0.01875
1692.07178	0.01938
1690.78601	0.02004
1689.50024	0.02070
1688.21447	0.02133
1686.92870	0.02198
1685.64293	0.02266
1684.35716	0.02333
1683.07139	0.02389
1681.78563	0.02429
1680.49986	0.02460
1679.21409	0.02494
1677.92832	0.02539
1676.64255	0.02593
1675.35678	0.02650
1674.07101	0.02706
1672.78524	0.02760
1671.49947	0.02811
1670.21371	0.02859
1668.92794	0.02899
1667.64217	0.02932
1666.35640	0.02959
1665.07063	0.02988
1663.78486	0.03022
1662.49909	0.03063
1661.21332	0.03109
1659.92756	0.03157
1658.64179	0.03206
1657.35602	0.03261
1656.07025	0.03333
1654.78448	0.03421
1653.49871	0.03506
1652.21294	0.03561
1650.92717	0.03579
1649.64140	0.03579
1648.35564	0.03589
1647.06987	0.03618
1645.78410	0.03654
1644.49833	0.03682
1643.21256	0.03699
1641.92679	0.03708
1640.64102	0.03715
1639.35525	0.03721
1638.06949	0.03728
1636.78372	0.03737
1635.49795	0.03745
1634.21218	0.03747
1632.92641	0.03737
1631.64064	0.03711
1630.35487	0.03670
1629.06910	0.03616
1627.78333	0.03556
1626.49757	0.03500
1625.21180	0.03449
1623.92603	0.03401
1622.64026	0.03346
1621.35449	0.03282
1620.06872	0.03213
1618.78295	0.03146
1617.49718	0.03084
1616.21142	0.03026
1614.92565	0.02965
1613.63988	0.02900
1612.35411	0.02833
1611.06834	0.02767
1609.78257	0.02702
1608.49680	0.02640
1607.21103	0.02582
1605.92526	0.02527
1604.63950	0.02476
1603.35373	0.02427
1602.06796	0.02383
1600.78219	0.02348
1599.49642	0.02324
1598.21065	0.02311
1596.92488	0.02304
1595.63911	0.02299
1594.35335	0.02293
1593.06758	0.02290
1591.78181	0.02292
1590.49604	0.02300
1589.21027	0.02311
1587.92450	0.02324
1586.63873	0.02338
1585.35296	0.02355
1584.06719	0.02379
1582.78143	0.02408
1581.49566	0.02441
1580.20989	0.02477
1578.92412	0.02519
1577.63835	0.02568
1576.35258	0.02618
1575.06681	0.02663
1573.78104	0.02700
1572.49528	0.02738
1571.20951	0.02785
1569.92374	0.02840
1568.63797	0.02896
1567.35220	0.02946
1566.06643	0.02987
1564.78066	0.03020
1563.49489	0.03053
1562.20912	0.03095
1560.92336	0.03154
1559.63759	0.03220
1558.35182	0.03278
1557.06605	0.03316
1555.78028	0.03338
1554.49451	0.03355
1553.20874	0.03373
1551.92297	0.03393
1550.63721	0.03413
1549.35144	0.03432
1548.06567	0.03448
1546.77990	0.03461
1545.49413	0.03474
1544.20836	0.03491
1542.92259	0.03514
1541.63682	0.03545
1540.35105	0.03576
1539.06529	0.03596
1537.77952	0.03598
1536.49375	0.03587
1535.20798	0.03574
1533.92221	0.03563
1532.63644	0.03556
1531.35067	0.03549
1530.06490	0.03544
1528.77914	0.03542
1527.49337	0.03544
1526.20760	0.03548
1524.92183	0.03552
1523.63606	0.03559
1522.35029	0.03570
1521.06452	0.03580
1519.77875	0.03585
1518.49298	0.03582
1517.20722	0.03577
1515.92145	0.03574
1514.63568	0.03576
1513.34991	0.03583
1512.06414	0.03592
1510.77837	0.03602
1509.49260	0.03615
1508.20683	0.03637
1506.92107	0.03663
1505.63530	0.03680
1504.34953	0.03681
1503.06376	0.03668
1501.77799	0.03654
1500.49222	0.03647
1499.20645	0.03647
1497.92068	0.03648
1496.63491	0.03646
1495.34915	0.03636
1494.06338	0.03623
1492.77761	0.03609
1491.49184	0.03598
1490.20607	0.03594
1488.92030	0.03595
1487.63453	0.03601
1486.34876	0.03610
1485.06299	0.03624
1483.77723	0.03643
1482.49146	0.03666
1481.20569	0.03690
1479.91992	0.03717
1478.63415	0.03748
1477.34838	0.03781
1476.06261	0.03814
1474.77684	0.03844
1473.49108	0.03870
1472.20531	0.03891
1470.91954	0.03905
1469.63377	0.03914
1468.34800	0.03924
1467.06223	0.03946
1465.77646	0.03984
1464.49069	0.04033
1463.20492	0.04084
1461.91916	0.04135
1460.63339	0.04188
1459.34762	0.04248
1458.06185	0.04315
1456.77608	0.04386
1455.49031	0.04451
1454.20454	0.04506
1452.91877	0.04550
1451.63301	0.04589
1450.34724	0.04628
1449.06147	0.04667
1447.77570	0.04697
1446.48993	0.04712
1445.20416	0.04710
1443.91839	0.04695
1442.63262	0.04671
1441.34685	0.04641
1440.06109	0.04612
1438.77532	0.04590
1437.48955	0.04577
1436.20378	0.04568
1434.91801	0.04558
1433.63224	0.04551
1432.34647	0.04552
1431.06070	0.04565
1429.77494	0.04588
1428.48917	0.04617
1427.20340	0.04653
1425.91763	0.04695
1424.63186	0.04740
1423.34609	0.04786
1422.06032	0.04833
1420.77455	0.04884
1419.48878	0.04938
1418.20302	0.04986
1416.91725	0.05023
1415.63148	0.05046
1414.34571	0.05061
1413.05994	0.05071
1411.77417	0.05078
1410.48840	0.05081
1409.20263	0.05076
1407.91687	0.05064
1406.63110	0.05042
1405.34533	0.05008
1404.05956	0.04963
1402.77379	0.04906
1401.48802	0.04842
1400.20225	0.04776
1398.91648	0.04708
1397.63071	0.04637
1396.34495	0.04562
1395.05918	0.04483
1393.77341	0.04400
1392.48764	0.04314
1391.20187	0.04227
1389.91610	0.04142
1388.63033	0.04062
1387.34456	0.03983
1386.05880	0.03902
1384.77303	0.03814
1383.48726	0.03723
1382.20149	0.03633
1380.91572	0.03548
1379.62995	0.03469
1378.34418	0.03392
1377.05841	0.03318
1375.77264	0.03242
1374.48688	0.03164
1373.20111	0.03083
1371.91534	0.03002
1370.62957	0.02928
1369.34380	0.02861
1368.05803	0.02799
1366.77226	0.02737
1365.48649	0.02675
1364.20073	0.02616
1362.91496	0.02560
1361.62919	0.02507
1360.34342	0.02456
1359.05765	0.02409
1357.77188	0.02369
1356.48611	0.02335
1355.20034	0.02303
1353.91457	0.02271
1352.62881	0.02239
1351.34304	0.02211
1350.05727	0.02189
1348.77150	0.02171
1347.48573	0.02155
1346.19996	0.02139
1344.91419	0.02124
1343.62842	0.02109
1342.34266	0.02094
1341.05689	0.02078
1339.77112	0.02060
1338.48535	0.02038
1337.19958	0.02014
1335.91381	0.01991
1334.62804	0.01970
1333.34227	0.01955
1332.05650	0.01942
1330.77074	0.01928
1329.48497	0.01911
1328.19920	0.01891
1326.91343	0.01869
1325.62766	0.01850
1324.34189	0.01835
1323.05612	0.01824
1321.77035	0.01815
1320.48459	0.01807
1319.19882	0.01797
1317.91305	0.01785
1316.62728	0.01771
1315.34151	0.01757
1314.05574	0.01745
1312.76997	0.01734
1311.48420	0.01722
1310.19843	0.01709
1308.91267	0.01699
1307.62690	0.01692
1306.34113	0.01686
1305.05536	0.01677
1303.76959	0.01663
1302.48382	0.01646
1301.19805	0.01631
1299.91228	0.01618
1298.62652	0.01605
1297.34075	0.01586
1296.05498	0.01558
1294.76921	0.01523
1293.48344	0.01486
1292.19767	0.01451
1290.91190	0.01419
1289.62613	0.01389
1288.34036	0.01359
1287.05460	0.01326
1285.76883	0.01290
1284.48306	0.01251
1283.19729	0.01213
1281.91152	0.01181
1280.62575	0.01157
1279.33998	0.01148
1278.05421	0.01156
1276.76845	0.01180
1275.48268	0.01213
1274.19691	0.01248
1272.91114	0.01277
1271.62537	0.01296
1270.33960	0.01306
1269.05383	0.01310
1267.76806	0.01313
1266.48229	0.01316
1265.19653	0.01317
1263.91076	0.01316
1262.62499	0.01312
1261.33922	0.01309
1260.05345	0.01313
1258.76768	0.01325
1257.48191	0.01342
1256.19614	0.01358
1254.91037	0.01367
1253.62461	0.01371
1252.33884	0.01373
1251.05307	0.01377
1249.76730	0.01382
1248.48153	0.01390
1247.19576	0.01399
1245.90999	0.01411
1244.62422	0.01424
1243.33846	0.01434
1242.05269	0.01439
1240.76692	0.01439
1239.48115	0.01435
1238.19538	0.01431
1236.90961	0.01429
1235.62384	0.01430
1234.33807	0.01429
1233.05230	0.01426
1231.76654	0.01421
1230.48077	0.01413
1229.19500	0.01401
1227.90923	0.01382
1226.62346	0.01359
1225.33769	0.01336
1224.05192	0.01317
1222.76615	0.01305
1221.48039	0.01297
1220.19462	0.01290
1218.90885	0.01282
1217.62308	0.01272
1216.33731	0.01262
1215.05154	0.01254
1213.76577	0.01247
1212.48000	0.01241
1211.19423	0.01237
1209.90847	0.01236
1208.62270	0.01239
1207.33693	0.01244
1206.05116	0.01248
1204.76539	0.01251
1203.47962	0.01252
1202.19385	0.01252
1200.90808	0.01247
1199.62232	0.01231
1198.33655	0.01223
1197.05078	0.01218
1195.76501	0.01217
1194.47924	0.01219
1193.19347	0.01218
1191.90770	0.01211
1190.62193	0.01200
1189.33616	0.01188
1188.05040	0.01177
1186.76463	0.01166
1185.47886	0.01155
1184.19309	0.01146
1182.90732	0.01144
1181.62155	0.01147
1180.33578	0.01153
1179.05001	0.01154
1177.76425	0.01147
1176.47848	0.01132
1175.19271	0.01115
1173.90694	0.01103
1172.62117	0.01099
1171.33540	0.01097
1170.04963	0.01093
1168.76386	0.01082
1167.47809	0.01064
1166.19233	0.01044
1164.90656	0.01026
1163.62079	0.01009
1162.33502	0.00996
1161.04925	0.00989
1159.76348	0.00993
1158.47771	0.01009
1157.19194	0.01037
1155.90618	0.01075
1154.62041	0.01118
1153.33464	0.01159
1152.04887	0.01196
1150.76310	0.01225
1149.47733	0.01244
1148.19156	0.01256
1146.90579	0.01266
1145.62002	0.01282
1144.33426	0.01307
1143.04849	0.01338
1141.76272	0.01370
1140.47695	0.01399
1139.19118	0.01425
1137.90541	0.01450
1136.61964	0.01478
1135.33387	0.01518
1134.04811	0.01573
1132.76234	0.01640
1131.47657	0.01711
1130.19080	0.01785
1128.90503	0.01864
1127.61926	0.01953
1126.33349	0.02055
1125.04772	0.02177
1123.76195	0.02321
1122.47619	0.02480
1121.19042	0.02649
1119.90465	0.02823
1118.61888	0.03008
1117.33311	0.03202
1116.04734	0.03401
1114.76157	0.03598
1113.47580	0.03789
1112.19004	0.03976
1110.90427	0.04160
1109.61850	0.04344
1108.33273	0.04530
1107.04696	0.04718
1105.76119	0.04904
1104.47542	0.05080
1103.18965	0.05244
1101.90388	0.05399
1100.61812	0.05548
1099.33235	0.05690
1098.04658	0.05823
1096.76081	0.05947
1095.47504	0.06062
1094.18927	0.06172
1092.90350	0.06281
1091.61773	0.06389
1090.33197	0.06491
1089.04620	0.06586
1087.76043	0.06676
1086.47466	0.06770
1085.18889	0.06867
1083.90312	0.06968
1082.61735	0.07071
1081.33158	0.07179
1080.04581	0.07295
1078.76005	0.07419
1077.47428	0.07551
1076.18851	0.07691
1074.90274	0.07836
1073.61697	0.07986
1072.33120	0.08143
1071.04543	0.08307
1069.75966	0.08482
1068.47390	0.08666
1067.18813	0.08857
1065.90236	0.09056
1064.61659	0.09260
1063.33082	0.09465
1062.04505	0.09667
1060.75928	0.09868
1059.47351	0.10072
1058.18774	0.10278
1056.90198	0.10483
1055.61621	0.10683
1054.33044	0.10879
1053.04467	0.11072
1051.75890	0.11263
1050.47313	0.11453
1049.18736	0.11646
1047.90159	0.11845
1046.61583	0.12051
1045.33006	0.12259
1044.04429	0.12464
1042.75852	0.12662
1041.47275	0.12850
1040.18698	0.13028
1038.90121	0.13200
1037.61544	0.13372
1036.32967	0.13548
1035.04391	0.13726
1033.75814	0.13903
1032.47237	0.14078
1031.18660	0.14246
1029.90083	0.14399
1028.61506	0.14533
1027.32929	0.14645
1026.04352	0.14744
1024.75775	0.14833
1023.47199	0.14911
1022.18622	0.14964
1020.90045	0.14985
1019.61468	0.14971
1018.32891	0.14926
1017.04314	0.14852
1015.75737	0.14751
1014.47160	0.14622
1013.18584	0.14468
1011.90007	0.14291
1010.61430	0.14095
1009.32853	0.13887
1008.04276	0.13669
1006.75699	0.13437
1005.47122	0.13185
1004.18545	0.12912
1002.89968	0.12624
1001.61392	0.12331
1000.32815	0.12037
999.04238	0.11741
997.75661	0.11439
996.47084	0.11131
995.18507	0.10826
993.89930	0.10528
992.61353	0.10233
991.32777	0.09934
990.04200	0.09634
988.75623	0.09346
987.47046	0.09078
986.18469	0.08827
984.89892	0.08584
983.61315	0.08342
982.32738	0.08103
981.04161	0.07873
979.75585	0.07657
978.47008	0.07452
977.18431	0.07257
975.89854	0.07072
974.61277	0.06900
973.32700	0.06745
972.04123	0.06613
970.75546	0.06511
969.46970	0.06443
968.18393	0.06411
966.89816	0.06410
965.61239	0.06432
964.32662	0.06470
963.04085	0.06515
961.75508	0.06552
960.46931	0.06563
959.18354	0.06532
957.89778	0.06459
956.61201	0.06351
955.32624	0.06223
954.04047	0.06088
952.75470	0.05953
951.46893	0.05822
950.18316	0.05695
948.89739	0.05571
947.61163	0.05449
946.32586	0.05332
945.04009	0.05219
943.75432	0.05110
942.46855	0.05003
941.18278	0.04900
939.89701	0.04807
938.61124	0.04728
937.32547	0.04657
936.03971	0.04582
934.75394	0.04495
933.46817	0.04404
932.18240	0.04319
930.89663	0.04247
929.61086	0.04187
928.32509	0.04133
927.03932	0.04082
925.75356	0.04033
924.46779	0.03986
923.18202	0.03938
921.89625	0.03888
920.61048	0.03832
919.32471	0.03775
918.03894	0.03726
916.75317	0.03688
915.46740	0.03658
914.18164	0.03628
912.89587	0.03594
911.61010	0.03558
910.32433	0.03527
909.03856	0.03504
907.75279	0.03482
906.46702	0.03453
905.18125	0.03414
903.89549	0.03369
902.60972	0.03325
901.32395	0.03287
900.03818	0.03255
898.75241	0.03230
897.46664	0.03208
896.18087	0.03186
894.89510	0.03164
893.60933	0.03142
892.32357	0.03122
891.03780	0.03105
889.75203	0.03091
888.46626	0.03083
887.18049	0.03081
885.89472	0.03098
884.60895	0.03147
883.32318	0.03238
882.03742	0.03361
880.75165	0.03486
879.46588	0.03579
878.18011	0.03636
876.89434	0.03676
875.60857	0.03727
874.32280	0.03790
873.03703	0.03847
871.75126	0.03874
870.46550	0.03862
869.17973	0.03816
867.89396	0.03746
866.60819	0.03657
865.32242	0.03552
864.03665	0.03440
862.75088	0.03335
861.46511	0.03249
860.17935	0.03177
858.89358	0.03107
857.60781	0.03028
856.32204	0.02946
855.03627	0.02875
853.75050	0.02826
852.46473	0.02794
851.17896	0.02767
849.89319	0.02739
848.60743	0.02711
847.32166	0.02688
846.03589	0.02668
844.75012	0.02646
843.46435	0.02618
842.17858	0.02588
840.89281	0.02562
839.60704	0.02545
838.32128	0.02536
837.03551	0.02530
835.74974	0.02521
834.46397	0.02510
833.17820	0.02497
831.89243	0.02483
830.60666	0.02468
829.32089	0.02458
828.03512	0.02452
826.74936	0.02448
825.46359	0.02440
824.17782	0.02432
822.89205	0.02429
821.60628	0.02433
820.32051	0.02436
819.03474	0.02432
817.74897	0.02421
816.46321	0.02410
815.17744	0.02407
813.89167	0.02413
812.60590	0.02419
811.32013	0.02417
810.03436	0.02406
808.74859	0.02393
807.46282	0.02385
806.17705	0.02386
804.89129	0.02393
803.60552	0.02406
802.31975	0.02420
801.03398	0.02431
799.74821	0.02435
798.46244	0.02434
797.17667	0.02429
795.89090	0.02421
794.60513	0.02410
793.31937	0.02398
792.03360	0.02392
790.74783	0.02393
789.46206	0.02397
788.17629	0.02395
786.89052	0.02383
785.60475	0.02363
784.31898	0.02346
783.03322	0.02340
781.74745	0.02346
780.46168	0.02359
779.17591	0.02370
777.89014	0.02374
776.60437	0.02371
775.31860	0.02364
774.03283	0.02360
772.74706	0.02362
771.46130	0.02366
770.17553	0.02364
768.88976	0.02352
767.60399	0.02333
766.31822	0.02319
765.03245	0.02317
763.74668	0.02327
762.46091	0.02343
761.17515	0.02356
759.88938	0.02360
758.60361	0.02359
757.31784	0.02358
756.03207	0.02363
754.74630	0.02370
753.46053	0.02374
752.17476	0.02371
750.88899	0.02364
749.60323	0.02356
748.31746	0.02349
747.03169	0.02343
745.74592	0.02336
744.46015	0.02323
743.17438	0.02305
741.88861	0.02292
740.60284	0.02293
739.31708	0.02310
738.03131	0.02334
736.74554	0.02353
735.45977	0.02356
734.17400	0.02343
732.88823	0.02324
731.60246	0.02314
730.31669	0.02315
729.03092	0.02324
727.74516	0.02334
726.45939	0.02342
725.17362	0.02344
723.88785	0.02336
722.60208	0.02332
721.31631	0.02329
720.03054	0.02325
718.74477	0.02322
717.45901	0.02317
716.17324	0.02308
714.88747	0.02296
713.60170	0.02285
712.31593	0.02280
711.03016	0.02280
709.74439	0.02285
708.45862	0.02293
707.17285	0.02305
705.88709	0.02318
704.60132	0.02329
703.31555	0.02334
702.02978	0.02333
700.74401	0.02327
699.45824	0.02319
698.17247	0.02315
696.88670	0.02315
695.60094	0.02319
694.31517	0.02324
693.02940	0.02330
691.74363	0.02336
690.45786	0.02337
689.17209	0.02330
687.88632	0.02315
686.60055	0.02300
685.31478	0.02290
684.02902	0.02287
682.74325	0.02290
681.45748	0.02293
680.17171	0.02294
678.88594	0.02291
677.60017	0.02287
676.31440	0.02282
675.02863	0.02280
673.74287	0.02284
672.45710	0.02293
671.17133	0.02306
669.88556	0.02321
668.59979	0.02333
667.31402	0.02339
666.02825	0.02333
664.74248	0.02319
663.45671	0.02305
662.17095	0.02292
660.88518	0.02281
659.59941	0.02273
658.31364	0.02269
657.02787	0.02271
655.74210	0.02275
654.45633	0.02280
653.17056	0.02284
651.88480	0.02289
650.59903	0.02295
649.31326	0.02303
648.02749	0.02312
646.74172	0.02321
645.45595	0.02328
644.17018	0.02335
642.88441	0.02344
641.59864	0.02357
640.31288	0.02374
639.02711	0.02391
637.74134	0.02409
636.45557	0.02428
635.16980	0.02448
633.88403	0.02466
632.59826	0.02476
631.31249	0.02488
630.02673	0.02530
628.74096	0.02563
627.45519	0.02497
626.16942	0.02545
624.88365	0.02678
623.59788	0.02816
622.31211	0.02927
621.02634	0.03014
619.74057	0.03101
618.45481	0.03220
617.16904	0.03369
615.88327	0.03518
614.59750	0.03639
613.31173	0.03764
612.02596	0.03973
610.74019	0.04325
609.45442	0.04778
608.16866	0.05212
606.88289	0.05540
605.59712	0.05771
604.31135	0.05960
603.02558	0.06134
601.73981	0.06265
600.45404	0.06306
599.16827	0.06234
597.88250	0.06071
596.59674	0.05858
595.31097	0.05637
594.02520	0.05435
592.73943	0.05264
591.45366	0.05127
590.16789	0.05021
588.88212	0.04950
587.59635	0.04922
586.31059	0.04944
585.02482	0.05018
583.73905	0.05132
582.45328	0.05271
581.16751	0.05426
579.88174	0.05592
578.59597	0.05770
577.31020	0.05954
576.02443	0.06135
574.73867	0.06310
573.45290	0.06483
572.16713	0.06659
570.88136	0.06845
569.59559	0.07041
568.30982	0.07248
567.02405	0.07466
565.73828	0.07689
564.45251	0.07902
563.16675	0.08080
561.88098	0.08196
560.59521	0.08219
559.30944	0.08123
558.02367	0.07908
556.73790	0.07605
555.45213	0.07267
554.16636	0.06933
552.88060	0.06615
551.59483	0.06313
550.30906	0.06027
549.02329	0.05764
547.73752	0.05527
546.45175	0.05317
545.16598	0.05135
543.88021	0.04976
542.59444	0.04833
541.30868	0.04694
540.02291	0.04559
538.73714	0.04436
537.45137	0.04333
536.16560	0.04252
534.87983	0.04184
533.59406	0.04121
532.30829	0.04056
531.02253	0.03986
529.73676	0.03913
528.45099	0.03840
527.16522	0.03767
525.87945	0.03693
524.59368	0.03618
523.30791	0.03546
522.02214	0.03483
520.73637	0.03438
519.45061	0.03407
518.16484	0.03384
516.87907	0.03357
515.59330	0.03318
514.30753	0.03268
513.02176	0.03213
511.73599	0.03160
510.45022	0.03114
509.16446	0.03079
507.87869	0.03050
506.59292	0.03021
505.30715	0.02990
504.02138	0.02963
502.73561	0.02941
501.44984	0.02917
500.16407	0.02882
498.87830	0.02840
497.59254	0.02798
496.30677	0.02762
495.02100	0.02729
493.73523	0.02696
492.44946	0.02666
491.16369	0.02644
489.87792	0.02629
488.59215	0.02619
487.30639	0.02612
486.02062	0.02606
484.73485	0.02604
483.44908	0.02601
482.16331	0.02598
480.87754	0.02595
479.59177	0.02596
478.30600	0.02602
477.02023	0.02613
475.73447	0.02632
474.44870	0.02658
473.16293	0.02687
471.87716	0.02710
470.59139	0.02719
469.30562	0.02711
468.01985	0.02693
466.73408	0.02677
465.44832	0.02664
464.16255	0.02646
462.87678	0.02613
461.59101	0.02565
460.30524	0.02515
459.01947	0.02477
457.73370	0.02450
456.44793	0.02427
455.16216	0.02400
453.87640	0.02372
452.59063	0.02346
451.30486	0.02325
450.01909	0.02305
448.73332	0.02284
447.44755	0.02263
446.16178	0.02247
444.87601	0.02236
443.59025	0.02225
442.30448	0.02209
441.01871	0.02187
439.73294	0.02164
438.44717	0.02145
437.16140	0.02128
435.87563	0.02115
434.58986	0.02104
433.30409	0.02099
432.01833	0.02100
430.73256	0.02104
429.44679	0.02103
428.16102	0.02095
426.87525	0.02080
425.58948	0.02060
424.30371	0.02040
423.01794	0.02022
421.73218	0.02007
420.44641	0.01999
419.16064	0.01993
417.87487	0.01984
416.58910	0.01965
415.30333	0.01935
414.01756	0.01901
412.73179	0.01871
411.44602	0.01851
410.16026	0.01839
408.87449	0.01832
407.58872	0.01828
406.30295	0.01824
405.01718	0.01821
403.73141	0.01818
402.44564	0.01816
401.15987	0.01816
399.87411	0.01817
