3997.45528	0.02873
3996.16951	0.02823
3994.88374	0.02793
3993.59798	0.02785
3992.31221	0.02782
3991.02644	0.02766
3989.74067	0.02744
3988.45490	0.02747
3987.16913	0.02798
3985.88336	0.02881
3984.59759	0.02948
3983.31183	0.02963
3982.02606	0.02929
3980.74029	0.02881
3979.45452	0.02864
3978.16875	0.02896
3976.88298	0.02960
3975.59721	0.03008
3974.31144	0.03005
3973.02567	0.02953
3971.73991	0.02892
3970.45414	0.02862
3969.16837	0.02874
3967.88260	0.02914
3966.59683	0.02961
3965.31106	0.03002
3964.02529	0.03020
3962.73952	0.02994
3961.45376	0.02921
3960.16799	0.02828
3958.88222	0.02755
3957.59645	0.02723
3956.31068	0.02724
3955.02491	0.02743
3953.73914	0.02767
3952.45337	0.02798
3951.16760	0.02840
3949.88184	0.02904
3948.59607	0.02981
3947.31030	0.03044
3946.02453	0.03066
3944.73876	0.03043
3943.45299	0.03000
3942.16722	0.02961
3940.88145	0.02924
3939.59569	0.02870
3938.30992	0.02799
3937.02415	0.02733
3935.73838	0.02692
3934.45261	0.02685
3933.16684	0.02706
3931.88107	0.02744
3930.59530	0.02786
3929.30953	0.02819
3928.02377	0.02831
3926.73800	0.02816
3925.45223	0.02781
3924.16646	0.02748
3922.88069	0.02742
3921.59492	0.02769
3920.30915	0.02813
3919.02338	0.02845
3917.73762	0.02847
3916.45185	0.02827
3915.16608	0.02811
3913.88031	0.02815
3912.59454	0.02832
3911.30877	0.02845
3910.02300	0.02843
3908.73723	0.02824
3907.45146	0.02789
3906.16570	0.02745
3904.87993	0.02708
3903.59416	0.02689
3902.30839	0.02699
3901.02262	0.02741
3899.73685	0.02803
3898.45108	0.02856
3897.16531	0.02879
3895.87955	0.02878
3894.59378	0.02869
3893.30801	0.02850
3892.02224	0.02806
3890.73647	0.02749
3889.45070	0.02719
3888.16493	0.02750
3886.87916	0.02825
3885.59339	0.02891
3884.30763	0.02908
3883.02186	0.02882
3881.73609	0.02842
3880.45032	0.02805
3879.16455	0.02764
3877.87878	0.02721
3876.59301	0.02702
3875.30724	0.02741
3874.02148	0.02826
3872.73571	0.02897
3871.44994	0.02901
3870.16417	0.02847
3868.87840	0.02796
3867.59263	0.02802
3866.30686	0.02864
3865.02109	0.02938
3863.73532	0.02984
3862.44956	0.02994
3861.16379	0.02977
3859.87802	0.02941
3858.59225	0.02884
3857.30648	0.02818
3856.02071	0.02770
3854.73494	0.02765
3853.44917	0.02792
3852.16341	0.02814
3850.87764	0.02796
3849.59187	0.02734
3848.30610	0.02648
3847.02033	0.02558
3845.73456	0.02484
3844.44879	0.02449
3843.16302	0.02462
3841.87725	0.02506
3840.59149	0.02552
3839.30572	0.02586
3838.01995	0.02610
3836.73418	0.02621
3835.44841	0.02606
3834.16264	0.02567
3832.87687	0.02529
3831.59110	0.02519
3830.30534	0.02533
3829.01957	0.02552
3827.73380	0.02563
3826.44803	0.02572
3825.16226	0.02588
3823.87649	0.02605
3822.59072	0.02606
3821.30495	0.02581
3820.01918	0.02544
3818.73342	0.02526
3817.44765	0.02540
3816.16188	0.02574
3814.87611	0.02603
3813.59034	0.02625
3812.30457	0.02648
3811.01880	0.02681
3809.73303	0.02716
3808.44726	0.02737
3807.16150	0.02731
3805.87573	0.02702
3804.58996	0.02674
3803.30419	0.02672
3802.01842	0.02689
3800.73265	0.02696
3799.44688	0.02677
3798.16111	0.02655
3796.87535	0.02673
3795.58958	0.02748
3794.30381	0.02866
3793.01804	0.02985
3791.73227	0.03046
3790.44650	0.03004
3789.16073	0.02864
3787.87496	0.02695
3786.58919	0.02573
3785.30343	0.02524
3784.01766	0.02532
3782.73189	0.02579
3781.44612	0.02652
3780.16035	0.02730
3778.87458	0.02780
3777.58881	0.02784
3776.30304	0.02749
3775.01728	0.02699
3773.73151	0.02660
3772.44574	0.02650
3771.15997	0.02668
3769.87420	0.02687
3768.58843	0.02673
3767.30266	0.02620
3766.01689	0.02554
3764.73112	0.02507
3763.44536	0.02495
3762.15959	0.02519
3760.87382	0.02573
3759.58805	0.02633
3758.30228	0.02667
3757.01651	0.02652
3755.73074	0.02603
3754.44497	0.02560
3753.15921	0.02556
3751.87344	0.02582
3750.58767	0.02602
3749.30190	0.02591
3748.01613	0.02563
3746.73036	0.02544
3745.44459	0.02550
3744.15882	0.02570
3742.87305	0.02582
3741.58729	0.02566
3740.30152	0.02532
3739.01575	0.02513
3737.72998	0.02538
3736.44421	0.02597
3735.15844	0.02656
3733.87267	0.02688
3732.58690	0.02697
3731.30114	0.02695
3730.01537	0.02679
3728.72960	0.02640
3727.44383	0.02584
3726.15806	0.02530
3724.87229	0.02503
3723.58652	0.02507
3722.30075	0.02525
3721.01498	0.02540
3719.72922	0.02550
3718.44345	0.02570
3717.15768	0.02610
3715.87191	0.02664
3714.58614	0.02718
3713.30037	0.02760
3712.01460	0.02779
3710.72883	0.02763
3709.44307	0.02699
3708.15730	0.02589
3706.87153	0.02459
3705.58576	0.02358
3704.29999	0.02320
3703.01422	0.02343
3701.72845	0.02387
3700.44268	0.02409
3699.15691	0.02394
3697.87115	0.02371
3696.58538	0.02379
3695.29961	0.02420
3694.01384	0.02458
3692.72807	0.02458
3691.44230	0.02422
3690.15653	0.02381
3688.87076	0.02362
3687.58500	0.02367
3686.29923	0.02385
3685.01346	0.02409
3683.72769	0.02427
3682.44192	0.02429
3681.15615	0.02421
3679.87038	0.02423
3678.58461	0.02443
3677.29884	0.02467
3676.01308	0.02481
3674.72731	0.02488
3673.44154	0.02506
3672.15577	0.02536
3670.87000	0.02562
3669.58423	0.02571
3668.29846	0.02567
3667.01269	0.02559
3665.72693	0.02552
3664.44116	0.02552
3663.15539	0.02565
3661.86962	0.02588
3660.58385	0.02600
3659.29808	0.02585
3658.01231	0.02555
3656.72654	0.02532
3655.44077	0.02532
3654.15501	0.02557
3652.86924	0.02607
3651.58347	0.02667
3650.29770	0.02699
3649.01193	0.02676
3647.72616	0.02613
3646.44039	0.02560
3645.15462	0.02551
3643.86886	0.02577
3642.58309	0.02617
3641.29732	0.02671
3640.01155	0.02754
3638.72578	0.02856
3637.44001	0.02930
3636.15424	0.02931
3634.86847	0.02871
3633.58270	0.02806
3632.29694	0.02790
3631.01117	0.02829
3629.72540	0.02876
3628.43963	0.02879
3627.15386	0.02835
3625.86809	0.02787
3624.58232	0.02782
3623.29655	0.02816
3622.01079	0.02841
3620.72502	0.02817
3619.43925	0.02744
3618.15348	0.02662
3616.86771	0.02623
3615.58194	0.02656
3614.29617	0.02743
3613.01040	0.02839
3611.72463	0.02908
3610.43887	0.02951
3609.15310	0.02986
3607.86733	0.03012
3606.58156	0.03011
3605.29579	0.02972
3604.01002	0.02902
3602.72425	0.02819
3601.43848	0.02746
3600.15272	0.02706
3598.86695	0.02715
3597.58118	0.02771
3596.29541	0.02850
3595.00964	0.02923
3593.72387	0.02977
3592.43810	0.03018
3591.15233	0.03051
3589.86656	0.03067
3588.58080	0.03048
3587.29503	0.02977
3586.00926	0.02863
3584.72349	0.02745
3583.43772	0.02679
3582.15195	0.02710
3580.86618	0.02827
3579.58041	0.02974
3578.29464	0.03088
3577.00888	0.03150
3575.72311	0.03186
3574.43734	0.03221
3573.15157	0.03250
3571.86580	0.03255
3570.58003	0.03240
3569.29426	0.03223
3568.00849	0.03210
3566.72273	0.03198
3565.43696	0.03189
3564.15119	0.03190
3562.86542	0.03198
3561.57965	0.03195
3560.29388	0.03166
3559.00811	0.03119
3557.72234	0.03070
3556.43657	0.03040
3555.15081	0.03043
3553.86504	0.03088
3552.57927	0.03160
3551.29350	0.03223
3550.00773	0.03245
3548.72196	0.03230
3547.43619	0.03204
3546.15042	0.03184
3544.86466	0.03166
3543.57889	0.03150
3542.29312	0.03152
3541.00735	0.03193
3539.72158	0.03268
3538.43581	0.03339
3537.15004	0.03370
3535.86427	0.03358
3534.57850	0.03316
3533.29274	0.03257
3532.00697	0.03189
3530.72120	0.03140
3529.43543	0.03147
3528.14966	0.03220
3526.86389	0.03330
3525.57812	0.03425
3524.29235	0.03463
3523.00659	0.03434
3521.72082	0.03361
3520.43505	0.03294
3519.14928	0.03274
3517.86351	0.03301
3516.57774	0.03339
3515.29197	0.03359
3514.00620	0.03366
3512.72043	0.03381
3511.43467	0.03400
3510.14890	0.03403
3508.86313	0.03385
3507.57736	0.03372
3506.29159	0.03389
3505.00582	0.03426
3503.72005	0.03450
3502.43428	0.03442
3501.14852	0.03410
3499.86275	0.03371
3498.57698	0.03337
3497.29121	0.03314
3496.00544	0.03302
3494.71967	0.03296
3493.43390	0.03298
3492.14813	0.03314
3490.86236	0.03352
3489.57660	0.03401
3488.29083	0.03437
3487.00506	0.03439
3485.71929	0.03411
3484.43352	0.03389
3483.14775	0.03410
3481.86198	0.03474
3480.57621	0.03538
3479.29045	0.03565
3478.00468	0.03549
3476.71891	0.03519
3475.43314	0.03506
3474.14737	0.03518
3472.86160	0.03541
3471.57583	0.03559
3470.29006	0.03566
3469.00429	0.03558
3467.71853	0.03530
3466.43276	0.03487
3465.14699	0.03447
3463.86122	0.03425
3462.57545	0.03423
3461.28968	0.03429
3460.00391	0.03435
3458.71814	0.03440
3457.43238	0.03447
3456.14661	0.03459
3454.86084	0.03481
3453.57507	0.03507
3452.28930	0.03528
3451.00353	0.03536
3449.71776	0.03534
3448.43199	0.03536
3447.14622	0.03542
3445.86046	0.03538
3444.57469	0.03513
3443.28892	0.03480
3442.00315	0.03463
3440.71738	0.03474
3439.43161	0.03511
3438.14584	0.03569
3436.86007	0.03641
3435.57431	0.03702
3434.28854	0.03724
3433.00277	0.03703
3431.71700	0.03665
3430.43123	0.03643
3429.14546	0.03647
3427.85969	0.03656
3426.57392	0.03648
3425.28815	0.03618
3424.00239	0.03586
3422.71662	0.03573
3421.43085	0.03587
3420.14508	0.03622
3418.85931	0.03673
3417.57354	0.03733
3416.28777	0.03782
3415.00200	0.03789
3413.71624	0.03740
3412.43047	0.03659
3411.14470	0.03591
3409.85893	0.03563
3408.57316	0.03568
3407.28739	0.03584
3406.00162	0.03598
3404.71585	0.03610
3403.43008	0.03622
3402.14432	0.03638
3400.85855	0.03657
3399.57278	0.03681
3398.28701	0.03709
3397.00124	0.03740
3395.71547	0.03768
3394.42970	0.03779
3393.14393	0.03776
3391.85817	0.03781
3390.57240	0.03822
3389.28663	0.03892
3388.00086	0.03945
3386.71509	0.03936
3385.42932	0.03864
3384.14355	0.03774
3382.85778	0.03713
3381.57201	0.03694
3380.28625	0.03702
3379.00048	0.03718
3377.71471	0.03730
3376.42894	0.03742
3375.14317	0.03764
3373.85740	0.03799
3372.57163	0.03830
3371.28586	0.03832
3370.00010	0.03795
3368.71433	0.03732
3367.42856	0.03665
3366.14279	0.03614
3364.85702	0.03604
3363.57125	0.03651
3362.28548	0.03742
3360.99971	0.03834
3359.71394	0.03884
3358.42818	0.03874
3357.14241	0.03822
3355.85664	0.03759
3354.57087	0.03714
3353.28510	0.03695
3351.99933	0.03695
3350.71356	0.03697
3349.42779	0.03693
3348.14202	0.03687
3346.85626	0.03685
3345.57049	0.03696
3344.28472	0.03720
3342.99895	0.03748
3341.71318	0.03761
3340.42741	0.03752
3339.14164	0.03726
3337.85587	0.03695
3336.57011	0.03672
3335.28434	0.03662
3333.99857	0.03665
3332.71280	0.03682
3331.42703	0.03707
3330.14126	0.03725
3328.85549	0.03717
3327.56972	0.03682
3326.28395	0.03641
3324.99819	0.03630
3323.71242	0.03664
3322.42665	0.03727
3321.14088	0.03783
3319.85511	0.03801
3318.56934	0.03772
3317.28357	0.03711
3315.99780	0.03647
3314.71204	0.03607
3313.42627	0.03596
3312.14050	0.03611
3310.85473	0.03649
3309.56896	0.03713
3308.28319	0.03795
3306.99742	0.03874
3305.71165	0.03926
3304.42588	0.03939
3303.14012	0.03911
3301.85435	0.03856
3300.56858	0.03793
3299.28281	0.03750
3297.99704	0.03737
3296.71127	0.03748
3295.42550	0.03762
3294.13973	0.03772
3292.85397	0.03778
3291.56820	0.03780
3290.28243	0.03774
3288.99666	0.03759
3287.71089	0.03738
3286.42512	0.03717
3285.13935	0.03702
3283.85358	0.03700
3282.56781	0.03711
3281.28205	0.03728
3279.99628	0.03745
3278.71051	0.03760
3277.42474	0.03774
3276.13897	0.03783
3274.85320	0.03786
3273.56743	0.03786
3272.28166	0.03790
3270.99590	0.03793
3269.71013	0.03784
3268.42436	0.03749
3267.13859	0.03690
3265.85282	0.03621
3264.56705	0.03561
3263.28128	0.03524
3261.99551	0.03512
3260.70974	0.03525
3259.42398	0.03559
3258.13821	0.03607
3256.85244	0.03647
3255.56667	0.03662
3254.28090	0.03653
3252.99513	0.03638
3251.70936	0.03636
3250.42359	0.03646
3249.13783	0.03656
3247.85206	0.03655
3246.56629	0.03642
3245.28052	0.03624
3243.99475	0.03608
3242.70898	0.03601
3241.42321	0.03604
3240.13744	0.03616
3238.85167	0.03633
3237.56591	0.03654
3236.28014	0.03673
3234.99437	0.03686
3233.70860	0.03682
3232.42283	0.03652
3231.13706	0.03597
3229.85129	0.03534
3228.56552	0.03489
3227.27976	0.03483
3225.99399	0.03517
3224.70822	0.03564
3223.42245	0.03593
3222.13668	0.03590
3220.85091	0.03569
3219.56514	0.03552
3218.27937	0.03548
3216.99360	0.03547
3215.70784	0.03538
3214.42207	0.03522
3213.13630	0.03510
3211.85053	0.03512
3210.56476	0.03521
3209.27899	0.03525
3207.99322	0.03519
3206.70745	0.03510
3205.42169	0.03503
3204.13592	0.03499
3202.85015	0.03493
3201.56438	0.03490
3200.27861	0.03498
3198.99284	0.03519
3197.70707	0.03541
3196.42130	0.03542
3195.13553	0.03514
3193.84977	0.03472
3192.56400	0.03443
3191.27823	0.03444
3189.99246	0.03472
3188.70669	0.03507
3187.42092	0.03533
3186.13515	0.03546
3184.84938	0.03550
3183.56362	0.03545
3182.27785	0.03531
3180.99208	0.03515
3179.70631	0.03505
3178.42054	0.03506
3177.13477	0.03508
3175.84900	0.03500
3174.56323	0.03474
3173.27746	0.03437
3171.99170	0.03403
3170.70593	0.03391
3169.42016	0.03412
3168.13439	0.03454
3166.84862	0.03484
3165.56285	0.03474
3164.27708	0.03422
3162.99131	0.03352
3161.70555	0.03301
3160.41978	0.03291
3159.13401	0.03322
3157.84824	0.03375
3156.56247	0.03427
3155.27670	0.03466
3153.99093	0.03490
3152.70516	0.03498
3151.41939	0.03487
3150.13363	0.03464
3148.84786	0.03449
3147.56209	0.03462
3146.27632	0.03496
3144.99055	0.03522
3143.70478	0.03518
3142.41901	0.03487
3141.13324	0.03449
3139.84748	0.03426
3138.56171	0.03426
3137.27594	0.03444
3135.99017	0.03465
3134.70440	0.03469
3133.41863	0.03442
3132.13286	0.03391
3130.84709	0.03343
3129.56132	0.03321
3128.27556	0.03320
3126.98979	0.03319
3125.70402	0.03303
3124.41825	0.03276
3123.13248	0.03252
3121.84671	0.03234
3120.56094	0.03223
3119.27517	0.03221
3117.98940	0.03235
3116.70364	0.03261
3115.41787	0.03288
3114.13210	0.03298
3112.84633	0.03290
3111.56056	0.03270
3110.27479	0.03254
3108.98902	0.03249
3107.70325	0.03254
3106.41749	0.03262
3105.13172	0.03270
3103.84595	0.03279
3102.56018	0.03288
3101.27441	0.03284
3099.98864	0.03252
3098.70287	0.03197
3097.41710	0.03148
3096.13133	0.03134
3094.84557	0.03160
3093.55980	0.03208
3092.27403	0.03247
3090.98826	0.03258
3089.70249	0.03246
3088.41672	0.03234
3087.13095	0.03247
3085.84518	0.03287
3084.55942	0.03329
3083.27365	0.03345
3081.98788	0.03330
3080.70211	0.03298
3079.41634	0.03273
3078.13057	0.03262
3076.84480	0.03257
3075.55903	0.03243
3074.27326	0.03215
3072.98750	0.03182
3071.70173	0.03165
3070.41596	0.03181
3069.13019	0.03228
3067.84442	0.03281
3066.55865	0.03301
3065.27288	0.03272
3063.98711	0.03212
3062.70135	0.03159
3061.41558	0.03132
3060.12981	0.03125
3058.84404	0.03121
3057.55827	0.03117
3056.27250	0.03125
3054.98673	0.03149
3053.70096	0.03178
3052.41519	0.03202
3051.12943	0.03211
3049.84366	0.03198
3048.55789	0.03163
3047.27212	0.03117
3045.98635	0.03078
3044.70058	0.03057
3043.41481	0.03057
3042.12904	0.03073
3040.84328	0.03098
3039.55751	0.03121
3038.27174	0.03138
3036.98597	0.03147
3035.70020	0.03153
3034.41443	0.03152
3033.12866	0.03132
3031.84289	0.03091
3030.55712	0.03042
3029.27136	0.03006
3027.98559	0.02990
3026.69982	0.02985
3025.41405	0.02985
3024.12828	0.02986
3022.84251	0.02991
3021.55674	0.02997
3020.27097	0.03003
3018.98521	0.03017
3017.69944	0.03045
3016.41367	0.03076
3015.12790	0.03091
3013.84213	0.03075
3012.55636	0.03035
3011.27059	0.02995
3009.98482	0.02975
3008.69905	0.02977
3007.41329	0.02982
3006.12752	0.02979
3004.84175	0.02970
3003.55598	0.02970
3002.27021	0.02981
3000.98444	0.02992
2999.69867	0.02993
2998.41290	0.02980
2997.12714	0.02964
2995.84137	0.02952
2994.55560	0.02943
2993.26983	0.02934
2991.98406	0.02926
2990.69829	0.02925
2989.41252	0.02932
2988.12675	0.02940
2986.84098	0.02941
2985.55522	0.02935
2984.26945	0.02929
2982.98368	0.02933
2981.69791	0.02956
2980.41214	0.02997
2979.12637	0.03049
2977.84060	0.03094
2976.55483	0.03128
2975.26907	0.03158
2973.98330	0.03197
2972.69753	0.03245
2971.41176	0.03294
2970.12599	0.03337
2968.84022	0.03372
2967.55445	0.03404
2966.26868	0.03445
2964.98291	0.03497
2963.69715	0.03553
2962.41138	0.03602
2961.12561	0.03643
2959.83984	0.03684
2958.55407	0.03726
2957.26830	0.03763
2955.98253	0.03791
2954.69676	0.03815
2953.41100	0.03838
2952.12523	0.03854
2950.83946	0.03856
2949.55369	0.03846
2948.26792	0.03834
2946.98215	0.03835
2945.69638	0.03856
2944.41061	0.03889
2943.12484	0.03913
2941.83908	0.03907
2940.55331	0.03873
2939.26754	0.03836
2937.98177	0.03824
2936.69600	0.03844
2935.41023	0.03886
2934.12446	0.03929
2932.83869	0.03965
2931.55293	0.03998
2930.26716	0.04035
2928.98139	0.04079
2927.69562	0.04122
2926.40985	0.04155
2925.12408	0.04177
2923.83831	0.04200
2922.55254	0.04230
2921.26677	0.04262
2919.98101	0.04272
2918.69524	0.04245
2917.40947	0.04188
2916.12370	0.04119
2914.83793	0.04055
2913.55216	0.04005
2912.26639	0.03972
2910.98062	0.03952
2909.69486	0.03935
2908.40909	0.03913
2907.12332	0.03882
2905.83755	0.03848
2904.55178	0.03819
2903.26601	0.03802
2901.98024	0.03794
2900.69447	0.03790
2899.40870	0.03781
2898.12294	0.03757
2896.83717	0.03717
2895.55140	0.03669
2894.26563	0.03624
2892.97986	0.03587
2891.69409	0.03551
2890.40832	0.03514
2889.12255	0.03474
2887.83678	0.03437
2886.55102	0.03406
2885.26525	0.03384
2883.97948	0.03366
2882.69371	0.03346
2881.40794	0.03327
2880.12217	0.03322
2878.83640	0.03343
2877.55063	0.03385
2876.26487	0.03434
2874.97910	0.03480
2873.69333	0.03514
2872.40756	0.03530
2871.12179	0.03530
2869.83602	0.03525
2868.55025	0.03521
2867.26448	0.03517
2865.97871	0.03515
2864.69295	0.03520
2863.40718	0.03528
2862.12141	0.03524
2860.83564	0.03498
2859.54987	0.03461
2858.26410	0.03434
2856.97833	0.03425
2855.69256	0.03430
2854.40680	0.03436
2853.12103	0.03440
2851.83526	0.03443
2850.54949	0.03444
2849.26372	0.03436
2847.97795	0.03415
2846.69218	0.03384
2845.40641	0.03350
2844.12064	0.03320
2842.83488	0.03289
2841.54911	0.03244
2840.26334	0.03178
2838.97757	0.03105
2837.69180	0.03048
2836.40603	0.03024
2835.12026	0.03020
2833.83449	0.03007
2832.54873	0.02964
2831.26296	0.02905
2829.97719	0.02856
2828.69142	0.02829
2827.40565	0.02813
2826.11988	0.02794
2824.83411	0.02768
2823.54834	0.02746
2822.26257	0.02730
2820.97681	0.02718
2819.69104	0.02709
2818.40527	0.02705
2817.11950	0.02706
2815.83373	0.02705
2814.54796	0.02693
2813.26219	0.02672
2811.97642	0.02654
2810.69066	0.02644
2809.40489	0.02636
2808.11912	0.02623
2806.83335	0.02613
2805.54758	0.02615
2804.26181	0.02626
2802.97604	0.02635
2801.69027	0.02632
2800.40450	0.02615
2799.11874	0.02589
2797.83297	0.02564
2796.54720	0.02548
2795.26143	0.02542
2793.97566	0.02541
2792.68989	0.02538
2791.40412	0.02537
2790.11835	0.02539
2788.83259	0.02541
2787.54682	0.02539
2786.26105	0.02537
2784.97528	0.02543
2783.68951	0.02554
2782.40374	0.02555
2781.11797	0.02539
2779.83220	0.02519
2778.54643	0.02510
2777.26067	0.02512
2775.97490	0.02511
2774.68913	0.02500
2773.40336	0.02488
2772.11759	0.02487
2770.83182	0.02500
2769.54605	0.02516
2768.26028	0.02526
2766.97452	0.02523
2765.68875	0.02513
2764.40298	0.02500
2763.11721	0.02489
2761.83144	0.02479
2760.54567	0.02470
2759.25990	0.02457
2757.97413	0.02440
2756.68836	0.02420
2755.40260	0.02402
2754.11683	0.02393
2752.83106	0.02395
2751.54529	0.02401
2750.25952	0.02402
2748.97375	0.02397
2747.68798	0.02391
2746.40221	0.02388
2745.11645	0.02386
2743.83068	0.02383
2742.54491	0.02381
2741.25914	0.02384
2739.97337	0.02395
2738.68760	0.02407
2737.40183	0.02411
2736.11606	0.02402
2734.83029	0.02389
2733.54453	0.02387
2732.25876	0.02400
2730.97299	0.02416
2729.68722	0.02415
2728.40145	0.02393
2727.11568	0.02362
2725.82991	0.02338
2724.54414	0.02331
2723.25838	0.02341
2721.97261	0.02357
2720.68684	0.02367
2719.40107	0.02366
2718.11530	0.02360
2716.82953	0.02356
2715.54376	0.02353
2714.25799	0.02346
2712.97222	0.02338
2711.68646	0.02335
2710.40069	0.02337
2709.11492	0.02340
2707.82915	0.02336
2706.54338	0.02324
2705.25761	0.02305
2703.97184	0.02288
2702.68607	0.02282
2701.40031	0.02291
2700.11454	0.02316
2698.82877	0.02353
2697.54300	0.02387
2696.25723	0.02399
2694.97146	0.02375
2693.68569	0.02324
2692.39992	0.02272
2691.11415	0.02246
2689.82839	0.02251
2688.54262	0.02268
2687.25685	0.02275
2685.97108	0.02270
2684.68531	0.02266
2683.39954	0.02270
2682.11377	0.02276
2680.82800	0.02280
2679.54224	0.02287
2678.25647	0.02303
2676.97070	0.02321
2675.68493	0.02330
2674.39916	0.02321
2673.11339	0.02299
2671.82762	0.02276
2670.54185	0.02261
2669.25608	0.02256
2667.97032	0.02256
2666.68455	0.02254
2665.39878	0.02240
2664.11301	0.02214
2662.82724	0.02191
2661.54147	0.02182
2660.25570	0.02190
2658.96993	0.02203
2657.68417	0.02211
2656.39840	0.02214
2655.11263	0.02212
2653.82686	0.02205
2652.54109	0.02195
2651.25532	0.02181
2649.96955	0.02171
2648.68378	0.02166
2647.39801	0.02168
2646.11225	0.02173
2644.82648	0.02172
2643.54071	0.02163
2642.25494	0.02151
2640.96917	0.02145
2639.68340	0.02149
2638.39763	0.02155
2637.11186	0.02155
2635.82609	0.02146
2634.54033	0.02128
2633.25456	0.02103
2631.96879	0.02073
2630.68302	0.02041
2629.39725	0.02011
2628.11148	0.01992
2626.82571	0.01997
2625.53994	0.02031
2624.25418	0.02077
2622.96841	0.02116
2621.68264	0.02138
2620.39687	0.02143
2619.11110	0.02128
2617.82533	0.02090
2616.53956	0.02038
2615.25379	0.01985
2613.96802	0.01945
2612.68226	0.01927
2611.39649	0.01933
2610.11072	0.01956
2608.82495	0.01978
2607.53918	0.01975
2606.25341	0.01937
2604.96764	0.01877
2603.68187	0.01822
2602.39611	0.01797
2601.11034	0.01805
2599.82457	0.01830
2598.53880	0.01856
2597.25303	0.01879
2595.96726	0.01902
2594.68149	0.01924
2593.39572	0.01934
2592.10995	0.01920
2590.82419	0.01889
2589.53842	0.01864
2588.25265	0.01865
2586.96688	0.01883
2585.68111	0.01898
2584.39534	0.01907
2583.10957	0.01919
2581.82380	0.01938
2580.53804	0.01951
2579.25227	0.01954
2577.96650	0.01950
2576.68073	0.01945
2575.39496	0.01935
2574.10919	0.01920
2572.82342	0.01900
2571.53765	0.01875
2570.25188	0.01844
2568.96612	0.01813
2567.68035	0.01795
2566.39458	0.01792
2565.10881	0.01799
2563.82304	0.01806
2562.53727	0.01811
2561.25150	0.01818
2559.96573	0.01829
2558.67997	0.01848
2557.39420	0.01875
2556.10843	0.01904
2554.82266	0.01919
2553.53689	0.01910
2552.25112	0.01878
2550.96535	0.01840
2549.67958	0.01818
2548.39381	0.01821
2547.10805	0.01833
2545.82228	0.01831
2544.53651	0.01801
2543.25074	0.01755
2541.96497	0.01717
2540.67920	0.01702
2539.39343	0.01709
2538.10766	0.01724
2536.82190	0.01731
2535.53613	0.01722
2534.25036	0.01701
2532.96459	0.01679
2531.67882	0.01666
2530.39305	0.01661
2529.10728	0.01663
2527.82151	0.01670
2526.53574	0.01678
2525.24998	0.01689
2523.96421	0.01713
2522.67844	0.01752
2521.39267	0.01787
2520.10690	0.01791
2518.82113	0.01754
2517.53536	0.01692
2516.24959	0.01625
2514.96383	0.01572
2513.67806	0.01549
2512.39229	0.01560
2511.10652	0.01590
2509.82075	0.01614
2508.53498	0.01624
2507.24921	0.01630
2505.96344	0.01646
2504.67767	0.01675
2503.39191	0.01712
2502.10614	0.01752
2500.82037	0.01781
2499.53460	0.01782
2498.24883	0.01747
2496.96306	0.01694
2495.67729	0.01658
2494.39152	0.01657
2493.10576	0.01677
2491.81999	0.01684
2490.53422	0.01661
2489.24845	0.01618
2487.96268	0.01584
2486.67691	0.01578
2485.39114	0.01594
2484.10537	0.01616
2482.81960	0.01633
2481.53384	0.01642
2480.24807	0.01639
2478.96230	0.01612
2477.67653	0.01560
2476.39076	0.01508
2475.10499	0.01488
2473.81922	0.01515
2472.53345	0.01571
2471.24769	0.01627
2469.96192	0.01663
2468.67615	0.01680
2467.39038	0.01685
2466.10461	0.01684
2464.81884	0.01685
2463.53307	0.01690
2462.24730	0.01700
2460.96153	0.01716
2459.67577	0.01730
2458.39000	0.01729
2457.10423	0.01704
2455.81846	0.01663
2454.53269	0.01627
2453.24692	0.01608
2451.96115	0.01602
2450.67538	0.01602
2449.38962	0.01597
2448.10385	0.01588
2446.81808	0.01584
2445.53231	0.01604
2444.24654	0.01645
2442.96077	0.01685
2441.67500	0.01702
2440.38923	0.01693
2439.10346	0.01667
2437.81770	0.01632
2436.53193	0.01597
2435.24616	0.01579
2433.96039	0.01586
2432.67462	0.01601
2431.38885	0.01602
2430.10308	0.01583
2428.81731	0.01562
2427.53155	0.01556
2426.24578	0.01564
2424.96001	0.01572
2423.67424	0.01567
2422.38847	0.01548
2421.10270	0.01523
2419.81693	0.01507
2418.53116	0.01510
2417.24539	0.01524
2415.95963	0.01536
2414.67386	0.01542
2413.38809	0.01553
2412.10232	0.01577
2410.81655	0.01604
2409.53078	0.01621
2408.24501	0.01620
2406.95924	0.01604
2405.67347	0.01582
2404.38771	0.01560
2403.10194	0.01538
2401.81617	0.01513
2400.53040	0.01484
2399.24463	0.01455
2397.95886	0.01438
2396.67309	0.01444
2395.38732	0.01475
2394.10156	0.01523
2392.81579	0.01568
2391.53002	0.01593
2390.24425	0.01594
2388.95848	0.01577
2387.67271	0.01551
2386.38694	0.01527
2385.10117	0.01517
2383.81540	0.01525
2382.52964	0.01542
2381.24387	0.01554
2379.95810	0.01553
2378.67233	0.01543
2377.38656	0.01533
2376.10079	0.01525
2374.81502	0.01516
2373.52925	0.01508
2372.24349	0.01501
2370.95772	0.01496
2369.67195	0.01489
2368.38618	0.01485
2367.10041	0.01492
2365.81464	0.01511
2364.52887	0.01530
2363.24310	0.01541
2361.95733	0.01547
2360.67157	0.01557
2359.38580	0.01567
2358.10003	0.01571
2356.81426	0.01565
2355.52849	0.01552
2354.24272	0.01542
2352.95695	0.01539
2351.67118	0.01546
2350.38542	0.01556
2349.09965	0.01560
2347.81388	0.01555
2346.52811	0.01555
2345.24234	0.01566
2343.95657	0.01581
2342.67080	0.01587
2341.38503	0.01593
2340.09926	0.01597
2338.81350	0.01587
2337.52773	0.01565
2336.24196	0.01563
2334.95619	0.01577
2333.67042	0.01578
2332.38465	0.01570
2331.09888	0.01580
2329.81311	0.01592
2328.52735	0.01588
2327.24158	0.01611
2325.95581	0.01652
2324.67004	0.01676
2323.38427	0.01690
2322.09850	0.01692
2320.81273	0.01662
2319.52696	0.01634
2318.24119	0.01611
2316.95543	0.01579
2315.66966	0.01555
2314.38389	0.01545
2313.09812	0.01542
2311.81235	0.01551
2310.52658	0.01556
2309.24081	0.01554
2307.95504	0.01542
2306.66928	0.01514
2305.38351	0.01478
2304.09774	0.01445
2302.81197	0.01425
2301.52620	0.01424
2300.24043	0.01437
2298.95466	0.01461
2297.66889	0.01486
2296.38312	0.01495
2295.09736	0.01479
2293.81159	0.01444
2292.52582	0.01416
2291.24005	0.01411
2289.95428	0.01427
2288.66851	0.01456
2287.38274	0.01487
2286.09697	0.01510
2284.81121	0.01509
2283.52544	0.01480
2282.23967	0.01440
2280.95390	0.01412
2279.66813	0.01402
2278.38236	0.01403
2277.09659	0.01405
2275.81082	0.01405
2274.52505	0.01402
2273.23929	0.01397
2271.95352	0.01394
2270.66775	0.01393
2269.38198	0.01389
2268.09621	0.01381
2266.81044	0.01376
2265.52467	0.01373
2264.23890	0.01360
2262.95314	0.01331
2261.66737	0.01301
2260.38160	0.01280
2259.09583	0.01261
2257.81006	0.01233
2256.52429	0.01199
2255.23852	0.01174
2253.95275	0.01161
2252.66698	0.01157
2251.38122	0.01156
2250.09545	0.01159
2248.80968	0.01166
2247.52391	0.01174
2246.23814	0.01188
2244.95237	0.01203
2243.66660	0.01203
2242.38083	0.01176
2241.09507	0.01127
2239.80930	0.01087
2238.52353	0.01085
2237.23776	0.01125
2235.95199	0.01179
2234.66622	0.01216
2233.38045	0.01222
2232.09468	0.01195
2230.80891	0.01148
2229.52315	0.01104
2228.23738	0.01094
2226.95161	0.01122
2225.66584	0.01162
2224.38007	0.01183
2223.09430	0.01171
2221.80853	0.01132
2220.52276	0.01084
2219.23700	0.01048
2217.95123	0.01042
2216.66546	0.01065
2215.37969	0.01099
2214.09392	0.01111
2212.80815	0.01087
2211.52238	0.01038
2210.23661	0.00996
2208.95084	0.00985
2207.66508	0.01011
2206.37931	0.01066
2205.09354	0.01116
2203.80777	0.01115
2202.52200	0.01048
2201.23623	0.00959
2199.95046	0.00901
2198.66469	0.00871
2197.37893	0.00833
2196.09316	0.00788
2194.80739	0.00774
2193.52162	0.00806
2192.23585	0.00849
2190.95008	0.00874
2189.66431	0.00892
2188.37854	0.00911
2187.09277	0.00905
2185.80701	0.00842
2184.52124	0.00726
2183.23547	0.00591
2181.94970	0.00480
2180.66393	0.00438
2179.37816	0.00485
2178.09239	0.00583
2176.80662	0.00652
2175.52085	0.00653
2174.23509	0.00632
2172.94932	0.00648
2171.66355	0.00681
2170.37778	0.00672
2169.09201	0.00615
2167.80624	0.00566
2166.52047	0.00575
2165.23470	0.00638
2163.94894	0.00718
2162.66317	0.00762
2161.37740	0.00715
2160.09163	0.00568
2158.80586	0.00412
2157.52009	0.00365
2156.23432	0.00450
2154.94855	0.00580
2153.66278	0.00657
2152.37702	0.00639
2151.09125	0.00545
2149.80548	0.00434
2148.51971	0.00365
2147.23394	0.00359
2145.94817	0.00385
2144.66240	0.00406
2143.37663	0.00418
2142.09087	0.00436
2140.80510	0.00460
2139.51933	0.00485
2138.23356	0.00530
2136.94779	0.00620
2135.66202	0.00738
2134.37625	0.00818
2133.09048	0.00805
2131.80471	0.00718
2130.51895	0.00627
2129.23318	0.00590
2127.94741	0.00617
2126.66164	0.00687
2125.37587	0.00769
2124.09010	0.00833
2122.80433	0.00866
2121.51856	0.00869
2120.23280	0.00853
2118.94703	0.00822
2117.66126	0.00781
2116.37549	0.00740
2115.08972	0.00706
2113.80395	0.00681
2112.51818	0.00663
2111.23241	0.00661
2109.94664	0.00668
2108.66088	0.00671
2107.37511	0.00669
2106.08934	0.00685
2104.80357	0.00732
2103.51780	0.00791
2102.23203	0.00832
2100.94626	0.00848
2099.66049	0.00913
2098.37473	0.00936
2097.08896	0.00912
2095.80319	0.00858
2094.51742	0.00787
2093.23165	0.00717
2091.94588	0.00671
2090.66011	0.00658
2089.37434	0.00672
2088.08857	0.00698
2086.80281	0.00712
2085.51704	0.00698
2084.23127	0.00662
2082.94550	0.00632
2081.65973	0.00634
2080.37396	0.00667
2079.08819	0.00709
2077.80242	0.00737
2076.51666	0.00748
2075.23089	0.00754
2073.94512	0.00764
2072.65935	0.00771
2071.37358	0.00751
2070.08781	0.00688
2068.80204	0.00599
2067.51627	0.00523
2066.23050	0.00495
2064.94474	0.00515
2063.65897	0.00555
2062.37320	0.00579
2061.08743	0.00581
2059.80166	0.00577
2058.51589	0.00581
2057.23012	0.00587
2055.94435	0.00578
2054.65859	0.00559
2053.37282	0.00553
2052.08705	0.00563
2050.80128	0.00566
2049.51551	0.00530
2048.22974	0.00447
2046.94397	0.00340
2045.65820	0.00250
2044.37243	0.00211
2043.08667	0.00233
2041.80090	0.00290
2040.51513	0.00334
2039.22936	0.00335
2037.94359	0.00311
2036.65782	0.00308
2035.37205	0.00345
2034.08628	0.00391
2032.80052	0.00398
2031.51475	0.00361
2030.22898	0.00335
2028.94321	0.00392
2027.65744	0.00532
2026.37167	0.00668
2025.08590	0.00706
2023.80013	0.00640
2022.51436	0.00538
2021.22860	0.00450
2019.94283	0.00376
2018.65706	0.00320
2017.37129	0.00326
2016.08552	0.00420
2014.79975	0.00551
2013.51398	0.00632
2012.22821	0.00622
2010.94245	0.00547
2009.65668	0.00449
2008.37091	0.00361
2007.08514	0.00304
2005.79937	0.00289
2004.51360	0.00318
2003.22783	0.00382
2001.94206	0.00468
2000.65629	0.00553
1999.37053	0.00618
1998.08476	0.00663
1996.79899	0.00698
1995.51322	0.00713
1994.22745	0.00696
1992.94168	0.00658
1991.65591	0.00641
1990.37014	0.00665
1989.08438	0.00703
1987.79861	0.00710
1986.51284	0.00670
1985.22707	0.00615
1983.94130	0.00591
1982.65553	0.00615
1981.36976	0.00665
1980.08399	0.00705
1978.79822	0.00726
1977.51246	0.00740
1976.22669	0.00752
1974.94092	0.00745
1973.65515	0.00705
1972.36938	0.00638
1971.08361	0.00579
1969.79784	0.00567
1968.51207	0.00620
1967.22631	0.00704
1965.94054	0.00754
1964.65477	0.00730
1963.36900	0.00662
1962.08323	0.00616
1960.79746	0.00625
1959.51169	0.00668
1958.22592	0.00697
1956.94015	0.00684
1955.65439	0.00644
1954.36862	0.00611
1953.08285	0.00612
1951.79708	0.00645
1950.51131	0.00682
1949.22554	0.00703
1947.93977	0.00704
1946.65400	0.00700
1945.36823	0.00700
1944.08247	0.00708
1942.79670	0.00728
1941.51093	0.00767
1940.22516	0.00823
1938.93939	0.00874
1937.65362	0.00905
1936.36785	0.00915
1935.08208	0.00919
1933.79632	0.00922
1932.51055	0.00920
1931.22478	0.00905
1929.93901	0.00881
1928.65324	0.00854
1927.36747	0.00825
1926.08170	0.00799
1924.79593	0.00786
1923.51016	0.00789
1922.22440	0.00803
1920.93863	0.00821
1919.65286	0.00845
1918.36709	0.00877
1917.08132	0.00911
1915.79555	0.00942
1914.50978	0.00964
1913.22401	0.00975
1911.93825	0.00978
1910.65248	0.00977
1909.36671	0.00972
1908.08094	0.00959
1906.79517	0.00939
1905.50940	0.00924
1904.22363	0.00934
1902.93786	0.00965
1901.65209	0.00996
1900.36633	0.01005
1899.08056	0.00992
1897.79479	0.00969
1896.50902	0.00947
1895.22325	0.00932
1893.93748	0.00927
1892.65171	0.00937
1891.36594	0.00958
1890.08018	0.00977
1888.79441	0.00983
1887.50864	0.00976
1886.22287	0.00962
1884.93710	0.00947
1883.65133	0.00932
1882.36556	0.00920
1881.07979	0.00919
1879.79402	0.00930
1878.50826	0.00942
1877.22249	0.00938
1875.93672	0.00920
1874.65095	0.00906
1873.36518	0.00909
1872.07941	0.00922
1870.79364	0.00923
1869.50787	0.00903
1868.22211	0.00868
1866.93634	0.00838
1865.65057	0.00830
1864.36480	0.00847
1863.07903	0.00877
1861.79326	0.00906
1860.50749	0.00921
1859.22172	0.00918
1857.93595	0.00903
1856.65019	0.00891
1855.36442	0.00891
1854.07865	0.00900
1852.79288	0.00908
1851.50711	0.00912
1850.22134	0.00916
1848.93557	0.00916
1847.64980	0.00910
1846.36404	0.00897
1845.07827	0.00887
1843.79250	0.00889
1842.50673	0.00906
1841.22096	0.00930
1839.93519	0.00946
1838.64942	0.00946
1837.36365	0.00937
1836.07788	0.00933
1834.79212	0.00943
1833.50635	0.00960
1832.22058	0.00971
1830.93481	0.00970
1829.64904	0.00963
1828.36327	0.00963
1827.07750	0.00979
1825.79173	0.01006
1824.50597	0.01036
1823.22020	0.01057
1821.93443	0.01060
1820.64866	0.01046
1819.36289	0.01020
1818.07712	0.00992
1816.79135	0.00970
1815.50558	0.00956
1814.21981	0.00950
1812.93405	0.00948
1811.64828	0.00948
1810.36251	0.00948
1809.07674	0.00951
1807.79097	0.00956
1806.50520	0.00959
1805.21943	0.00956
1803.93366	0.00947
1802.64790	0.00939
1801.36213	0.00939
1800.07636	0.00944
1798.79059	0.00953
1797.50482	0.00964
1796.21905	0.00978
1794.93328	0.00996
1793.64751	0.01013
1792.36174	0.01025
1791.07598	0.01030
1789.79021	0.01031
1788.50444	0.01027
1787.21867	0.01018
1785.93290	0.01006
1784.64713	0.00993
1783.36136	0.00985
1782.07559	0.00985
1780.78983	0.00990
1779.50406	0.00997
1778.21829	0.01000
1776.93252	0.00999
1775.64675	0.00999
1774.36098	0.01003
1773.07521	0.01009
1771.78944	0.01017
1770.50367	0.01024
1769.21791	0.01028
1767.93214	0.01027
1766.64637	0.01024
1765.36060	0.01024
1764.07483	0.01032
1762.78906	0.01044
1761.50329	0.01053
1760.21752	0.01052
1758.93176	0.01043
1757.64599	0.01032
1756.36022	0.01027
1755.07445	0.01032
1753.78868	0.01043
1752.50291	0.01051
1751.21714	0.01052
1749.93137	0.01046
1748.64560	0.01039
1747.35984	0.01034
1746.07407	0.01036
1744.78830	0.01045
1743.50253	0.01057
1742.21676	0.01068
1740.93099	0.01076
1739.64522	0.01083
1738.35945	0.01090
1737.07369	0.01095
1735.78792	0.01097
1734.50215	0.01098
1733.21638	0.01098
1731.93061	0.01098
1730.64484	0.01099
1729.35907	0.01102
1728.07330	0.01109
1726.78753	0.01116
1725.50177	0.01119
1724.21600	0.01117
1722.93023	0.01116
1721.64446	0.01120
1720.35869	0.01132
1719.07292	0.01147
1717.78715	0.01160
1716.50138	0.01168
1715.21561	0.01176
1713.92985	0.01188
1712.64408	0.01204
1711.35831	0.01224
1710.07254	0.01245
1708.78677	0.01263
1707.50100	0.01274
1706.21523	0.01280
1704.92946	0.01284
1703.64370	0.01292
1702.35793	0.01307
1701.07216	0.01329
1699.78639	0.01353
1698.50062	0.01378
1697.21485	0.01398
1695.92908	0.01410
1694.64331	0.01412
1693.35754	0.01407
1692.07178	0.01399
1690.78601	0.01394
1689.50024	0.01396
1688.21447	0.01407
1686.92870	0.01425
1685.64293	0.01448
1684.35716	0.01469
1683.07139	0.01482
1681.78563	0.01484
1680.49986	0.01478
1679.21409	0.01475
1677.92832	0.01482
1676.64255	0.01501
1675.35678	0.01524
1674.07101	0.01540
1672.78524	0.01549
1671.49947	0.01555
1670.21371	0.01562
1668.92794	0.01571
1667.64217	0.01582
1666.35640	0.01598
1665.07063	0.01620
1663.78486	0.01645
1662.49909	0.01665
1661.21332	0.01674
1659.92756	0.01675
1658.64179	0.01677
1657.35602	0.01688
1656.07025	0.01708
1654.78448	0.01731
1653.49871	0.01745
1652.21294	0.01741
1650.92717	0.01723
1649.64140	0.01706
1648.35564	0.01701
1647.06987	0.01709
1645.78410	0.01720
1644.49833	0.01725
1643.21256	0.01725
1641.92679	0.01725
1640.64102	0.01732
1639.35525	0.01747
1638.06949	0.01765
1636.78372	0.01777
1635.49795	0.01774
1634.21218	0.01758
1632.92641	0.01743
1631.64064	0.01740
1630.35487	0.01750
1629.06910	0.01763
1627.78333	0.01771
1626.49757	0.01775
1625.21180	0.01779
1623.92603	0.01782
1622.64026	0.01785
1621.35449	0.01788
1620.06872	0.01794
1618.78295	0.01804
1617.49718	0.01814
1616.21142	0.01819
1614.92565	0.01818
1613.63988	0.01813
1612.35411	0.01810
1611.06834	0.01811
1609.78257	0.01813
1608.49680	0.01814
1607.21103	0.01818
1605.92526	0.01825
1604.63950	0.01834
1603.35373	0.01841
1602.06796	0.01847
1600.78219	0.01853
1599.49642	0.01861
1598.21065	0.01870
1596.92488	0.01879
1595.63911	0.01890
1594.35335	0.01904
1593.06758	0.01919
1591.78181	0.01931
1590.49604	0.01937
1589.21027	0.01939
1587.92450	0.01940
1586.63873	0.01943
1585.35296	0.01951
1584.06719	0.01964
1582.78143	0.01980
1581.49566	0.01998
1580.20989	0.02018
1578.92412	0.02038
1577.63835	0.02053
1576.35258	0.02063
1575.06681	0.02072
1573.78104	0.02086
1572.49528	0.02109
1571.20951	0.02137
1569.92374	0.02161
1568.63797	0.02177
1567.35220	0.02190
1566.06643	0.02204
1564.78066	0.02224
1563.49489	0.02248
1562.20912	0.02278
1560.92336	0.02311
1559.63759	0.02345
1558.35182	0.02371
1557.06605	0.02389
1555.78028	0.02402
1554.49451	0.02417
1553.20874	0.02439
1551.92297	0.02465
1550.63721	0.02491
1549.35144	0.02512
1548.06567	0.02528
1546.77990	0.02542
1545.49413	0.02561
1544.20836	0.02587
1542.92259	0.02618
1541.63682	0.02648
1540.35105	0.02670
1539.06529	0.02683
1537.77952	0.02693
1536.49375	0.02705
1535.20798	0.02724
1533.92221	0.02748
1532.63644	0.02775
1531.35067	0.02806
1530.06490	0.02843
1528.77914	0.02888
1527.49337	0.02943
1526.20760	0.03004
1524.92183	0.03069
1523.63606	0.03138
1522.35029	0.03205
1521.06452	0.03270
1519.77875	0.03334
1518.49298	0.03400
1517.20722	0.03471
1515.92145	0.03547
1514.63568	0.03623
1513.34991	0.03699
1512.06414	0.03779
1510.77837	0.03868
1509.49260	0.03968
1508.20683	0.04074
1506.92107	0.04173
1505.63530	0.04258
1504.34953	0.04330
1503.06376	0.04399
1501.77799	0.04472
1500.49222	0.04551
1499.20645	0.04631
1497.92068	0.04704
1496.63491	0.04769
1495.34915	0.04825
1494.06338	0.04878
1492.77761	0.04933
1491.49184	0.04992
1490.20607	0.05053
1488.92030	0.05112
1487.63453	0.05173
1486.34876	0.05240
1485.06299	0.05316
1483.77723	0.05399
1482.49146	0.05481
1481.20569	0.05560
1479.91992	0.05637
1478.63415	0.05716
1477.34838	0.05796
1476.06261	0.05874
1474.77684	0.05947
1473.49108	0.06010
1472.20531	0.06062
1470.91954	0.06106
1469.63377	0.06148
1468.34800	0.06192
1467.06223	0.06235
1465.77646	0.06272
1464.49069	0.06298
1463.20492	0.06313
1461.91916	0.06329
1460.63339	0.06353
1459.34762	0.06388
1458.06185	0.06426
1456.77608	0.06460
1455.49031	0.06491
1454.20454	0.06521
1452.91877	0.06549
1451.63301	0.06572
1450.34724	0.06587
1449.06147	0.06592
1447.77570	0.06589
1446.48993	0.06577
1445.20416	0.06557
1443.91839	0.06532
1442.63262	0.06504
1441.34685	0.06479
1440.06109	0.06457
1438.77532	0.06437
1437.48955	0.06422
1436.20378	0.06416
1434.91801	0.06425
1433.63224	0.06451
1432.34647	0.06494
1431.06070	0.06552
1429.77494	0.06622
1428.48917	0.06703
1427.20340	0.06789
1425.91763	0.06877
1424.63186	0.06964
1423.34609	0.07050
1422.06032	0.07133
1420.77455	0.07212
1419.48878	0.07282
1418.20302	0.07337
1416.91725	0.07374
1415.63148	0.07390
1414.34571	0.07388
1413.05994	0.07375
1411.77417	0.07352
1410.48840	0.07320
1409.20263	0.07272
1407.91687	0.07206
1406.63110	0.07125
1405.34533	0.07034
1404.05956	0.06936
1402.77379	0.06833
1401.48802	0.06721
1400.20225	0.06598
1398.91648	0.06462
1397.63071	0.06319
1396.34495	0.06175
1395.05918	0.06034
1393.77341	0.05893
1392.48764	0.05752
1391.20187	0.05612
1389.91610	0.05478
1388.63033	0.05351
1387.34456	0.05226
1386.05880	0.05102
1384.77303	0.04977
1383.48726	0.04854
1382.20149	0.04737
1380.91572	0.04623
1379.62995	0.04507
1378.34418	0.04387
1377.05841	0.04261
1375.77264	0.04133
1374.48688	0.04005
1373.20111	0.03877
1371.91534	0.03747
1370.62957	0.03619
1369.34380	0.03494
1368.05803	0.03374
1366.77226	0.03262
1365.48649	0.03160
1364.20073	0.03069
1362.91496	0.02987
1361.62919	0.02909
1360.34342	0.02831
1359.05765	0.02758
1357.77188	0.02690
1356.48611	0.02629
1355.20034	0.02572
1353.91457	0.02518
1352.62881	0.02468
1351.34304	0.02417
1350.05727	0.02366
1348.77150	0.02316
1347.48573	0.02268
1346.19996	0.02227
1344.91419	0.02192
1343.62842	0.02160
1342.34266	0.02128
1341.05689	0.02098
1339.77112	0.02072
1338.48535	0.02048
1337.19958	0.02027
1335.91381	0.02004
1334.62804	0.01980
1333.34227	0.01956
1332.05650	0.01932
1330.77074	0.01909
1329.48497	0.01887
1328.19920	0.01867
1326.91343	0.01851
1325.62766	0.01838
1324.34189	0.01829
1323.05612	0.01820
1321.77035	0.01807
1320.48459	0.01792
1319.19882	0.01775
1317.91305	0.01758
1316.62728	0.01742
1315.34151	0.01726
1314.05574	0.01709
1312.76997	0.01694
1311.48420	0.01681
1310.19843	0.01671
1308.91267	0.01663
1307.62690	0.01656
1306.34113	0.01647
1305.05536	0.01636
1303.76959	0.01624
1302.48382	0.01611
1301.19805	0.01600
1299.91228	0.01586
1298.62652	0.01572
1297.34075	0.01559
1296.05498	0.01553
1294.76921	0.01552
1293.48344	0.01550
1292.19767	0.01544
1290.91190	0.01534
1289.62613	0.01522
1288.34036	0.01508
1287.05460	0.01491
1285.76883	0.01470
1284.48306	0.01453
1283.19729	0.01442
1281.91152	0.01440
1280.62575	0.01444
1279.33998	0.01449
1278.05421	0.01452
1276.76845	0.01450
1275.48268	0.01445
1274.19691	0.01437
1272.91114	0.01424
1271.62537	0.01409
1270.33960	0.01395
1269.05383	0.01384
1267.76806	0.01377
1266.48229	0.01372
1265.19653	0.01365
1263.91076	0.01356
1262.62499	0.01347
1261.33922	0.01339
1260.05345	0.01332
1258.76768	0.01326
1257.48191	0.01320
1256.19614	0.01314
1254.91037	0.01308
1253.62461	0.01304
1252.33884	0.01304
1251.05307	0.01306
1249.76730	0.01307
1248.48153	0.01304
1247.19576	0.01298
1245.90999	0.01293
1244.62422	0.01291
1243.33846	0.01290
1242.05269	0.01290
1240.76692	0.01286
1239.48115	0.01279
1238.19538	0.01271
1236.90961	0.01263
1235.62384	0.01258
1234.33807	0.01257
1233.05230	0.01258
1231.76654	0.01258
1230.48077	0.01254
1229.19500	0.01246
1227.90923	0.01234
1226.62346	0.01221
1225.33769	0.01212
1224.05192	0.01209
1222.76615	0.01210
1221.48039	0.01212
1220.19462	0.01213
1218.90885	0.01213
1217.62308	0.01212
1216.33731	0.01213
1215.05154	0.01214
1213.76577	0.01215
1212.48000	0.01214
1211.19423	0.01214
1209.90847	0.01217
1208.62270	0.01222
1207.33693	0.01227
1206.05116	0.01229
1204.76539	0.01229
1203.47962	0.01232
1202.19385	0.01240
1200.90808	0.01247
1199.62232	0.01246
1198.33655	0.01251
1197.05078	0.01253
1195.76501	0.01253
1194.47924	0.01252
1193.19347	0.01252
1191.90770	0.01254
1190.62193	0.01256
1189.33616	0.01255
1188.05040	0.01252
1186.76463	0.01249
1185.47886	0.01251
1184.19309	0.01260
1182.90732	0.01272
1181.62155	0.01280
1180.33578	0.01281
1179.05001	0.01279
1177.76425	0.01280
1176.47848	0.01286
1175.19271	0.01298
1173.90694	0.01312
1172.62117	0.01329
1171.33540	0.01345
1170.04963	0.01360
1168.76386	0.01372
1167.47809	0.01385
1166.19233	0.01396
1164.90656	0.01406
1163.62079	0.01414
1162.33502	0.01424
1161.04925	0.01438
1159.76348	0.01454
1158.47771	0.01473
1157.19194	0.01496
1155.90618	0.01524
1154.62041	0.01553
1153.33464	0.01581
1152.04887	0.01609
1150.76310	0.01636
1149.47733	0.01662
1148.19156	0.01690
1146.90579	0.01724
1145.62002	0.01768
1144.33426	0.01824
1143.04849	0.01885
1141.76272	0.01948
1140.47695	0.02013
1139.19118	0.02086
1137.90541	0.02171
1136.61964	0.02265
1135.33387	0.02367
1134.04811	0.02477
1132.76234	0.02601
1131.47657	0.02741
1130.19080	0.02897
1128.90503	0.03065
1127.61926	0.03240
1126.33349	0.03424
1125.04772	0.03626
1123.76195	0.03852
1122.47619	0.04100
1121.19042	0.04360
1119.90465	0.04616
1118.61888	0.04864
1117.33311	0.05106
1116.04734	0.05347
1114.76157	0.05591
1113.47580	0.05838
1112.19004	0.06082
1110.90427	0.06320
1109.61850	0.06548
1108.33273	0.06770
1107.04696	0.06986
1105.76119	0.07193
1104.47542	0.07392
1103.18965	0.07587
1101.90388	0.07784
1100.61812	0.07980
1099.33235	0.08171
1098.04658	0.08347
1096.76081	0.08506
1095.47504	0.08652
1094.18927	0.08791
1092.90350	0.08926
1091.61773	0.09059
1090.33197	0.09192
1089.04620	0.09325
1087.76043	0.09456
1086.47466	0.09585
1085.18889	0.09714
1083.90312	0.09845
1082.61735	0.09982
1081.33158	0.10127
1080.04581	0.10285
1078.76005	0.10457
1077.47428	0.10640
1076.18851	0.10830
1074.90274	0.11024
1073.61697	0.11228
1072.33120	0.11446
1071.04543	0.11675
1069.75966	0.11904
1068.47390	0.12126
1067.18813	0.12344
1065.90236	0.12565
1064.61659	0.12792
1063.33082	0.13020
1062.04505	0.13247
1060.75928	0.13473
1059.47351	0.13699
1058.18774	0.13925
1056.90198	0.14147
1055.61621	0.14363
1054.33044	0.14574
1053.04467	0.14783
1051.75890	0.14992
1050.47313	0.15204
1049.18736	0.15421
1047.90159	0.15646
1046.61583	0.15879
1045.33006	0.16119
1044.04429	0.16363
1042.75852	0.16612
1041.47275	0.16862
1040.18698	0.17109
1038.90121	0.17346
1037.61544	0.17571
1036.32967	0.17786
1035.04391	0.17995
1033.75814	0.18193
1032.47237	0.18373
1031.18660	0.18528
1029.90083	0.18656
1028.61506	0.18763
1027.32929	0.18851
1026.04352	0.18916
1024.75775	0.18954
1023.47199	0.18959
1022.18622	0.18930
1020.90045	0.18868
1019.61468	0.18775
1018.32891	0.18652
1017.04314	0.18498
1015.75737	0.18311
1014.47160	0.18090
1013.18584	0.17838
1011.90007	0.17558
1010.61430	0.17249
1009.32853	0.16905
1008.04276	0.16527
1006.75699	0.16114
1005.47122	0.15673
1004.18545	0.15210
1002.89968	0.14729
1001.61392	0.14233
1000.32815	0.13727
999.04238	0.13217
997.75661	0.12710
996.47084	0.12206
995.18507	0.11701
993.89930	0.11198
992.61353	0.10705
991.32777	0.10238
990.04200	0.09807
988.75623	0.09408
987.47046	0.09027
986.18469	0.08657
984.89892	0.08304
983.61315	0.07978
982.32738	0.07685
981.04161	0.07419
979.75585	0.07172
978.47008	0.06940
977.18431	0.06725
975.89854	0.06533
974.61277	0.06371
973.32700	0.06244
972.04123	0.06152
970.75546	0.06092
969.46970	0.06061
968.18393	0.06061
966.89816	0.06089
965.61239	0.06141
964.32662	0.06205
963.04085	0.06266
961.75508	0.06310
960.46931	0.06319
959.18354	0.06282
957.89778	0.06196
956.61201	0.06069
955.32624	0.05918
954.04047	0.05755
952.75470	0.05590
951.46893	0.05424
950.18316	0.05261
948.89739	0.05106
947.61163	0.04962
946.32586	0.04828
945.04009	0.04697
943.75432	0.04565
942.46855	0.04434
941.18278	0.04310
939.89701	0.04198
938.61124	0.04097
937.32547	0.04009
936.03971	0.03931
934.75394	0.03862
933.46817	0.03796
932.18240	0.03732
930.89663	0.03669
929.61086	0.03608
928.32509	0.03548
927.03932	0.03490
925.75356	0.03436
924.46779	0.03390
923.18202	0.03347
921.89625	0.03307
920.61048	0.03270
919.32471	0.03237
918.03894	0.03206
916.75317	0.03171
915.46740	0.03132
914.18164	0.03095
912.89587	0.03067
911.61010	0.03049
910.32433	0.03033
909.03856	0.03015
907.75279	0.02992
906.46702	0.02966
905.18125	0.02940
903.89549	0.02915
902.60972	0.02886
901.32395	0.02855
900.03818	0.02830
898.75241	0.02815
897.46664	0.02807
896.18087	0.02799
894.89510	0.02789
893.60933	0.02784
892.32357	0.02788
891.03780	0.02805
889.75203	0.02837
888.46626	0.02890
887.18049	0.02975
885.89472	0.03105
884.60895	0.03294
883.32318	0.03537
882.03742	0.03805
880.75165	0.04057
879.46588	0.04257
878.18011	0.04397
876.89434	0.04495
875.60857	0.04575
874.32280	0.04646
873.03703	0.04692
871.75126	0.04684
870.46550	0.04607
869.17973	0.04467
867.89396	0.04283
866.60819	0.04073
865.32242	0.03853
864.03665	0.03643
862.75088	0.03457
861.46511	0.03305
860.17935	0.03184
858.89358	0.03085
857.60781	0.02998
856.32204	0.02917
855.03627	0.02840
853.75050	0.02770
852.46473	0.02716
851.17896	0.02681
849.89319	0.02661
848.60743	0.02644
847.32166	0.02623
846.03589	0.02596
844.75012	0.02567
843.46435	0.02539
842.17858	0.02508
840.89281	0.02476
839.60704	0.02445
838.32128	0.02416
837.03551	0.02391
835.74974	0.02368
834.46397	0.02348
833.17820	0.02331
831.89243	0.02318
830.60666	0.02307
829.32089	0.02297
828.03512	0.02288
826.74936	0.02279
825.46359	0.02270
824.17782	0.02260
822.89205	0.02248
821.60628	0.02235
820.32051	0.02229
819.03474	0.02236
817.74897	0.02252
816.46321	0.02261
815.17744	0.02251
813.89167	0.02222
812.60590	0.02191
811.32013	0.02171
810.03436	0.02168
808.74859	0.02174
807.46282	0.02181
806.17705	0.02185
804.89129	0.02187
803.60552	0.02187
802.31975	0.02186
801.03398	0.02187
799.74821	0.02191
798.46244	0.02197
797.17667	0.02201
795.89090	0.02200
794.60513	0.02193
793.31937	0.02185
792.03360	0.02179
790.74783	0.02179
789.46206	0.02182
788.17629	0.02187
786.89052	0.02194
785.60475	0.02203
784.31898	0.02208
783.03322	0.02206
781.74745	0.02199
780.46168	0.02192
779.17591	0.02184
777.89014	0.02178
776.60437	0.02178
775.31860	0.02187
774.03283	0.02195
772.74706	0.02193
771.46130	0.02176
770.17553	0.02155
768.88976	0.02134
767.60399	0.02116
766.31822	0.02102
765.03245	0.02093
763.74668	0.02094
762.46091	0.02105
761.17515	0.02121
759.88938	0.02136
758.60361	0.02145
757.31784	0.02150
756.03207	0.02152
754.74630	0.02154
753.46053	0.02159
752.17476	0.02167
750.88899	0.02170
749.60323	0.02161
748.31746	0.02147
747.03169	0.02140
745.74592	0.02147
744.46015	0.02159
743.17438	0.02160
741.88861	0.02145
740.60284	0.02119
739.31708	0.02093
738.03131	0.02077
736.74554	0.02072
735.45977	0.02074
734.17400	0.02086
732.88823	0.02104
731.60246	0.02126
730.31669	0.02146
729.03092	0.02159
727.74516	0.02168
726.45939	0.02178
725.17362	0.02190
723.88785	0.02196
722.60208	0.02195
721.31631	0.02188
720.03054	0.02180
718.74477	0.02172
717.45901	0.02164
716.17324	0.02152
714.88747	0.02141
713.60170	0.02130
712.31593	0.02120
711.03016	0.02110
709.74439	0.02100
708.45862	0.02091
707.17285	0.02080
705.88709	0.02067
704.60132	0.02052
703.31555	0.02039
702.02978	0.02034
700.74401	0.02038
699.45824	0.02050
698.17247	0.02063
696.88670	0.02073
695.60094	0.02078
694.31517	0.02077
693.02940	0.02073
691.74363	0.02065
690.45786	0.02057
689.17209	0.02052
687.88632	0.02050
686.60055	0.02047
685.31478	0.02040
684.02902	0.02031
682.74325	0.02019
681.45748	0.02008
680.17171	0.02002
678.88594	0.02002
677.60017	0.02008
676.31440	0.02015
675.02863	0.02020
673.74287	0.02020
672.45710	0.02020
671.17133	0.02025
669.88556	0.02035
668.59979	0.02045
667.31402	0.02052
666.02825	0.02057
664.74248	0.02052
663.45671	0.02040
662.17095	0.02026
660.88518	0.02013
659.59941	0.02005
658.31364	0.02005
657.02787	0.02008
655.74210	0.02009
654.45633	0.02006
653.17056	0.02006
651.88480	0.02017
650.59903	0.02036
649.31326	0.02052
648.02749	0.02058
646.74172	0.02057
645.45595	0.02061
644.17018	0.02076
642.88441	0.02100
641.59864	0.02127
640.31288	0.02149
639.02711	0.02168
637.74134	0.02190
636.45557	0.02218
635.16980	0.02255
633.88403	0.02295
632.59826	0.02331
631.31249	0.02363
630.02673	0.02430
628.74096	0.02518
627.45519	0.02493
626.16942	0.02629
624.88365	0.02913
623.59788	0.03272
622.31211	0.03666
621.02634	0.04030
619.74057	0.04296
618.45481	0.04455
617.16904	0.04551
615.88327	0.04628
614.59750	0.04713
613.31173	0.04853
612.02596	0.05129
610.74019	0.05569
609.45442	0.06067
608.16866	0.06460
606.88289	0.06690
605.59712	0.06830
604.31135	0.06966
603.02558	0.07104
601.73981	0.07180
600.45404	0.07132
599.16827	0.06959
597.88250	0.06707
596.59674	0.06429
595.31097	0.06166
594.02520	0.05944
592.73943	0.05787
591.45366	0.05702
590.16789	0.05680
588.88212	0.05700
587.59635	0.05748
586.31059	0.05823
585.02482	0.05930
583.73905	0.06070
582.45328	0.06239
581.16751	0.06425
579.88174	0.06616
578.59597	0.06802
577.31020	0.06982
576.02443	0.07159
574.73867	0.07343
573.45290	0.07540
572.16713	0.07753
570.88136	0.07979
569.59559	0.08213
568.30982	0.08457
567.02405	0.08705
565.73828	0.08937
564.45251	0.09111
563.16675	0.09187
561.88098	0.09143
560.59521	0.08979
559.30944	0.08703
558.02367	0.08331
556.73790	0.07885
555.45213	0.07397
554.16636	0.06905
552.88060	0.06444
551.59483	0.06033
550.30906	0.05674
549.02329	0.05352
547.73752	0.05055
546.45175	0.04783
545.16598	0.04539
543.88021	0.04328
542.59444	0.04146
541.30868	0.03989
540.02291	0.03854
538.73714	0.03742
537.45137	0.03644
536.16560	0.03548
534.87983	0.03448
533.59406	0.03349
532.30829	0.03258
531.02253	0.03175
529.73676	0.03097
528.45099	0.03022
527.16522	0.02952
525.87945	0.02894
524.59368	0.02846
523.30791	0.02800
522.02214	0.02747
520.73637	0.02689
519.45061	0.02633
518.16484	0.02587
516.87907	0.02553
515.59330	0.02525
514.30753	0.02491
513.02176	0.02446
511.73599	0.02395
510.45022	0.02353
509.16446	0.02330
507.87869	0.02320
506.59292	0.02310
505.30715	0.02289
504.02138	0.02258
502.73561	0.02223
501.44984	0.02191
500.16407	0.02170
498.87830	0.02160
497.59254	0.02154
496.30677	0.02143
495.02100	0.02125
493.73523	0.02106
492.44946	0.02088
491.16369	0.02071
489.87792	0.02055
488.59215	0.02047
487.30639	0.02048
486.02062	0.02058
484.73485	0.02073
483.44908	0.02091
482.16331	0.02115
480.87754	0.02144
479.59177	0.02174
478.30600	0.02203
477.02023	0.02230
475.73447	0.02256
474.44870	0.02285
473.16293	0.02320
471.87716	0.02356
470.59139	0.02388
469.30562	0.02404
468.01985	0.02399
466.73408	0.02376
465.44832	0.02346
464.16255	0.02319
462.87678	0.02300
461.59101	0.02291
460.30524	0.02288
459.01947	0.02282
457.73370	0.02264
456.44793	0.02231
455.16216	0.02191
453.87640	0.02156
452.59063	0.02134
451.30486	0.02123
450.01909	0.02118
448.73332	0.02112
447.44755	0.02104
446.16178	0.02093
444.87601	0.02082
443.59025	0.02073
442.30448	0.02070
441.01871	0.02072
439.73294	0.02079
438.44717	0.02088
437.16140	0.02097
435.87563	0.02105
434.58986	0.02112
433.30409	0.02119
432.01833	0.02127
430.73256	0.02134
429.44679	0.02137
428.16102	0.02139
426.87525	0.02142
425.58948	0.02148
424.30371	0.02154
423.01794	0.02158
421.73218	0.02157
420.44641	0.02152
419.16064	0.02144
417.87487	0.02136
416.58910	0.02133
415.30333	0.02135
414.01756	0.02140
412.73179	0.02143
411.44602	0.02146
410.16026	0.02153
408.87449	0.02166
407.58872	0.02183
406.30295	0.02196
405.01718	0.02204
403.73141	0.02212
402.44564	0.02227
401.15987	0.02251
399.87411	0.02280
