3997.45528	0.02908
3996.16951	0.02934
3994.88374	0.02911
3993.59798	0.02844
3992.31221	0.02761
3991.02644	0.02687
3989.74067	0.02638
3988.45490	0.02631
3987.16913	0.02666
3985.88336	0.02714
3984.59759	0.02739
3983.31183	0.02717
3982.02606	0.02648
3980.74029	0.02554
3979.45452	0.02477
3978.16875	0.02444
3976.88298	0.02445
3975.59721	0.02454
3974.31144	0.02459
3973.02567	0.02468
3971.73991	0.02490
3970.45414	0.02533
3969.16837	0.02599
3967.88260	0.02681
3966.59683	0.02756
3965.31106	0.02804
3964.02529	0.02821
3962.73952	0.02816
3961.45376	0.02791
3960.16799	0.02747
3958.88222	0.02684
3957.59645	0.02608
3956.31068	0.02532
3955.02491	0.02484
3953.73914	0.02489
3952.45337	0.02540
3951.16760	0.02597
3949.88184	0.02630
3948.59607	0.02648
3947.31030	0.02688
3946.02453	0.02766
3944.73876	0.02851
3943.45299	0.02884
3942.16722	0.02832
3940.88145	0.02720
3939.59569	0.02618
3938.30992	0.02577
3937.02415	0.02607
3935.73838	0.02680
3934.45261	0.02766
3933.16684	0.02842
3931.88107	0.02892
3930.59530	0.02906
3929.30953	0.02878
3928.02377	0.02813
3926.73800	0.02729
3925.45223	0.02639
3924.16646	0.02554
3922.88069	0.02497
3921.59492	0.02498
3920.30915	0.02549
3919.02338	0.02603
3917.73762	0.02598
3916.45185	0.02517
3915.16608	0.02413
3913.88031	0.02362
3912.59454	0.02388
3911.30877	0.02445
3910.02300	0.02469
3908.73723	0.02446
3907.45146	0.02421
3906.16570	0.02453
3904.87993	0.02538
3903.59416	0.02611
3902.30839	0.02616
3901.02262	0.02559
3899.73685	0.02487
3898.45108	0.02442
3897.16531	0.02433
3895.87955	0.02446
3894.59378	0.02469
3893.30801	0.02518
3892.02224	0.02593
3890.73647	0.02651
3889.45070	0.02653
3888.16493	0.02611
3886.87916	0.02549
3885.59339	0.02467
3884.30763	0.02386
3883.02186	0.02362
3881.73609	0.02430
3880.45032	0.02550
3879.16455	0.02655
3877.87878	0.02704
3876.59301	0.02683
3875.30724	0.02594
3874.02148	0.02477
3872.73571	0.02418
3871.44994	0.02469
3870.16417	0.02572
3868.87840	0.02637
3867.59263	0.02654
3866.30686	0.02659
3865.02109	0.02648
3863.73532	0.02609
3862.44956	0.02565
3861.16379	0.02540
3859.87802	0.02525
3858.59225	0.02506
3857.30648	0.02510
3856.02071	0.02570
3854.73494	0.02661
3853.44917	0.02701
3852.16341	0.02660
3850.87764	0.02598
3849.59187	0.02568
3848.30610	0.02554
3847.02033	0.02530
3845.73456	0.02491
3844.44879	0.02446
3843.16302	0.02399
3841.87725	0.02358
3840.59149	0.02353
3839.30572	0.02392
3838.01995	0.02438
3836.73418	0.02448
3835.44841	0.02427
3834.16264	0.02406
3832.87687	0.02391
3831.59110	0.02382
3830.30534	0.02401
3829.01957	0.02469
3827.73380	0.02559
3826.44803	0.02606
3825.16226	0.02581
3823.87649	0.02529
3822.59072	0.02490
3821.30495	0.02453
3820.01918	0.02413
3818.73342	0.02427
3817.44765	0.02526
3816.16188	0.02644
3814.87611	0.02700
3813.59034	0.02702
3812.30457	0.02690
3811.01880	0.02671
3809.73303	0.02648
3808.44726	0.02630
3807.16150	0.02600
3805.87573	0.02549
3804.58996	0.02528
3803.30419	0.02568
3802.01842	0.02601
3800.73265	0.02544
3799.44688	0.02433
3798.16111	0.02373
3796.87535	0.02382
3795.58958	0.02399
3794.30381	0.02388
3793.01804	0.02365
3791.73227	0.02351
3790.44650	0.02344
3789.16073	0.02333
3787.87496	0.02312
3786.58919	0.02289
3785.30343	0.02273
3784.01766	0.02265
3782.73189	0.02263
3781.44612	0.02264
3780.16035	0.02270
3778.87458	0.02281
3777.58881	0.02311
3776.30304	0.02356
3775.01728	0.02391
3773.73151	0.02400
3772.44574	0.02407
3771.15997	0.02433
3769.87420	0.02465
3768.58843	0.02474
3767.30266	0.02455
3766.01689	0.02410
3764.73112	0.02343
3763.44536	0.02280
3762.15959	0.02257
3760.87382	0.02271
3759.58805	0.02280
3758.30228	0.02255
3757.01651	0.02200
3755.73074	0.02151
3754.44497	0.02159
3753.15921	0.02240
3751.87344	0.02358
3750.58767	0.02455
3749.30190	0.02481
3748.01613	0.02440
3746.73036	0.02421
3745.44459	0.02470
3744.15882	0.02475
3742.87305	0.02374
3741.58729	0.02260
3740.30152	0.02214
3739.01575	0.02217
3737.72998	0.02223
3736.44421	0.02201
3735.15844	0.02174
3733.87267	0.02152
3732.58690	0.02172
3731.30114	0.02212
3730.01537	0.02222
3728.72960	0.02237
3727.44383	0.02250
3726.15806	0.02262
3724.87229	0.02273
3723.58652	0.02257
3722.30075	0.02256
3721.01498	0.02289
3719.72922	0.02315
3718.44345	0.02328
3717.15768	0.02331
3715.87191	0.02338
3714.58614	0.02336
3713.30037	0.02291
3712.01460	0.02261
3710.72883	0.02252
3709.44307	0.02215
3708.15730	0.02210
3706.87153	0.02227
3705.58576	0.02256
3704.29999	0.02303
3703.01422	0.02349
3701.72845	0.02373
3700.44268	0.02351
3699.15691	0.02290
3697.87115	0.02237
3696.58538	0.02228
3695.29961	0.02254
3694.01384	0.02247
3692.72807	0.02232
3691.44230	0.02227
3690.15653	0.02234
3688.87076	0.02249
3687.58500	0.02226
3686.29923	0.02169
3685.01346	0.02177
3683.72769	0.02260
3682.44192	0.02358
3681.15615	0.02426
3679.87038	0.02428
3678.58461	0.02374
3677.29884	0.02325
3676.01308	0.02283
3674.72731	0.02219
3673.44154	0.02164
3672.15577	0.02169
3670.87000	0.02215
3669.58423	0.02244
3668.29846	0.02266
3667.01269	0.02324
3665.72693	0.02397
3664.44116	0.02425
3663.15539	0.02368
3661.86962	0.02258
3660.58385	0.02152
3659.29808	0.02094
3658.01231	0.02101
3656.72654	0.02150
3655.44077	0.02207
3654.15501	0.02268
3652.86924	0.02337
3651.58347	0.02391
3650.29770	0.02390
3649.01193	0.02334
3647.72616	0.02269
3646.44039	0.02232
3645.15462	0.02226
3643.86886	0.02244
3642.58309	0.02264
3641.29732	0.02273
3640.01155	0.02278
3638.72578	0.02291
3637.44001	0.02322
3636.15424	0.02369
3634.86847	0.02401
3633.58270	0.02409
3632.29694	0.02395
3631.01117	0.02384
3629.72540	0.02399
3628.43963	0.02376
3627.15386	0.02289
3625.86809	0.02188
3624.58232	0.02161
3623.29655	0.02176
3622.01079	0.02213
3620.72502	0.02243
3619.43925	0.02298
3618.15348	0.02362
3616.86771	0.02419
3615.58194	0.02488
3614.29617	0.02568
3613.01040	0.02610
3611.72463	0.02578
3610.43887	0.02526
3609.15310	0.02493
3607.86733	0.02462
3606.58156	0.02402
3605.29579	0.02355
3604.01002	0.02368
3602.72425	0.02423
3601.43848	0.02508
3600.15272	0.02591
3598.86695	0.02625
3597.58118	0.02562
3596.29541	0.02463
3595.00964	0.02345
3593.72387	0.02250
3592.43810	0.02279
3591.15233	0.02386
3589.86656	0.02496
3588.58080	0.02600
3587.29503	0.02634
3586.00926	0.02606
3584.72349	0.02561
3583.43772	0.02528
3582.15195	0.02515
3580.86618	0.02523
3579.58041	0.02529
3578.29464	0.02529
3577.00888	0.02538
3575.72311	0.02569
3574.43734	0.02608
3573.15157	0.02625
3571.86580	0.02601
3570.58003	0.02557
3569.29426	0.02528
3568.00849	0.02526
3566.72273	0.02539
3565.43696	0.02554
3564.15119	0.02556
3562.86542	0.02562
3561.57965	0.02585
3560.29388	0.02623
3559.00811	0.02664
3557.72234	0.02695
3556.43657	0.02717
3555.15081	0.02737
3553.86504	0.02762
3552.57927	0.02789
3551.29350	0.02810
3550.00773	0.02824
3548.72196	0.02836
3547.43619	0.02855
3546.15042	0.02882
3544.86466	0.02908
3543.57889	0.02917
3542.29312	0.02898
3541.00735	0.02851
3539.72158	0.02793
3538.43581	0.02751
3537.15004	0.02737
3535.86427	0.02746
3534.57850	0.02759
3533.29274	0.02770
3532.00697	0.02795
3530.72120	0.02850
3529.43543	0.02914
3528.14966	0.02942
3526.86389	0.02914
3525.57812	0.02859
3524.29235	0.02830
3523.00659	0.02845
3521.72082	0.02883
3520.43505	0.02904
3519.14928	0.02890
3517.86351	0.02847
3516.57774	0.02804
3515.29197	0.02784
3514.00620	0.02790
3512.72043	0.02805
3511.43467	0.02811
3510.14890	0.02794
3508.86313	0.02757
3507.57736	0.02719
3506.29159	0.02711
3505.00582	0.02745
3503.72005	0.02811
3502.43428	0.02892
3501.14852	0.02973
3499.86275	0.03046
3498.57698	0.03094
3497.29121	0.03103
3496.00544	0.03073
3494.71967	0.03028
3493.43390	0.02992
3492.14813	0.02981
3490.86236	0.02991
3489.57660	0.03009
3488.29083	0.03022
3487.00506	0.03015
3485.71929	0.02978
3484.43352	0.02917
3483.14775	0.02865
3481.86198	0.02857
3480.57621	0.02895
3479.29045	0.02950
3478.00468	0.02989
3476.71891	0.03005
3475.43314	0.03010
3474.14737	0.03015
3472.86160	0.03025
3471.57583	0.03042
3470.29006	0.03064
3469.00429	0.03079
3467.71853	0.03064
3466.43276	0.03014
3465.14699	0.02950
3463.86122	0.02911
3462.57545	0.02917
3461.28968	0.02959
3460.00391	0.03004
3458.71814	0.03026
3457.43238	0.03020
3456.14661	0.03002
3454.86084	0.02991
3453.57507	0.02995
3452.28930	0.03007
3451.00353	0.03011
3449.71776	0.03001
3448.43199	0.02978
3447.14622	0.02950
3445.86046	0.02932
3444.57469	0.02936
3443.28892	0.02965
3442.00315	0.03012
3440.71738	0.03066
3439.43161	0.03116
3438.14584	0.03144
3436.86007	0.03139
3435.57431	0.03106
3434.28854	0.03064
3433.00277	0.03027
3431.71700	0.03001
3430.43123	0.02990
3429.14546	0.02993
3427.85969	0.03013
3426.57392	0.03055
3425.28815	0.03119
3424.00239	0.03196
3422.71662	0.03261
3421.43085	0.03287
3420.14508	0.03271
3418.85931	0.03233
3417.57354	0.03189
3416.28777	0.03137
3415.00200	0.03080
3413.71624	0.03037
3412.43047	0.03031
3411.14470	0.03058
3409.85893	0.03090
3408.57316	0.03111
3407.28739	0.03133
3406.00162	0.03169
3404.71585	0.03213
3403.43008	0.03249
3402.14432	0.03271
3400.85855	0.03286
3399.57278	0.03291
3398.28701	0.03270
3397.00124	0.03210
3395.71547	0.03128
3394.42970	0.03050
3393.14393	0.02998
3391.85817	0.02988
3390.57240	0.03027
3389.28663	0.03114
3388.00086	0.03220
3386.71509	0.03301
3385.42932	0.03337
3384.14355	0.03340
3382.85778	0.03335
3381.57201	0.03328
3380.28625	0.03310
3379.00048	0.03277
3377.71471	0.03237
3376.42894	0.03199
3375.14317	0.03163
3373.85740	0.03130
3372.57163	0.03113
3371.28586	0.03126
3370.00010	0.03156
3368.71433	0.03168
3367.42856	0.03137
3366.14279	0.03076
3364.85702	0.03024
3363.57125	0.03009
3362.28548	0.03028
3360.99971	0.03066
3359.71394	0.03113
3358.42818	0.03159
3357.14241	0.03197
3355.85664	0.03216
3354.57087	0.03216
3353.28510	0.03204
3351.99933	0.03190
3350.71356	0.03184
3349.42779	0.03199
3348.14202	0.03230
3346.85626	0.03255
3345.57049	0.03256
3344.28472	0.03239
3342.99895	0.03229
3341.71318	0.03236
3340.42741	0.03244
3339.14164	0.03229
3337.85587	0.03190
3336.57011	0.03151
3335.28434	0.03137
3333.99857	0.03151
3332.71280	0.03177
3331.42703	0.03195
3330.14126	0.03193
3328.85549	0.03170
3327.56972	0.03134
3326.28395	0.03097
3324.99819	0.03073
3323.71242	0.03075
3322.42665	0.03108
3321.14088	0.03170
3319.85511	0.03243
3318.56934	0.03295
3317.28357	0.03303
3315.99780	0.03267
3314.71204	0.03207
3313.42627	0.03145
3312.14050	0.03096
3310.85473	0.03068
3309.56896	0.03063
3308.28319	0.03075
3306.99742	0.03092
3305.71165	0.03100
3304.42588	0.03097
3303.14012	0.03099
3301.85435	0.03123
3300.56858	0.03170
3299.28281	0.03227
3297.99704	0.03277
3296.71127	0.03305
3295.42550	0.03301
3294.13973	0.03265
3292.85397	0.03213
3291.56820	0.03176
3290.28243	0.03177
3288.99666	0.03216
3287.71089	0.03266
3286.42512	0.03287
3285.13935	0.03259
3283.85358	0.03197
3282.56781	0.03135
3281.28205	0.03094
3279.99628	0.03080
3278.71051	0.03090
3277.42474	0.03122
3276.13897	0.03166
3274.85320	0.03206
3273.56743	0.03231
3272.28166	0.03243
3270.99590	0.03249
3269.71013	0.03251
3268.42436	0.03248
3267.13859	0.03242
3265.85282	0.03248
3264.56705	0.03272
3263.28128	0.03299
3261.99551	0.03300
3260.70974	0.03262
3259.42398	0.03208
3258.13821	0.03167
3256.85244	0.03146
3255.56667	0.03130
3254.28090	0.03111
3252.99513	0.03102
3251.70936	0.03124
3250.42359	0.03178
3249.13783	0.03246
3247.85206	0.03305
3246.56629	0.03348
3245.28052	0.03380
3243.99475	0.03401
3242.70898	0.03403
3241.42321	0.03373
3240.13744	0.03310
3238.85167	0.03227
3237.56591	0.03154
3236.28014	0.03117
3234.99437	0.03121
3233.70860	0.03157
3232.42283	0.03204
3231.13706	0.03237
3229.85129	0.03243
3228.56552	0.03230
3227.27976	0.03223
3225.99399	0.03231
3224.70822	0.03237
3223.42245	0.03215
3222.13668	0.03164
3220.85091	0.03114
3219.56514	0.03091
3218.27937	0.03088
3216.99360	0.03076
3215.70784	0.03042
3214.42207	0.03008
3213.13630	0.03011
3211.85053	0.03058
3210.56476	0.03108
3209.27899	0.03113
3207.99322	0.03063
3206.70745	0.02996
3205.42169	0.02964
3204.13592	0.02986
3202.85015	0.03041
3201.56438	0.03092
3200.27861	0.03115
3198.99284	0.03105
3197.70707	0.03078
3196.42130	0.03061
3195.13553	0.03076
3193.84977	0.03119
3192.56400	0.03164
3191.27823	0.03186
3189.99246	0.03174
3188.70669	0.03138
3187.42092	0.03099
3186.13515	0.03079
3184.84938	0.03085
3183.56362	0.03105
3182.27785	0.03117
3180.99208	0.03108
3179.70631	0.03083
3178.42054	0.03060
3177.13477	0.03055
3175.84900	0.03071
3174.56323	0.03088
3173.27746	0.03091
3171.99170	0.03081
3170.70593	0.03071
3169.42016	0.03066
3168.13439	0.03060
3166.84862	0.03050
3165.56285	0.03038
3164.27708	0.03024
3162.99131	0.03010
3161.70555	0.03000
3160.41978	0.03009
3159.13401	0.03041
3157.84824	0.03091
3156.56247	0.03140
3155.27670	0.03168
3153.99093	0.03161
3152.70516	0.03121
3151.41939	0.03066
3150.13363	0.03022
3148.84786	0.03004
3147.56209	0.03010
3146.27632	0.03028
3144.99055	0.03043
3143.70478	0.03048
3142.41901	0.03038
3141.13324	0.03018
3139.84748	0.02996
3138.56171	0.02986
3137.27594	0.02995
3135.99017	0.03027
3134.70440	0.03070
3133.41863	0.03107
3132.13286	0.03121
3130.84709	0.03107
3129.56132	0.03080
3128.27556	0.03055
3126.98979	0.03045
3125.70402	0.03050
3124.41825	0.03058
3123.13248	0.03050
3121.84671	0.03020
3120.56094	0.02977
3119.27517	0.02943
3117.98940	0.02935
3116.70364	0.02953
3115.41787	0.02986
3114.13210	0.03016
3112.84633	0.03035
3111.56056	0.03043
3110.27479	0.03041
3108.98902	0.03030
3107.70325	0.03019
3106.41749	0.03016
3105.13172	0.03025
3103.84595	0.03035
3102.56018	0.03031
3101.27441	0.03006
3099.98864	0.02971
3098.70287	0.02944
3097.41710	0.02936
3096.13133	0.02945
3094.84557	0.02957
3093.55980	0.02959
3092.27403	0.02946
3090.98826	0.02926
3089.70249	0.02904
3088.41672	0.02890
3087.13095	0.02894
3085.84518	0.02915
3084.55942	0.02940
3083.27365	0.02953
3081.98788	0.02951
3080.70211	0.02940
3079.41634	0.02926
3078.13057	0.02910
3076.84480	0.02893
3075.55903	0.02875
3074.27326	0.02863
3072.98750	0.02855
3071.70173	0.02847
3070.41596	0.02835
3069.13019	0.02822
3067.84442	0.02814
3066.55865	0.02817
3065.27288	0.02832
3063.98711	0.02856
3062.70135	0.02879
3061.41558	0.02895
3060.12981	0.02903
3058.84404	0.02913
3057.55827	0.02923
3056.27250	0.02918
3054.98673	0.02892
3053.70096	0.02854
3052.41519	0.02826
3051.12943	0.02820
3049.84366	0.02829
3048.55789	0.02838
3047.27212	0.02833
3045.98635	0.02811
3044.70058	0.02785
3043.41481	0.02767
3042.12904	0.02756
3040.84328	0.02749
3039.55751	0.02751
3038.27174	0.02766
3036.98597	0.02792
3035.70020	0.02815
3034.41443	0.02830
3033.12866	0.02839
3031.84289	0.02840
3030.55712	0.02821
3029.27136	0.02775
3027.98559	0.02727
3026.69982	0.02707
3025.41405	0.02723
3024.12828	0.02749
3022.84251	0.02754
3021.55674	0.02736
3020.27097	0.02717
3018.98521	0.02714
3017.69944	0.02728
3016.41367	0.02748
3015.12790	0.02765
3013.84213	0.02773
3012.55636	0.02766
3011.27059	0.02740
3009.98482	0.02702
3008.69905	0.02663
3007.41329	0.02643
3006.12752	0.02650
3004.84175	0.02679
3003.55598	0.02713
3002.27021	0.02737
3000.98444	0.02752
2999.69867	0.02756
2998.41290	0.02743
2997.12714	0.02705
2995.84137	0.02666
2994.55560	0.02662
2993.26983	0.02699
2991.98406	0.02749
2990.69829	0.02774
2989.41252	0.02767
2988.12675	0.02745
2986.84098	0.02725
2985.55522	0.02703
2984.26945	0.02672
2982.98368	0.02643
2981.69791	0.02636
2980.41214	0.02661
2979.12637	0.02700
2977.84060	0.02732
2976.55483	0.02756
2975.26907	0.02789
2973.98330	0.02845
2972.69753	0.02912
2971.41176	0.02964
2970.12599	0.02991
2968.84022	0.03010
2967.55445	0.03046
2966.26868	0.03102
2964.98291	0.03163
2963.69715	0.03207
2962.41138	0.03234
2961.12561	0.03263
2959.83984	0.03314
2958.55407	0.03392
2957.26830	0.03485
2955.98253	0.03574
2954.69676	0.03648
2953.41100	0.03698
2952.12523	0.03720
2950.83946	0.03710
2949.55369	0.03675
2948.26792	0.03633
2946.98215	0.03602
2945.69638	0.03586
2944.41061	0.03582
2943.12484	0.03587
2941.83908	0.03599
2940.55331	0.03617
2939.26754	0.03645
2937.98177	0.03689
2936.69600	0.03751
2935.41023	0.03816
2934.12446	0.03868
2932.83869	0.03905
2931.55293	0.03937
2930.26716	0.03973
2928.98139	0.04012
2927.69562	0.04047
2926.40985	0.04081
2925.12408	0.04123
2923.83831	0.04179
2922.55254	0.04233
2921.26677	0.04259
2919.98101	0.04246
2918.69524	0.04206
2917.40947	0.04163
2916.12370	0.04130
2914.83793	0.04105
2913.55216	0.04073
2912.26639	0.04025
2910.98062	0.03966
2909.69486	0.03912
2908.40909	0.03872
2907.12332	0.03843
2905.83755	0.03819
2904.55178	0.03799
2903.26601	0.03782
2901.98024	0.03764
2900.69447	0.03741
2899.40870	0.03710
2898.12294	0.03672
2896.83717	0.03631
2895.55140	0.03589
2894.26563	0.03553
2892.97986	0.03532
2891.69409	0.03526
2890.40832	0.03522
2889.12255	0.03501
2887.83678	0.03463
2886.55102	0.03419
2885.26525	0.03379
2883.97948	0.03342
2882.69371	0.03310
2881.40794	0.03290
2880.12217	0.03282
2878.83640	0.03282
2877.55063	0.03289
2876.26487	0.03309
2874.97910	0.03341
2873.69333	0.03375
2872.40756	0.03399
2871.12179	0.03414
2869.83602	0.03430
2868.55025	0.03454
2867.26448	0.03483
2865.97871	0.03507
2864.69295	0.03521
2863.40718	0.03532
2862.12141	0.03541
2860.83564	0.03544
2859.54987	0.03533
2858.26410	0.03510
2856.97833	0.03488
2855.69256	0.03482
2854.40680	0.03500
2853.12103	0.03538
2851.83526	0.03576
2850.54949	0.03594
2849.26372	0.03577
2847.97795	0.03530
2846.69218	0.03464
2845.40641	0.03391
2844.12064	0.03319
2842.83488	0.03253
2841.54911	0.03198
2840.26334	0.03157
2838.97757	0.03127
2837.69180	0.03095
2836.40603	0.03051
2835.12026	0.02993
2833.83449	0.02933
2832.54873	0.02889
2831.26296	0.02869
2829.97719	0.02868
2828.69142	0.02874
2827.40565	0.02873
2826.11988	0.02856
2824.83411	0.02818
2823.54834	0.02765
2822.26257	0.02717
2820.97681	0.02688
2819.69104	0.02671
2818.40527	0.02653
2817.11950	0.02632
2815.83373	0.02613
2814.54796	0.02598
2813.26219	0.02591
2811.97642	0.02602
2810.69066	0.02632
2809.40489	0.02667
2808.11912	0.02690
2806.83335	0.02695
2805.54758	0.02681
2804.26181	0.02651
2802.97604	0.02615
2801.69027	0.02596
2800.40450	0.02607
2799.11874	0.02633
2797.83297	0.02650
2796.54720	0.02646
2795.26143	0.02628
2793.97566	0.02610
2792.68989	0.02594
2791.40412	0.02575
2790.11835	0.02548
2788.83259	0.02518
2787.54682	0.02497
2786.26105	0.02489
2784.97528	0.02487
2783.68951	0.02480
2782.40374	0.02467
2781.11797	0.02458
2779.83220	0.02462
2778.54643	0.02476
2777.26067	0.02491
2775.97490	0.02495
2774.68913	0.02492
2773.40336	0.02488
2772.11759	0.02490
2770.83182	0.02494
2769.54605	0.02490
2768.26028	0.02473
2766.97452	0.02453
2765.68875	0.02444
2764.40298	0.02452
2763.11721	0.02464
2761.83144	0.02461
2760.54567	0.02436
2759.25990	0.02399
2757.97413	0.02373
2756.68836	0.02364
2755.40260	0.02365
2754.11683	0.02359
2752.83106	0.02346
2751.54529	0.02331
2750.25952	0.02321
2748.97375	0.02314
2747.68798	0.02313
2746.40221	0.02327
2745.11645	0.02357
2743.83068	0.02394
2742.54491	0.02424
2741.25914	0.02441
2739.97337	0.02448
2738.68760	0.02449
2737.40183	0.02445
2736.11606	0.02438
2734.83029	0.02428
2733.54453	0.02411
2732.25876	0.02383
2730.97299	0.02345
2729.68722	0.02311
2728.40145	0.02293
2727.11568	0.02295
2725.82991	0.02312
2724.54414	0.02335
2723.25838	0.02360
2721.97261	0.02382
2720.68684	0.02393
2719.40107	0.02389
2718.11530	0.02371
2716.82953	0.02351
2715.54376	0.02338
2714.25799	0.02339
2712.97222	0.02351
2711.68646	0.02361
2710.40069	0.02359
2709.11492	0.02351
2707.82915	0.02345
2706.54338	0.02342
2705.25761	0.02333
2703.97184	0.02318
2702.68607	0.02308
2701.40031	0.02307
2700.11454	0.02309
2698.82877	0.02309
2697.54300	0.02312
2696.25723	0.02320
2694.97146	0.02327
2693.68569	0.02319
2692.39992	0.02292
2691.11415	0.02256
2689.82839	0.02230
2688.54262	0.02224
2687.25685	0.02232
2685.97108	0.02238
2684.68531	0.02235
2683.39954	0.02229
2682.11377	0.02231
2680.82800	0.02243
2679.54224	0.02259
2678.25647	0.02268
2676.97070	0.02265
2675.68493	0.02250
2674.39916	0.02229
2673.11339	0.02211
2671.82762	0.02203
2670.54185	0.02207
2669.25608	0.02220
2667.97032	0.02229
2666.68455	0.02225
2665.39878	0.02210
2664.11301	0.02198
2662.82724	0.02202
2661.54147	0.02220
2660.25570	0.02240
2658.96993	0.02249
2657.68417	0.02247
2656.39840	0.02236
2655.11263	0.02224
2653.82686	0.02215
2652.54109	0.02218
2651.25532	0.02237
2649.96955	0.02261
2648.68378	0.02274
2647.39801	0.02260
2646.11225	0.02222
2644.82648	0.02180
2643.54071	0.02153
2642.25494	0.02150
2640.96917	0.02162
2639.68340	0.02173
2638.39763	0.02168
2637.11186	0.02147
2635.82609	0.02119
2634.54033	0.02096
2633.25456	0.02085
2631.96879	0.02081
2630.68302	0.02079
2629.39725	0.02081
2628.11148	0.02086
2626.82571	0.02091
2625.53994	0.02084
2624.25418	0.02055
2622.96841	0.02010
2621.68264	0.01975
2620.39687	0.01975
2619.11110	0.02001
2617.82533	0.02020
2616.53956	0.02011
2615.25379	0.01993
2613.96802	0.01993
2612.68226	0.02010
2611.39649	0.02020
2610.11072	0.02001
2608.82495	0.01965
2607.53918	0.01940
2606.25341	0.01944
2604.96764	0.01970
2603.68187	0.02001
2602.39611	0.02024
2601.11034	0.02026
2599.82457	0.02000
2598.53880	0.01951
2597.25303	0.01900
2595.96726	0.01866
2594.68149	0.01849
2593.39572	0.01842
2592.10995	0.01841
2590.82419	0.01845
2589.53842	0.01854
2588.25265	0.01865
2586.96688	0.01879
2585.68111	0.01895
2584.39534	0.01906
2583.10957	0.01917
2581.82380	0.01938
2580.53804	0.01960
2579.25227	0.01950
2577.96650	0.01894
2576.68073	0.01824
2575.39496	0.01789
2574.10919	0.01802
2572.82342	0.01827
2571.53765	0.01829
2570.25188	0.01810
2568.96612	0.01803
2567.68035	0.01831
2566.39458	0.01885
2565.10881	0.01931
2563.82304	0.01938
2562.53727	0.01907
2561.25150	0.01865
2559.96573	0.01837
2558.67997	0.01832
2557.39420	0.01839
2556.10843	0.01844
2554.82266	0.01851
2553.53689	0.01871
2552.25112	0.01896
2550.96535	0.01902
2549.67958	0.01875
2548.39381	0.01834
2547.10805	0.01808
2545.82228	0.01804
2544.53651	0.01808
2543.25074	0.01812
2541.96497	0.01825
2540.67920	0.01846
2539.39343	0.01854
2538.10766	0.01831
2536.82190	0.01782
2535.53613	0.01734
2534.25036	0.01708
2532.96459	0.01703
2531.67882	0.01702
2530.39305	0.01695
2529.10728	0.01687
2527.82151	0.01690
2526.53574	0.01707
2525.24998	0.01726
2523.96421	0.01734
2522.67844	0.01727
2521.39267	0.01714
2520.10690	0.01709
2518.82113	0.01724
2517.53536	0.01760
2516.24959	0.01800
2514.96383	0.01821
2513.67806	0.01806
2512.39229	0.01758
2511.10652	0.01703
2509.82075	0.01673
2508.53498	0.01675
2507.24921	0.01691
2505.96344	0.01695
2504.67767	0.01686
2503.39191	0.01684
2502.10614	0.01704
2500.82037	0.01742
2499.53460	0.01776
2498.24883	0.01790
2496.96306	0.01782
2495.67729	0.01768
2494.39152	0.01759
2493.10576	0.01754
2491.81999	0.01742
2490.53422	0.01719
2489.24845	0.01693
2487.96268	0.01680
2486.67691	0.01693
2485.39114	0.01722
2484.10537	0.01739
2482.81960	0.01725
2481.53384	0.01694
2480.24807	0.01672
2478.96230	0.01667
2477.67653	0.01664
2476.39076	0.01656
2475.10499	0.01656
2473.81922	0.01671
2472.53345	0.01685
2471.24769	0.01671
2469.96192	0.01627
2468.67615	0.01582
2467.39038	0.01570
2466.10461	0.01595
2464.81884	0.01635
2463.53307	0.01666
2462.24730	0.01686
2460.96153	0.01704
2459.67577	0.01730
2458.39000	0.01768
2457.10423	0.01808
2455.81846	0.01829
2454.53269	0.01816
2453.24692	0.01778
2451.96115	0.01738
2450.67538	0.01708
2449.38962	0.01688
2448.10385	0.01675
2446.81808	0.01667
2445.53231	0.01664
2444.24654	0.01658
2442.96077	0.01639
2441.67500	0.01608
2440.38923	0.01579
2439.10346	0.01568
2437.81770	0.01572
2436.53193	0.01579
2435.24616	0.01588
2433.96039	0.01604
2432.67462	0.01627
2431.38885	0.01645
2430.10308	0.01654
2428.81731	0.01660
2427.53155	0.01665
2426.24578	0.01664
2424.96001	0.01653
2423.67424	0.01636
2422.38847	0.01623
2421.10270	0.01626
2419.81693	0.01644
2418.53116	0.01666
2417.24539	0.01675
2415.95963	0.01674
2414.67386	0.01674
2413.38809	0.01675
2412.10232	0.01670
2410.81655	0.01660
2409.53078	0.01655
2408.24501	0.01662
2406.95924	0.01672
2405.67347	0.01675
2404.38771	0.01667
2403.10194	0.01643
2401.81617	0.01602
2400.53040	0.01554
2399.24463	0.01546
2397.95886	0.01560
2396.67309	0.01582
2395.38732	0.01607
2394.10156	0.01629
2392.81579	0.01642
2391.53002	0.01641
2390.24425	0.01629
2388.95848	0.01611
2387.67271	0.01605
2386.38694	0.01619
2385.10117	0.01643
2383.81540	0.01662
2382.52964	0.01662
2381.24387	0.01657
2379.95810	0.01625
2378.67233	0.01594
2377.38656	0.01614
2376.10079	0.01575
2374.81502	0.01494
2373.52925	0.01500
2372.24349	0.01571
2370.95772	0.01728
2369.67195	0.01702
2368.38618	0.01563
2367.10041	0.01657
2365.81464	0.01875
2364.52887	0.01774
2363.24310	0.01537
2361.95733	0.01562
2360.67157	0.01742
2359.38580	0.01627
2358.10003	0.01389
2356.81426	0.01217
2355.52849	0.01037
2354.24272	0.00948
2352.95695	0.00970
2351.67118	0.01377
2350.38542	0.02369
2349.09965	0.02956
2347.81388	0.02203
2346.52811	0.01034
2345.24234	0.00720
2343.95657	0.01171
2342.67080	0.01507
2341.38503	0.01601
2340.09926	0.01709
2338.81350	0.01796
2337.52773	0.01875
2336.24196	0.01746
2334.95619	0.01597
2333.67042	0.01625
2332.38465	0.01558
2331.09888	0.01506
2329.81311	0.01602
2328.52735	0.01575
2327.24158	0.01595
2325.95581	0.01699
2324.67004	0.01653
2323.38427	0.01594
2322.09850	0.01594
2320.81273	0.01479
2319.52696	0.01473
2318.24119	0.01635
2316.95543	0.01725
2315.66966	0.01693
2314.38389	0.01596
2313.09812	0.01543
2311.81235	0.01542
2310.52658	0.01529
2309.24081	0.01544
2307.95504	0.01571
2306.66928	0.01562
2305.38351	0.01585
2304.09774	0.01602
2302.81197	0.01571
2301.52620	0.01529
2300.24043	0.01525
2298.95466	0.01569
2297.66889	0.01615
2296.38312	0.01634
2295.09736	0.01614
2293.81159	0.01580
2292.52582	0.01562
2291.24005	0.01562
2289.95428	0.01575
2288.66851	0.01581
2287.38274	0.01562
2286.09697	0.01518
2284.81121	0.01483
2283.52544	0.01476
2282.23967	0.01496
2280.95390	0.01531
2279.66813	0.01554
2278.38236	0.01558
2277.09659	0.01540
2275.81082	0.01525
2274.52505	0.01520
2273.23929	0.01504
2271.95352	0.01465
2270.66775	0.01417
2269.38198	0.01387
2268.09621	0.01385
2266.81044	0.01405
2265.52467	0.01418
2264.23890	0.01404
2262.95314	0.01371
2261.66737	0.01330
2260.38160	0.01306
2259.09583	0.01330
2257.81006	0.01377
2256.52429	0.01403
2255.23852	0.01366
2253.95275	0.01272
2252.66698	0.01162
2251.38122	0.01082
2250.09545	0.01060
2248.80968	0.01082
2247.52391	0.01104
2246.23814	0.01136
2244.95237	0.01191
2243.66660	0.01263
2242.38083	0.01330
2241.09507	0.01380
2239.80930	0.01411
2238.52353	0.01422
2237.23776	0.01398
2235.95199	0.01326
2234.66622	0.01219
2233.38045	0.01113
2232.09468	0.01046
2230.80891	0.01034
2229.52315	0.01058
2228.23738	0.01087
2226.95161	0.01106
2225.66584	0.01116
2224.38007	0.01109
2223.09430	0.01067
2221.80853	0.00981
2220.52276	0.00891
2219.23700	0.00861
2217.95123	0.00912
2216.66546	0.00998
2215.37969	0.01052
2214.09392	0.01066
2212.80815	0.01089
2211.52238	0.01142
2210.23661	0.01186
2208.95084	0.01180
2207.66508	0.01153
2206.37931	0.01163
2205.09354	0.01214
2203.80777	0.01256
2202.52200	0.01256
2201.23623	0.01220
2199.95046	0.01149
2198.66469	0.01024
2197.37893	0.00857
2196.09316	0.00716
2194.80739	0.00660
2193.52162	0.00681
2192.23585	0.00716
2190.95008	0.00730
2189.66431	0.00744
2188.37854	0.00793
2187.09277	0.00879
2185.80701	0.00968
2184.52124	0.01038
2183.23547	0.01091
2181.94970	0.01124
2180.66393	0.01114
2179.37816	0.01050
2178.09239	0.00956
2176.80662	0.00861
2175.52085	0.00773
2174.23509	0.00693
2172.94932	0.00641
2171.66355	0.00628
2170.37778	0.00641
2169.09201	0.00659
2167.80624	0.00681
2166.52047	0.00704
2165.23470	0.00710
2163.94894	0.00680
2162.66317	0.00615
2161.37740	0.00528
2160.09163	0.00427
2158.80586	0.00327
2157.52009	0.00265
2156.23432	0.00267
2154.94855	0.00312
2153.66278	0.00364
2152.37702	0.00408
2151.09125	0.00462
2149.80548	0.00539
2148.51971	0.00625
2147.23394	0.00694
2145.94817	0.00736
2144.66240	0.00762
2143.37663	0.00786
2142.09087	0.00808
2140.80510	0.00819
2139.51933	0.00808
2138.23356	0.00761
2136.94779	0.00683
2135.66202	0.00609
2134.37625	0.00580
2133.09048	0.00607
2131.80471	0.00667
2130.51895	0.00730
2129.23318	0.00791
2127.94741	0.00852
2126.66164	0.00905
2125.37587	0.00926
2124.09010	0.00907
2122.80433	0.00863
2121.51856	0.00828
2120.23280	0.00827
2118.94703	0.00854
2117.66126	0.00886
2116.37549	0.00913
2115.08972	0.00946
2113.80395	0.00997
2112.51818	0.01051
2111.23241	0.01081
2109.94664	0.01077
2108.66088	0.01050
2107.37511	0.01018
2106.08934	0.00997
2104.80357	0.00993
2103.51780	0.00991
2102.23203	0.00962
2100.94626	0.00900
2099.66049	0.00834
2098.37473	0.00797
2097.08896	0.00791
2095.80319	0.00794
2094.51742	0.00795
2093.23165	0.00807
2091.94588	0.00841
2090.66011	0.00881
2089.37434	0.00900
2088.08857	0.00890
2086.80281	0.00870
2085.51704	0.00860
2084.23127	0.00858
2082.94550	0.00852
2081.65973	0.00833
2080.37396	0.00803
2079.08819	0.00768
2077.80242	0.00736
2076.51666	0.00712
2075.23089	0.00694
2073.94512	0.00675
2072.65935	0.00645
2071.37358	0.00612
2070.08781	0.00596
2068.80204	0.00611
2067.51627	0.00654
2066.23050	0.00705
2064.94474	0.00748
2063.65897	0.00773
2062.37320	0.00771
2061.08743	0.00736
2059.80166	0.00667
2058.51589	0.00579
2057.23012	0.00489
2055.94435	0.00419
2054.65859	0.00390
2053.37282	0.00411
2052.08705	0.00470
2050.80128	0.00529
2049.51551	0.00543
2048.22974	0.00504
2046.94397	0.00446
2045.65820	0.00414
2044.37243	0.00418
2043.08667	0.00435
2041.80090	0.00452
2040.51513	0.00479
2039.22936	0.00516
2037.94359	0.00530
2036.65782	0.00478
2035.37205	0.00363
2034.08628	0.00229
2032.80052	0.00128
2031.51475	0.00083
2030.22898	0.00102
2028.94321	0.00183
2027.65744	0.00304
2026.37167	0.00419
2025.08590	0.00486
2023.80013	0.00493
2022.51436	0.00464
2021.22860	0.00440
2019.94283	0.00451
2018.65706	0.00494
2017.37129	0.00546
2016.08552	0.00588
2014.79975	0.00613
2013.51398	0.00618
2012.22821	0.00602
2010.94245	0.00569
2009.65668	0.00533
2008.37091	0.00494
2007.08514	0.00441
2005.79937	0.00370
2004.51360	0.00296
2003.22783	0.00248
2001.94206	0.00252
2000.65629	0.00315
1999.37053	0.00417
1998.08476	0.00517
1996.79899	0.00581
1995.51322	0.00606
1994.22745	0.00620
1992.94168	0.00658
1991.65591	0.00723
1990.37014	0.00782
1989.08438	0.00792
1987.79861	0.00740
1986.51284	0.00661
1985.22707	0.00608
1983.94130	0.00609
1982.65553	0.00659
1981.36976	0.00722
1980.08399	0.00753
1978.79822	0.00714
1977.51246	0.00608
1976.22669	0.00500
1974.94092	0.00469
1973.65515	0.00536
1972.36938	0.00641
1971.08361	0.00698
1969.79784	0.00675
1968.51207	0.00611
1967.22631	0.00569
1965.94054	0.00584
1964.65477	0.00643
1963.36900	0.00711
1962.08323	0.00758
1960.79746	0.00772
1959.51169	0.00756
1958.22592	0.00718
1956.94015	0.00677
1955.65439	0.00653
1954.36862	0.00655
1953.08285	0.00673
1951.79708	0.00681
1950.51131	0.00661
1949.22554	0.00625
1947.93977	0.00609
1946.65400	0.00643
1945.36823	0.00719
1944.08247	0.00810
1942.79670	0.00890
1941.51093	0.00941
1940.22516	0.00957
1938.93939	0.00944
1937.65362	0.00907
1936.36785	0.00856
1935.08208	0.00807
1933.79632	0.00785
1932.51055	0.00805
1931.22478	0.00860
1929.93901	0.00930
1928.65324	0.00994
1927.36747	0.01034
1926.08170	0.01038
1924.79593	0.01003
1923.51016	0.00939
1922.22440	0.00871
1920.93863	0.00833
1919.65286	0.00844
1918.36709	0.00892
1917.08132	0.00938
1915.79555	0.00956
1914.50978	0.00948
1913.22401	0.00935
1911.93825	0.00930
1910.65248	0.00935
1909.36671	0.00942
1908.08094	0.00941
1906.79517	0.00928
1905.50940	0.00900
1904.22363	0.00863
1902.93786	0.00835
1901.65209	0.00832
1900.36633	0.00861
1899.08056	0.00914
1897.79479	0.00971
1896.50902	0.01013
1895.22325	0.01024
1893.93748	0.01014
1892.65171	0.01004
1891.36594	0.01010
1890.08018	0.01024
1888.79441	0.01027
1887.50864	0.01021
1886.22287	0.01024
1884.93710	0.01040
1883.65133	0.01053
1882.36556	0.01047
1881.07979	0.01022
1879.79402	0.00994
1878.50826	0.00976
1877.22249	0.00974
1875.93672	0.00983
1874.65095	0.00993
1873.36518	0.00990
1872.07941	0.00977
1870.79364	0.00963
1869.50787	0.00953
1868.22211	0.00944
1866.93634	0.00937
1865.65057	0.00938
1864.36480	0.00953
1863.07903	0.00980
1861.79326	0.01005
1860.50749	0.01016
1859.22172	0.01008
1857.93595	0.00989
1856.65019	0.00974
1855.36442	0.00974
1854.07865	0.00990
1852.79288	0.01009
1851.50711	0.01018
1850.22134	0.01013
1848.93557	0.01001
1847.64980	0.00997
1846.36404	0.01011
1845.07827	0.01033
1843.79250	0.01039
1842.50673	0.01023
1841.22096	0.00998
1839.93519	0.00980
1838.64942	0.00973
1837.36365	0.00983
1836.07788	0.01011
1834.79212	0.01045
1833.50635	0.01072
1832.22058	0.01086
1830.93481	0.01089
1829.64904	0.01079
1828.36327	0.01060
1827.07750	0.01046
1825.79173	0.01043
1824.50597	0.01049
1823.22020	0.01058
1821.93443	0.01067
1820.64866	0.01067
1819.36289	0.01056
1818.07712	0.01044
1816.79135	0.01042
1815.50558	0.01055
1814.21981	0.01079
1812.93405	0.01104
1811.64828	0.01122
1810.36251	0.01124
1809.07674	0.01109
1807.79097	0.01084
1806.50520	0.01061
1805.21943	0.01049
1803.93366	0.01054
1802.64790	0.01075
1801.36213	0.01097
1800.07636	0.01106
1798.79059	0.01091
1797.50482	0.01063
1796.21905	0.01038
1794.93328	0.01038
1793.64751	0.01062
1792.36174	0.01087
1791.07598	0.01093
1789.79021	0.01083
1788.50444	0.01073
1787.21867	0.01070
1785.93290	0.01070
1784.64713	0.01070
1783.36136	0.01070
1782.07559	0.01074
1780.78983	0.01078
1779.50406	0.01076
1778.21829	0.01069
1776.93252	0.01066
1775.64675	0.01079
1774.36098	0.01108
1773.07521	0.01133
1771.78944	0.01134
1770.50367	0.01116
1769.21791	0.01102
1767.93214	0.01100
1766.64637	0.01103
1765.36060	0.01114
1764.07483	0.01137
1762.78906	0.01161
1761.50329	0.01167
1760.21752	0.01156
1758.93176	0.01145
1757.64599	0.01140
1756.36022	0.01130
1755.07445	0.01114
1753.78868	0.01106
1752.50291	0.01116
1751.21714	0.01131
1749.93137	0.01138
1748.64560	0.01136
1747.35984	0.01132
1746.07407	0.01124
1744.78830	0.01111
1743.50253	0.01098
1742.21676	0.01095
1740.93099	0.01103
1739.64522	0.01105
1738.35945	0.01091
1737.07369	0.01083
1735.78792	0.01103
1734.50215	0.01129
1733.21638	0.01128
1731.93061	0.01108
1730.64484	0.01098
1729.35907	0.01107
1728.07330	0.01119
1726.78753	0.01129
1725.50177	0.01139
1724.21600	0.01145
1722.93023	0.01142
1721.64446	0.01135
1720.35869	0.01142
1719.07292	0.01170
1717.78715	0.01198
1716.50138	0.01209
1715.21561	0.01208
1713.92985	0.01213
1712.64408	0.01226
1711.35831	0.01238
1710.07254	0.01248
1708.78677	0.01256
1707.50100	0.01266
1706.21523	0.01271
1704.92946	0.01263
1703.64370	0.01253
1702.35793	0.01269
1701.07216	0.01300
1699.78639	0.01309
1698.50062	0.01307
1697.21485	0.01332
1695.92908	0.01373
1694.64331	0.01390
1693.35754	0.01382
1692.07178	0.01381
1690.78601	0.01386
1689.50024	0.01376
1688.21447	0.01355
1686.92870	0.01349
1685.64293	0.01365
1684.35716	0.01378
1683.07139	0.01378
1681.78563	0.01385
1680.49986	0.01410
1679.21409	0.01435
1677.92832	0.01448
1676.64255	0.01458
1675.35678	0.01463
1674.07101	0.01460
1672.78524	0.01458
1671.49947	0.01474
1670.21371	0.01499
1668.92794	0.01512
1667.64217	0.01511
1666.35640	0.01512
1665.07063	0.01527
1663.78486	0.01552
1662.49909	0.01572
1661.21332	0.01582
1659.92756	0.01585
1658.64179	0.01581
1657.35602	0.01568
1656.07025	0.01565
1654.78448	0.01592
1653.49871	0.01617
1652.21294	0.01600
1650.92717	0.01553
1649.64140	0.01537
1648.35564	0.01568
1647.06987	0.01610
1645.78410	0.01629
1644.49833	0.01626
1643.21256	0.01624
1641.92679	0.01630
1640.64102	0.01632
1639.35525	0.01629
1638.06949	0.01634
1636.78372	0.01649
1635.49795	0.01658
1634.21218	0.01651
1632.92641	0.01642
1631.64064	0.01650
1630.35487	0.01667
1629.06910	0.01675
1627.78333	0.01669
1626.49757	0.01660
1625.21180	0.01663
1623.92603	0.01676
1622.64026	0.01681
1621.35449	0.01672
1620.06872	0.01666
1618.78295	0.01680
1617.49718	0.01705
1616.21142	0.01714
1614.92565	0.01704
1613.63988	0.01696
1612.35411	0.01704
1611.06834	0.01718
1609.78257	0.01730
1608.49680	0.01739
1607.21103	0.01749
1605.92526	0.01759
1604.63950	0.01770
1603.35373	0.01779
1602.06796	0.01785
1600.78219	0.01785
1599.49642	0.01782
1598.21065	0.01782
1596.92488	0.01789
1595.63911	0.01803
1594.35335	0.01817
1593.06758	0.01825
1591.78181	0.01828
1590.49604	0.01830
1589.21027	0.01836
1587.92450	0.01847
1586.63873	0.01860
1585.35296	0.01870
1584.06719	0.01876
1582.78143	0.01876
1581.49566	0.01872
1580.20989	0.01871
1578.92412	0.01887
1577.63835	0.01927
1576.35258	0.01969
1575.06681	0.01982
1573.78104	0.01977
1572.49528	0.01982
1571.20951	0.02006
1569.92374	0.02032
1568.63797	0.02046
1567.35220	0.02055
1566.06643	0.02069
1564.78066	0.02077
1563.49489	0.02076
1562.20912	0.02084
1560.92336	0.02117
1559.63759	0.02153
1558.35182	0.02158
1557.06605	0.02142
1555.78028	0.02142
1554.49451	0.02169
1553.20874	0.02200
1551.92297	0.02223
1550.63721	0.02242
1549.35144	0.02253
1548.06567	0.02253
1546.77990	0.02250
1545.49413	0.02245
1544.20836	0.02238
1542.92259	0.02237
1541.63682	0.02253
1540.35105	0.02274
1539.06529	0.02274
1537.77952	0.02251
1536.49375	0.02233
1535.20798	0.02238
1533.92221	0.02252
1532.63644	0.02253
1531.35067	0.02246
1530.06490	0.02247
1528.77914	0.02260
1527.49337	0.02275
1526.20760	0.02282
1524.92183	0.02287
1523.63606	0.02303
1522.35029	0.02332
1521.06452	0.02356
1519.77875	0.02369
1518.49298	0.02392
1517.20722	0.02436
1515.92145	0.02490
1514.63568	0.02544
1513.34991	0.02596
1512.06414	0.02641
1510.77837	0.02676
1509.49260	0.02718
1508.20683	0.02777
1506.92107	0.02839
1505.63530	0.02877
1504.34953	0.02895
1503.06376	0.02920
1501.77799	0.02964
1500.49222	0.03014
1499.20645	0.03061
1497.92068	0.03104
1496.63491	0.03139
1495.34915	0.03159
1494.06338	0.03172
1492.77761	0.03195
1491.49184	0.03231
1490.20607	0.03266
1488.92030	0.03296
1487.63453	0.03328
1486.34876	0.03371
1485.06299	0.03423
1483.77723	0.03480
1482.49146	0.03533
1481.20569	0.03579
1479.91992	0.03621
1478.63415	0.03664
1477.34838	0.03712
1476.06261	0.03764
1474.77684	0.03823
1473.49108	0.03887
1472.20531	0.03941
1470.91954	0.03978
1469.63377	0.04008
1468.34800	0.04046
1467.06223	0.04093
1465.77646	0.04139
1464.49069	0.04175
1463.20492	0.04198
1461.91916	0.04217
1460.63339	0.04240
1459.34762	0.04277
1458.06185	0.04323
1456.77608	0.04356
1455.49031	0.04366
1454.20454	0.04369
1452.91877	0.04381
1451.63301	0.04400
1450.34724	0.04416
1449.06147	0.04427
1447.77570	0.04430
1446.48993	0.04421
1445.20416	0.04409
1443.91839	0.04397
1442.63262	0.04382
1441.34685	0.04356
1440.06109	0.04327
1438.77532	0.04312
1437.48955	0.04311
1436.20378	0.04309
1434.91801	0.04301
1433.63224	0.04305
1432.34647	0.04334
1431.06070	0.04382
1429.77494	0.04438
1428.48917	0.04495
1427.20340	0.04556
1425.91763	0.04622
1424.63186	0.04687
1423.34609	0.04743
1422.06032	0.04798
1420.77455	0.04865
1419.48878	0.04935
1418.20302	0.04988
1416.91725	0.05024
1415.63148	0.05054
1414.34571	0.05084
1413.05994	0.05111
1411.77417	0.05129
1410.48840	0.05135
1409.20263	0.05125
1407.91687	0.05100
1406.63110	0.05065
1405.34533	0.05020
1404.05956	0.04965
1402.77379	0.04902
1401.48802	0.04834
1400.20225	0.04761
1398.91648	0.04677
1397.63071	0.04586
1396.34495	0.04501
1395.05918	0.04422
1393.77341	0.04336
1392.48764	0.04241
1391.20187	0.04144
1389.91610	0.04052
1388.63033	0.03967
1387.34456	0.03888
1386.05880	0.03814
1384.77303	0.03751
1383.48726	0.03696
1382.20149	0.03638
1380.91572	0.03574
1379.62995	0.03506
1378.34418	0.03440
1377.05841	0.03375
1375.77264	0.03308
1374.48688	0.03232
1373.20111	0.03142
1371.91534	0.03043
1370.62957	0.02948
1369.34380	0.02863
1368.05803	0.02789
1366.77226	0.02721
1365.48649	0.02658
1364.20073	0.02595
1362.91496	0.02527
1361.62919	0.02450
1360.34342	0.02372
1359.05765	0.02302
1357.77188	0.02247
1356.48611	0.02205
1355.20034	0.02170
1353.91457	0.02137
1352.62881	0.02104
1351.34304	0.02071
1350.05727	0.02040
1348.77150	0.02012
1347.48573	0.01987
1346.19996	0.01963
1344.91419	0.01940
1343.62842	0.01917
1342.34266	0.01894
1341.05689	0.01872
1339.77112	0.01851
1338.48535	0.01831
1337.19958	0.01810
1335.91381	0.01790
1334.62804	0.01770
1333.34227	0.01748
1332.05650	0.01728
1330.77074	0.01711
1329.48497	0.01701
1328.19920	0.01694
1326.91343	0.01690
1325.62766	0.01687
1324.34189	0.01684
1323.05612	0.01678
1321.77035	0.01668
1320.48459	0.01652
1319.19882	0.01635
1317.91305	0.01619
1316.62728	0.01603
1315.34151	0.01589
1314.05574	0.01576
1312.76997	0.01563
1311.48420	0.01550
1310.19843	0.01539
1308.91267	0.01532
1307.62690	0.01529
1306.34113	0.01525
1305.05536	0.01519
1303.76959	0.01511
1302.48382	0.01505
1301.19805	0.01499
1299.91228	0.01493
1298.62652	0.01485
1297.34075	0.01476
1296.05498	0.01466
1294.76921	0.01456
1293.48344	0.01443
1292.19767	0.01427
1290.91190	0.01411
1289.62613	0.01398
1288.34036	0.01389
1287.05460	0.01384
1285.76883	0.01379
1284.48306	0.01373
1283.19729	0.01363
1281.91152	0.01349
1280.62575	0.01334
1279.33998	0.01321
1278.05421	0.01314
1276.76845	0.01313
1275.48268	0.01313
1274.19691	0.01311
1272.91114	0.01304
1271.62537	0.01296
1270.33960	0.01290
1269.05383	0.01284
1267.76806	0.01276
1266.48229	0.01263
1265.19653	0.01250
1263.91076	0.01240
1262.62499	0.01233
1261.33922	0.01227
1260.05345	0.01222
1258.76768	0.01217
1257.48191	0.01213
1256.19614	0.01208
1254.91037	0.01203
1253.62461	0.01200
1252.33884	0.01198
1251.05307	0.01196
1249.76730	0.01193
1248.48153	0.01189
1247.19576	0.01188
1245.90999	0.01187
1244.62422	0.01182
1243.33846	0.01172
1242.05269	0.01158
1240.76692	0.01146
1239.48115	0.01138
1238.19538	0.01134
1236.90961	0.01128
1235.62384	0.01120
1234.33807	0.01112
1233.05230	0.01107
1231.76654	0.01105
1230.48077	0.01100
1229.19500	0.01092
1227.90923	0.01084
1226.62346	0.01080
1225.33769	0.01079
1224.05192	0.01076
1222.76615	0.01071
1221.48039	0.01066
1220.19462	0.01062
1218.90885	0.01059
1217.62308	0.01054
1216.33731	0.01047
1215.05154	0.01039
1213.76577	0.01033
1212.48000	0.01029
1211.19423	0.01026
1209.90847	0.01023
1208.62270	0.01018
1207.33693	0.01012
1206.05116	0.01005
1204.76539	0.00997
1203.47962	0.00988
1202.19385	0.00979
1200.90808	0.00973
1199.62232	0.00969
1198.33655	0.00965
1197.05078	0.00962
1195.76501	0.00961
1194.47924	0.00961
1193.19347	0.00954
1191.90770	0.00938
1190.62193	0.00922
1189.33616	0.00914
1188.05040	0.00916
1186.76463	0.00922
1185.47886	0.00927
1184.19309	0.00931
1182.90732	0.00930
1181.62155	0.00925
1180.33578	0.00918
1179.05001	0.00915
1177.76425	0.00921
1176.47848	0.00933
1175.19271	0.00943
1173.90694	0.00946
1172.62117	0.00944
1171.33540	0.00941
1170.04963	0.00942
1168.76386	0.00945
1167.47809	0.00946
1166.19233	0.00945
1164.90656	0.00946
1163.62079	0.00954
1162.33502	0.00966
1161.04925	0.00976
1159.76348	0.00979
1158.47771	0.00976
1157.19194	0.00972
1155.90618	0.00970
1154.62041	0.00976
1153.33464	0.00995
1152.04887	0.01020
1150.76310	0.01043
1149.47733	0.01061
1148.19156	0.01079
1146.90579	0.01103
1145.62002	0.01133
1144.33426	0.01167
1143.04849	0.01202
1141.76272	0.01239
1140.47695	0.01278
1139.19118	0.01322
1137.90541	0.01375
1136.61964	0.01437
1135.33387	0.01505
1134.04811	0.01580
1132.76234	0.01664
1131.47657	0.01761
1130.19080	0.01875
1128.90503	0.02001
1127.61926	0.02136
1126.33349	0.02280
1125.04772	0.02435
1123.76195	0.02601
1122.47619	0.02772
1121.19042	0.02946
1119.90465	0.03122
1118.61888	0.03303
1117.33311	0.03491
1116.04734	0.03684
1114.76157	0.03872
1113.47580	0.04052
1112.19004	0.04222
1110.90427	0.04389
1109.61850	0.04554
1108.33273	0.04717
1107.04696	0.04873
1105.76119	0.05023
1104.47542	0.05168
1103.18965	0.05307
1101.90388	0.05440
1100.61812	0.05563
1099.33235	0.05678
1098.04658	0.05784
1096.76081	0.05886
1095.47504	0.05982
1094.18927	0.06071
1092.90350	0.06151
1091.61773	0.06223
1090.33197	0.06292
1089.04620	0.06366
1087.76043	0.06450
1086.47466	0.06543
1085.18889	0.06637
1083.90312	0.06726
1082.61735	0.06811
1081.33158	0.06899
1080.04581	0.06995
1078.76005	0.07105
1077.47428	0.07226
1076.18851	0.07354
1074.90274	0.07482
1073.61697	0.07611
1072.33120	0.07744
1071.04543	0.07876
1069.75966	0.08009
1068.47390	0.08147
1067.18813	0.08298
1065.90236	0.08458
1064.61659	0.08615
1063.33082	0.08764
1062.04505	0.08910
1060.75928	0.09057
1059.47351	0.09205
1058.18774	0.09352
1056.90198	0.09497
1055.61621	0.09643
1054.33044	0.09788
1053.04467	0.09933
1051.75890	0.10077
1050.47313	0.10224
1049.18736	0.10377
1047.90159	0.10534
1046.61583	0.10691
1045.33006	0.10852
1044.04429	0.11019
1042.75852	0.11195
1041.47275	0.11371
1040.18698	0.11541
1038.90121	0.11702
1037.61544	0.11859
1036.32967	0.12015
1035.04391	0.12171
1033.75814	0.12320
1032.47237	0.12456
1031.18660	0.12578
1029.90083	0.12683
1028.61506	0.12772
1027.32929	0.12844
1026.04352	0.12901
1024.75775	0.12946
1023.47199	0.12982
1022.18622	0.13010
1020.90045	0.13021
1019.61468	0.13007
1018.32891	0.12966
1017.04314	0.12900
1015.75737	0.12814
1014.47160	0.12713
1013.18584	0.12598
1011.90007	0.12469
1010.61430	0.12322
1009.32853	0.12155
1008.04276	0.11964
1006.75699	0.11752
1005.47122	0.11523
1004.18545	0.11280
1002.89968	0.11024
1001.61392	0.10755
1000.32815	0.10475
999.04238	0.10184
997.75661	0.09884
996.47084	0.09581
995.18507	0.09275
993.89930	0.08968
992.61353	0.08661
991.32777	0.08359
990.04200	0.08068
988.75623	0.07790
987.47046	0.07522
986.18469	0.07263
984.89892	0.07014
983.61315	0.06779
982.32738	0.06564
981.04161	0.06364
979.75585	0.06167
978.47008	0.05966
977.18431	0.05772
975.89854	0.05600
974.61277	0.05459
973.32700	0.05351
972.04123	0.05273
970.75546	0.05221
969.46970	0.05189
968.18393	0.05173
966.89816	0.05175
965.61239	0.05192
964.32662	0.05222
963.04085	0.05254
961.75508	0.05274
960.46931	0.05274
959.18354	0.05251
957.89778	0.05204
956.61201	0.05134
955.32624	0.05043
954.04047	0.04935
952.75470	0.04820
951.46893	0.04708
950.18316	0.04601
948.89739	0.04497
947.61163	0.04391
946.32586	0.04286
945.04009	0.04183
943.75432	0.04087
942.46855	0.03995
941.18278	0.03905
939.89701	0.03819
938.61124	0.03740
937.32547	0.03670
936.03971	0.03609
934.75394	0.03555
933.46817	0.03505
932.18240	0.03455
930.89663	0.03401
929.61086	0.03346
928.32509	0.03295
927.03932	0.03250
925.75356	0.03211
924.46779	0.03170
923.18202	0.03120
921.89625	0.03061
920.61048	0.03003
919.32471	0.02961
918.03894	0.02938
916.75317	0.02928
915.46740	0.02917
914.18164	0.02896
912.89587	0.02865
911.61010	0.02832
910.32433	0.02808
909.03856	0.02795
907.75279	0.02786
906.46702	0.02773
905.18125	0.02749
903.89549	0.02715
902.60972	0.02678
901.32395	0.02646
900.03818	0.02624
898.75241	0.02613
897.46664	0.02610
896.18087	0.02608
894.89510	0.02599
893.60933	0.02578
892.32357	0.02550
891.03780	0.02526
889.75203	0.02517
888.46626	0.02527
887.18049	0.02556
885.89472	0.02602
884.60895	0.02668
883.32318	0.02762
882.03742	0.02884
880.75165	0.03019
879.46588	0.03139
878.18011	0.03230
876.89434	0.03304
875.60857	0.03385
874.32280	0.03475
873.03703	0.03553
871.75126	0.03594
870.46550	0.03591
869.17973	0.03554
867.89396	0.03493
866.60819	0.03413
865.32242	0.03316
864.03665	0.03210
862.75088	0.03109
861.46511	0.03018
860.17935	0.02937
858.89358	0.02866
857.60781	0.02805
856.32204	0.02753
855.03627	0.02707
853.75050	0.02663
852.46473	0.02622
851.17896	0.02586
849.89319	0.02556
848.60743	0.02530
847.32166	0.02507
846.03589	0.02489
844.75012	0.02474
843.46435	0.02459
842.17858	0.02441
840.89281	0.02419
839.60704	0.02394
838.32128	0.02370
837.03551	0.02351
835.74974	0.02341
834.46397	0.02339
833.17820	0.02336
831.89243	0.02324
830.60666	0.02303
829.32089	0.02282
828.03512	0.02267
826.74936	0.02261
825.46359	0.02256
824.17782	0.02247
822.89205	0.02234
821.60628	0.02222
820.32051	0.02216
819.03474	0.02216
817.74897	0.02221
816.46321	0.02227
815.17744	0.02232
813.89167	0.02239
812.60590	0.02248
811.32013	0.02253
810.03436	0.02254
808.74859	0.02248
807.46282	0.02236
806.17705	0.02220
804.89129	0.02202
803.60552	0.02191
802.31975	0.02193
801.03398	0.02203
799.74821	0.02214
798.46244	0.02217
797.17667	0.02210
795.89090	0.02196
794.60513	0.02177
793.31937	0.02157
792.03360	0.02140
790.74783	0.02128
789.46206	0.02120
788.17629	0.02117
786.89052	0.02120
785.60475	0.02127
784.31898	0.02130
783.03322	0.02125
781.74745	0.02113
780.46168	0.02102
779.17591	0.02096
777.89014	0.02097
776.60437	0.02101
775.31860	0.02104
774.03283	0.02106
772.74706	0.02110
771.46130	0.02112
770.17553	0.02109
768.88976	0.02101
767.60399	0.02096
766.31822	0.02096
765.03245	0.02098
763.74668	0.02093
762.46091	0.02079
761.17515	0.02063
759.88938	0.02051
758.60361	0.02047
757.31784	0.02055
756.03207	0.02076
754.74630	0.02105
753.46053	0.02128
752.17476	0.02132
750.88899	0.02112
749.60323	0.02085
748.31746	0.02068
747.03169	0.02064
745.74592	0.02065
744.46015	0.02061
743.17438	0.02054
741.88861	0.02049
740.60284	0.02046
739.31708	0.02043
738.03131	0.02041
736.74554	0.02042
735.45977	0.02044
734.17400	0.02046
732.88823	0.02045
731.60246	0.02042
730.31669	0.02034
729.03092	0.02020
727.74516	0.02002
726.45939	0.01988
725.17362	0.01982
723.88785	0.02002
722.60208	0.02025
721.31631	0.02006
720.03054	0.01997
718.74477	0.02031
717.45901	0.02027
716.17324	0.02001
714.88747	0.01986
713.60170	0.01984
712.31593	0.01986
711.03016	0.01987
709.74439	0.01987
708.45862	0.01988
707.17285	0.01988
705.88709	0.01989
704.60132	0.01992
703.31555	0.01995
702.02978	0.01999
700.74401	0.02005
699.45824	0.02013
698.17247	0.02024
696.88670	0.02035
695.60094	0.02047
694.31517	0.02064
693.02940	0.02085
691.74363	0.02108
690.45786	0.02128
689.17209	0.02143
687.88632	0.02152
686.60055	0.02155
685.31478	0.02156
684.02902	0.02156
682.74325	0.02157
681.45748	0.02157
680.17171	0.02152
678.88594	0.02138
677.60017	0.02114
676.31440	0.02081
675.02863	0.02068
673.74287	0.02155
672.45710	0.02429
671.17133	0.02713
669.88556	0.02412
668.59979	0.01518
667.31402	0.01656
666.02825	0.02509
664.74248	0.02591
663.45671	0.02230
662.17095	0.01981
660.88518	0.01911
659.59941	0.01923
658.31364	0.01953
657.02787	0.01973
655.74210	0.01980
654.45633	0.01986
653.17056	0.01983
651.88480	0.01970
650.59903	0.01945
649.31326	0.01910
648.02749	0.01891
646.74172	0.01877
645.45595	0.01855
644.17018	0.01834
642.88441	0.01819
641.59864	0.01807
640.31288	0.01798
639.02711	0.01789
637.74134	0.01780
636.45557	0.01777
635.16980	0.01783
633.88403	0.01801
632.59826	0.01828
631.31249	0.01855
630.02673	0.01874
628.74096	0.01888
627.45519	0.01902
626.16942	0.01924
624.88365	0.01981
623.59788	0.02075
622.31211	0.02167
621.02634	0.02234
619.74057	0.02327
618.45481	0.02509
617.16904	0.02745
615.88327	0.02932
614.59750	0.03020
613.31173	0.03063
612.02596	0.03159
610.74019	0.03375
609.45442	0.03714
608.16866	0.04134
606.88289	0.04570
605.59712	0.04943
604.31135	0.05179
603.02558	0.05260
601.73981	0.05241
600.45404	0.05190
599.16827	0.05127
597.88250	0.05036
596.59674	0.04903
595.31097	0.04743
594.02520	0.04586
592.73943	0.04465
591.45366	0.04395
590.16789	0.04372
588.88212	0.04380
587.59635	0.04404
586.31059	0.04442
585.02482	0.04501
583.73905	0.04591
582.45328	0.04714
581.16751	0.04863
579.88174	0.05027
578.59597	0.05190
577.31020	0.05338
576.02443	0.05466
574.73867	0.05579
573.45290	0.05686
572.16713	0.05796
570.88136	0.05916
569.59559	0.06057
568.30982	0.06231
567.02405	0.06434
565.73828	0.06655
564.45251	0.06869
563.16675	0.07040
561.88098	0.07131
560.59521	0.07115
559.30944	0.06989
558.02367	0.06770
556.73790	0.06492
555.45213	0.06189
554.16636	0.05883
552.88060	0.05575
551.59483	0.05262
550.30906	0.04950
549.02329	0.04659
547.73752	0.04415
546.45175	0.04221
545.16598	0.04062
543.88021	0.03916
542.59444	0.03765
541.30868	0.03613
540.02291	0.03470
538.73714	0.03346
537.45137	0.03242
536.16560	0.03154
534.87983	0.03073
533.59406	0.02989
532.30829	0.02897
531.02253	0.02801
529.73676	0.02711
528.45099	0.02635
527.16522	0.02574
525.87945	0.02523
524.59368	0.02481
523.30791	0.02448
522.02214	0.02422
520.73637	0.02395
519.45061	0.02355
518.16484	0.02300
516.87907	0.02240
515.59330	0.02185
514.30753	0.02142
513.02176	0.02111
511.73599	0.02090
510.45022	0.02072
509.16446	0.02056
507.87869	0.02039
506.59292	0.02019
505.30715	0.01995
504.02138	0.01968
502.73561	0.01938
501.44984	0.01902
500.16407	0.01857
498.87830	0.01809
497.59254	0.01775
496.30677	0.01765
495.02100	0.01778
493.73523	0.01792
492.44946	0.01793
491.16369	0.01777
489.87792	0.01757
488.59215	0.01745
487.30639	0.01744
486.02062	0.01746
484.73485	0.01743
483.44908	0.01733
482.16331	0.01720
480.87754	0.01711
479.59177	0.01707
478.30600	0.01711
477.02023	0.01721
475.73447	0.01732
474.44870	0.01741
473.16293	0.01746
471.87716	0.01751
470.59139	0.01759
469.30562	0.01770
468.01985	0.01777
466.73408	0.01776
465.44832	0.01766
464.16255	0.01750
462.87678	0.01734
461.59101	0.01718
460.30524	0.01699
459.01947	0.01674
457.73370	0.01642
456.44793	0.01609
455.16216	0.01583
453.87640	0.01565
452.59063	0.01554
451.30486	0.01544
450.01909	0.01535
448.73332	0.01526
447.44755	0.01517
446.16178	0.01510
444.87601	0.01507
443.59025	0.01506
442.30448	0.01505
441.01871	0.01503
439.73294	0.01499
438.44717	0.01494
437.16140	0.01486
435.87563	0.01475
434.58986	0.01464
433.30409	0.01458
432.01833	0.01459
430.73256	0.01467
429.44679	0.01478
428.16102	0.01487
426.87525	0.01491
425.58948	0.01485
424.30371	0.01468
423.01794	0.01447
421.73218	0.01435
420.44641	0.01437
419.16064	0.01444
417.87487	0.01445
416.58910	0.01439
415.30333	0.01432
414.01756	0.01430
412.73179	0.01431
411.44602	0.01433
410.16026	0.01433
408.87449	0.01430
407.58872	0.01423
406.30295	0.01415
405.01718	0.01413
403.73141	0.01419
402.44564	0.01432
401.15987	0.01447
399.87411	0.01463
