3997.45528	0.01750
3996.16951	0.01762
3994.88374	0.01834
3993.59798	0.01950
3992.31221	0.02055
3991.02644	0.02112
3989.74067	0.02122
3988.45490	0.02118
3987.16913	0.02131
3985.88336	0.02173
3984.59759	0.02237
3983.31183	0.02311
3982.02606	0.02372
3980.74029	0.02398
3979.45452	0.02384
3978.16875	0.02351
3976.88298	0.02324
3975.59721	0.02306
3974.31144	0.02293
3973.02567	0.02281
3971.73991	0.02268
3970.45414	0.02259
3969.16837	0.02258
3967.88260	0.02266
3966.59683	0.02273
3965.31106	0.02265
3964.02529	0.02233
3962.73952	0.02182
3961.45376	0.02118
3960.16799	0.02053
3958.88222	0.02001
3957.59645	0.01977
3956.31068	0.01979
3955.02491	0.01994
3953.73914	0.02002
3952.45337	0.01996
3951.16760	0.01990
3949.88184	0.02010
3948.59607	0.02068
3947.31030	0.02148
3946.02453	0.02221
3944.73876	0.02271
3943.45299	0.02298
3942.16722	0.02309
3940.88145	0.02315
3939.59569	0.02320
3938.30992	0.02319
3937.02415	0.02296
3935.73838	0.02244
3934.45261	0.02175
3933.16684	0.02108
3931.88107	0.02052
3930.59530	0.02009
3929.30953	0.01980
3928.02377	0.01969
3926.73800	0.01971
3925.45223	0.01972
3924.16646	0.01971
3922.88069	0.01977
3921.59492	0.02008
3920.30915	0.02064
3919.02338	0.02120
3917.73762	0.02147
3916.45185	0.02144
3915.16608	0.02145
3913.88031	0.02174
3912.59454	0.02217
3911.30877	0.02233
3910.02300	0.02207
3908.73723	0.02162
3907.45146	0.02127
3906.16570	0.02105
3904.87993	0.02075
3903.59416	0.02032
3902.30839	0.02000
3901.02262	0.02006
3899.73685	0.02051
3898.45108	0.02108
3897.16531	0.02149
3895.87955	0.02175
3894.59378	0.02195
3893.30801	0.02206
3892.02224	0.02192
3890.73647	0.02154
3889.45070	0.02117
3888.16493	0.02108
3886.87916	0.02134
3885.59339	0.02176
3884.30763	0.02215
3883.02186	0.02247
3881.73609	0.02265
3880.45032	0.02254
3879.16455	0.02201
3877.87878	0.02127
3876.59301	0.02080
3875.30724	0.02085
3874.02148	0.02119
3872.73571	0.02140
3871.44994	0.02128
3870.16417	0.02112
3868.87840	0.02135
3867.59263	0.02201
3866.30686	0.02272
3865.02109	0.02307
3863.73532	0.02297
3862.44956	0.02268
3861.16379	0.02245
3859.87802	0.02226
3858.59225	0.02195
3857.30648	0.02149
3856.02071	0.02105
3854.73494	0.02076
3853.44917	0.02048
3852.16341	0.02006
3850.87764	0.01959
3849.59187	0.01942
3848.30610	0.01974
3847.02033	0.02031
3845.73456	0.02066
3844.44879	0.02048
3843.16302	0.01990
3841.87725	0.01937
3840.59149	0.01924
3839.30572	0.01955
3838.01995	0.02002
3836.73418	0.02042
3835.44841	0.02062
3834.16264	0.02062
3832.87687	0.02052
3831.59110	0.02051
3830.30534	0.02066
3829.01957	0.02086
3827.73380	0.02092
3826.44803	0.02086
3825.16226	0.02087
3823.87649	0.02107
3822.59072	0.02133
3821.30495	0.02149
3820.01918	0.02150
3818.73342	0.02135
3817.44765	0.02106
3816.16188	0.02065
3814.87611	0.02027
3813.59034	0.02007
3812.30457	0.02006
3811.01880	0.02008
3809.73303	0.02007
3808.44726	0.02004
3807.16150	0.01999
3805.87573	0.01995
3804.58996	0.02008
3803.30419	0.02059
3802.01842	0.02131
3800.73265	0.02178
3799.44688	0.02171
3798.16111	0.02136
3796.87535	0.02114
3795.58958	0.02123
3794.30381	0.02150
3793.01804	0.02179
3791.73227	0.02198
3790.44650	0.02187
3789.16073	0.02137
3787.87496	0.02075
3786.58919	0.02038
3785.30343	0.02041
3784.01766	0.02059
3782.73189	0.02059
3781.44612	0.02031
3780.16035	0.01983
3778.87458	0.01936
3777.58881	0.01914
3776.30304	0.01938
3775.01728	0.02008
3773.73151	0.02094
3772.44574	0.02151
3771.15997	0.02146
3769.87420	0.02082
3768.58843	0.02001
3767.30266	0.01947
3766.01689	0.01939
3764.73112	0.01962
3763.44536	0.01985
3762.15959	0.01989
3760.87382	0.01976
3759.58805	0.01966
3758.30228	0.01979
3757.01651	0.02014
3755.73074	0.02058
3754.44497	0.02104
3753.15921	0.02147
3751.87344	0.02176
3750.58767	0.02166
3749.30190	0.02116
3748.01613	0.02062
3746.73036	0.02047
3745.44459	0.02078
3744.15882	0.02114
3742.87305	0.02105
3741.58729	0.02037
3740.30152	0.01941
3739.01575	0.01870
3737.72998	0.01872
3736.44421	0.01951
3735.15844	0.02067
3733.87267	0.02155
3732.58690	0.02172
3731.30114	0.02118
3730.01537	0.02033
3728.72960	0.01966
3727.44383	0.01941
3726.15806	0.01947
3724.87229	0.01958
3723.58652	0.01953
3722.30075	0.01932
3721.01498	0.01910
3719.72922	0.01907
3718.44345	0.01930
3717.15768	0.01964
3715.87191	0.01998
3714.58614	0.02033
3713.30037	0.02080
3712.01460	0.02129
3710.72883	0.02151
3709.44307	0.02123
3708.15730	0.02057
3706.87153	0.01987
3705.58576	0.01935
3704.29999	0.01903
3703.01422	0.01884
3701.72845	0.01872
3700.44268	0.01865
3699.15691	0.01862
3697.87115	0.01870
3696.58538	0.01890
3695.29961	0.01904
3694.01384	0.01898
3692.72807	0.01875
3691.44230	0.01859
3690.15653	0.01865
3688.87076	0.01876
3687.58500	0.01872
3686.29923	0.01852
3685.01346	0.01841
3683.72769	0.01853
3682.44192	0.01879
3681.15615	0.01897
3679.87038	0.01908
3678.58461	0.01926
3677.29884	0.01969
3676.01308	0.02030
3674.72731	0.02083
3673.44154	0.02096
3672.15577	0.02067
3670.87000	0.02022
3669.58423	0.01997
3668.29846	0.02007
3667.01269	0.02041
3665.72693	0.02076
3664.44116	0.02106
3663.15539	0.02138
3661.86962	0.02176
3660.58385	0.02213
3659.29808	0.02232
3658.01231	0.02225
3656.72654	0.02202
3655.44077	0.02183
3654.15501	0.02181
3652.86924	0.02204
3651.58347	0.02252
3650.29770	0.02317
3649.01193	0.02376
3647.72616	0.02405
3646.44039	0.02394
3645.15462	0.02351
3643.86886	0.02302
3642.58309	0.02285
3641.29732	0.02334
3640.01155	0.02446
3638.72578	0.02565
3637.44001	0.02614
3636.15424	0.02555
3634.86847	0.02424
3633.58270	0.02309
3632.29694	0.02283
3631.01117	0.02357
3629.72540	0.02479
3628.43963	0.02573
3627.15386	0.02603
3625.86809	0.02590
3624.58232	0.02574
3623.29655	0.02564
3622.01079	0.02543
3620.72502	0.02514
3619.43925	0.02503
3618.15348	0.02525
3616.86771	0.02564
3615.58194	0.02602
3614.29617	0.02632
3613.01040	0.02661
3611.72463	0.02695
3610.43887	0.02737
3609.15310	0.02779
3607.86733	0.02807
3606.58156	0.02809
3605.29579	0.02787
3604.01002	0.02749
3602.72425	0.02706
3601.43848	0.02677
3600.15272	0.02683
3598.86695	0.02728
3597.58118	0.02785
3596.29541	0.02819
3595.00964	0.02816
3593.72387	0.02801
3592.43810	0.02817
3591.15233	0.02882
3589.86656	0.02980
3588.58080	0.03074
3587.29503	0.03131
3586.00926	0.03128
3584.72349	0.03075
3583.43772	0.03018
3582.15195	0.03015
3580.86618	0.03077
3579.58041	0.03158
3578.29464	0.03208
3577.00888	0.03229
3575.72311	0.03266
3574.43734	0.03345
3573.15157	0.03438
3571.86580	0.03497
3570.58003	0.03506
3569.29426	0.03485
3568.00849	0.03459
3566.72273	0.03436
3565.43696	0.03423
3564.15119	0.03422
3562.86542	0.03427
3561.57965	0.03420
3560.29388	0.03394
3559.00811	0.03366
3557.72234	0.03362
3556.43657	0.03391
3555.15081	0.03438
3553.86504	0.03487
3552.57927	0.03530
3551.29350	0.03570
3550.00773	0.03604
3548.72196	0.03626
3547.43619	0.03623
3546.15042	0.03589
3544.86466	0.03538
3543.57889	0.03512
3542.29312	0.03546
3541.00735	0.03631
3539.72158	0.03711
3538.43581	0.03737
3537.15004	0.03711
3535.86427	0.03679
3534.57850	0.03677
3533.29274	0.03696
3532.00697	0.03715
3530.72120	0.03738
3529.43543	0.03789
3528.14966	0.03876
3526.86389	0.03972
3525.57812	0.04040
3524.29235	0.04053
3523.00659	0.04007
3521.72082	0.03921
3520.43505	0.03830
3519.14928	0.03770
3517.86351	0.03758
3516.57774	0.03792
3515.29197	0.03863
3514.00620	0.03949
3512.72043	0.04022
3511.43467	0.04055
3510.14890	0.04043
3508.86313	0.04009
3507.57736	0.03981
3506.29159	0.03972
3505.00582	0.03980
3503.72005	0.04001
3502.43428	0.04031
3501.14852	0.04056
3499.86275	0.04069
3498.57698	0.04090
3497.29121	0.04145
3496.00544	0.04225
3494.71967	0.04286
3493.43390	0.04294
3492.14813	0.04260
3490.86236	0.04220
3489.57660	0.04202
3488.29083	0.04211
3487.00506	0.04231
3485.71929	0.04248
3484.43352	0.04263
3483.14775	0.04292
3481.86198	0.04341
3480.57621	0.04396
3479.29045	0.04429
3478.00468	0.04426
3476.71891	0.04402
3475.43314	0.04387
3474.14737	0.04396
3472.86160	0.04420
3471.57583	0.04440
3470.29006	0.04449
3469.00429	0.04452
3467.71853	0.04448
3466.43276	0.04433
3465.14699	0.04405
3463.86122	0.04373
3462.57545	0.04358
3461.28968	0.04382
3460.00391	0.04449
3458.71814	0.04532
3457.43238	0.04582
3456.14661	0.04576
3454.86084	0.04534
3453.57507	0.04498
3452.28930	0.04491
3451.00353	0.04514
3449.71776	0.04566
3448.43199	0.04637
3447.14622	0.04694
3445.86046	0.04700
3444.57469	0.04649
3443.28892	0.04579
3442.00315	0.04536
3440.71738	0.04541
3439.43161	0.04585
3438.14584	0.04643
3436.86007	0.04683
3435.57431	0.04691
3434.28854	0.04675
3433.00277	0.04668
3431.71700	0.04696
3430.43123	0.04763
3429.14546	0.04846
3427.85969	0.04908
3426.57392	0.04923
3425.28815	0.04894
3424.00239	0.04850
3422.71662	0.04823
3421.43085	0.04822
3420.14508	0.04835
3418.85931	0.04842
3417.57354	0.04830
3416.28777	0.04792
3415.00200	0.04737
3413.71624	0.04690
3412.43047	0.04681
3411.14470	0.04718
3409.85893	0.04775
3408.57316	0.04819
3407.28739	0.04841
3406.00162	0.04852
3404.71585	0.04865
3403.43008	0.04886
3402.14432	0.04914
3400.85855	0.04952
3399.57278	0.04998
3398.28701	0.05043
3397.00124	0.05074
3395.71547	0.05081
3394.42970	0.05061
3393.14393	0.05020
3391.85817	0.04975
3390.57240	0.04947
3389.28663	0.04943
3388.00086	0.04953
3386.71509	0.04956
3385.42932	0.04946
3384.14355	0.04931
3382.85778	0.04925
3381.57201	0.04938
3380.28625	0.04968
3379.00048	0.05001
3377.71471	0.05017
3376.42894	0.05009
3375.14317	0.04993
3373.85740	0.04989
3372.57163	0.04998
3371.28586	0.05011
3370.00010	0.05017
3368.71433	0.05015
3367.42856	0.05004
3366.14279	0.04981
3364.85702	0.04958
3363.57125	0.04949
3362.28548	0.04960
3360.99971	0.04981
3359.71394	0.05004
3358.42818	0.05026
3357.14241	0.05037
3355.85664	0.05027
3354.57087	0.04993
3353.28510	0.04955
3351.99933	0.04934
3350.71356	0.04941
3349.42779	0.04965
3348.14202	0.04986
3346.85626	0.04989
3345.57049	0.04972
3344.28472	0.04951
3342.99895	0.04945
3341.71318	0.04965
3340.42741	0.05000
3339.14164	0.05030
3337.85587	0.05039
3336.57011	0.05022
3335.28434	0.04983
3333.99857	0.04944
3332.71280	0.04935
3331.42703	0.04970
3330.14126	0.05023
3328.85549	0.05044
3327.56972	0.05007
3326.28395	0.04939
3324.99819	0.04889
3323.71242	0.04889
3322.42665	0.04925
3321.14088	0.04969
3319.85511	0.04998
3318.56934	0.05011
3317.28357	0.05017
3315.99780	0.05022
3314.71204	0.05015
3313.42627	0.04990
3312.14050	0.04955
3310.85473	0.04933
3309.56896	0.04930
3308.28319	0.04933
3306.99742	0.04934
3305.71165	0.04942
3304.42588	0.04966
3303.14012	0.04997
3301.85435	0.05014
3300.56858	0.05008
3299.28281	0.04988
3297.99704	0.04967
3296.71127	0.04952
3295.42550	0.04950
3294.13973	0.04974
3292.85397	0.05020
3291.56820	0.05062
3290.28243	0.05072
3288.99666	0.05050
3287.71089	0.05020
3286.42512	0.04999
3285.13935	0.04981
3283.85358	0.04954
3282.56781	0.04921
3281.28205	0.04899
3279.99628	0.04897
3278.71051	0.04909
3277.42474	0.04923
3276.13897	0.04935
3274.85320	0.04952
3273.56743	0.04978
3272.28166	0.05005
3270.99590	0.05024
3269.71013	0.05026
3268.42436	0.05005
3267.13859	0.04959
3265.85282	0.04899
3264.56705	0.04844
3263.28128	0.04813
3261.99551	0.04805
3260.70974	0.04815
3259.42398	0.04841
3258.13821	0.04881
3256.85244	0.04922
3255.56667	0.04945
3254.28090	0.04940
3252.99513	0.04914
3251.70936	0.04884
3250.42359	0.04860
3249.13783	0.04847
3247.85206	0.04836
3246.56629	0.04820
3245.28052	0.04797
3243.99475	0.04779
3242.70898	0.04781
3241.42321	0.04807
3240.13744	0.04842
3238.85167	0.04867
3237.56591	0.04869
3236.28014	0.04851
3234.99437	0.04820
3233.70860	0.04787
3232.42283	0.04768
3231.13706	0.04769
3229.85129	0.04784
3228.56552	0.04794
3227.27976	0.04794
3225.99399	0.04793
3224.70822	0.04804
3223.42245	0.04822
3222.13668	0.04831
3220.85091	0.04822
3219.56514	0.04804
3218.27937	0.04799
3216.99360	0.04814
3215.70784	0.04838
3214.42207	0.04848
3213.13630	0.04830
3211.85053	0.04793
3210.56476	0.04752
3209.27899	0.04721
3207.99322	0.04705
3206.70745	0.04712
3205.42169	0.04742
3204.13592	0.04779
3202.85015	0.04795
3201.56438	0.04772
3200.27861	0.04721
3198.99284	0.04673
3197.70707	0.04649
3196.42130	0.04646
3195.13553	0.04647
3193.84977	0.04640
3192.56400	0.04628
3191.27823	0.04627
3189.99246	0.04644
3188.70669	0.04669
3187.42092	0.04681
3186.13515	0.04670
3184.84938	0.04645
3183.56362	0.04629
3182.27785	0.04632
3180.99208	0.04645
3179.70631	0.04643
3178.42054	0.04619
3177.13477	0.04589
3175.84900	0.04576
3174.56323	0.04585
3173.27746	0.04596
3171.99170	0.04591
3170.70593	0.04575
3169.42016	0.04573
3168.13439	0.04603
3166.84862	0.04653
3165.56285	0.04690
3164.27708	0.04685
3162.99131	0.04632
3161.70555	0.04552
3160.41978	0.04481
3159.13401	0.04449
3157.84824	0.04458
3156.56247	0.04478
3155.27670	0.04485
3153.99093	0.04483
3152.70516	0.04495
3151.41939	0.04526
3150.13363	0.04559
3148.84786	0.04573
3147.56209	0.04570
3146.27632	0.04556
3144.99055	0.04533
3143.70478	0.04505
3142.41901	0.04489
3141.13324	0.04496
3139.84748	0.04520
3138.56171	0.04540
3137.27594	0.04542
3135.99017	0.04530
3134.70440	0.04519
3133.41863	0.04511
3132.13286	0.04501
3130.84709	0.04486
3129.56132	0.04471
3128.27556	0.04457
3126.98979	0.04432
3125.70402	0.04386
3124.41825	0.04331
3123.13248	0.04288
3121.84671	0.04264
3120.56094	0.04250
3119.27517	0.04241
3117.98940	0.04239
3116.70364	0.04252
3115.41787	0.04272
3114.13210	0.04288
3112.84633	0.04282
3111.56056	0.04257
3110.27479	0.04228
3108.98902	0.04219
3107.70325	0.04234
3106.41749	0.04259
3105.13172	0.04276
3103.84595	0.04274
3102.56018	0.04259
3101.27441	0.04235
3099.98864	0.04211
3098.70287	0.04194
3097.41710	0.04189
3096.13133	0.04195
3094.84557	0.04207
3093.55980	0.04219
3092.27403	0.04228
3090.98826	0.04225
3089.70249	0.04208
3088.41672	0.04193
3087.13095	0.04203
3085.84518	0.04240
3084.55942	0.04278
3083.27365	0.04284
3081.98788	0.04249
3080.70211	0.04191
3079.41634	0.04128
3078.13057	0.04073
3076.84480	0.04031
3075.55903	0.04003
3074.27326	0.03982
3072.98750	0.03967
3071.70173	0.03963
3070.41596	0.03983
3069.13019	0.04032
3067.84442	0.04095
3066.55865	0.04142
3065.27288	0.04146
3063.98711	0.04106
3062.70135	0.04043
3061.41558	0.03993
3060.12981	0.03976
3058.84404	0.03993
3057.55827	0.04027
3056.27250	0.04059
3054.98673	0.04073
3053.70096	0.04065
3052.41519	0.04043
3051.12943	0.04020
3049.84366	0.04001
3048.55789	0.03982
3047.27212	0.03955
3045.98635	0.03925
3044.70058	0.03908
3043.41481	0.03914
3042.12904	0.03938
3040.84328	0.03960
3039.55751	0.03964
3038.27174	0.03950
3036.98597	0.03933
3035.70020	0.03921
3034.41443	0.03909
3033.12866	0.03892
3031.84289	0.03869
3030.55712	0.03841
3029.27136	0.03814
3027.98559	0.03796
3026.69982	0.03796
3025.41405	0.03808
3024.12828	0.03817
3022.84251	0.03812
3021.55674	0.03799
3020.27097	0.03793
3018.98521	0.03800
3017.69944	0.03815
3016.41367	0.03829
3015.12790	0.03830
3013.84213	0.03814
3012.55636	0.03785
3011.27059	0.03754
3009.98482	0.03736
3008.69905	0.03733
3007.41329	0.03736
3006.12752	0.03728
3004.84175	0.03706
3003.55598	0.03684
3002.27021	0.03680
3000.98444	0.03693
2999.69867	0.03705
2998.41290	0.03696
2997.12714	0.03672
2995.84137	0.03655
2994.55560	0.03657
2993.26983	0.03671
2991.98406	0.03680
2990.69829	0.03676
2989.41252	0.03663
2988.12675	0.03658
2986.84098	0.03670
2985.55522	0.03695
2984.26945	0.03710
2982.98368	0.03702
2981.69791	0.03680
2980.41214	0.03675
2979.12637	0.03705
2977.84060	0.03763
2976.55483	0.03823
2975.26907	0.03864
2973.98330	0.03888
2972.69753	0.03911
2971.41176	0.03947
2970.12599	0.03990
2968.84022	0.04024
2967.55445	0.04041
2966.26868	0.04049
2964.98291	0.04058
2963.69715	0.04071
2962.41138	0.04089
2961.12561	0.04110
2959.83984	0.04133
2958.55407	0.04152
2957.26830	0.04168
2955.98253	0.04190
2954.69676	0.04223
2953.41100	0.04260
2952.12523	0.04289
2950.83946	0.04297
2949.55369	0.04277
2948.26792	0.04236
2946.98215	0.04194
2945.69638	0.04164
2944.41061	0.04148
2943.12484	0.04134
2941.83908	0.04115
2940.55331	0.04096
2939.26754	0.04090
2937.98177	0.04109
2936.69600	0.04154
2935.41023	0.04211
2934.12446	0.04258
2932.83869	0.04286
2931.55293	0.04296
2930.26716	0.04296
2928.98139	0.04289
2927.69562	0.04274
2926.40985	0.04257
2925.12408	0.04244
2923.83831	0.04246
2922.55254	0.04259
2921.26677	0.04273
2919.98101	0.04269
2918.69524	0.04240
2917.40947	0.04190
2916.12370	0.04135
2914.83793	0.04090
2913.55216	0.04058
2912.26639	0.04035
2910.98062	0.04011
2909.69486	0.03983
2908.40909	0.03952
2907.12332	0.03925
2905.83755	0.03906
2904.55178	0.03895
2903.26601	0.03895
2901.98024	0.03905
2900.69447	0.03912
2899.40870	0.03903
2898.12294	0.03871
2896.83717	0.03819
2895.55140	0.03757
2894.26563	0.03704
2892.97986	0.03679
2891.69409	0.03685
2890.40832	0.03702
2889.12255	0.03707
2887.83678	0.03684
2886.55102	0.03637
2885.26525	0.03586
2883.97948	0.03549
2882.69371	0.03523
2881.40794	0.03495
2880.12217	0.03470
2878.83640	0.03468
2877.55063	0.03505
2876.26487	0.03565
2874.97910	0.03618
2873.69333	0.03647
2872.40756	0.03650
2871.12179	0.03639
2869.83602	0.03624
2868.55025	0.03612
2867.26448	0.03605
2865.97871	0.03606
2864.69295	0.03614
2863.40718	0.03617
2862.12141	0.03600
2860.83564	0.03558
2859.54987	0.03505
2858.26410	0.03465
2856.97833	0.03451
2855.69256	0.03462
2854.40680	0.03481
2853.12103	0.03489
2851.83526	0.03479
2850.54949	0.03460
2849.26372	0.03442
2847.97795	0.03424
2846.69218	0.03402
2845.40641	0.03378
2844.12064	0.03357
2842.83488	0.03333
2841.54911	0.03296
2840.26334	0.03241
2838.97757	0.03182
2837.69180	0.03137
2836.40603	0.03115
2835.12026	0.03110
2833.83449	0.03110
2832.54873	0.03098
2831.26296	0.03065
2829.97719	0.03020
2828.69142	0.02980
2827.40565	0.02955
2826.11988	0.02946
2824.83411	0.02943
2823.54834	0.02937
2822.26257	0.02926
2820.97681	0.02913
2819.69104	0.02901
2818.40527	0.02888
2817.11950	0.02872
2815.83373	0.02852
2814.54796	0.02835
2813.26219	0.02828
2811.97642	0.02832
2810.69066	0.02841
2809.40489	0.02843
2808.11912	0.02838
2806.83335	0.02832
2805.54758	0.02833
2804.26181	0.02840
2802.97604	0.02847
2801.69027	0.02845
2800.40450	0.02831
2799.11874	0.02807
2797.83297	0.02781
2796.54720	0.02760
2795.26143	0.02748
2793.97566	0.02747
2792.68989	0.02755
2791.40412	0.02762
2790.11835	0.02754
2788.83259	0.02724
2787.54682	0.02688
2786.26105	0.02671
2784.97528	0.02686
2783.68951	0.02717
2782.40374	0.02735
2781.11797	0.02724
2779.83220	0.02693
2778.54643	0.02661
2777.26067	0.02642
2775.97490	0.02639
2774.68913	0.02648
2773.40336	0.02665
2772.11759	0.02682
2770.83182	0.02692
2769.54605	0.02691
2768.26028	0.02680
2766.97452	0.02663
2765.68875	0.02644
2764.40298	0.02628
2763.11721	0.02625
2761.83144	0.02635
2760.54567	0.02651
2759.25990	0.02657
2757.97413	0.02647
2756.68836	0.02625
2755.40260	0.02597
2754.11683	0.02572
2752.83106	0.02555
2751.54529	0.02546
2750.25952	0.02542
2748.97375	0.02541
2747.68798	0.02544
2746.40221	0.02546
2745.11645	0.02543
2743.83068	0.02540
2742.54491	0.02543
2741.25914	0.02549
2739.97337	0.02553
2738.68760	0.02550
2737.40183	0.02542
2736.11606	0.02531
2734.83029	0.02521
2733.54453	0.02517
2732.25876	0.02527
2730.97299	0.02544
2729.68722	0.02554
2728.40145	0.02545
2727.11568	0.02521
2725.82991	0.02493
2724.54414	0.02468
2723.25838	0.02445
2721.97261	0.02424
2720.68684	0.02412
2719.40107	0.02413
2718.11530	0.02429
2716.82953	0.02451
2715.54376	0.02470
2714.25799	0.02479
2712.97222	0.02478
2711.68646	0.02467
2710.40069	0.02450
2709.11492	0.02431
2707.82915	0.02407
2706.54338	0.02378
2705.25761	0.02348
2703.97184	0.02329
2702.68607	0.02331
2701.40031	0.02351
2700.11454	0.02381
2698.82877	0.02411
2697.54300	0.02432
2696.25723	0.02436
2694.97146	0.02423
2693.68569	0.02399
2692.39992	0.02372
2691.11415	0.02349
2689.82839	0.02332
2688.54262	0.02325
2687.25685	0.02328
2685.97108	0.02341
2684.68531	0.02359
2683.39954	0.02371
2682.11377	0.02370
2680.82800	0.02358
2679.54224	0.02342
2678.25647	0.02327
2676.97070	0.02316
2675.68493	0.02307
2674.39916	0.02299
2673.11339	0.02290
2671.82762	0.02281
2670.54185	0.02275
2669.25608	0.02276
2667.97032	0.02280
2666.68455	0.02285
2665.39878	0.02289
2664.11301	0.02295
2662.82724	0.02303
2661.54147	0.02310
2660.25570	0.02309
2658.96993	0.02299
2657.68417	0.02287
2656.39840	0.02284
2655.11263	0.02295
2653.82686	0.02313
2652.54109	0.02325
2651.25532	0.02324
2649.96955	0.02310
2648.68378	0.02294
2647.39801	0.02283
2646.11225	0.02278
2644.82648	0.02272
2643.54071	0.02256
2642.25494	0.02229
2640.96917	0.02199
2639.68340	0.02172
2638.39763	0.02154
2637.11186	0.02142
2635.82609	0.02134
2634.54033	0.02126
2633.25456	0.02116
2631.96879	0.02100
2630.68302	0.02081
2629.39725	0.02060
2628.11148	0.02045
2626.82571	0.02047
2625.53994	0.02072
2624.25418	0.02110
2622.96841	0.02139
2621.68264	0.02147
2620.39687	0.02137
2619.11110	0.02118
2617.82533	0.02088
2616.53956	0.02045
2615.25379	0.01995
2613.96802	0.01952
2612.68226	0.01923
2611.39649	0.01912
2610.11072	0.01924
2608.82495	0.01953
2607.53918	0.01984
2606.25341	0.01995
2604.96764	0.01977
2603.68187	0.01942
2602.39611	0.01914
2601.11034	0.01905
2599.82457	0.01912
2598.53880	0.01916
2597.25303	0.01906
2595.96726	0.01888
2594.68149	0.01882
2593.39572	0.01900
2592.10995	0.01928
2590.82419	0.01940
2589.53842	0.01926
2588.25265	0.01900
2586.96688	0.01878
2585.68111	0.01866
2584.39534	0.01868
2583.10957	0.01889
2581.82380	0.01919
2580.53804	0.01936
2579.25227	0.01929
2577.96650	0.01910
2576.68073	0.01899
2575.39496	0.01894
2574.10919	0.01885
2572.82342	0.01859
2571.53765	0.01815
2570.25188	0.01764
2568.96612	0.01722
2567.68035	0.01712
2566.39458	0.01741
2565.10881	0.01792
2563.82304	0.01836
2562.53727	0.01851
2561.25150	0.01841
2559.96573	0.01823
2558.67997	0.01815
2557.39420	0.01820
2556.10843	0.01836
2554.82266	0.01850
2553.53689	0.01849
2552.25112	0.01832
2550.96535	0.01810
2549.67958	0.01792
2548.39381	0.01781
2547.10805	0.01776
2545.82228	0.01772
2544.53651	0.01767
2543.25074	0.01756
2541.96497	0.01742
2540.67920	0.01732
2539.39343	0.01736
2538.10766	0.01757
2536.82190	0.01785
2535.53613	0.01805
2534.25036	0.01808
2532.96459	0.01800
2531.67882	0.01789
2530.39305	0.01770
2529.10728	0.01744
2527.82151	0.01723
2526.53574	0.01723
2525.24998	0.01748
2523.96421	0.01787
2522.67844	0.01818
2521.39267	0.01819
2520.10690	0.01779
2518.82113	0.01720
2517.53536	0.01675
2516.24959	0.01652
2514.96383	0.01633
2513.67806	0.01600
2512.39229	0.01570
2511.10652	0.01565
2509.82075	0.01581
2508.53498	0.01595
2507.24921	0.01599
2505.96344	0.01605
2504.67767	0.01630
2503.39191	0.01675
2502.10614	0.01726
2500.82037	0.01763
2499.53460	0.01776
2498.24883	0.01770
2496.96306	0.01755
2495.67729	0.01740
2494.39152	0.01723
2493.10576	0.01699
2491.81999	0.01668
2490.53422	0.01630
2489.24845	0.01591
2487.96268	0.01563
2486.67691	0.01560
2485.39114	0.01583
2484.10537	0.01615
2482.81960	0.01636
2481.53384	0.01640
2480.24807	0.01631
2478.96230	0.01609
2477.67653	0.01573
2476.39076	0.01536
2475.10499	0.01515
2473.81922	0.01521
2472.53345	0.01544
2471.24769	0.01563
2469.96192	0.01572
2468.67615	0.01581
2467.39038	0.01600
2466.10461	0.01631
2464.81884	0.01669
2463.53307	0.01703
2462.24730	0.01722
2460.96153	0.01727
2459.67577	0.01721
2458.39000	0.01706
2457.10423	0.01674
2455.81846	0.01628
2454.53269	0.01585
2453.24692	0.01556
2451.96115	0.01538
2450.67538	0.01531
2449.38962	0.01539
2448.10385	0.01559
2446.81808	0.01576
2445.53231	0.01573
2444.24654	0.01551
2442.96077	0.01522
2441.67500	0.01499
2440.38923	0.01493
2439.10346	0.01505
2437.81770	0.01524
2436.53193	0.01535
2435.24616	0.01530
2433.96039	0.01516
2432.67462	0.01505
2431.38885	0.01506
2430.10308	0.01518
2428.81731	0.01528
2427.53155	0.01523
2426.24578	0.01501
2424.96001	0.01475
2423.67424	0.01448
2422.38847	0.01410
2421.10270	0.01360
2419.81693	0.01320
2418.53116	0.01327
2417.24539	0.01382
2415.95963	0.01444
2414.67386	0.01472
2413.38809	0.01466
2412.10232	0.01459
2410.81655	0.01474
2409.53078	0.01499
2408.24501	0.01506
2406.95924	0.01487
2405.67347	0.01457
2404.38771	0.01431
2403.10194	0.01410
2401.81617	0.01389
2400.53040	0.01376
2399.24463	0.01373
2397.95886	0.01390
2396.67309	0.01417
2395.38732	0.01444
2394.10156	0.01473
2392.81579	0.01504
2391.53002	0.01527
2390.24425	0.01529
2388.95848	0.01507
2387.67271	0.01473
2386.38694	0.01445
2385.10117	0.01434
2383.81540	0.01443
2382.52964	0.01464
2381.24387	0.01483
2379.95810	0.01494
2378.67233	0.01502
2377.38656	0.01511
2376.10079	0.01519
2374.81502	0.01520
2373.52925	0.01518
2372.24349	0.01509
2370.95772	0.01484
2369.67195	0.01449
2368.38618	0.01420
2367.10041	0.01408
2365.81464	0.01414
2364.52887	0.01427
2363.24310	0.01440
2361.95733	0.01453
2360.67157	0.01469
2359.38580	0.01486
2358.10003	0.01503
2356.81426	0.01510
2355.52849	0.01506
2354.24272	0.01497
2352.95695	0.01495
2351.67118	0.01511
2350.38542	0.01535
2349.09965	0.01555
2347.81388	0.01569
2346.52811	0.01580
2345.24234	0.01583
2343.95657	0.01579
2342.67080	0.01567
2341.38503	0.01564
2340.09926	0.01561
2338.81350	0.01545
2337.52773	0.01523
2336.24196	0.01519
2334.95619	0.01523
2333.67042	0.01523
2332.38465	0.01513
2331.09888	0.01508
2329.81311	0.01485
2328.52735	0.01465
2327.24158	0.01482
2325.95581	0.01537
2324.67004	0.01617
2323.38427	0.01680
2322.09850	0.01706
2320.81273	0.01689
2319.52696	0.01654
2318.24119	0.01628
2316.95543	0.01617
2315.66966	0.01613
2314.38389	0.01603
2313.09812	0.01590
2311.81235	0.01573
2310.52658	0.01554
2309.24081	0.01534
2307.95504	0.01513
2306.66928	0.01485
2305.38351	0.01452
2304.09774	0.01420
2302.81197	0.01399
2301.52620	0.01391
2300.24043	0.01392
2298.95466	0.01400
2297.66889	0.01411
2296.38312	0.01415
2295.09736	0.01407
2293.81159	0.01392
2292.52582	0.01378
2291.24005	0.01377
2289.95428	0.01394
2288.66851	0.01433
2287.38274	0.01487
2286.09697	0.01531
2284.81121	0.01538
2283.52544	0.01497
2282.23967	0.01431
2280.95390	0.01377
2279.66813	0.01357
2278.38236	0.01364
2277.09659	0.01375
2275.81082	0.01371
2274.52505	0.01350
2273.23929	0.01322
2271.95352	0.01298
2270.66775	0.01272
2269.38198	0.01238
2268.09621	0.01209
2266.81044	0.01214
2265.52467	0.01270
2264.23890	0.01346
2262.95314	0.01380
2261.66737	0.01345
2260.38160	0.01275
2259.09583	0.01228
2257.81006	0.01223
2256.52429	0.01232
2255.23852	0.01219
2253.95275	0.01183
2252.66698	0.01144
2251.38122	0.01121
2250.09545	0.01120
2248.80968	0.01140
2247.52391	0.01153
2246.23814	0.01195
2244.95237	0.01246
2243.66660	0.01263
2242.38083	0.01225
2241.09507	0.01149
2239.80930	0.01069
2238.52353	0.01012
2237.23776	0.00988
2235.95199	0.00985
2234.66622	0.00977
2233.38045	0.00947
2232.09468	0.00912
2230.80891	0.00894
2229.52315	0.00901
2228.23738	0.00917
2226.95161	0.00924
2225.66584	0.00924
2224.38007	0.00935
2223.09430	0.00972
2221.80853	0.01032
2220.52276	0.01094
2219.23700	0.01135
2217.95123	0.01155
2216.66546	0.01172
2215.37969	0.01195
2214.09392	0.01211
2212.80815	0.01193
2211.52238	0.01143
2210.23661	0.01092
2208.95084	0.01063
2207.66508	0.01031
2206.37931	0.00957
2205.09354	0.00833
2203.80777	0.00705
2202.52200	0.00635
2201.23623	0.00654
2199.95046	0.00737
2198.66469	0.00815
2197.37893	0.00840
2196.09316	0.00824
2194.80739	0.00821
2193.52162	0.00857
2192.23585	0.00898
2190.95008	0.00901
2189.66431	0.00862
2188.37854	0.00809
2187.09277	0.00769
2185.80701	0.00743
2184.52124	0.00716
2183.23547	0.00665
2181.94970	0.00586
2180.66393	0.00512
2179.37816	0.00488
2178.09239	0.00520
2176.80662	0.00563
2175.52085	0.00564
2174.23509	0.00529
2172.94932	0.00497
2171.66355	0.00484
2170.37778	0.00465
2169.09201	0.00425
2167.80624	0.00393
2166.52047	0.00408
2165.23470	0.00473
2163.94894	0.00553
2162.66317	0.00598
2161.37740	0.00579
2160.09163	0.00526
2158.80586	0.00501
2157.52009	0.00532
2156.23432	0.00569
2154.94855	0.00560
2153.66278	0.00505
2152.37702	0.00434
2151.09125	0.00362
2149.80548	0.00287
2148.51971	0.00220
2147.23394	0.00184
2145.94817	0.00187
2144.66240	0.00214
2143.37663	0.00238
2142.09087	0.00246
2140.80510	0.00245
2139.51933	0.00268
2138.23356	0.00339
2136.94779	0.00449
2135.66202	0.00556
2134.37625	0.00613
2133.09048	0.00611
2131.80471	0.00581
2130.51895	0.00567
2129.23318	0.00588
2127.94741	0.00636
2126.66164	0.00686
2125.37587	0.00723
2124.09010	0.00743
2122.80433	0.00755
2121.51856	0.00767
2120.23280	0.00773
2118.94703	0.00765
2117.66126	0.00744
2116.37549	0.00728
2115.08972	0.00728
2113.80395	0.00732
2112.51818	0.00720
2111.23241	0.00684
2109.94664	0.00628
2108.66088	0.00572
2107.37511	0.00549
2106.08934	0.00579
2104.80357	0.00649
2103.51780	0.00718
2102.23203	0.00754
2100.94626	0.00754
2099.66049	0.00774
2098.37473	0.00758
2097.08896	0.00716
2095.80319	0.00669
2094.51742	0.00621
2093.23165	0.00574
2091.94588	0.00541
2090.66011	0.00539
2089.37434	0.00574
2088.08857	0.00632
2086.80281	0.00679
2085.51704	0.00687
2084.23127	0.00663
2082.94550	0.00639
2081.65973	0.00635
2080.37396	0.00647
2079.08819	0.00659
2077.80242	0.00658
2076.51666	0.00637
2075.23089	0.00605
2073.94512	0.00581
2072.65935	0.00576
2071.37358	0.00571
2070.08781	0.00534
2068.80204	0.00462
2067.51627	0.00389
2066.23050	0.00343
2064.94474	0.00330
2063.65897	0.00337
2062.37320	0.00354
2061.08743	0.00374
2059.80166	0.00380
2058.51589	0.00353
2057.23012	0.00290
2055.94435	0.00213
2054.65859	0.00173
2053.37282	0.00209
2052.08705	0.00315
2050.80128	0.00438
2049.51551	0.00513
2048.22974	0.00503
2046.94397	0.00414
2045.65820	0.00279
2044.37243	0.00147
2043.08667	0.00065
2041.80090	0.00048
2040.51513	0.00070
2039.22936	0.00091
2037.94359	0.00100
2036.65782	0.00108
2035.37205	0.00121
2034.08628	0.00112
2032.80052	0.00056
2031.51475	-0.00035
2030.22898	-0.00102
2028.94321	-0.00083
2027.65744	0.00026
2026.37167	0.00165
2025.08590	0.00259
2023.80013	0.00287
2022.51436	0.00279
2021.22860	0.00269
2019.94283	0.00260
2018.65706	0.00244
2017.37129	0.00233
2016.08552	0.00241
2014.79975	0.00260
2013.51398	0.00268
2012.22821	0.00252
2010.94245	0.00218
2009.65668	0.00191
2008.37091	0.00196
2007.08514	0.00245
2005.79937	0.00320
2004.51360	0.00388
2003.22783	0.00423
2001.94206	0.00416
2000.65629	0.00380
1999.37053	0.00347
1998.08476	0.00358
1996.79899	0.00417
1995.51322	0.00487
1994.22745	0.00528
1992.94168	0.00547
1991.65591	0.00574
1990.37014	0.00617
1989.08438	0.00649
1987.79861	0.00639
1986.51284	0.00582
1985.22707	0.00513
1983.94130	0.00479
1982.65553	0.00487
1981.36976	0.00506
1980.08399	0.00501
1978.79822	0.00478
1977.51246	0.00464
1976.22669	0.00463
1974.94092	0.00457
1973.65515	0.00434
1972.36938	0.00405
1971.08361	0.00390
1969.79784	0.00403
1968.51207	0.00441
1967.22631	0.00493
1965.94054	0.00543
1964.65477	0.00576
1963.36900	0.00578
1962.08323	0.00554
1960.79746	0.00527
1959.51169	0.00520
1958.22592	0.00526
1956.94015	0.00522
1955.65439	0.00486
1954.36862	0.00431
1953.08285	0.00385
1951.79708	0.00374
1950.51131	0.00399
1949.22554	0.00451
1947.93977	0.00520
1946.65400	0.00600
1945.36823	0.00672
1944.08247	0.00715
1942.79670	0.00726
1941.51093	0.00725
1940.22516	0.00731
1938.93939	0.00741
1937.65362	0.00749
1936.36785	0.00756
1935.08208	0.00763
1933.79632	0.00764
1932.51055	0.00750
1931.22478	0.00726
1929.93901	0.00708
1928.65324	0.00708
1927.36747	0.00725
1926.08170	0.00757
1924.79593	0.00801
1923.51016	0.00840
1922.22440	0.00858
1920.93863	0.00850
1919.65286	0.00827
1918.36709	0.00807
1917.08132	0.00799
1915.79555	0.00801
1914.50978	0.00808
1913.22401	0.00813
1911.93825	0.00815
1910.65248	0.00822
1909.36671	0.00837
1908.08094	0.00852
1906.79517	0.00853
1905.50940	0.00836
1904.22363	0.00813
1902.93786	0.00799
1901.65209	0.00799
1900.36633	0.00804
1899.08056	0.00798
1897.79479	0.00772
1896.50902	0.00739
1895.22325	0.00721
1893.93748	0.00734
1892.65171	0.00769
1891.36594	0.00804
1890.08018	0.00822
1888.79441	0.00818
1887.50864	0.00800
1886.22287	0.00782
1884.93710	0.00770
1883.65133	0.00766
1882.36556	0.00773
1881.07979	0.00798
1879.79402	0.00839
1878.50826	0.00885
1877.22249	0.00916
1875.93672	0.00919
1874.65095	0.00898
1873.36518	0.00861
1872.07941	0.00822
1870.79364	0.00794
1869.50787	0.00783
1868.22211	0.00788
1866.93634	0.00799
1865.65057	0.00807
1864.36480	0.00807
1863.07903	0.00800
1861.79326	0.00794
1860.50749	0.00796
1859.22172	0.00804
1857.93595	0.00814
1856.65019	0.00822
1855.36442	0.00824
1854.07865	0.00823
1852.79288	0.00820
1851.50711	0.00822
1850.22134	0.00832
1848.93557	0.00846
1847.64980	0.00856
1846.36404	0.00854
1845.07827	0.00837
1843.79250	0.00815
1842.50673	0.00800
1841.22096	0.00800
1839.93519	0.00811
1838.64942	0.00823
1837.36365	0.00830
1836.07788	0.00833
1834.79212	0.00835
1833.50635	0.00842
1832.22058	0.00853
1830.93481	0.00868
1829.64904	0.00884
1828.36327	0.00905
1827.07750	0.00928
1825.79173	0.00947
1824.50597	0.00953
1823.22020	0.00944
1821.93443	0.00923
1820.64866	0.00899
1819.36289	0.00874
1818.07712	0.00853
1816.79135	0.00844
1815.50558	0.00850
1814.21981	0.00866
1812.93405	0.00878
1811.64828	0.00878
1810.36251	0.00869
1809.07674	0.00864
1807.79097	0.00871
1806.50520	0.00884
1805.21943	0.00892
1803.93366	0.00890
1802.64790	0.00886
1801.36213	0.00892
1800.07636	0.00910
1798.79059	0.00932
1797.50482	0.00948
1796.21905	0.00957
1794.93328	0.00960
1793.64751	0.00955
1792.36174	0.00941
1791.07598	0.00925
1789.79021	0.00913
1788.50444	0.00911
1787.21867	0.00914
1785.93290	0.00919
1784.64713	0.00924
1783.36136	0.00934
1782.07559	0.00948
1780.78983	0.00962
1779.50406	0.00973
1778.21829	0.00981
1776.93252	0.00988
1775.64675	0.00994
1774.36098	0.00998
1773.07521	0.00998
1771.78944	0.00997
1770.50367	0.00995
1769.21791	0.00994
1767.93214	0.00993
1766.64637	0.00993
1765.36060	0.00995
1764.07483	0.01002
1762.78906	0.01014
1761.50329	0.01029
1760.21752	0.01041
1758.93176	0.01046
1757.64599	0.01046
1756.36022	0.01045
1755.07445	0.01048
1753.78868	0.01052
1752.50291	0.01055
1751.21714	0.01054
1749.93137	0.01050
1748.64560	0.01045
1747.35984	0.01043
1746.07407	0.01047
1744.78830	0.01059
1743.50253	0.01075
1742.21676	0.01092
1740.93099	0.01104
1739.64522	0.01110
1738.35945	0.01110
1737.07369	0.01107
1735.78792	0.01106
1734.50215	0.01109
1733.21638	0.01119
1731.93061	0.01131
1730.64484	0.01144
1729.35907	0.01156
1728.07330	0.01165
1726.78753	0.01168
1725.50177	0.01166
1724.21600	0.01163
1722.93023	0.01163
1721.64446	0.01172
1720.35869	0.01190
1719.07292	0.01214
1717.78715	0.01242
1716.50138	0.01269
1715.21561	0.01294
1713.92985	0.01313
1712.64408	0.01329
1711.35831	0.01347
1710.07254	0.01369
1708.78677	0.01398
1707.50100	0.01428
1706.21523	0.01456
1704.92946	0.01481
1703.64370	0.01504
1702.35793	0.01526
1701.07216	0.01549
1699.78639	0.01572
1698.50062	0.01597
1697.21485	0.01622
1695.92908	0.01645
1694.64331	0.01664
1693.35754	0.01679
1692.07178	0.01696
1690.78601	0.01714
1689.50024	0.01735
1688.21447	0.01757
1686.92870	0.01780
1685.64293	0.01804
1684.35716	0.01826
1683.07139	0.01845
1681.78563	0.01864
1680.49986	0.01884
1679.21409	0.01909
1677.92832	0.01939
1676.64255	0.01973
1675.35678	0.02004
1674.07101	0.02030
1672.78524	0.02049
1671.49947	0.02066
1670.21371	0.02082
1668.92794	0.02101
1667.64217	0.02122
1666.35640	0.02146
1665.07063	0.02174
1663.78486	0.02203
1662.49909	0.02229
1661.21332	0.02248
1659.92756	0.02258
1658.64179	0.02265
1657.35602	0.02275
1656.07025	0.02292
1654.78448	0.02317
1653.49871	0.02339
1652.21294	0.02349
1650.92717	0.02348
1649.64140	0.02347
1648.35564	0.02353
1647.06987	0.02368
1645.78410	0.02380
1644.49833	0.02384
1643.21256	0.02381
1641.92679	0.02378
1640.64102	0.02382
1639.35525	0.02394
1638.06949	0.02409
1636.78372	0.02419
1635.49795	0.02421
1634.21218	0.02417
1632.92641	0.02415
1631.64064	0.02420
1630.35487	0.02432
1629.06910	0.02445
1627.78333	0.02452
1626.49757	0.02456
1625.21180	0.02464
1623.92603	0.02477
1622.64026	0.02490
1621.35449	0.02499
1620.06872	0.02506
1618.78295	0.02513
1617.49718	0.02522
1616.21142	0.02529
1614.92565	0.02535
1613.63988	0.02542
1612.35411	0.02554
1611.06834	0.02570
1609.78257	0.02585
1608.49680	0.02595
1607.21103	0.02604
1605.92526	0.02615
1604.63950	0.02630
1603.35373	0.02643
1602.06796	0.02652
1600.78219	0.02657
1599.49642	0.02663
1598.21065	0.02674
1596.92488	0.02691
1595.63911	0.02712
1594.35335	0.02732
1593.06758	0.02749
1591.78181	0.02762
1590.49604	0.02773
1589.21027	0.02786
1587.92450	0.02803
1586.63873	0.02822
1585.35296	0.02840
1584.06719	0.02855
1582.78143	0.02869
1581.49566	0.02885
1580.20989	0.02907
1578.92412	0.02931
1577.63835	0.02952
1576.35258	0.02967
1575.06681	0.02978
1573.78104	0.02989
1572.49528	0.03003
1571.20951	0.03018
1569.92374	0.03031
1568.63797	0.03043
1567.35220	0.03056
1566.06643	0.03071
1564.78066	0.03088
1563.49489	0.03107
1562.20912	0.03129
1560.92336	0.03155
1559.63759	0.03180
1558.35182	0.03197
1557.06605	0.03204
1555.78028	0.03206
1554.49451	0.03211
1553.20874	0.03225
1551.92297	0.03245
1550.63721	0.03265
1549.35144	0.03280
1548.06567	0.03290
1546.77990	0.03298
1545.49413	0.03311
1544.20836	0.03329
1542.92259	0.03352
1541.63682	0.03373
1540.35105	0.03384
1539.06529	0.03384
1537.77952	0.03378
1536.49375	0.03376
1535.20798	0.03385
1533.92221	0.03405
1532.63644	0.03429
1531.35067	0.03457
1530.06490	0.03489
1528.77914	0.03528
1527.49337	0.03577
1526.20760	0.03637
1524.92183	0.03704
1523.63606	0.03774
1522.35029	0.03843
1521.06452	0.03909
1519.77875	0.03975
1518.49298	0.04048
1517.20722	0.04131
1515.92145	0.04221
1514.63568	0.04317
1513.34991	0.04418
1512.06414	0.04525
1510.77837	0.04640
1509.49260	0.04764
1508.20683	0.04894
1506.92107	0.05019
1505.63530	0.05130
1504.34953	0.05226
1503.06376	0.05312
1501.77799	0.05395
1500.49222	0.05477
1499.20645	0.05553
1497.92068	0.05620
1496.63491	0.05680
1495.34915	0.05738
1494.06338	0.05798
1492.77761	0.05861
1491.49184	0.05927
1490.20607	0.05996
1488.92030	0.06069
1487.63453	0.06150
1486.34876	0.06241
1485.06299	0.06342
1483.77723	0.06451
1482.49146	0.06562
1481.20569	0.06674
1479.91992	0.06784
1478.63415	0.06893
1477.34838	0.06998
1476.06261	0.07099
1474.77684	0.07190
1473.49108	0.07267
1472.20531	0.07328
1470.91954	0.07372
1469.63377	0.07402
1468.34800	0.07422
1467.06223	0.07438
1465.77646	0.07452
1464.49069	0.07463
1463.20492	0.07475
1461.91916	0.07493
1460.63339	0.07524
1459.34762	0.07569
1458.06185	0.07622
1456.77608	0.07673
1455.49031	0.07720
1454.20454	0.07766
1452.91877	0.07814
1451.63301	0.07859
1450.34724	0.07894
1449.06147	0.07916
1447.77570	0.07925
1446.48993	0.07921
1445.20416	0.07901
1443.91839	0.07865
1442.63262	0.07814
1441.34685	0.07758
1440.06109	0.07706
1438.77532	0.07664
1437.48955	0.07638
1436.20378	0.07629
1434.91801	0.07642
1433.63224	0.07681
1432.34647	0.07745
1431.06070	0.07834
1429.77494	0.07944
1428.48917	0.08070
1427.20340	0.08207
1425.91763	0.08349
1424.63186	0.08491
1423.34609	0.08632
1422.06032	0.08767
1420.77455	0.08895
1419.48878	0.09012
1418.20302	0.09114
1416.91725	0.09196
1415.63148	0.09254
1414.34571	0.09287
1413.05994	0.09297
1411.77417	0.09287
1410.48840	0.09256
1409.20263	0.09200
1407.91687	0.09117
1406.63110	0.09010
1405.34533	0.08885
1404.05956	0.08747
1402.77379	0.08599
1401.48802	0.08438
1400.20225	0.08262
1398.91648	0.08072
1397.63071	0.07876
1396.34495	0.07680
1395.05918	0.07486
1393.77341	0.07289
1392.48764	0.07086
1391.20187	0.06881
1389.91610	0.06681
1388.63033	0.06490
1387.34456	0.06307
1386.05880	0.06127
1384.77303	0.05947
1383.48726	0.05764
1382.20149	0.05580
1380.91572	0.05394
1379.62995	0.05205
1378.34418	0.05010
1377.05841	0.04816
1375.77264	0.04625
1374.48688	0.04441
1373.20111	0.04261
1371.91534	0.04086
1370.62957	0.03917
1369.34380	0.03757
1368.05803	0.03609
1366.77226	0.03474
1365.48649	0.03352
1364.20073	0.03241
1362.91496	0.03134
1361.62919	0.03030
1360.34342	0.02931
1359.05765	0.02841
1357.77188	0.02762
1356.48611	0.02690
1355.20034	0.02621
1353.91457	0.02551
1352.62881	0.02482
1351.34304	0.02418
1350.05727	0.02360
1348.77150	0.02307
1347.48573	0.02258
1346.19996	0.02211
1344.91419	0.02166
1343.62842	0.02123
1342.34266	0.02083
1341.05689	0.02048
1339.77112	0.02020
1338.48535	0.01996
1337.19958	0.01971
1335.91381	0.01942
1334.62804	0.01909
1333.34227	0.01879
1332.05650	0.01854
1330.77074	0.01832
1329.48497	0.01811
1328.19920	0.01792
1326.91343	0.01777
1325.62766	0.01766
1324.34189	0.01757
1323.05612	0.01744
1321.77035	0.01729
1320.48459	0.01710
1319.19882	0.01689
1317.91305	0.01668
1316.62728	0.01648
1315.34151	0.01629
1314.05574	0.01611
1312.76997	0.01593
1311.48420	0.01574
1310.19843	0.01557
1308.91267	0.01541
1307.62690	0.01527
1306.34113	0.01515
1305.05536	0.01502
1303.76959	0.01489
1302.48382	0.01477
1301.19805	0.01466
1299.91228	0.01457
1298.62652	0.01450
1297.34075	0.01443
1296.05498	0.01437
1294.76921	0.01430
1293.48344	0.01422
1292.19767	0.01410
1290.91190	0.01395
1289.62613	0.01381
1288.34036	0.01369
1287.05460	0.01360
1285.76883	0.01350
1284.48306	0.01340
1283.19729	0.01329
1281.91152	0.01321
1280.62575	0.01317
1279.33998	0.01317
1278.05421	0.01317
1276.76845	0.01315
1275.48268	0.01311
1274.19691	0.01306
1272.91114	0.01300
1271.62537	0.01296
1270.33960	0.01292
1269.05383	0.01286
1267.76806	0.01279
1266.48229	0.01273
1265.19653	0.01269
1263.91076	0.01267
1262.62499	0.01261
1261.33922	0.01250
1260.05345	0.01237
1258.76768	0.01228
1257.48191	0.01224
1256.19614	0.01223
1254.91037	0.01221
1253.62461	0.01221
1252.33884	0.01223
1251.05307	0.01226
1249.76730	0.01227
1248.48153	0.01225
1247.19576	0.01219
1245.90999	0.01213
1244.62422	0.01208
1243.33846	0.01203
1242.05269	0.01197
1240.76692	0.01190
1239.48115	0.01185
1238.19538	0.01182
1236.90961	0.01182
1235.62384	0.01180
1234.33807	0.01177
1233.05230	0.01173
1231.76654	0.01169
1230.48077	0.01163
1229.19500	0.01153
1227.90923	0.01141
1226.62346	0.01127
1225.33769	0.01116
1224.05192	0.01113
1222.76615	0.01118
1221.48039	0.01128
1220.19462	0.01136
1218.90885	0.01139
1217.62308	0.01134
1216.33731	0.01125
1215.05154	0.01118
1213.76577	0.01115
1212.48000	0.01116
1211.19423	0.01119
1209.90847	0.01125
1208.62270	0.01131
1207.33693	0.01135
1206.05116	0.01134
1204.76539	0.01128
1203.47962	0.01122
1202.19385	0.01122
1200.90808	0.01126
1199.62232	0.01129
1198.33655	0.01134
1197.05078	0.01135
1195.76501	0.01132
1194.47924	0.01130
1193.19347	0.01131
1191.90770	0.01136
1190.62193	0.01141
1189.33616	0.01142
1188.05040	0.01137
1186.76463	0.01133
1185.47886	0.01133
1184.19309	0.01142
1182.90732	0.01155
1181.62155	0.01166
1180.33578	0.01172
1179.05001	0.01175
1177.76425	0.01178
1176.47848	0.01180
1175.19271	0.01186
1173.90694	0.01195
1172.62117	0.01208
1171.33540	0.01221
1170.04963	0.01234
1168.76386	0.01249
1167.47809	0.01267
1166.19233	0.01287
1164.90656	0.01307
1163.62079	0.01327
1162.33502	0.01348
1161.04925	0.01370
1159.76348	0.01395
1158.47771	0.01423
1157.19194	0.01457
1155.90618	0.01495
1154.62041	0.01535
1153.33464	0.01578
1152.04887	0.01619
1150.76310	0.01658
1149.47733	0.01694
1148.19156	0.01733
1146.90579	0.01783
1145.62002	0.01850
1144.33426	0.01930
1143.04849	0.02013
1141.76272	0.02092
1140.47695	0.02171
1139.19118	0.02261
1137.90541	0.02372
1136.61964	0.02502
1135.33387	0.02644
1134.04811	0.02793
1132.76234	0.02953
1131.47657	0.03131
1130.19080	0.03329
1128.90503	0.03548
1127.61926	0.03789
1126.33349	0.04050
1125.04772	0.04329
1123.76195	0.04619
1122.47619	0.04917
1121.19042	0.05218
1119.90465	0.05521
1118.61888	0.05819
1117.33311	0.06115
1116.04734	0.06414
1114.76157	0.06723
1113.47580	0.07041
1112.19004	0.07357
1110.90427	0.07661
1109.61850	0.07948
1108.33273	0.08224
1107.04696	0.08496
1105.76119	0.08763
1104.47542	0.09022
1103.18965	0.09274
1101.90388	0.09524
1100.61812	0.09777
1099.33235	0.10029
1098.04658	0.10275
1096.76081	0.10508
1095.47504	0.10731
1094.18927	0.10947
1092.90350	0.11156
1091.61773	0.11355
1090.33197	0.11542
1089.04620	0.11722
1087.76043	0.11901
1086.47466	0.12083
1085.18889	0.12268
1083.90312	0.12453
1082.61735	0.12645
1081.33158	0.12847
1080.04581	0.13065
1078.76005	0.13297
1077.47428	0.13546
1076.18851	0.13807
1074.90274	0.14078
1073.61697	0.14356
1072.33120	0.14644
1071.04543	0.14944
1069.75966	0.15249
1068.47390	0.15552
1067.18813	0.15854
1065.90236	0.16159
1064.61659	0.16472
1063.33082	0.16793
1062.04505	0.17119
1060.75928	0.17449
1059.47351	0.17775
1058.18774	0.18094
1056.90198	0.18402
1055.61621	0.18702
1054.33044	0.18998
1053.04467	0.19294
1051.75890	0.19593
1050.47313	0.19898
1049.18736	0.20209
1047.90159	0.20527
1046.61583	0.20853
1045.33006	0.21187
1044.04429	0.21527
1042.75852	0.21871
1041.47275	0.22216
1040.18698	0.22558
1038.90121	0.22895
1037.61544	0.23227
1036.32967	0.23559
1035.04391	0.23886
1033.75814	0.24202
1032.47237	0.24499
1031.18660	0.24771
1029.90083	0.25016
1028.61506	0.25234
1027.32929	0.25424
1026.04352	0.25585
1024.75775	0.25717
1023.47199	0.25818
1022.18622	0.25886
1020.90045	0.25914
1019.61468	0.25898
1018.32891	0.25836
1017.04314	0.25731
1015.75737	0.25587
1014.47160	0.25408
1013.18584	0.25189
1011.90007	0.24923
1010.61430	0.24599
1009.32853	0.24217
1008.04276	0.23786
1006.75699	0.23318
1005.47122	0.22817
1004.18545	0.22281
1002.89968	0.21705
1001.61392	0.21089
1000.32815	0.20440
999.04238	0.19770
997.75661	0.19093
996.47084	0.18412
995.18507	0.17722
993.89930	0.17021
992.61353	0.16317
991.32777	0.15627
990.04200	0.14961
988.75623	0.14315
987.47046	0.13683
986.18469	0.13070
984.89892	0.12485
983.61315	0.11937
982.32738	0.11425
981.04161	0.10945
979.75585	0.10495
978.47008	0.10079
977.18431	0.09704
975.89854	0.09375
974.61277	0.09098
973.32700	0.08876
972.04123	0.08709
970.75546	0.08597
969.46970	0.08539
968.18393	0.08537
966.89816	0.08588
965.61239	0.08683
964.32662	0.08801
963.04085	0.08914
961.75508	0.08994
960.46931	0.09014
959.18354	0.08960
957.89778	0.08832
956.61201	0.08639
955.32624	0.08398
954.04047	0.08130
952.75470	0.07854
951.46893	0.07583
950.18316	0.07319
948.89739	0.07057
947.61163	0.06799
946.32586	0.06553
945.04009	0.06321
943.75432	0.06102
942.46855	0.05887
941.18278	0.05674
939.89701	0.05469
938.61124	0.05280
937.32547	0.05112
936.03971	0.04964
934.75394	0.04835
933.46817	0.04719
932.18240	0.04612
930.89663	0.04510
929.61086	0.04408
928.32509	0.04305
927.03932	0.04207
925.75356	0.04120
924.46779	0.04045
923.18202	0.03978
921.89625	0.03918
920.61048	0.03867
919.32471	0.03826
918.03894	0.03791
916.75317	0.03752
915.46740	0.03705
914.18164	0.03650
912.89587	0.03597
911.61010	0.03552
910.32433	0.03518
909.03856	0.03494
907.75279	0.03474
906.46702	0.03449
905.18125	0.03418
903.89549	0.03382
902.60972	0.03348
901.32395	0.03320
900.03818	0.03299
898.75241	0.03284
897.46664	0.03269
896.18087	0.03254
894.89510	0.03244
893.60933	0.03243
892.32357	0.03249
891.03780	0.03259
889.75203	0.03279
888.46626	0.03324
887.18049	0.03407
885.89472	0.03544
884.60895	0.03751
883.32318	0.04032
882.03742	0.04358
880.75165	0.04667
879.46588	0.04907
878.18011	0.05072
876.89434	0.05207
875.60857	0.05359
874.32280	0.05527
873.03703	0.05664
871.75126	0.05714
870.46550	0.05659
869.17973	0.05517
867.89396	0.05317
866.60819	0.05081
865.32242	0.04826
864.03665	0.04567
862.75088	0.04321
861.46511	0.04101
860.17935	0.03912
858.89358	0.03753
857.60781	0.03622
856.32204	0.03513
855.03627	0.03420
853.75050	0.03341
852.46473	0.03279
851.17896	0.03232
849.89319	0.03198
848.60743	0.03167
847.32166	0.03140
846.03589	0.03117
844.75012	0.03099
843.46435	0.03081
842.17858	0.03054
840.89281	0.03020
839.60704	0.02985
838.32128	0.02957
837.03551	0.02934
835.74974	0.02910
834.46397	0.02887
833.17820	0.02869
831.89243	0.02857
830.60666	0.02848
829.32089	0.02840
828.03512	0.02834
826.74936	0.02830
825.46359	0.02832
824.17782	0.02834
822.89205	0.02831
821.60628	0.02819
820.32051	0.02803
819.03474	0.02793
817.74897	0.02795
816.46321	0.02800
815.17744	0.02794
813.89167	0.02774
812.60590	0.02753
811.32013	0.02743
810.03436	0.02746
808.74859	0.02751
807.46282	0.02748
806.17705	0.02735
804.89129	0.02716
803.60552	0.02696
802.31975	0.02682
801.03398	0.02678
799.74821	0.02683
798.46244	0.02695
797.17667	0.02707
795.89090	0.02715
794.60513	0.02717
793.31937	0.02718
792.03360	0.02719
790.74783	0.02718
789.46206	0.02711
788.17629	0.02702
786.89052	0.02694
785.60475	0.02689
784.31898	0.02686
783.03322	0.02683
781.74745	0.02683
780.46168	0.02689
779.17591	0.02700
777.89014	0.02709
776.60437	0.02712
775.31860	0.02708
774.03283	0.02699
772.74706	0.02691
771.46130	0.02682
770.17553	0.02671
768.88976	0.02657
767.60399	0.02643
766.31822	0.02631
765.03245	0.02626
763.74668	0.02632
762.46091	0.02644
761.17515	0.02658
759.88938	0.02667
758.60361	0.02671
757.31784	0.02675
756.03207	0.02680
754.74630	0.02687
753.46053	0.02696
752.17476	0.02707
750.88899	0.02713
749.60323	0.02712
748.31746	0.02704
747.03169	0.02696
745.74592	0.02692
744.46015	0.02689
743.17438	0.02681
741.88861	0.02667
740.60284	0.02649
739.31708	0.02632
738.03131	0.02620
736.74554	0.02613
735.45977	0.02603
734.17400	0.02593
732.88823	0.02590
731.60246	0.02603
730.31669	0.02624
729.03092	0.02642
727.74516	0.02653
726.45939	0.02662
725.17362	0.02669
723.88785	0.02667
722.60208	0.02675
721.31631	0.02690
720.03054	0.02706
718.74477	0.02720
717.45901	0.02729
716.17324	0.02728
714.88747	0.02720
713.60170	0.02705
712.31593	0.02688
711.03016	0.02673
709.74439	0.02663
708.45862	0.02655
707.17285	0.02648
705.88709	0.02641
704.60132	0.02635
703.31555	0.02631
702.02978	0.02628
700.74401	0.02628
699.45824	0.02632
698.17247	0.02642
696.88670	0.02657
695.60094	0.02671
694.31517	0.02679
693.02940	0.02679
691.74363	0.02673
690.45786	0.02667
689.17209	0.02667
687.88632	0.02668
686.60055	0.02663
685.31478	0.02652
684.02902	0.02638
682.74325	0.02626
681.45748	0.02619
680.17171	0.02615
678.88594	0.02613
677.60017	0.02612
676.31440	0.02613
675.02863	0.02618
673.74287	0.02627
672.45710	0.02640
671.17133	0.02660
669.88556	0.02682
668.59979	0.02701
667.31402	0.02709
666.02825	0.02705
664.74248	0.02692
663.45671	0.02676
662.17095	0.02660
660.88518	0.02645
659.59941	0.02633
658.31364	0.02626
657.02787	0.02624
655.74210	0.02624
654.45633	0.02625
653.17056	0.02626
651.88480	0.02630
650.59903	0.02638
649.31326	0.02648
648.02749	0.02659
646.74172	0.02668
645.45595	0.02677
644.17018	0.02691
642.88441	0.02712
641.59864	0.02741
640.31288	0.02775
639.02711	0.02809
637.74134	0.02841
636.45557	0.02873
635.16980	0.02912
633.88403	0.02960
632.59826	0.03016
631.31249	0.03081
630.02673	0.03178
628.74096	0.03290
627.45519	0.03308
626.16942	0.03434
624.88365	0.03661
623.59788	0.03940
622.31211	0.04250
621.02634	0.04556
619.74057	0.04813
618.45481	0.05008
617.16904	0.05180
615.88327	0.05389
614.59750	0.05669
613.31173	0.06019
612.02596	0.06435
610.74019	0.06928
609.45442	0.07508
608.16866	0.08133
606.88289	0.08717
605.59712	0.09183
604.31135	0.09501
603.02558	0.09669
601.73981	0.09683
600.45404	0.09552
599.16827	0.09309
597.88250	0.09008
596.59674	0.08701
595.31097	0.08416
594.02520	0.08165
592.73943	0.07957
591.45366	0.07801
590.16789	0.07702
588.88212	0.07667
587.59635	0.07700
586.31059	0.07806
585.02482	0.07974
583.73905	0.08188
582.45328	0.08428
581.16751	0.08683
579.88174	0.08948
578.59597	0.09221
577.31020	0.09498
576.02443	0.09768
574.73867	0.10031
573.45290	0.10295
572.16713	0.10574
570.88136	0.10873
569.59559	0.11188
568.30982	0.11513
567.02405	0.11849
565.73828	0.12187
564.45251	0.12495
563.16675	0.12723
561.88098	0.12822
560.59521	0.12763
559.30944	0.12536
558.02367	0.12155
556.73790	0.11653
555.45213	0.11071
554.16636	0.10448
552.88060	0.09816
551.59483	0.09198
550.30906	0.08611
549.02329	0.08065
547.73752	0.07566
546.45175	0.07119
545.16598	0.06724
543.88021	0.06375
542.59444	0.06063
541.30868	0.05779
540.02291	0.05525
538.73714	0.05306
537.45137	0.05117
536.16560	0.04943
534.87983	0.04769
533.59406	0.04594
532.30829	0.04428
531.02253	0.04279
529.73676	0.04146
528.45099	0.04025
527.16522	0.03914
525.87945	0.03814
524.59368	0.03724
523.30791	0.03639
522.02214	0.03551
520.73637	0.03458
519.45061	0.03364
518.16484	0.03275
516.87907	0.03197
515.59330	0.03132
514.30753	0.03077
513.02176	0.03024
511.73599	0.02969
510.45022	0.02918
509.16446	0.02874
507.87869	0.02840
506.59292	0.02807
505.30715	0.02766
504.02138	0.02715
502.73561	0.02662
501.44984	0.02620
500.16407	0.02588
498.87830	0.02563
497.59254	0.02538
496.30677	0.02517
495.02100	0.02498
493.73523	0.02478
492.44946	0.02455
491.16369	0.02428
489.87792	0.02399
488.59215	0.02375
487.30639	0.02361
486.02062	0.02357
484.73485	0.02364
483.44908	0.02376
482.16331	0.02391
480.87754	0.02404
479.59177	0.02419
478.30600	0.02437
477.02023	0.02461
475.73447	0.02489
474.44870	0.02519
473.16293	0.02549
471.87716	0.02578
470.59139	0.02597
469.30562	0.02599
468.01985	0.02582
466.73408	0.02551
465.44832	0.02517
464.16255	0.02486
462.87678	0.02460
461.59101	0.02437
460.30524	0.02414
459.01947	0.02386
457.73370	0.02353
456.44793	0.02316
455.16216	0.02280
453.87640	0.02248
452.59063	0.02227
451.30486	0.02214
450.01909	0.02206
448.73332	0.02199
447.44755	0.02192
446.16178	0.02180
444.87601	0.02163
443.59025	0.02142
442.30448	0.02126
441.01871	0.02120
439.73294	0.02121
438.44717	0.02122
437.16140	0.02120
435.87563	0.02117
434.58986	0.02117
433.30409	0.02120
432.01833	0.02124
430.73256	0.02125
429.44679	0.02118
428.16102	0.02104
426.87525	0.02088
425.58948	0.02077
424.30371	0.02074
423.01794	0.02076
421.73218	0.02074
420.44641	0.02061
419.16064	0.02042
417.87487	0.02025
416.58910	0.02017
415.30333	0.02018
414.01756	0.02022
412.73179	0.02023
411.44602	0.02023
410.16026	0.02028
408.87449	0.02040
407.58872	0.02053
406.30295	0.02060
405.01718	0.02064
403.73141	0.02074
402.44564	0.02094
401.15987	0.02120
399.87411	0.02145
