3997.45528	-0.01472
3996.16951	-0.01443
3994.88374	-0.01418
3993.59798	-0.01407
3992.31221	-0.01404
3991.02644	-0.01399
3989.74067	-0.01395
3988.45490	-0.01410
3987.16913	-0.01449
3985.88336	-0.01492
3984.59759	-0.01504
3983.31183	-0.01458
3982.02606	-0.01360
3980.74029	-0.01258
3979.45452	-0.01198
3978.16875	-0.01189
3976.88298	-0.01198
3975.59721	-0.01194
3974.31144	-0.01164
3973.02567	-0.01115
3971.73991	-0.01066
3970.45414	-0.01045
3969.16837	-0.01066
3967.88260	-0.01110
3966.59683	-0.01139
3965.31106	-0.01130
3964.02529	-0.01092
3962.73952	-0.01047
3961.45376	-0.01006
3960.16799	-0.00969
3958.88222	-0.00934
3957.59645	-0.00909
3956.31068	-0.00898
3955.02491	-0.00898
3953.73914	-0.00902
3952.45337	-0.00904
3951.16760	-0.00895
3949.88184	-0.00870
3948.59607	-0.00839
3947.31030	-0.00829
3946.02453	-0.00851
3944.73876	-0.00888
3943.45299	-0.00910
3942.16722	-0.00910
3940.88145	-0.00901
3939.59569	-0.00894
3938.30992	-0.00884
3937.02415	-0.00863
3935.73838	-0.00836
3934.45261	-0.00825
3933.16684	-0.00844
3931.88107	-0.00882
3930.59530	-0.00907
3929.30953	-0.00894
3928.02377	-0.00843
3926.73800	-0.00772
3925.45223	-0.00697
3924.16646	-0.00626
3922.88069	-0.00574
3921.59492	-0.00562
3920.30915	-0.00599
3919.02338	-0.00662
3917.73762	-0.00710
3916.45185	-0.00723
3915.16608	-0.00713
3913.88031	-0.00702
3912.59454	-0.00696
3911.30877	-0.00688
3910.02300	-0.00672
3908.73723	-0.00663
3907.45146	-0.00686
3906.16570	-0.00750
3904.87993	-0.00830
3903.59416	-0.00882
3902.30839	-0.00891
3901.02262	-0.00876
3899.73685	-0.00862
3898.45108	-0.00855
3897.16531	-0.00847
3895.87955	-0.00826
3894.59378	-0.00788
3893.30801	-0.00735
3892.02224	-0.00686
3890.73647	-0.00664
3889.45070	-0.00680
3888.16493	-0.00714
3886.87916	-0.00730
3885.59339	-0.00699
3884.30763	-0.00628
3883.02186	-0.00549
3881.73609	-0.00494
3880.45032	-0.00471
3879.16455	-0.00472
3877.87878	-0.00488
3876.59301	-0.00504
3875.30724	-0.00511
3874.02148	-0.00507
3872.73571	-0.00508
3871.44994	-0.00533
3870.16417	-0.00585
3868.87840	-0.00637
3867.59263	-0.00658
3866.30686	-0.00643
3865.02109	-0.00620
3863.73532	-0.00617
3862.44956	-0.00627
3861.16379	-0.00616
3859.87802	-0.00561
3858.59225	-0.00477
3857.30648	-0.00399
3856.02071	-0.00348
3854.73494	-0.00323
3853.44917	-0.00316
3852.16341	-0.00330
3850.87764	-0.00362
3849.59187	-0.00392
3848.30610	-0.00396
3847.02033	-0.00363
3845.73456	-0.00311
3844.44879	-0.00273
3843.16302	-0.00281
3841.87725	-0.00335
3840.59149	-0.00400
3839.30572	-0.00434
3838.01995	-0.00419
3836.73418	-0.00368
3835.44841	-0.00314
3834.16264	-0.00280
3832.87687	-0.00284
3831.59110	-0.00326
3830.30534	-0.00382
3829.01957	-0.00412
3827.73380	-0.00399
3826.44803	-0.00363
3825.16226	-0.00339
3823.87649	-0.00339
3822.59072	-0.00353
3821.30495	-0.00367
3820.01918	-0.00379
3818.73342	-0.00395
3817.44765	-0.00409
3816.16188	-0.00412
3814.87611	-0.00412
3813.59034	-0.00426
3812.30457	-0.00467
3811.01880	-0.00520
3809.73303	-0.00557
3808.44726	-0.00557
3807.16150	-0.00521
3805.87573	-0.00470
3804.58996	-0.00432
3803.30419	-0.00424
3802.01842	-0.00433
3800.73265	-0.00427
3799.44688	-0.00382
3798.16111	-0.00304
3796.87535	-0.00226
3795.58958	-0.00179
3794.30381	-0.00173
3793.01804	-0.00186
3791.73227	-0.00194
3790.44650	-0.00199
3789.16073	-0.00218
3787.87496	-0.00256
3786.58919	-0.00297
3785.30343	-0.00325
3784.01766	-0.00334
3782.73189	-0.00316
3781.44612	-0.00259
3780.16035	-0.00180
3778.87458	-0.00120
3777.58881	-0.00111
3776.30304	-0.00141
3775.01728	-0.00171
3773.73151	-0.00179
3772.44574	-0.00182
3771.15997	-0.00210
3769.87420	-0.00259
3768.58843	-0.00289
3767.30266	-0.00267
3766.01689	-0.00213
3764.73112	-0.00177
3763.44536	-0.00195
3762.15959	-0.00254
3760.87382	-0.00306
3759.58805	-0.00317
3758.30228	-0.00288
3757.01651	-0.00255
3755.73074	-0.00252
3754.44497	-0.00288
3753.15921	-0.00340
3751.87344	-0.00372
3750.58767	-0.00372
3749.30190	-0.00359
3748.01613	-0.00350
3746.73036	-0.00348
3745.44459	-0.00359
3744.15882	-0.00346
3742.87305	-0.00301
3741.58729	-0.00273
3740.30152	-0.00294
3739.01575	-0.00347
3737.72998	-0.00411
3736.44421	-0.00448
3735.15844	-0.00487
3733.87267	-0.00480
3732.58690	-0.00457
3731.30114	-0.00454
3730.01537	-0.00460
3728.72960	-0.00510
3727.44383	-0.00558
3726.15806	-0.00593
3724.87229	-0.00623
3723.58652	-0.00614
3722.30075	-0.00628
3721.01498	-0.00681
3719.72922	-0.00692
3718.44345	-0.00654
3717.15768	-0.00602
3715.87191	-0.00575
3714.58614	-0.00550
3713.30037	-0.00458
3712.01460	-0.00391
3710.72883	-0.00395
3709.44307	-0.00403
3708.15730	-0.00451
3706.87153	-0.00492
3705.58576	-0.00529
3704.29999	-0.00558
3703.01422	-0.00543
3701.72845	-0.00483
3700.44268	-0.00426
3699.15691	-0.00381
3697.87115	-0.00369
3696.58538	-0.00426
3695.29961	-0.00521
3694.01384	-0.00525
3692.72807	-0.00523
3691.44230	-0.00506
3690.15653	-0.00427
3688.87076	-0.00392
3687.58500	-0.00430
3686.29923	-0.00420
3685.01346	-0.00388
3683.72769	-0.00319
3682.44192	-0.00181
3681.15615	-0.00078
3679.87038	-0.00046
3678.58461	-0.00041
3677.29884	-0.00074
3676.01308	-0.00072
3674.72731	-0.00027
3673.44154	-0.00000
3672.15577	-0.00009
3670.87000	-0.00068
3669.58423	-0.00140
3668.29846	-0.00190
3667.01269	-0.00222
3665.72693	-0.00218
3664.44116	-0.00185
3663.15539	-0.00114
3661.86962	-0.00040
3660.58385	0.00009
3659.29808	0.00041
3658.01231	0.00088
3656.72654	0.00162
3655.44077	0.00236
3654.15501	0.00269
3652.86924	0.00242
3651.58347	0.00171
3650.29770	0.00096
3649.01193	0.00065
3647.72616	0.00102
3646.44039	0.00191
3645.15462	0.00284
3643.86886	0.00309
3642.58309	0.00268
3641.29732	0.00220
3640.01155	0.00219
3638.72578	0.00265
3637.44001	0.00310
3636.15424	0.00311
3634.86847	0.00282
3633.58270	0.00239
3632.29694	0.00220
3631.01117	0.00264
3629.72540	0.00311
3628.43963	0.00358
3627.15386	0.00383
3625.86809	0.00415
3624.58232	0.00409
3623.29655	0.00423
3622.01079	0.00450
3620.72502	0.00526
3619.43925	0.00587
3618.15348	0.00624
3616.86771	0.00633
3615.58194	0.00603
3614.29617	0.00555
3613.01040	0.00553
3611.72463	0.00643
3610.43887	0.00740
3609.15310	0.00776
3607.86733	0.00760
3606.58156	0.00762
3605.29579	0.00787
3604.01002	0.00810
3602.72425	0.00875
3601.43848	0.00969
3600.15272	0.01043
3598.86695	0.01053
3597.58118	0.01029
3596.29541	0.00922
3595.00964	0.00823
3593.72387	0.00811
3592.43810	0.00818
3591.15233	0.00822
3589.86656	0.00845
3588.58080	0.00864
3587.29503	0.00921
3586.00926	0.01009
3584.72349	0.01103
3583.43772	0.01146
3582.15195	0.01158
3580.86618	0.01194
3579.58041	0.01261
3578.29464	0.01340
3577.00888	0.01425
3575.72311	0.01467
3574.43734	0.01472
3573.15157	0.01461
3571.86580	0.01453
3570.58003	0.01482
3569.29426	0.01538
3568.00849	0.01580
3566.72273	0.01587
3565.43696	0.01560
3564.15119	0.01564
3562.86542	0.01621
3561.57965	0.01703
3560.29388	0.01755
3559.00811	0.01751
3557.72234	0.01713
3556.43657	0.01688
3555.15081	0.01702
3553.86504	0.01742
3552.57927	0.01773
3551.29350	0.01785
3550.00773	0.01799
3548.72196	0.01829
3547.43619	0.01862
3546.15042	0.01875
3544.86466	0.01863
3543.57889	0.01840
3542.29312	0.01822
3541.00735	0.01816
3539.72158	0.01831
3538.43581	0.01878
3537.15004	0.01961
3535.86427	0.02066
3534.57850	0.02165
3533.29274	0.02231
3532.00697	0.02248
3530.72120	0.02219
3529.43543	0.02173
3528.14966	0.02148
3526.86389	0.02162
3525.57812	0.02205
3524.29235	0.02255
3523.00659	0.02299
3521.72082	0.02333
3520.43505	0.02347
3519.14928	0.02328
3517.86351	0.02285
3516.57774	0.02260
3515.29197	0.02294
3514.00620	0.02383
3512.72043	0.02483
3511.43467	0.02546
3510.14890	0.02549
3508.86313	0.02493
3507.57736	0.02401
3506.29159	0.02326
3505.00582	0.02318
3503.72005	0.02391
3502.43428	0.02502
3501.14852	0.02597
3499.86275	0.02652
3498.57698	0.02675
3497.29121	0.02690
3496.00544	0.02710
3494.71967	0.02735
3493.43390	0.02749
3492.14813	0.02735
3490.86236	0.02685
3489.57660	0.02619
3488.29083	0.02568
3487.00506	0.02560
3485.71929	0.02605
3484.43352	0.02687
3483.14775	0.02777
3481.86198	0.02846
3480.57621	0.02883
3479.29045	0.02894
3478.00468	0.02894
3476.71891	0.02893
3475.43314	0.02893
3474.14737	0.02896
3472.86160	0.02906
3471.57583	0.02923
3470.29006	0.02948
3469.00429	0.02978
3467.71853	0.03004
3466.43276	0.03010
3465.14699	0.02990
3463.86122	0.02965
3462.57545	0.02965
3461.28968	0.02993
3460.00391	0.03026
3458.71814	0.03048
3457.43238	0.03065
3456.14661	0.03085
3454.86084	0.03098
3453.57507	0.03094
3452.28930	0.03081
3451.00353	0.03082
3449.71776	0.03103
3448.43199	0.03129
3447.14622	0.03142
3445.86046	0.03140
3444.57469	0.03135
3443.28892	0.03146
3442.00315	0.03180
3440.71738	0.03235
3439.43161	0.03290
3438.14584	0.03314
3436.86007	0.03290
3435.57431	0.03231
3434.28854	0.03176
3433.00277	0.03153
3431.71700	0.03163
3430.43123	0.03193
3429.14546	0.03233
3427.85969	0.03284
3426.57392	0.03351
3425.28815	0.03434
3424.00239	0.03515
3422.71662	0.03560
3421.43085	0.03552
3420.14508	0.03511
3418.85931	0.03482
3417.57354	0.03488
3416.28777	0.03511
3415.00200	0.03521
3413.71624	0.03521
3412.43047	0.03532
3411.14470	0.03565
3409.85893	0.03605
3408.57316	0.03632
3407.28739	0.03648
3406.00162	0.03669
3404.71585	0.03701
3403.43008	0.03726
3402.14432	0.03728
3400.85855	0.03709
3399.57278	0.03672
3398.28701	0.03620
3397.00124	0.03560
3395.71547	0.03513
3394.42970	0.03503
3393.14393	0.03534
3391.85817	0.03591
3390.57240	0.03645
3389.28663	0.03679
3388.00086	0.03689
3386.71509	0.03694
3385.42932	0.03708
3384.14355	0.03724
3382.85778	0.03724
3381.57201	0.03701
3380.28625	0.03672
3379.00048	0.03662
3377.71471	0.03671
3376.42894	0.03679
3375.14317	0.03668
3373.85740	0.03649
3372.57163	0.03647
3371.28586	0.03670
3370.00010	0.03715
3368.71433	0.03772
3367.42856	0.03833
3366.14279	0.03874
3364.85702	0.03877
3363.57125	0.03842
3362.28548	0.03795
3360.99971	0.03759
3359.71394	0.03745
3358.42818	0.03746
3357.14241	0.03757
3355.85664	0.03781
3354.57087	0.03825
3353.28510	0.03888
3351.99933	0.03947
3350.71356	0.03978
3349.42779	0.03970
3348.14202	0.03935
3346.85626	0.03893
3345.57049	0.03862
3344.28472	0.03853
3342.99895	0.03868
3341.71318	0.03897
3340.42741	0.03916
3339.14164	0.03903
3337.85587	0.03864
3336.57011	0.03831
3335.28434	0.03832
3333.99857	0.03871
3332.71280	0.03927
3331.42703	0.03973
3330.14126	0.03984
3328.85549	0.03954
3327.56972	0.03900
3326.28395	0.03861
3324.99819	0.03871
3323.71242	0.03927
3322.42665	0.03995
3321.14088	0.04039
3319.85511	0.04048
3318.56934	0.04036
3317.28357	0.04020
3315.99780	0.03998
3314.71204	0.03969
3313.42627	0.03942
3312.14050	0.03944
3310.85473	0.03983
3309.56896	0.04036
3308.28319	0.04061
3306.99742	0.04039
3305.71165	0.03985
3304.42588	0.03923
3303.14012	0.03868
3301.85435	0.03824
3300.56858	0.03801
3299.28281	0.03804
3297.99704	0.03825
3296.71127	0.03848
3295.42550	0.03869
3294.13973	0.03896
3292.85397	0.03929
3291.56820	0.03956
3290.28243	0.03963
3288.99666	0.03942
3287.71089	0.03896
3286.42512	0.03838
3285.13935	0.03797
3283.85358	0.03795
3282.56781	0.03825
3281.28205	0.03853
3279.99628	0.03853
3278.71051	0.03833
3277.42474	0.03820
3276.13897	0.03833
3274.85320	0.03859
3273.56743	0.03881
3272.28166	0.03893
3270.99590	0.03904
3269.71013	0.03918
3268.42436	0.03928
3267.13859	0.03931
3265.85282	0.03942
3264.56705	0.03973
3263.28128	0.04012
3261.99551	0.04030
3260.70974	0.04018
3259.42398	0.03994
3258.13821	0.03989
3256.85244	0.04006
3255.56667	0.04024
3254.28090	0.04013
3252.99513	0.03966
3251.70936	0.03906
3250.42359	0.03864
3249.13783	0.03855
3247.85206	0.03865
3246.56629	0.03869
3245.28052	0.03852
3243.99475	0.03822
3242.70898	0.03792
3241.42321	0.03770
3240.13744	0.03758
3238.85167	0.03755
3237.56591	0.03764
3236.28014	0.03788
3234.99437	0.03825
3233.70860	0.03866
3232.42283	0.03896
3231.13706	0.03907
3229.85129	0.03903
3228.56552	0.03887
3227.27976	0.03858
3225.99399	0.03813
3224.70822	0.03759
3223.42245	0.03712
3222.13668	0.03684
3220.85091	0.03672
3219.56514	0.03665
3218.27937	0.03654
3216.99360	0.03644
3215.70784	0.03651
3214.42207	0.03682
3213.13630	0.03725
3211.85053	0.03754
3210.56476	0.03755
3209.27899	0.03739
3207.99322	0.03719
3206.70745	0.03703
3205.42169	0.03686
3204.13592	0.03666
3202.85015	0.03652
3201.56438	0.03655
3200.27861	0.03679
3198.99284	0.03714
3197.70707	0.03740
3196.42130	0.03747
3195.13553	0.03740
3193.84977	0.03736
3192.56400	0.03745
3191.27823	0.03761
3189.99246	0.03768
3188.70669	0.03760
3187.42092	0.03744
3186.13515	0.03730
3184.84938	0.03711
3183.56362	0.03679
3182.27785	0.03644
3180.99208	0.03633
3179.70631	0.03660
3178.42054	0.03701
3177.13477	0.03714
3175.84900	0.03681
3174.56323	0.03627
3173.27746	0.03598
3171.99170	0.03617
3170.70593	0.03665
3169.42016	0.03704
3168.13439	0.03708
3166.84862	0.03689
3165.56285	0.03672
3164.27708	0.03671
3162.99131	0.03673
3161.70555	0.03659
3160.41978	0.03625
3159.13401	0.03588
3157.84824	0.03568
3156.56247	0.03569
3155.27670	0.03577
3153.99093	0.03576
3152.70516	0.03564
3151.41939	0.03551
3150.13363	0.03543
3148.84786	0.03538
3147.56209	0.03527
3146.27632	0.03513
3144.99055	0.03511
3143.70478	0.03528
3142.41901	0.03552
3141.13324	0.03565
3139.84748	0.03558
3138.56171	0.03541
3137.27594	0.03526
3135.99017	0.03520
3134.70440	0.03519
3133.41863	0.03518
3132.13286	0.03507
3130.84709	0.03486
3129.56132	0.03461
3128.27556	0.03444
3126.98979	0.03439
3125.70402	0.03441
3124.41825	0.03448
3123.13248	0.03466
3121.84671	0.03496
3120.56094	0.03523
3119.27517	0.03530
3117.98940	0.03515
3116.70364	0.03496
3115.41787	0.03485
3114.13210	0.03482
3112.84633	0.03478
3111.56056	0.03477
3110.27479	0.03487
3108.98902	0.03509
3107.70325	0.03528
3106.41749	0.03526
3105.13172	0.03497
3103.84595	0.03453
3102.56018	0.03411
3101.27441	0.03388
3099.98864	0.03397
3098.70287	0.03433
3097.41710	0.03470
3096.13133	0.03481
3094.84557	0.03457
3093.55980	0.03414
3092.27403	0.03377
3090.98826	0.03366
3089.70249	0.03385
3088.41672	0.03416
3087.13095	0.03437
3085.84518	0.03437
3084.55942	0.03426
3083.27365	0.03420
3081.98788	0.03421
3080.70211	0.03415
3079.41634	0.03398
3078.13057	0.03377
3076.84480	0.03358
3075.55903	0.03343
3074.27326	0.03324
3072.98750	0.03298
3071.70173	0.03263
3070.41596	0.03227
3069.13019	0.03208
3067.84442	0.03225
3066.55865	0.03272
3065.27288	0.03318
3063.98711	0.03330
3062.70135	0.03309
3061.41558	0.03279
3060.12981	0.03262
3058.84404	0.03258
3057.55827	0.03256
3056.27250	0.03247
3054.98673	0.03232
3053.70096	0.03217
3052.41519	0.03206
3051.12943	0.03205
3049.84366	0.03218
3048.55789	0.03243
3047.27212	0.03270
3045.98635	0.03282
3044.70058	0.03268
3043.41481	0.03226
3042.12904	0.03173
3040.84328	0.03132
3039.55751	0.03115
3038.27174	0.03115
3036.98597	0.03117
3035.70020	0.03109
3034.41443	0.03098
3033.12866	0.03104
3031.84289	0.03136
3030.55712	0.03185
3029.27136	0.03223
3027.98559	0.03229
3026.69982	0.03204
3025.41405	0.03165
3024.12828	0.03127
3022.84251	0.03102
3021.55674	0.03097
3020.27097	0.03114
3018.98521	0.03144
3017.69944	0.03163
3016.41367	0.03154
3015.12790	0.03123
3013.84213	0.03093
3012.55636	0.03076
3011.27059	0.03067
3009.98482	0.03061
3008.69905	0.03062
3007.41329	0.03079
3006.12752	0.03106
3004.84175	0.03122
3003.55598	0.03106
3002.27021	0.03058
3000.98444	0.02998
2999.69867	0.02949
2998.41290	0.02922
2997.12714	0.02917
2995.84137	0.02938
2994.55560	0.02984
2993.26983	0.03040
2991.98406	0.03079
2990.69829	0.03085
2989.41252	0.03060
2988.12675	0.03027
2986.84098	0.03012
2985.55522	0.03028
2984.26945	0.03067
2982.98368	0.03110
2981.69791	0.03144
2980.41214	0.03169
2979.12637	0.03187
2977.84060	0.03199
2976.55483	0.03212
2975.26907	0.03227
2973.98330	0.03244
2972.69753	0.03261
2971.41176	0.03279
2970.12599	0.03302
2968.84022	0.03331
2967.55445	0.03366
2966.26868	0.03407
2964.98291	0.03446
2963.69715	0.03472
2962.41138	0.03483
2961.12561	0.03486
2959.83984	0.03490
2958.55407	0.03497
2957.26830	0.03504
2955.98253	0.03509
2954.69676	0.03508
2953.41100	0.03495
2952.12523	0.03476
2950.83946	0.03466
2949.55369	0.03481
2948.26792	0.03520
2946.98215	0.03557
2945.69638	0.03566
2944.41061	0.03538
2943.12484	0.03495
2941.83908	0.03471
2940.55331	0.03485
2939.26754	0.03530
2937.98177	0.03586
2936.69600	0.03627
2935.41023	0.03632
2934.12446	0.03603
2932.83869	0.03571
2931.55293	0.03567
2930.26716	0.03594
2928.98139	0.03628
2927.69562	0.03655
2926.40985	0.03684
2925.12408	0.03722
2923.83831	0.03759
2922.55254	0.03784
2921.26677	0.03797
2919.98101	0.03799
2918.69524	0.03784
2917.40947	0.03750
2916.12370	0.03702
2914.83793	0.03649
2913.55216	0.03592
2912.26639	0.03531
2910.98062	0.03477
2909.69486	0.03446
2908.40909	0.03443
2907.12332	0.03450
2905.83755	0.03446
2904.55178	0.03423
2903.26601	0.03391
2901.98024	0.03364
2900.69447	0.03342
2899.40870	0.03317
2898.12294	0.03284
2896.83717	0.03254
2895.55140	0.03234
2894.26563	0.03222
2892.97986	0.03207
2891.69409	0.03185
2890.40832	0.03160
2889.12255	0.03146
2887.83678	0.03147
2886.55102	0.03158
2885.26525	0.03165
2883.97948	0.03158
2882.69371	0.03134
2881.40794	0.03110
2880.12217	0.03104
2878.83640	0.03129
2877.55063	0.03176
2876.26487	0.03217
2874.97910	0.03231
2873.69333	0.03220
2872.40756	0.03202
2871.12179	0.03194
2869.83602	0.03195
2868.55025	0.03197
2867.26448	0.03189
2865.97871	0.03172
2864.69295	0.03158
2863.40718	0.03160
2862.12141	0.03178
2860.83564	0.03192
2859.54987	0.03187
2858.26410	0.03168
2856.97833	0.03147
2855.69256	0.03129
2854.40680	0.03112
2853.12103	0.03098
2851.83526	0.03095
2850.54949	0.03098
2849.26372	0.03093
2847.97795	0.03068
2846.69218	0.03023
2845.40641	0.02969
2844.12064	0.02918
2842.83488	0.02874
2841.54911	0.02840
2840.26334	0.02824
2838.97757	0.02824
2837.69180	0.02825
2836.40603	0.02812
2835.12026	0.02787
2833.83449	0.02762
2832.54873	0.02739
2831.26296	0.02715
2829.97719	0.02690
2828.69142	0.02676
2827.40565	0.02679
2826.11988	0.02688
2824.83411	0.02687
2823.54834	0.02673
2822.26257	0.02657
2820.97681	0.02645
2819.69104	0.02631
2818.40527	0.02605
2817.11950	0.02573
2815.83373	0.02552
2814.54796	0.02553
2813.26219	0.02568
2811.97642	0.02580
2810.69066	0.02586
2809.40489	0.02592
2808.11912	0.02601
2806.83335	0.02609
2805.54758	0.02604
2804.26181	0.02584
2802.97604	0.02557
2801.69027	0.02534
2800.40450	0.02520
2799.11874	0.02514
2797.83297	0.02512
2796.54720	0.02509
2795.26143	0.02498
2793.97566	0.02476
2792.68989	0.02447
2791.40412	0.02421
2790.11835	0.02414
2788.83259	0.02431
2787.54682	0.02463
2786.26105	0.02492
2784.97528	0.02504
2783.68951	0.02501
2782.40374	0.02495
2781.11797	0.02488
2779.83220	0.02477
2778.54643	0.02453
2777.26067	0.02413
2775.97490	0.02368
2774.68913	0.02340
2773.40336	0.02345
2772.11759	0.02377
2770.83182	0.02411
2769.54605	0.02421
2768.26028	0.02407
2766.97452	0.02388
2765.68875	0.02382
2764.40298	0.02389
2763.11721	0.02394
2761.83144	0.02383
2760.54567	0.02359
2759.25990	0.02340
2757.97413	0.02341
2756.68836	0.02354
2755.40260	0.02360
2754.11683	0.02343
2752.83106	0.02315
2751.54529	0.02296
2750.25952	0.02298
2748.97375	0.02312
2747.68798	0.02327
2746.40221	0.02335
2745.11645	0.02341
2743.83068	0.02349
2742.54491	0.02353
2741.25914	0.02343
2739.97337	0.02320
2738.68760	0.02301
2737.40183	0.02305
2736.11606	0.02333
2734.83029	0.02369
2733.54453	0.02392
2732.25876	0.02391
2730.97299	0.02361
2729.68722	0.02310
2728.40145	0.02263
2727.11568	0.02238
2725.82991	0.02236
2724.54414	0.02237
2723.25838	0.02228
2721.97261	0.02215
2720.68684	0.02217
2719.40107	0.02239
2718.11530	0.02267
2716.82953	0.02286
2715.54376	0.02295
2714.25799	0.02303
2712.97222	0.02310
2711.68646	0.02306
2710.40069	0.02281
2709.11492	0.02245
2707.82915	0.02218
2706.54338	0.02212
2705.25761	0.02221
2703.97184	0.02228
2702.68607	0.02221
2701.40031	0.02204
2700.11454	0.02189
2698.82877	0.02180
2697.54300	0.02182
2696.25723	0.02194
2694.97146	0.02215
2693.68569	0.02232
2692.39992	0.02233
2691.11415	0.02215
2689.82839	0.02193
2688.54262	0.02182
2687.25685	0.02184
2685.97108	0.02185
2684.68531	0.02173
2683.39954	0.02150
2682.11377	0.02128
2680.82800	0.02116
2679.54224	0.02112
2678.25647	0.02115
2676.97070	0.02123
2675.68493	0.02134
2674.39916	0.02142
2673.11339	0.02145
2671.82762	0.02149
2670.54185	0.02160
2669.25608	0.02174
2667.97032	0.02182
2666.68455	0.02178
2665.39878	0.02169
2664.11301	0.02162
2662.82724	0.02161
2661.54147	0.02171
2660.25570	0.02192
2658.96993	0.02216
2657.68417	0.02225
2656.39840	0.02213
2655.11263	0.02187
2653.82686	0.02161
2652.54109	0.02146
2651.25532	0.02141
2649.96955	0.02141
2648.68378	0.02137
2647.39801	0.02125
2646.11225	0.02104
2644.82648	0.02076
2643.54071	0.02049
2642.25494	0.02032
2640.96917	0.02028
2639.68340	0.02034
2638.39763	0.02036
2637.11186	0.02020
2635.82609	0.01986
2634.54033	0.01947
2633.25456	0.01921
2631.96879	0.01913
2630.68302	0.01916
2629.39725	0.01920
2628.11148	0.01919
2626.82571	0.01904
2625.53994	0.01876
2624.25418	0.01846
2622.96841	0.01821
2621.68264	0.01804
2620.39687	0.01793
2619.11110	0.01787
2617.82533	0.01790
2616.53956	0.01800
2615.25379	0.01818
2613.96802	0.01836
2612.68226	0.01844
2611.39649	0.01832
2610.11072	0.01810
2608.82495	0.01794
2607.53918	0.01788
2606.25341	0.01783
2604.96764	0.01771
2603.68187	0.01757
2602.39611	0.01749
2601.11034	0.01747
2599.82457	0.01744
2598.53880	0.01736
2597.25303	0.01722
2595.96726	0.01702
2594.68149	0.01678
2593.39572	0.01660
2592.10995	0.01661
2590.82419	0.01686
2589.53842	0.01719
2588.25265	0.01739
2586.96688	0.01735
2585.68111	0.01720
2584.39534	0.01712
2583.10957	0.01721
2581.82380	0.01738
2580.53804	0.01737
2579.25227	0.01700
2577.96650	0.01634
2576.68073	0.01571
2575.39496	0.01550
2574.10919	0.01580
2572.82342	0.01627
2571.53765	0.01640
2570.25188	0.01603
2568.96612	0.01548
2567.68035	0.01526
2566.39458	0.01559
2565.10881	0.01627
2563.82304	0.01686
2562.53727	0.01708
2561.25150	0.01689
2559.96573	0.01643
2558.67997	0.01590
2557.39420	0.01553
2556.10843	0.01544
2554.82266	0.01555
2553.53689	0.01568
2552.25112	0.01576
2550.96535	0.01572
2549.67958	0.01550
2548.39381	0.01512
2547.10805	0.01478
2545.82228	0.01474
2544.53651	0.01500
2543.25074	0.01528
2541.96497	0.01533
2540.67920	0.01509
2539.39343	0.01468
2538.10766	0.01431
2536.82190	0.01409
2535.53613	0.01404
2534.25036	0.01404
2532.96459	0.01396
2531.67882	0.01378
2530.39305	0.01359
2529.10728	0.01358
2527.82151	0.01383
2526.53574	0.01426
2525.24998	0.01470
2523.96421	0.01509
2522.67844	0.01537
2521.39267	0.01543
2520.10690	0.01521
2518.82113	0.01481
2517.53536	0.01443
2516.24959	0.01421
2514.96383	0.01416
2513.67806	0.01418
2512.39229	0.01422
2511.10652	0.01427
2509.82075	0.01430
2508.53498	0.01426
2507.24921	0.01415
2505.96344	0.01406
2504.67767	0.01419
2503.39191	0.01460
2502.10614	0.01505
2500.82037	0.01519
2499.53460	0.01497
2498.24883	0.01467
2496.96306	0.01457
2495.67729	0.01466
2494.39152	0.01485
2493.10576	0.01515
2491.81999	0.01549
2490.53422	0.01565
2489.24845	0.01551
2487.96268	0.01522
2486.67691	0.01498
2485.39114	0.01482
2484.10537	0.01461
2482.81960	0.01432
2481.53384	0.01402
2480.24807	0.01380
2478.96230	0.01371
2477.67653	0.01373
2476.39076	0.01377
2475.10499	0.01382
2473.81922	0.01388
2472.53345	0.01399
2471.24769	0.01414
2469.96192	0.01433
2468.67615	0.01450
2467.39038	0.01459
2466.10461	0.01457
2464.81884	0.01448
2463.53307	0.01434
2462.24730	0.01418
2460.96153	0.01410
2459.67577	0.01423
2458.39000	0.01459
2457.10423	0.01505
2455.81846	0.01535
2454.53269	0.01529
2453.24692	0.01494
2451.96115	0.01455
2450.67538	0.01437
2449.38962	0.01441
2448.10385	0.01449
2446.81808	0.01441
2445.53231	0.01418
2444.24654	0.01388
2442.96077	0.01363
2441.67500	0.01347
2440.38923	0.01341
2439.10346	0.01349
2437.81770	0.01370
2436.53193	0.01394
2435.24616	0.01407
2433.96039	0.01408
2432.67462	0.01406
2431.38885	0.01415
2430.10308	0.01431
2428.81731	0.01442
2427.53155	0.01436
2426.24578	0.01413
2424.96001	0.01384
2423.67424	0.01361
2422.38847	0.01355
2421.10270	0.01374
2419.81693	0.01409
2418.53116	0.01438
2417.24539	0.01440
2415.95963	0.01414
2414.67386	0.01378
2413.38809	0.01354
2412.10232	0.01356
2410.81655	0.01385
2409.53078	0.01423
2408.24501	0.01447
2406.95924	0.01446
2405.67347	0.01425
2404.38771	0.01392
2403.10194	0.01358
2401.81617	0.01336
2400.53040	0.01341
2399.24463	0.01429
2397.95886	0.01499
2396.67309	0.01518
2395.38732	0.01501
2394.10156	0.01464
2392.81579	0.01414
2391.53002	0.01358
2390.24425	0.01301
2388.95848	0.01250
2387.67271	0.01201
2386.38694	0.01151
2385.10117	0.01108
2383.81540	0.01077
2382.52964	0.01065
2381.24387	0.01055
2379.95810	0.01071
2378.67233	0.01086
2377.38656	0.01043
2376.10079	0.01044
2374.81502	0.01095
2373.52925	0.01045
2372.24349	0.00971
2370.95772	0.00804
2369.67195	0.00836
2368.38618	0.00964
2367.10041	0.00856
2365.81464	0.00571
2364.52887	0.00562
2363.24310	0.00607
2361.95733	0.00395
2360.67157	0.00044
2359.38580	0.00100
2358.10003	0.00367
2356.81426	0.00592
2355.52849	0.00799
2354.24272	0.00876
2352.95695	0.00886
2351.67118	0.00628
2350.38542	-0.00234
2349.09965	-0.00840
2347.81388	-0.00149
2346.52811	0.00912
2345.24234	0.01231
2343.95657	0.00897
2342.67080	0.00739
2341.38503	0.00822
2340.09926	0.00807
2338.81350	0.00716
2337.52773	0.00566
2336.24196	0.00566
2334.95619	0.00567
2333.67042	0.00496
2332.38465	0.00680
2331.09888	0.00813
2329.81311	0.00758
2328.52735	0.00944
2327.24158	0.00949
2325.95581	0.00791
2324.67004	0.00973
2323.38427	0.01148
2322.09850	0.01121
2320.81273	0.01388
2319.52696	0.01411
2318.24119	0.01163
2316.95543	0.01138
2315.66966	0.01101
2314.38389	0.01086
2313.09812	0.01172
2311.81235	0.01116
2310.52658	0.01170
2309.24081	0.01212
2307.95504	0.01142
2306.66928	0.01209
2305.38351	0.01150
2304.09774	0.01081
2302.81197	0.01088
2301.52620	0.01070
2300.24043	0.01081
2298.95466	0.01034
2297.66889	0.01022
2296.38312	0.01048
2295.09736	0.01088
2293.81159	0.01148
2292.52582	0.01172
2291.24005	0.01197
2289.95428	0.01198
2288.66851	0.01190
2287.38274	0.01179
2286.09697	0.01174
2284.81121	0.01174
2283.52544	0.01178
2282.23967	0.01188
2280.95390	0.01182
2279.66813	0.01167
2278.38236	0.01145
2277.09659	0.01144
2275.81082	0.01151
2274.52505	0.01150
2273.23929	0.01142
2271.95352	0.01125
2270.66775	0.01104
2269.38198	0.01087
2268.09621	0.01093
2266.81044	0.01105
2265.52467	0.01099
2264.23890	0.01074
2262.95314	0.01037
2261.66737	0.01014
2260.38160	0.01027
2259.09583	0.01054
2257.81006	0.01062
2256.52429	0.01027
2255.23852	0.00970
2253.95275	0.00891
2252.66698	0.00833
2251.38122	0.00834
2250.09545	0.00874
2248.80968	0.00931
2247.52391	0.00940
2246.23814	0.00946
2244.95237	0.00968
2243.66660	0.00998
2242.38083	0.01003
2241.09507	0.00964
2239.80930	0.00895
2238.52353	0.00828
2237.23776	0.00793
2235.95199	0.00795
2234.66622	0.00819
2233.38045	0.00845
2232.09468	0.00866
2230.80891	0.00883
2229.52315	0.00885
2228.23738	0.00862
2226.95161	0.00831
2225.66584	0.00826
2224.38007	0.00850
2223.09430	0.00859
2221.80853	0.00811
2220.52276	0.00729
2219.23700	0.00699
2217.95123	0.00768
2216.66546	0.00882
2215.37969	0.00934
2214.09392	0.00872
2212.80815	0.00745
2211.52238	0.00646
2210.23661	0.00620
2208.95084	0.00646
2207.66508	0.00681
2206.37931	0.00698
2205.09354	0.00691
2203.80777	0.00664
2202.52200	0.00623
2201.23623	0.00579
2199.95046	0.00537
2198.66469	0.00502
2197.37893	0.00491
2196.09316	0.00523
2194.80739	0.00588
2193.52162	0.00644
2192.23585	0.00659
2190.95008	0.00639
2189.66431	0.00603
2188.37854	0.00550
2187.09277	0.00472
2185.80701	0.00379
2184.52124	0.00292
2183.23547	0.00228
2181.94970	0.00203
2180.66393	0.00216
2179.37816	0.00235
2178.09239	0.00225
2176.80662	0.00180
2175.52085	0.00125
2174.23509	0.00089
2172.94932	0.00084
2171.66355	0.00101
2170.37778	0.00125
2169.09201	0.00138
2167.80624	0.00124
2166.52047	0.00072
2165.23470	-0.00014
2163.94894	-0.00104
2162.66317	-0.00160
2161.37740	-0.00174
2160.09163	-0.00186
2158.80586	-0.00238
2157.52009	-0.00331
2156.23432	-0.00422
2154.94855	-0.00455
2153.66278	-0.00403
2152.37702	-0.00280
2151.09125	-0.00131
2149.80548	0.00002
2148.51971	0.00106
2147.23394	0.00186
2145.94817	0.00245
2144.66240	0.00282
2143.37663	0.00303
2142.09087	0.00333
2140.80510	0.00402
2139.51933	0.00514
2138.23356	0.00616
2136.94779	0.00637
2135.66202	0.00553
2134.37625	0.00422
2133.09048	0.00324
2131.80471	0.00296
2130.51895	0.00320
2129.23318	0.00362
2127.94741	0.00396
2126.66164	0.00418
2125.37587	0.00431
2124.09010	0.00440
2122.80433	0.00446
2121.51856	0.00453
2120.23280	0.00469
2118.94703	0.00499
2117.66126	0.00537
2116.37549	0.00574
2115.08972	0.00611
2113.80395	0.00651
2112.51818	0.00678
2111.23241	0.00675
2109.94664	0.00654
2108.66088	0.00646
2107.37511	0.00666
2106.08934	0.00697
2104.80357	0.00712
2103.51780	0.00701
2102.23203	0.00683
2100.94626	0.00668
2099.66049	0.00656
2098.37473	0.00614
2097.08896	0.00545
2095.80319	0.00485
2094.51742	0.00465
2093.23165	0.00493
2091.94588	0.00541
2090.66011	0.00573
2089.37434	0.00571
2088.08857	0.00550
2086.80281	0.00535
2085.51704	0.00533
2084.23127	0.00529
2082.94550	0.00516
2081.65973	0.00510
2080.37396	0.00526
2079.08819	0.00552
2077.80242	0.00555
2076.51666	0.00516
2075.23089	0.00444
2073.94512	0.00371
2072.65935	0.00321
2071.37358	0.00302
2070.08781	0.00314
2068.80204	0.00357
2067.51627	0.00421
2066.23050	0.00473
2064.94474	0.00476
2063.65897	0.00427
2062.37320	0.00363
2061.08743	0.00330
2059.80166	0.00339
2058.51589	0.00364
2057.23012	0.00362
2055.94435	0.00318
2054.65859	0.00254
2053.37282	0.00215
2052.08705	0.00222
2050.80128	0.00252
2049.51551	0.00252
2048.22974	0.00196
2046.94397	0.00104
2045.65820	0.00019
2044.37243	-0.00023
2043.08667	-0.00011
2041.80090	0.00041
2040.51513	0.00088
2039.22936	0.00078
2037.94359	0.00006
2036.65782	-0.00073
2035.37205	-0.00094
2034.08628	-0.00046
2032.80052	0.00028
2031.51475	0.00085
2030.22898	0.00104
2028.94321	0.00079
2027.65744	0.00014
2026.37167	-0.00057
2025.08590	-0.00083
2023.80013	-0.00033
2022.51436	0.00067
2021.22860	0.00159
2019.94283	0.00194
2018.65706	0.00165
2017.37129	0.00093
2016.08552	0.00002
2014.79975	-0.00093
2013.51398	-0.00172
2012.22821	-0.00195
2010.94245	-0.00135
2009.65668	-0.00022
2008.37091	0.00063
2007.08514	0.00064
2005.79937	-0.00000
2004.51360	-0.00062
2003.22783	-0.00070
2001.94206	-0.00022
2000.65629	0.00065
1999.37053	0.00172
1998.08476	0.00284
1996.79899	0.00381
1995.51322	0.00445
1994.22745	0.00473
1992.94168	0.00474
1991.65591	0.00461
1990.37014	0.00440
1989.08438	0.00426
1987.79861	0.00432
1986.51284	0.00448
1985.22707	0.00447
1983.94130	0.00423
1982.65553	0.00405
1981.36976	0.00426
1980.08399	0.00475
1978.79822	0.00514
1977.51246	0.00510
1976.22669	0.00466
1974.94092	0.00407
1973.65515	0.00361
1972.36938	0.00349
1971.08361	0.00380
1969.79784	0.00443
1968.51207	0.00515
1967.22631	0.00582
1965.94054	0.00646
1964.65477	0.00701
1963.36900	0.00725
1962.08323	0.00711
1960.79746	0.00686
1959.51169	0.00677
1958.22592	0.00670
1956.94015	0.00633
1955.65439	0.00565
1954.36862	0.00505
1953.08285	0.00483
1951.79708	0.00494
1950.51131	0.00517
1949.22554	0.00528
1947.93977	0.00516
1946.65400	0.00485
1945.36823	0.00466
1944.08247	0.00492
1942.79670	0.00569
1941.51093	0.00657
1940.22516	0.00709
1938.93939	0.00713
1937.65362	0.00694
1936.36785	0.00683
1935.08208	0.00686
1933.79632	0.00689
1932.51055	0.00685
1931.22478	0.00673
1929.93901	0.00654
1928.65324	0.00626
1927.36747	0.00596
1926.08170	0.00574
1924.79593	0.00568
1923.51016	0.00574
1922.22440	0.00587
1920.93863	0.00607
1919.65286	0.00630
1918.36709	0.00654
1917.08132	0.00674
1915.79555	0.00692
1914.50978	0.00709
1913.22401	0.00724
1911.93825	0.00727
1910.65248	0.00711
1909.36671	0.00687
1908.08094	0.00678
1906.79517	0.00699
1905.50940	0.00742
1904.22363	0.00787
1902.93786	0.00823
1901.65209	0.00854
1900.36633	0.00883
1899.08056	0.00908
1897.79479	0.00916
1896.50902	0.00900
1895.22325	0.00860
1893.93748	0.00806
1892.65171	0.00762
1891.36594	0.00746
1890.08018	0.00764
1888.79441	0.00804
1887.50864	0.00843
1886.22287	0.00864
1884.93710	0.00863
1883.65133	0.00851
1882.36556	0.00839
1881.07979	0.00830
1879.79402	0.00819
1878.50826	0.00804
1877.22249	0.00792
1875.93672	0.00794
1874.65095	0.00811
1873.36518	0.00840
1872.07941	0.00874
1870.79364	0.00905
1869.50787	0.00920
1868.22211	0.00910
1866.93634	0.00882
1865.65057	0.00853
1864.36480	0.00842
1863.07903	0.00851
1861.79326	0.00864
1860.50749	0.00866
1859.22172	0.00857
1857.93595	0.00851
1856.65019	0.00857
1855.36442	0.00868
1854.07865	0.00871
1852.79288	0.00866
1851.50711	0.00865
1850.22134	0.00878
1848.93557	0.00904
1847.64980	0.00930
1846.36404	0.00941
1845.07827	0.00931
1843.79250	0.00909
1842.50673	0.00887
1841.22096	0.00878
1839.93519	0.00881
1838.64942	0.00888
1837.36365	0.00889
1836.07788	0.00880
1834.79212	0.00866
1833.50635	0.00860
1832.22058	0.00870
1830.93481	0.00894
1829.64904	0.00918
1828.36327	0.00926
1827.07750	0.00914
1825.79173	0.00894
1824.50597	0.00882
1823.22020	0.00884
1821.93443	0.00892
1820.64866	0.00889
1819.36289	0.00869
1818.07712	0.00840
1816.79135	0.00820
1815.50558	0.00821
1814.21981	0.00842
1812.93405	0.00872
1811.64828	0.00901
1810.36251	0.00923
1809.07674	0.00935
1807.79097	0.00937
1806.50520	0.00930
1805.21943	0.00922
1803.93366	0.00921
1802.64790	0.00930
1801.36213	0.00942
1800.07636	0.00949
1798.79059	0.00948
1797.50482	0.00944
1796.21905	0.00944
1794.93328	0.00953
1793.64751	0.00968
1792.36174	0.00981
1791.07598	0.00986
1789.79021	0.00986
1788.50444	0.00981
1787.21867	0.00974
1785.93290	0.00965
1784.64713	0.00956
1783.36136	0.00952
1782.07559	0.00956
1780.78983	0.00967
1779.50406	0.00979
1778.21829	0.00990
1776.93252	0.01004
1775.64675	0.01022
1774.36098	0.01036
1773.07521	0.01039
1771.78944	0.01032
1770.50367	0.01026
1769.21791	0.01030
1767.93214	0.01042
1766.64637	0.01054
1765.36060	0.01060
1764.07483	0.01063
1762.78906	0.01066
1761.50329	0.01073
1760.21752	0.01083
1758.93176	0.01095
1757.64599	0.01102
1756.36022	0.01104
1755.07445	0.01102
1753.78868	0.01100
1752.50291	0.01098
1751.21714	0.01093
1749.93137	0.01081
1748.64560	0.01068
1747.35984	0.01057
1746.07407	0.01051
1744.78830	0.01050
1743.50253	0.01053
1742.21676	0.01062
1740.93099	0.01076
1739.64522	0.01091
1738.35945	0.01102
1737.07369	0.01114
1735.78792	0.01130
1734.50215	0.01151
1733.21638	0.01168
1731.93061	0.01177
1730.64484	0.01176
1729.35907	0.01171
1728.07330	0.01164
1726.78753	0.01163
1725.50177	0.01168
1724.21600	0.01175
1722.93023	0.01183
1721.64446	0.01197
1720.35869	0.01222
1719.07292	0.01255
1717.78715	0.01283
1716.50138	0.01294
1715.21561	0.01292
1713.92985	0.01290
1712.64408	0.01300
1711.35831	0.01321
1710.07254	0.01346
1708.78677	0.01368
1707.50100	0.01387
1706.21523	0.01405
1704.92946	0.01424
1703.64370	0.01447
1702.35793	0.01473
1701.07216	0.01501
1699.78639	0.01527
1698.50062	0.01550
1697.21485	0.01571
1695.92908	0.01588
1694.64331	0.01599
1693.35754	0.01608
1692.07178	0.01622
1690.78601	0.01643
1689.50024	0.01668
1688.21447	0.01696
1686.92870	0.01726
1685.64293	0.01757
1684.35716	0.01782
1683.07139	0.01796
1681.78563	0.01804
1680.49986	0.01814
1679.21409	0.01833
1677.92832	0.01861
1676.64255	0.01892
1675.35678	0.01921
1674.07101	0.01948
1672.78524	0.01976
1671.49947	0.02007
1670.21371	0.02037
1668.92794	0.02060
1667.64217	0.02075
1666.35640	0.02088
1665.07063	0.02106
1663.78486	0.02126
1662.49909	0.02144
1661.21332	0.02159
1659.92756	0.02175
1658.64179	0.02197
1657.35602	0.02228
1656.07025	0.02268
1654.78448	0.02306
1653.49871	0.02328
1652.21294	0.02326
1650.92717	0.02310
1649.64140	0.02300
1648.35564	0.02307
1647.06987	0.02321
1645.78410	0.02329
1644.49833	0.02328
1643.21256	0.02324
1641.92679	0.02323
1640.64102	0.02325
1639.35525	0.02329
1638.06949	0.02335
1636.78372	0.02340
1635.49795	0.02338
1634.21218	0.02328
1632.92641	0.02315
1631.64064	0.02309
1630.35487	0.02314
1629.06910	0.02326
1627.78333	0.02338
1626.49757	0.02346
1625.21180	0.02349
1623.92603	0.02346
1622.64026	0.02337
1621.35449	0.02326
1620.06872	0.02318
1618.78295	0.02316
1617.49718	0.02319
1616.21142	0.02317
1614.92565	0.02308
1613.63988	0.02297
1612.35411	0.02294
1611.06834	0.02305
1609.78257	0.02327
1608.49680	0.02348
1607.21103	0.02363
1605.92526	0.02369
1604.63950	0.02372
1603.35373	0.02376
1602.06796	0.02380
1600.78219	0.02382
1599.49642	0.02382
1598.21065	0.02382
1596.92488	0.02384
1595.63911	0.02391
1594.35335	0.02401
1593.06758	0.02411
1591.78181	0.02419
1590.49604	0.02428
1589.21027	0.02438
1587.92450	0.02454
1586.63873	0.02472
1585.35296	0.02487
1584.06719	0.02499
1582.78143	0.02509
1581.49566	0.02521
1580.20989	0.02536
1578.92412	0.02556
1577.63835	0.02576
1576.35258	0.02594
1575.06681	0.02610
1573.78104	0.02626
1572.49528	0.02648
1571.20951	0.02676
1569.92374	0.02704
1568.63797	0.02724
1567.35220	0.02734
1566.06643	0.02738
1564.78066	0.02743
1563.49489	0.02758
1562.20912	0.02784
1560.92336	0.02819
1559.63759	0.02852
1558.35182	0.02873
1557.06605	0.02881
1555.78028	0.02881
1554.49451	0.02879
1553.20874	0.02879
1551.92297	0.02881
1550.63721	0.02886
1549.35144	0.02893
1548.06567	0.02903
1546.77990	0.02915
1545.49413	0.02929
1544.20836	0.02944
1542.92259	0.02960
1541.63682	0.02974
1540.35105	0.02979
1539.06529	0.02969
1537.77952	0.02948
1536.49375	0.02929
1535.20798	0.02922
1533.92221	0.02928
1532.63644	0.02941
1531.35067	0.02960
1530.06490	0.02986
1528.77914	0.03019
1527.49337	0.03058
1526.20760	0.03099
1524.92183	0.03139
1523.63606	0.03182
1522.35029	0.03230
1521.06452	0.03285
1519.77875	0.03342
1518.49298	0.03401
1517.20722	0.03464
1515.92145	0.03534
1514.63568	0.03609
1513.34991	0.03688
1512.06414	0.03769
1510.77837	0.03856
1509.49260	0.03952
1508.20683	0.04055
1506.92107	0.04155
1505.63530	0.04240
1504.34953	0.04310
1503.06376	0.04376
1501.77799	0.04448
1500.49222	0.04527
1499.20645	0.04605
1497.92068	0.04676
1496.63491	0.04737
1495.34915	0.04788
1494.06338	0.04834
1492.77761	0.04883
1491.49184	0.04937
1490.20607	0.04994
1488.92030	0.05046
1487.63453	0.05093
1486.34876	0.05142
1485.06299	0.05199
1483.77723	0.05269
1482.49146	0.05350
1481.20569	0.05436
1479.91992	0.05525
1478.63415	0.05614
1477.34838	0.05701
1476.06261	0.05782
1474.77684	0.05855
1473.49108	0.05919
1472.20531	0.05972
1470.91954	0.06014
1469.63377	0.06045
1468.34800	0.06066
1467.06223	0.06081
1465.77646	0.06090
1464.49069	0.06098
1463.20492	0.06108
1461.91916	0.06127
1460.63339	0.06162
1459.34762	0.06212
1458.06185	0.06272
1456.77608	0.06329
1455.49031	0.06373
1454.20454	0.06403
1452.91877	0.06427
1451.63301	0.06446
1450.34724	0.06460
1449.06147	0.06463
1447.77570	0.06453
1446.48993	0.06430
1445.20416	0.06399
1443.91839	0.06364
1442.63262	0.06327
1441.34685	0.06290
1440.06109	0.06259
1438.77532	0.06238
1437.48955	0.06229
1436.20378	0.06232
1434.91801	0.06242
1433.63224	0.06263
1432.34647	0.06302
1431.06070	0.06362
1429.77494	0.06445
1428.48917	0.06545
1427.20340	0.06653
1425.91763	0.06762
1424.63186	0.06867
1423.34609	0.06965
1422.06032	0.07057
1420.77455	0.07145
1419.48878	0.07225
1418.20302	0.07290
1416.91725	0.07334
1415.63148	0.07358
1414.34571	0.07367
1413.05994	0.07364
1411.77417	0.07348
1410.48840	0.07318
1409.20263	0.07273
1407.91687	0.07211
1406.63110	0.07129
1405.34533	0.07028
1404.05956	0.06910
1402.77379	0.06780
1401.48802	0.06641
1400.20225	0.06496
1398.91648	0.06348
1397.63071	0.06202
1396.34495	0.06057
1395.05918	0.05911
1393.77341	0.05759
1392.48764	0.05600
1391.20187	0.05435
1389.91610	0.05270
1388.63033	0.05111
1387.34456	0.04961
1386.05880	0.04819
1384.77303	0.04682
1383.48726	0.04547
1382.20149	0.04415
1380.91572	0.04286
1379.62995	0.04158
1378.34418	0.04029
1377.05841	0.03899
1375.77264	0.03767
1374.48688	0.03632
1373.20111	0.03494
1371.91534	0.03360
1370.62957	0.03235
1369.34380	0.03125
1368.05803	0.03027
1366.77226	0.02938
1365.48649	0.02851
1364.20073	0.02764
1362.91496	0.02675
1361.62919	0.02587
1360.34342	0.02506
1359.05765	0.02432
1357.77188	0.02368
1356.48611	0.02310
1355.20034	0.02258
1353.91457	0.02209
1352.62881	0.02164
1351.34304	0.02125
1350.05727	0.02090
1348.77150	0.02055
1347.48573	0.02019
1346.19996	0.01983
1344.91419	0.01951
1343.62842	0.01922
1342.34266	0.01893
1341.05689	0.01862
1339.77112	0.01832
1338.48535	0.01808
1337.19958	0.01792
1335.91381	0.01780
1334.62804	0.01767
1333.34227	0.01749
1332.05650	0.01728
1330.77074	0.01705
1329.48497	0.01685
1328.19920	0.01669
1326.91343	0.01654
1325.62766	0.01637
1324.34189	0.01618
1323.05612	0.01600
1321.77035	0.01585
1320.48459	0.01572
1319.19882	0.01560
1317.91305	0.01546
1316.62728	0.01530
1315.34151	0.01517
1314.05574	0.01508
1312.76997	0.01506
1311.48420	0.01505
1310.19843	0.01504
1308.91267	0.01499
1307.62690	0.01489
1306.34113	0.01476
1305.05536	0.01461
1303.76959	0.01447
1302.48382	0.01432
1301.19805	0.01417
1299.91228	0.01400
1298.62652	0.01387
1297.34075	0.01380
1296.05498	0.01378
1294.76921	0.01374
1293.48344	0.01368
1292.19767	0.01360
1290.91190	0.01352
1289.62613	0.01346
1288.34036	0.01344
1287.05460	0.01343
1285.76883	0.01341
1284.48306	0.01335
1283.19729	0.01326
1281.91152	0.01317
1280.62575	0.01310
1279.33998	0.01303
1278.05421	0.01297
1276.76845	0.01292
1275.48268	0.01288
1274.19691	0.01285
1272.91114	0.01284
1271.62537	0.01283
1270.33960	0.01281
1269.05383	0.01275
1267.76806	0.01265
1266.48229	0.01254
1265.19653	0.01245
1263.91076	0.01240
1262.62499	0.01239
1261.33922	0.01237
1260.05345	0.01233
1258.76768	0.01224
1257.48191	0.01213
1256.19614	0.01204
1254.91037	0.01201
1253.62461	0.01206
1252.33884	0.01214
1251.05307	0.01219
1249.76730	0.01218
1248.48153	0.01210
1247.19576	0.01195
1245.90999	0.01176
1244.62422	0.01160
1243.33846	0.01150
1242.05269	0.01149
1240.76692	0.01153
1239.48115	0.01156
1238.19538	0.01155
1236.90961	0.01149
1235.62384	0.01143
1234.33807	0.01140
1233.05230	0.01138
1231.76654	0.01135
1230.48077	0.01132
1229.19500	0.01130
1227.90923	0.01129
1226.62346	0.01129
1225.33769	0.01128
1224.05192	0.01128
1222.76615	0.01129
1221.48039	0.01126
1220.19462	0.01119
1218.90885	0.01107
1217.62308	0.01097
1216.33731	0.01092
1215.05154	0.01093
1213.76577	0.01098
1212.48000	0.01101
1211.19423	0.01102
1209.90847	0.01102
1208.62270	0.01103
1207.33693	0.01105
1206.05116	0.01106
1204.76539	0.01106
1203.47962	0.01107
1202.19385	0.01107
1200.90808	0.01105
1199.62232	0.01099
1198.33655	0.01094
1197.05078	0.01093
1195.76501	0.01097
1194.47924	0.01102
1193.19347	0.01104
1191.90770	0.01104
1190.62193	0.01106
1189.33616	0.01111
1188.05040	0.01117
1186.76463	0.01122
1185.47886	0.01126
1184.19309	0.01130
1182.90732	0.01134
1181.62155	0.01139
1180.33578	0.01143
1179.05001	0.01147
1177.76425	0.01149
1176.47848	0.01155
1175.19271	0.01166
1173.90694	0.01179
1172.62117	0.01189
1171.33540	0.01197
1170.04963	0.01204
1168.76386	0.01216
1167.47809	0.01235
1166.19233	0.01259
1164.90656	0.01284
1163.62079	0.01304
1162.33502	0.01318
1161.04925	0.01330
1159.76348	0.01348
1158.47771	0.01374
1157.19194	0.01403
1155.90618	0.01432
1154.62041	0.01459
1153.33464	0.01486
1152.04887	0.01516
1150.76310	0.01552
1149.47733	0.01595
1148.19156	0.01644
1146.90579	0.01699
1145.62002	0.01760
1144.33426	0.01829
1143.04849	0.01902
1141.76272	0.01977
1140.47695	0.02053
1139.19118	0.02138
1137.90541	0.02238
1136.61964	0.02356
1135.33387	0.02491
1134.04811	0.02637
1132.76234	0.02790
1131.47657	0.02952
1130.19080	0.03131
1128.90503	0.03332
1127.61926	0.03558
1126.33349	0.03808
1125.04772	0.04079
1123.76195	0.04369
1122.47619	0.04672
1121.19042	0.04978
1119.90465	0.05284
1118.61888	0.05587
1117.33311	0.05891
1116.04734	0.06194
1114.76157	0.06496
1113.47580	0.06794
1112.19004	0.07084
1110.90427	0.07364
1109.61850	0.07628
1108.33273	0.07877
1107.04696	0.08116
1105.76119	0.08352
1104.47542	0.08584
1103.18965	0.08812
1101.90388	0.09035
1100.61812	0.09257
1099.33235	0.09474
1098.04658	0.09681
1096.76081	0.09876
1095.47504	0.10066
1094.18927	0.10256
1092.90350	0.10446
1091.61773	0.10630
1090.33197	0.10804
1089.04620	0.10966
1087.76043	0.11121
1086.47466	0.11274
1085.18889	0.11433
1083.90312	0.11601
1082.61735	0.11779
1081.33158	0.11969
1080.04581	0.12172
1078.76005	0.12390
1077.47428	0.12619
1076.18851	0.12857
1074.90274	0.13105
1073.61697	0.13365
1072.33120	0.13637
1071.04543	0.13923
1069.75966	0.14222
1068.47390	0.14531
1067.18813	0.14844
1065.90236	0.15158
1064.61659	0.15475
1063.33082	0.15798
1062.04505	0.16127
1060.75928	0.16458
1059.47351	0.16791
1058.18774	0.17125
1056.90198	0.17455
1055.61621	0.17779
1054.33044	0.18098
1053.04467	0.18418
1051.75890	0.18739
1050.47313	0.19059
1049.18736	0.19381
1047.90159	0.19709
1046.61583	0.20051
1045.33006	0.20409
1044.04429	0.20775
1042.75852	0.21143
1041.47275	0.21506
1040.18698	0.21867
1038.90121	0.22234
1037.61544	0.22611
1036.32967	0.22997
1035.04391	0.23377
1033.75814	0.23735
1032.47237	0.24058
1031.18660	0.24341
1029.90083	0.24587
1028.61506	0.24801
1027.32929	0.24984
1026.04352	0.25131
1024.75775	0.25237
1023.47199	0.25300
1022.18622	0.25319
1020.90045	0.25288
1019.61468	0.25204
1018.32891	0.25068
1017.04314	0.24878
1015.75737	0.24631
1014.47160	0.24320
1013.18584	0.23947
1011.90007	0.23518
1010.61430	0.23040
1009.32853	0.22513
1008.04276	0.21930
1006.75699	0.21293
1005.47122	0.20611
1004.18545	0.19896
1002.89968	0.19156
1001.61392	0.18398
1000.32815	0.17631
999.04238	0.16861
997.75661	0.16092
996.47084	0.15326
995.18507	0.14569
993.89930	0.13834
992.61353	0.13129
991.32777	0.12456
990.04200	0.11813
988.75623	0.11203
987.47046	0.10629
986.18469	0.10091
984.89892	0.09591
983.61315	0.09126
982.32738	0.08700
981.04161	0.08316
979.75585	0.07971
978.47008	0.07659
977.18431	0.07379
975.89854	0.07137
974.61277	0.06938
973.32700	0.06781
972.04123	0.06665
970.75546	0.06592
969.46970	0.06567
968.18393	0.06593
966.89816	0.06665
965.61239	0.06768
964.32662	0.06883
963.04085	0.06989
961.75508	0.07060
960.46931	0.07078
959.18354	0.07031
957.89778	0.06917
956.61201	0.06741
955.32624	0.06522
954.04047	0.06284
952.75470	0.06048
951.46893	0.05825
950.18316	0.05616
948.89739	0.05422
947.61163	0.05241
946.32586	0.05068
945.04009	0.04899
943.75432	0.04731
942.46855	0.04565
941.18278	0.04411
939.89701	0.04276
938.61124	0.04161
937.32547	0.04062
936.03971	0.03973
934.75394	0.03891
933.46817	0.03815
932.18240	0.03738
930.89663	0.03658
929.61086	0.03578
928.32509	0.03506
927.03932	0.03446
925.75356	0.03401
924.46779	0.03365
923.18202	0.03335
921.89625	0.03308
920.61048	0.03279
919.32471	0.03246
918.03894	0.03207
916.75317	0.03164
915.46740	0.03120
914.18164	0.03079
912.89587	0.03042
911.61010	0.03010
910.32433	0.02981
909.03856	0.02955
907.75279	0.02933
906.46702	0.02916
905.18125	0.02905
903.89549	0.02895
902.60972	0.02884
901.32395	0.02871
900.03818	0.02857
898.75241	0.02840
897.46664	0.02821
896.18087	0.02800
894.89510	0.02783
893.60933	0.02774
892.32357	0.02780
891.03780	0.02800
889.75203	0.02839
888.46626	0.02896
887.18049	0.02972
885.89472	0.03071
884.60895	0.03205
883.32318	0.03387
882.03742	0.03608
880.75165	0.03836
879.46588	0.04031
878.18011	0.04177
876.89434	0.04290
875.60857	0.04401
874.32280	0.04516
873.03703	0.04603
871.75126	0.04626
870.46550	0.04577
869.17973	0.04471
867.89396	0.04325
866.60819	0.04148
865.32242	0.03949
864.03665	0.03750
862.75088	0.03571
861.46511	0.03424
860.17935	0.03308
858.89358	0.03214
857.60781	0.03137
856.32204	0.03072
855.03627	0.03016
853.75050	0.02964
852.46473	0.02915
851.17896	0.02867
849.89319	0.02823
848.60743	0.02786
847.32166	0.02757
846.03589	0.02736
844.75012	0.02719
843.46435	0.02704
842.17858	0.02685
840.89281	0.02661
839.60704	0.02632
838.32128	0.02606
837.03551	0.02587
835.74974	0.02574
834.46397	0.02565
833.17820	0.02558
831.89243	0.02552
830.60666	0.02545
829.32089	0.02537
828.03512	0.02528
826.74936	0.02520
825.46359	0.02512
824.17782	0.02501
822.89205	0.02487
821.60628	0.02472
820.32051	0.02464
819.03474	0.02465
817.74897	0.02471
816.46321	0.02477
815.17744	0.02479
813.89167	0.02477
812.60590	0.02476
811.32013	0.02477
810.03436	0.02476
808.74859	0.02473
807.46282	0.02469
806.17705	0.02470
804.89129	0.02475
803.60552	0.02479
802.31975	0.02481
801.03398	0.02482
799.74821	0.02479
798.46244	0.02471
797.17667	0.02458
795.89090	0.02448
794.60513	0.02447
793.31937	0.02455
792.03360	0.02465
790.74783	0.02466
789.46206	0.02455
788.17629	0.02441
786.89052	0.02433
785.60475	0.02432
784.31898	0.02430
783.03322	0.02423
781.74745	0.02417
780.46168	0.02419
779.17591	0.02426
777.89014	0.02429
776.60437	0.02425
775.31860	0.02420
774.03283	0.02417
772.74706	0.02415
771.46130	0.02413
770.17553	0.02415
768.88976	0.02424
767.60399	0.02433
766.31822	0.02435
765.03245	0.02431
763.74668	0.02425
762.46091	0.02422
761.17515	0.02427
759.88938	0.02442
758.60361	0.02463
757.31784	0.02482
756.03207	0.02492
754.74630	0.02494
753.46053	0.02491
752.17476	0.02486
750.88899	0.02483
749.60323	0.02486
748.31746	0.02491
747.03169	0.02491
745.74592	0.02482
744.46015	0.02468
743.17438	0.02458
741.88861	0.02455
740.60284	0.02461
739.31708	0.02473
738.03131	0.02485
736.74554	0.02493
735.45977	0.02492
734.17400	0.02485
732.88823	0.02479
731.60246	0.02476
730.31669	0.02478
729.03092	0.02482
727.74516	0.02487
726.45939	0.02490
725.17362	0.02488
723.88785	0.02455
722.60208	0.02439
721.31631	0.02481
720.03054	0.02527
718.74477	0.02525
717.45901	0.02547
716.17324	0.02568
714.88747	0.02564
713.60170	0.02543
712.31593	0.02519
711.03016	0.02500
709.74439	0.02486
708.45862	0.02476
707.17285	0.02468
705.88709	0.02460
704.60132	0.02452
703.31555	0.02444
702.02978	0.02435
700.74401	0.02427
699.45824	0.02418
698.17247	0.02405
696.88670	0.02391
695.60094	0.02377
694.31517	0.02360
693.02940	0.02341
691.74363	0.02321
690.45786	0.02299
689.17209	0.02275
687.88632	0.02249
686.60055	0.02216
685.31478	0.02181
684.02902	0.02151
682.74325	0.02134
681.45748	0.02130
680.17171	0.02135
678.88594	0.02145
677.60017	0.02163
676.31440	0.02191
675.02863	0.02214
673.74287	0.02179
672.45710	0.02007
671.17133	0.01789
669.88556	0.01970
668.59979	0.02667
667.31402	0.02556
666.02825	0.01944
664.74248	0.01964
663.45671	0.02218
662.17095	0.02338
660.88518	0.02334
659.59941	0.02287
658.31364	0.02245
657.02787	0.02225
655.74210	0.02231
654.45633	0.02241
653.17056	0.02258
651.88480	0.02268
650.59903	0.02279
649.31326	0.02299
648.02749	0.02309
646.74172	0.02327
645.45595	0.02358
644.17018	0.02395
642.88441	0.02433
641.59864	0.02471
640.31288	0.02508
639.02711	0.02544
637.74134	0.02582
636.45557	0.02623
635.16980	0.02669
633.88403	0.02721
632.59826	0.02778
631.31249	0.02841
630.02673	0.02911
628.74096	0.02975
627.45519	0.03026
626.16942	0.03122
624.88365	0.03258
623.59788	0.03431
622.31211	0.03652
621.02634	0.03884
619.74057	0.04037
618.45481	0.04090
617.16904	0.04151
615.88327	0.04348
614.59750	0.04704
613.31173	0.05157
612.02596	0.05643
610.74019	0.06145
609.45442	0.06680
608.16866	0.07252
606.88289	0.07834
605.59712	0.08365
604.31135	0.08768
603.02558	0.09000
601.73981	0.09067
600.45404	0.08995
599.16827	0.08810
597.88250	0.08537
596.59674	0.08216
595.31097	0.07891
594.02520	0.07599
592.73943	0.07363
591.45366	0.07194
590.16789	0.07093
588.88212	0.07055
587.59635	0.07076
586.31059	0.07155
585.02482	0.07298
583.73905	0.07503
582.45328	0.07754
581.16751	0.08028
579.88174	0.08305
578.59597	0.08581
577.31020	0.08856
576.02443	0.09133
574.73867	0.09408
573.45290	0.09677
572.16713	0.09940
570.88136	0.10209
569.59559	0.10509
568.30982	0.10863
567.02405	0.11270
565.73828	0.11695
564.45251	0.12072
563.16675	0.12328
561.88098	0.12411
560.59521	0.12294
559.30944	0.11973
558.02367	0.11477
556.73790	0.10862
555.45213	0.10191
554.16636	0.09508
552.88060	0.08842
551.59483	0.08219
550.30906	0.07656
549.02329	0.07159
547.73752	0.06720
546.45175	0.06325
545.16598	0.05967
543.88021	0.05645
542.59444	0.05356
541.30868	0.05093
540.02291	0.04856
538.73714	0.04646
537.45137	0.04462
536.16560	0.04301
534.87983	0.04157
533.59406	0.04027
532.30829	0.03907
531.02253	0.03795
529.73676	0.03688
528.45099	0.03586
527.16522	0.03495
525.87945	0.03417
524.59368	0.03349
523.30791	0.03278
522.02214	0.03201
520.73637	0.03121
519.45061	0.03054
518.16484	0.03005
516.87907	0.02966
515.59330	0.02923
514.30753	0.02869
513.02176	0.02809
511.73599	0.02752
510.45022	0.02704
509.16446	0.02666
507.87869	0.02633
506.59292	0.02599
505.30715	0.02558
504.02138	0.02512
502.73561	0.02466
501.44984	0.02425
500.16407	0.02392
498.87830	0.02369
497.59254	0.02354
496.30677	0.02341
495.02100	0.02325
493.73523	0.02307
492.44946	0.02294
491.16369	0.02291
489.87792	0.02288
488.59215	0.02278
487.30639	0.02257
486.02062	0.02233
484.73485	0.02216
483.44908	0.02215
482.16331	0.02232
480.87754	0.02261
479.59177	0.02294
478.30600	0.02322
477.02023	0.02344
475.73447	0.02359
474.44870	0.02371
473.16293	0.02382
471.87716	0.02391
470.59139	0.02398
469.30562	0.02398
468.01985	0.02392
466.73408	0.02377
465.44832	0.02353
464.16255	0.02322
462.87678	0.02287
461.59101	0.02256
460.30524	0.02232
459.01947	0.02217
457.73370	0.02212
456.44793	0.02211
455.16216	0.02205
453.87640	0.02189
452.59063	0.02163
451.30486	0.02132
450.01909	0.02104
448.73332	0.02080
447.44755	0.02061
446.16178	0.02044
444.87601	0.02028
443.59025	0.02014
442.30448	0.02002
441.01871	0.01991
439.73294	0.01979
438.44717	0.01968
437.16140	0.01958
435.87563	0.01950
434.58986	0.01942
433.30409	0.01937
432.01833	0.01937
430.73256	0.01941
429.44679	0.01947
428.16102	0.01949
426.87525	0.01947
425.58948	0.01939
424.30371	0.01930
423.01794	0.01921
421.73218	0.01914
420.44641	0.01907
419.16064	0.01902
417.87487	0.01899
416.58910	0.01898
415.30333	0.01899
414.01756	0.01898
412.73179	0.01895
411.44602	0.01890
410.16026	0.01889
408.87449	0.01896
407.58872	0.01911
406.30295	0.01930
405.01718	0.01949
403.73141	0.01963
402.44564	0.01969
401.15987	0.01973
399.87411	0.01978
