3997.45528	0.04545
3996.16951	0.04566
3994.88374	0.04587
3993.59798	0.04604
3992.31221	0.04607
3991.02644	0.04594
3989.74067	0.04577
3988.45490	0.04586
3987.16913	0.04633
3985.88336	0.04690
3984.59759	0.04706
3983.31183	0.04656
3982.02606	0.04576
3980.74029	0.04529
3979.45452	0.04550
3978.16875	0.04615
3976.88298	0.04671
3975.59721	0.04677
3974.31144	0.04630
3973.02567	0.04563
3971.73991	0.04518
3970.45414	0.04510
3969.16837	0.04522
3967.88260	0.04534
3966.59683	0.04540
3965.31106	0.04543
3964.02529	0.04540
3962.73952	0.04519
3961.45376	0.04480
3960.16799	0.04438
3958.88222	0.04413
3957.59645	0.04417
3956.31068	0.04446
3955.02491	0.04489
3953.73914	0.04538
3952.45337	0.04589
3951.16760	0.04635
3949.88184	0.04658
3948.59607	0.04648
3947.31030	0.04603
3946.02453	0.04529
3944.73876	0.04438
3943.45299	0.04359
3942.16722	0.04321
3940.88145	0.04318
3939.59569	0.04308
3938.30992	0.04263
3937.02415	0.04207
3935.73838	0.04185
3934.45261	0.04216
3933.16684	0.04279
3931.88107	0.04341
3930.59530	0.04391
3929.30953	0.04442
3928.02377	0.04508
3926.73800	0.04563
3925.45223	0.04565
3924.16646	0.04491
3922.88069	0.04368
3921.59492	0.04247
3920.30915	0.04172
3919.02338	0.04155
3917.73762	0.04176
3916.45185	0.04212
3915.16608	0.04246
3913.88031	0.04275
3912.59454	0.04304
3911.30877	0.04322
3910.02300	0.04322
3908.73723	0.04318
3907.45146	0.04336
3906.16570	0.04380
3904.87993	0.04418
3903.59416	0.04422
3902.30839	0.04394
3901.02262	0.04363
3899.73685	0.04364
3898.45108	0.04397
3897.16531	0.04428
3895.87955	0.04423
3894.59378	0.04383
3893.30801	0.04335
3892.02224	0.04310
3890.73647	0.04325
3889.45070	0.04367
3888.16493	0.04392
3886.87916	0.04389
3885.59339	0.04388
3884.30763	0.04408
3883.02186	0.04431
3881.73609	0.04442
3880.45032	0.04449
3879.16455	0.04446
3877.87878	0.04400
3876.59301	0.04304
3875.30724	0.04220
3874.02148	0.04218
3872.73571	0.04284
3871.44994	0.04336
3870.16417	0.04327
3868.87840	0.04275
3867.59263	0.04204
3866.30686	0.04136
3865.02109	0.04100
3863.73532	0.04099
3862.44956	0.04109
3861.16379	0.04127
3859.87802	0.04172
3858.59225	0.04253
3857.30648	0.04341
3856.02071	0.04396
3854.73494	0.04416
3853.44917	0.04444
3852.16341	0.04502
3850.87764	0.04557
3849.59187	0.04562
3848.30610	0.04506
3847.02033	0.04408
3845.73456	0.04307
3844.44879	0.04240
3843.16302	0.04211
3841.87725	0.04193
3840.59149	0.04158
3839.30572	0.04117
3838.01995	0.04117
3836.73418	0.04172
3835.44841	0.04230
3834.16264	0.04235
3832.87687	0.04195
3831.59110	0.04158
3830.30534	0.04155
3829.01957	0.04180
3827.73380	0.04217
3826.44803	0.04261
3825.16226	0.04309
3823.87649	0.04349
3822.59072	0.04380
3821.30495	0.04423
3820.01918	0.04466
3818.73342	0.04457
3817.44765	0.04383
3816.16188	0.04320
3814.87611	0.04325
3813.59034	0.04358
3812.30457	0.04358
3811.01880	0.04320
3809.73303	0.04262
3808.44726	0.04199
3807.16150	0.04173
3805.87573	0.04210
3804.58996	0.04258
3803.30419	0.04247
3802.01842	0.04185
3800.73265	0.04133
3799.44688	0.04103
3798.16111	0.04061
3796.87535	0.04011
3795.58958	0.03985
3794.30381	0.03979
3793.01804	0.03967
3791.73227	0.03933
3790.44650	0.03883
3789.16073	0.03842
3787.87496	0.03840
3786.58919	0.03884
3785.30343	0.03946
3784.01766	0.03996
3782.73189	0.04024
3781.44612	0.04047
3780.16035	0.04086
3778.87458	0.04146
3777.58881	0.04204
3776.30304	0.04237
3775.01728	0.04235
3773.73151	0.04195
3772.44574	0.04122
3771.15997	0.04041
3769.87420	0.03996
3768.58843	0.04005
3767.30266	0.04045
3766.01689	0.04083
3764.73112	0.04096
3763.44536	0.04074
3762.15959	0.04024
3760.87382	0.03972
3759.58805	0.03940
3758.30228	0.03933
3757.01651	0.03952
3755.73074	0.03996
3754.44497	0.04034
3753.15921	0.04043
3751.87344	0.04023
3750.58767	0.03994
3749.30190	0.03974
3748.01613	0.03949
3746.73036	0.03863
3745.44459	0.03730
3744.15882	0.03676
3742.87305	0.03764
3741.58729	0.03913
3740.30152	0.04027
3739.01575	0.04072
3737.72998	0.04061
3736.44421	0.04041
3735.15844	0.04059
3733.87267	0.04107
3732.58690	0.04149
3731.30114	0.04164
3730.01537	0.04136
3728.72960	0.04050
3727.44383	0.03932
3726.15806	0.03828
3724.87229	0.03760
3723.58652	0.03721
3722.30075	0.03707
3721.01498	0.03721
3719.72922	0.03756
3718.44345	0.03799
3717.15768	0.03835
3715.87191	0.03846
3714.58614	0.03808
3713.30037	0.03728
3712.01460	0.03656
3710.72883	0.03643
3709.44307	0.03700
3708.15730	0.03793
3706.87153	0.03865
3705.58576	0.03874
3704.29999	0.03823
3703.01422	0.03752
3701.72845	0.03694
3700.44268	0.03645
3699.15691	0.03592
3697.87115	0.03546
3696.58538	0.03544
3695.29961	0.03606
3694.01384	0.03707
3692.72807	0.03802
3691.44230	0.03869
3690.15653	0.03905
3688.87076	0.03920
3687.58500	0.03920
3686.29923	0.03892
3685.01346	0.03826
3683.72769	0.03755
3682.44192	0.03724
3681.15615	0.03744
3679.87038	0.03808
3678.58461	0.03895
3677.29884	0.03980
3676.01308	0.04066
3674.72731	0.04158
3673.44154	0.04214
3672.15577	0.04202
3670.87000	0.04170
3669.58423	0.04178
3668.29846	0.04199
3667.01269	0.04171
3665.72693	0.04098
3664.44116	0.04027
3663.15539	0.03991
3661.86962	0.03991
3660.58385	0.04014
3659.29808	0.04028
3658.01231	0.04009
3656.72654	0.03972
3655.44077	0.03965
3654.15501	0.04004
3652.86924	0.04059
3651.58347	0.04101
3650.29770	0.04133
3649.01193	0.04175
3647.72616	0.04235
3646.44039	0.04296
3645.15462	0.04340
3643.86886	0.04369
3642.58309	0.04401
3641.29732	0.04439
3640.01155	0.04464
3638.72578	0.04465
3637.44001	0.04459
3636.15424	0.04469
3634.86847	0.04495
3633.58270	0.04518
3632.29694	0.04507
3631.01117	0.04452
3629.72540	0.04390
3628.43963	0.04382
3627.15386	0.04438
3625.86809	0.04525
3624.58232	0.04620
3623.29655	0.04726
3622.01079	0.04825
3620.72502	0.04899
3619.43925	0.04950
3618.15348	0.04976
3616.86771	0.04954
3615.58194	0.04884
3614.29617	0.04822
3613.01040	0.04827
3611.72463	0.04889
3610.43887	0.04958
3609.15310	0.05015
3607.86733	0.05084
3606.58156	0.05172
3605.29579	0.05252
3604.01002	0.05301
3602.72425	0.05322
3601.43848	0.05330
3600.15272	0.05325
3598.86695	0.05302
3597.58118	0.05266
3596.29541	0.05245
3595.00964	0.05273
3593.72387	0.05361
3592.43810	0.05476
3591.15233	0.05567
3589.86656	0.05600
3588.58080	0.05581
3587.29503	0.05530
3586.00926	0.05467
3584.72349	0.05415
3583.43772	0.05397
3582.15195	0.05427
3580.86618	0.05502
3579.58041	0.05600
3578.29464	0.05690
3577.00888	0.05757
3575.72311	0.05799
3574.43734	0.05836
3573.15157	0.05896
3571.86580	0.05990
3570.58003	0.06103
3569.29426	0.06201
3568.00849	0.06273
3566.72273	0.06325
3565.43696	0.06352
3564.15119	0.06336
3562.86542	0.06271
3561.57965	0.06190
3560.29388	0.06144
3559.00811	0.06157
3557.72234	0.06211
3556.43657	0.06262
3555.15081	0.06283
3553.86504	0.06282
3552.57927	0.06286
3551.29350	0.06311
3550.00773	0.06343
3548.72196	0.06368
3547.43619	0.06402
3546.15042	0.06469
3544.86466	0.06564
3543.57889	0.06653
3542.29312	0.06704
3541.00735	0.06720
3539.72158	0.06720
3538.43581	0.06725
3537.15004	0.06747
3535.86427	0.06788
3534.57850	0.06839
3533.29274	0.06882
3532.00697	0.06903
3530.72120	0.06903
3529.43543	0.06897
3528.14966	0.06898
3526.86389	0.06905
3525.57812	0.06910
3524.29235	0.06916
3523.00659	0.06932
3521.72082	0.06957
3520.43505	0.06976
3519.14928	0.06975
3517.86351	0.06960
3516.57774	0.06950
3515.29197	0.06965
3514.00620	0.07009
3512.72043	0.07071
3511.43467	0.07128
3510.14890	0.07170
3508.86313	0.07205
3507.57736	0.07246
3506.29159	0.07295
3505.00582	0.07342
3503.72005	0.07376
3502.43428	0.07398
3501.14852	0.07416
3499.86275	0.07444
3498.57698	0.07487
3497.29121	0.07537
3496.00544	0.07583
3494.71967	0.07617
3493.43390	0.07629
3492.14813	0.07610
3490.86236	0.07566
3489.57660	0.07524
3488.29083	0.07510
3487.00506	0.07520
3485.71929	0.07531
3484.43352	0.07532
3483.14775	0.07535
3481.86198	0.07558
3480.57621	0.07600
3479.29045	0.07654
3478.00468	0.07711
3476.71891	0.07766
3475.43314	0.07817
3474.14737	0.07862
3472.86160	0.07897
3471.57583	0.07914
3470.29006	0.07922
3469.00429	0.07951
3467.71853	0.08026
3466.43276	0.08134
3465.14699	0.08220
3463.86122	0.08231
3462.57545	0.08167
3461.28968	0.08085
3460.00391	0.08047
3458.71814	0.08063
3457.43238	0.08085
3456.14661	0.08069
3454.86084	0.08017
3453.57507	0.07976
3452.28930	0.07993
3451.00353	0.08074
3449.71776	0.08181
3448.43199	0.08264
3447.14622	0.08307
3445.86046	0.08327
3444.57469	0.08346
3443.28892	0.08368
3442.00315	0.08388
3440.71738	0.08412
3439.43161	0.08445
3438.14584	0.08479
3436.86007	0.08496
3435.57431	0.08487
3434.28854	0.08460
3433.00277	0.08432
3431.71700	0.08413
3430.43123	0.08403
3429.14546	0.08393
3427.85969	0.08383
3426.57392	0.08383
3425.28815	0.08399
3424.00239	0.08426
3422.71662	0.08445
3421.43085	0.08446
3420.14508	0.08440
3418.85931	0.08455
3417.57354	0.08503
3416.28777	0.08572
3415.00200	0.08629
3413.71624	0.08652
3412.43047	0.08640
3411.14470	0.08609
3409.85893	0.08583
3408.57316	0.08580
3407.28739	0.08604
3406.00162	0.08642
3404.71585	0.08677
3403.43008	0.08698
3402.14432	0.08704
3400.85855	0.08702
3399.57278	0.08708
3398.28701	0.08726
3397.00124	0.08747
3395.71547	0.08756
3394.42970	0.08755
3393.14393	0.08762
3391.85817	0.08791
3390.57240	0.08831
3389.28663	0.08854
3388.00086	0.08841
3386.71509	0.08802
3385.42932	0.08765
3384.14355	0.08754
3382.85778	0.08773
3381.57201	0.08811
3380.28625	0.08851
3379.00048	0.08884
3377.71471	0.08908
3376.42894	0.08919
3375.14317	0.08911
3373.85740	0.08885
3372.57163	0.08863
3371.28586	0.08870
3370.00010	0.08910
3368.71433	0.08955
3367.42856	0.08969
3366.14279	0.08942
3364.85702	0.08894
3363.57125	0.08849
3362.28548	0.08816
3360.99971	0.08789
3359.71394	0.08767
3358.42818	0.08773
3357.14241	0.08834
3355.85664	0.08942
3354.57087	0.09044
3353.28510	0.09084
3351.99933	0.09051
3350.71356	0.08982
3349.42779	0.08926
3348.14202	0.08907
3346.85626	0.08921
3345.57049	0.08947
3344.28472	0.08963
3342.99895	0.08960
3341.71318	0.08943
3340.42741	0.08922
3339.14164	0.08907
3337.85587	0.08894
3336.57011	0.08877
3335.28434	0.08855
3333.99857	0.08829
3332.71280	0.08800
3331.42703	0.08770
3330.14126	0.08744
3328.85549	0.08732
3327.56972	0.08740
3326.28395	0.08766
3324.99819	0.08803
3323.71242	0.08832
3322.42665	0.08838
3321.14088	0.08822
3319.85511	0.08798
3318.56934	0.08783
3317.28357	0.08787
3315.99780	0.08805
3314.71204	0.08819
3313.42627	0.08817
3312.14050	0.08804
3310.85473	0.08799
3309.56896	0.08808
3308.28319	0.08814
3306.99742	0.08800
3305.71165	0.08765
3304.42588	0.08723
3303.14012	0.08693
3301.85435	0.08691
3300.56858	0.08726
3299.28281	0.08783
3297.99704	0.08832
3296.71127	0.08848
3295.42550	0.08834
3294.13973	0.08809
3292.85397	0.08783
3291.56820	0.08747
3290.28243	0.08701
3288.99666	0.08661
3287.71089	0.08647
3286.42512	0.08654
3285.13935	0.08665
3283.85358	0.08668
3282.56781	0.08667
3281.28205	0.08669
3279.99628	0.08677
3278.71051	0.08692
3277.42474	0.08711
3276.13897	0.08720
3274.85320	0.08706
3273.56743	0.08667
3272.28166	0.08621
3270.99590	0.08585
3269.71013	0.08567
3268.42436	0.08560
3267.13859	0.08557
3265.85282	0.08554
3264.56705	0.08552
3263.28128	0.08556
3261.99551	0.08570
3260.70974	0.08602
3259.42398	0.08652
3258.13821	0.08706
3256.85244	0.08731
3255.56667	0.08702
3254.28090	0.08626
3252.99513	0.08544
3251.70936	0.08500
3250.42359	0.08499
3249.13783	0.08509
3247.85206	0.08504
3246.56629	0.08486
3245.28052	0.08477
3243.99475	0.08487
3242.70898	0.08499
3241.42321	0.08490
3240.13744	0.08449
3238.85167	0.08392
3237.56591	0.08352
3236.28014	0.08343
3234.99437	0.08356
3233.70860	0.08368
3232.42283	0.08368
3231.13706	0.08366
3229.85129	0.08378
3228.56552	0.08405
3227.27976	0.08430
3225.99399	0.08432
3224.70822	0.08410
3223.42245	0.08387
3222.13668	0.08384
3220.85091	0.08397
3219.56514	0.08401
3218.27937	0.08381
3216.99360	0.08349
3215.70784	0.08325
3214.42207	0.08312
3213.13630	0.08291
3211.85053	0.08253
3210.56476	0.08216
3209.27899	0.08210
3207.99322	0.08239
3206.70745	0.08270
3205.42169	0.08267
3204.13592	0.08222
3202.85015	0.08168
3201.56438	0.08143
3200.27861	0.08159
3198.99284	0.08190
3197.70707	0.08205
3196.42130	0.08199
3195.13553	0.08187
3193.84977	0.08185
3192.56400	0.08188
3191.27823	0.08177
3189.99246	0.08143
3188.70669	0.08097
3187.42092	0.08058
3186.13515	0.08034
3184.84938	0.08021
3183.56362	0.08024
3182.27785	0.08045
3180.99208	0.08076
3179.70631	0.08101
3178.42054	0.08105
3177.13477	0.08079
3175.84900	0.08020
3174.56323	0.07938
3173.27746	0.07867
3171.99170	0.07844
3170.70593	0.07869
3169.42016	0.07907
3168.13439	0.07926
3166.84862	0.07924
3165.56285	0.07919
3164.27708	0.07921
3162.99131	0.07921
3161.70555	0.07908
3160.41978	0.07886
3159.13401	0.07859
3157.84824	0.07831
3156.56247	0.07798
3155.27670	0.07760
3153.99093	0.07723
3152.70516	0.07703
3151.41939	0.07705
3150.13363	0.07721
3148.84786	0.07728
3147.56209	0.07708
3146.27632	0.07669
3144.99055	0.07633
3143.70478	0.07616
3142.41901	0.07616
3141.13324	0.07616
3139.84748	0.07600
3138.56171	0.07568
3137.27594	0.07539
3135.99017	0.07535
3134.70440	0.07560
3133.41863	0.07598
3132.13286	0.07625
3130.84709	0.07629
3129.56132	0.07615
3128.27556	0.07591
3126.98979	0.07564
3125.70402	0.07537
3124.41825	0.07513
3123.13248	0.07499
3121.84671	0.07496
3120.56094	0.07498
3119.27517	0.07499
3117.98940	0.07495
3116.70364	0.07485
3115.41787	0.07472
3114.13210	0.07457
3112.84633	0.07442
3111.56056	0.07415
3110.27479	0.07363
3108.98902	0.07287
3107.70325	0.07213
3106.41749	0.07179
3105.13172	0.07200
3103.84595	0.07255
3102.56018	0.07302
3101.27441	0.07316
3099.98864	0.07300
3098.70287	0.07277
3097.41710	0.07262
3096.13133	0.07259
3094.84557	0.07255
3093.55980	0.07238
3092.27403	0.07200
3090.98826	0.07148
3089.70249	0.07102
3088.41672	0.07081
3087.13095	0.07083
3085.84518	0.07095
3084.55942	0.07102
3083.27365	0.07104
3081.98788	0.07105
3080.70211	0.07110
3079.41634	0.07115
3078.13057	0.07113
3076.84480	0.07104
3075.55903	0.07086
3074.27326	0.07058
3072.98750	0.07018
3071.70173	0.06973
3070.41596	0.06946
3069.13019	0.06957
3067.84442	0.06992
3066.55865	0.07017
3065.27288	0.07004
3063.98711	0.06958
3062.70135	0.06911
3061.41558	0.06890
3060.12981	0.06895
3058.84404	0.06904
3057.55827	0.06892
3056.27250	0.06856
3054.98673	0.06816
3053.70096	0.06795
3052.41519	0.06798
3051.12943	0.06807
3049.84366	0.06802
3048.55789	0.06785
3047.27212	0.06774
3045.98635	0.06779
3044.70058	0.06793
3043.41481	0.06799
3042.12904	0.06785
3040.84328	0.06754
3039.55751	0.06719
3038.27174	0.06692
3036.98597	0.06669
3035.70020	0.06639
3034.41443	0.06599
3033.12866	0.06566
3031.84289	0.06563
3030.55712	0.06585
3029.27136	0.06603
3027.98559	0.06587
3026.69982	0.06541
3025.41405	0.06494
3024.12828	0.06470
3022.84251	0.06475
3021.55674	0.06497
3020.27097	0.06519
3018.98521	0.06527
3017.69944	0.06510
3016.41367	0.06469
3015.12790	0.06420
3013.84213	0.06381
3012.55636	0.06363
3011.27059	0.06359
3009.98482	0.06356
3008.69905	0.06341
3007.41329	0.06310
3006.12752	0.06272
3004.84175	0.06243
3003.55598	0.06235
3002.27021	0.06245
3000.98444	0.06259
2999.69867	0.06269
2998.41290	0.06281
2997.12714	0.06300
2995.84137	0.06323
2994.55560	0.06338
2993.26983	0.06343
2991.98406	0.06347
2990.69829	0.06354
2989.41252	0.06367
2988.12675	0.06383
2986.84098	0.06397
2985.55522	0.06413
2984.26945	0.06441
2982.98368	0.06486
2981.69791	0.06547
2980.41214	0.06613
2979.12637	0.06673
2977.84060	0.06723
2976.55483	0.06769
2975.26907	0.06831
2973.98330	0.06926
2972.69753	0.07057
2971.41176	0.07211
2970.12599	0.07373
2968.84022	0.07533
2967.55445	0.07689
2966.26868	0.07844
2964.98291	0.08006
2963.69715	0.08180
2962.41138	0.08359
2961.12561	0.08526
2959.83984	0.08674
2958.55407	0.08811
2957.26830	0.08947
2955.98253	0.09073
2954.69676	0.09167
2953.41100	0.09223
2952.12523	0.09258
2950.83946	0.09286
2949.55369	0.09301
2948.26792	0.09288
2946.98215	0.09255
2945.69638	0.09220
2944.41061	0.09199
2943.12484	0.09196
2941.83908	0.09209
2940.55331	0.09234
2939.26754	0.09268
2937.98177	0.09317
2936.69600	0.09394
2935.41023	0.09510
2934.12446	0.09659
2932.83869	0.09822
2931.55293	0.09978
2930.26716	0.10115
2928.98139	0.10231
2927.69562	0.10332
2926.40985	0.10422
2925.12408	0.10501
2923.83831	0.10557
2922.55254	0.10568
2921.26677	0.10519
2919.98101	0.10414
2918.69524	0.10279
2917.40947	0.10142
2916.12370	0.10018
2914.83793	0.09907
2913.55216	0.09801
2912.26639	0.09691
2910.98062	0.09574
2909.69486	0.09452
2908.40909	0.09329
2907.12332	0.09209
2905.83755	0.09099
2904.55178	0.09003
2903.26601	0.08909
2901.98024	0.08801
2900.69447	0.08680
2899.40870	0.08570
2898.12294	0.08490
2896.83717	0.08423
2895.55140	0.08343
2894.26563	0.08248
2892.97986	0.08161
2891.69409	0.08091
2890.40832	0.08029
2889.12255	0.07964
2887.83678	0.07897
2886.55102	0.07829
2885.26525	0.07764
2883.97948	0.07704
2882.69371	0.07651
2881.40794	0.07612
2880.12217	0.07597
2878.83640	0.07614
2877.55063	0.07654
2876.26487	0.07705
2874.97910	0.07762
2873.69333	0.07828
2872.40756	0.07903
2871.12179	0.07975
2869.83602	0.08028
2868.55025	0.08051
2867.26448	0.08047
2865.97871	0.08027
2864.69295	0.08006
2863.40718	0.07991
2862.12141	0.07982
2860.83564	0.07974
2859.54987	0.07962
2858.26410	0.07945
2856.97833	0.07929
2855.69256	0.07921
2854.40680	0.07917
2853.12103	0.07902
2851.83526	0.07860
2850.54949	0.07784
2849.26372	0.07681
2847.97795	0.07563
2846.69218	0.07438
2845.40641	0.07307
2844.12064	0.07173
2842.83488	0.07041
2841.54911	0.06918
2840.26334	0.06803
2838.97757	0.06689
2837.69180	0.06570
2836.40603	0.06443
2835.12026	0.06312
2833.83449	0.06188
2832.54873	0.06081
2831.26296	0.06000
2829.97719	0.05938
2828.69142	0.05883
2827.40565	0.05822
2826.11988	0.05754
2824.83411	0.05694
2823.54834	0.05655
2822.26257	0.05633
2820.97681	0.05615
2819.69104	0.05590
2818.40527	0.05559
2817.11950	0.05524
2815.83373	0.05479
2814.54796	0.05418
2813.26219	0.05346
2811.97642	0.05277
2810.69066	0.05228
2809.40489	0.05208
2808.11912	0.05213
2806.83335	0.05228
2805.54758	0.05231
2804.26181	0.05210
2802.97604	0.05168
2801.69027	0.05119
2800.40450	0.05080
2799.11874	0.05058
2797.83297	0.05046
2796.54720	0.05035
2795.26143	0.05020
2793.97566	0.05003
2792.68989	0.04981
2791.40412	0.04951
2790.11835	0.04919
2788.83259	0.04898
2787.54682	0.04893
2786.26105	0.04894
2784.97528	0.04888
2783.68951	0.04873
2782.40374	0.04861
2781.11797	0.04856
2779.83220	0.04851
2778.54643	0.04842
2777.26067	0.04831
2775.97490	0.04822
2774.68913	0.04810
2773.40336	0.04791
2772.11759	0.04767
2770.83182	0.04746
2769.54605	0.04728
2768.26028	0.04710
2766.97452	0.04694
2765.68875	0.04684
2764.40298	0.04685
2763.11721	0.04692
2761.83144	0.04698
2760.54567	0.04695
2759.25990	0.04681
2757.97413	0.04659
2756.68836	0.04636
2755.40260	0.04619
2754.11683	0.04609
2752.83106	0.04601
2751.54529	0.04588
2750.25952	0.04568
2748.97375	0.04540
2747.68798	0.04512
2746.40221	0.04493
2745.11645	0.04493
2743.83068	0.04511
2742.54491	0.04531
2741.25914	0.04543
2739.97337	0.04553
2738.68760	0.04563
2737.40183	0.04567
2736.11606	0.04556
2734.83029	0.04535
2733.54453	0.04518
2732.25876	0.04513
2730.97299	0.04516
2729.68722	0.04518
2728.40145	0.04514
2727.11568	0.04498
2725.82991	0.04471
2724.54414	0.04443
2723.25838	0.04428
2721.97261	0.04430
2720.68684	0.04437
2719.40107	0.04432
2718.11530	0.04406
2716.82953	0.04366
2715.54376	0.04330
2714.25799	0.04316
2712.97222	0.04325
2711.68646	0.04340
2710.40069	0.04338
2709.11492	0.04312
2707.82915	0.04273
2706.54338	0.04239
2705.25761	0.04223
2703.97184	0.04225
2702.68607	0.04237
2701.40031	0.04249
2700.11454	0.04257
2698.82877	0.04258
2697.54300	0.04252
2696.25723	0.04238
2694.97146	0.04222
2693.68569	0.04213
2692.39992	0.04211
2691.11415	0.04210
2689.82839	0.04205
2688.54262	0.04198
2687.25685	0.04187
2685.97108	0.04167
2684.68531	0.04140
2683.39954	0.04116
2682.11377	0.04106
2680.82800	0.04109
2679.54224	0.04117
2678.25647	0.04116
2676.97070	0.04102
2675.68493	0.04083
2674.39916	0.04070
2673.11339	0.04066
2671.82762	0.04062
2670.54185	0.04050
2669.25608	0.04027
2667.97032	0.04004
2666.68455	0.03991
2665.39878	0.03990
2664.11301	0.03996
2662.82724	0.04005
2661.54147	0.04020
2660.25570	0.04039
2658.96993	0.04050
2657.68417	0.04044
2656.39840	0.04024
2655.11263	0.03996
2653.82686	0.03970
2652.54109	0.03949
2651.25532	0.03936
2649.96955	0.03931
2648.68378	0.03929
2647.39801	0.03922
2646.11225	0.03911
2644.82648	0.03904
2643.54071	0.03898
2642.25494	0.03880
2640.96917	0.03840
2639.68340	0.03789
2638.39763	0.03748
2637.11186	0.03732
2635.82609	0.03737
2634.54033	0.03743
2633.25456	0.03732
2631.96879	0.03700
2630.68302	0.03657
2629.39725	0.03619
2628.11148	0.03594
2626.82571	0.03578
2625.53994	0.03564
2624.25418	0.03549
2622.96841	0.03540
2621.68264	0.03542
2620.39687	0.03552
2619.11110	0.03558
2617.82533	0.03551
2616.53956	0.03537
2615.25379	0.03526
2613.96802	0.03527
2612.68226	0.03531
2611.39649	0.03530
2610.11072	0.03523
2608.82495	0.03517
2607.53918	0.03513
2606.25341	0.03502
2604.96764	0.03477
2603.68187	0.03443
2602.39611	0.03419
2601.11034	0.03412
2599.82457	0.03411
2598.53880	0.03395
2597.25303	0.03364
2595.96726	0.03342
2594.68149	0.03343
2593.39572	0.03351
2592.10995	0.03344
2590.82419	0.03323
2589.53842	0.03305
2588.25265	0.03298
2586.96688	0.03294
2585.68111	0.03288
2584.39534	0.03286
2583.10957	0.03288
2581.82380	0.03283
2580.53804	0.03269
2579.25227	0.03249
2577.96650	0.03234
2576.68073	0.03231
2575.39496	0.03237
2574.10919	0.03235
2572.82342	0.03214
2571.53765	0.03183
2570.25188	0.03167
2568.96612	0.03180
2567.68035	0.03215
2566.39458	0.03242
2565.10881	0.03236
2563.82304	0.03193
2562.53727	0.03125
2561.25150	0.03058
2559.96573	0.03015
2558.67997	0.03004
2557.39420	0.03006
2556.10843	0.02993
2554.82266	0.02959
2553.53689	0.02934
2552.25112	0.02945
2550.96535	0.02989
2549.67958	0.03031
2548.39381	0.03044
2547.10805	0.03034
2545.82228	0.03028
2544.53651	0.03047
2543.25074	0.03081
2541.96497	0.03102
2540.67920	0.03092
2539.39343	0.03060
2538.10766	0.03021
2536.82190	0.02979
2535.53613	0.02935
2534.25036	0.02904
2532.96459	0.02907
2531.67882	0.02938
2530.39305	0.02961
2529.10728	0.02948
2527.82151	0.02910
2526.53574	0.02884
2525.24998	0.02892
2523.96421	0.02928
2522.67844	0.02971
2521.39267	0.02994
2520.10690	0.02981
2518.82113	0.02943
2517.53536	0.02910
2516.24959	0.02908
2514.96383	0.02932
2513.67806	0.02962
2512.39229	0.02986
2511.10652	0.03008
2509.82075	0.03021
2508.53498	0.03001
2507.24921	0.02942
2505.96344	0.02869
2504.67767	0.02819
2503.39191	0.02809
2502.10614	0.02823
2500.82037	0.02843
2499.53460	0.02857
2498.24883	0.02859
2496.96306	0.02849
2495.67729	0.02830
2494.39152	0.02814
2493.10576	0.02804
2491.81999	0.02795
2490.53422	0.02780
2489.24845	0.02764
2487.96268	0.02755
2486.67691	0.02749
2485.39114	0.02738
2484.10537	0.02721
2482.81960	0.02707
2481.53384	0.02708
2480.24807	0.02720
2478.96230	0.02733
2477.67653	0.02742
2476.39076	0.02754
2475.10499	0.02775
2473.81922	0.02797
2472.53345	0.02807
2471.24769	0.02798
2469.96192	0.02783
2468.67615	0.02781
2467.39038	0.02798
2466.10461	0.02819
2464.81884	0.02822
2463.53307	0.02797
2462.24730	0.02753
2460.96153	0.02712
2459.67577	0.02692
2458.39000	0.02691
2457.10423	0.02694
2455.81846	0.02694
2454.53269	0.02691
2453.24692	0.02687
2451.96115	0.02685
2450.67538	0.02691
2449.38962	0.02706
2448.10385	0.02713
2446.81808	0.02692
2445.53231	0.02647
2444.24654	0.02607
2442.96077	0.02596
2441.67500	0.02610
2440.38923	0.02622
2439.10346	0.02613
2437.81770	0.02591
2436.53193	0.02578
2435.24616	0.02588
2433.96039	0.02614
2432.67462	0.02637
2431.38885	0.02643
2430.10308	0.02626
2428.81731	0.02586
2427.53155	0.02535
2426.24578	0.02490
2424.96001	0.02470
2423.67424	0.02473
2422.38847	0.02485
2421.10270	0.02495
2419.81693	0.02500
2418.53116	0.02512
2417.24539	0.02539
2415.95963	0.02581
2414.67386	0.02626
2413.38809	0.02648
2412.10232	0.02627
2410.81655	0.02566
2409.53078	0.02497
2408.24501	0.02459
2406.95924	0.02467
2405.67347	0.02508
2404.38771	0.02554
2403.10194	0.02578
2401.81617	0.02567
2400.53040	0.02526
2399.24463	0.02481
2397.95886	0.02456
2396.67309	0.02458
2395.38732	0.02481
2394.10156	0.02514
2392.81579	0.02547
2391.53002	0.02565
2390.24425	0.02558
2388.95848	0.02538
2387.67271	0.02533
2386.38694	0.02555
2385.10117	0.02586
2383.81540	0.02596
2382.52964	0.02574
2381.24387	0.02540
2379.95810	0.02517
2378.67233	0.02515
2377.38656	0.02531
2376.10079	0.02549
2374.81502	0.02563
2373.52925	0.02561
2372.24349	0.02548
2370.95772	0.02541
2369.67195	0.02551
2368.38618	0.02569
2367.10041	0.02577
2365.81464	0.02579
2364.52887	0.02581
2363.24310	0.02586
2361.95733	0.02587
2360.67157	0.02577
2359.38580	0.02575
2358.10003	0.02595
2356.81426	0.02629
2355.52849	0.02667
2354.24272	0.02704
2352.95695	0.02731
2351.67118	0.02730
2350.38542	0.02710
2349.09965	0.02696
2347.81388	0.02687
2346.52811	0.02654
2345.24234	0.02622
2343.95657	0.02644
2342.67080	0.02693
2341.38503	0.02673
2340.09926	0.02593
2338.81350	0.02593
2337.52773	0.02674
2336.24196	0.02672
2334.95619	0.02603
2333.67042	0.02621
2332.38465	0.02682
2331.09888	0.02642
2329.81311	0.02618
2328.52735	0.02714
2327.24158	0.02772
2325.95581	0.02787
2324.67004	0.02843
2323.38427	0.02845
2322.09850	0.02778
2320.81273	0.02751
2319.52696	0.02718
2318.24119	0.02677
2316.95543	0.02679
2315.66966	0.02674
2314.38389	0.02661
2313.09812	0.02661
2311.81235	0.02643
2310.52658	0.02618
2309.24081	0.02579
2307.95504	0.02520
2306.66928	0.02479
2305.38351	0.02469
2304.09774	0.02491
2302.81197	0.02520
2301.52620	0.02523
2300.24043	0.02494
2298.95466	0.02435
2297.66889	0.02364
2296.38312	0.02311
2295.09736	0.02307
2293.81159	0.02351
2292.52582	0.02407
2291.24005	0.02436
2289.95428	0.02426
2288.66851	0.02395
2287.38274	0.02364
2286.09697	0.02339
2284.81121	0.02318
2283.52544	0.02296
2282.23967	0.02274
2280.95390	0.02257
2279.66813	0.02253
2278.38236	0.02263
2277.09659	0.02278
2275.81082	0.02283
2274.52505	0.02269
2273.23929	0.02237
2271.95352	0.02200
2270.66775	0.02167
2269.38198	0.02143
2268.09621	0.02121
2266.81044	0.02086
2265.52467	0.02029
2264.23890	0.01955
2262.95314	0.01876
2261.66737	0.01810
2260.38160	0.01780
2259.09583	0.01795
2257.81006	0.01832
2256.52429	0.01849
2255.23852	0.01823
2253.95275	0.01770
2252.66698	0.01723
2251.38122	0.01691
2250.09545	0.01667
2248.80968	0.01651
2247.52391	0.01651
2246.23814	0.01683
2244.95237	0.01738
2243.66660	0.01796
2242.38083	0.01827
2241.09507	0.01803
2239.80930	0.01726
2238.52353	0.01642
2237.23776	0.01606
2235.95199	0.01626
2234.66622	0.01663
2233.38045	0.01679
2232.09468	0.01667
2230.80891	0.01650
2229.52315	0.01641
2228.23738	0.01632
2226.95161	0.01613
2225.66584	0.01597
2224.38007	0.01603
2223.09430	0.01623
2221.80853	0.01634
2220.52276	0.01626
2219.23700	0.01613
2217.95123	0.01608
2216.66546	0.01607
2215.37969	0.01595
2214.09392	0.01558
2212.80815	0.01500
2211.52238	0.01447
2210.23661	0.01437
2208.95084	0.01474
2207.66508	0.01516
2206.37931	0.01522
2205.09354	0.01495
2203.80777	0.01460
2202.52200	0.01418
2201.23623	0.01348
2199.95046	0.01258
2198.66469	0.01185
2197.37893	0.01157
2196.09316	0.01148
2194.80739	0.01116
2193.52162	0.01061
2192.23585	0.01039
2190.95008	0.01087
2189.66431	0.01180
2188.37854	0.01251
2187.09277	0.01258
2185.80701	0.01188
2184.52124	0.01047
2183.23547	0.00877
2181.94970	0.00758
2180.66393	0.00739
2179.37816	0.00786
2178.09239	0.00824
2176.80662	0.00808
2175.52085	0.00746
2174.23509	0.00683
2172.94932	0.00669
2171.66355	0.00722
2170.37778	0.00809
2169.09201	0.00863
2167.80624	0.00837
2166.52047	0.00738
2165.23470	0.00618
2163.94894	0.00538
2162.66317	0.00512
2161.37740	0.00504
2160.09163	0.00476
2158.80586	0.00419
2157.52009	0.00358
2156.23432	0.00326
2154.94855	0.00360
2153.66278	0.00480
2152.37702	0.00651
2151.09125	0.00794
2149.80548	0.00858
2148.51971	0.00875
2147.23394	0.00923
2145.94817	0.01026
2144.66240	0.01128
2143.37663	0.01167
2142.09087	0.01140
2140.80510	0.01094
2139.51933	0.01066
2138.23356	0.01067
2136.94779	0.01091
2135.66202	0.01115
2134.37625	0.01107
2133.09048	0.01060
2131.80471	0.01012
2130.51895	0.01007
2129.23318	0.01054
2127.94741	0.01120
2126.66164	0.01168
2125.37587	0.01194
2124.09010	0.01227
2122.80433	0.01290
2121.51856	0.01375
2120.23280	0.01439
2118.94703	0.01452
2117.66126	0.01422
2116.37549	0.01382
2115.08972	0.01353
2113.80395	0.01335
2112.51818	0.01330
2111.23241	0.01348
2109.94664	0.01377
2108.66088	0.01377
2107.37511	0.01318
2106.08934	0.01226
2104.80357	0.01158
2103.51780	0.01148
2102.23203	0.01177
2100.94626	0.01206
2099.66049	0.01208
2098.37473	0.01179
2097.08896	0.01150
2095.80319	0.01152
2094.51742	0.01187
2093.23165	0.01225
2091.94588	0.01232
2090.66011	0.01200
2089.37434	0.01154
2088.08857	0.01125
2086.80281	0.01130
2085.51704	0.01167
2084.23127	0.01223
2082.94550	0.01274
2081.65973	0.01299
2080.37396	0.01288
2079.08819	0.01258
2077.80242	0.01235
2076.51666	0.01225
2075.23089	0.01203
2073.94512	0.01146
2072.65935	0.01071
2071.37358	0.01016
2070.08781	0.00989
2068.80204	0.00960
2067.51627	0.00904
2066.23050	0.00842
2064.94474	0.00820
2063.65897	0.00851
2062.37320	0.00898
2061.08743	0.00913
2059.80166	0.00888
2058.51589	0.00855
2057.23012	0.00840
2055.94435	0.00836
2054.65859	0.00820
2053.37282	0.00789
2052.08705	0.00746
2050.80128	0.00696
2049.51551	0.00651
2048.22974	0.00641
2046.94397	0.00680
2045.65820	0.00746
2044.37243	0.00791
2043.08667	0.00784
2041.80090	0.00719
2040.51513	0.00606
2039.22936	0.00456
2037.94359	0.00292
2036.65782	0.00155
2035.37205	0.00083
2034.08628	0.00072
2032.80052	0.00089
2031.51475	0.00119
2030.22898	0.00188
2028.94321	0.00323
2027.65744	0.00500
2026.37167	0.00648
2025.08590	0.00706
2023.80013	0.00661
2022.51436	0.00549
2021.22860	0.00425
2019.94283	0.00330
2018.65706	0.00277
2017.37129	0.00258
2016.08552	0.00261
2014.79975	0.00276
2013.51398	0.00298
2012.22821	0.00326
2010.94245	0.00351
2009.65668	0.00347
2008.37091	0.00300
2007.08514	0.00231
2005.79937	0.00194
2004.51360	0.00225
2003.22783	0.00325
2001.94206	0.00471
2000.65629	0.00628
1999.37053	0.00755
1998.08476	0.00826
1996.79899	0.00857
1995.51322	0.00888
1994.22745	0.00927
1992.94168	0.00941
1991.65591	0.00900
1990.37014	0.00822
1989.08438	0.00760
1987.79861	0.00750
1986.51284	0.00780
1985.22707	0.00811
1983.94130	0.00826
1982.65553	0.00849
1981.36976	0.00896
1980.08399	0.00943
1978.79822	0.00943
1977.51246	0.00880
1976.22669	0.00779
1974.94092	0.00665
1973.65515	0.00558
1972.36938	0.00488
1971.08361	0.00483
1969.79784	0.00534
1968.51207	0.00593
1967.22631	0.00638
1965.94054	0.00695
1964.65477	0.00789
1963.36900	0.00898
1962.08323	0.00967
1960.79746	0.00975
1959.51169	0.00952
1958.22592	0.00936
1956.94015	0.00932
1955.65439	0.00924
1954.36862	0.00915
1953.08285	0.00936
1951.79708	0.01000
1950.51131	0.01084
1949.22554	0.01145
1947.93977	0.01166
1946.65400	0.01166
1945.36823	0.01179
1944.08247	0.01214
1942.79670	0.01252
1941.51093	0.01271
1940.22516	0.01268
1938.93939	0.01257
1937.65362	0.01247
1936.36785	0.01241
1935.08208	0.01233
1933.79632	0.01213
1932.51055	0.01184
1931.22478	0.01164
1929.93901	0.01169
1928.65324	0.01195
1927.36747	0.01222
1926.08170	0.01232
1924.79593	0.01228
1923.51016	0.01233
1922.22440	0.01263
1920.93863	0.01307
1919.65286	0.01334
1918.36709	0.01325
1917.08132	0.01302
1915.79555	0.01296
1914.50978	0.01314
1913.22401	0.01338
1911.93825	0.01343
1910.65248	0.01323
1909.36671	0.01287
1908.08094	0.01250
1906.79517	0.01229
1905.50940	0.01232
1904.22363	0.01253
1902.93786	0.01271
1901.65209	0.01273
1900.36633	0.01261
1899.08056	0.01254
1897.79479	0.01263
1896.50902	0.01276
1895.22325	0.01274
1893.93748	0.01258
1892.65171	0.01248
1891.36594	0.01260
1890.08018	0.01282
1888.79441	0.01285
1887.50864	0.01259
1886.22287	0.01226
1884.93710	0.01213
1883.65133	0.01224
1882.36556	0.01246
1881.07979	0.01265
1879.79402	0.01281
1878.50826	0.01294
1877.22249	0.01305
1875.93672	0.01314
1874.65095	0.01326
1873.36518	0.01339
1872.07941	0.01347
1870.79364	0.01346
1869.50787	0.01337
1868.22211	0.01327
1866.93634	0.01322
1865.65057	0.01320
1864.36480	0.01314
1863.07903	0.01298
1861.79326	0.01272
1860.50749	0.01252
1859.22172	0.01254
1857.93595	0.01281
1856.65019	0.01320
1855.36442	0.01357
1854.07865	0.01380
1852.79288	0.01389
1851.50711	0.01388
1850.22134	0.01382
1848.93557	0.01381
1847.64980	0.01387
1846.36404	0.01391
1845.07827	0.01392
1843.79250	0.01398
1842.50673	0.01409
1841.22096	0.01413
1839.93519	0.01401
1838.64942	0.01383
1837.36365	0.01370
1836.07788	0.01366
1834.79212	0.01369
1833.50635	0.01375
1832.22058	0.01384
1830.93481	0.01400
1829.64904	0.01426
1828.36327	0.01455
1827.07750	0.01470
1825.79173	0.01466
1824.50597	0.01455
1823.22020	0.01448
1821.93443	0.01443
1820.64866	0.01436
1819.36289	0.01422
1818.07712	0.01405
1816.79135	0.01393
1815.50558	0.01395
1814.21981	0.01413
1812.93405	0.01437
1811.64828	0.01461
1810.36251	0.01481
1809.07674	0.01497
1807.79097	0.01507
1806.50520	0.01508
1805.21943	0.01499
1803.93366	0.01485
1802.64790	0.01471
1801.36213	0.01468
1800.07636	0.01479
1798.79059	0.01498
1797.50482	0.01518
1796.21905	0.01531
1794.93328	0.01535
1793.64751	0.01533
1792.36174	0.01538
1791.07598	0.01555
1789.79021	0.01573
1788.50444	0.01581
1787.21867	0.01580
1785.93290	0.01580
1784.64713	0.01588
1783.36136	0.01597
1782.07559	0.01596
1780.78983	0.01582
1779.50406	0.01566
1778.21829	0.01561
1776.93252	0.01572
1775.64675	0.01591
1774.36098	0.01608
1773.07521	0.01620
1771.78944	0.01638
1770.50367	0.01657
1769.21791	0.01666
1767.93214	0.01668
1766.64637	0.01674
1765.36060	0.01685
1764.07483	0.01690
1762.78906	0.01691
1761.50329	0.01694
1760.21752	0.01699
1758.93176	0.01698
1757.64599	0.01694
1756.36022	0.01703
1755.07445	0.01722
1753.78868	0.01732
1752.50291	0.01724
1751.21714	0.01715
1749.93137	0.01726
1748.64560	0.01750
1747.35984	0.01770
1746.07407	0.01781
1744.78830	0.01785
1743.50253	0.01785
1742.21676	0.01782
1740.93099	0.01779
1739.64522	0.01789
1738.35945	0.01819
1737.07369	0.01849
1735.78792	0.01857
1734.50215	0.01858
1733.21638	0.01873
1731.93061	0.01899
1730.64484	0.01913
1729.35907	0.01913
1728.07330	0.01917
1726.78753	0.01925
1725.50177	0.01934
1724.21600	0.01945
1722.93023	0.01965
1721.64446	0.01999
1720.35869	0.02031
1719.07292	0.02053
1717.78715	0.02077
1716.50138	0.02115
1715.21561	0.02162
1713.92985	0.02204
1712.64408	0.02239
1711.35831	0.02273
1710.07254	0.02308
1708.78677	0.02342
1707.50100	0.02372
1706.21523	0.02404
1704.92946	0.02447
1703.64370	0.02493
1702.35793	0.02521
1701.07216	0.02540
1699.78639	0.02581
1698.50062	0.02631
1697.21485	0.02653
1695.92908	0.02656
1694.64331	0.02679
1693.35754	0.02719
1692.07178	0.02750
1690.78601	0.02768
1689.50024	0.02790
1688.21447	0.02813
1686.92870	0.02821
1685.64293	0.02819
1684.35716	0.02835
1683.07139	0.02880
1681.78563	0.02925
1680.49986	0.02949
1679.21409	0.02967
1677.92832	0.02988
1676.64255	0.03010
1675.35678	0.03035
1674.07101	0.03072
1672.78524	0.03110
1671.49947	0.03134
1670.21371	0.03148
1668.92794	0.03167
1667.64217	0.03199
1666.35640	0.03234
1665.07063	0.03259
1663.78486	0.03275
1662.49909	0.03290
1661.21332	0.03311
1659.92756	0.03338
1658.64179	0.03374
1657.35602	0.03417
1656.07025	0.03447
1654.78448	0.03443
1653.49871	0.03429
1652.21294	0.03446
1650.92717	0.03493
1649.64140	0.03527
1648.35564	0.03532
1647.06987	0.03532
1645.78410	0.03544
1644.49833	0.03561
1643.21256	0.03571
1641.92679	0.03574
1640.64102	0.03581
1639.35525	0.03593
1638.06949	0.03596
1636.78372	0.03587
1635.49795	0.03585
1634.21218	0.03604
1632.92641	0.03632
1631.64064	0.03653
1630.35487	0.03665
1629.06910	0.03678
1627.78333	0.03698
1626.49757	0.03717
1625.21180	0.03728
1623.92603	0.03735
1622.64026	0.03751
1621.35449	0.03780
1620.06872	0.03808
1618.78295	0.03818
1617.49718	0.03820
1616.21142	0.03836
1614.92565	0.03870
1613.63988	0.03905
1612.35411	0.03930
1611.06834	0.03950
1609.78257	0.03972
1608.49680	0.03991
1607.21103	0.04009
1605.92526	0.04026
1604.63950	0.04041
1603.35373	0.04055
1602.06796	0.04072
1600.78219	0.04091
1599.49642	0.04112
1598.21065	0.04129
1596.92488	0.04140
1595.63911	0.04142
1594.35335	0.04141
1593.06758	0.04143
1591.78181	0.04151
1590.49604	0.04160
1589.21027	0.04170
1587.92450	0.04180
1586.63873	0.04190
1585.35296	0.04200
1584.06719	0.04207
1582.78143	0.04214
1581.49566	0.04224
1580.20989	0.04239
1578.92412	0.04250
1577.63835	0.04251
1576.35258	0.04255
1575.06681	0.04282
1573.78104	0.04317
1572.49528	0.04334
1571.20951	0.04333
1569.92374	0.04334
1568.63797	0.04348
1567.35220	0.04363
1566.06643	0.04371
1564.78066	0.04379
1563.49489	0.04398
1562.20912	0.04416
1560.92336	0.04422
1559.63759	0.04429
1558.35182	0.04459
1557.06605	0.04500
1555.78028	0.04524
1554.49451	0.04532
1553.20874	0.04544
1551.92297	0.04562
1550.63721	0.04577
1549.35144	0.04589
1548.06567	0.04600
1546.77990	0.04608
1545.49413	0.04618
1544.20836	0.04635
1542.92259	0.04653
1541.63682	0.04660
1540.35105	0.04662
1539.06529	0.04677
1537.77952	0.04710
1536.49375	0.04741
1535.20798	0.04761
1533.92221	0.04783
1532.63644	0.04824
1531.35067	0.04875
1530.06490	0.04920
1528.77914	0.04962
1527.49337	0.05013
1526.20760	0.05080
1524.92183	0.05165
1523.63606	0.05254
1522.35029	0.05343
1521.06452	0.05448
1519.77875	0.05571
1518.49298	0.05693
1517.20722	0.05808
1515.92145	0.05928
1514.63568	0.06062
1513.34991	0.06207
1512.06414	0.06362
1510.77837	0.06524
1509.49260	0.06677
1508.20683	0.06812
1506.92107	0.06940
1505.63530	0.07080
1504.34953	0.07226
1503.06376	0.07352
1501.77799	0.07453
1500.49222	0.07543
1499.20645	0.07630
1497.92068	0.07713
1496.63491	0.07793
1495.34915	0.07879
1494.06338	0.07970
1492.77761	0.08059
1491.49184	0.08149
1490.20607	0.08252
1488.92030	0.08369
1487.63453	0.08493
1486.34876	0.08619
1485.06299	0.08749
1483.77723	0.08882
1482.49146	0.09017
1481.20569	0.09152
1479.91992	0.09285
1478.63415	0.09414
1477.34838	0.09537
1476.06261	0.09656
1474.77684	0.09769
1473.49108	0.09874
1472.20531	0.09977
1470.91954	0.10080
1469.63377	0.10171
1468.34800	0.10243
1467.06223	0.10298
1465.77646	0.10345
1464.49069	0.10393
1463.20492	0.10441
1461.91916	0.10487
1460.63339	0.10529
1459.34762	0.10566
1458.06185	0.10603
1456.77608	0.10653
1455.49031	0.10713
1454.20454	0.10760
1452.91877	0.10781
1451.63301	0.10788
1450.34724	0.10796
1449.06147	0.10803
1447.77570	0.10806
1446.48993	0.10802
1445.20416	0.10785
1443.91839	0.10750
1442.63262	0.10696
1441.34685	0.10634
1440.06109	0.10573
1438.77532	0.10521
1437.48955	0.10489
1436.20378	0.10492
1434.91801	0.10527
1433.63224	0.10581
1432.34647	0.10653
1431.06070	0.10752
1429.77494	0.10885
1428.48917	0.11046
1427.20340	0.11222
1425.91763	0.11405
1424.63186	0.11591
1423.34609	0.11776
1422.06032	0.11947
1420.77455	0.12093
1419.48878	0.12220
1418.20302	0.12338
1416.91725	0.12440
1415.63148	0.12514
1414.34571	0.12557
1413.05994	0.12574
1411.77417	0.12566
1410.48840	0.12534
1409.20263	0.12478
1407.91687	0.12394
1406.63110	0.12279
1405.34533	0.12135
1404.05956	0.11972
1402.77379	0.11791
1401.48802	0.11592
1400.20225	0.11375
1398.91648	0.11147
1397.63071	0.10913
1396.34495	0.10669
1395.05918	0.10416
1393.77341	0.10162
1392.48764	0.09911
1391.20187	0.09665
1389.91610	0.09422
1388.63033	0.09186
1387.34456	0.08961
1386.05880	0.08749
1384.77303	0.08543
1383.48726	0.08338
1382.20149	0.08136
1380.91572	0.07938
1379.62995	0.07741
1378.34418	0.07536
1377.05841	0.07317
1375.77264	0.07077
1374.48688	0.06821
1373.20111	0.06558
1371.91534	0.06297
1370.62957	0.06045
1369.34380	0.05808
1368.05803	0.05590
1366.77226	0.05390
1365.48649	0.05205
1364.20073	0.05030
1362.91496	0.04863
1361.62919	0.04705
1360.34342	0.04554
1359.05765	0.04410
1357.77188	0.04275
1356.48611	0.04151
1355.20034	0.04041
1353.91457	0.03945
1352.62881	0.03857
1351.34304	0.03775
1350.05727	0.03696
1348.77150	0.03622
1347.48573	0.03552
1346.19996	0.03486
1344.91419	0.03422
1343.62842	0.03362
1342.34266	0.03305
1341.05689	0.03252
1339.77112	0.03202
1338.48535	0.03155
1337.19958	0.03108
1335.91381	0.03064
1334.62804	0.03023
1333.34227	0.02983
1332.05650	0.02944
1330.77074	0.02905
1329.48497	0.02869
1328.19920	0.02836
1326.91343	0.02803
1325.62766	0.02770
1324.34189	0.02743
1323.05612	0.02725
1321.77035	0.02714
1320.48459	0.02704
1319.19882	0.02690
1317.91305	0.02670
1316.62728	0.02647
1315.34151	0.02626
1314.05574	0.02608
1312.76997	0.02589
1311.48420	0.02566
1310.19843	0.02539
1308.91267	0.02512
1307.62690	0.02491
1306.34113	0.02475
1305.05536	0.02462
1303.76959	0.02448
1302.48382	0.02430
1301.19805	0.02411
1299.91228	0.02393
1298.62652	0.02378
1297.34075	0.02366
1296.05498	0.02356
1294.76921	0.02347
1293.48344	0.02335
1292.19767	0.02319
1290.91190	0.02300
1289.62613	0.02278
1288.34036	0.02257
1287.05460	0.02240
1285.76883	0.02229
1284.48306	0.02224
1283.19729	0.02220
1281.91152	0.02212
1280.62575	0.02196
1279.33998	0.02175
1278.05421	0.02154
1276.76845	0.02138
1275.48268	0.02129
1274.19691	0.02125
1272.91114	0.02123
1271.62537	0.02119
1270.33960	0.02113
1269.05383	0.02106
1267.76806	0.02099
1266.48229	0.02091
1265.19653	0.02082
1263.91076	0.02071
1262.62499	0.02060
1261.33922	0.02049
1260.05345	0.02038
1258.76768	0.02028
1257.48191	0.02020
1256.19614	0.02014
1254.91037	0.02007
1253.62461	0.01997
1252.33884	0.01981
1251.05307	0.01965
1249.76730	0.01951
1248.48153	0.01942
1247.19576	0.01935
1245.90999	0.01928
1244.62422	0.01920
1243.33846	0.01912
1242.05269	0.01906
1240.76692	0.01902
1239.48115	0.01899
1238.19538	0.01896
1236.90961	0.01891
1235.62384	0.01885
1234.33807	0.01881
1233.05230	0.01877
1231.76654	0.01874
1230.48077	0.01869
1229.19500	0.01863
1227.90923	0.01856
1226.62346	0.01851
1225.33769	0.01848
1224.05192	0.01847
1222.76615	0.01845
1221.48039	0.01847
1220.19462	0.01851
1218.90885	0.01857
1217.62308	0.01858
1216.33731	0.01854
1215.05154	0.01847
1213.76577	0.01839
1212.48000	0.01833
1211.19423	0.01830
1209.90847	0.01831
1208.62270	0.01835
1207.33693	0.01839
1206.05116	0.01843
1204.76539	0.01846
1203.47962	0.01847
1202.19385	0.01848
1200.90808	0.01852
1199.62232	0.01859
1198.33655	0.01870
1197.05078	0.01878
1195.76501	0.01877
1194.47924	0.01868
1193.19347	0.01859
1191.90770	0.01858
1190.62193	0.01867
1189.33616	0.01881
1188.05040	0.01894
1186.76463	0.01902
1185.47886	0.01908
1184.19309	0.01915
1182.90732	0.01922
1181.62155	0.01927
1180.33578	0.01928
1179.05001	0.01929
1177.76425	0.01933
1176.47848	0.01941
1175.19271	0.01954
1173.90694	0.01972
1172.62117	0.01994
1171.33540	0.02018
1170.04963	0.02041
1168.76386	0.02066
1167.47809	0.02091
1166.19233	0.02118
1164.90656	0.02147
1163.62079	0.02176
1162.33502	0.02204
1161.04925	0.02229
1159.76348	0.02255
1158.47771	0.02285
1157.19194	0.02323
1155.90618	0.02370
1154.62041	0.02422
1153.33464	0.02473
1152.04887	0.02521
1150.76310	0.02571
1149.47733	0.02629
1148.19156	0.02696
1146.90579	0.02772
1145.62002	0.02853
1144.33426	0.02943
1143.04849	0.03042
1141.76272	0.03150
1140.47695	0.03261
1139.19118	0.03377
1137.90541	0.03506
1136.61964	0.03653
1135.33387	0.03815
1134.04811	0.03988
1132.76234	0.04171
1131.47657	0.04367
1130.19080	0.04588
1128.90503	0.04841
1127.61926	0.05126
1126.33349	0.05432
1125.04772	0.05750
1123.76195	0.06076
1122.47619	0.06414
1121.19042	0.06767
1119.90465	0.07128
1118.61888	0.07487
1117.33311	0.07841
1116.04734	0.08196
1114.76157	0.08555
1113.47580	0.08916
1112.19004	0.09271
1110.90427	0.09617
1109.61850	0.09958
1108.33273	0.10294
1107.04696	0.10623
1105.76119	0.10940
1104.47542	0.11244
1103.18965	0.11539
1101.90388	0.11828
1100.61812	0.12110
1099.33235	0.12385
1098.04658	0.12652
1096.76081	0.12908
1095.47504	0.13145
1094.18927	0.13366
1092.90350	0.13576
1091.61773	0.13783
1090.33197	0.13986
1089.04620	0.14183
1087.76043	0.14375
1086.47466	0.14567
1085.18889	0.14762
1083.90312	0.14962
1082.61735	0.15168
1081.33158	0.15380
1080.04581	0.15603
1078.76005	0.15840
1077.47428	0.16091
1076.18851	0.16355
1074.90274	0.16630
1073.61697	0.16914
1072.33120	0.17205
1071.04543	0.17505
1069.75966	0.17812
1068.47390	0.18124
1067.18813	0.18435
1065.90236	0.18752
1064.61659	0.19080
1063.33082	0.19421
1062.04505	0.19766
1060.75928	0.20104
1059.47351	0.20432
1058.18774	0.20755
1056.90198	0.21069
1055.61621	0.21375
1054.33044	0.21676
1053.04467	0.21978
1051.75890	0.22288
1050.47313	0.22605
1049.18736	0.22932
1047.90159	0.23274
1046.61583	0.23637
1045.33006	0.24017
1044.04429	0.24407
1042.75852	0.24793
1041.47275	0.25170
1040.18698	0.25538
1038.90121	0.25907
1037.61544	0.26287
1036.32967	0.26676
1035.04391	0.27064
1033.75814	0.27439
1032.47237	0.27789
1031.18660	0.28108
1029.90083	0.28395
1028.61506	0.28651
1027.32929	0.28878
1026.04352	0.29081
1024.75775	0.29260
1023.47199	0.29408
1022.18622	0.29513
1020.90045	0.29568
1019.61468	0.29579
1018.32891	0.29552
1017.04314	0.29487
1015.75737	0.29380
1014.47160	0.29226
1013.18584	0.29031
1011.90007	0.28796
1010.61430	0.28515
1009.32853	0.28181
1008.04276	0.27796
1006.75699	0.27362
1005.47122	0.26884
1004.18545	0.26364
1002.89968	0.25801
1001.61392	0.25196
1000.32815	0.24554
999.04238	0.23884
997.75661	0.23195
996.47084	0.22496
995.18507	0.21793
993.89930	0.21087
992.61353	0.20383
991.32777	0.19684
990.04200	0.18998
988.75623	0.18329
987.47046	0.17680
986.18469	0.17055
984.89892	0.16453
983.61315	0.15877
982.32738	0.15330
981.04161	0.14815
979.75585	0.14334
978.47008	0.13885
977.18431	0.13470
975.89854	0.13091
974.61277	0.12758
973.32700	0.12478
972.04123	0.12263
970.75546	0.12117
969.46970	0.12042
968.18393	0.12030
966.89816	0.12071
965.61239	0.12149
964.32662	0.12245
963.04085	0.12331
961.75508	0.12376
960.46931	0.12361
959.18354	0.12280
957.89778	0.12138
956.61201	0.11940
955.32624	0.11694
954.04047	0.11411
952.75470	0.11108
951.46893	0.10802
950.18316	0.10501
948.89739	0.10206
947.61163	0.09917
946.32586	0.09633
945.04009	0.09350
943.75432	0.09071
942.46855	0.08807
941.18278	0.08566
939.89701	0.08351
938.61124	0.08153
937.32547	0.07960
936.03971	0.07768
934.75394	0.07583
933.46817	0.07413
932.18240	0.07256
930.89663	0.07108
929.61086	0.06970
928.32509	0.06841
927.03932	0.06719
925.75356	0.06599
924.46779	0.06481
923.18202	0.06376
921.89625	0.06288
920.61048	0.06213
919.32471	0.06142
918.03894	0.06068
916.75317	0.05991
915.46740	0.05916
914.18164	0.05846
912.89587	0.05781
911.61010	0.05722
910.32433	0.05669
909.03856	0.05618
907.75279	0.05565
906.46702	0.05509
905.18125	0.05462
903.89549	0.05426
902.60972	0.05393
901.32395	0.05345
900.03818	0.05279
898.75241	0.05208
897.46664	0.05150
896.18087	0.05107
894.89510	0.05069
893.60933	0.05037
892.32357	0.05018
891.03780	0.05022
889.75203	0.05050
888.46626	0.05105
887.18049	0.05199
885.89472	0.05353
884.60895	0.05589
883.32318	0.05908
882.03742	0.06273
880.75165	0.06626
879.46588	0.06914
878.18011	0.07124
876.89434	0.07295
875.60857	0.07477
874.32280	0.07682
873.03703	0.07871
871.75126	0.07982
870.46550	0.07974
869.17973	0.07848
867.89396	0.07626
866.60819	0.07343
865.32242	0.07032
864.03665	0.06723
862.75088	0.06434
861.46511	0.06172
860.17935	0.05939
858.89358	0.05740
857.60781	0.05574
856.32204	0.05432
855.03627	0.05304
853.75050	0.05185
852.46473	0.05081
851.17896	0.04996
849.89319	0.04930
848.60743	0.04878
847.32166	0.04832
846.03589	0.04789
844.75012	0.04746
843.46435	0.04704
842.17858	0.04666
840.89281	0.04630
839.60704	0.04595
838.32128	0.04560
837.03551	0.04523
835.74974	0.04487
834.46397	0.04453
833.17820	0.04424
831.89243	0.04401
830.60666	0.04378
829.32089	0.04352
828.03512	0.04329
826.74936	0.04316
825.46359	0.04315
824.17782	0.04322
822.89205	0.04326
821.60628	0.04318
820.32051	0.04294
819.03474	0.04258
817.74897	0.04222
816.46321	0.04197
815.17744	0.04191
813.89167	0.04200
812.60590	0.04217
811.32013	0.04233
810.03436	0.04237
808.74859	0.04225
807.46282	0.04202
806.17705	0.04178
804.89129	0.04161
803.60552	0.04150
802.31975	0.04141
801.03398	0.04129
799.74821	0.04111
798.46244	0.04089
797.17667	0.04070
795.89090	0.04057
794.60513	0.04049
793.31937	0.04045
792.03360	0.04045
790.74783	0.04046
789.46206	0.04042
788.17629	0.04027
786.89052	0.04004
785.60475	0.03981
784.31898	0.03966
783.03322	0.03961
781.74745	0.03960
780.46168	0.03958
779.17591	0.03953
777.89014	0.03951
776.60437	0.03959
775.31860	0.03980
774.03283	0.04003
772.74706	0.04020
771.46130	0.04025
770.17553	0.04019
768.88976	0.04007
767.60399	0.03994
766.31822	0.03983
765.03245	0.03981
763.74668	0.03987
762.46091	0.03997
761.17515	0.04006
759.88938	0.04013
758.60361	0.04018
757.31784	0.04019
756.03207	0.04016
754.74630	0.04013
753.46053	0.04012
752.17476	0.04009
750.88899	0.03998
749.60323	0.03983
748.31746	0.03973
747.03169	0.03968
745.74592	0.03966
744.46015	0.03961
743.17438	0.03953
741.88861	0.03946
740.60284	0.03942
739.31708	0.03935
738.03131	0.03918
736.74554	0.03884
735.45977	0.03844
734.17400	0.03816
732.88823	0.03808
731.60246	0.03813
730.31669	0.03814
729.03092	0.03805
727.74516	0.03788
726.45939	0.03773
725.17362	0.03769
723.88785	0.03778
722.60208	0.03798
721.31631	0.03817
720.03054	0.03827
718.74477	0.03825
717.45901	0.03817
716.17324	0.03805
714.88747	0.03794
713.60170	0.03784
712.31593	0.03777
711.03016	0.03775
709.74439	0.03775
708.45862	0.03772
707.17285	0.03760
705.88709	0.03739
704.60132	0.03713
703.31555	0.03690
702.02978	0.03676
700.74401	0.03674
699.45824	0.03682
698.17247	0.03693
696.88670	0.03697
695.60094	0.03689
694.31517	0.03676
693.02940	0.03670
691.74363	0.03676
690.45786	0.03688
689.17209	0.03696
687.88632	0.03692
686.60055	0.03679
685.31478	0.03658
684.02902	0.03634
682.74325	0.03612
681.45748	0.03594
680.17171	0.03582
678.88594	0.03575
677.60017	0.03571
676.31440	0.03568
675.02863	0.03569
673.74287	0.03574
672.45710	0.03584
671.17133	0.03597
669.88556	0.03612
668.59979	0.03625
667.31402	0.03632
666.02825	0.03623
664.74248	0.03600
663.45671	0.03569
662.17095	0.03536
660.88518	0.03508
659.59941	0.03487
658.31364	0.03472
657.02787	0.03461
655.74210	0.03453
654.45633	0.03450
653.17056	0.03451
651.88480	0.03456
650.59903	0.03462
649.31326	0.03468
648.02749	0.03474
646.74172	0.03479
645.45595	0.03483
644.17018	0.03488
642.88441	0.03498
641.59864	0.03516
640.31288	0.03541
639.02711	0.03569
637.74134	0.03599
636.45557	0.03633
635.16980	0.03678
633.88403	0.03732
632.59826	0.03788
631.31249	0.03839
630.02673	0.03890
628.74096	0.03949
627.45519	0.04024
626.16942	0.04147
624.88365	0.04317
623.59788	0.04509
622.31211	0.04709
621.02634	0.04939
619.74057	0.05240
618.45481	0.05611
617.16904	0.05981
615.88327	0.06283
614.59750	0.06531
613.31173	0.06829
612.02596	0.07283
610.74019	0.07900
609.45442	0.08579
608.16866	0.09223
606.88289	0.09793
605.59712	0.10266
604.31135	0.10602
603.02558	0.10773
601.73981	0.10792
600.45404	0.10688
599.16827	0.10488
597.88250	0.10226
596.59674	0.09946
595.31097	0.09691
594.02520	0.09483
592.73943	0.09321
591.45366	0.09201
590.16789	0.09126
588.88212	0.09104
587.59635	0.09134
586.31059	0.09209
585.02482	0.09321
583.73905	0.09472
582.45328	0.09663
581.16751	0.09889
579.88174	0.10139
578.59597	0.10401
577.31020	0.10665
576.02443	0.10923
574.73867	0.11166
573.45290	0.11395
572.16713	0.11620
570.88136	0.11868
569.59559	0.12164
568.30982	0.12523
567.02405	0.12925
565.73828	0.13332
564.45251	0.13696
563.16675	0.13974
561.88098	0.14129
560.59521	0.14135
559.30944	0.13981
558.02367	0.13670
556.73790	0.13216
555.45213	0.12646
554.16636	0.12009
552.88060	0.11363
551.59483	0.10754
550.30906	0.10199
549.02329	0.09690
547.73752	0.09225
546.45175	0.08806
545.16598	0.08433
543.88021	0.08095
542.59444	0.07776
541.30868	0.07473
540.02291	0.07194
538.73714	0.06944
537.45137	0.06723
536.16560	0.06525
534.87983	0.06339
533.59406	0.06157
532.30829	0.05975
531.02253	0.05796
529.73676	0.05628
528.45099	0.05475
527.16522	0.05340
525.87945	0.05218
524.59368	0.05105
523.30791	0.04997
522.02214	0.04890
520.73637	0.04785
519.45061	0.04686
518.16484	0.04593
516.87907	0.04509
515.59330	0.04427
514.30753	0.04342
513.02176	0.04253
511.73599	0.04166
510.45022	0.04090
509.16446	0.04023
507.87869	0.03954
506.59292	0.03874
505.30715	0.03787
504.02138	0.03707
502.73561	0.03649
501.44984	0.03611
500.16407	0.03582
498.87830	0.03550
497.59254	0.03514
496.30677	0.03478
495.02100	0.03448
493.73523	0.03426
492.44946	0.03411
491.16369	0.03400
489.87792	0.03384
488.59215	0.03359
487.30639	0.03327
486.02062	0.03300
484.73485	0.03290
483.44908	0.03300
482.16331	0.03321
480.87754	0.03342
479.59177	0.03360
478.30600	0.03383
477.02023	0.03419
475.73447	0.03465
474.44870	0.03508
473.16293	0.03534
471.87716	0.03540
470.59139	0.03527
469.30562	0.03503
468.01985	0.03475
466.73408	0.03448
465.44832	0.03422
464.16255	0.03394
462.87678	0.03362
461.59101	0.03327
460.30524	0.03289
459.01947	0.03250
457.73370	0.03215
456.44793	0.03188
455.16216	0.03167
453.87640	0.03145
452.59063	0.03115
451.30486	0.03077
450.01909	0.03038
448.73332	0.03006
447.44755	0.02989
446.16178	0.02986
444.87601	0.02989
443.59025	0.02991
442.30448	0.02989
441.01871	0.02981
439.73294	0.02970
438.44717	0.02958
437.16140	0.02946
435.87563	0.02935
434.58986	0.02927
433.30409	0.02921
432.01833	0.02919
430.73256	0.02917
429.44679	0.02913
428.16102	0.02907
426.87525	0.02898
425.58948	0.02887
424.30371	0.02875
423.01794	0.02863
421.73218	0.02848
420.44641	0.02831
419.16064	0.02815
417.87487	0.02803
416.58910	0.02794
415.30333	0.02784
414.01756	0.02778
412.73179	0.02778
411.44602	0.02783
410.16026	0.02788
408.87449	0.02792
407.58872	0.02795
406.30295	0.02798
405.01718	0.02801
403.73141	0.02803
402.44564	0.02806
401.15987	0.02812
399.87411	0.02821
