3997.45528	0.03129
3996.16951	0.03169
3994.88374	0.03229
3993.59798	0.03308
3992.31221	0.03391
3991.02644	0.03452
3989.74067	0.03475
3988.45490	0.03474
3987.16913	0.03486
3985.88336	0.03534
3984.59759	0.03586
3983.31183	0.03586
3982.02606	0.03513
3980.74029	0.03404
3979.45452	0.03312
3978.16875	0.03261
3976.88298	0.03252
3975.59721	0.03278
3974.31144	0.03323
3973.02567	0.03362
3971.73991	0.03382
3970.45414	0.03387
3969.16837	0.03373
3967.88260	0.03330
3966.59683	0.03260
3965.31106	0.03191
3964.02529	0.03151
3962.73952	0.03154
3961.45376	0.03193
3960.16799	0.03243
3958.88222	0.03276
3957.59645	0.03274
3956.31068	0.03249
3955.02491	0.03221
3953.73914	0.03201
3952.45337	0.03189
3951.16760	0.03194
3949.88184	0.03226
3948.59607	0.03276
3947.31030	0.03317
3946.02453	0.03334
3944.73876	0.03330
3943.45299	0.03323
3942.16722	0.03317
3940.88145	0.03308
3939.59569	0.03289
3938.30992	0.03261
3937.02415	0.03220
3935.73838	0.03163
3934.45261	0.03106
3933.16684	0.03081
3931.88107	0.03110
3930.59530	0.03164
3929.30953	0.03195
3928.02377	0.03176
3926.73800	0.03126
3925.45223	0.03089
3924.16646	0.03102
3922.88069	0.03166
3921.59492	0.03263
3920.30915	0.03366
3919.02338	0.03439
3917.73762	0.03451
3916.45185	0.03400
3915.16608	0.03311
3913.88031	0.03220
3912.59454	0.03164
3911.30877	0.03161
3910.02300	0.03200
3908.73723	0.03245
3907.45146	0.03253
3906.16570	0.03212
3904.87993	0.03159
3903.59416	0.03150
3902.30839	0.03185
3901.02262	0.03215
3899.73685	0.03196
3898.45108	0.03139
3897.16531	0.03082
3895.87955	0.03051
3894.59378	0.03044
3893.30801	0.03049
3892.02224	0.03066
3890.73647	0.03109
3889.45070	0.03170
3888.16493	0.03209
3886.87916	0.03215
3885.59339	0.03212
3884.30763	0.03194
3883.02186	0.03135
3881.73609	0.03051
3880.45032	0.03005
3879.16455	0.03024
3877.87878	0.03061
3876.59301	0.03074
3875.30724	0.03076
3874.02148	0.03089
3872.73571	0.03098
3871.44994	0.03086
3870.16417	0.03091
3868.87840	0.03133
3867.59263	0.03159
3866.30686	0.03119
3865.02109	0.03050
3863.73532	0.03016
3862.44956	0.03027
3861.16379	0.03062
3859.87802	0.03112
3858.59225	0.03169
3857.30648	0.03197
3856.02071	0.03159
3854.73494	0.03080
3853.44917	0.03044
3852.16341	0.03091
3850.87764	0.03178
3849.59187	0.03245
3848.30610	0.03275
3847.02033	0.03271
3845.73456	0.03248
3844.44879	0.03227
3843.16302	0.03221
3841.87725	0.03217
3840.59149	0.03176
3839.30572	0.03082
3838.01995	0.02973
3836.73418	0.02895
3835.44841	0.02862
3834.16264	0.02863
3832.87687	0.02898
3831.59110	0.02969
3830.30534	0.03045
3829.01957	0.03089
3827.73380	0.03090
3826.44803	0.03074
3825.16226	0.03068
3823.87649	0.03067
3822.59072	0.03069
3821.30495	0.03096
3820.01918	0.03144
3818.73342	0.03162
3817.44765	0.03120
3816.16188	0.03068
3814.87611	0.03051
3813.59034	0.03041
3812.30457	0.03018
3811.01880	0.03011
3809.73303	0.03024
3808.44726	0.03016
3807.16150	0.02973
3805.87573	0.02923
3804.58996	0.02868
3803.30419	0.02790
3802.01842	0.02717
3800.73265	0.02706
3799.44688	0.02754
3798.16111	0.02813
3796.87535	0.02869
3795.58958	0.02937
3794.30381	0.02995
3793.01804	0.03010
3791.73227	0.02985
3790.44650	0.02960
3789.16073	0.02963
3787.87496	0.02983
3786.58919	0.02996
3785.30343	0.02994
3784.01766	0.02985
3782.73189	0.02970
3781.44612	0.02935
3780.16035	0.02884
3778.87458	0.02836
3777.58881	0.02804
3776.30304	0.02779
3775.01728	0.02771
3773.73151	0.02795
3772.44574	0.02849
3771.15997	0.02908
3769.87420	0.02951
3768.58843	0.02961
3767.30266	0.02927
3766.01689	0.02867
3764.73112	0.02822
3763.44536	0.02813
3762.15959	0.02828
3760.87382	0.02845
3759.58805	0.02856
3758.30228	0.02869
3757.01651	0.02900
3755.73074	0.02940
3754.44497	0.02951
3753.15921	0.02910
3751.87344	0.02854
3750.58767	0.02840
3749.30190	0.02900
3748.01613	0.02999
3746.73036	0.03047
3745.44459	0.03016
3744.15882	0.02980
3742.87305	0.02975
3741.58729	0.02965
3740.30152	0.02946
3739.01575	0.02955
3737.72998	0.02997
3736.44421	0.03045
3735.15844	0.03078
3733.87267	0.03094
3732.58690	0.03119
3731.30114	0.03166
3730.01537	0.03195
3728.72960	0.03149
3727.44383	0.03041
3726.15806	0.02934
3724.87229	0.02858
3723.58652	0.02799
3722.30075	0.02750
3721.01498	0.02718
3719.72922	0.02699
3718.44345	0.02689
3717.15768	0.02697
3715.87191	0.02731
3714.58614	0.02770
3713.30037	0.02796
3712.01460	0.02815
3710.72883	0.02845
3709.44307	0.02896
3708.15730	0.02956
3706.87153	0.03009
3705.58576	0.03034
3704.29999	0.03024
3703.01422	0.02988
3701.72845	0.02939
3700.44268	0.02883
3699.15691	0.02817
3697.87115	0.02753
3696.58538	0.02722
3695.29961	0.02750
3694.01384	0.02818
3692.72807	0.02876
3691.44230	0.02871
3690.15653	0.02787
3688.87076	0.02677
3687.58500	0.02622
3686.29923	0.02642
3685.01346	0.02696
3683.72769	0.02751
3682.44192	0.02810
3681.15615	0.02870
3679.87038	0.02905
3678.58461	0.02868
3677.29884	0.02755
3676.01308	0.02653
3674.72731	0.02651
3673.44154	0.02723
3672.15577	0.02767
3670.87000	0.02760
3669.58423	0.02750
3668.29846	0.02748
3667.01269	0.02733
3665.72693	0.02714
3664.44116	0.02721
3663.15539	0.02760
3661.86962	0.02816
3660.58385	0.02876
3659.29808	0.02929
3658.01231	0.02954
3656.72654	0.02942
3655.44077	0.02918
3654.15501	0.02911
3652.86924	0.02923
3651.58347	0.02940
3650.29770	0.02949
3649.01193	0.02937
3647.72616	0.02899
3646.44039	0.02835
3645.15462	0.02759
3643.86886	0.02702
3642.58309	0.02690
3641.29732	0.02724
3640.01155	0.02774
3638.72578	0.02807
3637.44001	0.02818
3636.15424	0.02819
3634.86847	0.02829
3633.58270	0.02861
3632.29694	0.02897
3631.01117	0.02905
3629.72540	0.02892
3628.43963	0.02902
3627.15386	0.02952
3625.86809	0.03014
3624.58232	0.03069
3623.29655	0.03105
3622.01079	0.03095
3620.72502	0.03024
3619.43925	0.02928
3618.15348	0.02876
3616.86771	0.02904
3615.58194	0.02989
3614.29617	0.03075
3613.01040	0.03116
3611.72463	0.03107
3610.43887	0.03071
3609.15310	0.03036
3607.86733	0.03010
3606.58156	0.02975
3605.29579	0.02923
3604.01002	0.02872
3602.72425	0.02845
3601.43848	0.02853
3600.15272	0.02889
3598.86695	0.02933
3597.58118	0.02966
3596.29541	0.02994
3595.00964	0.03040
3593.72387	0.03108
3592.43810	0.03166
3591.15233	0.03174
3589.86656	0.03141
3588.58080	0.03124
3587.29503	0.03167
3586.00926	0.03249
3584.72349	0.03314
3583.43772	0.03337
3582.15195	0.03348
3580.86618	0.03390
3579.58041	0.03456
3578.29464	0.03489
3577.00888	0.03440
3575.72311	0.03331
3574.43734	0.03240
3573.15157	0.03218
3571.86580	0.03251
3570.58003	0.03292
3569.29426	0.03310
3568.00849	0.03307
3566.72273	0.03291
3565.43696	0.03264
3564.15119	0.03227
3562.86542	0.03180
3561.57965	0.03126
3560.29388	0.03077
3559.00811	0.03066
3557.72234	0.03112
3556.43657	0.03194
3555.15081	0.03263
3553.86504	0.03293
3552.57927	0.03293
3551.29350	0.03282
3550.00773	0.03272
3548.72196	0.03260
3547.43619	0.03251
3546.15042	0.03253
3544.86466	0.03268
3543.57889	0.03282
3542.29312	0.03277
3541.00735	0.03252
3539.72158	0.03230
3538.43581	0.03236
3537.15004	0.03273
3535.86427	0.03322
3534.57850	0.03363
3533.29274	0.03389
3532.00697	0.03408
3530.72120	0.03428
3529.43543	0.03441
3528.14966	0.03422
3526.86389	0.03361
3525.57812	0.03291
3524.29235	0.03265
3523.00659	0.03302
3521.72082	0.03369
3520.43505	0.03415
3519.14928	0.03423
3517.86351	0.03407
3516.57774	0.03392
3515.29197	0.03395
3514.00620	0.03417
3512.72043	0.03442
3511.43467	0.03455
3510.14890	0.03457
3508.86313	0.03460
3507.57736	0.03473
3506.29159	0.03489
3505.00582	0.03498
3503.72005	0.03498
3502.43428	0.03489
3501.14852	0.03476
3499.86275	0.03466
3498.57698	0.03463
3497.29121	0.03457
3496.00544	0.03434
3494.71967	0.03399
3493.43390	0.03380
3492.14813	0.03399
3490.86236	0.03450
3489.57660	0.03500
3488.29083	0.03526
3487.00506	0.03526
3485.71929	0.03516
3484.43352	0.03499
3483.14775	0.03480
3481.86198	0.03463
3480.57621	0.03450
3479.29045	0.03436
3478.00468	0.03411
3476.71891	0.03386
3475.43314	0.03379
3474.14737	0.03397
3472.86160	0.03430
3471.57583	0.03470
3470.29006	0.03521
3469.00429	0.03589
3467.71853	0.03663
3466.43276	0.03713
3465.14699	0.03716
3463.86122	0.03666
3462.57545	0.03583
3461.28968	0.03505
3460.00391	0.03473
3458.71814	0.03496
3457.43238	0.03551
3456.14661	0.03600
3454.86084	0.03628
3453.57507	0.03647
3452.28930	0.03671
3451.00353	0.03691
3449.71776	0.03688
3448.43199	0.03658
3447.14622	0.03626
3445.86046	0.03622
3444.57469	0.03652
3443.28892	0.03698
3442.00315	0.03738
3440.71738	0.03760
3439.43161	0.03767
3438.14584	0.03769
3436.86007	0.03782
3435.57431	0.03809
3434.28854	0.03826
3433.00277	0.03797
3431.71700	0.03713
3430.43123	0.03619
3429.14546	0.03569
3427.85969	0.03579
3426.57392	0.03622
3425.28815	0.03664
3424.00239	0.03702
3422.71662	0.03739
3421.43085	0.03759
3420.14508	0.03743
3418.85931	0.03697
3417.57354	0.03648
3416.28777	0.03618
3415.00200	0.03602
3413.71624	0.03589
3412.43047	0.03573
3411.14470	0.03546
3409.85893	0.03508
3408.57316	0.03481
3407.28739	0.03498
3406.00162	0.03565
3404.71585	0.03648
3403.43008	0.03699
3402.14432	0.03707
3400.85855	0.03698
3399.57278	0.03699
3398.28701	0.03712
3397.00124	0.03723
3395.71547	0.03721
3394.42970	0.03707
3393.14393	0.03682
3391.85817	0.03653
3390.57240	0.03625
3389.28663	0.03605
3388.00086	0.03599
3386.71509	0.03611
3385.42932	0.03640
3384.14355	0.03682
3382.85778	0.03728
3381.57201	0.03772
3380.28625	0.03817
3379.00048	0.03859
3377.71471	0.03883
3376.42894	0.03875
3375.14317	0.03839
3373.85740	0.03794
3372.57163	0.03757
3371.28586	0.03735
3370.00010	0.03723
3368.71433	0.03721
3367.42856	0.03727
3366.14279	0.03736
3364.85702	0.03740
3363.57125	0.03738
3362.28548	0.03739
3360.99971	0.03754
3359.71394	0.03778
3358.42818	0.03798
3357.14241	0.03809
3355.85664	0.03817
3354.57087	0.03829
3353.28510	0.03838
3351.99933	0.03830
3350.71356	0.03803
3349.42779	0.03770
3348.14202	0.03753
3346.85626	0.03764
3345.57049	0.03790
3344.28472	0.03812
3342.99895	0.03818
3341.71318	0.03815
3340.42741	0.03819
3339.14164	0.03837
3337.85587	0.03865
3336.57011	0.03886
3335.28434	0.03891
3333.99857	0.03881
3332.71280	0.03864
3331.42703	0.03841
3330.14126	0.03816
3328.85549	0.03798
3327.56972	0.03805
3326.28395	0.03849
3324.99819	0.03923
3323.71242	0.03995
3322.42665	0.04037
3321.14088	0.04035
3319.85511	0.03999
3318.56934	0.03948
3317.28357	0.03904
3315.99780	0.03884
3314.71204	0.03895
3313.42627	0.03923
3312.14050	0.03948
3310.85473	0.03958
3309.56896	0.03958
3308.28319	0.03956
3306.99742	0.03953
3305.71165	0.03952
3304.42588	0.03955
3303.14012	0.03964
3301.85435	0.03967
3300.56858	0.03950
3299.28281	0.03908
3297.99704	0.03845
3296.71127	0.03783
3295.42550	0.03749
3294.13973	0.03756
3292.85397	0.03790
3291.56820	0.03818
3290.28243	0.03818
3288.99666	0.03793
3287.71089	0.03760
3286.42512	0.03734
3285.13935	0.03724
3283.85358	0.03733
3282.56781	0.03757
3281.28205	0.03789
3279.99628	0.03826
3278.71051	0.03871
3277.42474	0.03923
3276.13897	0.03966
3274.85320	0.03974
3273.56743	0.03942
3272.28166	0.03893
3270.99590	0.03863
3269.71013	0.03859
3268.42436	0.03859
3267.13859	0.03841
3265.85282	0.03813
3264.56705	0.03801
3263.28128	0.03818
3261.99551	0.03846
3260.70974	0.03858
3259.42398	0.03841
3258.13821	0.03816
3256.85244	0.03807
3255.56667	0.03821
3254.28090	0.03835
3252.99513	0.03821
3251.70936	0.03778
3250.42359	0.03737
3249.13783	0.03731
3247.85206	0.03771
3246.56629	0.03835
3245.28052	0.03887
3243.99475	0.03898
3242.70898	0.03863
3241.42321	0.03807
3240.13744	0.03772
3238.85167	0.03784
3237.56591	0.03827
3236.28014	0.03856
3234.99437	0.03839
3233.70860	0.03786
3232.42283	0.03742
3231.13706	0.03741
3229.85129	0.03782
3228.56552	0.03841
3227.27976	0.03895
3225.99399	0.03931
3224.70822	0.03940
3223.42245	0.03916
3222.13668	0.03866
3220.85091	0.03812
3219.56514	0.03776
3218.27937	0.03763
3216.99360	0.03765
3215.70784	0.03772
3214.42207	0.03784
3213.13630	0.03802
3211.85053	0.03819
3210.56476	0.03821
3209.27899	0.03795
3207.99322	0.03748
3206.70745	0.03699
3205.42169	0.03673
3204.13592	0.03683
3202.85015	0.03721
3201.56438	0.03757
3200.27861	0.03761
3198.99284	0.03725
3197.70707	0.03672
3196.42130	0.03630
3195.13553	0.03615
3193.84977	0.03624
3192.56400	0.03649
3191.27823	0.03684
3189.99246	0.03723
3188.70669	0.03756
3187.42092	0.03778
3186.13515	0.03789
3184.84938	0.03796
3183.56362	0.03808
3182.27785	0.03823
3180.99208	0.03822
3179.70631	0.03795
3178.42054	0.03755
3177.13477	0.03725
3175.84900	0.03716
3174.56323	0.03718
3173.27746	0.03725
3171.99170	0.03737
3170.70593	0.03756
3169.42016	0.03778
3168.13439	0.03790
3166.84862	0.03792
3165.56285	0.03789
3164.27708	0.03783
3162.99131	0.03772
3161.70555	0.03750
3160.41978	0.03719
3159.13401	0.03689
3157.84824	0.03667
3156.56247	0.03654
3155.27670	0.03646
3153.99093	0.03640
3152.70516	0.03644
3151.41939	0.03664
3150.13363	0.03695
3148.84786	0.03716
3147.56209	0.03706
3146.27632	0.03667
3144.99055	0.03621
3143.70478	0.03592
3142.41901	0.03591
3141.13324	0.03609
3139.84748	0.03636
3138.56171	0.03665
3137.27594	0.03693
3135.99017	0.03719
3134.70440	0.03746
3133.41863	0.03771
3132.13286	0.03786
3130.84709	0.03782
3129.56132	0.03753
3128.27556	0.03705
3126.98979	0.03651
3125.70402	0.03606
3124.41825	0.03584
3123.13248	0.03586
3121.84671	0.03603
3120.56094	0.03619
3119.27517	0.03633
3117.98940	0.03655
3116.70364	0.03691
3115.41787	0.03724
3114.13210	0.03729
3112.84633	0.03701
3111.56056	0.03661
3110.27479	0.03631
3108.98902	0.03615
3107.70325	0.03608
3106.41749	0.03606
3105.13172	0.03604
3103.84595	0.03596
3102.56018	0.03581
3101.27441	0.03564
3099.98864	0.03549
3098.70287	0.03540
3097.41710	0.03537
3096.13133	0.03542
3094.84557	0.03553
3093.55980	0.03562
3092.27403	0.03563
3090.98826	0.03554
3089.70249	0.03541
3088.41672	0.03532
3087.13095	0.03530
3085.84518	0.03526
3084.55942	0.03510
3083.27365	0.03485
3081.98788	0.03465
3080.70211	0.03459
3079.41634	0.03468
3078.13057	0.03485
3076.84480	0.03512
3075.55903	0.03546
3074.27326	0.03579
3072.98750	0.03599
3071.70173	0.03604
3070.41596	0.03596
3069.13019	0.03579
3067.84442	0.03554
3066.55865	0.03531
3065.27288	0.03516
3063.98711	0.03508
3062.70135	0.03497
3061.41558	0.03483
3060.12981	0.03477
3058.84404	0.03484
3057.55827	0.03490
3056.27250	0.03484
3054.98673	0.03468
3053.70096	0.03456
3052.41519	0.03454
3051.12943	0.03455
3049.84366	0.03446
3048.55789	0.03422
3047.27212	0.03392
3045.98635	0.03376
3044.70058	0.03386
3043.41481	0.03420
3042.12904	0.03462
3040.84328	0.03489
3039.55751	0.03490
3038.27174	0.03466
3036.98597	0.03434
3035.70020	0.03406
3034.41443	0.03383
3033.12866	0.03356
3031.84289	0.03323
3030.55712	0.03302
3029.27136	0.03309
3027.98559	0.03337
3026.69982	0.03355
3025.41405	0.03342
3024.12828	0.03312
3022.84251	0.03290
3021.55674	0.03289
3020.27097	0.03298
3018.98521	0.03305
3017.69944	0.03308
3016.41367	0.03313
3015.12790	0.03321
3013.84213	0.03327
3012.55636	0.03321
3011.27059	0.03297
3009.98482	0.03255
3008.69905	0.03208
3007.41329	0.03177
3006.12752	0.03169
3004.84175	0.03177
3003.55598	0.03187
3002.27021	0.03190
3000.98444	0.03186
2999.69867	0.03178
2998.41290	0.03171
2997.12714	0.03170
2995.84137	0.03182
2994.55560	0.03202
2993.26983	0.03224
2991.98406	0.03236
2990.69829	0.03235
2989.41252	0.03229
2988.12675	0.03226
2986.84098	0.03235
2985.55522	0.03259
2984.26945	0.03295
2982.98368	0.03335
2981.69791	0.03369
2980.41214	0.03389
2979.12637	0.03397
2977.84060	0.03404
2976.55483	0.03423
2975.26907	0.03458
2973.98330	0.03501
2972.69753	0.03549
2971.41176	0.03599
2970.12599	0.03647
2968.84022	0.03686
2967.55445	0.03724
2966.26868	0.03776
2964.98291	0.03847
2963.69715	0.03919
2962.41138	0.03967
2961.12561	0.03990
2959.83984	0.04003
2958.55407	0.04024
2957.26830	0.04061
2955.98253	0.04110
2954.69676	0.04161
2953.41100	0.04192
2952.12523	0.04189
2950.83946	0.04160
2949.55369	0.04131
2948.26792	0.04121
2946.98215	0.04130
2945.69638	0.04145
2944.41061	0.04153
2943.12484	0.04149
2941.83908	0.04139
2940.55331	0.04137
2939.26754	0.04156
2937.98177	0.04202
2936.69600	0.04270
2935.41023	0.04343
2934.12446	0.04401
2932.83869	0.04438
2931.55293	0.04468
2930.26716	0.04506
2928.98139	0.04548
2927.69562	0.04579
2926.40985	0.04585
2925.12408	0.04574
2923.83831	0.04563
2922.55254	0.04558
2921.26677	0.04552
2919.98101	0.04534
2918.69524	0.04500
2917.40947	0.04457
2916.12370	0.04412
2914.83793	0.04374
2913.55216	0.04344
2912.26639	0.04312
2910.98062	0.04272
2909.69486	0.04225
2908.40909	0.04185
2907.12332	0.04156
2905.83755	0.04134
2904.55178	0.04119
2903.26601	0.04115
2901.98024	0.04119
2900.69447	0.04112
2899.40870	0.04074
2898.12294	0.03999
2896.83717	0.03911
2895.55140	0.03842
2894.26563	0.03805
2892.97986	0.03788
2891.69409	0.03768
2890.40832	0.03740
2889.12255	0.03715
2887.83678	0.03701
2886.55102	0.03696
2885.26525	0.03691
2883.97948	0.03683
2882.69371	0.03675
2881.40794	0.03678
2880.12217	0.03700
2878.83640	0.03738
2877.55063	0.03773
2876.26487	0.03786
2874.97910	0.03772
2873.69333	0.03744
2872.40756	0.03723
2871.12179	0.03728
2869.83602	0.03762
2868.55025	0.03802
2867.26448	0.03824
2865.97871	0.03821
2864.69295	0.03812
2863.40718	0.03823
2862.12141	0.03854
2860.83564	0.03879
2859.54987	0.03878
2858.26410	0.03853
2856.97833	0.03822
2855.69256	0.03797
2854.40680	0.03776
2853.12103	0.03754
2851.83526	0.03729
2850.54949	0.03700
2849.26372	0.03667
2847.97795	0.03634
2846.69218	0.03606
2845.40641	0.03581
2844.12064	0.03549
2842.83488	0.03511
2841.54911	0.03475
2840.26334	0.03448
2838.97757	0.03421
2837.69180	0.03381
2836.40603	0.03321
2835.12026	0.03258
2833.83449	0.03219
2832.54873	0.03219
2831.26296	0.03241
2829.97719	0.03254
2828.69142	0.03236
2827.40565	0.03193
2826.11988	0.03146
2824.83411	0.03106
2823.54834	0.03077
2822.26257	0.03057
2820.97681	0.03044
2819.69104	0.03040
2818.40527	0.03044
2817.11950	0.03053
2815.83373	0.03057
2814.54796	0.03046
2813.26219	0.03022
2811.97642	0.02999
2810.69066	0.02987
2809.40489	0.02979
2808.11912	0.02966
2806.83335	0.02951
2805.54758	0.02941
2804.26181	0.02936
2802.97604	0.02933
2801.69027	0.02930
2800.40450	0.02933
2799.11874	0.02937
2797.83297	0.02929
2796.54720	0.02903
2795.26143	0.02872
2793.97566	0.02854
2792.68989	0.02851
2791.40412	0.02852
2790.11835	0.02852
2788.83259	0.02855
2787.54682	0.02861
2786.26105	0.02858
2784.97528	0.02843
2783.68951	0.02825
2782.40374	0.02815
2781.11797	0.02814
2779.83220	0.02813
2778.54643	0.02806
2777.26067	0.02789
2775.97490	0.02769
2774.68913	0.02758
2773.40336	0.02763
2772.11759	0.02781
2770.83182	0.02790
2769.54605	0.02779
2768.26028	0.02753
2766.97452	0.02730
2765.68875	0.02726
2764.40298	0.02740
2763.11721	0.02757
2761.83144	0.02760
2760.54567	0.02749
2759.25990	0.02739
2757.97413	0.02738
2756.68836	0.02738
2755.40260	0.02731
2754.11683	0.02724
2752.83106	0.02726
2751.54529	0.02735
2750.25952	0.02744
2748.97375	0.02752
2747.68798	0.02766
2746.40221	0.02784
2745.11645	0.02791
2743.83068	0.02780
2742.54491	0.02758
2741.25914	0.02743
2739.97337	0.02740
2738.68760	0.02743
2737.40183	0.02744
2736.11606	0.02741
2734.83029	0.02736
2733.54453	0.02730
2732.25876	0.02720
2730.97299	0.02704
2729.68722	0.02682
2728.40145	0.02662
2727.11568	0.02657
2725.82991	0.02672
2724.54414	0.02699
2723.25838	0.02718
2721.97261	0.02716
2720.68684	0.02698
2719.40107	0.02681
2718.11530	0.02678
2716.82953	0.02682
2715.54376	0.02680
2714.25799	0.02666
2712.97222	0.02650
2711.68646	0.02641
2710.40069	0.02639
2709.11492	0.02633
2707.82915	0.02614
2706.54338	0.02591
2705.25761	0.02575
2703.97184	0.02574
2702.68607	0.02584
2701.40031	0.02594
2700.11454	0.02598
2698.82877	0.02598
2697.54300	0.02596
2696.25723	0.02598
2694.97146	0.02597
2693.68569	0.02588
2692.39992	0.02573
2691.11415	0.02562
2689.82839	0.02565
2688.54262	0.02576
2687.25685	0.02584
2685.97108	0.02583
2684.68531	0.02575
2683.39954	0.02567
2682.11377	0.02567
2680.82800	0.02572
2679.54224	0.02570
2678.25647	0.02555
2676.97070	0.02535
2675.68493	0.02522
2674.39916	0.02521
2673.11339	0.02530
2671.82762	0.02542
2670.54185	0.02551
2669.25608	0.02554
2667.97032	0.02556
2666.68455	0.02564
2665.39878	0.02576
2664.11301	0.02585
2662.82724	0.02582
2661.54147	0.02570
2660.25570	0.02556
2658.96993	0.02542
2657.68417	0.02524
2656.39840	0.02502
2655.11263	0.02483
2653.82686	0.02476
2652.54109	0.02482
2651.25532	0.02494
2649.96955	0.02505
2648.68378	0.02512
2647.39801	0.02509
2646.11225	0.02489
2644.82648	0.02460
2643.54071	0.02432
2642.25494	0.02412
2640.96917	0.02394
2639.68340	0.02374
2638.39763	0.02351
2637.11186	0.02331
2635.82609	0.02315
2634.54033	0.02303
2633.25456	0.02298
2631.96879	0.02301
2630.68302	0.02301
2629.39725	0.02289
2628.11148	0.02263
2626.82571	0.02231
2625.53994	0.02207
2624.25418	0.02200
2622.96841	0.02215
2621.68264	0.02244
2620.39687	0.02271
2619.11110	0.02285
2617.82533	0.02286
2616.53956	0.02277
2615.25379	0.02263
2613.96802	0.02249
2612.68226	0.02240
2611.39649	0.02236
2610.11072	0.02228
2608.82495	0.02214
2607.53918	0.02202
2606.25341	0.02199
2604.96764	0.02196
2603.68187	0.02182
2602.39611	0.02159
2601.11034	0.02139
2599.82457	0.02132
2598.53880	0.02136
2597.25303	0.02147
2595.96726	0.02167
2594.68149	0.02197
2593.39572	0.02228
2592.10995	0.02243
2590.82419	0.02235
2589.53842	0.02208
2588.25265	0.02175
2586.96688	0.02146
2585.68111	0.02122
2584.39534	0.02105
2583.10957	0.02100
2581.82380	0.02105
2580.53804	0.02107
2579.25227	0.02094
2577.96650	0.02069
2576.68073	0.02042
2575.39496	0.02018
2574.10919	0.01997
2572.82342	0.01984
2571.53765	0.01985
2570.25188	0.01995
2568.96612	0.02003
2567.68035	0.02005
2566.39458	0.02011
2565.10881	0.02026
2563.82304	0.02042
2562.53727	0.02049
2561.25150	0.02047
2559.96573	0.02037
2558.67997	0.02014
2557.39420	0.01978
2556.10843	0.01947
2554.82266	0.01937
2553.53689	0.01946
2552.25112	0.01964
2550.96535	0.01979
2549.67958	0.01993
2548.39381	0.02011
2547.10805	0.02029
2545.82228	0.02037
2544.53651	0.02028
2543.25074	0.02005
2541.96497	0.01972
2540.67920	0.01934
2539.39343	0.01892
2538.10766	0.01853
2536.82190	0.01835
2535.53613	0.01845
2534.25036	0.01876
2532.96459	0.01907
2531.67882	0.01925
2530.39305	0.01928
2529.10728	0.01922
2527.82151	0.01914
2526.53574	0.01908
2525.24998	0.01907
2523.96421	0.01908
2522.67844	0.01900
2521.39267	0.01876
2520.10690	0.01843
2518.82113	0.01821
2517.53536	0.01821
2516.24959	0.01844
2514.96383	0.01879
2513.67806	0.01910
2512.39229	0.01927
2511.10652	0.01927
2509.82075	0.01919
2508.53498	0.01916
2507.24921	0.01932
2505.96344	0.01968
2504.67767	0.02003
2503.39191	0.02018
2502.10614	0.02010
2500.82037	0.02001
2499.53460	0.02001
2498.24883	0.01993
2496.96306	0.01951
2495.67729	0.01876
2494.39152	0.01802
2493.10576	0.01771
2491.81999	0.01793
2490.53422	0.01833
2489.24845	0.01845
2487.96268	0.01815
2486.67691	0.01776
2485.39114	0.01763
2484.10537	0.01782
2482.81960	0.01818
2481.53384	0.01859
2480.24807	0.01906
2478.96230	0.01948
2477.67653	0.01966
2476.39076	0.01948
2475.10499	0.01909
2473.81922	0.01876
2472.53345	0.01868
2471.24769	0.01887
2469.96192	0.01913
2468.67615	0.01925
2467.39038	0.01918
2466.10461	0.01905
2464.81884	0.01902
2463.53307	0.01905
2462.24730	0.01897
2460.96153	0.01875
2459.67577	0.01853
2458.39000	0.01842
2457.10423	0.01837
2455.81846	0.01824
2454.53269	0.01806
2453.24692	0.01791
2451.96115	0.01784
2450.67538	0.01782
2449.38962	0.01777
2448.10385	0.01765
2446.81808	0.01745
2445.53231	0.01727
2444.24654	0.01722
2442.96077	0.01735
2441.67500	0.01754
2440.38923	0.01757
2439.10346	0.01734
2437.81770	0.01697
2436.53193	0.01671
2435.24616	0.01666
2433.96039	0.01674
2432.67462	0.01692
2431.38885	0.01725
2430.10308	0.01765
2428.81731	0.01783
2427.53155	0.01761
2426.24578	0.01728
2424.96001	0.01722
2423.67424	0.01747
2422.38847	0.01778
2421.10270	0.01799
2419.81693	0.01814
2418.53116	0.01823
2417.24539	0.01815
2415.95963	0.01789
2414.67386	0.01763
2413.38809	0.01759
2412.10232	0.01773
2410.81655	0.01787
2409.53078	0.01790
2408.24501	0.01786
2406.95924	0.01782
2405.67347	0.01784
2404.38771	0.01793
2403.10194	0.01808
2401.81617	0.01819
2400.53040	0.01816
2399.24463	0.01806
2397.95886	0.01790
2396.67309	0.01780
2395.38732	0.01781
2394.10156	0.01789
2392.81579	0.01795
2391.53002	0.01791
2390.24425	0.01782
2388.95848	0.01783
2387.67271	0.01804
2386.38694	0.01838
2385.10117	0.01864
2383.81540	0.01867
2382.52964	0.01852
2381.24387	0.01835
2379.95810	0.01822
2378.67233	0.01801
2377.38656	0.01767
2376.10079	0.01736
2374.81502	0.01731
2373.52925	0.01751
2372.24349	0.01781
2370.95772	0.01799
2369.67195	0.01790
2368.38618	0.01761
2367.10041	0.01734
2365.81464	0.01722
2364.52887	0.01725
2363.24310	0.01737
2361.95733	0.01755
2360.67157	0.01780
2359.38580	0.01805
2358.10003	0.01816
2356.81426	0.01813
2355.52849	0.01812
2354.24272	0.01821
2352.95695	0.01835
2351.67118	0.01837
2350.38542	0.01827
2349.09965	0.01815
2347.81388	0.01802
2346.52811	0.01791
2345.24234	0.01794
2343.95657	0.01813
2342.67080	0.01843
2341.38503	0.01847
2340.09926	0.01826
2338.81350	0.01807
2337.52773	0.01800
2336.24196	0.01798
2334.95619	0.01810
2333.67042	0.01836
2332.38465	0.01870
2331.09888	0.01884
2329.81311	0.01904
2328.52735	0.01926
2327.24158	0.01943
2325.95581	0.01961
2324.67004	0.01964
2323.38427	0.01945
2322.09850	0.01896
2320.81273	0.01843
2319.52696	0.01806
2318.24119	0.01791
2316.95543	0.01795
2315.66966	0.01813
2314.38389	0.01837
2313.09812	0.01851
2311.81235	0.01848
2310.52658	0.01837
2309.24081	0.01823
2307.95504	0.01801
2306.66928	0.01762
2305.38351	0.01708
2304.09774	0.01657
2302.81197	0.01634
2301.52620	0.01651
2300.24043	0.01694
2298.95466	0.01731
2297.66889	0.01738
2296.38312	0.01717
2295.09736	0.01694
2293.81159	0.01684
2292.52582	0.01680
2291.24005	0.01667
2289.95428	0.01646
2288.66851	0.01635
2287.38274	0.01641
2286.09697	0.01658
2284.81121	0.01669
2283.52544	0.01664
2282.23967	0.01640
2280.95390	0.01604
2279.66813	0.01575
2278.38236	0.01561
2277.09659	0.01547
2275.81082	0.01514
2274.52505	0.01472
2273.23929	0.01454
2271.95352	0.01476
2270.66775	0.01508
2269.38198	0.01505
2268.09621	0.01450
2266.81044	0.01372
2265.52467	0.01315
2264.23890	0.01304
2262.95314	0.01322
2261.66737	0.01334
2260.38160	0.01327
2259.09583	0.01318
2257.81006	0.01334
2256.52429	0.01375
2255.23852	0.01421
2253.95275	0.01448
2252.66698	0.01448
2251.38122	0.01428
2250.09545	0.01395
2248.80968	0.01360
2247.52391	0.01351
2246.23814	0.01355
2244.95237	0.01382
2243.66660	0.01431
2242.38083	0.01480
2241.09507	0.01496
2239.80930	0.01468
2238.52353	0.01416
2237.23776	0.01365
2235.95199	0.01328
2234.66622	0.01308
2233.38045	0.01296
2232.09468	0.01270
2230.80891	0.01215
2229.52315	0.01139
2228.23738	0.01073
2226.95161	0.01052
2225.66584	0.01088
2224.38007	0.01162
2223.09430	0.01228
2221.80853	0.01249
2220.52276	0.01218
2219.23700	0.01162
2217.95123	0.01103
2216.66546	0.01047
2215.37969	0.00996
2214.09392	0.00969
2212.80815	0.00985
2211.52238	0.01027
2210.23661	0.01048
2208.95084	0.01015
2207.66508	0.00965
2206.37931	0.00973
2205.09354	0.01074
2203.80777	0.01216
2202.52200	0.01309
2201.23623	0.01307
2199.95046	0.01245
2198.66469	0.01186
2197.37893	0.01151
2196.09316	0.01112
2194.80739	0.01038
2193.52162	0.00936
2192.23585	0.00848
2190.95008	0.00814
2189.66431	0.00842
2188.37854	0.00913
2187.09277	0.00991
2185.80701	0.01054
2184.52124	0.01099
2183.23547	0.01133
2181.94970	0.01156
2180.66393	0.01154
2179.37816	0.01097
2178.09239	0.00969
2176.80662	0.00810
2175.52085	0.00696
2174.23509	0.00670
2172.94932	0.00693
2171.66355	0.00691
2170.37778	0.00642
2169.09201	0.00578
2167.80624	0.00531
2166.52047	0.00505
2165.23470	0.00488
2163.94894	0.00464
2162.66317	0.00417
2161.37740	0.00331
2160.09163	0.00228
2158.80586	0.00167
2157.52009	0.00193
2156.23432	0.00278
2154.94855	0.00358
2153.66278	0.00411
2152.37702	0.00472
2151.09125	0.00570
2149.80548	0.00683
2148.51971	0.00766
2147.23394	0.00802
2145.94817	0.00802
2144.66240	0.00767
2143.37663	0.00694
2142.09087	0.00602
2140.80510	0.00538
2139.51933	0.00531
2138.23356	0.00569
2136.94779	0.00615
2135.66202	0.00648
2134.37625	0.00670
2133.09048	0.00686
2131.80471	0.00689
2130.51895	0.00678
2129.23318	0.00675
2127.94741	0.00710
2126.66164	0.00782
2125.37587	0.00850
2124.09010	0.00879
2122.80433	0.00876
2121.51856	0.00882
2120.23280	0.00914
2118.94703	0.00942
2117.66126	0.00924
2116.37549	0.00859
2115.08972	0.00787
2113.80395	0.00751
2112.51818	0.00764
2111.23241	0.00812
2109.94664	0.00869
2108.66088	0.00905
2107.37511	0.00907
2106.08934	0.00896
2104.80357	0.00908
2103.51780	0.00952
2102.23203	0.00990
2100.94626	0.00974
2099.66049	0.00899
2098.37473	0.00813
2097.08896	0.00751
2095.80319	0.00723
2094.51742	0.00721
2093.23165	0.00735
2091.94588	0.00758
2090.66011	0.00779
2089.37434	0.00782
2088.08857	0.00758
2086.80281	0.00721
2085.51704	0.00705
2084.23127	0.00731
2082.94550	0.00778
2081.65973	0.00797
2080.37396	0.00767
2079.08819	0.00714
2077.80242	0.00680
2076.51666	0.00668
2075.23089	0.00648
2073.94512	0.00602
2072.65935	0.00551
2071.37358	0.00530
2070.08781	0.00545
2068.80204	0.00575
2067.51627	0.00607
2066.23050	0.00646
2064.94474	0.00696
2063.65897	0.00745
2062.37320	0.00784
2061.08743	0.00808
2059.80166	0.00809
2058.51589	0.00768
2057.23012	0.00680
2055.94435	0.00576
2054.65859	0.00498
2053.37282	0.00462
2052.08705	0.00444
2050.80128	0.00416
2049.51551	0.00370
2048.22974	0.00319
2046.94397	0.00273
2045.65820	0.00239
2044.37243	0.00224
2043.08667	0.00243
2041.80090	0.00300
2040.51513	0.00368
2039.22936	0.00405
2037.94359	0.00382
2036.65782	0.00316
2035.37205	0.00261
2034.08628	0.00258
2032.80052	0.00295
2031.51475	0.00303
2030.22898	0.00232
2028.94321	0.00120
2027.65744	0.00070
2026.37167	0.00148
2025.08590	0.00302
2023.80013	0.00421
2022.51436	0.00440
2021.22860	0.00390
2019.94283	0.00340
2018.65706	0.00316
2017.37129	0.00304
2016.08552	0.00294
2014.79975	0.00300
2013.51398	0.00336
2012.22821	0.00399
2010.94245	0.00478
2009.65668	0.00553
2008.37091	0.00593
2007.08514	0.00569
2005.79937	0.00488
2004.51360	0.00405
2003.22783	0.00373
2001.94206	0.00397
2000.65629	0.00450
1999.37053	0.00511
1998.08476	0.00572
1996.79899	0.00641
1995.51322	0.00712
1994.22745	0.00757
1992.94168	0.00744
1991.65591	0.00669
1990.37014	0.00580
1989.08438	0.00537
1987.79861	0.00563
1986.51284	0.00625
1985.22707	0.00677
1983.94130	0.00705
1982.65553	0.00725
1981.36976	0.00754
1980.08399	0.00784
1978.79822	0.00790
1977.51246	0.00753
1976.22669	0.00685
1974.94092	0.00630
1973.65515	0.00636
1972.36938	0.00699
1971.08361	0.00762
1969.79784	0.00766
1968.51207	0.00718
1967.22631	0.00680
1965.94054	0.00700
1964.65477	0.00762
1963.36900	0.00808
1962.08323	0.00802
1960.79746	0.00770
1959.51169	0.00757
1958.22592	0.00775
1956.94015	0.00777
1955.65439	0.00725
1954.36862	0.00644
1953.08285	0.00595
1951.79708	0.00607
1950.51131	0.00652
1949.22554	0.00687
1947.93977	0.00705
1946.65400	0.00728
1945.36823	0.00769
1944.08247	0.00814
1942.79670	0.00839
1941.51093	0.00839
1940.22516	0.00829
1938.93939	0.00828
1937.65362	0.00840
1936.36785	0.00856
1935.08208	0.00862
1933.79632	0.00862
1932.51055	0.00867
1931.22478	0.00887
1929.93901	0.00920
1928.65324	0.00957
1927.36747	0.00995
1926.08170	0.01033
1924.79593	0.01062
1923.51016	0.01065
1922.22440	0.01035
1920.93863	0.00988
1919.65286	0.00953
1918.36709	0.00950
1917.08132	0.00972
1915.79555	0.00995
1914.50978	0.01004
1913.22401	0.01001
1911.93825	0.00991
1910.65248	0.00975
1909.36671	0.00957
1908.08094	0.00944
1906.79517	0.00940
1905.50940	0.00944
1904.22363	0.00947
1902.93786	0.00945
1901.65209	0.00936
1900.36633	0.00923
1899.08056	0.00907
1897.79479	0.00892
1896.50902	0.00876
1895.22325	0.00862
1893.93748	0.00863
1892.65171	0.00890
1891.36594	0.00943
1890.08018	0.01008
1888.79441	0.01067
1887.50864	0.01111
1886.22287	0.01136
1884.93710	0.01136
1883.65133	0.01111
1882.36556	0.01072
1881.07979	0.01038
1879.79402	0.01020
1878.50826	0.01014
1877.22249	0.01011
1875.93672	0.01007
1874.65095	0.01003
1873.36518	0.00998
1872.07941	0.00989
1870.79364	0.00981
1869.50787	0.00983
1868.22211	0.00996
1866.93634	0.01008
1865.65057	0.01010
1864.36480	0.01004
1863.07903	0.00999
1861.79326	0.00999
1860.50749	0.01006
1859.22172	0.01023
1857.93595	0.01045
1856.65019	0.01062
1855.36442	0.01068
1854.07865	0.01063
1852.79288	0.01051
1851.50711	0.01035
1850.22134	0.01021
1848.93557	0.01017
1847.64980	0.01025
1846.36404	0.01035
1845.07827	0.01033
1843.79250	0.01022
1842.50673	0.01006
1841.22096	0.00986
1839.93519	0.00970
1838.64942	0.00977
1837.36365	0.01011
1836.07788	0.01054
1834.79212	0.01085
1833.50635	0.01094
1832.22058	0.01086
1830.93481	0.01075
1829.64904	0.01073
1828.36327	0.01078
1827.07750	0.01080
1825.79173	0.01076
1824.50597	0.01075
1823.22020	0.01080
1821.93443	0.01084
1820.64866	0.01082
1819.36289	0.01069
1818.07712	0.01052
1816.79135	0.01042
1815.50558	0.01047
1814.21981	0.01062
1812.93405	0.01078
1811.64828	0.01087
1810.36251	0.01090
1809.07674	0.01091
1807.79097	0.01094
1806.50520	0.01101
1805.21943	0.01109
1803.93366	0.01114
1802.64790	0.01111
1801.36213	0.01105
1800.07636	0.01107
1798.79059	0.01118
1797.50482	0.01138
1796.21905	0.01159
1794.93328	0.01167
1793.64751	0.01155
1792.36174	0.01137
1791.07598	0.01129
1789.79021	0.01136
1788.50444	0.01146
1787.21867	0.01146
1785.93290	0.01136
1784.64713	0.01125
1783.36136	0.01122
1782.07559	0.01126
1780.78983	0.01129
1779.50406	0.01128
1778.21829	0.01121
1776.93252	0.01111
1775.64675	0.01096
1774.36098	0.01079
1773.07521	0.01069
1771.78944	0.01080
1770.50367	0.01102
1769.21791	0.01120
1767.93214	0.01137
1766.64637	0.01161
1765.36060	0.01185
1764.07483	0.01190
1762.78906	0.01176
1761.50329	0.01162
1760.21752	0.01157
1758.93176	0.01156
1757.64599	0.01159
1756.36022	0.01172
1755.07445	0.01193
1753.78868	0.01201
1752.50291	0.01187
1751.21714	0.01170
1749.93137	0.01164
1748.64560	0.01169
1747.35984	0.01175
1746.07407	0.01179
1744.78830	0.01184
1743.50253	0.01192
1742.21676	0.01196
1740.93099	0.01190
1739.64522	0.01185
1738.35945	0.01189
1737.07369	0.01191
1735.78792	0.01177
1734.50215	0.01163
1733.21638	0.01176
1731.93061	0.01210
1730.64484	0.01239
1729.35907	0.01251
1728.07330	0.01256
1726.78753	0.01259
1725.50177	0.01260
1724.21600	0.01268
1722.93023	0.01287
1721.64446	0.01312
1720.35869	0.01324
1719.07292	0.01319
1717.78715	0.01321
1716.50138	0.01348
1715.21561	0.01385
1713.92985	0.01411
1712.64408	0.01425
1711.35831	0.01438
1710.07254	0.01454
1708.78677	0.01473
1707.50100	0.01490
1706.21523	0.01511
1704.92946	0.01542
1703.64370	0.01572
1702.35793	0.01577
1701.07216	0.01573
1699.78639	0.01593
1698.50062	0.01629
1697.21485	0.01646
1695.92908	0.01648
1694.64331	0.01671
1693.35754	0.01710
1692.07178	0.01733
1690.78601	0.01742
1689.50024	0.01756
1688.21447	0.01772
1686.92870	0.01770
1685.64293	0.01751
1684.35716	0.01752
1683.07139	0.01788
1681.78563	0.01827
1680.49986	0.01842
1679.21409	0.01841
1677.92832	0.01840
1676.64255	0.01845
1675.35678	0.01864
1674.07101	0.01897
1672.78524	0.01924
1671.49947	0.01929
1670.21371	0.01922
1668.92794	0.01926
1667.64217	0.01947
1666.35640	0.01969
1665.07063	0.01978
1663.78486	0.01982
1662.49909	0.01994
1661.21332	0.02014
1659.92756	0.02036
1658.64179	0.02059
1657.35602	0.02083
1656.07025	0.02090
1654.78448	0.02063
1653.49871	0.02031
1652.21294	0.02043
1650.92717	0.02090
1649.64140	0.02119
1648.35564	0.02106
1647.06987	0.02082
1645.78410	0.02077
1644.49833	0.02091
1643.21256	0.02104
1641.92679	0.02106
1640.64102	0.02105
1639.35525	0.02106
1638.06949	0.02102
1636.78372	0.02091
1635.49795	0.02089
1634.21218	0.02106
1632.92641	0.02125
1631.64064	0.02127
1630.35487	0.02113
1629.06910	0.02100
1627.78333	0.02097
1626.49757	0.02103
1625.21180	0.02105
1623.92603	0.02104
1622.64026	0.02108
1621.35449	0.02123
1620.06872	0.02132
1618.78295	0.02123
1617.49718	0.02108
1616.21142	0.02113
1614.92565	0.02140
1613.63988	0.02166
1612.35411	0.02178
1611.06834	0.02186
1609.78257	0.02198
1608.49680	0.02213
1607.21103	0.02225
1605.92526	0.02233
1604.63950	0.02240
1603.35373	0.02246
1602.06796	0.02254
1600.78219	0.02261
1599.49642	0.02267
1598.21065	0.02273
1596.92488	0.02281
1595.63911	0.02293
1594.35335	0.02312
1593.06758	0.02336
1591.78181	0.02359
1590.49604	0.02374
1589.21027	0.02379
1587.92450	0.02381
1586.63873	0.02384
1585.35296	0.02392
1584.06719	0.02402
1582.78143	0.02416
1581.49566	0.02437
1580.20989	0.02465
1578.92412	0.02487
1577.63835	0.02494
1576.35258	0.02504
1575.06681	0.02539
1573.78104	0.02588
1572.49528	0.02619
1571.20951	0.02629
1569.92374	0.02638
1568.63797	0.02661
1567.35220	0.02690
1566.06643	0.02709
1564.78066	0.02722
1563.49489	0.02733
1562.20912	0.02727
1560.92336	0.02700
1559.63759	0.02676
1558.35182	0.02688
1557.06605	0.02729
1555.78028	0.02762
1554.49451	0.02777
1553.20874	0.02790
1551.92297	0.02802
1550.63721	0.02804
1549.35144	0.02801
1548.06567	0.02798
1546.77990	0.02795
1545.49413	0.02794
1544.20836	0.02797
1542.92259	0.02798
1541.63682	0.02786
1540.35105	0.02766
1539.06529	0.02763
1537.77952	0.02779
1536.49375	0.02790
1535.20798	0.02783
1533.92221	0.02773
1532.63644	0.02780
1531.35067	0.02797
1530.06490	0.02810
1528.77914	0.02817
1527.49337	0.02824
1526.20760	0.02838
1524.92183	0.02858
1523.63606	0.02875
1522.35029	0.02891
1521.06452	0.02927
1519.77875	0.02989
1518.49298	0.03056
1517.20722	0.03115
1515.92145	0.03172
1514.63568	0.03232
1513.34991	0.03291
1512.06414	0.03355
1510.77837	0.03427
1509.49260	0.03498
1508.20683	0.03553
1506.92107	0.03602
1505.63530	0.03665
1504.34953	0.03739
1503.06376	0.03802
1501.77799	0.03847
1500.49222	0.03889
1499.20645	0.03930
1497.92068	0.03965
1496.63491	0.03994
1495.34915	0.04024
1494.06338	0.04057
1492.77761	0.04086
1491.49184	0.04114
1490.20607	0.04151
1488.92030	0.04200
1487.63453	0.04254
1486.34876	0.04309
1485.06299	0.04367
1483.77723	0.04429
1482.49146	0.04497
1481.20569	0.04572
1479.91992	0.04649
1478.63415	0.04726
1477.34838	0.04801
1476.06261	0.04874
1474.77684	0.04941
1473.49108	0.05000
1472.20531	0.05062
1470.91954	0.05127
1469.63377	0.05187
1468.34800	0.05232
1467.06223	0.05263
1465.77646	0.05295
1464.49069	0.05340
1463.20492	0.05398
1461.91916	0.05458
1460.63339	0.05511
1459.34762	0.05554
1458.06185	0.05594
1456.77608	0.05652
1455.49031	0.05728
1454.20454	0.05796
1452.91877	0.05837
1451.63301	0.05853
1450.34724	0.05862
1449.06147	0.05868
1447.77570	0.05874
1446.48993	0.05872
1445.20416	0.05850
1443.91839	0.05805
1442.63262	0.05743
1441.34685	0.05679
1440.06109	0.05618
1438.77532	0.05557
1437.48955	0.05505
1436.20378	0.05481
1434.91801	0.05486
1433.63224	0.05509
1432.34647	0.05540
1431.06070	0.05586
1429.77494	0.05653
1428.48917	0.05736
1427.20340	0.05826
1425.91763	0.05918
1424.63186	0.06015
1423.34609	0.06115
1422.06032	0.06209
1420.77455	0.06287
1419.48878	0.06355
1418.20302	0.06421
1416.91725	0.06477
1415.63148	0.06513
1414.34571	0.06531
1413.05994	0.06535
1411.77417	0.06524
1410.48840	0.06494
1409.20263	0.06444
1407.91687	0.06377
1406.63110	0.06294
1405.34533	0.06201
1404.05956	0.06102
1402.77379	0.05998
1401.48802	0.05883
1400.20225	0.05756
1398.91648	0.05624
1397.63071	0.05490
1396.34495	0.05355
1395.05918	0.05219
1393.77341	0.05091
1392.48764	0.04971
1391.20187	0.04855
1389.91610	0.04739
1388.63033	0.04627
1387.34456	0.04525
1386.05880	0.04431
1384.77303	0.04336
1383.48726	0.04237
1382.20149	0.04138
1380.91572	0.04044
1379.62995	0.03955
1378.34418	0.03865
1377.05841	0.03768
1375.77264	0.03662
1374.48688	0.03551
1373.20111	0.03438
1371.91534	0.03326
1370.62957	0.03213
1369.34380	0.03103
1368.05803	0.03004
1366.77226	0.02919
1365.48649	0.02841
1364.20073	0.02765
1362.91496	0.02692
1361.62919	0.02622
1360.34342	0.02557
1359.05765	0.02497
1357.77188	0.02441
1356.48611	0.02390
1355.20034	0.02343
1353.91457	0.02303
1352.62881	0.02267
1351.34304	0.02234
1350.05727	0.02203
1348.77150	0.02174
1347.48573	0.02144
1346.19996	0.02114
1344.91419	0.02085
1343.62842	0.02059
1342.34266	0.02036
1341.05689	0.02014
1339.77112	0.01992
1338.48535	0.01972
1337.19958	0.01956
1335.91381	0.01941
1334.62804	0.01921
1333.34227	0.01894
1332.05650	0.01863
1330.77074	0.01836
1329.48497	0.01816
1328.19920	0.01803
1326.91343	0.01791
1325.62766	0.01778
1324.34189	0.01765
1323.05612	0.01752
1321.77035	0.01739
1320.48459	0.01725
1319.19882	0.01714
1317.91305	0.01706
1316.62728	0.01701
1315.34151	0.01695
1314.05574	0.01684
1312.76997	0.01671
1311.48420	0.01659
1310.19843	0.01650
1308.91267	0.01642
1307.62690	0.01633
1306.34113	0.01625
1305.05536	0.01620
1303.76959	0.01621
1302.48382	0.01624
1301.19805	0.01624
1299.91228	0.01618
1298.62652	0.01604
1297.34075	0.01590
1296.05498	0.01578
1294.76921	0.01571
1293.48344	0.01564
1292.19767	0.01553
1290.91190	0.01538
1289.62613	0.01523
1288.34036	0.01513
1287.05460	0.01512
1285.76883	0.01515
1284.48306	0.01516
1283.19729	0.01512
1281.91152	0.01500
1280.62575	0.01481
1279.33998	0.01462
1278.05421	0.01445
1276.76845	0.01435
1275.48268	0.01429
1274.19691	0.01426
1272.91114	0.01422
1271.62537	0.01418
1270.33960	0.01412
1269.05383	0.01405
1267.76806	0.01398
1266.48229	0.01391
1265.19653	0.01387
1263.91076	0.01385
1262.62499	0.01383
1261.33922	0.01380
1260.05345	0.01373
1258.76768	0.01363
1257.48191	0.01352
1256.19614	0.01341
1254.91037	0.01332
1253.62461	0.01325
1252.33884	0.01320
1251.05307	0.01316
1249.76730	0.01311
1248.48153	0.01307
1247.19576	0.01304
1245.90999	0.01302
1244.62422	0.01300
1243.33846	0.01298
1242.05269	0.01295
1240.76692	0.01289
1239.48115	0.01283
1238.19538	0.01277
1236.90961	0.01273
1235.62384	0.01269
1234.33807	0.01267
1233.05230	0.01266
1231.76654	0.01262
1230.48077	0.01256
1229.19500	0.01249
1227.90923	0.01243
1226.62346	0.01240
1225.33769	0.01238
1224.05192	0.01233
1222.76615	0.01224
1221.48039	0.01214
1220.19462	0.01208
1218.90885	0.01205
1217.62308	0.01203
1216.33731	0.01199
1215.05154	0.01192
1213.76577	0.01185
1212.48000	0.01179
1211.19423	0.01175
1209.90847	0.01173
1208.62270	0.01172
1207.33693	0.01170
1206.05116	0.01167
1204.76539	0.01161
1203.47962	0.01157
1202.19385	0.01154
1200.90808	0.01153
1199.62232	0.01151
1198.33655	0.01146
1197.05078	0.01138
1195.76501	0.01130
1194.47924	0.01126
1193.19347	0.01128
1191.90770	0.01134
1190.62193	0.01141
1189.33616	0.01145
1188.05040	0.01150
1186.76463	0.01155
1185.47886	0.01158
1184.19309	0.01157
1182.90732	0.01152
1181.62155	0.01146
1180.33578	0.01140
1179.05001	0.01138
1177.76425	0.01138
1176.47848	0.01141
1175.19271	0.01144
1173.90694	0.01148
1172.62117	0.01152
1171.33540	0.01156
1170.04963	0.01160
1168.76386	0.01168
1167.47809	0.01184
1166.19233	0.01200
1164.90656	0.01210
1163.62079	0.01213
1162.33502	0.01213
1161.04925	0.01213
1159.76348	0.01217
1158.47771	0.01227
1157.19194	0.01243
1155.90618	0.01263
1154.62041	0.01283
1153.33464	0.01301
1152.04887	0.01321
1150.76310	0.01343
1149.47733	0.01371
1148.19156	0.01407
1146.90579	0.01450
1145.62002	0.01493
1144.33426	0.01535
1143.04849	0.01579
1141.76272	0.01632
1140.47695	0.01695
1139.19118	0.01767
1137.90541	0.01847
1136.61964	0.01936
1135.33387	0.02034
1134.04811	0.02140
1132.76234	0.02260
1131.47657	0.02401
1130.19080	0.02565
1128.90503	0.02754
1127.61926	0.02965
1126.33349	0.03191
1125.04772	0.03427
1123.76195	0.03670
1122.47619	0.03924
1121.19042	0.04194
1119.90465	0.04478
1118.61888	0.04772
1117.33311	0.05067
1116.04734	0.05356
1114.76157	0.05632
1113.47580	0.05899
1112.19004	0.06158
1110.90427	0.06414
1109.61850	0.06666
1108.33273	0.06908
1107.04696	0.07134
1105.76119	0.07345
1104.47542	0.07544
1103.18965	0.07734
1101.90388	0.07915
1100.61812	0.08088
1099.33235	0.08254
1098.04658	0.08412
1096.76081	0.08564
1095.47504	0.08710
1094.18927	0.08849
1092.90350	0.08980
1091.61773	0.09103
1090.33197	0.09217
1089.04620	0.09320
1087.76043	0.09414
1086.47466	0.09505
1085.18889	0.09600
1083.90312	0.09709
1082.61735	0.09838
1081.33158	0.09992
1080.04581	0.10168
1078.76005	0.10356
1077.47428	0.10548
1076.18851	0.10743
1074.90274	0.10947
1073.61697	0.11165
1072.33120	0.11397
1071.04543	0.11637
1069.75966	0.11883
1068.47390	0.12134
1067.18813	0.12395
1065.90236	0.12666
1064.61659	0.12945
1063.33082	0.13231
1062.04505	0.13518
1060.75928	0.13807
1059.47351	0.14095
1058.18774	0.14382
1056.90198	0.14664
1055.61621	0.14944
1054.33044	0.15220
1053.04467	0.15493
1051.75890	0.15763
1050.47313	0.16034
1049.18736	0.16314
1047.90159	0.16609
1046.61583	0.16914
1045.33006	0.17220
1044.04429	0.17519
1042.75852	0.17813
1041.47275	0.18103
1040.18698	0.18391
1038.90121	0.18674
1037.61544	0.18956
1036.32967	0.19236
1035.04391	0.19514
1033.75814	0.19785
1032.47237	0.20042
1031.18660	0.20275
1029.90083	0.20481
1028.61506	0.20659
1027.32929	0.20811
1026.04352	0.20940
1024.75775	0.21044
1023.47199	0.21111
1022.18622	0.21130
1020.90045	0.21091
1019.61468	0.20993
1018.32891	0.20847
1017.04314	0.20657
1015.75737	0.20422
1014.47160	0.20136
1013.18584	0.19797
1011.90007	0.19411
1010.61430	0.18986
1009.32853	0.18525
1008.04276	0.18025
1006.75699	0.17495
1005.47122	0.16947
1004.18545	0.16389
1002.89968	0.15821
1001.61392	0.15241
1000.32815	0.14652
999.04238	0.14063
997.75661	0.13484
996.47084	0.12923
995.18507	0.12382
993.89930	0.11856
992.61353	0.11342
991.32777	0.10840
990.04200	0.10359
988.75623	0.09908
987.47046	0.09491
986.18469	0.09102
984.89892	0.08733
983.61315	0.08379
982.32738	0.08045
981.04161	0.07736
979.75585	0.07455
978.47008	0.07203
977.18431	0.06979
975.89854	0.06781
974.61277	0.06609
973.32700	0.06468
972.04123	0.06360
970.75546	0.06288
969.46970	0.06255
968.18393	0.06264
966.89816	0.06319
965.61239	0.06413
964.32662	0.06525
963.04085	0.06626
961.75508	0.06691
960.46931	0.06702
959.18354	0.06651
957.89778	0.06539
956.61201	0.06382
955.32624	0.06202
954.04047	0.06019
952.75470	0.05841
951.46893	0.05671
950.18316	0.05504
948.89739	0.05340
947.61163	0.05178
946.32586	0.05019
945.04009	0.04866
943.75432	0.04727
942.46855	0.04605
941.18278	0.04494
939.89701	0.04384
938.61124	0.04271
937.32547	0.04154
936.03971	0.04041
934.75394	0.03941
933.46817	0.03862
932.18240	0.03802
930.89663	0.03747
929.61086	0.03685
928.32509	0.03618
927.03932	0.03556
925.75356	0.03508
924.46779	0.03474
923.18202	0.03450
921.89625	0.03423
920.61048	0.03387
919.32471	0.03339
918.03894	0.03286
916.75317	0.03235
915.46740	0.03188
914.18164	0.03144
912.89587	0.03107
911.61010	0.03084
910.32433	0.03079
909.03856	0.03080
907.75279	0.03072
906.46702	0.03046
905.18125	0.03005
903.89549	0.02960
902.60972	0.02918
901.32395	0.02888
900.03818	0.02875
898.75241	0.02872
897.46664	0.02868
896.18087	0.02857
894.89510	0.02844
893.60933	0.02836
892.32357	0.02835
891.03780	0.02832
889.75203	0.02823
888.46626	0.02819
887.18049	0.02841
885.89472	0.02913
884.60895	0.03045
883.32318	0.03228
882.03742	0.03434
880.75165	0.03618
879.46588	0.03749
878.18011	0.03832
876.89434	0.03904
875.60857	0.03999
874.32280	0.04114
873.03703	0.04211
871.75126	0.04243
870.46550	0.04197
869.17973	0.04091
867.89396	0.03951
866.60819	0.03793
865.32242	0.03628
864.03665	0.03465
862.75088	0.03313
861.46511	0.03178
860.17935	0.03066
858.89358	0.02982
857.60781	0.02922
856.32204	0.02875
855.03627	0.02832
853.75050	0.02790
852.46473	0.02754
851.17896	0.02722
849.89319	0.02690
848.60743	0.02657
847.32166	0.02626
846.03589	0.02603
844.75012	0.02587
843.46435	0.02571
842.17858	0.02551
840.89281	0.02527
839.60704	0.02506
838.32128	0.02491
837.03551	0.02482
835.74974	0.02477
834.46397	0.02474
833.17820	0.02468
831.89243	0.02459
830.60666	0.02445
829.32089	0.02430
828.03512	0.02417
826.74936	0.02407
825.46359	0.02401
824.17782	0.02398
822.89205	0.02398
821.60628	0.02402
820.32051	0.02406
819.03474	0.02402
817.74897	0.02388
816.46321	0.02366
815.17744	0.02344
813.89167	0.02330
812.60590	0.02327
811.32013	0.02331
810.03436	0.02332
808.74859	0.02325
807.46282	0.02314
806.17705	0.02306
804.89129	0.02306
803.60552	0.02306
802.31975	0.02303
801.03398	0.02298
799.74821	0.02293
798.46244	0.02289
797.17667	0.02287
795.89090	0.02284
794.60513	0.02281
793.31937	0.02277
792.03360	0.02273
790.74783	0.02269
789.46206	0.02265
788.17629	0.02261
786.89052	0.02261
785.60475	0.02263
784.31898	0.02267
783.03322	0.02269
781.74745	0.02264
780.46168	0.02252
779.17591	0.02237
777.89014	0.02226
776.60437	0.02226
775.31860	0.02236
774.03283	0.02249
772.74706	0.02258
771.46130	0.02259
770.17553	0.02254
768.88976	0.02247
767.60399	0.02240
766.31822	0.02235
765.03245	0.02232
763.74668	0.02230
762.46091	0.02227
761.17515	0.02223
759.88938	0.02220
758.60361	0.02220
757.31784	0.02222
756.03207	0.02222
754.74630	0.02217
753.46053	0.02211
752.17476	0.02209
750.88899	0.02213
749.60323	0.02220
748.31746	0.02226
747.03169	0.02224
745.74592	0.02211
744.46015	0.02189
743.17438	0.02165
741.88861	0.02144
740.60284	0.02130
739.31708	0.02124
738.03131	0.02124
736.74554	0.02127
735.45977	0.02126
734.17400	0.02119
732.88823	0.02111
731.60246	0.02108
730.31669	0.02115
729.03092	0.02128
727.74516	0.02139
726.45939	0.02142
725.17362	0.02136
723.88785	0.02134
722.60208	0.02128
721.31631	0.02123
720.03054	0.02120
718.74477	0.02118
717.45901	0.02113
716.17324	0.02107
714.88747	0.02099
713.60170	0.02093
712.31593	0.02089
711.03016	0.02091
709.74439	0.02096
708.45862	0.02103
707.17285	0.02106
705.88709	0.02104
704.60132	0.02097
703.31555	0.02089
702.02978	0.02086
700.74401	0.02088
699.45824	0.02092
698.17247	0.02094
696.88670	0.02089
695.60094	0.02079
694.31517	0.02070
693.02940	0.02067
691.74363	0.02069
690.45786	0.02075
689.17209	0.02079
687.88632	0.02078
686.60055	0.02075
685.31478	0.02073
684.02902	0.02075
682.74325	0.02081
681.45748	0.02089
680.17171	0.02092
678.88594	0.02086
677.60017	0.02075
676.31440	0.02066
675.02863	0.02066
673.74287	0.02074
672.45710	0.02088
671.17133	0.02108
669.88556	0.02131
668.59979	0.02154
667.31402	0.02170
666.02825	0.02174
664.74248	0.02167
663.45671	0.02155
662.17095	0.02143
660.88518	0.02135
659.59941	0.02129
658.31364	0.02125
657.02787	0.02121
655.74210	0.02117
654.45633	0.02117
653.17056	0.02121
651.88480	0.02131
650.59903	0.02144
649.31326	0.02159
648.02749	0.02177
646.74172	0.02196
645.45595	0.02218
644.17018	0.02242
642.88441	0.02267
641.59864	0.02293
640.31288	0.02319
639.02711	0.02347
637.74134	0.02378
636.45557	0.02412
635.16980	0.02448
633.88403	0.02487
632.59826	0.02530
631.31249	0.02576
630.02673	0.02620
628.74096	0.02657
627.45519	0.02685
626.16942	0.02671
624.88365	0.02644
623.59788	0.02698
622.31211	0.02928
621.02634	0.03305
619.74057	0.03650
618.45481	0.03810
617.16904	0.03819
615.88327	0.03844
614.59750	0.04032
613.31173	0.04396
612.02596	0.04829
610.74019	0.05212
609.45442	0.05522
608.16866	0.05840
606.88289	0.06245
605.59712	0.06718
604.31135	0.07157
603.02558	0.07449
601.73981	0.07543
600.45404	0.07460
599.16827	0.07252
597.88250	0.06968
596.59674	0.06661
595.31097	0.06377
594.02520	0.06146
592.73943	0.05977
591.45366	0.05859
590.16789	0.05781
588.88212	0.05738
587.59635	0.05731
586.31059	0.05766
585.02482	0.05841
583.73905	0.05959
582.45328	0.06122
581.16751	0.06332
579.88174	0.06581
578.59597	0.06850
577.31020	0.07123
576.02443	0.07387
574.73867	0.07636
573.45290	0.07868
572.16713	0.08091
570.88136	0.08319
569.59559	0.08576
568.30982	0.08881
567.02405	0.09239
565.73828	0.09622
564.45251	0.09972
563.16675	0.10220
561.88098	0.10308
560.59521	0.10215
559.30944	0.09947
558.02367	0.09531
556.73790	0.09001
555.45213	0.08398
554.16636	0.07771
552.88060	0.07161
551.59483	0.06599
550.30906	0.06103
549.02329	0.05679
547.73752	0.05325
546.45175	0.05030
545.16598	0.04778
543.88021	0.04555
542.59444	0.04354
541.30868	0.04171
540.02291	0.04001
538.73714	0.03846
537.45137	0.03708
536.16560	0.03592
534.87983	0.03495
533.59406	0.03410
532.30829	0.03326
531.02253	0.03237
529.73676	0.03144
528.45099	0.03051
527.16522	0.02965
525.87945	0.02891
524.59368	0.02831
523.30791	0.02782
522.02214	0.02738
520.73637	0.02695
519.45061	0.02651
518.16484	0.02602
516.87907	0.02545
515.59330	0.02479
514.30753	0.02410
513.02176	0.02351
511.73599	0.02308
510.45022	0.02285
509.16446	0.02272
507.87869	0.02256
506.59292	0.02226
505.30715	0.02180
504.02138	0.02132
502.73561	0.02096
501.44984	0.02079
500.16407	0.02074
498.87830	0.02066
497.59254	0.02046
496.30677	0.02016
495.02100	0.01987
493.73523	0.01968
492.44946	0.01962
491.16369	0.01967
489.87792	0.01978
488.59215	0.01989
487.30639	0.01993
486.02062	0.01988
484.73485	0.01978
483.44908	0.01971
482.16331	0.01973
480.87754	0.01985
479.59177	0.02004
478.30600	0.02027
477.02023	0.02048
475.73447	0.02064
474.44870	0.02076
473.16293	0.02089
471.87716	0.02107
470.59139	0.02128
469.30562	0.02141
468.01985	0.02140
466.73408	0.02124
465.44832	0.02102
464.16255	0.02079
462.87678	0.02057
461.59101	0.02035
460.30524	0.02012
459.01947	0.01990
457.73370	0.01969
456.44793	0.01948
455.16216	0.01922
453.87640	0.01892
452.59063	0.01861
451.30486	0.01835
450.01909	0.01816
448.73332	0.01803
447.44755	0.01791
446.16178	0.01779
444.87601	0.01767
443.59025	0.01757
442.30448	0.01752
441.01871	0.01746
439.73294	0.01737
438.44717	0.01723
437.16140	0.01711
435.87563	0.01706
434.58986	0.01708
433.30409	0.01711
432.01833	0.01710
430.73256	0.01711
429.44679	0.01714
428.16102	0.01715
426.87525	0.01709
425.58948	0.01694
424.30371	0.01677
423.01794	0.01664
421.73218	0.01654
420.44641	0.01644
419.16064	0.01634
417.87487	0.01626
416.58910	0.01621
415.30333	0.01616
414.01756	0.01611
412.73179	0.01608
411.44602	0.01607
410.16026	0.01607
408.87449	0.01607
407.58872	0.01608
406.30295	0.01606
405.01718	0.01604
403.73141	0.01604
402.44564	0.01606
401.15987	0.01610
399.87411	0.01617
