3997.45528	0.02005
3996.16951	0.01999
3994.88374	0.01996
3993.59798	0.01988
3992.31221	0.01966
3991.02644	0.01938
3989.74067	0.01930
3988.45490	0.01967
3987.16913	0.02037
3985.88336	0.02085
3984.59759	0.02069
3983.31183	0.02001
3982.02606	0.01936
3980.74029	0.01917
3979.45452	0.01941
3978.16875	0.01981
3976.88298	0.02018
3975.59721	0.02052
3974.31144	0.02081
3973.02567	0.02098
3971.73991	0.02094
3970.45414	0.02073
3969.16837	0.02039
3967.88260	0.01989
3966.59683	0.01920
3965.31106	0.01850
3964.02529	0.01812
3962.73952	0.01835
3961.45376	0.01908
3960.16799	0.01985
3958.88222	0.02016
3957.59645	0.01996
3956.31068	0.01960
3955.02491	0.01950
3953.73914	0.01978
3952.45337	0.02026
3951.16760	0.02063
3949.88184	0.02070
3948.59607	0.02053
3947.31030	0.02032
3946.02453	0.02006
3944.73876	0.01965
3943.45299	0.01911
3942.16722	0.01872
3940.88145	0.01864
3939.59569	0.01878
3938.30992	0.01890
3937.02415	0.01898
3935.73838	0.01910
3934.45261	0.01927
3933.16684	0.01942
3931.88107	0.01945
3930.59530	0.01932
3929.30953	0.01911
3928.02377	0.01902
3926.73800	0.01921
3925.45223	0.01958
3924.16646	0.01972
3922.88069	0.01937
3921.59492	0.01874
3920.30915	0.01835
3919.02338	0.01830
3917.73762	0.01825
3916.45185	0.01792
3915.16608	0.01750
3913.88031	0.01743
3912.59454	0.01798
3911.30877	0.01897
3910.02300	0.02003
3908.73723	0.02082
3907.45146	0.02117
3906.16570	0.02110
3904.87993	0.02080
3903.59416	0.02063
3902.30839	0.02081
3901.02262	0.02123
3899.73685	0.02160
3898.45108	0.02174
3897.16531	0.02167
3895.87955	0.02156
3894.59378	0.02148
3893.30801	0.02134
3892.02224	0.02105
3890.73647	0.02063
3889.45070	0.02016
3888.16493	0.01964
3886.87916	0.01919
3885.59339	0.01899
3884.30763	0.01902
3883.02186	0.01904
3881.73609	0.01901
3880.45032	0.01910
3879.16455	0.01938
3877.87878	0.01962
3876.59301	0.01965
3875.30724	0.01957
3874.02148	0.01956
3872.73571	0.01951
3871.44994	0.01918
3870.16417	0.01864
3868.87840	0.01825
3867.59263	0.01822
3866.30686	0.01856
3865.02109	0.01918
3863.73532	0.01985
3862.44956	0.02026
3861.16379	0.02030
3859.87802	0.02007
3858.59225	0.01966
3857.30648	0.01913
3856.02071	0.01863
3854.73494	0.01841
3853.44917	0.01863
3852.16341	0.01900
3850.87764	0.01900
3849.59187	0.01852
3848.30610	0.01785
3847.02033	0.01734
3845.73456	0.01723
3844.44879	0.01763
3843.16302	0.01845
3841.87725	0.01937
3840.59149	0.01996
3839.30572	0.02008
3838.01995	0.02001
3836.73418	0.01996
3835.44841	0.01966
3834.16264	0.01878
3832.87687	0.01755
3831.59110	0.01668
3830.30534	0.01662
3829.01957	0.01712
3827.73380	0.01761
3826.44803	0.01792
3825.16226	0.01821
3823.87649	0.01851
3822.59072	0.01864
3821.30495	0.01852
3820.01918	0.01829
3818.73342	0.01806
3817.44765	0.01799
3816.16188	0.01829
3814.87611	0.01892
3813.59034	0.01952
3812.30457	0.01979
3811.01880	0.01966
3809.73303	0.01912
3808.44726	0.01836
3807.16150	0.01791
3805.87573	0.01807
3804.58996	0.01841
3803.30419	0.01821
3802.01842	0.01749
3800.73265	0.01688
3799.44688	0.01676
3798.16111	0.01704
3796.87535	0.01752
3795.58958	0.01804
3794.30381	0.01837
3793.01804	0.01843
3791.73227	0.01839
3790.44650	0.01844
3789.16073	0.01848
3787.87496	0.01834
3786.58919	0.01802
3785.30343	0.01779
3784.01766	0.01795
3782.73189	0.01841
3781.44612	0.01872
3780.16035	0.01848
3778.87458	0.01778
3777.58881	0.01701
3776.30304	0.01654
3775.01728	0.01646
3773.73151	0.01660
3772.44574	0.01670
3771.15997	0.01667
3769.87420	0.01667
3768.58843	0.01681
3767.30266	0.01703
3766.01689	0.01724
3764.73112	0.01741
3763.44536	0.01747
3762.15959	0.01740
3760.87382	0.01732
3759.58805	0.01736
3758.30228	0.01751
3757.01651	0.01764
3755.73074	0.01760
3754.44497	0.01738
3753.15921	0.01717
3751.87344	0.01719
3750.58767	0.01753
3749.30190	0.01804
3748.01613	0.01846
3746.73036	0.01845
3745.44459	0.01799
3744.15882	0.01756
3742.87305	0.01737
3741.58729	0.01724
3740.30152	0.01718
3739.01575	0.01740
3737.72998	0.01791
3736.44421	0.01866
3735.15844	0.01954
3733.87267	0.02022
3732.58690	0.02037
3731.30114	0.01999
3730.01537	0.01930
3728.72960	0.01856
3727.44383	0.01791
3726.15806	0.01736
3724.87229	0.01690
3723.58652	0.01658
3722.30075	0.01657
3721.01498	0.01692
3719.72922	0.01747
3718.44345	0.01804
3717.15768	0.01854
3715.87191	0.01894
3714.58614	0.01904
3713.30037	0.01875
3712.01460	0.01824
3710.72883	0.01782
3709.44307	0.01764
3708.15730	0.01756
3706.87153	0.01738
3705.58576	0.01702
3704.29999	0.01657
3703.01422	0.01620
3701.72845	0.01607
3700.44268	0.01614
3699.15691	0.01628
3697.87115	0.01659
3696.58538	0.01725
3695.29961	0.01805
3694.01384	0.01850
3692.72807	0.01838
3691.44230	0.01777
3690.15653	0.01699
3688.87076	0.01657
3687.58500	0.01674
3686.29923	0.01708
3685.01346	0.01713
3683.72769	0.01699
3682.44192	0.01709
3681.15615	0.01752
3679.87038	0.01788
3678.58461	0.01760
3677.29884	0.01674
3676.01308	0.01602
3674.72731	0.01609
3673.44154	0.01672
3672.15577	0.01722
3670.87000	0.01740
3669.58423	0.01754
3668.29846	0.01772
3667.01269	0.01776
3665.72693	0.01766
3664.44116	0.01763
3663.15539	0.01790
3661.86962	0.01849
3660.58385	0.01921
3659.29808	0.01976
3658.01231	0.01995
3656.72654	0.01970
3655.44077	0.01908
3654.15501	0.01824
3652.86924	0.01743
3651.58347	0.01691
3650.29770	0.01678
3649.01193	0.01687
3647.72616	0.01695
3646.44039	0.01696
3645.15462	0.01704
3643.86886	0.01737
3642.58309	0.01803
3641.29732	0.01880
3640.01155	0.01922
3638.72578	0.01896
3637.44001	0.01814
3636.15424	0.01724
3634.86847	0.01682
3633.58270	0.01705
3632.29694	0.01760
3631.01117	0.01792
3629.72540	0.01784
3628.43963	0.01768
3627.15386	0.01772
3625.86809	0.01788
3624.58232	0.01796
3623.29655	0.01784
3622.01079	0.01757
3620.72502	0.01744
3619.43925	0.01785
3618.15348	0.01882
3616.86771	0.01991
3615.58194	0.02061
3614.29617	0.02087
3613.01040	0.02098
3611.72463	0.02110
3610.43887	0.02109
3609.15310	0.02085
3607.86733	0.02047
3606.58156	0.02003
3605.29579	0.01952
3604.01002	0.01896
3602.72425	0.01856
3601.43848	0.01862
3600.15272	0.01930
3598.86695	0.02035
3597.58118	0.02133
3596.29541	0.02186
3595.00964	0.02184
3593.72387	0.02140
3592.43810	0.02094
3591.15233	0.02088
3589.86656	0.02126
3588.58080	0.02173
3587.29503	0.02188
3586.00926	0.02156
3584.72349	0.02103
3583.43772	0.02075
3582.15195	0.02091
3580.86618	0.02131
3579.58041	0.02169
3578.29464	0.02200
3577.00888	0.02237
3575.72311	0.02290
3574.43734	0.02351
3573.15157	0.02396
3571.86580	0.02404
3570.58003	0.02373
3569.29426	0.02320
3568.00849	0.02277
3566.72273	0.02260
3565.43696	0.02259
3564.15119	0.02256
3562.86542	0.02249
3561.57965	0.02254
3560.29388	0.02283
3559.00811	0.02328
3557.72234	0.02370
3556.43657	0.02397
3555.15081	0.02413
3553.86504	0.02424
3552.57927	0.02430
3551.29350	0.02425
3550.00773	0.02416
3548.72196	0.02409
3547.43619	0.02400
3546.15042	0.02389
3544.86466	0.02394
3543.57889	0.02443
3542.29312	0.02531
3541.00735	0.02616
3539.72158	0.02652
3538.43581	0.02643
3537.15004	0.02629
3535.86427	0.02640
3534.57850	0.02668
3533.29274	0.02677
3532.00697	0.02645
3530.72120	0.02577
3529.43543	0.02501
3528.14966	0.02456
3526.86389	0.02472
3525.57812	0.02546
3524.29235	0.02642
3523.00659	0.02714
3521.72082	0.02743
3520.43505	0.02738
3519.14928	0.02723
3517.86351	0.02710
3516.57774	0.02699
3515.29197	0.02678
3514.00620	0.02649
3512.72043	0.02625
3511.43467	0.02615
3510.14890	0.02617
3508.86313	0.02625
3507.57736	0.02627
3506.29159	0.02611
3505.00582	0.02576
3503.72005	0.02547
3502.43428	0.02554
3501.14852	0.02598
3499.86275	0.02655
3498.57698	0.02695
3497.29121	0.02709
3496.00544	0.02693
3494.71967	0.02647
3493.43390	0.02584
3492.14813	0.02532
3490.86236	0.02528
3489.57660	0.02587
3488.29083	0.02681
3487.00506	0.02756
3485.71929	0.02776
3484.43352	0.02744
3483.14775	0.02687
3481.86198	0.02640
3480.57621	0.02627
3479.29045	0.02653
3478.00468	0.02700
3476.71891	0.02743
3475.43314	0.02767
3474.14737	0.02772
3472.86160	0.02762
3471.57583	0.02748
3470.29006	0.02739
3469.00429	0.02743
3467.71853	0.02760
3466.43276	0.02782
3465.14699	0.02795
3463.86122	0.02798
3462.57545	0.02800
3461.28968	0.02814
3460.00391	0.02838
3458.71814	0.02860
3457.43238	0.02879
3456.14661	0.02901
3454.86084	0.02925
3453.57507	0.02939
3452.28930	0.02929
3451.00353	0.02898
3449.71776	0.02869
3448.43199	0.02859
3447.14622	0.02869
3445.86046	0.02886
3444.57469	0.02902
3443.28892	0.02928
3442.00315	0.02973
3440.71738	0.03026
3439.43161	0.03063
3438.14584	0.03058
3436.86007	0.03014
3435.57431	0.02956
3434.28854	0.02912
3433.00277	0.02894
3431.71700	0.02902
3430.43123	0.02934
3429.14546	0.02984
3427.85969	0.03038
3426.57392	0.03075
3425.28815	0.03090
3424.00239	0.03088
3422.71662	0.03078
3421.43085	0.03061
3420.14508	0.03035
3418.85931	0.03004
3417.57354	0.02979
3416.28777	0.02969
3415.00200	0.02983
3413.71624	0.03022
3412.43047	0.03070
3411.14470	0.03106
3409.85893	0.03121
3408.57316	0.03124
3407.28739	0.03115
3406.00162	0.03087
3404.71585	0.03040
3403.43008	0.03000
3402.14432	0.02990
3400.85855	0.03006
3399.57278	0.03023
3398.28701	0.03030
3397.00124	0.03038
3395.71547	0.03061
3394.42970	0.03096
3393.14393	0.03126
3391.85817	0.03137
3390.57240	0.03132
3389.28663	0.03132
3388.00086	0.03154
3386.71509	0.03197
3385.42932	0.03242
3384.14355	0.03264
3382.85778	0.03250
3381.57201	0.03213
3380.28625	0.03175
3379.00048	0.03157
3377.71471	0.03161
3376.42894	0.03177
3375.14317	0.03195
3373.85740	0.03210
3372.57163	0.03223
3371.28586	0.03227
3370.00010	0.03209
3368.71433	0.03169
3367.42856	0.03124
3366.14279	0.03094
3364.85702	0.03091
3363.57125	0.03113
3362.28548	0.03152
3360.99971	0.03198
3359.71394	0.03245
3358.42818	0.03288
3357.14241	0.03317
3355.85664	0.03325
3354.57087	0.03312
3353.28510	0.03291
3351.99933	0.03279
3350.71356	0.03281
3349.42779	0.03289
3348.14202	0.03294
3346.85626	0.03296
3345.57049	0.03300
3344.28472	0.03309
3342.99895	0.03324
3341.71318	0.03344
3340.42741	0.03365
3339.14164	0.03374
3337.85587	0.03361
3336.57011	0.03334
3335.28434	0.03317
3333.99857	0.03328
3332.71280	0.03361
3331.42703	0.03385
3330.14126	0.03371
3328.85549	0.03320
3327.56972	0.03255
3326.28395	0.03206
3324.99819	0.03187
3323.71242	0.03190
3322.42665	0.03202
3321.14088	0.03217
3319.85511	0.03243
3318.56934	0.03285
3317.28357	0.03326
3315.99780	0.03343
3314.71204	0.03322
3313.42627	0.03280
3312.14050	0.03250
3310.85473	0.03260
3309.56896	0.03306
3308.28319	0.03353
3306.99742	0.03370
3305.71165	0.03353
3304.42588	0.03329
3303.14012	0.03316
3301.85435	0.03309
3300.56858	0.03296
3299.28281	0.03284
3297.99704	0.03292
3296.71127	0.03330
3295.42550	0.03389
3294.13973	0.03443
3292.85397	0.03467
3291.56820	0.03450
3290.28243	0.03410
3288.99666	0.03382
3287.71089	0.03386
3286.42512	0.03409
3285.13935	0.03423
3283.85358	0.03416
3282.56781	0.03398
3281.28205	0.03374
3279.99628	0.03349
3278.71051	0.03327
3277.42474	0.03321
3276.13897	0.03336
3274.85320	0.03358
3273.56743	0.03366
3272.28166	0.03351
3270.99590	0.03323
3269.71013	0.03303
3268.42436	0.03303
3267.13859	0.03312
3265.85282	0.03314
3264.56705	0.03301
3263.28128	0.03283
3261.99551	0.03275
3260.70974	0.03275
3259.42398	0.03274
3258.13821	0.03264
3256.85244	0.03258
3255.56667	0.03271
3254.28090	0.03302
3252.99513	0.03324
3251.70936	0.03316
3250.42359	0.03286
3249.13783	0.03272
3247.85206	0.03300
3246.56629	0.03356
3245.28052	0.03394
3243.99475	0.03379
3242.70898	0.03308
3241.42321	0.03215
3240.13744	0.03146
3238.85167	0.03130
3237.56591	0.03163
3236.28014	0.03218
3234.99437	0.03268
3233.70860	0.03292
3232.42283	0.03281
3231.13706	0.03235
3229.85129	0.03171
3228.56552	0.03115
3227.27976	0.03087
3225.99399	0.03092
3224.70822	0.03115
3223.42245	0.03145
3222.13668	0.03175
3220.85091	0.03203
3219.56514	0.03223
3218.27937	0.03232
3216.99360	0.03239
3215.70784	0.03250
3214.42207	0.03255
3213.13630	0.03237
3211.85053	0.03198
3210.56476	0.03156
3209.27899	0.03123
3207.99322	0.03096
3206.70745	0.03079
3205.42169	0.03088
3204.13592	0.03132
3202.85015	0.03194
3201.56438	0.03239
3200.27861	0.03247
3198.99284	0.03225
3197.70707	0.03200
3196.42130	0.03191
3195.13553	0.03192
3193.84977	0.03188
3192.56400	0.03179
3191.27823	0.03174
3189.99246	0.03174
3188.70669	0.03166
3187.42092	0.03144
3186.13515	0.03123
3184.84938	0.03125
3183.56362	0.03152
3182.27785	0.03178
3180.99208	0.03173
3179.70631	0.03125
3178.42054	0.03057
3177.13477	0.03008
3175.84900	0.03003
3174.56323	0.03034
3173.27746	0.03072
3171.99170	0.03092
3170.70593	0.03094
3169.42016	0.03092
3168.13439	0.03087
3166.84862	0.03073
3165.56285	0.03051
3164.27708	0.03034
3162.99131	0.03041
3161.70555	0.03070
3160.41978	0.03099
3159.13401	0.03106
3157.84824	0.03089
3156.56247	0.03063
3155.27670	0.03044
3153.99093	0.03032
3152.70516	0.03020
3151.41939	0.03005
3150.13363	0.02989
3148.84786	0.02980
3147.56209	0.02979
3146.27632	0.02981
3144.99055	0.02983
3143.70478	0.02981
3142.41901	0.02976
3141.13324	0.02964
3139.84748	0.02944
3138.56171	0.02923
3137.27594	0.02918
3135.99017	0.02936
3134.70440	0.02958
3133.41863	0.02962
3132.13286	0.02942
3130.84709	0.02920
3129.56132	0.02914
3128.27556	0.02921
3126.98979	0.02929
3125.70402	0.02937
3124.41825	0.02950
3123.13248	0.02969
3121.84671	0.02985
3120.56094	0.02990
3119.27517	0.02980
3117.98940	0.02956
3116.70364	0.02925
3115.41787	0.02901
3114.13210	0.02900
3112.84633	0.02919
3111.56056	0.02935
3110.27479	0.02922
3108.98902	0.02877
3107.70325	0.02816
3106.41749	0.02764
3105.13172	0.02735
3103.84595	0.02731
3102.56018	0.02743
3101.27441	0.02756
3099.98864	0.02762
3098.70287	0.02765
3097.41710	0.02772
3096.13133	0.02792
3094.84557	0.02821
3093.55980	0.02851
3092.27403	0.02874
3090.98826	0.02888
3089.70249	0.02887
3088.41672	0.02866
3087.13095	0.02832
3085.84518	0.02803
3084.55942	0.02794
3083.27365	0.02805
3081.98788	0.02825
3080.70211	0.02845
3079.41634	0.02862
3078.13057	0.02869
3076.84480	0.02858
3075.55903	0.02832
3074.27326	0.02808
3072.98750	0.02797
3071.70173	0.02797
3070.41596	0.02798
3069.13019	0.02796
3067.84442	0.02794
3066.55865	0.02795
3065.27288	0.02798
3063.98711	0.02805
3062.70135	0.02818
3061.41558	0.02832
3060.12981	0.02834
3058.84404	0.02816
3057.55827	0.02785
3056.27250	0.02757
3054.98673	0.02742
3053.70096	0.02734
3052.41519	0.02725
3051.12943	0.02715
3049.84366	0.02709
3048.55789	0.02713
3047.27212	0.02727
3045.98635	0.02745
3044.70058	0.02756
3043.41481	0.02757
3042.12904	0.02749
3040.84328	0.02736
3039.55751	0.02716
3038.27174	0.02686
3036.98597	0.02649
3035.70020	0.02618
3034.41443	0.02609
3033.12866	0.02628
3031.84289	0.02657
3030.55712	0.02670
3029.27136	0.02648
3027.98559	0.02605
3026.69982	0.02577
3025.41405	0.02589
3024.12828	0.02633
3022.84251	0.02672
3021.55674	0.02680
3020.27097	0.02658
3018.98521	0.02629
3017.69944	0.02613
3016.41367	0.02610
3015.12790	0.02602
3013.84213	0.02576
3012.55636	0.02533
3011.27059	0.02496
3009.98482	0.02478
3008.69905	0.02484
3007.41329	0.02504
3006.12752	0.02521
3004.84175	0.02520
3003.55598	0.02498
3002.27021	0.02470
3000.98444	0.02455
2999.69867	0.02461
2998.41290	0.02486
2997.12714	0.02512
2995.84137	0.02531
2994.55560	0.02535
2993.26983	0.02524
2991.98406	0.02507
2990.69829	0.02494
2989.41252	0.02490
2988.12675	0.02488
2986.84098	0.02480
2985.55522	0.02463
2984.26945	0.02446
2982.98368	0.02443
2981.69791	0.02452
2980.41214	0.02460
2979.12637	0.02454
2977.84060	0.02437
2976.55483	0.02413
2975.26907	0.02391
2973.98330	0.02376
2972.69753	0.02374
2971.41176	0.02380
2970.12599	0.02386
2968.84022	0.02389
2967.55445	0.02395
2966.26868	0.02408
2964.98291	0.02420
2963.69715	0.02421
2962.41138	0.02402
2961.12561	0.02369
2959.83984	0.02334
2958.55407	0.02312
2957.26830	0.02308
2955.98253	0.02322
2954.69676	0.02351
2953.41100	0.02388
2952.12523	0.02416
2950.83946	0.02420
2949.55369	0.02394
2948.26792	0.02348
2946.98215	0.02303
2945.69638	0.02274
2944.41061	0.02266
2943.12484	0.02265
2941.83908	0.02263
2940.55331	0.02268
2939.26754	0.02284
2937.98177	0.02297
2936.69600	0.02291
2935.41023	0.02268
2934.12446	0.02240
2932.83869	0.02211
2931.55293	0.02170
2930.26716	0.02121
2928.98139	0.02083
2927.69562	0.02073
2926.40985	0.02089
2925.12408	0.02109
2923.83831	0.02110
2922.55254	0.02089
2921.26677	0.02058
2919.98101	0.02040
2918.69524	0.02044
2917.40947	0.02064
2916.12370	0.02085
2914.83793	0.02094
2913.55216	0.02094
2912.26639	0.02096
2910.98062	0.02108
2909.69486	0.02128
2908.40909	0.02145
2907.12332	0.02161
2905.83755	0.02183
2904.55178	0.02213
2903.26601	0.02241
2901.98024	0.02253
2900.69447	0.02252
2899.40870	0.02251
2898.12294	0.02247
2896.83717	0.02230
2895.55140	0.02198
2894.26563	0.02167
2892.97986	0.02149
2891.69409	0.02149
2890.40832	0.02167
2889.12255	0.02198
2887.83678	0.02226
2886.55102	0.02237
2885.26525	0.02227
2883.97948	0.02205
2882.69371	0.02187
2881.40794	0.02183
2880.12217	0.02194
2878.83640	0.02214
2877.55063	0.02237
2876.26487	0.02251
2874.97910	0.02246
2873.69333	0.02218
2872.40756	0.02174
2871.12179	0.02130
2869.83602	0.02095
2868.55025	0.02064
2867.26448	0.02030
2865.97871	0.01998
2864.69295	0.01984
2863.40718	0.01995
2862.12141	0.02019
2860.83564	0.02035
2859.54987	0.02035
2858.26410	0.02024
2856.97833	0.02010
2855.69256	0.01996
2854.40680	0.01982
2853.12103	0.01973
2851.83526	0.01973
2850.54949	0.01981
2849.26372	0.01993
2847.97795	0.02003
2846.69218	0.02012
2845.40641	0.02020
2844.12064	0.02027
2842.83488	0.02031
2841.54911	0.02028
2840.26334	0.02015
2838.97757	0.01997
2837.69180	0.01991
2836.40603	0.02007
2835.12026	0.02039
2833.83449	0.02065
2832.54873	0.02062
2831.26296	0.02031
2829.97719	0.01995
2828.69142	0.01979
2827.40565	0.01981
2826.11988	0.01982
2824.83411	0.01966
2823.54834	0.01941
2822.26257	0.01934
2820.97681	0.01955
2819.69104	0.01986
2818.40527	0.01996
2817.11950	0.01972
2815.83373	0.01935
2814.54796	0.01912
2813.26219	0.01913
2811.97642	0.01935
2810.69066	0.01966
2809.40489	0.01997
2808.11912	0.02020
2806.83335	0.02025
2805.54758	0.02012
2804.26181	0.01992
2802.97604	0.01980
2801.69027	0.01976
2800.40450	0.01972
2799.11874	0.01960
2797.83297	0.01946
2796.54720	0.01936
2795.26143	0.01930
2793.97566	0.01921
2792.68989	0.01909
2791.40412	0.01906
2790.11835	0.01921
2788.83259	0.01945
2787.54682	0.01957
2786.26105	0.01949
2784.97528	0.01929
2783.68951	0.01915
2782.40374	0.01916
2781.11797	0.01927
2779.83220	0.01935
2778.54643	0.01933
2777.26067	0.01926
2775.97490	0.01922
2774.68913	0.01923
2773.40336	0.01920
2772.11759	0.01910
2770.83182	0.01902
2769.54605	0.01905
2768.26028	0.01910
2766.97452	0.01905
2765.68875	0.01889
2764.40298	0.01874
2763.11721	0.01868
2761.83144	0.01867
2760.54567	0.01865
2759.25990	0.01866
2757.97413	0.01875
2756.68836	0.01889
2755.40260	0.01898
2754.11683	0.01894
2752.83106	0.01875
2751.54529	0.01847
2750.25952	0.01820
2748.97375	0.01808
2747.68798	0.01816
2746.40221	0.01839
2745.11645	0.01862
2743.83068	0.01870
2742.54491	0.01857
2741.25914	0.01834
2739.97337	0.01814
2738.68760	0.01803
2737.40183	0.01800
2736.11606	0.01797
2734.83029	0.01794
2733.54453	0.01791
2732.25876	0.01795
2730.97299	0.01802
2729.68722	0.01805
2728.40145	0.01800
2727.11568	0.01789
2725.82991	0.01780
2724.54414	0.01781
2723.25838	0.01791
2721.97261	0.01807
2720.68684	0.01825
2719.40107	0.01835
2718.11530	0.01830
2716.82953	0.01809
2715.54376	0.01779
2714.25799	0.01749
2712.97222	0.01729
2711.68646	0.01723
2710.40069	0.01731
2709.11492	0.01749
2707.82915	0.01764
2706.54338	0.01771
2705.25761	0.01769
2703.97184	0.01763
2702.68607	0.01759
2701.40031	0.01752
2700.11454	0.01739
2698.82877	0.01721
2697.54300	0.01704
2696.25723	0.01697
2694.97146	0.01702
2693.68569	0.01718
2692.39992	0.01736
2691.11415	0.01748
2689.82839	0.01752
2688.54262	0.01752
2687.25685	0.01751
2685.97108	0.01746
2684.68531	0.01737
2683.39954	0.01726
2682.11377	0.01717
2680.82800	0.01711
2679.54224	0.01709
2678.25647	0.01713
2676.97070	0.01719
2675.68493	0.01723
2674.39916	0.01717
2673.11339	0.01700
2671.82762	0.01675
2670.54185	0.01650
2669.25608	0.01632
2667.97032	0.01626
2666.68455	0.01624
2665.39878	0.01622
2664.11301	0.01626
2662.82724	0.01648
2661.54147	0.01687
2660.25570	0.01722
2658.96993	0.01732
2657.68417	0.01717
2656.39840	0.01694
2655.11263	0.01678
2653.82686	0.01669
2652.54109	0.01665
2651.25532	0.01663
2649.96955	0.01661
2648.68378	0.01655
2647.39801	0.01647
2646.11225	0.01640
2644.82648	0.01638
2643.54071	0.01635
2642.25494	0.01625
2640.96917	0.01606
2639.68340	0.01585
2638.39763	0.01572
2637.11186	0.01568
2635.82609	0.01563
2634.54033	0.01552
2633.25456	0.01545
2631.96879	0.01554
2630.68302	0.01575
2629.39725	0.01591
2628.11148	0.01592
2626.82571	0.01589
2625.53994	0.01593
2624.25418	0.01602
2622.96841	0.01597
2621.68264	0.01571
2620.39687	0.01536
2619.11110	0.01509
2617.82533	0.01495
2616.53956	0.01494
2615.25379	0.01502
2613.96802	0.01517
2612.68226	0.01526
2611.39649	0.01524
2610.11072	0.01516
2608.82495	0.01519
2607.53918	0.01540
2606.25341	0.01566
2604.96764	0.01571
2603.68187	0.01537
2602.39611	0.01480
2601.11034	0.01441
2599.82457	0.01442
2598.53880	0.01461
2597.25303	0.01457
2595.96726	0.01418
2594.68149	0.01373
2593.39572	0.01353
2592.10995	0.01356
2590.82419	0.01361
2589.53842	0.01355
2588.25265	0.01343
2586.96688	0.01342
2585.68111	0.01360
2584.39534	0.01390
2583.10957	0.01412
2581.82380	0.01410
2580.53804	0.01379
2579.25227	0.01332
2577.96650	0.01291
2576.68073	0.01273
2575.39496	0.01291
2574.10919	0.01337
2572.82342	0.01391
2571.53765	0.01420
2570.25188	0.01399
2568.96612	0.01340
2567.68035	0.01278
2566.39458	0.01243
2565.10881	0.01232
2563.82304	0.01223
2562.53727	0.01208
2561.25150	0.01198
2559.96573	0.01212
2558.67997	0.01255
2557.39420	0.01303
2556.10843	0.01328
2554.82266	0.01323
2553.53689	0.01310
2552.25112	0.01317
2550.96535	0.01347
2549.67958	0.01382
2548.39381	0.01411
2547.10805	0.01437
2545.82228	0.01462
2544.53651	0.01475
2543.25074	0.01461
2541.96497	0.01427
2540.67920	0.01396
2539.39343	0.01387
2538.10766	0.01389
2536.82190	0.01378
2535.53613	0.01349
2534.25036	0.01317
2532.96459	0.01301
2531.67882	0.01302
2530.39305	0.01303
2529.10728	0.01294
2527.82151	0.01275
2526.53574	0.01257
2525.24998	0.01248
2523.96421	0.01251
2522.67844	0.01261
2521.39267	0.01269
2520.10690	0.01265
2518.82113	0.01240
2517.53536	0.01199
2516.24959	0.01163
2514.96383	0.01160
2513.67806	0.01190
2512.39229	0.01226
2511.10652	0.01238
2509.82075	0.01224
2508.53498	0.01200
2507.24921	0.01183
2505.96344	0.01176
2504.67767	0.01177
2503.39191	0.01188
2502.10614	0.01205
2500.82037	0.01219
2499.53460	0.01219
2498.24883	0.01206
2496.96306	0.01190
2495.67729	0.01172
2494.39152	0.01152
2493.10576	0.01132
2491.81999	0.01117
2490.53422	0.01112
2489.24845	0.01115
2487.96268	0.01127
2486.67691	0.01152
2485.39114	0.01196
2484.10537	0.01253
2482.81960	0.01307
2481.53384	0.01339
2480.24807	0.01344
2478.96230	0.01334
2477.67653	0.01318
2476.39076	0.01289
2475.10499	0.01242
2473.81922	0.01187
2472.53345	0.01140
2471.24769	0.01108
2469.96192	0.01092
2468.67615	0.01092
2467.39038	0.01112
2466.10461	0.01148
2464.81884	0.01191
2463.53307	0.01229
2462.24730	0.01252
2460.96153	0.01256
2459.67577	0.01250
2458.39000	0.01246
2457.10423	0.01248
2455.81846	0.01246
2454.53269	0.01231
2453.24692	0.01209
2451.96115	0.01198
2450.67538	0.01213
2449.38962	0.01244
2448.10385	0.01258
2446.81808	0.01235
2445.53231	0.01187
2444.24654	0.01147
2442.96077	0.01135
2441.67500	0.01147
2440.38923	0.01171
2439.10346	0.01189
2437.81770	0.01185
2436.53193	0.01158
2435.24616	0.01129
2433.96039	0.01130
2432.67462	0.01169
2431.38885	0.01216
2430.10308	0.01234
2428.81731	0.01214
2427.53155	0.01179
2426.24578	0.01150
2424.96001	0.01134
2423.67424	0.01127
2422.38847	0.01128
2421.10270	0.01141
2419.81693	0.01167
2418.53116	0.01203
2417.24539	0.01235
2415.95963	0.01241
2414.67386	0.01210
2413.38809	0.01158
2412.10232	0.01126
2410.81655	0.01136
2409.53078	0.01165
2408.24501	0.01173
2406.95924	0.01148
2405.67347	0.01118
2404.38771	0.01115
2403.10194	0.01143
2401.81617	0.01176
2400.53040	0.01189
2399.24463	0.01171
2397.95886	0.01139
2396.67309	0.01101
2395.38732	0.01066
2394.10156	0.01048
2392.81579	0.01057
2391.53002	0.01089
2390.24425	0.01125
2388.95848	0.01151
2387.67271	0.01159
2386.38694	0.01155
2385.10117	0.01151
2383.81540	0.01154
2382.52964	0.01168
2381.24387	0.01185
2379.95810	0.01191
2378.67233	0.01188
2377.38656	0.01178
2376.10079	0.01162
2374.81502	0.01151
2373.52925	0.01174
2372.24349	0.01217
2370.95772	0.01237
2369.67195	0.01213
2368.38618	0.01179
2367.10041	0.01178
2365.81464	0.01190
2364.52887	0.01198
2363.24310	0.01195
2361.95733	0.01210
2360.67157	0.01277
2359.38580	0.01353
2358.10003	0.01372
2356.81426	0.01325
2355.52849	0.01242
2354.24272	0.01155
2352.95695	0.01100
2351.67118	0.01108
2350.38542	0.01143
2349.09965	0.01146
2347.81388	0.01134
2346.52811	0.01174
2345.24234	0.01222
2343.95657	0.01172
2342.67080	0.01063
2341.38503	0.01093
2340.09926	0.01242
2338.81350	0.01244
2337.52773	0.01113
2336.24196	0.01157
2334.95619	0.01311
2333.67042	0.01274
2332.38465	0.01130
2331.09888	0.01185
2329.81311	0.01231
2328.52735	0.01132
2327.24158	0.01177
2325.95581	0.01312
2324.67004	0.01321
2323.38427	0.01300
2322.09850	0.01323
2320.81273	0.01262
2319.52696	0.01233
2318.24119	0.01250
2316.95543	0.01233
2315.66966	0.01239
2314.38389	0.01245
2313.09812	0.01222
2311.81235	0.01221
2310.52658	0.01205
2309.24081	0.01177
2307.95504	0.01169
2306.66928	0.01165
2305.38351	0.01181
2304.09774	0.01197
2302.81197	0.01196
2301.52620	0.01186
2300.24043	0.01165
2298.95466	0.01156
2297.66889	0.01163
2296.38312	0.01182
2295.09736	0.01200
2293.81159	0.01198
2292.52582	0.01161
2291.24005	0.01086
2289.95428	0.00999
2288.66851	0.00944
2287.38274	0.00951
2286.09697	0.01005
2284.81121	0.01062
2283.52544	0.01091
2282.23967	0.01094
2280.95390	0.01087
2279.66813	0.01077
2278.38236	0.01062
2277.09659	0.01036
2275.81082	0.01004
2274.52505	0.00969
2273.23929	0.00947
2271.95352	0.00953
2270.66775	0.00999
2269.38198	0.01070
2268.09621	0.01131
2266.81044	0.01155
2265.52467	0.01136
2264.23890	0.01092
2262.95314	0.01052
2261.66737	0.01029
2260.38160	0.01014
2259.09583	0.00996
2257.81006	0.00980
2256.52429	0.00965
2255.23852	0.00943
2253.95275	0.00908
2252.66698	0.00877
2251.38122	0.00870
2250.09545	0.00888
2248.80968	0.00904
2247.52391	0.00870
2246.23814	0.00824
2244.95237	0.00807
2243.66660	0.00835
2242.38083	0.00904
2241.09507	0.00991
2239.80930	0.01054
2238.52353	0.01042
2237.23776	0.00947
2235.95199	0.00836
2234.66622	0.00787
2233.38045	0.00807
2232.09468	0.00839
2230.80891	0.00845
2229.52315	0.00842
2228.23738	0.00857
2226.95161	0.00878
2225.66584	0.00875
2224.38007	0.00836
2223.09430	0.00771
2221.80853	0.00693
2220.52276	0.00623
2219.23700	0.00590
2217.95123	0.00620
2216.66546	0.00700
2215.37969	0.00783
2214.09392	0.00826
2212.80815	0.00832
2211.52238	0.00835
2210.23661	0.00849
2208.95084	0.00842
2207.66508	0.00787
2206.37931	0.00698
2205.09354	0.00626
2203.80777	0.00606
2202.52200	0.00634
2201.23623	0.00689
2199.95046	0.00758
2198.66469	0.00826
2197.37893	0.00859
2196.09316	0.00825
2194.80739	0.00738
2193.52162	0.00656
2192.23585	0.00615
2190.95008	0.00591
2189.66431	0.00547
2188.37854	0.00495
2187.09277	0.00478
2185.80701	0.00501
2184.52124	0.00509
2183.23547	0.00459
2181.94970	0.00383
2180.66393	0.00350
2179.37816	0.00383
2178.09239	0.00440
2176.80662	0.00478
2175.52085	0.00510
2174.23509	0.00559
2172.94932	0.00613
2171.66355	0.00645
2170.37778	0.00660
2169.09201	0.00684
2167.80624	0.00709
2166.52047	0.00686
2165.23470	0.00593
2163.94894	0.00482
2162.66317	0.00449
2161.37740	0.00539
2160.09163	0.00679
2158.80586	0.00734
2157.52009	0.00654
2156.23432	0.00516
2154.94855	0.00411
2153.66278	0.00360
2152.37702	0.00328
2151.09125	0.00292
2149.80548	0.00262
2148.51971	0.00262
2147.23394	0.00298
2145.94817	0.00340
2144.66240	0.00344
2143.37663	0.00295
2142.09087	0.00228
2140.80510	0.00190
2139.51933	0.00191
2138.23356	0.00208
2136.94779	0.00219
2135.66202	0.00233
2134.37625	0.00268
2133.09048	0.00317
2131.80471	0.00361
2130.51895	0.00392
2129.23318	0.00427
2127.94741	0.00482
2126.66164	0.00550
2125.37587	0.00606
2124.09010	0.00637
2122.80433	0.00647
2121.51856	0.00653
2120.23280	0.00665
2118.94703	0.00687
2117.66126	0.00712
2116.37549	0.00730
2115.08972	0.00726
2113.80395	0.00692
2112.51818	0.00640
2111.23241	0.00597
2109.94664	0.00585
2108.66088	0.00596
2107.37511	0.00599
2106.08934	0.00572
2104.80357	0.00539
2103.51780	0.00543
2102.23203	0.00594
2100.94626	0.00659
2099.66049	0.00719
2098.37473	0.00721
2097.08896	0.00687
2095.80319	0.00652
2094.51742	0.00627
2093.23165	0.00601
2091.94588	0.00570
2090.66011	0.00545
2089.37434	0.00540
2088.08857	0.00554
2086.80281	0.00569
2085.51704	0.00566
2084.23127	0.00555
2082.94550	0.00569
2081.65973	0.00627
2080.37396	0.00707
2079.08819	0.00754
2077.80242	0.00729
2076.51666	0.00653
2075.23089	0.00590
2073.94512	0.00588
2072.65935	0.00639
2071.37358	0.00703
2070.08781	0.00747
2068.80204	0.00758
2067.51627	0.00739
2066.23050	0.00696
2064.94474	0.00642
2063.65897	0.00593
2062.37320	0.00557
2061.08743	0.00541
2059.80166	0.00540
2058.51589	0.00541
2057.23012	0.00522
2055.94435	0.00488
2054.65859	0.00469
2053.37282	0.00494
2052.08705	0.00551
2050.80128	0.00591
2049.51551	0.00578
2048.22974	0.00524
2046.94397	0.00469
2045.65820	0.00431
2044.37243	0.00410
2043.08667	0.00405
2041.80090	0.00429
2040.51513	0.00475
2039.22936	0.00513
2037.94359	0.00511
2036.65782	0.00470
2035.37205	0.00426
2034.08628	0.00402
2032.80052	0.00383
2031.51475	0.00330
2030.22898	0.00225
2028.94321	0.00101
2027.65744	0.00024
2026.37167	0.00050
2025.08590	0.00170
2023.80013	0.00305
2022.51436	0.00364
2021.22860	0.00315
2019.94283	0.00194
2018.65706	0.00068
2017.37129	-0.00013
2016.08552	-0.00025
2014.79975	0.00041
2013.51398	0.00174
2012.22821	0.00339
2010.94245	0.00472
2009.65668	0.00509
2008.37091	0.00436
2007.08514	0.00314
2005.79937	0.00244
2004.51360	0.00282
2003.22783	0.00398
2001.94206	0.00503
2000.65629	0.00530
1999.37053	0.00488
1998.08476	0.00432
1996.79899	0.00403
1995.51322	0.00396
1994.22745	0.00386
1992.94168	0.00363
1991.65591	0.00351
1990.37014	0.00368
1989.08438	0.00403
1987.79861	0.00428
1986.51284	0.00443
1985.22707	0.00482
1983.94130	0.00569
1982.65553	0.00688
1981.36976	0.00807
1980.08399	0.00891
1978.79822	0.00915
1977.51246	0.00862
1976.22669	0.00752
1974.94092	0.00644
1973.65515	0.00589
1972.36938	0.00596
1971.08361	0.00633
1969.79784	0.00656
1968.51207	0.00640
1967.22631	0.00590
1965.94054	0.00536
1964.65477	0.00512
1963.36900	0.00532
1962.08323	0.00573
1960.79746	0.00594
1959.51169	0.00571
1958.22592	0.00516
1956.94015	0.00462
1955.65439	0.00430
1954.36862	0.00419
1953.08285	0.00436
1951.79708	0.00492
1950.51131	0.00574
1949.22554	0.00641
1947.93977	0.00662
1946.65400	0.00648
1945.36823	0.00634
1944.08247	0.00636
1942.79670	0.00642
1941.51093	0.00632
1940.22516	0.00602
1938.93939	0.00565
1937.65362	0.00545
1936.36785	0.00558
1935.08208	0.00600
1933.79632	0.00652
1932.51055	0.00688
1931.22478	0.00696
1929.93901	0.00678
1928.65324	0.00649
1927.36747	0.00627
1926.08170	0.00619
1924.79593	0.00619
1923.51016	0.00620
1922.22440	0.00623
1920.93863	0.00630
1919.65286	0.00640
1918.36709	0.00652
1917.08132	0.00667
1915.79555	0.00681
1914.50978	0.00684
1913.22401	0.00673
1911.93825	0.00656
1910.65248	0.00641
1909.36671	0.00628
1908.08094	0.00616
1906.79517	0.00605
1905.50940	0.00593
1904.22363	0.00579
1902.93786	0.00564
1901.65209	0.00562
1900.36633	0.00586
1899.08056	0.00632
1897.79479	0.00683
1896.50902	0.00723
1895.22325	0.00749
1893.93748	0.00764
1892.65171	0.00767
1891.36594	0.00757
1890.08018	0.00737
1888.79441	0.00719
1887.50864	0.00709
1886.22287	0.00708
1884.93710	0.00713
1883.65133	0.00719
1882.36556	0.00721
1881.07979	0.00720
1879.79402	0.00718
1878.50826	0.00716
1877.22249	0.00713
1875.93672	0.00708
1874.65095	0.00707
1873.36518	0.00712
1872.07941	0.00718
1870.79364	0.00721
1869.50787	0.00717
1868.22211	0.00705
1866.93634	0.00683
1865.65057	0.00661
1864.36480	0.00651
1863.07903	0.00662
1861.79326	0.00689
1860.50749	0.00715
1859.22172	0.00724
1857.93595	0.00715
1856.65019	0.00698
1855.36442	0.00683
1854.07865	0.00671
1852.79288	0.00655
1851.50711	0.00636
1850.22134	0.00627
1848.93557	0.00640
1847.64980	0.00674
1846.36404	0.00707
1845.07827	0.00719
1843.79250	0.00708
1842.50673	0.00687
1841.22096	0.00672
1839.93519	0.00676
1838.64942	0.00695
1837.36365	0.00717
1836.07788	0.00727
1834.79212	0.00726
1833.50635	0.00717
1832.22058	0.00704
1830.93481	0.00685
1829.64904	0.00669
1828.36327	0.00662
1827.07750	0.00669
1825.79173	0.00686
1824.50597	0.00708
1823.22020	0.00723
1821.93443	0.00725
1820.64866	0.00712
1819.36289	0.00692
1818.07712	0.00673
1816.79135	0.00663
1815.50558	0.00664
1814.21981	0.00667
1812.93405	0.00664
1811.64828	0.00658
1810.36251	0.00658
1809.07674	0.00667
1807.79097	0.00678
1806.50520	0.00684
1805.21943	0.00682
1803.93366	0.00679
1802.64790	0.00682
1801.36213	0.00693
1800.07636	0.00707
1798.79059	0.00718
1797.50482	0.00725
1796.21905	0.00728
1794.93328	0.00729
1793.64751	0.00729
1792.36174	0.00732
1791.07598	0.00737
1789.79021	0.00737
1788.50444	0.00728
1787.21867	0.00713
1785.93290	0.00704
1784.64713	0.00712
1783.36136	0.00734
1782.07559	0.00759
1780.78983	0.00774
1779.50406	0.00776
1778.21829	0.00771
1776.93252	0.00763
1775.64675	0.00752
1774.36098	0.00737
1773.07521	0.00725
1771.78944	0.00724
1770.50367	0.00733
1769.21791	0.00741
1767.93214	0.00748
1766.64637	0.00755
1765.36060	0.00761
1764.07483	0.00764
1762.78906	0.00768
1761.50329	0.00776
1760.21752	0.00786
1758.93176	0.00789
1757.64599	0.00784
1756.36022	0.00779
1755.07445	0.00778
1753.78868	0.00777
1752.50291	0.00773
1751.21714	0.00771
1749.93137	0.00774
1748.64560	0.00780
1747.35984	0.00785
1746.07407	0.00787
1744.78830	0.00783
1743.50253	0.00776
1742.21676	0.00769
1740.93099	0.00766
1739.64522	0.00770
1738.35945	0.00778
1737.07369	0.00783
1735.78792	0.00777
1734.50215	0.00774
1733.21638	0.00782
1731.93061	0.00793
1730.64484	0.00794
1729.35907	0.00789
1728.07330	0.00792
1726.78753	0.00809
1725.50177	0.00831
1724.21600	0.00848
1722.93023	0.00860
1721.64446	0.00871
1720.35869	0.00883
1719.07292	0.00893
1717.78715	0.00905
1716.50138	0.00919
1715.21561	0.00928
1713.92985	0.00930
1712.64408	0.00930
1711.35831	0.00937
1710.07254	0.00955
1708.78677	0.00981
1707.50100	0.01012
1706.21523	0.01048
1704.92946	0.01095
1703.64370	0.01149
1702.35793	0.01196
1701.07216	0.01231
1699.78639	0.01268
1698.50062	0.01303
1697.21485	0.01326
1695.92908	0.01342
1694.64331	0.01370
1693.35754	0.01408
1692.07178	0.01446
1690.78601	0.01486
1689.50024	0.01538
1688.21447	0.01600
1686.92870	0.01658
1685.64293	0.01702
1684.35716	0.01742
1683.07139	0.01784
1681.78563	0.01823
1680.49986	0.01860
1679.21409	0.01905
1677.92832	0.01957
1676.64255	0.02002
1675.35678	0.02041
1674.07101	0.02082
1672.78524	0.02127
1671.49947	0.02172
1670.21371	0.02218
1668.92794	0.02268
1667.64217	0.02323
1666.35640	0.02375
1665.07063	0.02417
1663.78486	0.02451
1662.49909	0.02485
1661.21332	0.02520
1659.92756	0.02556
1658.64179	0.02591
1657.35602	0.02631
1656.07025	0.02670
1654.78448	0.02697
1653.49871	0.02717
1652.21294	0.02747
1650.92717	0.02787
1649.64140	0.02820
1648.35564	0.02837
1647.06987	0.02846
1645.78410	0.02851
1644.49833	0.02851
1643.21256	0.02847
1641.92679	0.02847
1640.64102	0.02860
1639.35525	0.02881
1638.06949	0.02899
1636.78372	0.02907
1635.49795	0.02912
1634.21218	0.02920
1632.92641	0.02922
1631.64064	0.02909
1630.35487	0.02885
1629.06910	0.02862
1627.78333	0.02848
1626.49757	0.02842
1625.21180	0.02835
1623.92603	0.02825
1622.64026	0.02813
1621.35449	0.02807
1620.06872	0.02802
1618.78295	0.02795
1617.49718	0.02785
1616.21142	0.02780
1614.92565	0.02782
1613.63988	0.02782
1612.35411	0.02775
1611.06834	0.02767
1609.78257	0.02762
1608.49680	0.02761
1607.21103	0.02759
1605.92526	0.02755
1604.63950	0.02750
1603.35373	0.02746
1602.06796	0.02748
1600.78219	0.02756
1599.49642	0.02767
1598.21065	0.02776
1596.92488	0.02783
1595.63911	0.02792
1594.35335	0.02805
1593.06758	0.02822
1591.78181	0.02841
1590.49604	0.02857
1589.21027	0.02869
1587.92450	0.02878
1586.63873	0.02884
1585.35296	0.02890
1584.06719	0.02897
1582.78143	0.02907
1581.49566	0.02919
1580.20989	0.02934
1578.92412	0.02945
1577.63835	0.02951
1576.35258	0.02960
1575.06681	0.02980
1573.78104	0.03006
1572.49528	0.03026
1571.20951	0.03037
1569.92374	0.03046
1568.63797	0.03056
1567.35220	0.03068
1566.06643	0.03082
1564.78066	0.03101
1563.49489	0.03123
1562.20912	0.03137
1560.92336	0.03133
1559.63759	0.03121
1558.35182	0.03116
1557.06605	0.03115
1555.78028	0.03102
1554.49451	0.03080
1553.20874	0.03059
1551.92297	0.03044
1550.63721	0.03031
1549.35144	0.03021
1548.06567	0.03014
1546.77990	0.03008
1545.49413	0.03001
1544.20836	0.02995
1542.92259	0.02989
1541.63682	0.02973
1540.35105	0.02945
1539.06529	0.02913
1537.77952	0.02886
1536.49375	0.02859
1535.20798	0.02830
1533.92221	0.02804
1532.63644	0.02787
1531.35067	0.02774
1530.06490	0.02760
1528.77914	0.02747
1527.49337	0.02739
1526.20760	0.02738
1524.92183	0.02738
1523.63606	0.02730
1522.35029	0.02715
1521.06452	0.02704
1519.77875	0.02705
1518.49298	0.02709
1517.20722	0.02711
1515.92145	0.02712
1514.63568	0.02714
1513.34991	0.02716
1512.06414	0.02721
1510.77837	0.02736
1509.49260	0.02756
1508.20683	0.02776
1506.92107	0.02791
1505.63530	0.02806
1504.34953	0.02818
1503.06376	0.02822
1501.77799	0.02820
1500.49222	0.02821
1499.20645	0.02826
1497.92068	0.02832
1496.63491	0.02836
1495.34915	0.02841
1494.06338	0.02847
1492.77761	0.02851
1491.49184	0.02855
1490.20607	0.02862
1488.92030	0.02874
1487.63453	0.02886
1486.34876	0.02897
1485.06299	0.02911
1483.77723	0.02927
1482.49146	0.02948
1481.20569	0.02972
1479.91992	0.02998
1478.63415	0.03028
1477.34838	0.03060
1476.06261	0.03095
1474.77684	0.03131
1473.49108	0.03166
1472.20531	0.03199
1470.91954	0.03229
1469.63377	0.03251
1468.34800	0.03262
1467.06223	0.03269
1465.77646	0.03281
1464.49069	0.03303
1463.20492	0.03335
1461.91916	0.03376
1460.63339	0.03421
1459.34762	0.03470
1458.06185	0.03521
1456.77608	0.03578
1455.49031	0.03633
1454.20454	0.03676
1452.91877	0.03702
1451.63301	0.03723
1450.34724	0.03745
1449.06147	0.03767
1447.77570	0.03785
1446.48993	0.03799
1445.20416	0.03805
1443.91839	0.03805
1442.63262	0.03800
1441.34685	0.03798
1440.06109	0.03800
1438.77532	0.03804
1437.48955	0.03809
1436.20378	0.03816
1434.91801	0.03826
1433.63224	0.03839
1432.34647	0.03855
1431.06070	0.03879
1429.77494	0.03909
1428.48917	0.03944
1427.20340	0.03983
1425.91763	0.04026
1424.63186	0.04071
1423.34609	0.04113
1422.06032	0.04144
1420.77455	0.04161
1419.48878	0.04179
1418.20302	0.04207
1416.91725	0.04244
1415.63148	0.04276
1414.34571	0.04293
1413.05994	0.04293
1411.77417	0.04280
1410.48840	0.04259
1409.20263	0.04238
1407.91687	0.04220
1406.63110	0.04199
1405.34533	0.04171
1404.05956	0.04134
1402.77379	0.04088
1401.48802	0.04036
1400.20225	0.03979
1398.91648	0.03919
1397.63071	0.03857
1396.34495	0.03794
1395.05918	0.03731
1393.77341	0.03669
1392.48764	0.03605
1391.20187	0.03536
1389.91610	0.03462
1388.63033	0.03385
1387.34456	0.03310
1386.05880	0.03240
1384.77303	0.03174
1383.48726	0.03107
1382.20149	0.03039
1380.91572	0.02970
1379.62995	0.02900
1378.34418	0.02833
1377.05841	0.02769
1375.77264	0.02705
1374.48688	0.02641
1373.20111	0.02579
1371.91534	0.02523
1370.62957	0.02473
1369.34380	0.02426
1368.05803	0.02380
1366.77226	0.02335
1365.48649	0.02291
1364.20073	0.02248
1362.91496	0.02206
1361.62919	0.02164
1360.34342	0.02122
1359.05765	0.02082
1357.77188	0.02049
1356.48611	0.02024
1355.20034	0.02005
1353.91457	0.01987
1352.62881	0.01967
1351.34304	0.01944
1350.05727	0.01921
1348.77150	0.01900
1347.48573	0.01880
1346.19996	0.01863
1344.91419	0.01845
1343.62842	0.01827
1342.34266	0.01810
1341.05689	0.01794
1339.77112	0.01777
1338.48535	0.01758
1337.19958	0.01737
1335.91381	0.01715
1334.62804	0.01696
1333.34227	0.01683
1332.05650	0.01672
1330.77074	0.01661
1329.48497	0.01648
1328.19920	0.01632
1326.91343	0.01615
1325.62766	0.01599
1324.34189	0.01585
1323.05612	0.01573
1321.77035	0.01561
1320.48459	0.01549
1319.19882	0.01537
1317.91305	0.01524
1316.62728	0.01511
1315.34151	0.01498
1314.05574	0.01484
1312.76997	0.01469
1311.48420	0.01455
1310.19843	0.01443
1308.91267	0.01432
1307.62690	0.01419
1306.34113	0.01403
1305.05536	0.01387
1303.76959	0.01373
1302.48382	0.01363
1301.19805	0.01356
1299.91228	0.01350
1298.62652	0.01344
1297.34075	0.01334
1296.05498	0.01324
1294.76921	0.01313
1293.48344	0.01302
1292.19767	0.01294
1290.91190	0.01289
1289.62613	0.01287
1288.34036	0.01285
1287.05460	0.01282
1285.76883	0.01276
1284.48306	0.01268
1283.19729	0.01260
1281.91152	0.01251
1280.62575	0.01242
1279.33998	0.01233
1278.05421	0.01224
1276.76845	0.01214
1275.48268	0.01203
1274.19691	0.01193
1272.91114	0.01189
1271.62537	0.01192
1270.33960	0.01198
1269.05383	0.01201
1267.76806	0.01200
1266.48229	0.01195
1265.19653	0.01189
1263.91076	0.01186
1262.62499	0.01186
1261.33922	0.01187
1260.05345	0.01187
1258.76768	0.01184
1257.48191	0.01178
1256.19614	0.01172
1254.91037	0.01166
1253.62461	0.01161
1252.33884	0.01157
1251.05307	0.01154
1249.76730	0.01155
1248.48153	0.01158
1247.19576	0.01162
1245.90999	0.01163
1244.62422	0.01160
1243.33846	0.01153
1242.05269	0.01146
1240.76692	0.01141
1239.48115	0.01140
1238.19538	0.01144
1236.90961	0.01150
1235.62384	0.01153
1234.33807	0.01149
1233.05230	0.01137
1231.76654	0.01121
1230.48077	0.01107
1229.19500	0.01098
1227.90923	0.01094
1226.62346	0.01092
1225.33769	0.01085
1224.05192	0.01072
1222.76615	0.01053
1221.48039	0.01035
1220.19462	0.01019
1218.90885	0.01007
1217.62308	0.00997
1216.33731	0.00988
1215.05154	0.00981
1213.76577	0.00977
1212.48000	0.00976
1211.19423	0.00978
1209.90847	0.00979
1208.62270	0.00978
1207.33693	0.00975
1206.05116	0.00973
1204.76539	0.00972
1203.47962	0.00977
1202.19385	0.00984
1200.90808	0.00989
1199.62232	0.00987
1198.33655	0.00983
1197.05078	0.00974
1195.76501	0.00965
1194.47924	0.00958
1193.19347	0.00955
1191.90770	0.00957
1190.62193	0.00957
1189.33616	0.00952
1188.05040	0.00941
1186.76463	0.00929
1185.47886	0.00921
1184.19309	0.00919
1182.90732	0.00922
1181.62155	0.00926
1180.33578	0.00928
1179.05001	0.00930
1177.76425	0.00934
1176.47848	0.00943
1175.19271	0.00953
1173.90694	0.00959
1172.62117	0.00959
1171.33540	0.00952
1170.04963	0.00945
1168.76386	0.00946
1167.47809	0.00956
1166.19233	0.00972
1164.90656	0.00992
1163.62079	0.01011
1162.33502	0.01028
1161.04925	0.01043
1159.76348	0.01052
1158.47771	0.01059
1157.19194	0.01065
1155.90618	0.01077
1154.62041	0.01095
1153.33464	0.01120
1152.04887	0.01149
1150.76310	0.01182
1149.47733	0.01219
1148.19156	0.01261
1146.90579	0.01303
1145.62002	0.01341
1144.33426	0.01377
1143.04849	0.01414
1141.76272	0.01456
1140.47695	0.01506
1139.19118	0.01560
1137.90541	0.01619
1136.61964	0.01681
1135.33387	0.01749
1134.04811	0.01826
1132.76234	0.01912
1131.47657	0.02008
1130.19080	0.02116
1128.90503	0.02237
1127.61926	0.02368
1126.33349	0.02503
1125.04772	0.02639
1123.76195	0.02779
1122.47619	0.02928
1121.19042	0.03087
1119.90465	0.03253
1118.61888	0.03423
1117.33311	0.03595
1116.04734	0.03765
1114.76157	0.03927
1113.47580	0.04078
1112.19004	0.04221
1110.90427	0.04362
1109.61850	0.04507
1108.33273	0.04653
1107.04696	0.04794
1105.76119	0.04930
1104.47542	0.05063
1103.18965	0.05196
1101.90388	0.05329
1100.61812	0.05457
1099.33235	0.05576
1098.04658	0.05689
1096.76081	0.05797
1095.47504	0.05896
1094.18927	0.05986
1092.90350	0.06070
1091.61773	0.06155
1090.33197	0.06241
1089.04620	0.06325
1087.76043	0.06402
1086.47466	0.06474
1085.18889	0.06547
1083.90312	0.06625
1082.61735	0.06708
1081.33158	0.06798
1080.04581	0.06898
1078.76005	0.07015
1077.47428	0.07147
1076.18851	0.07292
1074.90274	0.07441
1073.61697	0.07586
1072.33120	0.07727
1071.04543	0.07866
1069.75966	0.08010
1068.47390	0.08158
1067.18813	0.08309
1065.90236	0.08463
1064.61659	0.08621
1063.33082	0.08780
1062.04505	0.08937
1060.75928	0.09089
1059.47351	0.09238
1058.18774	0.09388
1056.90198	0.09541
1055.61621	0.09694
1054.33044	0.09848
1053.04467	0.09998
1051.75890	0.10142
1050.47313	0.10281
1049.18736	0.10417
1047.90159	0.10555
1046.61583	0.10699
1045.33006	0.10850
1044.04429	0.11009
1042.75852	0.11172
1041.47275	0.11333
1040.18698	0.11488
1038.90121	0.11635
1037.61544	0.11777
1036.32967	0.11914
1035.04391	0.12042
1033.75814	0.12156
1032.47237	0.12253
1031.18660	0.12334
1029.90083	0.12400
1028.61506	0.12451
1027.32929	0.12488
1026.04352	0.12506
1024.75775	0.12503
1023.47199	0.12475
1022.18622	0.12421
1020.90045	0.12341
1019.61468	0.12238
1018.32891	0.12115
1017.04314	0.11970
1015.75737	0.11804
1014.47160	0.11619
1013.18584	0.11416
1011.90007	0.11198
1010.61430	0.10962
1009.32853	0.10710
1008.04276	0.10450
1006.75699	0.10193
1005.47122	0.09946
1004.18545	0.09704
1002.89968	0.09457
1001.61392	0.09200
1000.32815	0.08941
999.04238	0.08687
997.75661	0.08439
996.47084	0.08188
995.18507	0.07933
993.89930	0.07682
992.61353	0.07449
991.32777	0.07235
990.04200	0.07029
988.75623	0.06823
987.47046	0.06616
986.18469	0.06411
984.89892	0.06211
983.61315	0.06014
982.32738	0.05821
981.04161	0.05632
979.75585	0.05455
978.47008	0.05294
977.18431	0.05147
975.89854	0.05013
974.61277	0.04891
973.32700	0.04783
972.04123	0.04694
970.75546	0.04629
969.46970	0.04590
968.18393	0.04574
966.89816	0.04576
965.61239	0.04587
964.32662	0.04605
963.04085	0.04624
961.75508	0.04639
960.46931	0.04638
959.18354	0.04612
957.89778	0.04560
956.61201	0.04491
955.32624	0.04415
954.04047	0.04338
952.75470	0.04260
951.46893	0.04184
950.18316	0.04110
948.89739	0.04033
947.61163	0.03953
946.32586	0.03874
945.04009	0.03800
943.75432	0.03726
942.46855	0.03647
941.18278	0.03561
939.89701	0.03476
938.61124	0.03399
937.32547	0.03332
936.03971	0.03272
934.75394	0.03214
933.46817	0.03155
932.18240	0.03101
930.89663	0.03051
929.61086	0.03001
928.32509	0.02948
927.03932	0.02895
925.75356	0.02850
924.46779	0.02814
923.18202	0.02780
921.89625	0.02744
920.61048	0.02704
919.32471	0.02664
918.03894	0.02624
916.75317	0.02585
915.46740	0.02549
914.18164	0.02518
912.89587	0.02494
911.61010	0.02472
910.32433	0.02446
909.03856	0.02418
907.75279	0.02396
906.46702	0.02384
905.18125	0.02374
903.89549	0.02358
902.60972	0.02333
901.32395	0.02304
900.03818	0.02281
898.75241	0.02266
897.46664	0.02259
896.18087	0.02251
894.89510	0.02238
893.60933	0.02216
892.32357	0.02190
891.03780	0.02167
889.75203	0.02155
888.46626	0.02159
887.18049	0.02179
885.89472	0.02214
884.60895	0.02269
883.32318	0.02343
882.03742	0.02431
880.75165	0.02516
879.46588	0.02582
878.18011	0.02627
876.89434	0.02661
875.60857	0.02696
874.32280	0.02733
873.03703	0.02764
871.75126	0.02779
870.46550	0.02778
869.17973	0.02760
867.89396	0.02725
866.60819	0.02670
865.32242	0.02596
864.03665	0.02511
862.75088	0.02430
861.46511	0.02361
860.17935	0.02303
858.89358	0.02250
857.60781	0.02204
856.32204	0.02167
855.03627	0.02139
853.75050	0.02115
852.46473	0.02096
851.17896	0.02080
849.89319	0.02067
848.60743	0.02051
847.32166	0.02033
846.03589	0.02015
844.75012	0.02002
843.46435	0.01993
842.17858	0.01984
840.89281	0.01972
839.60704	0.01958
838.32128	0.01945
837.03551	0.01937
835.74974	0.01938
834.46397	0.01947
833.17820	0.01958
831.89243	0.01965
830.60666	0.01963
829.32089	0.01951
828.03512	0.01935
826.74936	0.01921
825.46359	0.01914
824.17782	0.01911
822.89205	0.01910
821.60628	0.01907
820.32051	0.01901
819.03474	0.01890
817.74897	0.01877
816.46321	0.01867
815.17744	0.01864
813.89167	0.01867
812.60590	0.01872
811.32013	0.01877
810.03436	0.01884
808.74859	0.01893
807.46282	0.01903
806.17705	0.01905
804.89129	0.01895
803.60552	0.01879
802.31975	0.01867
801.03398	0.01866
799.74821	0.01871
798.46244	0.01872
797.17667	0.01866
795.89090	0.01858
794.60513	0.01854
793.31937	0.01858
792.03360	0.01868
790.74783	0.01882
789.46206	0.01897
788.17629	0.01908
786.89052	0.01909
785.60475	0.01898
784.31898	0.01878
783.03322	0.01856
781.74745	0.01843
780.46168	0.01843
779.17591	0.01851
777.89014	0.01862
776.60437	0.01869
775.31860	0.01872
774.03283	0.01872
772.74706	0.01874
771.46130	0.01879
770.17553	0.01887
768.88976	0.01892
767.60399	0.01888
766.31822	0.01875
765.03245	0.01860
763.74668	0.01854
762.46091	0.01858
761.17515	0.01867
759.88938	0.01874
758.60361	0.01878
757.31784	0.01881
756.03207	0.01882
754.74630	0.01883
753.46053	0.01882
752.17476	0.01880
750.88899	0.01877
749.60323	0.01874
748.31746	0.01873
747.03169	0.01881
745.74592	0.01897
744.46015	0.01913
743.17438	0.01912
741.88861	0.01891
740.60284	0.01864
739.31708	0.01852
738.03131	0.01863
736.74554	0.01889
735.45977	0.01916
734.17400	0.01933
732.88823	0.01933
731.60246	0.01917
730.31669	0.01895
729.03092	0.01884
727.74516	0.01888
726.45939	0.01902
725.17362	0.01912
723.88785	0.01908
722.60208	0.01908
721.31631	0.01916
720.03054	0.01929
718.74477	0.01945
717.45901	0.01957
716.17324	0.01961
714.88747	0.01956
713.60170	0.01948
712.31593	0.01942
711.03016	0.01940
709.74439	0.01942
708.45862	0.01947
707.17285	0.01951
705.88709	0.01952
704.60132	0.01948
703.31555	0.01942
702.02978	0.01937
700.74401	0.01935
699.45824	0.01935
698.17247	0.01936
696.88670	0.01939
695.60094	0.01946
694.31517	0.01956
693.02940	0.01964
691.74363	0.01970
690.45786	0.01973
689.17209	0.01975
687.88632	0.01975
686.60055	0.01970
685.31478	0.01961
684.02902	0.01952
682.74325	0.01946
681.45748	0.01944
680.17171	0.01944
678.88594	0.01942
677.60017	0.01938
676.31440	0.01934
675.02863	0.01929
673.74287	0.01926
672.45710	0.01930
671.17133	0.01943
669.88556	0.01964
668.59979	0.01982
667.31402	0.01987
666.02825	0.01992
664.74248	0.01992
663.45671	0.01988
662.17095	0.01979
660.88518	0.01968
659.59941	0.01959
658.31364	0.01960
657.02787	0.01968
655.74210	0.01976
654.45633	0.01978
653.17056	0.01975
651.88480	0.01972
650.59903	0.01972
649.31326	0.01975
648.02749	0.01977
646.74172	0.01974
645.45595	0.01969
644.17018	0.01964
642.88441	0.01966
641.59864	0.01975
640.31288	0.01987
639.02711	0.01998
637.74134	0.02006
636.45557	0.02015
635.16980	0.02030
633.88403	0.02050
632.59826	0.02074
631.31249	0.02105
630.02673	0.02164
628.74096	0.02249
627.45519	0.02294
626.16942	0.02441
624.88365	0.02652
623.59788	0.02835
622.31211	0.02942
621.02634	0.02992
619.74057	0.03037
618.45481	0.03109
617.16904	0.03212
615.88327	0.03340
614.59750	0.03466
613.31173	0.03560
612.02596	0.03641
610.74019	0.03797
609.45442	0.04096
608.16866	0.04474
606.88289	0.04800
605.59712	0.05011
604.31135	0.05131
603.02558	0.05189
601.73981	0.05187
600.45404	0.05128
599.16827	0.05024
597.88250	0.04892
596.59674	0.04740
595.31097	0.04584
594.02520	0.04452
592.73943	0.04370
591.45366	0.04339
590.16789	0.04333
588.88212	0.04328
587.59635	0.04328
586.31059	0.04350
585.02482	0.04410
583.73905	0.04507
582.45328	0.04625
581.16751	0.04754
579.88174	0.04889
578.59597	0.05025
577.31020	0.05156
576.02443	0.05276
574.73867	0.05382
573.45290	0.05484
572.16713	0.05599
570.88136	0.05740
569.59559	0.05907
568.30982	0.06088
567.02405	0.06264
565.73828	0.06418
564.45251	0.06536
563.16675	0.06615
561.88098	0.06647
560.59521	0.06622
559.30944	0.06528
558.02367	0.06361
556.73790	0.06127
555.45213	0.05853
554.16636	0.05568
552.88060	0.05297
551.59483	0.05052
550.30906	0.04838
549.02329	0.04655
547.73752	0.04499
546.45175	0.04357
545.16598	0.04218
543.88021	0.04079
542.59444	0.03949
541.30868	0.03836
540.02291	0.03735
538.73714	0.03639
537.45137	0.03549
536.16560	0.03470
534.87983	0.03404
533.59406	0.03343
532.30829	0.03277
531.02253	0.03204
529.73676	0.03125
528.45099	0.03047
527.16522	0.02975
525.87945	0.02913
524.59368	0.02862
523.30791	0.02818
522.02214	0.02777
520.73637	0.02737
519.45061	0.02700
518.16484	0.02662
516.87907	0.02623
515.59330	0.02581
514.30753	0.02539
513.02176	0.02502
511.73599	0.02473
510.45022	0.02452
509.16446	0.02435
507.87869	0.02414
506.59292	0.02385
505.30715	0.02356
504.02138	0.02338
502.73561	0.02335
501.44984	0.02335
500.16407	0.02328
498.87830	0.02309
497.59254	0.02286
496.30677	0.02266
495.02100	0.02248
493.73523	0.02229
492.44946	0.02203
491.16369	0.02175
489.87792	0.02153
488.59215	0.02141
487.30639	0.02138
486.02062	0.02133
484.73485	0.02121
483.44908	0.02101
482.16331	0.02084
480.87754	0.02075
479.59177	0.02075
478.30600	0.02077
477.02023	0.02081
475.73447	0.02087
474.44870	0.02096
473.16293	0.02104
471.87716	0.02108
470.59139	0.02107
469.30562	0.02099
468.01985	0.02085
466.73408	0.02070
465.44832	0.02056
464.16255	0.02042
462.87678	0.02027
461.59101	0.02006
460.30524	0.01981
459.01947	0.01955
457.73370	0.01928
456.44793	0.01903
455.16216	0.01878
453.87640	0.01858
452.59063	0.01844
451.30486	0.01839
450.01909	0.01834
448.73332	0.01823
447.44755	0.01800
446.16178	0.01770
444.87601	0.01739
443.59025	0.01714
442.30448	0.01698
441.01871	0.01688
439.73294	0.01680
438.44717	0.01671
437.16140	0.01660
435.87563	0.01650
434.58986	0.01644
433.30409	0.01643
432.01833	0.01642
430.73256	0.01639
429.44679	0.01631
428.16102	0.01619
426.87525	0.01604
425.58948	0.01586
424.30371	0.01567
423.01794	0.01549
421.73218	0.01531
420.44641	0.01514
419.16064	0.01498
417.87487	0.01485
416.58910	0.01474
415.30333	0.01462
414.01756	0.01450
412.73179	0.01442
411.44602	0.01441
410.16026	0.01446
408.87449	0.01452
407.58872	0.01451
406.30295	0.01446
405.01718	0.01440
403.73141	0.01436
402.44564	0.01433
401.15987	0.01429
399.87411	0.01424
