3997.45528	0.01858
3996.16951	0.01813
3994.88374	0.01792
3993.59798	0.01799
3992.31221	0.01831
3991.02644	0.01880
3989.74067	0.01926
3988.45490	0.01936
3987.16913	0.01894
3985.88336	0.01820
3984.59759	0.01759
3983.31183	0.01752
3982.02606	0.01812
3980.74029	0.01914
3979.45452	0.02007
3978.16875	0.02051
3976.88298	0.02048
3975.59721	0.02022
3974.31144	0.01991
3973.02567	0.01961
3971.73991	0.01939
3970.45414	0.01937
3969.16837	0.01958
3967.88260	0.01983
3966.59683	0.01980
3965.31106	0.01933
3964.02529	0.01860
3962.73952	0.01799
3961.45376	0.01776
3960.16799	0.01792
3958.88222	0.01835
3957.59645	0.01894
3956.31068	0.01959
3955.02491	0.02017
3953.73914	0.02054
3952.45337	0.02067
3951.16760	0.02058
3949.88184	0.02034
3948.59607	0.02007
3947.31030	0.01983
3946.02453	0.01960
3944.73876	0.01946
3943.45299	0.01962
3942.16722	0.02011
3940.88145	0.02054
3939.59569	0.02054
3938.30992	0.02025
3937.02415	0.02014
3935.73838	0.02033
3934.45261	0.02056
3933.16684	0.02054
3931.88107	0.02027
3930.59530	0.01991
3929.30953	0.01972
3928.02377	0.01990
3926.73800	0.02042
3925.45223	0.02115
3924.16646	0.02191
3922.88069	0.02244
3921.59492	0.02243
3920.30915	0.02174
3919.02338	0.02047
3917.73762	0.01909
3916.45185	0.01819
3915.16608	0.01803
3913.88031	0.01829
3912.59454	0.01861
3911.30877	0.01889
3910.02300	0.01919
3908.73723	0.01945
3907.45146	0.01945
3906.16570	0.01904
3904.87993	0.01846
3903.59416	0.01808
3902.30839	0.01796
3901.02262	0.01785
3899.73685	0.01781
3898.45108	0.01812
3897.16531	0.01876
3895.87955	0.01941
3894.59378	0.01982
3893.30801	0.01993
3892.02224	0.02004
3890.73647	0.02062
3889.45070	0.02146
3888.16493	0.02171
3886.87916	0.02139
3885.59339	0.02161
3884.30763	0.02271
3883.02186	0.02361
3881.73609	0.02338
3880.45032	0.02243
3879.16455	0.02149
3877.87878	0.02062
3876.59301	0.01984
3875.30724	0.01978
3874.02148	0.02081
3872.73571	0.02197
3871.44994	0.02206
3870.16417	0.02141
3868.87840	0.02109
3867.59263	0.02110
3866.30686	0.02086
3865.02109	0.02051
3863.73532	0.02027
3862.44956	0.01977
3861.16379	0.01894
3859.87802	0.01854
3858.59225	0.01926
3857.30648	0.02070
3856.02071	0.02178
3854.73494	0.02219
3853.44917	0.02274
3852.16341	0.02368
3850.87764	0.02416
3849.59187	0.02376
3848.30610	0.02306
3847.02033	0.02249
3845.73456	0.02200
3844.44879	0.02152
3843.16302	0.02125
3841.87725	0.02117
3840.59149	0.02084
3839.30572	0.02015
3838.01995	0.01983
3836.73418	0.02046
3835.44841	0.02142
3834.16264	0.02167
3832.87687	0.02116
3831.59110	0.02057
3830.30534	0.02021
3829.01957	0.01986
3827.73380	0.01937
3826.44803	0.01913
3825.16226	0.01929
3823.87649	0.01937
3822.59072	0.01933
3821.30495	0.02006
3820.01918	0.02169
3818.73342	0.02266
3817.44765	0.02198
3816.16188	0.02099
3814.87611	0.02108
3813.59034	0.02153
3812.30457	0.02113
3811.01880	0.02004
3809.73303	0.01884
3808.44726	0.01789
3807.16150	0.01797
3805.87573	0.01945
3804.58996	0.02101
3803.30419	0.02109
3802.01842	0.02025
3800.73265	0.02026
3799.44688	0.02120
3798.16111	0.02164
3796.87535	0.02110
3795.58958	0.02033
3794.30381	0.01984
3793.01804	0.01962
3791.73227	0.01959
3790.44650	0.01965
3789.16073	0.01961
3787.87496	0.01946
3786.58919	0.01944
3785.30343	0.01979
3784.01766	0.02046
3782.73189	0.02100
3781.44612	0.02101
3780.16035	0.02062
3778.87458	0.02029
3777.58881	0.02018
3776.30304	0.02016
3775.01728	0.02025
3773.73151	0.02043
3772.44574	0.02037
3771.15997	0.01991
3769.87420	0.01947
3768.58843	0.01928
3767.30266	0.01908
3766.01689	0.01877
3764.73112	0.01863
3763.44536	0.01863
3762.15959	0.01841
3760.87382	0.01809
3759.58805	0.01820
3758.30228	0.01899
3757.01651	0.02021
3755.73074	0.02130
3754.44497	0.02178
3753.15921	0.02176
3751.87344	0.02184
3750.58767	0.02231
3749.30190	0.02311
3748.01613	0.02365
3746.73036	0.02281
3745.44459	0.02095
3744.15882	0.02021
3742.87305	0.02125
3741.58729	0.02218
3740.30152	0.02177
3739.01575	0.02044
3737.72998	0.01898
3736.44421	0.01806
3735.15844	0.01805
3733.87267	0.01862
3732.58690	0.01929
3731.30114	0.01997
3730.01537	0.02034
3728.72960	0.01982
3727.44383	0.01867
3726.15806	0.01777
3724.87229	0.01746
3723.58652	0.01730
3722.30075	0.01688
3721.01498	0.01627
3719.72922	0.01596
3718.44345	0.01640
3717.15768	0.01765
3715.87191	0.01903
3714.58614	0.01976
3713.30037	0.01987
3712.01460	0.01990
3710.72883	0.02017
3709.44307	0.02045
3708.15730	0.02038
3706.87153	0.01991
3705.58576	0.01906
3704.29999	0.01806
3703.01422	0.01747
3701.72845	0.01765
3700.44268	0.01827
3699.15691	0.01861
3697.87115	0.01845
3696.58538	0.01837
3695.29961	0.01872
3694.01384	0.01930
3692.72807	0.01981
3691.44230	0.02008
3690.15653	0.02007
3688.87076	0.02010
3687.58500	0.02056
3686.29923	0.02098
3685.01346	0.02061
3683.72769	0.01973
3682.44192	0.01928
3681.15615	0.01965
3679.87038	0.02044
3678.58461	0.02077
3677.29884	0.02037
3676.01308	0.02039
3674.72731	0.02172
3673.44154	0.02308
3672.15577	0.02249
3670.87000	0.02043
3669.58423	0.01908
3668.29846	0.01928
3667.01269	0.02023
3665.72693	0.02123
3664.44116	0.02209
3663.15539	0.02267
3661.86962	0.02277
3660.58385	0.02238
3659.29808	0.02159
3658.01231	0.02073
3656.72654	0.02046
3655.44077	0.02128
3654.15501	0.02266
3652.86924	0.02354
3651.58347	0.02366
3650.29770	0.02359
3649.01193	0.02384
3647.72616	0.02440
3646.44039	0.02496
3645.15462	0.02522
3643.86886	0.02501
3642.58309	0.02441
3641.29732	0.02374
3640.01155	0.02337
3638.72578	0.02344
3637.44001	0.02384
3636.15424	0.02429
3634.86847	0.02485
3633.58270	0.02583
3632.29694	0.02702
3631.01117	0.02767
3629.72540	0.02765
3628.43963	0.02761
3627.15386	0.02769
3625.86809	0.02751
3624.58232	0.02727
3623.29655	0.02763
3622.01079	0.02847
3620.72502	0.02920
3619.43925	0.02956
3618.15348	0.02958
3616.86771	0.02920
3615.58194	0.02853
3614.29617	0.02819
3613.01040	0.02872
3611.72463	0.02978
3610.43887	0.03047
3609.15310	0.03053
3607.86733	0.03042
3606.58156	0.03043
3605.29579	0.03042
3604.01002	0.03029
3602.72425	0.03017
3601.43848	0.03020
3600.15272	0.03040
3598.86695	0.03058
3597.58118	0.03049
3596.29541	0.02996
3595.00964	0.02935
3593.72387	0.02918
3592.43810	0.02962
3591.15233	0.03036
3589.86656	0.03097
3588.58080	0.03149
3587.29503	0.03230
3586.00926	0.03324
3584.72349	0.03379
3583.43772	0.03370
3582.15195	0.03326
3580.86618	0.03300
3579.58041	0.03324
3578.29464	0.03393
3577.00888	0.03471
3575.72311	0.03518
3574.43734	0.03526
3573.15157	0.03530
3571.86580	0.03572
3570.58003	0.03643
3569.29426	0.03701
3568.00849	0.03726
3566.72273	0.03739
3565.43696	0.03764
3564.15119	0.03810
3562.86542	0.03860
3561.57965	0.03893
3560.29388	0.03896
3559.00811	0.03875
3557.72234	0.03864
3556.43657	0.03883
3555.15081	0.03925
3553.86504	0.03957
3552.57927	0.03964
3551.29350	0.03954
3550.00773	0.03943
3548.72196	0.03943
3547.43619	0.03957
3546.15042	0.03973
3544.86466	0.03965
3543.57889	0.03918
3542.29312	0.03860
3541.00735	0.03840
3539.72158	0.03880
3538.43581	0.03959
3537.15004	0.04039
3535.86427	0.04105
3534.57850	0.04163
3533.29274	0.04217
3532.00697	0.04266
3530.72120	0.04310
3529.43543	0.04353
3528.14966	0.04396
3526.86389	0.04431
3525.57812	0.04449
3524.29235	0.04451
3523.00659	0.04445
3521.72082	0.04427
3520.43505	0.04386
3519.14928	0.04335
3517.86351	0.04314
3516.57774	0.04359
3515.29197	0.04463
3514.00620	0.04588
3512.72043	0.04686
3511.43467	0.04734
3510.14890	0.04733
3508.86313	0.04697
3507.57736	0.04648
3506.29159	0.04612
3505.00582	0.04613
3503.72005	0.04650
3502.43428	0.04695
3501.14852	0.04725
3499.86275	0.04741
3498.57698	0.04760
3497.29121	0.04792
3496.00544	0.04835
3494.71967	0.04882
3493.43390	0.04924
3492.14813	0.04947
3490.86236	0.04939
3489.57660	0.04910
3488.29083	0.04888
3487.00506	0.04906
3485.71929	0.04968
3484.43352	0.05048
3483.14775	0.05108
3481.86198	0.05116
3480.57621	0.05067
3479.29045	0.04991
3478.00468	0.04937
3476.71891	0.04936
3475.43314	0.04974
3474.14737	0.05020
3472.86160	0.05059
3471.57583	0.05102
3470.29006	0.05160
3469.00429	0.05217
3467.71853	0.05242
3466.43276	0.05222
3465.14699	0.05176
3463.86122	0.05136
3462.57545	0.05120
3461.28968	0.05123
3460.00391	0.05129
3458.71814	0.05142
3457.43238	0.05182
3456.14661	0.05263
3454.86084	0.05359
3453.57507	0.05427
3452.28930	0.05442
3451.00353	0.05417
3449.71776	0.05383
3448.43199	0.05355
3447.14622	0.05333
3445.86046	0.05321
3444.57469	0.05326
3443.28892	0.05360
3442.00315	0.05421
3440.71738	0.05483
3439.43161	0.05520
3438.14584	0.05522
3436.86007	0.05501
3435.57431	0.05478
3434.28854	0.05470
3433.00277	0.05475
3431.71700	0.05481
3430.43123	0.05483
3429.14546	0.05492
3427.85969	0.05520
3426.57392	0.05567
3425.28815	0.05611
3424.00239	0.05635
3422.71662	0.05632
3421.43085	0.05616
3420.14508	0.05608
3418.85931	0.05626
3417.57354	0.05671
3416.28777	0.05715
3415.00200	0.05730
3413.71624	0.05710
3412.43047	0.05681
3411.14470	0.05676
3409.85893	0.05697
3408.57316	0.05720
3407.28739	0.05733
3406.00162	0.05753
3404.71585	0.05797
3403.43008	0.05852
3402.14432	0.05884
3400.85855	0.05867
3399.57278	0.05808
3398.28701	0.05738
3397.00124	0.05682
3395.71547	0.05654
3394.42970	0.05662
3393.14393	0.05704
3391.85817	0.05765
3390.57240	0.05819
3389.28663	0.05847
3388.00086	0.05851
3386.71509	0.05854
3385.42932	0.05876
3384.14355	0.05914
3382.85778	0.05939
3381.57201	0.05928
3380.28625	0.05890
3379.00048	0.05856
3377.71471	0.05841
3376.42894	0.05832
3375.14317	0.05813
3373.85740	0.05798
3372.57163	0.05813
3371.28586	0.05853
3370.00010	0.05885
3368.71433	0.05892
3367.42856	0.05887
3366.14279	0.05888
3364.85702	0.05889
3363.57125	0.05878
3362.28548	0.05860
3360.99971	0.05853
3359.71394	0.05857
3358.42818	0.05849
3357.14241	0.05820
3355.85664	0.05791
3354.57087	0.05801
3353.28510	0.05853
3351.99933	0.05912
3350.71356	0.05941
3349.42779	0.05928
3348.14202	0.05892
3346.85626	0.05850
3345.57049	0.05814
3344.28472	0.05799
3342.99895	0.05816
3341.71318	0.05858
3340.42741	0.05896
3339.14164	0.05907
3337.85587	0.05893
3336.57011	0.05873
3335.28434	0.05862
3333.99857	0.05857
3332.71280	0.05849
3331.42703	0.05836
3330.14126	0.05821
3328.85549	0.05805
3327.56972	0.05791
3326.28395	0.05787
3324.99819	0.05803
3323.71242	0.05834
3322.42665	0.05874
3321.14088	0.05914
3319.85511	0.05952
3318.56934	0.05978
3317.28357	0.05976
3315.99780	0.05937
3314.71204	0.05873
3313.42627	0.05811
3312.14050	0.05782
3310.85473	0.05794
3309.56896	0.05828
3308.28319	0.05849
3306.99742	0.05830
3305.71165	0.05773
3304.42588	0.05704
3303.14012	0.05650
3301.85435	0.05622
3300.56858	0.05617
3299.28281	0.05628
3297.99704	0.05650
3296.71127	0.05676
3295.42550	0.05695
3294.13973	0.05695
3292.85397	0.05676
3291.56820	0.05649
3290.28243	0.05626
3288.99666	0.05611
3287.71089	0.05599
3286.42512	0.05585
3285.13935	0.05579
3283.85358	0.05596
3282.56781	0.05637
3281.28205	0.05679
3279.99628	0.05702
3278.71051	0.05704
3277.42474	0.05698
3276.13897	0.05693
3274.85320	0.05687
3273.56743	0.05678
3272.28166	0.05674
3270.99590	0.05688
3269.71013	0.05713
3268.42436	0.05727
3267.13859	0.05715
3265.85282	0.05688
3264.56705	0.05663
3263.28128	0.05638
3261.99551	0.05600
3260.70974	0.05555
3259.42398	0.05534
3258.13821	0.05560
3256.85244	0.05627
3255.56667	0.05700
3254.28090	0.05741
3252.99513	0.05735
3251.70936	0.05688
3250.42359	0.05626
3249.13783	0.05581
3247.85206	0.05563
3246.56629	0.05559
3245.28052	0.05545
3243.99475	0.05523
3242.70898	0.05508
3241.42321	0.05510
3240.13744	0.05516
3238.85167	0.05514
3237.56591	0.05503
3236.28014	0.05503
3234.99437	0.05530
3233.70860	0.05575
3232.42283	0.05610
3231.13706	0.05612
3229.85129	0.05590
3228.56552	0.05568
3227.27976	0.05559
3225.99399	0.05555
3224.70822	0.05544
3223.42245	0.05519
3222.13668	0.05477
3220.85091	0.05423
3219.56514	0.05369
3218.27937	0.05328
3216.99360	0.05310
3215.70784	0.05318
3214.42207	0.05354
3213.13630	0.05409
3211.85053	0.05464
3210.56476	0.05490
3209.27899	0.05467
3207.99322	0.05396
3206.70745	0.05309
3205.42169	0.05256
3204.13592	0.05262
3202.85015	0.05306
3201.56438	0.05338
3200.27861	0.05335
3198.99284	0.05313
3197.70707	0.05301
3196.42130	0.05307
3195.13553	0.05314
3193.84977	0.05311
3192.56400	0.05303
3191.27823	0.05305
3189.99246	0.05316
3188.70669	0.05320
3187.42092	0.05306
3186.13515	0.05274
3184.84938	0.05238
3183.56362	0.05214
3182.27785	0.05210
3180.99208	0.05230
3179.70631	0.05262
3178.42054	0.05281
3177.13477	0.05265
3175.84900	0.05215
3174.56323	0.05157
3173.27746	0.05118
3171.99170	0.05112
3170.70593	0.05127
3169.42016	0.05148
3168.13439	0.05167
3166.84862	0.05186
3165.56285	0.05208
3164.27708	0.05218
3162.99131	0.05194
3161.70555	0.05137
3160.41978	0.05072
3159.13401	0.05034
3157.84824	0.05028
3156.56247	0.05033
3155.27670	0.05031
3153.99093	0.05019
3152.70516	0.05000
3151.41939	0.04973
3150.13363	0.04940
3148.84786	0.04920
3147.56209	0.04932
3146.27632	0.04964
3144.99055	0.04987
3143.70478	0.04984
3142.41901	0.04959
3141.13324	0.04928
3139.84748	0.04891
3138.56171	0.04849
3137.27594	0.04812
3135.99017	0.04798
3134.70440	0.04816
3133.41863	0.04855
3132.13286	0.04890
3130.84709	0.04899
3129.56132	0.04879
3128.27556	0.04840
3126.98979	0.04801
3125.70402	0.04774
3124.41825	0.04764
3123.13248	0.04774
3121.84671	0.04800
3120.56094	0.04824
3119.27517	0.04826
3117.98940	0.04801
3116.70364	0.04769
3115.41787	0.04751
3114.13210	0.04744
3112.84633	0.04731
3111.56056	0.04709
3110.27479	0.04688
3108.98902	0.04687
3107.70325	0.04703
3106.41749	0.04714
3105.13172	0.04696
3103.84595	0.04643
3102.56018	0.04576
3101.27441	0.04528
3099.98864	0.04520
3098.70287	0.04538
3097.41710	0.04552
3096.13133	0.04547
3094.84557	0.04533
3093.55980	0.04532
3092.27403	0.04545
3090.98826	0.04559
3089.70249	0.04563
3088.41672	0.04565
3087.13095	0.04576
3085.84518	0.04604
3084.55942	0.04636
3083.27365	0.04648
3081.98788	0.04622
3080.70211	0.04560
3079.41634	0.04491
3078.13057	0.04446
3076.84480	0.04429
3075.55903	0.04417
3074.27326	0.04393
3072.98750	0.04365
3071.70173	0.04349
3070.41596	0.04349
3069.13019	0.04353
3067.84442	0.04353
3066.55865	0.04350
3065.27288	0.04347
3063.98711	0.04347
3062.70135	0.04355
3061.41558	0.04372
3060.12981	0.04386
3058.84404	0.04379
3057.55827	0.04349
3056.27250	0.04306
3054.98673	0.04265
3053.70096	0.04233
3052.41519	0.04207
3051.12943	0.04188
3049.84366	0.04183
3048.55789	0.04191
3047.27212	0.04202
3045.98635	0.04202
3044.70058	0.04185
3043.41481	0.04156
3042.12904	0.04126
3040.84328	0.04112
3039.55751	0.04115
3038.27174	0.04120
3036.98597	0.04111
3035.70020	0.04086
3034.41443	0.04066
3033.12866	0.04065
3031.84289	0.04078
3030.55712	0.04091
3029.27136	0.04097
3027.98559	0.04097
3026.69982	0.04094
3025.41405	0.04092
3024.12828	0.04090
3022.84251	0.04090
3021.55674	0.04097
3020.27097	0.04110
3018.98521	0.04118
3017.69944	0.04104
3016.41367	0.04063
3015.12790	0.04005
3013.84213	0.03953
3012.55636	0.03921
3011.27059	0.03913
3009.98482	0.03928
3008.69905	0.03961
3007.41329	0.04001
3006.12752	0.04038
3004.84175	0.04058
3003.55598	0.04050
3002.27021	0.04010
3000.98444	0.03949
2999.69867	0.03887
2998.41290	0.03854
2997.12714	0.03861
2995.84137	0.03899
2994.55560	0.03937
2993.26983	0.03945
2991.98406	0.03918
2990.69829	0.03875
2989.41252	0.03844
2988.12675	0.03833
2986.84098	0.03847
2985.55522	0.03879
2984.26945	0.03912
2982.98368	0.03931
2981.69791	0.03942
2980.41214	0.03964
2979.12637	0.04003
2977.84060	0.04049
2976.55483	0.04088
2975.26907	0.04112
2973.98330	0.04115
2972.69753	0.04103
2971.41176	0.04095
2970.12599	0.04109
2968.84022	0.04146
2967.55445	0.04193
2966.26868	0.04239
2964.98291	0.04274
2963.69715	0.04295
2962.41138	0.04309
2961.12561	0.04327
2959.83984	0.04353
2958.55407	0.04371
2957.26830	0.04367
2955.98253	0.04347
2954.69676	0.04336
2953.41100	0.04351
2952.12523	0.04377
2950.83946	0.04390
2949.55369	0.04385
2948.26792	0.04382
2946.98215	0.04393
2945.69638	0.04407
2944.41061	0.04404
2943.12484	0.04377
2941.83908	0.04341
2940.55331	0.04316
2939.26754	0.04313
2937.98177	0.04325
2936.69600	0.04340
2935.41023	0.04352
2934.12446	0.04364
2932.83869	0.04389
2931.55293	0.04431
2930.26716	0.04479
2928.98139	0.04513
2927.69562	0.04528
2926.40985	0.04538
2925.12408	0.04550
2923.83831	0.04557
2922.55254	0.04550
2921.26677	0.04537
2919.98101	0.04525
2918.69524	0.04505
2917.40947	0.04461
2916.12370	0.04396
2914.83793	0.04329
2913.55216	0.04277
2912.26639	0.04244
2910.98062	0.04230
2909.69486	0.04232
2908.40909	0.04244
2907.12332	0.04253
2905.83755	0.04250
2904.55178	0.04234
2903.26601	0.04208
2901.98024	0.04175
2900.69447	0.04138
2899.40870	0.04093
2898.12294	0.04046
2896.83717	0.04015
2895.55140	0.04014
2894.26563	0.04026
2892.97986	0.04013
2891.69409	0.03953
2890.40832	0.03864
2889.12255	0.03788
2887.83678	0.03754
2886.55102	0.03760
2885.26525	0.03782
2883.97948	0.03801
2882.69371	0.03810
2881.40794	0.03814
2880.12217	0.03826
2878.83640	0.03852
2877.55063	0.03890
2876.26487	0.03920
2874.97910	0.03921
2873.69333	0.03897
2872.40756	0.03868
2871.12179	0.03856
2869.83602	0.03861
2868.55025	0.03871
2867.26448	0.03874
2865.97871	0.03865
2864.69295	0.03850
2863.40718	0.03840
2862.12141	0.03840
2860.83564	0.03846
2859.54987	0.03850
2858.26410	0.03847
2856.97833	0.03840
2855.69256	0.03828
2854.40680	0.03812
2853.12103	0.03795
2851.83526	0.03780
2850.54949	0.03761
2849.26372	0.03731
2847.97795	0.03688
2846.69218	0.03640
2845.40641	0.03593
2844.12064	0.03548
2842.83488	0.03505
2841.54911	0.03475
2840.26334	0.03457
2838.97757	0.03441
2837.69180	0.03419
2836.40603	0.03395
2835.12026	0.03378
2833.83449	0.03358
2832.54873	0.03323
2831.26296	0.03275
2829.97719	0.03231
2828.69142	0.03205
2827.40565	0.03191
2826.11988	0.03175
2824.83411	0.03154
2823.54834	0.03138
2822.26257	0.03136
2820.97681	0.03139
2819.69104	0.03132
2818.40527	0.03109
2817.11950	0.03079
2815.83373	0.03057
2814.54796	0.03051
2813.26219	0.03058
2811.97642	0.03070
2810.69066	0.03081
2809.40489	0.03086
2808.11912	0.03083
2806.83335	0.03072
2805.54758	0.03057
2804.26181	0.03042
2802.97604	0.03031
2801.69027	0.03023
2800.40450	0.03018
2799.11874	0.03013
2797.83297	0.03002
2796.54720	0.02986
2795.26143	0.02969
2793.97566	0.02954
2792.68989	0.02941
2791.40412	0.02931
2790.11835	0.02930
2788.83259	0.02938
2787.54682	0.02948
2786.26105	0.02950
2784.97528	0.02940
2783.68951	0.02922
2782.40374	0.02907
2781.11797	0.02900
2779.83220	0.02901
2778.54643	0.02901
2777.26067	0.02892
2775.97490	0.02872
2774.68913	0.02848
2773.40336	0.02837
2772.11759	0.02842
2770.83182	0.02850
2769.54605	0.02845
2768.26028	0.02829
2766.97452	0.02816
2765.68875	0.02816
2764.40298	0.02827
2763.11721	0.02840
2761.83144	0.02842
2760.54567	0.02826
2759.25990	0.02801
2757.97413	0.02782
2756.68836	0.02779
2755.40260	0.02788
2754.11683	0.02798
2752.83106	0.02797
2751.54529	0.02781
2750.25952	0.02755
2748.97375	0.02735
2747.68798	0.02732
2746.40221	0.02740
2745.11645	0.02750
2743.83068	0.02757
2742.54491	0.02765
2741.25914	0.02766
2739.97337	0.02750
2738.68760	0.02717
2737.40183	0.02685
2736.11606	0.02671
2734.83029	0.02680
2733.54453	0.02697
2732.25876	0.02705
2730.97299	0.02695
2729.68722	0.02675
2728.40145	0.02665
2727.11568	0.02675
2725.82991	0.02693
2724.54414	0.02694
2723.25838	0.02667
2721.97261	0.02630
2720.68684	0.02613
2719.40107	0.02626
2718.11530	0.02650
2716.82953	0.02661
2715.54376	0.02654
2714.25799	0.02641
2712.97222	0.02629
2711.68646	0.02620
2710.40069	0.02616
2709.11492	0.02616
2707.82915	0.02615
2706.54338	0.02606
2705.25761	0.02593
2703.97184	0.02586
2702.68607	0.02589
2701.40031	0.02596
2700.11454	0.02599
2698.82877	0.02592
2697.54300	0.02580
2696.25723	0.02571
2694.97146	0.02569
2693.68569	0.02567
2692.39992	0.02561
2691.11415	0.02554
2689.82839	0.02556
2688.54262	0.02565
2687.25685	0.02572
2685.97108	0.02568
2684.68531	0.02548
2683.39954	0.02516
2682.11377	0.02485
2680.82800	0.02470
2679.54224	0.02477
2678.25647	0.02497
2676.97070	0.02518
2675.68493	0.02528
2674.39916	0.02525
2673.11339	0.02513
2671.82762	0.02501
2670.54185	0.02498
2669.25608	0.02506
2667.97032	0.02517
2666.68455	0.02517
2665.39878	0.02502
2664.11301	0.02483
2662.82724	0.02476
2661.54147	0.02486
2660.25570	0.02506
2658.96993	0.02522
2657.68417	0.02525
2656.39840	0.02514
2655.11263	0.02495
2653.82686	0.02473
2652.54109	0.02454
2651.25532	0.02441
2649.96955	0.02434
2648.68378	0.02431
2647.39801	0.02431
2646.11225	0.02429
2644.82648	0.02420
2643.54071	0.02398
2642.25494	0.02366
2640.96917	0.02340
2639.68340	0.02335
2638.39763	0.02347
2637.11186	0.02354
2635.82609	0.02341
2634.54033	0.02312
2633.25456	0.02289
2631.96879	0.02287
2630.68302	0.02299
2629.39725	0.02310
2628.11148	0.02312
2626.82571	0.02305
2625.53994	0.02295
2624.25418	0.02283
2622.96841	0.02267
2621.68264	0.02243
2620.39687	0.02220
2619.11110	0.02208
2617.82533	0.02207
2616.53956	0.02209
2615.25379	0.02214
2613.96802	0.02229
2612.68226	0.02248
2611.39649	0.02257
2610.11072	0.02251
2608.82495	0.02237
2607.53918	0.02219
2606.25341	0.02193
2604.96764	0.02157
2603.68187	0.02120
2602.39611	0.02090
2601.11034	0.02068
2599.82457	0.02050
2598.53880	0.02043
2597.25303	0.02055
2595.96726	0.02079
2594.68149	0.02092
2593.39572	0.02075
2592.10995	0.02036
2590.82419	0.02008
2589.53842	0.02014
2588.25265	0.02043
2586.96688	0.02059
2585.68111	0.02046
2584.39534	0.02026
2583.10957	0.02029
2581.82380	0.02055
2580.53804	0.02076
2579.25227	0.02062
2577.96650	0.02012
2576.68073	0.01952
2575.39496	0.01907
2574.10919	0.01885
2572.82342	0.01873
2571.53765	0.01853
2570.25188	0.01823
2568.96612	0.01801
2567.68035	0.01813
2566.39458	0.01861
2565.10881	0.01918
2563.82304	0.01957
2562.53727	0.01974
2561.25150	0.01977
2559.96573	0.01966
2558.67997	0.01936
2557.39420	0.01889
2556.10843	0.01846
2554.82266	0.01826
2553.53689	0.01838
2552.25112	0.01878
2550.96535	0.01930
2549.67958	0.01965
2548.39381	0.01957
2547.10805	0.01907
2545.82228	0.01850
2544.53651	0.01825
2543.25074	0.01837
2541.96497	0.01856
2540.67920	0.01849
2539.39343	0.01818
2538.10766	0.01788
2536.82190	0.01774
2535.53613	0.01772
2534.25036	0.01774
2532.96459	0.01780
2531.67882	0.01783
2530.39305	0.01776
2529.10728	0.01766
2527.82151	0.01771
2526.53574	0.01799
2525.24998	0.01834
2523.96421	0.01856
2522.67844	0.01860
2521.39267	0.01854
2520.10690	0.01850
2518.82113	0.01848
2517.53536	0.01845
2516.24959	0.01840
2514.96383	0.01828
2513.67806	0.01808
2512.39229	0.01777
2511.10652	0.01743
2509.82075	0.01718
2508.53498	0.01713
2507.24921	0.01722
2505.96344	0.01733
2504.67767	0.01733
2503.39191	0.01724
2502.10614	0.01705
2500.82037	0.01675
2499.53460	0.01649
2498.24883	0.01656
2496.96306	0.01708
2495.67729	0.01778
2494.39152	0.01827
2493.10576	0.01845
2491.81999	0.01847
2490.53422	0.01844
2489.24845	0.01845
2487.96268	0.01856
2486.67691	0.01875
2485.39114	0.01885
2484.10537	0.01870
2482.81960	0.01828
2481.53384	0.01770
2480.24807	0.01716
2478.96230	0.01682
2477.67653	0.01671
2476.39076	0.01670
2475.10499	0.01665
2473.81922	0.01653
2472.53345	0.01647
2471.24769	0.01665
2469.96192	0.01703
2468.67615	0.01742
2467.39038	0.01761
2466.10461	0.01766
2464.81884	0.01771
2463.53307	0.01777
2462.24730	0.01774
2460.96153	0.01754
2459.67577	0.01732
2458.39000	0.01727
2457.10423	0.01749
2455.81846	0.01788
2454.53269	0.01822
2453.24692	0.01834
2451.96115	0.01821
2450.67538	0.01796
2449.38962	0.01775
2448.10385	0.01764
2446.81808	0.01755
2445.53231	0.01737
2444.24654	0.01707
2442.96077	0.01673
2441.67500	0.01647
2440.38923	0.01632
2439.10346	0.01625
2437.81770	0.01625
2436.53193	0.01627
2435.24616	0.01626
2433.96039	0.01627
2432.67462	0.01633
2431.38885	0.01642
2430.10308	0.01642
2428.81731	0.01631
2427.53155	0.01617
2426.24578	0.01613
2424.96001	0.01620
2423.67424	0.01636
2422.38847	0.01657
2421.10270	0.01682
2419.81693	0.01704
2418.53116	0.01713
2417.24539	0.01701
2415.95963	0.01668
2414.67386	0.01626
2413.38809	0.01591
2412.10232	0.01580
2410.81655	0.01604
2409.53078	0.01655
2408.24501	0.01709
2406.95924	0.01733
2405.67347	0.01718
2404.38771	0.01677
2403.10194	0.01644
2401.81617	0.01642
2400.53040	0.01667
2399.24463	0.01682
2397.95886	0.01697
2396.67309	0.01712
2395.38732	0.01721
2394.10156	0.01717
2392.81579	0.01695
2391.53002	0.01656
2390.24425	0.01614
2388.95848	0.01586
2387.67271	0.01586
2386.38694	0.01612
2385.10117	0.01646
2383.81540	0.01664
2382.52964	0.01653
2381.24387	0.01615
2379.95810	0.01571
2378.67233	0.01534
2377.38656	0.01509
2376.10079	0.01510
2374.81502	0.01519
2373.52925	0.01492
2372.24349	0.01414
2370.95772	0.01300
2369.67195	0.01230
2368.38618	0.01232
2367.10041	0.01258
2365.81464	0.01285
2364.52887	0.01337
2363.24310	0.01376
2361.95733	0.01357
2360.67157	0.01313
2359.38580	0.01319
2358.10003	0.01350
2356.81426	0.01373
2355.52849	0.01397
2354.24272	0.01420
2352.95695	0.01451
2351.67118	0.01451
2350.38542	0.01372
2349.09965	0.01329
2347.81388	0.01449
2346.52811	0.01618
2345.24234	0.01681
2343.95657	0.01658
2342.67080	0.01652
2341.38503	0.01668
2340.09926	0.01666
2338.81350	0.01648
2337.52773	0.01604
2336.24196	0.01562
2334.95619	0.01508
2333.67042	0.01439
2332.38465	0.01421
2331.09888	0.01457
2329.81311	0.01526
2328.52735	0.01632
2327.24158	0.01716
2325.95581	0.01739
2324.67004	0.01726
2323.38427	0.01679
2322.09850	0.01612
2320.81273	0.01558
2319.52696	0.01501
2318.24119	0.01440
2316.95543	0.01413
2315.66966	0.01431
2314.38389	0.01473
2313.09812	0.01499
2311.81235	0.01499
2310.52658	0.01486
2309.24081	0.01476
2307.95504	0.01488
2306.66928	0.01527
2305.38351	0.01572
2304.09774	0.01612
2302.81197	0.01638
2301.52620	0.01641
2300.24043	0.01622
2298.95466	0.01596
2297.66889	0.01580
2296.38312	0.01579
2295.09736	0.01588
2293.81159	0.01605
2292.52582	0.01630
2291.24005	0.01665
2289.95428	0.01696
2288.66851	0.01702
2287.38274	0.01672
2286.09697	0.01618
2284.81121	0.01565
2283.52544	0.01534
2282.23967	0.01526
2280.95390	0.01528
2279.66813	0.01524
2278.38236	0.01515
2277.09659	0.01508
2275.81082	0.01504
2274.52505	0.01492
2273.23929	0.01457
2271.95352	0.01397
2270.66775	0.01329
2269.38198	0.01279
2268.09621	0.01259
2266.81044	0.01264
2265.52467	0.01277
2264.23890	0.01293
2262.95314	0.01314
2261.66737	0.01348
2260.38160	0.01385
2259.09583	0.01406
2257.81006	0.01408
2256.52429	0.01403
2255.23852	0.01407
2253.95275	0.01420
2252.66698	0.01431
2251.38122	0.01420
2250.09545	0.01370
2248.80968	0.01280
2247.52391	0.01178
2246.23814	0.01100
2244.95237	0.01081
2243.66660	0.01118
2242.38083	0.01180
2241.09507	0.01228
2239.80930	0.01242
2238.52353	0.01221
2237.23776	0.01179
2235.95199	0.01139
2234.66622	0.01120
2233.38045	0.01126
2232.09468	0.01149
2230.80891	0.01171
2229.52315	0.01171
2228.23738	0.01140
2226.95161	0.01094
2225.66584	0.01063
2224.38007	0.01048
2223.09430	0.01008
2221.80853	0.00912
2220.52276	0.00796
2219.23700	0.00743
2217.95123	0.00805
2216.66546	0.00941
2215.37969	0.01046
2214.09392	0.01050
2212.80815	0.00974
2211.52238	0.00892
2210.23661	0.00863
2208.95084	0.00894
2207.66508	0.00948
2206.37931	0.00986
2205.09354	0.00979
2203.80777	0.00917
2202.52200	0.00814
2201.23623	0.00711
2199.95046	0.00649
2198.66469	0.00628
2197.37893	0.00623
2196.09316	0.00625
2194.80739	0.00652
2193.52162	0.00706
2192.23585	0.00751
2190.95008	0.00750
2189.66431	0.00698
2188.37854	0.00621
2187.09277	0.00547
2185.80701	0.00491
2184.52124	0.00455
2183.23547	0.00444
2181.94970	0.00478
2180.66393	0.00559
2179.37816	0.00645
2178.09239	0.00679
2176.80662	0.00634
2175.52085	0.00534
2174.23509	0.00416
2172.94932	0.00314
2171.66355	0.00246
2170.37778	0.00215
2169.09201	0.00220
2167.80624	0.00263
2166.52047	0.00344
2165.23470	0.00446
2163.94894	0.00537
2162.66317	0.00582
2161.37740	0.00554
2160.09163	0.00450
2158.80586	0.00299
2157.52009	0.00149
2156.23432	0.00041
2154.94855	-0.00001
2153.66278	0.00026
2152.37702	0.00108
2151.09125	0.00225
2149.80548	0.00358
2148.51971	0.00484
2147.23394	0.00579
2145.94817	0.00627
2144.66240	0.00635
2143.37663	0.00626
2142.09087	0.00638
2140.80510	0.00693
2139.51933	0.00772
2138.23356	0.00820
2136.94779	0.00791
2135.66202	0.00696
2134.37625	0.00597
2133.09048	0.00549
2131.80471	0.00559
2130.51895	0.00596
2129.23318	0.00629
2127.94741	0.00654
2126.66164	0.00673
2125.37587	0.00680
2124.09010	0.00662
2122.80433	0.00622
2121.51856	0.00591
2120.23280	0.00602
2118.94703	0.00649
2117.66126	0.00693
2116.37549	0.00703
2115.08972	0.00693
2113.80395	0.00695
2112.51818	0.00714
2111.23241	0.00732
2109.94664	0.00749
2108.66088	0.00784
2107.37511	0.00840
2106.08934	0.00891
2104.80357	0.00912
2103.51780	0.00903
2102.23203	0.00878
2100.94626	0.00844
2099.66049	0.00848
2098.37473	0.00782
2097.08896	0.00664
2095.80319	0.00568
2094.51742	0.00548
2093.23165	0.00608
2091.94588	0.00692
2090.66011	0.00743
2089.37434	0.00750
2088.08857	0.00747
2086.80281	0.00758
2085.51704	0.00769
2084.23127	0.00757
2082.94550	0.00728
2081.65973	0.00718
2080.37396	0.00744
2079.08819	0.00786
2077.80242	0.00806
2076.51666	0.00782
2075.23089	0.00722
2073.94512	0.00649
2072.65935	0.00587
2071.37358	0.00559
2070.08781	0.00576
2068.80204	0.00633
2067.51627	0.00696
2066.23050	0.00726
2064.94474	0.00708
2063.65897	0.00663
2062.37320	0.00617
2061.08743	0.00575
2059.80166	0.00536
2058.51589	0.00504
2057.23012	0.00489
2055.94435	0.00484
2054.65859	0.00483
2053.37282	0.00504
2052.08705	0.00569
2050.80128	0.00663
2049.51551	0.00724
2048.22974	0.00694
2046.94397	0.00575
2045.65820	0.00437
2044.37243	0.00351
2043.08667	0.00339
2041.80090	0.00372
2040.51513	0.00412
2039.22936	0.00441
2037.94359	0.00456
2036.65782	0.00462
2035.37205	0.00466
2034.08628	0.00478
2032.80052	0.00503
2031.51475	0.00525
2030.22898	0.00513
2028.94321	0.00436
2027.65744	0.00287
2026.37167	0.00112
2025.08590	-0.00014
2023.80013	-0.00037
2022.51436	0.00037
2021.22860	0.00150
2019.94283	0.00244
2018.65706	0.00296
2017.37129	0.00320
2016.08552	0.00333
2014.79975	0.00342
2013.51398	0.00349
2012.22821	0.00363
2010.94245	0.00393
2009.65668	0.00421
2008.37091	0.00421
2007.08514	0.00398
2005.79937	0.00394
2004.51360	0.00439
2003.22783	0.00509
2001.94206	0.00563
2000.65629	0.00592
1999.37053	0.00617
1998.08476	0.00652
1996.79899	0.00686
1995.51322	0.00688
1994.22745	0.00646
1992.94168	0.00587
1991.65591	0.00566
1990.37014	0.00615
1989.08438	0.00717
1987.79861	0.00821
1986.51284	0.00876
1985.22707	0.00863
1983.94130	0.00804
1982.65553	0.00746
1981.36976	0.00724
1980.08399	0.00732
1978.79822	0.00745
1977.51246	0.00736
1976.22669	0.00697
1974.94092	0.00646
1973.65515	0.00608
1972.36938	0.00606
1971.08361	0.00646
1969.79784	0.00716
1968.51207	0.00800
1967.22631	0.00877
1965.94054	0.00922
1964.65477	0.00905
1963.36900	0.00818
1962.08323	0.00697
1960.79746	0.00607
1959.51169	0.00580
1958.22592	0.00598
1956.94015	0.00627
1955.65439	0.00655
1954.36862	0.00691
1953.08285	0.00732
1951.79708	0.00758
1950.51131	0.00757
1949.22554	0.00735
1947.93977	0.00706
1946.65400	0.00679
1945.36823	0.00661
1944.08247	0.00664
1942.79670	0.00699
1941.51093	0.00762
1940.22516	0.00829
1938.93939	0.00876
1937.65362	0.00900
1936.36785	0.00907
1935.08208	0.00896
1933.79632	0.00866
1932.51055	0.00829
1931.22478	0.00800
1929.93901	0.00788
1928.65324	0.00783
1927.36747	0.00776
1926.08170	0.00769
1924.79593	0.00770
1923.51016	0.00785
1922.22440	0.00811
1920.93863	0.00832
1919.65286	0.00837
1918.36709	0.00834
1917.08132	0.00836
1915.79555	0.00842
1914.50978	0.00852
1913.22401	0.00871
1911.93825	0.00893
1910.65248	0.00900
1909.36671	0.00889
1908.08094	0.00880
1906.79517	0.00889
1905.50940	0.00910
1904.22363	0.00926
1902.93786	0.00933
1901.65209	0.00946
1900.36633	0.00978
1899.08056	0.01020
1897.79479	0.01047
1896.50902	0.01039
1895.22325	0.01003
1893.93748	0.00961
1892.65171	0.00930
1891.36594	0.00913
1890.08018	0.00914
1888.79441	0.00936
1887.50864	0.00969
1886.22287	0.00994
1884.93710	0.00994
1883.65133	0.00967
1882.36556	0.00924
1881.07979	0.00880
1879.79402	0.00849
1878.50826	0.00835
1877.22249	0.00839
1875.93672	0.00858
1874.65095	0.00893
1873.36518	0.00945
1872.07941	0.01001
1870.79364	0.01040
1869.50787	0.01053
1868.22211	0.01041
1866.93634	0.01015
1865.65057	0.00984
1864.36480	0.00963
1863.07903	0.00961
1861.79326	0.00972
1860.50749	0.00979
1859.22172	0.00978
1857.93595	0.00973
1856.65019	0.00974
1855.36442	0.00979
1854.07865	0.00981
1852.79288	0.00973
1851.50711	0.00956
1850.22134	0.00946
1848.93557	0.00962
1847.64980	0.00998
1846.36404	0.01020
1845.07827	0.01013
1843.79250	0.00996
1842.50673	0.00990
1841.22096	0.00982
1839.93519	0.00963
1838.64942	0.00947
1837.36365	0.00945
1836.07788	0.00952
1834.79212	0.00962
1833.50635	0.00971
1832.22058	0.00973
1830.93481	0.00973
1829.64904	0.00988
1828.36327	0.01017
1827.07750	0.01034
1825.79173	0.01033
1824.50597	0.01034
1823.22020	0.01051
1821.93443	0.01074
1820.64866	0.01085
1819.36289	0.01076
1818.07712	0.01047
1816.79135	0.01013
1815.50558	0.00994
1814.21981	0.00991
1812.93405	0.00993
1811.64828	0.00993
1810.36251	0.00992
1809.07674	0.00996
1807.79097	0.01006
1806.50520	0.01019
1805.21943	0.01032
1803.93366	0.01041
1802.64790	0.01044
1801.36213	0.01046
1800.07636	0.01050
1798.79059	0.01060
1797.50482	0.01079
1796.21905	0.01109
1794.93328	0.01135
1793.64751	0.01145
1792.36174	0.01150
1791.07598	0.01162
1789.79021	0.01170
1788.50444	0.01158
1787.21867	0.01129
1785.93290	0.01103
1784.64713	0.01097
1783.36136	0.01108
1782.07559	0.01120
1780.78983	0.01127
1779.50406	0.01136
1778.21829	0.01153
1776.93252	0.01178
1775.64675	0.01201
1774.36098	0.01208
1773.07521	0.01204
1771.78944	0.01214
1770.50367	0.01228
1769.21791	0.01223
1767.93214	0.01209
1766.64637	0.01215
1765.36060	0.01232
1764.07483	0.01236
1762.78906	0.01233
1761.50329	0.01252
1760.21752	0.01288
1758.93176	0.01308
1757.64599	0.01300
1756.36022	0.01293
1755.07445	0.01303
1753.78868	0.01310
1752.50291	0.01299
1751.21714	0.01290
1749.93137	0.01298
1748.64560	0.01311
1747.35984	0.01314
1746.07407	0.01312
1744.78830	0.01315
1743.50253	0.01323
1742.21676	0.01326
1740.93099	0.01322
1739.64522	0.01335
1738.35945	0.01382
1737.07369	0.01427
1735.78792	0.01428
1734.50215	0.01418
1733.21638	0.01447
1731.93061	0.01492
1730.64484	0.01497
1729.35907	0.01465
1728.07330	0.01441
1726.78753	0.01440
1725.50177	0.01452
1724.21600	0.01472
1722.93023	0.01510
1721.64446	0.01562
1720.35869	0.01598
1719.07292	0.01601
1717.78715	0.01603
1716.50138	0.01631
1715.21561	0.01668
1713.92985	0.01685
1712.64408	0.01687
1711.35831	0.01692
1710.07254	0.01715
1708.78677	0.01751
1707.50100	0.01788
1706.21523	0.01828
1704.92946	0.01890
1703.64370	0.01956
1702.35793	0.01981
1701.07216	0.01983
1699.78639	0.02031
1698.50062	0.02099
1697.21485	0.02105
1695.92908	0.02065
1694.64331	0.02063
1693.35754	0.02097
1692.07178	0.02112
1690.78601	0.02115
1689.50024	0.02154
1688.21447	0.02222
1686.92870	0.02260
1685.64293	0.02248
1684.35716	0.02243
1683.07139	0.02280
1681.78563	0.02319
1680.49986	0.02326
1679.21409	0.02328
1677.92832	0.02344
1676.64255	0.02366
1675.35678	0.02403
1674.07101	0.02468
1672.78524	0.02534
1671.49947	0.02564
1670.21371	0.02571
1668.92794	0.02590
1667.64217	0.02631
1666.35640	0.02669
1665.07063	0.02681
1663.78486	0.02680
1662.49909	0.02693
1661.21332	0.02728
1659.92756	0.02775
1658.64179	0.02838
1657.35602	0.02918
1656.07025	0.02975
1654.78448	0.02966
1653.49871	0.02943
1652.21294	0.02992
1650.92717	0.03091
1649.64140	0.03137
1648.35564	0.03100
1647.06987	0.03048
1645.78410	0.03036
1644.49833	0.03055
1643.21256	0.03065
1641.92679	0.03060
1640.64102	0.03068
1639.35525	0.03098
1638.06949	0.03120
1636.78372	0.03120
1635.49795	0.03127
1634.21218	0.03158
1632.92641	0.03192
1631.64064	0.03199
1630.35487	0.03188
1629.06910	0.03187
1627.78333	0.03207
1626.49757	0.03236
1625.21180	0.03256
1623.92603	0.03265
1622.64026	0.03287
1621.35449	0.03328
1620.06872	0.03359
1618.78295	0.03353
1617.49718	0.03332
1616.21142	0.03346
1614.92565	0.03392
1613.63988	0.03425
1612.35411	0.03426
1611.06834	0.03422
1609.78257	0.03436
1608.49680	0.03464
1607.21103	0.03496
1605.92526	0.03524
1604.63950	0.03546
1603.35373	0.03566
1602.06796	0.03589
1600.78219	0.03615
1599.49642	0.03640
1598.21065	0.03660
1596.92488	0.03678
1595.63911	0.03694
1594.35335	0.03713
1593.06758	0.03731
1591.78181	0.03747
1590.49604	0.03760
1589.21027	0.03773
1587.92450	0.03793
1586.63873	0.03817
1585.35296	0.03842
1584.06719	0.03862
1582.78143	0.03881
1581.49566	0.03912
1580.20989	0.03957
1578.92412	0.03989
1577.63835	0.03987
1576.35258	0.03984
1575.06681	0.04022
1573.78104	0.04078
1572.49528	0.04099
1571.20951	0.04080
1569.92374	0.04062
1568.63797	0.04069
1567.35220	0.04082
1566.06643	0.04084
1564.78066	0.04098
1563.49489	0.04145
1562.20912	0.04188
1560.92336	0.04190
1559.63759	0.04175
1558.35182	0.04196
1557.06605	0.04232
1555.78028	0.04222
1554.49451	0.04168
1553.20874	0.04122
1551.92297	0.04099
1550.63721	0.04081
1549.35144	0.04070
1548.06567	0.04071
1546.77990	0.04078
1545.49413	0.04090
1544.20836	0.04113
1542.92259	0.04129
1541.63682	0.04106
1540.35105	0.04055
1539.06529	0.04020
1537.77952	0.04015
1536.49375	0.03997
1535.20798	0.03944
1533.92221	0.03890
1532.63644	0.03882
1531.35067	0.03908
1530.06490	0.03938
1528.77914	0.03963
1527.49337	0.03996
1526.20760	0.04052
1524.92183	0.04126
1523.63606	0.04191
1522.35029	0.04242
1521.06452	0.04307
1519.77875	0.04396
1518.49298	0.04477
1517.20722	0.04537
1515.92145	0.04607
1514.63568	0.04696
1513.34991	0.04797
1512.06414	0.04918
1510.77837	0.05066
1509.49260	0.05213
1508.20683	0.05327
1506.92107	0.05422
1505.63530	0.05538
1504.34953	0.05664
1503.06376	0.05759
1501.77799	0.05824
1500.49222	0.05892
1499.20645	0.05972
1497.92068	0.06047
1496.63491	0.06119
1495.34915	0.06203
1494.06338	0.06292
1492.77761	0.06365
1491.49184	0.06422
1490.20607	0.06488
1488.92030	0.06569
1487.63453	0.06658
1486.34876	0.06751
1485.06299	0.06850
1483.77723	0.06954
1482.49146	0.07060
1481.20569	0.07170
1479.91992	0.07283
1478.63415	0.07394
1477.34838	0.07503
1476.06261	0.07610
1474.77684	0.07703
1473.49108	0.07778
1472.20531	0.07848
1470.91954	0.07915
1469.63377	0.07964
1468.34800	0.07984
1467.06223	0.07984
1465.77646	0.07985
1464.49069	0.08011
1463.20492	0.08064
1461.91916	0.08134
1460.63339	0.08200
1459.34762	0.08242
1458.06185	0.08267
1456.77608	0.08308
1455.49031	0.08376
1454.20454	0.08431
1452.91877	0.08446
1451.63301	0.08442
1450.34724	0.08445
1449.06147	0.08451
1447.77570	0.08447
1446.48993	0.08430
1445.20416	0.08396
1443.91839	0.08355
1442.63262	0.08322
1441.34685	0.08309
1440.06109	0.08300
1438.77532	0.08274
1437.48955	0.08238
1436.20378	0.08232
1434.91801	0.08263
1433.63224	0.08305
1432.34647	0.08346
1431.06070	0.08405
1429.77494	0.08501
1428.48917	0.08630
1427.20340	0.08775
1425.91763	0.08919
1424.63186	0.09067
1423.34609	0.09224
1422.06032	0.09373
1420.77455	0.09495
1419.48878	0.09598
1418.20302	0.09701
1416.91725	0.09786
1415.63148	0.09831
1414.34571	0.09839
1413.05994	0.09829
1411.77417	0.09804
1410.48840	0.09764
1409.20263	0.09706
1407.91687	0.09623
1406.63110	0.09513
1405.34533	0.09380
1404.05956	0.09238
1402.77379	0.09089
1401.48802	0.08924
1400.20225	0.08744
1398.91648	0.08561
1397.63071	0.08379
1396.34495	0.08186
1395.05918	0.07980
1393.77341	0.07777
1392.48764	0.07582
1391.20187	0.07383
1389.91610	0.07175
1388.63033	0.06964
1387.34456	0.06765
1386.05880	0.06582
1384.77303	0.06405
1383.48726	0.06224
1382.20149	0.06044
1380.91572	0.05868
1379.62995	0.05694
1378.34418	0.05520
1377.05841	0.05341
1375.77264	0.05157
1374.48688	0.04976
1373.20111	0.04805
1371.91534	0.04644
1370.62957	0.04486
1369.34380	0.04332
1368.05803	0.04193
1366.77226	0.04068
1365.48649	0.03948
1364.20073	0.03828
1362.91496	0.03711
1361.62919	0.03605
1360.34342	0.03510
1359.05765	0.03418
1357.77188	0.03328
1356.48611	0.03242
1355.20034	0.03164
1353.91457	0.03093
1352.62881	0.03026
1351.34304	0.02960
1350.05727	0.02896
1348.77150	0.02835
1347.48573	0.02776
1346.19996	0.02718
1344.91419	0.02665
1343.62842	0.02617
1342.34266	0.02574
1341.05689	0.02533
1339.77112	0.02493
1338.48535	0.02458
1337.19958	0.02426
1335.91381	0.02395
1334.62804	0.02366
1333.34227	0.02338
1332.05650	0.02312
1330.77074	0.02284
1329.48497	0.02256
1328.19920	0.02227
1326.91343	0.02198
1325.62766	0.02171
1324.34189	0.02144
1323.05612	0.02117
1321.77035	0.02089
1320.48459	0.02062
1319.19882	0.02041
1317.91305	0.02027
1316.62728	0.02017
1315.34151	0.02007
1314.05574	0.01997
1312.76997	0.01986
1311.48420	0.01977
1310.19843	0.01967
1308.91267	0.01955
1307.62690	0.01942
1306.34113	0.01928
1305.05536	0.01913
1303.76959	0.01896
1302.48382	0.01877
1301.19805	0.01860
1299.91228	0.01845
1298.62652	0.01831
1297.34075	0.01816
1296.05498	0.01801
1294.76921	0.01787
1293.48344	0.01776
1292.19767	0.01769
1290.91190	0.01762
1289.62613	0.01757
1288.34036	0.01754
1287.05460	0.01754
1285.76883	0.01754
1284.48306	0.01749
1283.19729	0.01736
1281.91152	0.01720
1280.62575	0.01704
1279.33998	0.01692
1278.05421	0.01686
1276.76845	0.01682
1275.48268	0.01675
1274.19691	0.01666
1272.91114	0.01655
1271.62537	0.01649
1270.33960	0.01649
1269.05383	0.01650
1267.76806	0.01649
1266.48229	0.01642
1265.19653	0.01632
1263.91076	0.01621
1262.62499	0.01612
1261.33922	0.01606
1260.05345	0.01602
1258.76768	0.01598
1257.48191	0.01591
1256.19614	0.01584
1254.91037	0.01580
1253.62461	0.01579
1252.33884	0.01577
1251.05307	0.01573
1249.76730	0.01568
1248.48153	0.01562
1247.19576	0.01553
1245.90999	0.01542
1244.62422	0.01530
1243.33846	0.01524
1242.05269	0.01523
1240.76692	0.01525
1239.48115	0.01525
1238.19538	0.01518
1236.90961	0.01509
1235.62384	0.01502
1234.33807	0.01498
1233.05230	0.01495
1231.76654	0.01496
1230.48077	0.01499
1229.19500	0.01503
1227.90923	0.01505
1226.62346	0.01504
1225.33769	0.01503
1224.05192	0.01503
1222.76615	0.01504
1221.48039	0.01503
1220.19462	0.01499
1218.90885	0.01492
1217.62308	0.01486
1216.33731	0.01483
1215.05154	0.01486
1213.76577	0.01491
1212.48000	0.01497
1211.19423	0.01502
1209.90847	0.01506
1208.62270	0.01510
1207.33693	0.01516
1206.05116	0.01523
1204.76539	0.01531
1203.47962	0.01538
1202.19385	0.01546
1200.90808	0.01552
1199.62232	0.01552
1198.33655	0.01559
1197.05078	0.01562
1195.76501	0.01564
1194.47924	0.01567
1193.19347	0.01572
1191.90770	0.01578
1190.62193	0.01584
1189.33616	0.01590
1188.05040	0.01596
1186.76463	0.01603
1185.47886	0.01610
1184.19309	0.01616
1182.90732	0.01622
1181.62155	0.01629
1180.33578	0.01636
1179.05001	0.01640
1177.76425	0.01644
1176.47848	0.01655
1175.19271	0.01672
1173.90694	0.01690
1172.62117	0.01705
1171.33540	0.01714
1170.04963	0.01721
1168.76386	0.01734
1167.47809	0.01758
1166.19233	0.01791
1164.90656	0.01828
1163.62079	0.01863
1162.33502	0.01892
1161.04925	0.01917
1159.76348	0.01943
1158.47771	0.01970
1157.19194	0.01997
1155.90618	0.02024
1154.62041	0.02053
1153.33464	0.02088
1152.04887	0.02132
1150.76310	0.02184
1149.47733	0.02242
1148.19156	0.02303
1146.90579	0.02364
1145.62002	0.02427
1144.33426	0.02494
1143.04849	0.02567
1141.76272	0.02648
1140.47695	0.02738
1139.19118	0.02840
1137.90541	0.02960
1136.61964	0.03102
1135.33387	0.03260
1134.04811	0.03428
1132.76234	0.03604
1131.47657	0.03795
1130.19080	0.04010
1128.90503	0.04252
1127.61926	0.04520
1126.33349	0.04809
1125.04772	0.05117
1123.76195	0.05440
1122.47619	0.05779
1121.19042	0.06133
1119.90465	0.06498
1118.61888	0.06868
1117.33311	0.07237
1116.04734	0.07603
1114.76157	0.07967
1113.47580	0.08331
1112.19004	0.08690
1110.90427	0.09037
1109.61850	0.09366
1108.33273	0.09684
1107.04696	0.09997
1105.76119	0.10307
1104.47542	0.10607
1103.18965	0.10891
1101.90388	0.11161
1100.61812	0.11427
1099.33235	0.11693
1098.04658	0.11957
1096.76081	0.12213
1095.47504	0.12456
1094.18927	0.12684
1092.90350	0.12901
1091.61773	0.13107
1090.33197	0.13305
1089.04620	0.13495
1087.76043	0.13681
1086.47466	0.13868
1085.18889	0.14062
1083.90312	0.14265
1082.61735	0.14477
1081.33158	0.14697
1080.04581	0.14928
1078.76005	0.15171
1077.47428	0.15429
1076.18851	0.15708
1074.90274	0.16010
1073.61697	0.16331
1072.33120	0.16664
1071.04543	0.17008
1069.75966	0.17362
1068.47390	0.17723
1067.18813	0.18094
1065.90236	0.18477
1064.61659	0.18876
1063.33082	0.19285
1062.04505	0.19695
1060.75928	0.20100
1059.47351	0.20504
1058.18774	0.20908
1056.90198	0.21310
1055.61621	0.21707
1054.33044	0.22098
1053.04467	0.22488
1051.75890	0.22879
1050.47313	0.23274
1049.18736	0.23678
1047.90159	0.24100
1046.61583	0.24543
1045.33006	0.25003
1044.04429	0.25470
1042.75852	0.25940
1041.47275	0.26411
1040.18698	0.26889
1038.90121	0.27376
1037.61544	0.27874
1036.32967	0.28376
1035.04391	0.28872
1033.75814	0.29345
1032.47237	0.29782
1031.18660	0.30176
1029.90083	0.30527
1028.61506	0.30835
1027.32929	0.31094
1026.04352	0.31299
1024.75775	0.31448
1023.47199	0.31539
1022.18622	0.31569
1020.90045	0.31533
1019.61468	0.31428
1018.32891	0.31252
1017.04314	0.31000
1015.75737	0.30662
1014.47160	0.30235
1013.18584	0.29721
1011.90007	0.29123
1010.61430	0.28447
1009.32853	0.27701
1008.04276	0.26894
1006.75699	0.26033
1005.47122	0.25124
1004.18545	0.24173
1002.89968	0.23194
1001.61392	0.22199
1000.32815	0.21202
999.04238	0.20212
997.75661	0.19233
996.47084	0.18269
995.18507	0.17326
993.89930	0.16419
992.61353	0.15563
991.32777	0.14764
990.04200	0.14019
988.75623	0.13321
987.47046	0.12667
986.18469	0.12058
984.89892	0.11485
983.61315	0.10939
982.32738	0.10425
981.04161	0.09958
979.75585	0.09549
978.47008	0.09193
977.18431	0.08877
975.89854	0.08593
974.61277	0.08346
973.32700	0.08146
972.04123	0.08002
970.75546	0.07918
969.46970	0.07896
968.18393	0.07933
966.89816	0.08028
965.61239	0.08167
964.32662	0.08325
963.04085	0.08465
961.75508	0.08549
960.46931	0.08557
959.18354	0.08483
957.89778	0.08330
956.61201	0.08109
955.32624	0.07840
954.04047	0.07552
952.75470	0.07270
951.46893	0.07005
950.18316	0.06756
948.89739	0.06517
947.61163	0.06290
946.32586	0.06079
945.04009	0.05880
943.75432	0.05687
942.46855	0.05495
941.18278	0.05313
939.89701	0.05153
938.61124	0.05015
937.32547	0.04892
936.03971	0.04775
934.75394	0.04666
933.46817	0.04568
932.18240	0.04479
930.89663	0.04391
929.61086	0.04298
928.32509	0.04207
927.03932	0.04127
925.75356	0.04064
924.46779	0.04011
923.18202	0.03960
921.89625	0.03909
920.61048	0.03857
919.32471	0.03808
918.03894	0.03761
916.75317	0.03718
915.46740	0.03678
914.18164	0.03641
912.89587	0.03608
911.61010	0.03576
910.32433	0.03539
909.03856	0.03501
907.75279	0.03465
906.46702	0.03436
905.18125	0.03413
903.89549	0.03392
902.60972	0.03368
901.32395	0.03341
900.03818	0.03318
898.75241	0.03308
897.46664	0.03311
896.18087	0.03320
894.89510	0.03322
893.60933	0.03315
892.32357	0.03310
891.03780	0.03322
889.75203	0.03359
888.46626	0.03426
887.18049	0.03527
885.89472	0.03667
884.60895	0.03856
883.32318	0.04100
882.03742	0.04384
880.75165	0.04670
879.46588	0.04910
878.18011	0.05082
876.89434	0.05214
875.60857	0.05351
874.32280	0.05506
873.03703	0.05639
871.75126	0.05691
870.46550	0.05635
869.17973	0.05488
867.89396	0.05281
866.60819	0.05038
865.32242	0.04775
864.03665	0.04512
862.75088	0.04275
861.46511	0.04078
860.17935	0.03919
858.89358	0.03789
857.60781	0.03682
856.32204	0.03598
855.03627	0.03532
853.75050	0.03478
852.46473	0.03426
851.17896	0.03374
849.89319	0.03327
848.60743	0.03288
847.32166	0.03258
846.03589	0.03234
844.75012	0.03213
843.46435	0.03193
842.17858	0.03169
840.89281	0.03139
839.60704	0.03108
838.32128	0.03084
837.03551	0.03071
835.74974	0.03065
834.46397	0.03062
833.17820	0.03063
831.89243	0.03066
830.60666	0.03066
829.32089	0.03059
828.03512	0.03048
826.74936	0.03036
825.46359	0.03023
824.17782	0.03008
822.89205	0.02989
821.60628	0.02974
820.32051	0.02971
819.03474	0.02979
817.74897	0.02989
816.46321	0.02989
815.17744	0.02977
813.89167	0.02960
812.60590	0.02945
811.32013	0.02936
810.03436	0.02931
808.74859	0.02926
807.46282	0.02925
806.17705	0.02931
804.89129	0.02946
803.60552	0.02964
802.31975	0.02981
801.03398	0.02992
799.74821	0.02996
798.46244	0.02991
797.17667	0.02977
795.89090	0.02963
794.60513	0.02956
793.31937	0.02960
792.03360	0.02969
790.74783	0.02974
789.46206	0.02976
788.17629	0.02978
786.89052	0.02983
785.60475	0.02986
784.31898	0.02982
783.03322	0.02973
781.74745	0.02967
780.46168	0.02962
779.17591	0.02954
777.89014	0.02943
776.60437	0.02934
775.31860	0.02934
774.03283	0.02947
772.74706	0.02966
771.46130	0.02984
770.17553	0.02997
768.88976	0.03001
767.60399	0.02998
766.31822	0.02991
765.03245	0.02983
763.74668	0.02975
762.46091	0.02967
761.17515	0.02965
759.88938	0.02971
758.60361	0.02987
757.31784	0.03005
756.03207	0.03022
754.74630	0.03033
753.46053	0.03039
752.17476	0.03039
750.88899	0.03040
749.60323	0.03045
748.31746	0.03048
747.03169	0.03042
745.74592	0.03029
744.46015	0.03018
743.17438	0.03012
741.88861	0.03007
740.60284	0.02995
739.31708	0.02979
738.03131	0.02970
736.74554	0.02976
735.45977	0.02994
734.17400	0.03013
732.88823	0.03026
731.60246	0.03032
730.31669	0.03034
729.03092	0.03033
727.74516	0.03033
726.45939	0.03038
725.17362	0.03047
723.88785	0.03052
722.60208	0.03051
721.31631	0.03054
720.03054	0.03061
718.74477	0.03069
717.45901	0.03082
716.17324	0.03093
714.88747	0.03094
713.60170	0.03090
712.31593	0.03087
711.03016	0.03087
709.74439	0.03085
708.45862	0.03080
707.17285	0.03072
705.88709	0.03066
704.60132	0.03065
703.31555	0.03066
702.02978	0.03067
700.74401	0.03066
699.45824	0.03062
698.17247	0.03055
696.88670	0.03048
695.60094	0.03040
694.31517	0.03033
693.02940	0.03028
691.74363	0.03025
690.45786	0.03026
689.17209	0.03029
687.88632	0.03034
686.60055	0.03036
685.31478	0.03031
684.02902	0.03021
682.74325	0.03011
681.45748	0.03005
680.17171	0.03005
678.88594	0.03009
677.60017	0.03015
676.31440	0.03025
675.02863	0.03035
673.74287	0.03033
672.45710	0.03005
671.17133	0.02971
669.88556	0.03012
668.59979	0.03137
667.31402	0.03138
666.02825	0.03043
664.74248	0.03031
663.45671	0.03061
662.17095	0.03073
660.88518	0.03066
659.59941	0.03053
658.31364	0.03043
657.02787	0.03040
655.74210	0.03043
654.45633	0.03046
653.17056	0.03052
651.88480	0.03059
650.59903	0.03070
649.31326	0.03085
648.02749	0.03100
646.74172	0.03117
645.45595	0.03138
644.17018	0.03161
642.88441	0.03185
641.59864	0.03211
640.31288	0.03241
639.02711	0.03277
637.74134	0.03317
636.45557	0.03356
635.16980	0.03392
633.88403	0.03430
632.59826	0.03481
631.31249	0.03567
630.02673	0.03700
628.74096	0.03817
627.45519	0.03834
626.16942	0.04010
624.88365	0.04297
623.59788	0.04619
622.31211	0.04971
621.02634	0.05328
619.74057	0.05633
618.45481	0.05864
617.16904	0.06061
615.88327	0.06268
614.59750	0.06494
613.31173	0.06752
612.02596	0.07113
610.74019	0.07674
609.45442	0.08441
608.16866	0.09268
606.88289	0.09981
605.59712	0.10500
604.31135	0.10829
603.02558	0.10995
601.73981	0.11005
600.45404	0.10855
599.16827	0.10555
597.88250	0.10158
596.59674	0.09746
595.31097	0.09382
594.02520	0.09086
592.73943	0.08848
591.45366	0.08662
590.16789	0.08535
588.88212	0.08483
587.59635	0.08513
586.31059	0.08615
585.02482	0.08778
583.73905	0.08992
582.45328	0.09252
581.16751	0.09548
579.88174	0.09867
578.59597	0.10201
577.31020	0.10545
576.02443	0.10894
574.73867	0.11235
573.45290	0.11553
572.16713	0.11854
570.88136	0.12171
569.59559	0.12549
568.30982	0.13008
567.02405	0.13523
565.73828	0.14034
564.45251	0.14464
563.16675	0.14741
561.88098	0.14809
560.59521	0.14642
559.30944	0.14245
558.02367	0.13657
556.73790	0.12941
555.45213	0.12156
554.16636	0.11344
552.88060	0.10538
551.59483	0.09772
550.30906	0.09080
549.02329	0.08483
547.73752	0.07979
546.45175	0.07543
545.16598	0.07151
543.88021	0.06788
542.59444	0.06455
541.30868	0.06160
540.02291	0.05910
538.73714	0.05700
537.45137	0.05518
536.16560	0.05351
534.87983	0.05192
533.59406	0.05045
532.30829	0.04904
531.02253	0.04762
529.73676	0.04615
528.45099	0.04471
527.16522	0.04343
525.87945	0.04239
524.59368	0.04158
523.30791	0.04086
522.02214	0.04010
520.73637	0.03928
519.45061	0.03846
518.16484	0.03771
516.87907	0.03701
515.59330	0.03636
514.30753	0.03580
513.02176	0.03534
511.73599	0.03497
510.45022	0.03458
509.16446	0.03412
507.87869	0.03360
506.59292	0.03307
505.30715	0.03256
504.02138	0.03208
502.73561	0.03160
501.44984	0.03108
500.16407	0.03053
498.87830	0.03005
497.59254	0.02975
496.30677	0.02960
495.02100	0.02947
493.73523	0.02930
492.44946	0.02911
491.16369	0.02899
489.87792	0.02890
488.59215	0.02879
487.30639	0.02863
486.02062	0.02852
484.73485	0.02851
483.44908	0.02864
482.16331	0.02885
480.87754	0.02907
479.59177	0.02925
478.30600	0.02940
477.02023	0.02955
475.73447	0.02973
474.44870	0.02994
473.16293	0.03015
471.87716	0.03032
470.59139	0.03043
469.30562	0.03049
468.01985	0.03048
466.73408	0.03037
465.44832	0.03008
464.16255	0.02962
462.87678	0.02909
461.59101	0.02864
460.30524	0.02830
459.01947	0.02806
457.73370	0.02789
456.44793	0.02773
455.16216	0.02749
453.87640	0.02718
452.59063	0.02685
451.30486	0.02658
450.01909	0.02635
448.73332	0.02613
447.44755	0.02590
446.16178	0.02566
444.87601	0.02542
443.59025	0.02520
442.30448	0.02503
441.01871	0.02492
439.73294	0.02484
438.44717	0.02478
437.16140	0.02474
435.87563	0.02467
434.58986	0.02456
433.30409	0.02442
432.01833	0.02430
430.73256	0.02424
429.44679	0.02421
428.16102	0.02414
426.87525	0.02402
425.58948	0.02389
424.30371	0.02379
423.01794	0.02372
421.73218	0.02361
420.44641	0.02343
419.16064	0.02326
417.87487	0.02317
416.58910	0.02309
415.30333	0.02295
414.01756	0.02277
412.73179	0.02259
411.44602	0.02246
410.16026	0.02238
408.87449	0.02238
407.58872	0.02244
406.30295	0.02258
405.01718	0.02276
403.73141	0.02297
402.44564	0.02314
401.15987	0.02325
399.87411	0.02332
