3997.45528	0.06211
3996.16951	0.06270
3994.88374	0.06300
3993.59798	0.06293
3992.31221	0.06270
3991.02644	0.06262
3989.74067	0.06281
3988.45490	0.06324
3987.16913	0.06380
3985.88336	0.06431
3984.59759	0.06457
3983.31183	0.06439
3982.02606	0.06368
3980.74029	0.06255
3979.45452	0.06128
3978.16875	0.06025
3976.88298	0.05978
3975.59721	0.05991
3974.31144	0.06033
3973.02567	0.06061
3971.73991	0.06058
3970.45414	0.06032
3969.16837	0.05992
3967.88260	0.05947
3966.59683	0.05919
3965.31106	0.05936
3964.02529	0.06001
3962.73952	0.06085
3961.45376	0.06150
3960.16799	0.06174
3958.88222	0.06149
3957.59645	0.06073
3956.31068	0.05971
3955.02491	0.05899
3953.73914	0.05903
3952.45337	0.05973
3951.16760	0.06045
3949.88184	0.06071
3948.59607	0.06051
3947.31030	0.06010
3946.02453	0.05968
3944.73876	0.05923
3943.45299	0.05873
3942.16722	0.05836
3940.88145	0.05830
3939.59569	0.05855
3938.30992	0.05878
3937.02415	0.05868
3935.73838	0.05826
3934.45261	0.05783
3933.16684	0.05769
3931.88107	0.05793
3930.59530	0.05830
3929.30953	0.05844
3928.02377	0.05810
3926.73800	0.05747
3925.45223	0.05709
3924.16646	0.05733
3922.88069	0.05804
3921.59492	0.05878
3920.30915	0.05928
3919.02338	0.05955
3917.73762	0.05966
3916.45185	0.05961
3915.16608	0.05947
3913.88031	0.05935
3912.59454	0.05935
3911.30877	0.05939
3910.02300	0.05935
3908.73723	0.05913
3907.45146	0.05874
3906.16570	0.05823
3904.87993	0.05772
3903.59416	0.05735
3902.30839	0.05715
3901.02262	0.05697
3899.73685	0.05665
3898.45108	0.05621
3897.16531	0.05586
3895.87955	0.05579
3894.59378	0.05601
3893.30801	0.05643
3892.02224	0.05693
3890.73647	0.05736
3889.45070	0.05753
3888.16493	0.05742
3886.87916	0.05722
3885.59339	0.05705
3884.30763	0.05676
3883.02186	0.05613
3881.73609	0.05524
3880.45032	0.05446
3879.16455	0.05402
3877.87878	0.05390
3876.59301	0.05393
3875.30724	0.05397
3874.02148	0.05396
3872.73571	0.05395
3871.44994	0.05406
3870.16417	0.05434
3868.87840	0.05464
3867.59263	0.05470
3866.30686	0.05438
3865.02109	0.05381
3863.73532	0.05336
3862.44956	0.05341
3861.16379	0.05410
3859.87802	0.05527
3858.59225	0.05649
3857.30648	0.05726
3856.02071	0.05734
3854.73494	0.05685
3853.44917	0.05618
3852.16341	0.05562
3850.87764	0.05531
3849.59187	0.05524
3848.30610	0.05534
3847.02033	0.05549
3845.73456	0.05558
3844.44879	0.05553
3843.16302	0.05538
3841.87725	0.05524
3840.59149	0.05523
3839.30572	0.05533
3838.01995	0.05538
3836.73418	0.05530
3835.44841	0.05517
3834.16264	0.05517
3832.87687	0.05529
3831.59110	0.05530
3830.30534	0.05509
3829.01957	0.05484
3827.73380	0.05479
3826.44803	0.05492
3825.16226	0.05496
3823.87649	0.05477
3822.59072	0.05453
3821.30495	0.05440
3820.01918	0.05435
3818.73342	0.05427
3817.44765	0.05418
3816.16188	0.05423
3814.87611	0.05446
3813.59034	0.05467
3812.30457	0.05470
3811.01880	0.05456
3809.73303	0.05431
3808.44726	0.05387
3807.16150	0.05313
3805.87573	0.05210
3804.58996	0.05102
3803.30419	0.05020
3802.01842	0.04982
3800.73265	0.04986
3799.44688	0.05012
3798.16111	0.05048
3796.87535	0.05104
3795.58958	0.05203
3794.30381	0.05330
3793.01804	0.05431
3791.73227	0.05453
3790.44650	0.05398
3789.16073	0.05312
3787.87496	0.05232
3786.58919	0.05170
3785.30343	0.05127
3784.01766	0.05113
3782.73189	0.05135
3781.44612	0.05173
3780.16035	0.05195
3778.87458	0.05181
3777.58881	0.05130
3776.30304	0.05058
3775.01728	0.04985
3773.73151	0.04943
3772.44574	0.04965
3771.15997	0.05051
3769.87420	0.05154
3768.58843	0.05211
3767.30266	0.05201
3766.01689	0.05161
3764.73112	0.05143
3763.44536	0.05160
3762.15959	0.05185
3760.87382	0.05188
3759.58805	0.05159
3758.30228	0.05106
3757.01651	0.05039
3755.73074	0.04970
3754.44497	0.04915
3753.15921	0.04905
3751.87344	0.04964
3750.58767	0.05081
3749.30190	0.05205
3748.01613	0.05286
3746.73036	0.05311
3745.44459	0.05294
3744.15882	0.05247
3742.87305	0.05176
3741.58729	0.05104
3740.30152	0.05062
3739.01575	0.05075
3737.72998	0.05136
3736.44421	0.05209
3735.15844	0.05258
3733.87267	0.05276
3732.58690	0.05284
3731.30114	0.05295
3730.01537	0.05292
3728.72960	0.05250
3727.44383	0.05171
3726.15806	0.05076
3724.87229	0.04988
3723.58652	0.04921
3722.30075	0.04874
3721.01498	0.04840
3719.72922	0.04818
3718.44345	0.04816
3717.15768	0.04839
3715.87191	0.04876
3714.58614	0.04914
3713.30037	0.04948
3712.01460	0.04981
3710.72883	0.05012
3709.44307	0.05045
3708.15730	0.05083
3706.87153	0.05120
3705.58576	0.05132
3704.29999	0.05102
3703.01422	0.05043
3701.72845	0.04992
3700.44268	0.04967
3699.15691	0.04952
3697.87115	0.04935
3696.58538	0.04920
3695.29961	0.04907
3694.01384	0.04889
3692.72807	0.04870
3691.44230	0.04854
3690.15653	0.04838
3688.87076	0.04823
3687.58500	0.04808
3686.29923	0.04796
3685.01346	0.04812
3683.72769	0.04866
3682.44192	0.04927
3681.15615	0.04950
3679.87038	0.04904
3678.58461	0.04799
3677.29884	0.04697
3676.01308	0.04657
3674.72731	0.04694
3673.44154	0.04774
3672.15577	0.04845
3670.87000	0.04877
3669.58423	0.04865
3668.29846	0.04822
3667.01269	0.04777
3665.72693	0.04760
3664.44116	0.04775
3663.15539	0.04801
3661.86962	0.04813
3660.58385	0.04808
3659.29808	0.04805
3658.01231	0.04817
3656.72654	0.04838
3655.44077	0.04850
3654.15501	0.04844
3652.86924	0.04821
3651.58347	0.04795
3650.29770	0.04787
3649.01193	0.04811
3647.72616	0.04858
3646.44039	0.04895
3645.15462	0.04892
3643.86886	0.04852
3642.58309	0.04806
3641.29732	0.04774
3640.01155	0.04752
3638.72578	0.04733
3637.44001	0.04725
3636.15424	0.04736
3634.86847	0.04762
3633.58270	0.04790
3632.29694	0.04813
3631.01117	0.04830
3629.72540	0.04844
3628.43963	0.04861
3627.15386	0.04888
3625.86809	0.04921
3624.58232	0.04947
3623.29655	0.04954
3622.01079	0.04951
3620.72502	0.04946
3619.43925	0.04945
3618.15348	0.04945
3616.86771	0.04952
3615.58194	0.04976
3614.29617	0.05016
3613.01040	0.05051
3611.72463	0.05053
3610.43887	0.05013
3609.15310	0.04946
3607.86733	0.04882
3606.58156	0.04848
3605.29579	0.04851
3604.01002	0.04873
3602.72425	0.04884
3601.43848	0.04878
3600.15272	0.04870
3598.86695	0.04873
3597.58118	0.04890
3596.29541	0.04925
3595.00964	0.04976
3593.72387	0.05018
3592.43810	0.05023
3591.15233	0.04995
3589.86656	0.04968
3588.58080	0.04975
3587.29503	0.05018
3586.00926	0.05065
3584.72349	0.05088
3583.43772	0.05094
3582.15195	0.05099
3580.86618	0.05108
3579.58041	0.05118
3578.29464	0.05114
3577.00888	0.05087
3575.72311	0.05050
3574.43734	0.05023
3573.15157	0.05013
3571.86580	0.05015
3570.58003	0.05020
3569.29426	0.05025
3568.00849	0.05032
3566.72273	0.05039
3565.43696	0.05037
3564.15119	0.05011
3562.86542	0.04954
3561.57965	0.04885
3560.29388	0.04843
3559.00811	0.04862
3557.72234	0.04945
3556.43657	0.05055
3555.15081	0.05139
3553.86504	0.05168
3552.57927	0.05149
3551.29350	0.05113
3550.00773	0.05090
3548.72196	0.05088
3547.43619	0.05098
3546.15042	0.05103
3544.86466	0.05089
3543.57889	0.05053
3542.29312	0.05005
3541.00735	0.04973
3539.72158	0.04982
3538.43581	0.05025
3537.15004	0.05065
3535.86427	0.05070
3534.57850	0.05050
3533.29274	0.05038
3532.00697	0.05056
3530.72120	0.05095
3529.43543	0.05119
3528.14966	0.05098
3526.86389	0.05036
3525.57812	0.04984
3524.29235	0.04998
3523.00659	0.05088
3521.72082	0.05195
3520.43505	0.05247
3519.14928	0.05214
3517.86351	0.05126
3516.57774	0.05042
3515.29197	0.05010
3514.00620	0.05043
3512.72043	0.05118
3511.43467	0.05195
3510.14890	0.05241
3508.86313	0.05252
3507.57736	0.05238
3506.29159	0.05214
3505.00582	0.05188
3503.72005	0.05166
3502.43428	0.05159
3501.14852	0.05171
3499.86275	0.05195
3498.57698	0.05214
3497.29121	0.05210
3496.00544	0.05182
3494.71967	0.05148
3493.43390	0.05130
3492.14813	0.05132
3490.86236	0.05138
3489.57660	0.05126
3488.29083	0.05092
3487.00506	0.05051
3485.71929	0.05023
3484.43352	0.05022
3483.14775	0.05052
3481.86198	0.05110
3480.57621	0.05180
3479.29045	0.05237
3478.00468	0.05253
3476.71891	0.05230
3475.43314	0.05201
3474.14737	0.05203
3472.86160	0.05242
3471.57583	0.05289
3470.29006	0.05318
3469.00429	0.05317
3467.71853	0.05292
3466.43276	0.05261
3465.14699	0.05248
3463.86122	0.05265
3462.57545	0.05304
3461.28968	0.05341
3460.00391	0.05360
3458.71814	0.05361
3457.43238	0.05352
3456.14661	0.05342
3454.86084	0.05336
3453.57507	0.05338
3452.28930	0.05345
3451.00353	0.05349
3449.71776	0.05344
3448.43199	0.05327
3447.14622	0.05299
3445.86046	0.05272
3444.57469	0.05259
3443.28892	0.05270
3442.00315	0.05298
3440.71738	0.05323
3439.43161	0.05327
3438.14584	0.05311
3436.86007	0.05301
3435.57431	0.05325
3434.28854	0.05371
3433.00277	0.05393
3431.71700	0.05358
3430.43123	0.05291
3429.14546	0.05249
3427.85969	0.05263
3426.57392	0.05312
3425.28815	0.05356
3424.00239	0.05377
3422.71662	0.05385
3421.43085	0.05391
3420.14508	0.05389
3418.85931	0.05369
3417.57354	0.05336
3416.28777	0.05297
3415.00200	0.05268
3413.71624	0.05261
3412.43047	0.05282
3411.14470	0.05313
3409.85893	0.05330
3408.57316	0.05337
3407.28739	0.05362
3406.00162	0.05419
3404.71585	0.05477
3403.43008	0.05498
3402.14432	0.05481
3400.85855	0.05456
3399.57278	0.05446
3398.28701	0.05446
3397.00124	0.05445
3395.71547	0.05445
3394.42970	0.05458
3393.14393	0.05485
3391.85817	0.05510
3390.57240	0.05523
3389.28663	0.05526
3388.00086	0.05533
3386.71509	0.05551
3385.42932	0.05579
3384.14355	0.05611
3382.85778	0.05637
3381.57201	0.05650
3380.28625	0.05653
3379.00048	0.05644
3377.71471	0.05617
3376.42894	0.05567
3375.14317	0.05508
3373.85740	0.05465
3372.57163	0.05457
3371.28586	0.05476
3370.00010	0.05500
3368.71433	0.05519
3367.42856	0.05545
3366.14279	0.05584
3364.85702	0.05627
3363.57125	0.05651
3362.28548	0.05653
3360.99971	0.05646
3359.71394	0.05635
3358.42818	0.05611
3357.14241	0.05574
3355.85664	0.05542
3354.57087	0.05532
3353.28510	0.05538
3351.99933	0.05542
3350.71356	0.05538
3349.42779	0.05537
3348.14202	0.05549
3346.85626	0.05573
3345.57049	0.05606
3344.28472	0.05640
3342.99895	0.05663
3341.71318	0.05665
3340.42741	0.05648
3339.14164	0.05623
3337.85587	0.05611
3336.57011	0.05621
3335.28434	0.05650
3333.99857	0.05684
3332.71280	0.05705
3331.42703	0.05706
3330.14126	0.05694
3328.85549	0.05684
3327.56972	0.05688
3326.28395	0.05710
3324.99819	0.05737
3323.71242	0.05753
3322.42665	0.05757
3321.14088	0.05757
3319.85511	0.05770
3318.56934	0.05794
3317.28357	0.05815
3315.99780	0.05820
3314.71204	0.05807
3313.42627	0.05783
3312.14050	0.05748
3310.85473	0.05702
3309.56896	0.05659
3308.28319	0.05644
3306.99742	0.05672
3305.71165	0.05727
3304.42588	0.05782
3303.14012	0.05811
3301.85435	0.05807
3300.56858	0.05781
3299.28281	0.05744
3297.99704	0.05706
3296.71127	0.05676
3295.42550	0.05668
3294.13973	0.05689
3292.85397	0.05717
3291.56820	0.05715
3290.28243	0.05667
3288.99666	0.05601
3287.71089	0.05560
3286.42512	0.05572
3285.13935	0.05628
3283.85358	0.05694
3282.56781	0.05740
3281.28205	0.05754
3279.99628	0.05748
3278.71051	0.05748
3277.42474	0.05766
3276.13897	0.05790
3274.85320	0.05798
3273.56743	0.05783
3272.28166	0.05761
3270.99590	0.05753
3269.71013	0.05762
3268.42436	0.05772
3267.13859	0.05767
3265.85282	0.05751
3264.56705	0.05742
3263.28128	0.05751
3261.99551	0.05769
3260.70974	0.05778
3259.42398	0.05765
3258.13821	0.05728
3256.85244	0.05678
3255.56667	0.05628
3254.28090	0.05589
3252.99513	0.05563
3251.70936	0.05547
3250.42359	0.05537
3249.13783	0.05539
3247.85206	0.05558
3246.56629	0.05590
3245.28052	0.05612
3243.99475	0.05603
3242.70898	0.05559
3241.42321	0.05499
3240.13744	0.05454
3238.85167	0.05441
3237.56591	0.05456
3236.28014	0.05472
3234.99437	0.05474
3233.70860	0.05471
3232.42283	0.05485
3231.13706	0.05523
3229.85129	0.05571
3228.56552	0.05606
3227.27976	0.05622
3225.99399	0.05623
3224.70822	0.05609
3223.42245	0.05581
3222.13668	0.05547
3220.85091	0.05521
3219.56514	0.05505
3218.27937	0.05493
3216.99360	0.05487
3215.70784	0.05490
3214.42207	0.05502
3213.13630	0.05510
3211.85053	0.05501
3210.56476	0.05475
3209.27899	0.05440
3207.99322	0.05408
3206.70745	0.05388
3205.42169	0.05387
3204.13592	0.05401
3202.85015	0.05423
3201.56438	0.05448
3200.27861	0.05472
3198.99284	0.05491
3197.70707	0.05497
3196.42130	0.05482
3195.13553	0.05446
3193.84977	0.05398
3192.56400	0.05361
3191.27823	0.05356
3189.99246	0.05382
3188.70669	0.05420
3187.42092	0.05448
3186.13515	0.05453
3184.84938	0.05437
3183.56362	0.05409
3182.27785	0.05371
3180.99208	0.05326
3179.70631	0.05284
3178.42054	0.05269
3177.13477	0.05285
3175.84900	0.05313
3174.56323	0.05328
3173.27746	0.05326
3171.99170	0.05321
3170.70593	0.05321
3169.42016	0.05319
3168.13439	0.05305
3166.84862	0.05280
3165.56285	0.05259
3164.27708	0.05254
3162.99131	0.05265
3161.70555	0.05281
3160.41978	0.05294
3159.13401	0.05303
3157.84824	0.05311
3156.56247	0.05321
3155.27670	0.05336
3153.99093	0.05351
3152.70516	0.05350
3151.41939	0.05324
3150.13363	0.05280
3148.84786	0.05240
3147.56209	0.05216
3146.27632	0.05202
3144.99055	0.05190
3143.70478	0.05185
3142.41901	0.05192
3141.13324	0.05209
3139.84748	0.05218
3138.56171	0.05200
3137.27594	0.05160
3135.99017	0.05123
3134.70440	0.05114
3133.41863	0.05133
3132.13286	0.05157
3130.84709	0.05165
3129.56132	0.05154
3128.27556	0.05131
3126.98979	0.05105
3125.70402	0.05085
3124.41825	0.05081
3123.13248	0.05093
3121.84671	0.05106
3120.56094	0.05100
3119.27517	0.05066
3117.98940	0.05016
3116.70364	0.04976
3115.41787	0.04966
3114.13210	0.04986
3112.84633	0.05013
3111.56056	0.05026
3110.27479	0.05027
3108.98902	0.05035
3107.70325	0.05062
3106.41749	0.05087
3105.13172	0.05081
3103.84595	0.05041
3102.56018	0.04991
3101.27441	0.04963
3099.98864	0.04959
3098.70287	0.04958
3097.41710	0.04946
3096.13133	0.04932
3094.84557	0.04934
3093.55980	0.04958
3092.27403	0.04992
3090.98826	0.05020
3089.70249	0.05033
3088.41672	0.05036
3087.13095	0.05038
3085.84518	0.05043
3084.55942	0.05044
3083.27365	0.05031
3081.98788	0.05005
3080.70211	0.04976
3079.41634	0.04960
3078.13057	0.04969
3076.84480	0.05000
3075.55903	0.05041
3074.27326	0.05072
3072.98750	0.05082
3071.70173	0.05074
3070.41596	0.05059
3069.13019	0.05037
3067.84442	0.04997
3066.55865	0.04934
3065.27288	0.04867
3063.98711	0.04825
3062.70135	0.04819
3061.41558	0.04836
3060.12981	0.04854
3058.84404	0.04866
3057.55827	0.04875
3056.27250	0.04886
3054.98673	0.04902
3053.70096	0.04920
3052.41519	0.04927
3051.12943	0.04913
3049.84366	0.04876
3048.55789	0.04830
3047.27212	0.04794
3045.98635	0.04779
3044.70058	0.04785
3043.41481	0.04803
3042.12904	0.04825
3040.84328	0.04838
3039.55751	0.04829
3038.27174	0.04799
3036.98597	0.04764
3035.70020	0.04745
3034.41443	0.04745
3033.12866	0.04748
3031.84289	0.04739
3030.55712	0.04717
3029.27136	0.04695
3027.98559	0.04681
3026.69982	0.04673
3025.41405	0.04660
3024.12828	0.04641
3022.84251	0.04623
3021.55674	0.04615
3020.27097	0.04613
3018.98521	0.04607
3017.69944	0.04592
3016.41367	0.04573
3015.12790	0.04562
3013.84213	0.04564
3012.55636	0.04572
3011.27059	0.04573
3009.98482	0.04561
3008.69905	0.04541
3007.41329	0.04522
3006.12752	0.04513
3004.84175	0.04522
3003.55598	0.04548
3002.27021	0.04580
3000.98444	0.04598
2999.69867	0.04588
2998.41290	0.04556
2997.12714	0.04532
2995.84137	0.04532
2994.55560	0.04542
2993.26983	0.04539
2991.98406	0.04515
2990.69829	0.04488
2989.41252	0.04479
2988.12675	0.04499
2986.84098	0.04547
2985.55522	0.04609
2984.26945	0.04663
2982.98368	0.04692
2981.69791	0.04700
2980.41214	0.04707
2979.12637	0.04733
2977.84060	0.04776
2976.55483	0.04817
2975.26907	0.04843
2973.98330	0.04860
2972.69753	0.04891
2971.41176	0.04946
2970.12599	0.05012
2968.84022	0.05078
2967.55445	0.05149
2966.26868	0.05241
2964.98291	0.05350
2963.69715	0.05455
2962.41138	0.05540
2961.12561	0.05611
2959.83984	0.05684
2958.55407	0.05762
2957.26830	0.05835
2955.98253	0.05893
2954.69676	0.05932
2953.41100	0.05950
2952.12523	0.05947
2950.83946	0.05934
2949.55369	0.05926
2948.26792	0.05927
2946.98215	0.05928
2945.69638	0.05924
2944.41061	0.05916
2943.12484	0.05914
2941.83908	0.05925
2940.55331	0.05951
2939.26754	0.05993
2937.98177	0.06054
2936.69600	0.06130
2935.41023	0.06212
2934.12446	0.06287
2932.83869	0.06351
2931.55293	0.06409
2930.26716	0.06472
2928.98139	0.06539
2927.69562	0.06600
2926.40985	0.06647
2925.12408	0.06680
2923.83831	0.06705
2922.55254	0.06715
2921.26677	0.06702
2919.98101	0.06670
2918.69524	0.06629
2917.40947	0.06587
2916.12370	0.06538
2914.83793	0.06479
2913.55216	0.06421
2912.26639	0.06374
2910.98062	0.06337
2909.69486	0.06301
2908.40909	0.06264
2907.12332	0.06224
2905.83755	0.06187
2904.55178	0.06159
2903.26601	0.06143
2901.98024	0.06131
2900.69447	0.06107
2899.40870	0.06058
2898.12294	0.05990
2896.83717	0.05922
2895.55140	0.05870
2894.26563	0.05836
2892.97986	0.05807
2891.69409	0.05766
2890.40832	0.05705
2889.12255	0.05635
2887.83678	0.05575
2886.55102	0.05536
2885.26525	0.05515
2883.97948	0.05499
2882.69371	0.05481
2881.40794	0.05477
2880.12217	0.05499
2878.83640	0.05543
2877.55063	0.05582
2876.26487	0.05598
2874.97910	0.05598
2873.69333	0.05606
2872.40756	0.05631
2871.12179	0.05667
2869.83602	0.05702
2868.55025	0.05730
2867.26448	0.05750
2865.97871	0.05763
2864.69295	0.05771
2863.40718	0.05782
2862.12141	0.05797
2860.83564	0.05808
2859.54987	0.05803
2858.26410	0.05785
2856.97833	0.05769
2855.69256	0.05765
2854.40680	0.05766
2853.12103	0.05760
2851.83526	0.05746
2850.54949	0.05724
2849.26372	0.05690
2847.97795	0.05643
2846.69218	0.05593
2845.40641	0.05544
2844.12064	0.05497
2842.83488	0.05456
2841.54911	0.05423
2840.26334	0.05384
2838.97757	0.05317
2837.69180	0.05217
2836.40603	0.05108
2835.12026	0.05028
2833.83449	0.04992
2832.54873	0.04993
2831.26296	0.05000
2829.97719	0.04985
2828.69142	0.04938
2827.40565	0.04869
2826.11988	0.04802
2824.83411	0.04756
2823.54834	0.04733
2822.26257	0.04723
2820.97681	0.04713
2819.69104	0.04695
2818.40527	0.04670
2817.11950	0.04643
2815.83373	0.04620
2814.54796	0.04597
2813.26219	0.04567
2811.97642	0.04531
2810.69066	0.04494
2809.40489	0.04462
2808.11912	0.04435
2806.83335	0.04410
2805.54758	0.04396
2804.26181	0.04401
2802.97604	0.04424
2801.69027	0.04450
2800.40450	0.04464
2799.11874	0.04456
2797.83297	0.04428
2796.54720	0.04393
2795.26143	0.04369
2793.97566	0.04369
2792.68989	0.04384
2791.40412	0.04395
2790.11835	0.04394
2788.83259	0.04390
2787.54682	0.04389
2786.26105	0.04385
2784.97528	0.04360
2783.68951	0.04313
2782.40374	0.04263
2781.11797	0.04232
2779.83220	0.04230
2778.54643	0.04241
2777.26067	0.04249
2775.97490	0.04249
2774.68913	0.04248
2773.40336	0.04250
2772.11759	0.04253
2770.83182	0.04244
2769.54605	0.04219
2768.26028	0.04183
2766.97452	0.04154
2765.68875	0.04142
2764.40298	0.04141
2763.11721	0.04140
2761.83144	0.04136
2760.54567	0.04138
2759.25990	0.04152
2757.97413	0.04174
2756.68836	0.04191
2755.40260	0.04203
2754.11683	0.04215
2752.83106	0.04225
2751.54529	0.04222
2750.25952	0.04200
2748.97375	0.04171
2747.68798	0.04154
2746.40221	0.04152
2745.11645	0.04154
2743.83068	0.04148
2742.54491	0.04136
2741.25914	0.04127
2739.97337	0.04126
2738.68760	0.04123
2737.40183	0.04111
2736.11606	0.04093
2734.83029	0.04081
2733.54453	0.04077
2732.25876	0.04076
2730.97299	0.04066
2729.68722	0.04051
2728.40145	0.04040
2727.11568	0.04045
2725.82991	0.04065
2724.54414	0.04092
2723.25838	0.04108
2721.97261	0.04103
2720.68684	0.04080
2719.40107	0.04053
2718.11530	0.04030
2716.82953	0.04011
2715.54376	0.03989
2714.25799	0.03964
2712.97222	0.03943
2711.68646	0.03933
2710.40069	0.03929
2709.11492	0.03923
2707.82915	0.03907
2706.54338	0.03884
2705.25761	0.03865
2703.97184	0.03860
2702.68607	0.03865
2701.40031	0.03873
2700.11454	0.03873
2698.82877	0.03867
2697.54300	0.03860
2696.25723	0.03860
2694.97146	0.03869
2693.68569	0.03886
2692.39992	0.03905
2691.11415	0.03921
2689.82839	0.03930
2688.54262	0.03928
2687.25685	0.03922
2685.97108	0.03917
2684.68531	0.03922
2683.39954	0.03931
2682.11377	0.03935
2680.82800	0.03925
2679.54224	0.03907
2678.25647	0.03889
2676.97070	0.03878
2675.68493	0.03868
2674.39916	0.03852
2673.11339	0.03833
2671.82762	0.03823
2670.54185	0.03830
2669.25608	0.03848
2667.97032	0.03866
2666.68455	0.03875
2665.39878	0.03874
2664.11301	0.03867
2662.82724	0.03856
2661.54147	0.03844
2660.25570	0.03836
2658.96993	0.03828
2657.68417	0.03816
2656.39840	0.03797
2655.11263	0.03777
2653.82686	0.03761
2652.54109	0.03746
2651.25532	0.03725
2649.96955	0.03697
2648.68378	0.03671
2647.39801	0.03652
2646.11225	0.03643
2644.82648	0.03639
2643.54071	0.03637
2642.25494	0.03635
2640.96917	0.03626
2639.68340	0.03607
2638.39763	0.03579
2637.11186	0.03555
2635.82609	0.03543
2634.54033	0.03546
2633.25456	0.03560
2631.96879	0.03578
2630.68302	0.03586
2629.39725	0.03576
2628.11148	0.03552
2626.82571	0.03530
2625.53994	0.03512
2624.25418	0.03489
2622.96841	0.03459
2621.68264	0.03438
2620.39687	0.03436
2619.11110	0.03442
2617.82533	0.03440
2616.53956	0.03430
2615.25379	0.03423
2613.96802	0.03424
2612.68226	0.03425
2611.39649	0.03414
2610.11072	0.03391
2608.82495	0.03371
2607.53918	0.03373
2606.25341	0.03394
2604.96764	0.03413
2603.68187	0.03415
2602.39611	0.03404
2601.11034	0.03401
2599.82457	0.03407
2598.53880	0.03411
2597.25303	0.03397
2595.96726	0.03363
2594.68149	0.03324
2593.39572	0.03300
2592.10995	0.03296
2590.82419	0.03297
2589.53842	0.03291
2588.25265	0.03277
2586.96688	0.03266
2585.68111	0.03261
2584.39534	0.03265
2583.10957	0.03277
2581.82380	0.03289
2580.53804	0.03296
2579.25227	0.03302
2577.96650	0.03304
2576.68073	0.03293
2575.39496	0.03255
2574.10919	0.03199
2572.82342	0.03152
2571.53765	0.03132
2570.25188	0.03135
2568.96612	0.03146
2567.68035	0.03154
2566.39458	0.03161
2565.10881	0.03165
2563.82304	0.03162
2562.53727	0.03154
2561.25150	0.03150
2559.96573	0.03145
2558.67997	0.03120
2557.39420	0.03068
2556.10843	0.03010
2554.82266	0.02973
2553.53689	0.02961
2552.25112	0.02969
2550.96535	0.02995
2549.67958	0.03038
2548.39381	0.03085
2547.10805	0.03114
2545.82228	0.03112
2544.53651	0.03078
2543.25074	0.03025
2541.96497	0.02972
2540.67920	0.02934
2539.39343	0.02919
2538.10766	0.02929
2536.82190	0.02956
2535.53613	0.02985
2534.25036	0.03004
2532.96459	0.03009
2531.67882	0.02999
2530.39305	0.02980
2529.10728	0.02963
2527.82151	0.02963
2526.53574	0.02988
2525.24998	0.03035
2523.96421	0.03087
2522.67844	0.03120
2521.39267	0.03116
2520.10690	0.03082
2518.82113	0.03045
2517.53536	0.03023
2516.24959	0.03014
2514.96383	0.03006
2513.67806	0.02991
2512.39229	0.02973
2511.10652	0.02959
2509.82075	0.02952
2508.53498	0.02950
2507.24921	0.02952
2505.96344	0.02963
2504.67767	0.02986
2503.39191	0.03011
2502.10614	0.03021
2500.82037	0.03009
2499.53460	0.02982
2498.24883	0.02949
2496.96306	0.02911
2495.67729	0.02870
2494.39152	0.02841
2493.10576	0.02843
2491.81999	0.02874
2490.53422	0.02908
2489.24845	0.02912
2487.96268	0.02887
2486.67691	0.02860
2485.39114	0.02848
2484.10537	0.02850
2482.81960	0.02855
2481.53384	0.02862
2480.24807	0.02877
2478.96230	0.02900
2477.67653	0.02922
2476.39076	0.02933
2475.10499	0.02930
2473.81922	0.02911
2472.53345	0.02878
2471.24769	0.02838
2469.96192	0.02804
2468.67615	0.02789
2467.39038	0.02798
2466.10461	0.02831
2464.81884	0.02877
2463.53307	0.02917
2462.24730	0.02925
2460.96153	0.02899
2459.67577	0.02856
2458.39000	0.02822
2457.10423	0.02807
2455.81846	0.02814
2454.53269	0.02841
2453.24692	0.02873
2451.96115	0.02887
2450.67538	0.02872
2449.38962	0.02835
2448.10385	0.02798
2446.81808	0.02779
2445.53231	0.02785
2444.24654	0.02818
2442.96077	0.02862
2441.67500	0.02892
2440.38923	0.02890
2439.10346	0.02855
2437.81770	0.02810
2436.53193	0.02783
2435.24616	0.02778
2433.96039	0.02780
2432.67462	0.02779
2431.38885	0.02788
2430.10308	0.02815
2428.81731	0.02835
2427.53155	0.02821
2426.24578	0.02781
2424.96001	0.02747
2423.67424	0.02731
2422.38847	0.02725
2421.10270	0.02731
2419.81693	0.02761
2418.53116	0.02803
2417.24539	0.02821
2415.95963	0.02798
2414.67386	0.02758
2413.38809	0.02735
2412.10232	0.02738
2410.81655	0.02752
2409.53078	0.02760
2408.24501	0.02761
2406.95924	0.02762
2405.67347	0.02774
2404.38771	0.02801
2403.10194	0.02837
2401.81617	0.02869
2400.53040	0.02880
2399.24463	0.02862
2397.95886	0.02828
2396.67309	0.02790
2395.38732	0.02757
2394.10156	0.02736
2392.81579	0.02729
2391.53002	0.02738
2390.24425	0.02756
2388.95848	0.02775
2387.67271	0.02792
2386.38694	0.02805
2385.10117	0.02809
2383.81540	0.02799
2382.52964	0.02777
2381.24387	0.02757
2379.95810	0.02753
2378.67233	0.02758
2377.38656	0.02758
2376.10079	0.02747
2374.81502	0.02731
2373.52925	0.02735
2372.24349	0.02762
2370.95772	0.02802
2369.67195	0.02813
2368.38618	0.02797
2367.10041	0.02778
2365.81464	0.02781
2364.52887	0.02777
2363.24310	0.02774
2361.95733	0.02797
2360.67157	0.02867
2359.38580	0.02920
2358.10003	0.02931
2356.81426	0.02908
2355.52849	0.02874
2354.24272	0.02843
2352.95695	0.02823
2351.67118	0.02840
2350.38542	0.02875
2349.09965	0.02870
2347.81388	0.02826
2346.52811	0.02835
2345.24234	0.02877
2343.95657	0.02847
2342.67080	0.02745
2341.38503	0.02744
2340.09926	0.02850
2338.81350	0.02830
2337.52773	0.02693
2336.24196	0.02735
2334.95619	0.02907
2333.67042	0.02895
2332.38465	0.02757
2331.09888	0.02822
2329.81311	0.02898
2328.52735	0.02770
2327.24158	0.02809
2325.95581	0.02952
2324.67004	0.02903
2323.38427	0.02877
2322.09850	0.02928
2320.81273	0.02833
2319.52696	0.02804
2318.24119	0.02837
2316.95543	0.02778
2315.66966	0.02764
2314.38389	0.02770
2313.09812	0.02728
2311.81235	0.02733
2310.52658	0.02727
2309.24081	0.02715
2307.95504	0.02710
2306.66928	0.02661
2305.38351	0.02617
2304.09774	0.02588
2302.81197	0.02579
2301.52620	0.02600
2300.24043	0.02612
2298.95466	0.02606
2297.66889	0.02573
2296.38312	0.02531
2295.09736	0.02508
2293.81159	0.02507
2292.52582	0.02518
2291.24005	0.02518
2289.95428	0.02505
2288.66851	0.02489
2287.38274	0.02479
2286.09697	0.02476
2284.81121	0.02475
2283.52544	0.02470
2282.23967	0.02449
2280.95390	0.02416
2279.66813	0.02380
2278.38236	0.02357
2277.09659	0.02351
2275.81082	0.02351
2274.52505	0.02347
2273.23929	0.02334
2271.95352	0.02314
2270.66775	0.02292
2269.38198	0.02271
2268.09621	0.02253
2266.81044	0.02244
2265.52467	0.02238
2264.23890	0.02219
2262.95314	0.02186
2261.66737	0.02156
2260.38160	0.02144
2259.09583	0.02154
2257.81006	0.02174
2256.52429	0.02184
2255.23852	0.02173
2253.95275	0.02138
2252.66698	0.02083
2251.38122	0.02023
2250.09545	0.01983
2248.80968	0.01981
2247.52391	0.02012
2246.23814	0.02060
2244.95237	0.02117
2243.66660	0.02178
2242.38083	0.02224
2241.09507	0.02233
2239.80930	0.02199
2238.52353	0.02135
2237.23776	0.02059
2235.95199	0.02000
2234.66622	0.01979
2233.38045	0.01991
2232.09468	0.01999
2230.80891	0.01963
2229.52315	0.01878
2228.23738	0.01775
2226.95161	0.01708
2225.66584	0.01712
2224.38007	0.01780
2223.09430	0.01862
2221.80853	0.01910
2220.52276	0.01910
2219.23700	0.01877
2217.95123	0.01833
2216.66546	0.01796
2215.37969	0.01783
2214.09392	0.01798
2212.80815	0.01823
2211.52238	0.01832
2210.23661	0.01806
2208.95084	0.01753
2207.66508	0.01712
2206.37931	0.01717
2205.09354	0.01763
2203.80777	0.01800
2202.52200	0.01781
2201.23623	0.01712
2199.95046	0.01645
2198.66469	0.01624
2197.37893	0.01642
2196.09316	0.01649
2194.80739	0.01611
2193.52162	0.01538
2192.23585	0.01472
2190.95008	0.01461
2189.66431	0.01518
2188.37854	0.01607
2187.09277	0.01667
2185.80701	0.01669
2184.52124	0.01644
2183.23547	0.01634
2181.94970	0.01627
2180.66393	0.01583
2179.37816	0.01494
2178.09239	0.01405
2176.80662	0.01361
2175.52085	0.01367
2174.23509	0.01391
2172.94932	0.01405
2171.66355	0.01402
2170.37778	0.01382
2169.09201	0.01344
2167.80624	0.01296
2166.52047	0.01254
2165.23470	0.01221
2163.94894	0.01184
2162.66317	0.01127
2161.37740	0.01050
2160.09163	0.00969
2158.80586	0.00907
2157.52009	0.00873
2156.23432	0.00861
2154.94855	0.00859
2153.66278	0.00880
2152.37702	0.00961
2151.09125	0.01108
2149.80548	0.01267
2148.51971	0.01360
2147.23394	0.01368
2145.94817	0.01358
2144.66240	0.01396
2143.37663	0.01466
2142.09087	0.01496
2140.80510	0.01454
2139.51933	0.01387
2138.23356	0.01349
2136.94779	0.01348
2135.66202	0.01361
2134.37625	0.01389
2133.09048	0.01442
2131.80471	0.01502
2130.51895	0.01537
2129.23318	0.01550
2127.94741	0.01576
2126.66164	0.01639
2125.37587	0.01712
2124.09010	0.01763
2122.80433	0.01792
2121.51856	0.01821
2120.23280	0.01851
2118.94703	0.01862
2117.66126	0.01845
2116.37549	0.01808
2115.08972	0.01772
2113.80395	0.01750
2112.51818	0.01743
2111.23241	0.01742
2109.94664	0.01726
2108.66088	0.01691
2107.37511	0.01655
2106.08934	0.01644
2104.80357	0.01673
2103.51780	0.01727
2102.23203	0.01758
2100.94626	0.01730
2099.66049	0.01625
2098.37473	0.01549
2097.08896	0.01528
2095.80319	0.01527
2094.51742	0.01512
2093.23165	0.01486
2091.94588	0.01476
2090.66011	0.01494
2089.37434	0.01520
2088.08857	0.01531
2086.80281	0.01524
2085.51704	0.01519
2084.23127	0.01534
2082.94550	0.01564
2081.65973	0.01580
2080.37396	0.01562
2079.08819	0.01525
2077.80242	0.01505
2076.51666	0.01512
2075.23089	0.01511
2073.94512	0.01468
2072.65935	0.01395
2071.37358	0.01332
2070.08781	0.01298
2068.80204	0.01287
2067.51627	0.01297
2066.23050	0.01337
2064.94474	0.01399
2063.65897	0.01448
2062.37320	0.01465
2061.08743	0.01465
2059.80166	0.01472
2058.51589	0.01480
2057.23012	0.01466
2055.94435	0.01418
2054.65859	0.01355
2053.37282	0.01300
2052.08705	0.01258
2050.80128	0.01222
2049.51551	0.01178
2048.22974	0.01115
2046.94397	0.01025
2045.65820	0.00925
2044.37243	0.00846
2043.08667	0.00813
2041.80090	0.00820
2040.51513	0.00832
2039.22936	0.00818
2037.94359	0.00776
2036.65782	0.00734
2035.37205	0.00723
2034.08628	0.00759
2032.80052	0.00827
2031.51475	0.00880
2030.22898	0.00875
2028.94321	0.00818
2027.65744	0.00774
2026.37167	0.00808
2025.08590	0.00920
2023.80013	0.01045
2022.51436	0.01109
2021.22860	0.01084
2019.94283	0.00996
2018.65706	0.00902
2017.37129	0.00853
2016.08552	0.00870
2014.79975	0.00934
2013.51398	0.01007
2012.22821	0.01048
2010.94245	0.01037
2009.65668	0.00985
2008.37091	0.00922
2007.08514	0.00882
2005.79937	0.00876
2004.51360	0.00884
2003.22783	0.00874
2001.94206	0.00843
2000.65629	0.00823
1999.37053	0.00846
1998.08476	0.00921
1996.79899	0.01035
1995.51322	0.01166
1994.22745	0.01283
1992.94168	0.01345
1991.65591	0.01333
1990.37014	0.01275
1989.08438	0.01232
1987.79861	0.01248
1986.51284	0.01313
1985.22707	0.01369
1983.94130	0.01356
1982.65553	0.01266
1981.36976	0.01153
1980.08399	0.01081
1978.79822	0.01055
1977.51246	0.01025
1976.22669	0.00957
1974.94092	0.00880
1973.65515	0.00846
1972.36938	0.00863
1971.08361	0.00898
1969.79784	0.00927
1968.51207	0.00965
1967.22631	0.01037
1965.94054	0.01146
1964.65477	0.01255
1963.36900	0.01314
1962.08323	0.01305
1960.79746	0.01258
1959.51169	0.01222
1958.22592	0.01215
1956.94015	0.01212
1955.65439	0.01184
1954.36862	0.01133
1953.08285	0.01090
1951.79708	0.01084
1950.51131	0.01116
1949.22554	0.01165
1947.93977	0.01203
1946.65400	0.01229
1945.36823	0.01257
1944.08247	0.01297
1942.79670	0.01337
1941.51093	0.01366
1940.22516	0.01390
1938.93939	0.01423
1937.65362	0.01459
1936.36785	0.01481
1935.08208	0.01473
1933.79632	0.01446
1932.51055	0.01424
1931.22478	0.01433
1929.93901	0.01477
1928.65324	0.01535
1927.36747	0.01582
1926.08170	0.01603
1924.79593	0.01598
1923.51016	0.01569
1922.22440	0.01523
1920.93863	0.01476
1919.65286	0.01452
1918.36709	0.01455
1917.08132	0.01475
1915.79555	0.01503
1914.50978	0.01534
1913.22401	0.01559
1911.93825	0.01560
1910.65248	0.01530
1909.36671	0.01486
1908.08094	0.01461
1906.79517	0.01471
1905.50940	0.01507
1904.22363	0.01543
1902.93786	0.01554
1901.65209	0.01531
1900.36633	0.01488
1899.08056	0.01453
1897.79479	0.01450
1896.50902	0.01478
1895.22325	0.01512
1893.93748	0.01532
1892.65171	0.01532
1891.36594	0.01527
1890.08018	0.01531
1888.79441	0.01550
1887.50864	0.01579
1886.22287	0.01609
1884.93710	0.01630
1883.65133	0.01629
1882.36556	0.01606
1881.07979	0.01574
1879.79402	0.01554
1878.50826	0.01562
1877.22249	0.01596
1875.93672	0.01635
1874.65095	0.01651
1873.36518	0.01634
1872.07941	0.01598
1870.79364	0.01570
1869.50787	0.01569
1868.22211	0.01591
1866.93634	0.01615
1865.65057	0.01628
1864.36480	0.01629
1863.07903	0.01626
1861.79326	0.01625
1860.50749	0.01629
1859.22172	0.01636
1857.93595	0.01639
1856.65019	0.01638
1855.36442	0.01635
1854.07865	0.01637
1852.79288	0.01640
1851.50711	0.01635
1850.22134	0.01620
1848.93557	0.01606
1847.64980	0.01605
1846.36404	0.01612
1845.07827	0.01618
1843.79250	0.01612
1842.50673	0.01600
1841.22096	0.01591
1839.93519	0.01594
1838.64942	0.01611
1837.36365	0.01639
1836.07788	0.01667
1834.79212	0.01686
1833.50635	0.01692
1832.22058	0.01686
1830.93481	0.01674
1829.64904	0.01661
1828.36327	0.01650
1827.07750	0.01641
1825.79173	0.01631
1824.50597	0.01620
1823.22020	0.01607
1821.93443	0.01592
1820.64866	0.01584
1819.36289	0.01586
1818.07712	0.01600
1816.79135	0.01623
1815.50558	0.01654
1814.21981	0.01687
1812.93405	0.01714
1811.64828	0.01729
1810.36251	0.01733
1809.07674	0.01731
1807.79097	0.01727
1806.50520	0.01723
1805.21943	0.01720
1803.93366	0.01717
1802.64790	0.01715
1801.36213	0.01715
1800.07636	0.01719
1798.79059	0.01729
1797.50482	0.01741
1796.21905	0.01749
1794.93328	0.01747
1793.64751	0.01734
1792.36174	0.01716
1791.07598	0.01701
1789.79021	0.01697
1788.50444	0.01698
1787.21867	0.01695
1785.93290	0.01686
1784.64713	0.01676
1783.36136	0.01673
1782.07559	0.01680
1780.78983	0.01688
1779.50406	0.01690
1778.21829	0.01683
1776.93252	0.01670
1775.64675	0.01657
1774.36098	0.01649
1773.07521	0.01647
1771.78944	0.01652
1770.50367	0.01663
1769.21791	0.01680
1767.93214	0.01697
1766.64637	0.01712
1765.36060	0.01722
1764.07483	0.01726
1762.78906	0.01730
1761.50329	0.01732
1760.21752	0.01730
1758.93176	0.01721
1757.64599	0.01709
1756.36022	0.01702
1755.07445	0.01703
1753.78868	0.01707
1752.50291	0.01712
1751.21714	0.01715
1749.93137	0.01718
1748.64560	0.01719
1747.35984	0.01717
1746.07407	0.01713
1744.78830	0.01711
1743.50253	0.01710
1742.21676	0.01706
1740.93099	0.01695
1739.64522	0.01679
1738.35945	0.01666
1737.07369	0.01661
1735.78792	0.01665
1734.50215	0.01674
1733.21638	0.01687
1731.93061	0.01704
1730.64484	0.01719
1729.35907	0.01731
1728.07330	0.01736
1726.78753	0.01738
1725.50177	0.01742
1724.21600	0.01754
1722.93023	0.01771
1721.64446	0.01788
1720.35869	0.01801
1719.07292	0.01808
1717.78715	0.01815
1716.50138	0.01827
1715.21561	0.01845
1713.92985	0.01865
1712.64408	0.01886
1711.35831	0.01909
1710.07254	0.01937
1708.78677	0.01968
1707.50100	0.02002
1706.21523	0.02035
1704.92946	0.02065
1703.64370	0.02092
1702.35793	0.02121
1701.07216	0.02159
1699.78639	0.02207
1698.50062	0.02262
1697.21485	0.02318
1695.92908	0.02373
1694.64331	0.02427
1693.35754	0.02480
1692.07178	0.02533
1690.78601	0.02585
1689.50024	0.02634
1688.21447	0.02678
1686.92870	0.02714
1685.64293	0.02745
1684.35716	0.02778
1683.07139	0.02817
1681.78563	0.02863
1680.49986	0.02914
1679.21409	0.02967
1677.92832	0.03019
1676.64255	0.03069
1675.35678	0.03118
1674.07101	0.03167
1672.78524	0.03216
1671.49947	0.03265
1670.21371	0.03315
1668.92794	0.03364
1667.64217	0.03412
1666.35640	0.03461
1665.07063	0.03513
1663.78486	0.03572
1662.49909	0.03633
1661.21332	0.03692
1659.92756	0.03746
1658.64179	0.03792
1657.35602	0.03827
1656.07025	0.03847
1654.78448	0.03860
1653.49871	0.03877
1652.21294	0.03907
1650.92717	0.03945
1649.64140	0.03979
1648.35564	0.04000
1647.06987	0.04009
1645.78410	0.04016
1644.49833	0.04025
1643.21256	0.04034
1641.92679	0.04042
1640.64102	0.04047
1639.35525	0.04049
1638.06949	0.04045
1636.78372	0.04035
1635.49795	0.04020
1634.21218	0.04004
1632.92641	0.03984
1631.64064	0.03956
1630.35487	0.03920
1629.06910	0.03881
1627.78333	0.03842
1626.49757	0.03804
1625.21180	0.03763
1623.92603	0.03719
1622.64026	0.03675
1621.35449	0.03633
1620.06872	0.03590
1618.78295	0.03544
1617.49718	0.03495
1616.21142	0.03448
1614.92565	0.03407
1613.63988	0.03372
1612.35411	0.03342
1611.06834	0.03314
1609.78257	0.03287
1608.49680	0.03258
1607.21103	0.03227
1605.92526	0.03195
1604.63950	0.03165
1603.35373	0.03138
1602.06796	0.03115
1600.78219	0.03098
1599.49642	0.03087
1598.21065	0.03081
1596.92488	0.03076
1595.63911	0.03070
1594.35335	0.03066
1593.06758	0.03065
1591.78181	0.03067
1590.49604	0.03070
1589.21027	0.03071
1587.92450	0.03071
1586.63873	0.03074
1585.35296	0.03084
1584.06719	0.03097
1582.78143	0.03112
1581.49566	0.03128
1580.20989	0.03145
1578.92412	0.03163
1577.63835	0.03183
1576.35258	0.03206
1575.06681	0.03232
1573.78104	0.03264
1572.49528	0.03300
1571.20951	0.03338
1569.92374	0.03374
1568.63797	0.03408
1567.35220	0.03439
1566.06643	0.03467
1564.78066	0.03491
1563.49489	0.03506
1562.20912	0.03515
1560.92336	0.03522
1559.63759	0.03536
1558.35182	0.03561
1557.06605	0.03595
1555.78028	0.03631
1554.49451	0.03664
1553.20874	0.03690
1551.92297	0.03709
1550.63721	0.03722
1549.35144	0.03733
1548.06567	0.03743
1546.77990	0.03751
1545.49413	0.03756
1544.20836	0.03759
1542.92259	0.03758
1541.63682	0.03754
1540.35105	0.03751
1539.06529	0.03748
1537.77952	0.03746
1536.49375	0.03743
1535.20798	0.03739
1533.92221	0.03737
1532.63644	0.03737
1531.35067	0.03734
1530.06490	0.03727
1528.77914	0.03714
1527.49337	0.03699
1526.20760	0.03683
1524.92183	0.03668
1523.63606	0.03657
1522.35029	0.03656
1521.06452	0.03664
1519.77875	0.03679
1518.49298	0.03697
1517.20722	0.03714
1515.92145	0.03731
1514.63568	0.03750
1513.34991	0.03771
1512.06414	0.03793
1510.77837	0.03815
1509.49260	0.03834
1508.20683	0.03851
1506.92107	0.03866
1505.63530	0.03880
1504.34953	0.03896
1503.06376	0.03915
1501.77799	0.03934
1500.49222	0.03949
1499.20645	0.03957
1497.92068	0.03961
1496.63491	0.03961
1495.34915	0.03961
1494.06338	0.03963
1492.77761	0.03967
1491.49184	0.03973
1490.20607	0.03980
1488.92030	0.03988
1487.63453	0.04000
1486.34876	0.04018
1485.06299	0.04046
1483.77723	0.04082
1482.49146	0.04122
1481.20569	0.04164
1479.91992	0.04208
1478.63415	0.04254
1477.34838	0.04302
1476.06261	0.04351
1474.77684	0.04401
1473.49108	0.04454
1472.20531	0.04514
1470.91954	0.04583
1469.63377	0.04658
1468.34800	0.04734
1467.06223	0.04808
1465.77646	0.04878
1464.49069	0.04945
1463.20492	0.05008
1461.91916	0.05066
1460.63339	0.05119
1459.34762	0.05172
1458.06185	0.05229
1456.77608	0.05287
1455.49031	0.05345
1454.20454	0.05396
1452.91877	0.05439
1451.63301	0.05469
1450.34724	0.05492
1449.06147	0.05512
1447.77570	0.05529
1446.48993	0.05539
1445.20416	0.05536
1443.91839	0.05520
1442.63262	0.05492
1441.34685	0.05456
1440.06109	0.05416
1438.77532	0.05377
1437.48955	0.05341
1436.20378	0.05315
1434.91801	0.05296
1433.63224	0.05282
1432.34647	0.05274
1431.06070	0.05271
1429.77494	0.05278
1428.48917	0.05294
1427.20340	0.05318
1425.91763	0.05354
1424.63186	0.05400
1423.34609	0.05453
1422.06032	0.05508
1420.77455	0.05558
1419.48878	0.05603
1418.20302	0.05641
1416.91725	0.05671
1415.63148	0.05697
1414.34571	0.05721
1413.05994	0.05742
1411.77417	0.05757
1410.48840	0.05760
1409.20263	0.05748
1407.91687	0.05723
1406.63110	0.05691
1405.34533	0.05652
1404.05956	0.05609
1402.77379	0.05561
1401.48802	0.05507
1400.20225	0.05447
1398.91648	0.05382
1397.63071	0.05311
1396.34495	0.05237
1395.05918	0.05158
1393.77341	0.05077
1392.48764	0.04996
1391.20187	0.04919
1389.91610	0.04850
1388.63033	0.04790
1387.34456	0.04739
1386.05880	0.04688
1384.77303	0.04631
1383.48726	0.04571
1382.20149	0.04513
1380.91572	0.04465
1379.62995	0.04425
1378.34418	0.04385
1377.05841	0.04336
1375.77264	0.04274
1374.48688	0.04198
1373.20111	0.04113
1371.91534	0.04024
1370.62957	0.03935
1369.34380	0.03849
1368.05803	0.03767
1366.77226	0.03694
1365.48649	0.03631
1364.20073	0.03576
1362.91496	0.03521
1361.62919	0.03461
1360.34342	0.03400
1359.05765	0.03342
1357.77188	0.03293
1356.48611	0.03251
1355.20034	0.03212
1353.91457	0.03174
1352.62881	0.03136
1351.34304	0.03101
1350.05727	0.03072
1348.77150	0.03048
1347.48573	0.03028
1346.19996	0.03011
1344.91419	0.02995
1343.62842	0.02979
1342.34266	0.02960
1341.05689	0.02938
1339.77112	0.02916
1338.48535	0.02898
1337.19958	0.02889
1335.91381	0.02883
1334.62804	0.02875
1333.34227	0.02858
1332.05650	0.02835
1330.77074	0.02811
1329.48497	0.02789
1328.19920	0.02767
1326.91343	0.02746
1325.62766	0.02724
1324.34189	0.02704
1323.05612	0.02686
1321.77035	0.02670
1320.48459	0.02657
1319.19882	0.02647
1317.91305	0.02638
1316.62728	0.02629
1315.34151	0.02615
1314.05574	0.02596
1312.76997	0.02575
1311.48420	0.02556
1310.19843	0.02540
1308.91267	0.02527
1307.62690	0.02514
1306.34113	0.02500
1305.05536	0.02485
1303.76959	0.02473
1302.48382	0.02466
1301.19805	0.02461
1299.91228	0.02454
1298.62652	0.02445
1297.34075	0.02435
1296.05498	0.02425
1294.76921	0.02414
1293.48344	0.02401
1292.19767	0.02385
1290.91190	0.02366
1289.62613	0.02350
1288.34036	0.02343
1287.05460	0.02348
1285.76883	0.02360
1284.48306	0.02369
1283.19729	0.02369
1281.91152	0.02360
1280.62575	0.02343
1279.33998	0.02324
1278.05421	0.02307
1276.76845	0.02296
1275.48268	0.02288
1274.19691	0.02280
1272.91114	0.02271
1271.62537	0.02263
1270.33960	0.02254
1269.05383	0.02246
1267.76806	0.02242
1266.48229	0.02242
1265.19653	0.02248
1263.91076	0.02257
1262.62499	0.02267
1261.33922	0.02273
1260.05345	0.02273
1258.76768	0.02264
1257.48191	0.02250
1256.19614	0.02234
1254.91037	0.02222
1253.62461	0.02216
1252.33884	0.02215
1251.05307	0.02214
1249.76730	0.02212
1248.48153	0.02207
1247.19576	0.02201
1245.90999	0.02195
1244.62422	0.02188
1243.33846	0.02183
1242.05269	0.02181
1240.76692	0.02181
1239.48115	0.02180
1238.19538	0.02176
1236.90961	0.02169
1235.62384	0.02163
1234.33807	0.02160
1233.05230	0.02156
1231.76654	0.02148
1230.48077	0.02133
1229.19500	0.02115
1227.90923	0.02097
1226.62346	0.02085
1225.33769	0.02080
1224.05192	0.02077
1222.76615	0.02074
1221.48039	0.02071
1220.19462	0.02067
1218.90885	0.02064
1217.62308	0.02061
1216.33731	0.02058
1215.05154	0.02055
1213.76577	0.02053
1212.48000	0.02054
1211.19423	0.02055
1209.90847	0.02056
1208.62270	0.02058
1207.33693	0.02061
1206.05116	0.02066
1204.76539	0.02072
1203.47962	0.02079
1202.19385	0.02084
1200.90808	0.02086
1199.62232	0.02088
1198.33655	0.02080
1197.05078	0.02071
1195.76501	0.02065
1194.47924	0.02065
1193.19347	0.02070
1191.90770	0.02078
1190.62193	0.02084
1189.33616	0.02089
1188.05040	0.02096
1186.76463	0.02103
1185.47886	0.02107
1184.19309	0.02106
1182.90732	0.02103
1181.62155	0.02103
1180.33578	0.02110
1179.05001	0.02123
1177.76425	0.02137
1176.47848	0.02145
1175.19271	0.02147
1173.90694	0.02153
1172.62117	0.02165
1171.33540	0.02181
1170.04963	0.02198
1168.76386	0.02215
1167.47809	0.02234
1166.19233	0.02253
1164.90656	0.02267
1163.62079	0.02274
1162.33502	0.02277
1161.04925	0.02282
1159.76348	0.02293
1158.47771	0.02308
1157.19194	0.02325
1155.90618	0.02342
1154.62041	0.02358
1153.33464	0.02370
1152.04887	0.02379
1150.76310	0.02385
1149.47733	0.02397
1148.19156	0.02416
1146.90579	0.02440
1145.62002	0.02459
1144.33426	0.02471
1143.04849	0.02482
1141.76272	0.02499
1140.47695	0.02524
1139.19118	0.02555
1137.90541	0.02593
1136.61964	0.02639
1135.33387	0.02690
1134.04811	0.02748
1132.76234	0.02813
1131.47657	0.02887
1130.19080	0.02969
1128.90503	0.03059
1127.61926	0.03155
1126.33349	0.03257
1125.04772	0.03367
1123.76195	0.03488
1122.47619	0.03623
1121.19042	0.03770
1119.90465	0.03923
1118.61888	0.04076
1117.33311	0.04233
1116.04734	0.04394
1114.76157	0.04561
1113.47580	0.04731
1112.19004	0.04902
1110.90427	0.05072
1109.61850	0.05242
1108.33273	0.05407
1107.04696	0.05563
1105.76119	0.05707
1104.47542	0.05844
1103.18965	0.05983
1101.90388	0.06123
1100.61812	0.06258
1099.33235	0.06378
1098.04658	0.06484
1096.76081	0.06580
1095.47504	0.06672
1094.18927	0.06758
1092.90350	0.06839
1091.61773	0.06915
1090.33197	0.06986
1089.04620	0.07050
1087.76043	0.07104
1086.47466	0.07150
1085.18889	0.07191
1083.90312	0.07233
1082.61735	0.07282
1081.33158	0.07342
1080.04581	0.07414
1078.76005	0.07498
1077.47428	0.07594
1076.18851	0.07703
1074.90274	0.07825
1073.61697	0.07955
1072.33120	0.08086
1071.04543	0.08214
1069.75966	0.08343
1068.47390	0.08475
1067.18813	0.08615
1065.90236	0.08762
1064.61659	0.08915
1063.33082	0.09075
1062.04505	0.09239
1060.75928	0.09405
1059.47351	0.09569
1058.18774	0.09732
1056.90198	0.09892
1055.61621	0.10055
1054.33044	0.10221
1053.04467	0.10390
1051.75890	0.10555
1050.47313	0.10712
1049.18736	0.10865
1047.90159	0.11019
1046.61583	0.11175
1045.33006	0.11331
1044.04429	0.11486
1042.75852	0.11642
1041.47275	0.11799
1040.18698	0.11955
1038.90121	0.12109
1037.61544	0.12259
1036.32967	0.12406
1035.04391	0.12552
1033.75814	0.12695
1032.47237	0.12835
1031.18660	0.12966
1029.90083	0.13087
1028.61506	0.13196
1027.32929	0.13296
1026.04352	0.13388
1024.75775	0.13468
1023.47199	0.13532
1022.18622	0.13573
1020.90045	0.13590
1019.61468	0.13587
1018.32891	0.13568
1017.04314	0.13536
1015.75737	0.13487
1014.47160	0.13419
1013.18584	0.13334
1011.90007	0.13237
1010.61430	0.13132
1009.32853	0.13014
1008.04276	0.12882
1006.75699	0.12735
1005.47122	0.12577
1004.18545	0.12412
1002.89968	0.12239
1001.61392	0.12057
1000.32815	0.11865
999.04238	0.11663
997.75661	0.11450
996.47084	0.11229
995.18507	0.11001
993.89930	0.10770
992.61353	0.10541
991.32777	0.10319
990.04200	0.10108
988.75623	0.09905
987.47046	0.09705
986.18469	0.09502
984.89892	0.09298
983.61315	0.09102
982.32738	0.08912
981.04161	0.08727
979.75585	0.08547
978.47008	0.08377
977.18431	0.08219
975.89854	0.08072
974.61277	0.07930
973.32700	0.07794
972.04123	0.07668
970.75546	0.07563
969.46970	0.07484
968.18393	0.07434
966.89816	0.07407
965.61239	0.07397
964.32662	0.07399
963.04085	0.07408
961.75508	0.07418
960.46931	0.07414
959.18354	0.07381
957.89778	0.07313
956.61201	0.07221
955.32624	0.07119
954.04047	0.07015
952.75470	0.06911
951.46893	0.06809
950.18316	0.06706
948.89739	0.06604
947.61163	0.06503
946.32586	0.06403
945.04009	0.06301
943.75432	0.06198
942.46855	0.06096
941.18278	0.05997
939.89701	0.05902
938.61124	0.05809
937.32547	0.05718
936.03971	0.05627
934.75394	0.05542
933.46817	0.05469
932.18240	0.05412
930.89663	0.05364
929.61086	0.05316
928.32509	0.05265
927.03932	0.05210
925.75356	0.05150
924.46779	0.05090
923.18202	0.05034
921.89625	0.04989
920.61048	0.04949
919.32471	0.04904
918.03894	0.04849
916.75317	0.04791
915.46740	0.04739
914.18164	0.04695
912.89587	0.04657
911.61010	0.04619
910.32433	0.04580
909.03856	0.04538
907.75279	0.04492
906.46702	0.04444
905.18125	0.04394
903.89549	0.04347
902.60972	0.04304
901.32395	0.04269
900.03818	0.04241
898.75241	0.04214
897.46664	0.04179
896.18087	0.04136
894.89510	0.04093
893.60933	0.04059
892.32357	0.04036
891.03780	0.04014
889.75203	0.03985
888.46626	0.03954
887.18049	0.03934
885.89472	0.03944
884.60895	0.04000
883.32318	0.04102
882.03742	0.04228
880.75165	0.04347
879.46588	0.04433
878.18011	0.04485
876.89434	0.04522
875.60857	0.04568
874.32280	0.04628
873.03703	0.04685
871.75126	0.04714
870.46550	0.04698
869.17973	0.04644
867.89396	0.04572
866.60819	0.04494
865.32242	0.04412
864.03665	0.04325
862.75088	0.04232
861.46511	0.04135
860.17935	0.04041
858.89358	0.03958
857.60781	0.03887
856.32204	0.03829
855.03627	0.03777
853.75050	0.03732
852.46473	0.03695
851.17896	0.03664
849.89319	0.03631
848.60743	0.03593
847.32166	0.03559
846.03589	0.03536
844.75012	0.03522
843.46435	0.03506
842.17858	0.03480
840.89281	0.03447
839.60704	0.03415
838.32128	0.03391
837.03551	0.03377
835.74974	0.03368
834.46397	0.03359
833.17820	0.03346
831.89243	0.03326
830.60666	0.03304
829.32089	0.03283
828.03512	0.03265
826.74936	0.03248
825.46359	0.03227
824.17782	0.03203
822.89205	0.03180
821.60628	0.03166
820.32051	0.03161
819.03474	0.03158
817.74897	0.03148
816.46321	0.03131
815.17744	0.03108
813.89167	0.03088
812.60590	0.03080
811.32013	0.03085
810.03436	0.03094
808.74859	0.03095
807.46282	0.03085
806.17705	0.03075
804.89129	0.03078
803.60552	0.03094
802.31975	0.03115
801.03398	0.03129
799.74821	0.03132
798.46244	0.03128
797.17667	0.03128
795.89090	0.03135
794.60513	0.03143
793.31937	0.03145
792.03360	0.03137
790.74783	0.03125
789.46206	0.03115
788.17629	0.03107
786.89052	0.03099
785.60475	0.03094
784.31898	0.03093
783.03322	0.03097
781.74745	0.03101
780.46168	0.03101
779.17591	0.03099
777.89014	0.03098
776.60437	0.03098
775.31860	0.03097
774.03283	0.03092
772.74706	0.03083
771.46130	0.03073
770.17553	0.03062
768.88976	0.03048
767.60399	0.03032
766.31822	0.03023
765.03245	0.03024
763.74668	0.03032
762.46091	0.03036
761.17515	0.03028
759.88938	0.03010
758.60361	0.02991
757.31784	0.02978
756.03207	0.02971
754.74630	0.02963
753.46053	0.02956
752.17476	0.02954
750.88899	0.02963
749.60323	0.02979
748.31746	0.02995
747.03169	0.03006
745.74592	0.03006
744.46015	0.02992
743.17438	0.02966
741.88861	0.02936
740.60284	0.02912
739.31708	0.02901
738.03131	0.02899
736.74554	0.02896
735.45977	0.02885
734.17400	0.02870
732.88823	0.02861
731.60246	0.02861
730.31669	0.02864
729.03092	0.02860
727.74516	0.02850
726.45939	0.02839
725.17362	0.02836
723.88785	0.02845
722.60208	0.02864
721.31631	0.02884
720.03054	0.02896
718.74477	0.02898
717.45901	0.02892
716.17324	0.02880
714.88747	0.02863
713.60170	0.02842
712.31593	0.02822
711.03016	0.02808
709.74439	0.02800
708.45862	0.02800
707.17285	0.02805
705.88709	0.02810
704.60132	0.02814
703.31555	0.02813
702.02978	0.02810
700.74401	0.02804
699.45824	0.02796
698.17247	0.02787
696.88670	0.02777
695.60094	0.02772
694.31517	0.02773
693.02940	0.02779
691.74363	0.02784
690.45786	0.02786
689.17209	0.02782
687.88632	0.02773
686.60055	0.02761
685.31478	0.02749
684.02902	0.02743
682.74325	0.02743
681.45748	0.02744
680.17171	0.02738
678.88594	0.02723
677.60017	0.02703
676.31440	0.02689
675.02863	0.02685
673.74287	0.02688
672.45710	0.02698
671.17133	0.02715
669.88556	0.02731
668.59979	0.02718
667.31402	0.02706
666.02825	0.02724
664.74248	0.02709
663.45671	0.02694
662.17095	0.02690
660.88518	0.02688
659.59941	0.02683
658.31364	0.02673
657.02787	0.02664
655.74210	0.02655
654.45633	0.02649
653.17056	0.02647
651.88480	0.02652
650.59903	0.02662
649.31326	0.02672
648.02749	0.02678
646.74172	0.02679
645.45595	0.02682
644.17018	0.02690
642.88441	0.02704
641.59864	0.02723
640.31288	0.02740
639.02711	0.02755
637.74134	0.02765
636.45557	0.02772
635.16980	0.02776
633.88403	0.02779
632.59826	0.02784
631.31249	0.02788
630.02673	0.02768
628.74096	0.02739
627.45519	0.02794
626.16942	0.02774
624.88365	0.02683
623.59788	0.02554
622.31211	0.02428
621.02634	0.02377
619.74057	0.02439
618.45481	0.02571
617.16904	0.02727
615.88327	0.02917
614.59750	0.03171
613.31173	0.03473
612.02596	0.03765
610.74019	0.03998
609.45442	0.04184
608.16866	0.04380
606.88289	0.04627
605.59712	0.04914
604.31135	0.05195
603.02558	0.05420
601.73981	0.05553
600.45404	0.05585
599.16827	0.05528
597.88250	0.05415
596.59674	0.05281
595.31097	0.05155
594.02520	0.05048
592.73943	0.04958
591.45366	0.04879
590.16789	0.04810
588.88212	0.04758
587.59635	0.04733
586.31059	0.04737
585.02482	0.04770
583.73905	0.04832
582.45328	0.04925
581.16751	0.05047
579.88174	0.05184
578.59597	0.05319
577.31020	0.05442
576.02443	0.05553
574.73867	0.05659
573.45290	0.05774
572.16713	0.05902
570.88136	0.06040
569.59559	0.06178
568.30982	0.06319
567.02405	0.06476
565.73828	0.06656
564.45251	0.06841
563.16675	0.06996
561.88098	0.07091
560.59521	0.07114
559.30944	0.07068
558.02367	0.06959
556.73790	0.06789
555.45213	0.06565
554.16636	0.06308
552.88060	0.06048
551.59483	0.05811
550.30906	0.05606
549.02329	0.05425
547.73752	0.05261
546.45175	0.05112
545.16598	0.04984
543.88021	0.04877
542.59444	0.04790
541.30868	0.04718
540.02291	0.04656
538.73714	0.04601
537.45137	0.04549
536.16560	0.04501
534.87983	0.04458
533.59406	0.04419
532.30829	0.04379
531.02253	0.04330
529.73676	0.04271
528.45099	0.04208
527.16522	0.04149
525.87945	0.04093
524.59368	0.04040
523.30791	0.03993
522.02214	0.03957
520.73637	0.03933
519.45061	0.03913
518.16484	0.03892
516.87907	0.03864
515.59330	0.03823
514.30753	0.03767
513.02176	0.03702
511.73599	0.03644
510.45022	0.03606
509.16446	0.03588
507.87869	0.03572
506.59292	0.03543
505.30715	0.03499
504.02138	0.03451
502.73561	0.03411
501.44984	0.03385
500.16407	0.03367
498.87830	0.03348
497.59254	0.03324
496.30677	0.03294
495.02100	0.03266
493.73523	0.03243
492.44946	0.03225
491.16369	0.03214
489.87792	0.03204
488.59215	0.03191
487.30639	0.03172
486.02062	0.03152
484.73485	0.03142
483.44908	0.03152
482.16331	0.03182
480.87754	0.03222
479.59177	0.03261
478.30600	0.03294
477.02023	0.03324
475.73447	0.03356
474.44870	0.03391
473.16293	0.03423
471.87716	0.03451
470.59139	0.03476
469.30562	0.03500
468.01985	0.03518
466.73408	0.03523
465.44832	0.03513
464.16255	0.03491
462.87678	0.03465
461.59101	0.03439
460.30524	0.03416
459.01947	0.03394
457.73370	0.03373
456.44793	0.03351
455.16216	0.03325
453.87640	0.03291
452.59063	0.03251
451.30486	0.03209
450.01909	0.03172
448.73332	0.03141
447.44755	0.03114
446.16178	0.03090
444.87601	0.03070
443.59025	0.03055
442.30448	0.03046
441.01871	0.03038
439.73294	0.03027
438.44717	0.03016
437.16140	0.03009
435.87563	0.03004
434.58986	0.02999
433.30409	0.02991
432.01833	0.02985
430.73256	0.02982
429.44679	0.02982
428.16102	0.02980
426.87525	0.02973
425.58948	0.02963
424.30371	0.02950
423.01794	0.02933
421.73218	0.02910
420.44641	0.02880
419.16064	0.02848
417.87487	0.02820
416.58910	0.02796
415.30333	0.02773
414.01756	0.02747
412.73179	0.02716
411.44602	0.02681
410.16026	0.02644
408.87449	0.02607
407.58872	0.02573
406.30295	0.02546
405.01718	0.02529
403.73141	0.02520
402.44564	0.02519
401.15987	0.02525
399.87411	0.02534
