3997.45528	0.02506
3996.16951	0.02516
3994.88374	0.02526
3993.59798	0.02555
3992.31221	0.02614
3991.02644	0.02688
3989.74067	0.02745
3988.45490	0.02768
3987.16913	0.02764
3985.88336	0.02755
3984.59759	0.02756
3983.31183	0.02764
3982.02606	0.02763
3980.74029	0.02748
3979.45452	0.02736
3978.16875	0.02759
3976.88298	0.02826
3975.59721	0.02906
3974.31144	0.02951
3973.02567	0.02931
3971.73991	0.02866
3970.45414	0.02802
3969.16837	0.02762
3967.88260	0.02739
3966.59683	0.02716
3965.31106	0.02690
3964.02529	0.02666
3962.73952	0.02652
3961.45376	0.02665
3960.16799	0.02710
3958.88222	0.02761
3957.59645	0.02777
3956.31068	0.02751
3955.02491	0.02726
3953.73914	0.02741
3952.45337	0.02794
3951.16760	0.02847
3949.88184	0.02872
3948.59607	0.02872
3947.31030	0.02871
3946.02453	0.02878
3944.73876	0.02872
3943.45299	0.02832
3942.16722	0.02771
3940.88145	0.02722
3939.59569	0.02709
3938.30992	0.02727
3937.02415	0.02764
3935.73838	0.02805
3934.45261	0.02836
3933.16684	0.02839
3931.88107	0.02811
3930.59530	0.02768
3929.30953	0.02725
3928.02377	0.02689
3926.73800	0.02667
3925.45223	0.02672
3924.16646	0.02717
3922.88069	0.02795
3921.59492	0.02876
3920.30915	0.02930
3919.02338	0.02948
3917.73762	0.02943
3916.45185	0.02928
3915.16608	0.02905
3913.88031	0.02867
3912.59454	0.02824
3911.30877	0.02797
3910.02300	0.02801
3908.73723	0.02826
3907.45146	0.02853
3906.16570	0.02867
3904.87993	0.02862
3903.59416	0.02835
3902.30839	0.02792
3901.02262	0.02753
3899.73685	0.02740
3898.45108	0.02751
3897.16531	0.02775
3895.87955	0.02813
3894.59378	0.02875
3893.30801	0.02945
3892.02224	0.02984
3890.73647	0.02971
3889.45070	0.02922
3888.16493	0.02861
3886.87916	0.02797
3885.59339	0.02742
3884.30763	0.02714
3883.02186	0.02727
3881.73609	0.02766
3880.45032	0.02803
3879.16455	0.02820
3877.87878	0.02813
3876.59301	0.02789
3875.30724	0.02779
3874.02148	0.02820
3872.73571	0.02917
3871.44994	0.03027
3870.16417	0.03093
3868.87840	0.03098
3867.59263	0.03065
3866.30686	0.03019
3865.02109	0.02967
3863.73532	0.02921
3862.44956	0.02913
3861.16379	0.02957
3859.87802	0.03017
3858.59225	0.03042
3857.30648	0.03022
3856.02071	0.02995
3854.73494	0.03005
3853.44917	0.03058
3852.16341	0.03122
3850.87764	0.03156
3849.59187	0.03145
3848.30610	0.03108
3847.02033	0.03076
3845.73456	0.03056
3844.44879	0.03031
3843.16302	0.02989
3841.87725	0.02946
3840.59149	0.02927
3839.30572	0.02935
3838.01995	0.02945
3836.73418	0.02928
3835.44841	0.02882
3834.16264	0.02827
3832.87687	0.02792
3831.59110	0.02787
3830.30534	0.02801
3829.01957	0.02816
3827.73380	0.02823
3826.44803	0.02825
3825.16226	0.02828
3823.87649	0.02835
3822.59072	0.02848
3821.30495	0.02868
3820.01918	0.02893
3818.73342	0.02927
3817.44765	0.02966
3816.16188	0.03001
3814.87611	0.03017
3813.59034	0.03012
3812.30457	0.02996
3811.01880	0.02984
3809.73303	0.02982
3808.44726	0.02978
3807.16150	0.02954
3805.87573	0.02904
3804.58996	0.02844
3803.30419	0.02796
3802.01842	0.02770
3800.73265	0.02773
3799.44688	0.02809
3798.16111	0.02878
3796.87535	0.02951
3795.58958	0.02990
3794.30381	0.02975
3793.01804	0.02923
3791.73227	0.02880
3790.44650	0.02874
3789.16073	0.02899
3787.87496	0.02924
3786.58919	0.02926
3785.30343	0.02908
3784.01766	0.02894
3782.73189	0.02900
3781.44612	0.02919
3780.16035	0.02929
3778.87458	0.02919
3777.58881	0.02900
3776.30304	0.02882
3775.01728	0.02860
3773.73151	0.02819
3772.44574	0.02764
3771.15997	0.02707
3769.87420	0.02662
3768.58843	0.02632
3767.30266	0.02619
3766.01689	0.02625
3764.73112	0.02654
3763.44536	0.02706
3762.15959	0.02770
3760.87382	0.02827
3759.58805	0.02851
3758.30228	0.02825
3757.01651	0.02759
3755.73074	0.02693
3754.44497	0.02665
3753.15921	0.02676
3751.87344	0.02690
3750.58767	0.02681
3749.30190	0.02661
3748.01613	0.02658
3746.73036	0.02676
3745.44459	0.02699
3744.15882	0.02705
3742.87305	0.02692
3741.58729	0.02666
3740.30152	0.02635
3739.01575	0.02597
3737.72998	0.02557
3736.44421	0.02531
3735.15844	0.02534
3733.87267	0.02563
3732.58690	0.02603
3731.30114	0.02640
3730.01537	0.02672
3728.72960	0.02704
3727.44383	0.02737
3726.15806	0.02767
3724.87229	0.02779
3723.58652	0.02767
3722.30075	0.02739
3721.01498	0.02709
3719.72922	0.02680
3718.44345	0.02649
3717.15768	0.02629
3715.87191	0.02635
3714.58614	0.02665
3713.30037	0.02687
3712.01460	0.02673
3710.72883	0.02632
3709.44307	0.02605
3708.15730	0.02623
3706.87153	0.02681
3705.58576	0.02745
3704.29999	0.02782
3703.01422	0.02784
3701.72845	0.02762
3700.44268	0.02731
3699.15691	0.02697
3697.87115	0.02653
3696.58538	0.02604
3695.29961	0.02584
3694.01384	0.02622
3692.72807	0.02709
3691.44230	0.02806
3690.15653	0.02873
3688.87076	0.02889
3687.58500	0.02860
3686.29923	0.02810
3685.01346	0.02757
3683.72769	0.02702
3682.44192	0.02642
3681.15615	0.02590
3679.87038	0.02579
3678.58461	0.02618
3677.29884	0.02662
3676.01308	0.02653
3674.72731	0.02583
3673.44154	0.02510
3672.15577	0.02501
3670.87000	0.02560
3669.58423	0.02636
3668.29846	0.02680
3667.01269	0.02691
3665.72693	0.02699
3664.44116	0.02717
3663.15539	0.02725
3661.86962	0.02709
3660.58385	0.02694
3659.29808	0.02721
3658.01231	0.02799
3656.72654	0.02885
3655.44077	0.02921
3654.15501	0.02885
3652.86924	0.02820
3651.58347	0.02798
3650.29770	0.02865
3649.01193	0.02988
3647.72616	0.03081
3646.44039	0.03076
3645.15462	0.02989
3643.86886	0.02895
3642.58309	0.02859
3641.29732	0.02886
3640.01155	0.02935
3638.72578	0.02969
3637.44001	0.02982
3636.15424	0.02995
3634.86847	0.03026
3633.58270	0.03078
3632.29694	0.03152
3631.01117	0.03244
3629.72540	0.03334
3628.43963	0.03386
3627.15386	0.03373
3625.86809	0.03309
3624.58232	0.03241
3623.29655	0.03213
3622.01079	0.03251
3620.72502	0.03356
3619.43925	0.03489
3618.15348	0.03582
3616.86771	0.03588
3615.58194	0.03534
3614.29617	0.03490
3613.01040	0.03499
3611.72463	0.03542
3610.43887	0.03584
3609.15310	0.03623
3607.86733	0.03682
3606.58156	0.03761
3605.29579	0.03820
3604.01002	0.03824
3602.72425	0.03783
3601.43848	0.03751
3600.15272	0.03770
3598.86695	0.03846
3597.58118	0.03946
3596.29541	0.04030
3595.00964	0.04070
3593.72387	0.04068
3592.43810	0.04049
3591.15233	0.04042
3589.86656	0.04066
3588.58080	0.04122
3587.29503	0.04190
3586.00926	0.04238
3584.72349	0.04240
3583.43772	0.04189
3582.15195	0.04113
3580.86618	0.04062
3579.58041	0.04066
3578.29464	0.04121
3577.00888	0.04207
3575.72311	0.04309
3574.43734	0.04415
3573.15157	0.04508
3571.86580	0.04567
3570.58003	0.04592
3569.29426	0.04602
3568.00849	0.04616
3566.72273	0.04631
3565.43696	0.04632
3564.15119	0.04616
3562.86542	0.04595
3561.57965	0.04590
3560.29388	0.04618
3559.00811	0.04668
3557.72234	0.04708
3556.43657	0.04714
3555.15081	0.04700
3553.86504	0.04705
3552.57927	0.04748
3551.29350	0.04812
3550.00773	0.04873
3548.72196	0.04933
3547.43619	0.05006
3546.15042	0.05092
3544.86466	0.05165
3543.57889	0.05199
3542.29312	0.05188
3541.00735	0.05152
3539.72158	0.05119
3538.43581	0.05112
3537.15004	0.05143
3535.86427	0.05213
3534.57850	0.05303
3533.29274	0.05378
3532.00697	0.05413
3530.72120	0.05417
3529.43543	0.05423
3528.14966	0.05443
3526.86389	0.05456
3525.57812	0.05446
3524.29235	0.05432
3523.00659	0.05449
3521.72082	0.05505
3520.43505	0.05582
3519.14928	0.05647
3517.86351	0.05687
3516.57774	0.05707
3515.29197	0.05724
3514.00620	0.05754
3512.72043	0.05798
3511.43467	0.05837
3510.14890	0.05853
3508.86313	0.05840
3507.57736	0.05804
3506.29159	0.05756
3505.00582	0.05707
3503.72005	0.05675
3502.43428	0.05679
3501.14852	0.05730
3499.86275	0.05815
3498.57698	0.05898
3497.29121	0.05944
3496.00544	0.05949
3494.71967	0.05942
3493.43390	0.05960
3492.14813	0.06021
3490.86236	0.06113
3489.57660	0.06200
3488.29083	0.06251
3487.00506	0.06254
3485.71929	0.06223
3484.43352	0.06186
3483.14775	0.06173
3481.86198	0.06194
3480.57621	0.06239
3479.29045	0.06280
3478.00468	0.06294
3476.71891	0.06277
3475.43314	0.06241
3474.14737	0.06207
3472.86160	0.06191
3471.57583	0.06198
3470.29006	0.06221
3469.00429	0.06253
3467.71853	0.06290
3466.43276	0.06323
3465.14699	0.06345
3463.86122	0.06360
3462.57545	0.06389
3461.28968	0.06447
3460.00391	0.06527
3458.71814	0.06613
3457.43238	0.06696
3456.14661	0.06775
3454.86084	0.06834
3453.57507	0.06849
3452.28930	0.06814
3451.00353	0.06765
3449.71776	0.06748
3448.43199	0.06775
3447.14622	0.06809
3445.86046	0.06813
3444.57469	0.06781
3443.28892	0.06744
3442.00315	0.06734
3440.71738	0.06752
3439.43161	0.06779
3438.14584	0.06799
3436.86007	0.06811
3435.57431	0.06826
3434.28854	0.06850
3433.00277	0.06883
3431.71700	0.06927
3430.43123	0.06984
3429.14546	0.07048
3427.85969	0.07102
3426.57392	0.07130
3425.28815	0.07129
3424.00239	0.07107
3422.71662	0.07087
3421.43085	0.07087
3420.14508	0.07111
3418.85931	0.07139
3417.57354	0.07147
3416.28777	0.07127
3415.00200	0.07092
3413.71624	0.07069
3412.43047	0.07068
3411.14470	0.07091
3409.85893	0.07138
3408.57316	0.07202
3407.28739	0.07258
3406.00162	0.07276
3404.71585	0.07253
3403.43008	0.07226
3402.14432	0.07235
3400.85855	0.07290
3399.57278	0.07371
3398.28701	0.07445
3397.00124	0.07490
3395.71547	0.07505
3394.42970	0.07504
3393.14393	0.07500
3391.85817	0.07494
3390.57240	0.07479
3389.28663	0.07456
3388.00086	0.07437
3386.71509	0.07432
3385.42932	0.07449
3384.14355	0.07492
3382.85778	0.07560
3381.57201	0.07636
3380.28625	0.07689
3379.00048	0.07696
3377.71471	0.07663
3376.42894	0.07626
3375.14317	0.07621
3373.85740	0.07642
3372.57163	0.07659
3371.28586	0.07648
3370.00010	0.07621
3368.71433	0.07609
3367.42856	0.07619
3366.14279	0.07633
3364.85702	0.07628
3363.57125	0.07608
3362.28548	0.07592
3360.99971	0.07598
3359.71394	0.07624
3358.42818	0.07657
3357.14241	0.07684
3355.85664	0.07701
3354.57087	0.07714
3353.28510	0.07731
3351.99933	0.07758
3350.71356	0.07791
3349.42779	0.07820
3348.14202	0.07832
3346.85626	0.07811
3345.57049	0.07757
3344.28472	0.07693
3342.99895	0.07647
3341.71318	0.07638
3340.42741	0.07660
3339.14164	0.07696
3337.85587	0.07724
3336.57011	0.07723
3335.28434	0.07696
3333.99857	0.07664
3332.71280	0.07654
3331.42703	0.07678
3330.14126	0.07728
3328.85549	0.07781
3327.56972	0.07814
3326.28395	0.07823
3324.99819	0.07815
3323.71242	0.07796
3322.42665	0.07770
3321.14088	0.07748
3319.85511	0.07744
3318.56934	0.07762
3317.28357	0.07791
3315.99780	0.07822
3314.71204	0.07856
3313.42627	0.07889
3312.14050	0.07905
3310.85473	0.07900
3309.56896	0.07889
3308.28319	0.07884
3306.99742	0.07890
3305.71165	0.07901
3304.42588	0.07911
3303.14012	0.07912
3301.85435	0.07893
3300.56858	0.07853
3299.28281	0.07814
3297.99704	0.07802
3296.71127	0.07821
3295.42550	0.07847
3294.13973	0.07859
3292.85397	0.07857
3291.56820	0.07852
3290.28243	0.07852
3288.99666	0.07852
3287.71089	0.07845
3286.42512	0.07825
3285.13935	0.07794
3283.85358	0.07761
3282.56781	0.07738
3281.28205	0.07729
3279.99628	0.07735
3278.71051	0.07749
3277.42474	0.07759
3276.13897	0.07757
3274.85320	0.07743
3273.56743	0.07728
3272.28166	0.07725
3270.99590	0.07735
3269.71013	0.07743
3268.42436	0.07735
3267.13859	0.07711
3265.85282	0.07689
3264.56705	0.07686
3263.28128	0.07705
3261.99551	0.07734
3260.70974	0.07763
3259.42398	0.07784
3258.13821	0.07790
3256.85244	0.07782
3255.56667	0.07769
3254.28090	0.07757
3252.99513	0.07750
3251.70936	0.07750
3250.42359	0.07753
3249.13783	0.07746
3247.85206	0.07717
3246.56629	0.07671
3245.28052	0.07624
3243.99475	0.07592
3242.70898	0.07577
3241.42321	0.07567
3240.13744	0.07549
3238.85167	0.07525
3237.56591	0.07509
3236.28014	0.07509
3234.99437	0.07522
3233.70860	0.07532
3232.42283	0.07531
3231.13706	0.07524
3229.85129	0.07518
3228.56552	0.07519
3227.27976	0.07522
3225.99399	0.07523
3224.70822	0.07520
3223.42245	0.07514
3222.13668	0.07505
3220.85091	0.07488
3219.56514	0.07461
3218.27937	0.07427
3216.99360	0.07395
3215.70784	0.07373
3214.42207	0.07362
3213.13630	0.07356
3211.85053	0.07347
3210.56476	0.07337
3209.27899	0.07330
3207.99322	0.07331
3206.70745	0.07345
3205.42169	0.07371
3204.13592	0.07403
3202.85015	0.07425
3201.56438	0.07425
3200.27861	0.07394
3198.99284	0.07335
3197.70707	0.07261
3196.42130	0.07195
3195.13553	0.07154
3193.84977	0.07143
3192.56400	0.07147
3191.27823	0.07155
3189.99246	0.07166
3188.70669	0.07182
3187.42092	0.07195
3186.13515	0.07197
3184.84938	0.07186
3183.56362	0.07175
3182.27785	0.07178
3180.99208	0.07190
3179.70631	0.07193
3178.42054	0.07171
3177.13477	0.07127
3175.84900	0.07079
3174.56323	0.07045
3173.27746	0.07031
3171.99170	0.07031
3170.70593	0.07033
3169.42016	0.07020
3168.13439	0.06984
3166.84862	0.06934
3165.56285	0.06888
3164.27708	0.06857
3162.99131	0.06845
3161.70555	0.06847
3160.41978	0.06856
3159.13401	0.06857
3157.84824	0.06835
3156.56247	0.06792
3155.27670	0.06748
3153.99093	0.06734
3152.70516	0.06761
3151.41939	0.06810
3150.13363	0.06840
3148.84786	0.06827
3147.56209	0.06776
3146.27632	0.06715
3144.99055	0.06663
3143.70478	0.06625
3142.41901	0.06605
3141.13324	0.06611
3139.84748	0.06645
3138.56171	0.06693
3137.27594	0.06724
3135.99017	0.06718
3134.70440	0.06687
3133.41863	0.06654
3132.13286	0.06631
3130.84709	0.06613
3129.56132	0.06594
3128.27556	0.06571
3126.98979	0.06542
3125.70402	0.06512
3124.41825	0.06488
3123.13248	0.06478
3121.84671	0.06481
3120.56094	0.06493
3119.27517	0.06512
3117.98940	0.06539
3116.70364	0.06570
3115.41787	0.06597
3114.13210	0.06604
3112.84633	0.06588
3111.56056	0.06555
3110.27479	0.06520
3108.98902	0.06488
3107.70325	0.06460
3106.41749	0.06439
3105.13172	0.06424
3103.84595	0.06413
3102.56018	0.06402
3101.27441	0.06391
3099.98864	0.06381
3098.70287	0.06373
3097.41710	0.06370
3096.13133	0.06374
3094.84557	0.06384
3093.55980	0.06395
3092.27403	0.06403
3090.98826	0.06411
3089.70249	0.06427
3088.41672	0.06452
3087.13095	0.06472
3085.84518	0.06462
3084.55942	0.06417
3083.27365	0.06363
3081.98788	0.06336
3080.70211	0.06350
3079.41634	0.06390
3078.13057	0.06431
3076.84480	0.06453
3075.55903	0.06447
3074.27326	0.06415
3072.98750	0.06370
3071.70173	0.06328
3070.41596	0.06306
3069.13019	0.06306
3067.84442	0.06316
3066.55865	0.06325
3065.27288	0.06333
3063.98711	0.06338
3062.70135	0.06335
3061.41558	0.06312
3060.12981	0.06273
3058.84404	0.06238
3057.55827	0.06224
3056.27250	0.06229
3054.98673	0.06237
3053.70096	0.06227
3052.41519	0.06193
3051.12943	0.06150
3049.84366	0.06113
3048.55789	0.06096
3047.27212	0.06101
3045.98635	0.06118
3044.70058	0.06127
3043.41481	0.06110
3042.12904	0.06064
3040.84328	0.06012
3039.55751	0.05980
3038.27174	0.05975
3036.98597	0.05983
3035.70020	0.05980
3034.41443	0.05959
3033.12866	0.05927
3031.84289	0.05898
3030.55712	0.05878
3029.27136	0.05872
3027.98559	0.05875
3026.69982	0.05878
3025.41405	0.05870
3024.12828	0.05847
3022.84251	0.05821
3021.55674	0.05805
3020.27097	0.05805
3018.98521	0.05818
3017.69944	0.05835
3016.41367	0.05848
3015.12790	0.05854
3013.84213	0.05857
3012.55636	0.05856
3011.27059	0.05845
3009.98482	0.05819
3008.69905	0.05791
3007.41329	0.05783
3006.12752	0.05802
3004.84175	0.05827
3003.55598	0.05832
3002.27021	0.05809
3000.98444	0.05770
2999.69867	0.05736
2998.41290	0.05728
2997.12714	0.05741
2995.84137	0.05757
2994.55560	0.05750
2993.26983	0.05712
2991.98406	0.05664
2990.69829	0.05640
2989.41252	0.05648
2988.12675	0.05666
2986.84098	0.05669
2985.55522	0.05657
2984.26945	0.05656
2982.98368	0.05690
2981.69791	0.05757
2980.41214	0.05830
2979.12637	0.05875
2977.84060	0.05876
2976.55483	0.05848
2975.26907	0.05820
2973.98330	0.05811
2972.69753	0.05826
2971.41176	0.05853
2970.12599	0.05875
2968.84022	0.05883
2967.55445	0.05880
2966.26868	0.05882
2964.98291	0.05903
2963.69715	0.05939
2962.41138	0.05979
2961.12561	0.06007
2959.83984	0.06021
2958.55407	0.06030
2957.26830	0.06054
2955.98253	0.06100
2954.69676	0.06159
2953.41100	0.06212
2952.12523	0.06243
2950.83946	0.06249
2949.55369	0.06233
2948.26792	0.06205
2946.98215	0.06173
2945.69638	0.06138
2944.41061	0.06095
2943.12484	0.06050
2941.83908	0.06018
2940.55331	0.06009
2939.26754	0.06026
2937.98177	0.06056
2936.69600	0.06086
2935.41023	0.06111
2934.12446	0.06135
2932.83869	0.06162
2931.55293	0.06187
2930.26716	0.06200
2928.98139	0.06205
2927.69562	0.06204
2926.40985	0.06192
2925.12408	0.06159
2923.83831	0.06115
2922.55254	0.06077
2921.26677	0.06050
2919.98101	0.06028
2918.69524	0.06014
2917.40947	0.06014
2916.12370	0.06024
2914.83793	0.06030
2913.55216	0.06026
2912.26639	0.06020
2910.98062	0.06018
2909.69486	0.06007
2908.40909	0.05975
2907.12332	0.05921
2905.83755	0.05860
2904.55178	0.05811
2903.26601	0.05782
2901.98024	0.05767
2900.69447	0.05754
2899.40870	0.05731
2898.12294	0.05701
2896.83717	0.05680
2895.55140	0.05679
2894.26563	0.05687
2892.97986	0.05683
2891.69409	0.05652
2890.40832	0.05605
2889.12255	0.05563
2887.83678	0.05539
2886.55102	0.05531
2885.26525	0.05527
2883.97948	0.05519
2882.69371	0.05509
2881.40794	0.05506
2880.12217	0.05515
2878.83640	0.05536
2877.55063	0.05559
2876.26487	0.05575
2874.97910	0.05575
2873.69333	0.05563
2872.40756	0.05554
2871.12179	0.05558
2869.83602	0.05574
2868.55025	0.05583
2867.26448	0.05573
2865.97871	0.05545
2864.69295	0.05514
2863.40718	0.05491
2862.12141	0.05472
2860.83564	0.05449
2859.54987	0.05421
2858.26410	0.05394
2856.97833	0.05367
2855.69256	0.05338
2854.40680	0.05305
2853.12103	0.05265
2851.83526	0.05217
2850.54949	0.05171
2849.26372	0.05147
2847.97795	0.05149
2846.69218	0.05155
2845.40641	0.05142
2844.12064	0.05111
2842.83488	0.05090
2841.54911	0.05098
2840.26334	0.05124
2838.97757	0.05139
2837.69180	0.05128
2836.40603	0.05091
2835.12026	0.05039
2833.83449	0.04986
2832.54873	0.04947
2831.26296	0.04931
2829.97719	0.04924
2828.69142	0.04903
2827.40565	0.04864
2826.11988	0.04827
2824.83411	0.04813
2823.54834	0.04812
2822.26257	0.04807
2820.97681	0.04791
2819.69104	0.04776
2818.40527	0.04772
2817.11950	0.04777
2815.83373	0.04775
2814.54796	0.04754
2813.26219	0.04717
2811.97642	0.04678
2810.69066	0.04655
2809.40489	0.04653
2808.11912	0.04658
2806.83335	0.04651
2805.54758	0.04632
2804.26181	0.04616
2802.97604	0.04616
2801.69027	0.04626
2800.40450	0.04632
2799.11874	0.04628
2797.83297	0.04617
2796.54720	0.04611
2795.26143	0.04617
2793.97566	0.04631
2792.68989	0.04636
2791.40412	0.04624
2790.11835	0.04598
2788.83259	0.04577
2787.54682	0.04567
2786.26105	0.04562
2784.97528	0.04546
2783.68951	0.04520
2782.40374	0.04496
2781.11797	0.04483
2779.83220	0.04473
2778.54643	0.04457
2777.26067	0.04439
2775.97490	0.04432
2774.68913	0.04437
2773.40336	0.04445
2772.11759	0.04452
2770.83182	0.04457
2769.54605	0.04456
2768.26028	0.04446
2766.97452	0.04428
2765.68875	0.04411
2764.40298	0.04398
2763.11721	0.04390
2761.83144	0.04388
2760.54567	0.04393
2759.25990	0.04404
2757.97413	0.04413
2756.68836	0.04415
2755.40260	0.04406
2754.11683	0.04390
2752.83106	0.04362
2751.54529	0.04323
2750.25952	0.04285
2748.97375	0.04267
2747.68798	0.04275
2746.40221	0.04297
2745.11645	0.04314
2743.83068	0.04320
2742.54491	0.04312
2741.25914	0.04292
2739.97337	0.04269
2738.68760	0.04251
2737.40183	0.04246
2736.11606	0.04252
2734.83029	0.04264
2733.54453	0.04272
2732.25876	0.04272
2730.97299	0.04269
2729.68722	0.04269
2728.40145	0.04272
2727.11568	0.04267
2725.82991	0.04248
2724.54414	0.04221
2723.25838	0.04196
2721.97261	0.04176
2720.68684	0.04155
2719.40107	0.04133
2718.11530	0.04115
2716.82953	0.04110
2715.54376	0.04121
2714.25799	0.04138
2712.97222	0.04146
2711.68646	0.04143
2710.40069	0.04136
2709.11492	0.04133
2707.82915	0.04130
2706.54338	0.04123
2705.25761	0.04114
2703.97184	0.04112
2702.68607	0.04119
2701.40031	0.04129
2700.11454	0.04136
2698.82877	0.04135
2697.54300	0.04128
2696.25723	0.04118
2694.97146	0.04110
2693.68569	0.04105
2692.39992	0.04099
2691.11415	0.04090
2689.82839	0.04078
2688.54262	0.04064
2687.25685	0.04049
2685.97108	0.04037
2684.68531	0.04032
2683.39954	0.04036
2682.11377	0.04043
2680.82800	0.04045
2679.54224	0.04035
2678.25647	0.04013
2676.97070	0.03981
2675.68493	0.03946
2674.39916	0.03919
2673.11339	0.03911
2671.82762	0.03925
2670.54185	0.03951
2669.25608	0.03975
2667.97032	0.03988
2666.68455	0.03990
2665.39878	0.03989
2664.11301	0.03988
2662.82724	0.03986
2661.54147	0.03978
2660.25570	0.03967
2658.96993	0.03957
2657.68417	0.03951
2656.39840	0.03946
2655.11263	0.03938
2653.82686	0.03928
2652.54109	0.03919
2651.25532	0.03910
2649.96955	0.03903
2648.68378	0.03896
2647.39801	0.03887
2646.11225	0.03870
2644.82648	0.03845
2643.54071	0.03814
2642.25494	0.03782
2640.96917	0.03753
2639.68340	0.03729
2638.39763	0.03716
2637.11186	0.03711
2635.82609	0.03704
2634.54033	0.03685
2633.25456	0.03656
2631.96879	0.03631
2630.68302	0.03617
2629.39725	0.03610
2628.11148	0.03603
2626.82571	0.03590
2625.53994	0.03574
2624.25418	0.03556
2622.96841	0.03534
2621.68264	0.03509
2620.39687	0.03488
2619.11110	0.03479
2617.82533	0.03483
2616.53956	0.03496
2615.25379	0.03508
2613.96802	0.03509
2612.68226	0.03496
2611.39649	0.03483
2610.11072	0.03484
2608.82495	0.03490
2607.53918	0.03474
2606.25341	0.03432
2604.96764	0.03389
2603.68187	0.03368
2602.39611	0.03365
2601.11034	0.03364
2599.82457	0.03362
2598.53880	0.03366
2597.25303	0.03382
2595.96726	0.03402
2594.68149	0.03412
2593.39572	0.03406
2592.10995	0.03387
2590.82419	0.03366
2589.53842	0.03353
2588.25265	0.03346
2586.96688	0.03333
2585.68111	0.03309
2584.39534	0.03275
2583.10957	0.03232
2581.82380	0.03183
2580.53804	0.03144
2579.25227	0.03131
2577.96650	0.03147
2576.68073	0.03173
2575.39496	0.03185
2574.10919	0.03171
2572.82342	0.03136
2571.53765	0.03095
2570.25188	0.03064
2568.96612	0.03049
2567.68035	0.03044
2566.39458	0.03039
2565.10881	0.03030
2563.82304	0.03024
2562.53727	0.03027
2561.25150	0.03030
2559.96573	0.03023
2558.67997	0.03011
2557.39420	0.03008
2556.10843	0.03018
2554.82266	0.03035
2553.53689	0.03052
2552.25112	0.03063
2550.96535	0.03064
2549.67958	0.03060
2548.39381	0.03065
2547.10805	0.03090
2545.82228	0.03127
2544.53651	0.03150
2543.25074	0.03139
2541.96497	0.03101
2540.67920	0.03062
2539.39343	0.03047
2538.10766	0.03057
2536.82190	0.03063
2535.53613	0.03038
2534.25036	0.02985
2532.96459	0.02933
2531.67882	0.02904
2530.39305	0.02899
2529.10728	0.02900
2527.82151	0.02894
2526.53574	0.02888
2525.24998	0.02896
2523.96421	0.02927
2522.67844	0.02968
2521.39267	0.02990
2520.10690	0.02979
2518.82113	0.02951
2517.53536	0.02941
2516.24959	0.02962
2514.96383	0.02995
2513.67806	0.03020
2512.39229	0.03027
2511.10652	0.03013
2509.82075	0.02976
2508.53498	0.02926
2507.24921	0.02891
2505.96344	0.02882
2504.67767	0.02888
2503.39191	0.02896
2502.10614	0.02907
2500.82037	0.02921
2499.53460	0.02930
2498.24883	0.02924
2496.96306	0.02900
2495.67729	0.02864
2494.39152	0.02833
2493.10576	0.02827
2491.81999	0.02851
2490.53422	0.02883
2489.24845	0.02891
2487.96268	0.02860
2486.67691	0.02809
2485.39114	0.02785
2484.10537	0.02814
2482.81960	0.02878
2481.53384	0.02925
2480.24807	0.02924
2478.96230	0.02882
2477.67653	0.02835
2476.39076	0.02807
2475.10499	0.02796
2473.81922	0.02786
2472.53345	0.02765
2471.24769	0.02740
2469.96192	0.02723
2468.67615	0.02724
2467.39038	0.02742
2466.10461	0.02768
2464.81884	0.02787
2463.53307	0.02795
2462.24730	0.02803
2460.96153	0.02827
2459.67577	0.02870
2458.39000	0.02911
2457.10423	0.02926
2455.81846	0.02905
2454.53269	0.02865
2453.24692	0.02832
2451.96115	0.02820
2450.67538	0.02822
2449.38962	0.02835
2448.10385	0.02860
2446.81808	0.02883
2445.53231	0.02880
2444.24654	0.02853
2442.96077	0.02830
2441.67500	0.02834
2440.38923	0.02848
2439.10346	0.02842
2437.81770	0.02812
2436.53193	0.02780
2435.24616	0.02771
2433.96039	0.02784
2432.67462	0.02800
2431.38885	0.02799
2430.10308	0.02776
2428.81731	0.02742
2427.53155	0.02710
2426.24578	0.02683
2424.96001	0.02663
2423.67424	0.02656
2422.38847	0.02674
2421.10270	0.02709
2419.81693	0.02733
2418.53116	0.02718
2417.24539	0.02670
2415.95963	0.02619
2414.67386	0.02589
2413.38809	0.02586
2412.10232	0.02607
2410.81655	0.02642
2409.53078	0.02678
2408.24501	0.02699
2406.95924	0.02703
2405.67347	0.02702
2404.38771	0.02703
2403.10194	0.02706
2401.81617	0.02698
2400.53040	0.02677
2399.24463	0.02652
2397.95886	0.02645
2396.67309	0.02663
2395.38732	0.02692
2394.10156	0.02715
2392.81579	0.02721
2391.53002	0.02714
2390.24425	0.02701
2388.95848	0.02690
2387.67271	0.02688
2386.38694	0.02694
2385.10117	0.02697
2383.81540	0.02686
2382.52964	0.02670
2381.24387	0.02664
2379.95810	0.02677
2378.67233	0.02691
2377.38656	0.02697
2376.10079	0.02699
2374.81502	0.02696
2373.52925	0.02664
2372.24349	0.02607
2370.95772	0.02557
2369.67195	0.02535
2368.38618	0.02531
2367.10041	0.02521
2365.81464	0.02507
2364.52887	0.02486
2363.24310	0.02467
2361.95733	0.02455
2360.67157	0.02443
2359.38580	0.02448
2358.10003	0.02490
2356.81426	0.02562
2355.52849	0.02646
2354.24272	0.02723
2352.95695	0.02775
2351.67118	0.02783
2350.38542	0.02769
2349.09965	0.02762
2347.81388	0.02746
2346.52811	0.02696
2345.24234	0.02657
2343.95657	0.02686
2342.67080	0.02758
2341.38503	0.02742
2340.09926	0.02645
2338.81350	0.02623
2337.52773	0.02676
2336.24196	0.02647
2334.95619	0.02570
2333.67042	0.02590
2332.38465	0.02668
2331.09888	0.02636
2329.81311	0.02631
2328.52735	0.02723
2327.24158	0.02773
2325.95581	0.02798
2324.67004	0.02853
2323.38427	0.02875
2322.09850	0.02823
2320.81273	0.02790
2319.52696	0.02759
2318.24119	0.02726
2316.95543	0.02711
2315.66966	0.02689
2314.38389	0.02679
2313.09812	0.02690
2311.81235	0.02692
2310.52658	0.02690
2309.24081	0.02673
2307.95504	0.02627
2306.66928	0.02573
2305.38351	0.02521
2304.09774	0.02484
2302.81197	0.02474
2301.52620	0.02485
2300.24043	0.02512
2298.95466	0.02531
2297.66889	0.02531
2296.38312	0.02519
2295.09736	0.02518
2293.81159	0.02541
2292.52582	0.02571
2291.24005	0.02586
2289.95428	0.02576
2288.66851	0.02554
2287.38274	0.02535
2286.09697	0.02528
2284.81121	0.02531
2283.52544	0.02534
2282.23967	0.02521
2280.95390	0.02481
2279.66813	0.02415
2278.38236	0.02340
2277.09659	0.02275
2275.81082	0.02231
2274.52505	0.02212
2273.23929	0.02216
2271.95352	0.02237
2270.66775	0.02262
2269.38198	0.02274
2268.09621	0.02261
2266.81044	0.02226
2265.52467	0.02176
2264.23890	0.02124
2262.95314	0.02092
2261.66737	0.02103
2260.38160	0.02167
2259.09583	0.02258
2257.81006	0.02317
2256.52429	0.02294
2255.23852	0.02191
2253.95275	0.02059
2252.66698	0.01951
2251.38122	0.01891
2250.09545	0.01867
2248.80968	0.01869
2247.52391	0.01885
2246.23814	0.01922
2244.95237	0.01959
2243.66660	0.01966
2242.38083	0.01932
2241.09507	0.01875
2239.80930	0.01820
2238.52353	0.01777
2237.23776	0.01740
2235.95199	0.01705
2234.66622	0.01682
2233.38045	0.01685
2232.09468	0.01709
2230.80891	0.01740
2229.52315	0.01762
2228.23738	0.01769
2226.95161	0.01760
2225.66584	0.01743
2224.38007	0.01729
2223.09430	0.01708
2221.80853	0.01653
2220.52276	0.01546
2219.23700	0.01422
2217.95123	0.01347
2216.66546	0.01360
2215.37969	0.01445
2214.09392	0.01555
2212.80815	0.01649
2211.52238	0.01693
2210.23661	0.01658
2208.95084	0.01547
2207.66508	0.01406
2206.37931	0.01303
2205.09354	0.01270
2203.80777	0.01287
2202.52200	0.01303
2201.23623	0.01282
2199.95046	0.01236
2198.66469	0.01198
2197.37893	0.01197
2196.09316	0.01232
2194.80739	0.01288
2193.52162	0.01348
2192.23585	0.01383
2190.95008	0.01373
2189.66431	0.01341
2188.37854	0.01346
2187.09277	0.01418
2185.80701	0.01514
2184.52124	0.01571
2183.23547	0.01568
2181.94970	0.01527
2180.66393	0.01460
2179.37816	0.01365
2178.09239	0.01261
2176.80662	0.01191
2175.52085	0.01181
2174.23509	0.01212
2172.94932	0.01229
2171.66355	0.01191
2170.37778	0.01105
2169.09201	0.01028
2167.80624	0.01008
2166.52047	0.01034
2165.23470	0.01036
2163.94894	0.00948
2162.66317	0.00764
2161.37740	0.00538
2160.09163	0.00344
2158.80586	0.00233
2157.52009	0.00213
2156.23432	0.00275
2154.94855	0.00400
2153.66278	0.00557
2152.37702	0.00704
2151.09125	0.00815
2149.80548	0.00891
2148.51971	0.00938
2147.23394	0.00957
2145.94817	0.00944
2144.66240	0.00916
2143.37663	0.00904
2142.09087	0.00930
2140.80510	0.00981
2139.51933	0.01024
2138.23356	0.01046
2136.94779	0.01060
2135.66202	0.01079
2134.37625	0.01100
2133.09048	0.01119
2131.80471	0.01137
2130.51895	0.01149
2129.23318	0.01158
2127.94741	0.01177
2126.66164	0.01218
2125.37587	0.01270
2124.09010	0.01313
2122.80433	0.01343
2121.51856	0.01370
2120.23280	0.01395
2118.94703	0.01406
2117.66126	0.01398
2116.37549	0.01386
2115.08972	0.01384
2113.80395	0.01389
2112.51818	0.01392
2111.23241	0.01407
2109.94664	0.01453
2108.66088	0.01527
2107.37511	0.01593
2106.08934	0.01617
2104.80357	0.01592
2103.51780	0.01534
2102.23203	0.01458
2100.94626	0.01392
2099.66049	0.01610
2098.37473	0.01718
2097.08896	0.01709
2095.80319	0.01666
2094.51742	0.01608
2093.23165	0.01554
2091.94588	0.01525
2090.66011	0.01521
2089.37434	0.01516
2088.08857	0.01487
2086.80281	0.01434
2085.51704	0.01381
2084.23127	0.01351
2082.94550	0.01352
2081.65973	0.01378
2080.37396	0.01417
2079.08819	0.01457
2077.80242	0.01490
2076.51666	0.01517
2075.23089	0.01546
2073.94512	0.01577
2072.65935	0.01607
2071.37358	0.01626
2070.08781	0.01632
2068.80204	0.01620
2067.51627	0.01580
2066.23050	0.01500
2064.94474	0.01386
2063.65897	0.01261
2062.37320	0.01151
2061.08743	0.01066
2059.80166	0.01010
2058.51589	0.00985
2057.23012	0.00991
2055.94435	0.01011
2054.65859	0.01035
2053.37282	0.01073
2052.08705	0.01153
2050.80128	0.01272
2049.51551	0.01386
2048.22974	0.01442
2046.94397	0.01426
2045.65820	0.01357
2044.37243	0.01248
2043.08667	0.01107
2041.80090	0.00947
2040.51513	0.00802
2039.22936	0.00708
2037.94359	0.00686
2036.65782	0.00734
2035.37205	0.00822
2034.08628	0.00916
2032.80052	0.00979
2031.51475	0.00992
2030.22898	0.00953
2028.94321	0.00893
2027.65744	0.00852
2026.37167	0.00841
2025.08590	0.00828
2023.80013	0.00781
2022.51436	0.00714
2021.22860	0.00679
2019.94283	0.00704
2018.65706	0.00774
2017.37129	0.00855
2016.08552	0.00922
2014.79975	0.00969
2013.51398	0.00995
2012.22821	0.01004
2010.94245	0.01016
2009.65668	0.01057
2008.37091	0.01128
2007.08514	0.01186
2005.79937	0.01182
2004.51360	0.01123
2003.22783	0.01071
2001.94206	0.01076
2000.65629	0.01117
1999.37053	0.01127
1998.08476	0.01070
1996.79899	0.00978
1995.51322	0.00913
1994.22745	0.00914
1992.94168	0.00967
1991.65591	0.01030
1990.37014	0.01063
1989.08438	0.01055
1987.79861	0.01017
1986.51284	0.00978
1985.22707	0.00972
1983.94130	0.01030
1982.65553	0.01174
1981.36976	0.01395
1980.08399	0.01630
1978.79822	0.01786
1977.51246	0.01800
1976.22669	0.01691
1974.94092	0.01546
1973.65515	0.01452
1972.36938	0.01443
1971.08361	0.01488
1969.79784	0.01525
1968.51207	0.01508
1967.22631	0.01447
1965.94054	0.01379
1964.65477	0.01330
1963.36900	0.01296
1962.08323	0.01273
1960.79746	0.01268
1959.51169	0.01288
1958.22592	0.01318
1956.94015	0.01331
1955.65439	0.01317
1954.36862	0.01301
1953.08285	0.01318
1951.79708	0.01373
1950.51131	0.01440
1949.22554	0.01494
1947.93977	0.01524
1946.65400	0.01528
1945.36823	0.01522
1944.08247	0.01531
1942.79670	0.01573
1941.51093	0.01630
1940.22516	0.01653
1938.93939	0.01607
1937.65362	0.01509
1936.36785	0.01417
1935.08208	0.01389
1933.79632	0.01437
1932.51055	0.01525
1931.22478	0.01606
1929.93901	0.01644
1928.65324	0.01632
1927.36747	0.01582
1926.08170	0.01522
1924.79593	0.01480
1923.51016	0.01469
1922.22440	0.01481
1920.93863	0.01503
1919.65286	0.01529
1918.36709	0.01562
1917.08132	0.01597
1915.79555	0.01625
1914.50978	0.01636
1913.22401	0.01636
1911.93825	0.01631
1910.65248	0.01627
1909.36671	0.01625
1908.08094	0.01631
1906.79517	0.01646
1905.50940	0.01660
1904.22363	0.01665
1902.93786	0.01668
1901.65209	0.01685
1900.36633	0.01718
1899.08056	0.01749
1897.79479	0.01752
1896.50902	0.01725
1895.22325	0.01683
1893.93748	0.01642
1892.65171	0.01605
1891.36594	0.01575
1890.08018	0.01561
1888.79441	0.01562
1887.50864	0.01569
1886.22287	0.01573
1884.93710	0.01576
1883.65133	0.01592
1882.36556	0.01625
1881.07979	0.01664
1879.79402	0.01697
1878.50826	0.01718
1877.22249	0.01723
1875.93672	0.01711
1874.65095	0.01682
1873.36518	0.01648
1872.07941	0.01622
1870.79364	0.01613
1869.50787	0.01615
1868.22211	0.01618
1866.93634	0.01620
1865.65057	0.01625
1864.36480	0.01634
1863.07903	0.01639
1861.79326	0.01636
1860.50749	0.01629
1859.22172	0.01625
1857.93595	0.01625
1856.65019	0.01623
1855.36442	0.01616
1854.07865	0.01613
1852.79288	0.01622
1851.50711	0.01641
1850.22134	0.01660
1848.93557	0.01674
1847.64980	0.01687
1846.36404	0.01707
1845.07827	0.01729
1843.79250	0.01743
1842.50673	0.01742
1841.22096	0.01726
1839.93519	0.01697
1838.64942	0.01662
1837.36365	0.01628
1836.07788	0.01605
1834.79212	0.01601
1833.50635	0.01613
1832.22058	0.01635
1830.93481	0.01656
1829.64904	0.01674
1828.36327	0.01693
1827.07750	0.01718
1825.79173	0.01750
1824.50597	0.01788
1823.22020	0.01826
1821.93443	0.01860
1820.64866	0.01879
1819.36289	0.01870
1818.07712	0.01826
1816.79135	0.01754
1815.50558	0.01678
1814.21981	0.01619
1812.93405	0.01587
1811.64828	0.01576
1810.36251	0.01574
1809.07674	0.01576
1807.79097	0.01580
1806.50520	0.01587
1805.21943	0.01598
1803.93366	0.01612
1802.64790	0.01627
1801.36213	0.01640
1800.07636	0.01652
1798.79059	0.01669
1797.50482	0.01689
1796.21905	0.01708
1794.93328	0.01720
1793.64751	0.01726
1792.36174	0.01730
1791.07598	0.01735
1789.79021	0.01739
1788.50444	0.01742
1787.21867	0.01744
1785.93290	0.01748
1784.64713	0.01752
1783.36136	0.01755
1782.07559	0.01759
1780.78983	0.01762
1779.50406	0.01765
1778.21829	0.01762
1776.93252	0.01754
1775.64675	0.01743
1774.36098	0.01731
1773.07521	0.01725
1771.78944	0.01726
1770.50367	0.01732
1769.21791	0.01734
1767.93214	0.01731
1766.64637	0.01724
1765.36060	0.01722
1764.07483	0.01730
1762.78906	0.01746
1761.50329	0.01762
1760.21752	0.01772
1758.93176	0.01775
1757.64599	0.01772
1756.36022	0.01765
1755.07445	0.01759
1753.78868	0.01757
1752.50291	0.01759
1751.21714	0.01762
1749.93137	0.01763
1748.64560	0.01759
1747.35984	0.01753
1746.07407	0.01747
1744.78830	0.01743
1743.50253	0.01745
1742.21676	0.01752
1740.93099	0.01760
1739.64522	0.01767
1738.35945	0.01774
1737.07369	0.01788
1735.78792	0.01810
1734.50215	0.01836
1733.21638	0.01853
1731.93061	0.01857
1730.64484	0.01852
1729.35907	0.01846
1728.07330	0.01843
1726.78753	0.01841
1725.50177	0.01842
1724.21600	0.01849
1722.93023	0.01863
1721.64446	0.01887
1720.35869	0.01919
1719.07292	0.01957
1717.78715	0.01994
1716.50138	0.02023
1715.21561	0.02044
1713.92985	0.02066
1712.64408	0.02095
1711.35831	0.02134
1710.07254	0.02180
1708.78677	0.02230
1707.50100	0.02284
1706.21523	0.02342
1704.92946	0.02406
1703.64370	0.02476
1702.35793	0.02552
1701.07216	0.02631
1699.78639	0.02710
1698.50062	0.02788
1697.21485	0.02867
1695.92908	0.02947
1694.64331	0.03024
1693.35754	0.03101
1692.07178	0.03180
1690.78601	0.03266
1689.50024	0.03360
1688.21447	0.03461
1686.92870	0.03565
1685.64293	0.03667
1684.35716	0.03760
1683.07139	0.03842
1681.78563	0.03919
1680.49986	0.04001
1679.21409	0.04092
1677.92832	0.04191
1676.64255	0.04289
1675.35678	0.04382
1674.07101	0.04470
1672.78524	0.04564
1671.49947	0.04666
1670.21371	0.04769
1668.92794	0.04859
1667.64217	0.04936
1666.35640	0.05010
1665.07063	0.05092
1663.78486	0.05182
1662.49909	0.05270
1661.21332	0.05349
1659.92756	0.05414
1658.64179	0.05470
1657.35602	0.05525
1656.07025	0.05590
1654.78448	0.05665
1653.49871	0.05733
1652.21294	0.05778
1650.92717	0.05799
1649.64140	0.05812
1648.35564	0.05835
1647.06987	0.05867
1645.78410	0.05896
1644.49833	0.05910
1643.21256	0.05909
1641.92679	0.05898
1640.64102	0.05885
1639.35525	0.05875
1638.06949	0.05869
1636.78372	0.05864
1635.49795	0.05849
1634.21218	0.05815
1632.92641	0.05765
1631.64064	0.05710
1630.35487	0.05658
1629.06910	0.05614
1627.78333	0.05573
1626.49757	0.05532
1625.21180	0.05484
1623.92603	0.05425
1622.64026	0.05355
1621.35449	0.05280
1620.06872	0.05213
1618.78295	0.05159
1617.49718	0.05117
1616.21142	0.05077
1614.92565	0.05036
1613.63988	0.04994
1612.35411	0.04959
1611.06834	0.04931
1609.78257	0.04911
1608.49680	0.04891
1607.21103	0.04869
1605.92526	0.04844
1604.63950	0.04821
1603.35373	0.04807
1602.06796	0.04800
1600.78219	0.04797
1599.49642	0.04793
1598.21065	0.04791
1596.92488	0.04794
1595.63911	0.04800
1594.35335	0.04808
1593.06758	0.04819
1591.78181	0.04833
1590.49604	0.04853
1589.21027	0.04877
1587.92450	0.04898
1586.63873	0.04913
1585.35296	0.04924
1584.06719	0.04934
1582.78143	0.04948
1581.49566	0.04970
1580.20989	0.05000
1578.92412	0.05040
1577.63835	0.05085
1576.35258	0.05128
1575.06681	0.05164
1573.78104	0.05193
1572.49528	0.05222
1571.20951	0.05255
1569.92374	0.05289
1568.63797	0.05320
1567.35220	0.05346
1566.06643	0.05370
1564.78066	0.05395
1563.49489	0.05426
1562.20912	0.05463
1560.92336	0.05508
1559.63759	0.05551
1558.35182	0.05582
1557.06605	0.05597
1555.78028	0.05601
1554.49451	0.05602
1553.20874	0.05604
1551.92297	0.05610
1550.63721	0.05620
1549.35144	0.05637
1548.06567	0.05656
1546.77990	0.05671
1545.49413	0.05679
1544.20836	0.05679
1542.92259	0.05674
1541.63682	0.05668
1540.35105	0.05661
1539.06529	0.05651
1537.77952	0.05639
1536.49375	0.05625
1535.20798	0.05616
1533.92221	0.05613
1532.63644	0.05618
1531.35067	0.05630
1530.06490	0.05650
1528.77914	0.05676
1527.49337	0.05706
1526.20760	0.05738
1524.92183	0.05774
1523.63606	0.05817
1522.35029	0.05868
1521.06452	0.05922
1519.77875	0.05977
1518.49298	0.06030
1517.20722	0.06086
1515.92145	0.06147
1514.63568	0.06214
1513.34991	0.06289
1512.06414	0.06372
1510.77837	0.06466
1509.49260	0.06570
1508.20683	0.06678
1506.92107	0.06781
1505.63530	0.06867
1504.34953	0.06935
1503.06376	0.06994
1501.77799	0.07055
1500.49222	0.07127
1499.20645	0.07208
1497.92068	0.07289
1496.63491	0.07361
1495.34915	0.07418
1494.06338	0.07466
1492.77761	0.07516
1491.49184	0.07573
1490.20607	0.07639
1488.92030	0.07708
1487.63453	0.07779
1486.34876	0.07856
1485.06299	0.07945
1483.77723	0.08048
1482.49146	0.08163
1481.20569	0.08285
1479.91992	0.08407
1478.63415	0.08526
1477.34838	0.08638
1476.06261	0.08744
1474.77684	0.08842
1473.49108	0.08933
1472.20531	0.09012
1470.91954	0.09078
1469.63377	0.09133
1468.34800	0.09182
1467.06223	0.09227
1465.77646	0.09268
1464.49069	0.09306
1463.20492	0.09348
1461.91916	0.09399
1460.63339	0.09461
1459.34762	0.09533
1458.06185	0.09610
1456.77608	0.09683
1455.49031	0.09749
1454.20454	0.09802
1452.91877	0.09843
1451.63301	0.09877
1450.34724	0.09907
1449.06147	0.09930
1447.77570	0.09941
1446.48993	0.09936
1445.20416	0.09916
1443.91839	0.09886
1442.63262	0.09850
1441.34685	0.09810
1440.06109	0.09769
1438.77532	0.09733
1437.48955	0.09710
1436.20378	0.09702
1434.91801	0.09715
1433.63224	0.09748
1432.34647	0.09801
1431.06070	0.09873
1429.77494	0.09960
1428.48917	0.10061
1427.20340	0.10177
1425.91763	0.10309
1424.63186	0.10454
1423.34609	0.10605
1422.06032	0.10754
1420.77455	0.10893
1419.48878	0.11017
1418.20302	0.11127
1416.91725	0.11222
1415.63148	0.11301
1414.34571	0.11361
1413.05994	0.11400
1411.77417	0.11421
1410.48840	0.11425
1409.20263	0.11408
1407.91687	0.11369
1406.63110	0.11307
1405.34533	0.11227
1404.05956	0.11129
1402.77379	0.11013
1401.48802	0.10878
1400.20225	0.10726
1398.91648	0.10560
1397.63071	0.10380
1396.34495	0.10191
1395.05918	0.09997
1393.77341	0.09799
1392.48764	0.09599
1391.20187	0.09399
1389.91610	0.09201
1388.63033	0.09003
1387.34456	0.08802
1386.05880	0.08594
1384.77303	0.08379
1383.48726	0.08166
1382.20149	0.07960
1380.91572	0.07761
1379.62995	0.07563
1378.34418	0.07357
1377.05841	0.07143
1375.77264	0.06930
1374.48688	0.06723
1373.20111	0.06525
1371.91534	0.06332
1370.62957	0.06141
1369.34380	0.05953
1368.05803	0.05774
1366.77226	0.05607
1365.48649	0.05452
1364.20073	0.05306
1362.91496	0.05168
1361.62919	0.05040
1360.34342	0.04919
1359.05765	0.04806
1357.77188	0.04702
1356.48611	0.04607
1355.20034	0.04519
1353.91457	0.04433
1352.62881	0.04350
1351.34304	0.04274
1350.05727	0.04207
1348.77150	0.04144
1347.48573	0.04082
1346.19996	0.04019
1344.91419	0.03960
1343.62842	0.03906
1342.34266	0.03858
1341.05689	0.03815
1339.77112	0.03777
1338.48535	0.03744
1337.19958	0.03714
1335.91381	0.03683
1334.62804	0.03647
1333.34227	0.03608
1332.05650	0.03567
1330.77074	0.03525
1329.48497	0.03482
1328.19920	0.03442
1326.91343	0.03405
1325.62766	0.03371
1324.34189	0.03340
1323.05612	0.03309
1321.77035	0.03278
1320.48459	0.03247
1319.19882	0.03216
1317.91305	0.03185
1316.62728	0.03155
1315.34151	0.03125
1314.05574	0.03095
1312.76997	0.03066
1311.48420	0.03040
1310.19843	0.03017
1308.91267	0.03000
1307.62690	0.02986
1306.34113	0.02973
1305.05536	0.02957
1303.76959	0.02937
1302.48382	0.02913
1301.19805	0.02882
1299.91228	0.02848
1298.62652	0.02814
1297.34075	0.02785
1296.05498	0.02764
1294.76921	0.02750
1293.48344	0.02740
1292.19767	0.02731
1290.91190	0.02724
1289.62613	0.02717
1288.34036	0.02710
1287.05460	0.02702
1285.76883	0.02692
1284.48306	0.02681
1283.19729	0.02669
1281.91152	0.02656
1280.62575	0.02640
1279.33998	0.02623
1278.05421	0.02607
1276.76845	0.02595
1275.48268	0.02585
1274.19691	0.02574
1272.91114	0.02561
1271.62537	0.02547
1270.33960	0.02535
1269.05383	0.02526
1267.76806	0.02521
1266.48229	0.02520
1265.19653	0.02520
1263.91076	0.02517
1262.62499	0.02513
1261.33922	0.02507
1260.05345	0.02502
1258.76768	0.02495
1257.48191	0.02485
1256.19614	0.02475
1254.91037	0.02469
1253.62461	0.02468
1252.33884	0.02471
1251.05307	0.02472
1249.76730	0.02470
1248.48153	0.02466
1247.19576	0.02460
1245.90999	0.02453
1244.62422	0.02444
1243.33846	0.02432
1242.05269	0.02421
1240.76692	0.02413
1239.48115	0.02408
1238.19538	0.02405
1236.90961	0.02400
1235.62384	0.02390
1234.33807	0.02375
1233.05230	0.02357
1231.76654	0.02337
1230.48077	0.02317
1229.19500	0.02297
1227.90923	0.02275
1226.62346	0.02250
1225.33769	0.02223
1224.05192	0.02197
1222.76615	0.02172
1221.48039	0.02150
1220.19462	0.02128
1218.90885	0.02106
1217.62308	0.02084
1216.33731	0.02062
1215.05154	0.02043
1213.76577	0.02029
1212.48000	0.02020
1211.19423	0.02015
1209.90847	0.02015
1208.62270	0.02023
1207.33693	0.02036
1206.05116	0.02049
1204.76539	0.02056
1203.47962	0.02059
1202.19385	0.02061
1200.90808	0.02049
1199.62232	0.02013
1198.33655	0.02009
1197.05078	0.02001
1195.76501	0.01989
1194.47924	0.01977
1193.19347	0.01964
1191.90770	0.01952
1190.62193	0.01939
1189.33616	0.01928
1188.05040	0.01919
1186.76463	0.01911
1185.47886	0.01903
1184.19309	0.01895
1182.90732	0.01887
1181.62155	0.01883
1180.33578	0.01885
1179.05001	0.01892
1177.76425	0.01901
1176.47848	0.01907
1175.19271	0.01908
1173.90694	0.01906
1172.62117	0.01904
1171.33540	0.01907
1170.04963	0.01919
1168.76386	0.01939
1167.47809	0.01963
1166.19233	0.01988
1164.90656	0.02008
1163.62079	0.02024
1162.33502	0.02040
1161.04925	0.02056
1159.76348	0.02073
1158.47771	0.02092
1157.19194	0.02113
1155.90618	0.02135
1154.62041	0.02158
1153.33464	0.02182
1152.04887	0.02210
1150.76310	0.02245
1149.47733	0.02286
1148.19156	0.02330
1146.90579	0.02378
1145.62002	0.02431
1144.33426	0.02491
1143.04849	0.02556
1141.76272	0.02625
1140.47695	0.02702
1139.19118	0.02792
1137.90541	0.02894
1136.61964	0.03009
1135.33387	0.03140
1134.04811	0.03291
1132.76234	0.03460
1131.47657	0.03641
1130.19080	0.03830
1128.90503	0.04035
1127.61926	0.04262
1126.33349	0.04511
1125.04772	0.04778
1123.76195	0.05055
1122.47619	0.05341
1121.19042	0.05640
1119.90465	0.05954
1118.61888	0.06278
1117.33311	0.06605
1116.04734	0.06935
1114.76157	0.07268
1113.47580	0.07606
1112.19004	0.07945
1110.90427	0.08285
1109.61850	0.08622
1108.33273	0.08954
1107.04696	0.09279
1105.76119	0.09598
1104.47542	0.09911
1103.18965	0.10215
1101.90388	0.10506
1100.61812	0.10785
1099.33235	0.11056
1098.04658	0.11321
1096.76081	0.11581
1095.47504	0.11832
1094.18927	0.12072
1092.90350	0.12300
1091.61773	0.12516
1090.33197	0.12721
1089.04620	0.12918
1087.76043	0.13111
1086.47466	0.13305
1085.18889	0.13500
1083.90312	0.13699
1082.61735	0.13906
1081.33158	0.14123
1080.04581	0.14354
1078.76005	0.14600
1077.47428	0.14859
1076.18851	0.15129
1074.90274	0.15412
1073.61697	0.15710
1072.33120	0.16021
1071.04543	0.16339
1069.75966	0.16661
1068.47390	0.16991
1067.18813	0.17334
1065.90236	0.17690
1064.61659	0.18056
1063.33082	0.18430
1062.04505	0.18804
1060.75928	0.19171
1059.47351	0.19526
1058.18774	0.19870
1056.90198	0.20212
1055.61621	0.20552
1054.33044	0.20888
1053.04467	0.21216
1051.75890	0.21542
1050.47313	0.21875
1049.18736	0.22222
1047.90159	0.22586
1046.61583	0.22961
1045.33006	0.23343
1044.04429	0.23724
1042.75852	0.24105
1041.47275	0.24484
1040.18698	0.24866
1038.90121	0.25252
1037.61544	0.25644
1036.32967	0.26037
1035.04391	0.26422
1033.75814	0.26790
1032.47237	0.27135
1031.18660	0.27458
1029.90083	0.27758
1028.61506	0.28033
1027.32929	0.28280
1026.04352	0.28499
1024.75775	0.28686
1023.47199	0.28833
1022.18622	0.28931
1020.90045	0.28978
1019.61468	0.28974
1018.32891	0.28924
1017.04314	0.28834
1015.75737	0.28701
1014.47160	0.28519
1013.18584	0.28284
1011.90007	0.27997
1010.61430	0.27659
1009.32853	0.27270
1008.04276	0.26829
1006.75699	0.26340
1005.47122	0.25814
1004.18545	0.25253
1002.89968	0.24655
1001.61392	0.24014
1000.32815	0.23331
999.04238	0.22618
997.75661	0.21891
996.47084	0.21160
995.18507	0.20428
993.89930	0.19694
992.61353	0.18960
991.32777	0.18237
990.04200	0.17537
988.75623	0.16862
987.47046	0.16209
986.18469	0.15573
984.89892	0.14960
983.61315	0.14380
982.32738	0.13836
981.04161	0.13326
979.75585	0.12843
978.47008	0.12384
977.18431	0.11957
975.89854	0.11571
974.61277	0.11233
973.32700	0.10948
972.04123	0.10721
970.75546	0.10556
969.46970	0.10453
968.18393	0.10411
966.89816	0.10427
965.61239	0.10493
964.32662	0.10592
963.04085	0.10697
961.75508	0.10776
960.46931	0.10803
959.18354	0.10765
957.89778	0.10656
956.61201	0.10481
955.32624	0.10249
954.04047	0.09978
952.75470	0.09690
951.46893	0.09403
950.18316	0.09128
948.89739	0.08867
947.61163	0.08618
946.32586	0.08379
945.04009	0.08152
943.75432	0.07940
942.46855	0.07739
941.18278	0.07540
939.89701	0.07339
938.61124	0.07142
937.32547	0.06958
936.03971	0.06792
934.75394	0.06641
933.46817	0.06501
932.18240	0.06371
930.89663	0.06247
929.61086	0.06129
928.32509	0.06017
927.03932	0.05914
925.75356	0.05822
924.46779	0.05739
923.18202	0.05659
921.89625	0.05583
920.61048	0.05509
919.32471	0.05438
918.03894	0.05369
916.75317	0.05304
915.46740	0.05239
914.18164	0.05176
912.89587	0.05114
911.61010	0.05054
910.32433	0.04994
909.03856	0.04934
907.75279	0.04877
906.46702	0.04824
905.18125	0.04773
903.89549	0.04720
902.60972	0.04670
901.32395	0.04628
900.03818	0.04599
898.75241	0.04578
897.46664	0.04559
896.18087	0.04535
894.89510	0.04509
893.60933	0.04487
892.32357	0.04472
891.03780	0.04465
889.75203	0.04466
888.46626	0.04483
887.18049	0.04526
885.89472	0.04617
884.60895	0.04781
883.32318	0.05036
882.03742	0.05361
880.75165	0.05698
879.46588	0.05981
878.18011	0.06181
876.89434	0.06327
875.60857	0.06469
874.32280	0.06626
873.03703	0.06772
871.75126	0.06862
870.46550	0.06866
869.17973	0.06782
867.89396	0.06626
866.60819	0.06421
865.32242	0.06186
864.03665	0.05938
862.75088	0.05690
861.46511	0.05458
860.17935	0.05252
858.89358	0.05078
857.60781	0.04934
856.32204	0.04815
855.03627	0.04714
853.75050	0.04623
852.46473	0.04540
851.17896	0.04467
849.89319	0.04409
848.60743	0.04366
847.32166	0.04331
846.03589	0.04295
844.75012	0.04257
843.46435	0.04223
842.17858	0.04194
840.89281	0.04170
839.60704	0.04143
838.32128	0.04108
837.03551	0.04061
835.74974	0.04011
834.46397	0.03973
833.17820	0.03956
831.89243	0.03954
830.60666	0.03951
829.32089	0.03939
828.03512	0.03919
826.74936	0.03897
825.46359	0.03877
824.17782	0.03863
822.89205	0.03858
821.60628	0.03858
820.32051	0.03851
819.03474	0.03830
817.74897	0.03801
816.46321	0.03780
815.17744	0.03783
813.89167	0.03803
812.60590	0.03824
811.32013	0.03830
810.03436	0.03817
808.74859	0.03793
807.46282	0.03770
806.17705	0.03756
804.89129	0.03753
803.60552	0.03754
802.31975	0.03754
801.03398	0.03749
799.74821	0.03737
798.46244	0.03722
797.17667	0.03709
795.89090	0.03701
794.60513	0.03698
793.31937	0.03697
792.03360	0.03695
790.74783	0.03697
789.46206	0.03706
788.17629	0.03715
786.89052	0.03715
785.60475	0.03700
784.31898	0.03673
783.03322	0.03642
781.74745	0.03616
780.46168	0.03608
779.17591	0.03620
777.89014	0.03644
776.60437	0.03670
775.31860	0.03687
774.03283	0.03693
772.74706	0.03686
771.46130	0.03669
770.17553	0.03650
768.88976	0.03639
767.60399	0.03641
766.31822	0.03653
765.03245	0.03668
763.74668	0.03677
762.46091	0.03680
761.17515	0.03682
759.88938	0.03688
758.60361	0.03696
757.31784	0.03700
756.03207	0.03698
754.74630	0.03694
753.46053	0.03691
752.17476	0.03692
750.88899	0.03696
749.60323	0.03700
748.31746	0.03702
747.03169	0.03700
745.74592	0.03695
744.46015	0.03686
743.17438	0.03671
741.88861	0.03651
740.60284	0.03632
739.31708	0.03621
738.03131	0.03626
736.74554	0.03645
735.45977	0.03670
734.17400	0.03683
732.88823	0.03674
731.60246	0.03649
730.31669	0.03627
729.03092	0.03620
727.74516	0.03629
726.45939	0.03648
725.17362	0.03669
723.88785	0.03681
722.60208	0.03686
721.31631	0.03680
720.03054	0.03667
718.74477	0.03656
717.45901	0.03655
716.17324	0.03665
714.88747	0.03681
713.60170	0.03693
712.31593	0.03698
711.03016	0.03700
709.74439	0.03703
708.45862	0.03707
707.17285	0.03708
705.88709	0.03704
704.60132	0.03697
703.31555	0.03691
702.02978	0.03691
700.74401	0.03697
699.45824	0.03707
698.17247	0.03717
696.88670	0.03724
695.60094	0.03724
694.31517	0.03720
693.02940	0.03714
691.74363	0.03711
690.45786	0.03708
689.17209	0.03706
687.88632	0.03701
686.60055	0.03694
685.31478	0.03684
684.02902	0.03674
682.74325	0.03664
681.45748	0.03659
680.17171	0.03655
678.88594	0.03653
677.60017	0.03649
676.31440	0.03644
675.02863	0.03641
673.74287	0.03644
672.45710	0.03651
671.17133	0.03659
669.88556	0.03665
668.59979	0.03673
667.31402	0.03682
666.02825	0.03680
664.74248	0.03662
663.45671	0.03629
662.17095	0.03595
660.88518	0.03570
659.59941	0.03560
658.31364	0.03558
657.02787	0.03553
655.74210	0.03542
654.45633	0.03529
653.17056	0.03520
651.88480	0.03519
650.59903	0.03525
649.31326	0.03533
648.02749	0.03537
646.74172	0.03538
645.45595	0.03537
644.17018	0.03536
642.88441	0.03538
641.59864	0.03544
640.31288	0.03552
639.02711	0.03562
637.74134	0.03574
636.45557	0.03592
635.16980	0.03620
633.88403	0.03652
632.59826	0.03679
631.31249	0.03734
630.02673	0.03974
628.74096	0.04335
627.45519	0.04218
626.16942	0.04678
624.88365	0.05546
623.59788	0.06405
622.31211	0.07061
621.02634	0.07414
619.74057	0.07470
618.45481	0.07349
617.16904	0.07181
615.88327	0.07043
614.59750	0.06980
613.31173	0.07072
612.02596	0.07433
610.74019	0.08115
609.45442	0.09021
608.16866	0.09939
606.88289	0.10703
605.59712	0.11258
604.31135	0.11609
603.02558	0.11762
601.73981	0.11729
600.45404	0.11537
599.16827	0.11224
597.88250	0.10834
596.59674	0.10421
595.31097	0.10035
594.02520	0.09712
592.73943	0.09466
591.45366	0.09292
590.16789	0.09180
588.88212	0.09127
587.59635	0.09135
586.31059	0.09205
585.02482	0.09329
583.73905	0.09501
582.45328	0.09715
581.16751	0.09967
579.88174	0.10253
578.59597	0.10562
577.31020	0.10887
576.02443	0.11217
574.73867	0.11548
573.45290	0.11876
572.16713	0.12206
570.88136	0.12549
569.59559	0.12919
568.30982	0.13318
567.02405	0.13727
565.73828	0.14111
564.45251	0.14427
563.16675	0.14638
561.88098	0.14716
560.59521	0.14648
559.30944	0.14426
558.02367	0.14056
556.73790	0.13556
555.45213	0.12965
554.16636	0.12329
552.88060	0.11693
551.59483	0.11088
550.30906	0.10531
549.02329	0.10018
547.73752	0.09541
546.45175	0.09097
545.16598	0.08692
543.88021	0.08333
542.59444	0.08018
541.30868	0.07735
540.02291	0.07472
538.73714	0.07217
537.45137	0.06968
536.16560	0.06732
534.87983	0.06521
533.59406	0.06338
532.30829	0.06179
531.02253	0.06036
529.73676	0.05902
528.45099	0.05771
527.16522	0.05644
525.87945	0.05523
524.59368	0.05412
523.30791	0.05307
522.02214	0.05196
520.73637	0.05074
519.45061	0.04950
518.16484	0.04842
516.87907	0.04760
515.59330	0.04695
514.30753	0.04630
513.02176	0.04557
511.73599	0.04479
510.45022	0.04401
509.16446	0.04327
507.87869	0.04254
506.59292	0.04180
505.30715	0.04103
504.02138	0.04029
502.73561	0.03963
501.44984	0.03907
500.16407	0.03857
498.87830	0.03807
497.59254	0.03752
496.30677	0.03696
495.02100	0.03644
493.73523	0.03601
492.44946	0.03571
491.16369	0.03554
489.87792	0.03547
488.59215	0.03548
487.30639	0.03550
486.02062	0.03543
484.73485	0.03521
483.44908	0.03493
482.16331	0.03473
480.87754	0.03467
479.59177	0.03469
478.30600	0.03471
477.02023	0.03471
475.73447	0.03476
474.44870	0.03491
473.16293	0.03511
471.87716	0.03528
470.59139	0.03531
469.30562	0.03520
468.01985	0.03500
466.73408	0.03477
465.44832	0.03453
464.16255	0.03424
462.87678	0.03389
461.59101	0.03349
460.30524	0.03305
459.01947	0.03260
457.73370	0.03215
456.44793	0.03171
455.16216	0.03129
453.87640	0.03088
452.59063	0.03048
451.30486	0.03010
450.01909	0.02976
448.73332	0.02950
447.44755	0.02933
446.16178	0.02918
444.87601	0.02899
443.59025	0.02872
442.30448	0.02842
441.01871	0.02814
439.73294	0.02792
438.44717	0.02776
437.16140	0.02765
435.87563	0.02757
434.58986	0.02748
433.30409	0.02736
432.01833	0.02722
430.73256	0.02711
429.44679	0.02702
428.16102	0.02691
426.87525	0.02676
425.58948	0.02656
424.30371	0.02634
423.01794	0.02613
421.73218	0.02592
420.44641	0.02569
419.16064	0.02545
417.87487	0.02521
416.58910	0.02500
415.30333	0.02481
414.01756	0.02463
412.73179	0.02446
411.44602	0.02432
410.16026	0.02425
408.87449	0.02427
407.58872	0.02435
406.30295	0.02442
405.01718	0.02442
403.73141	0.02436
402.44564	0.02430
401.15987	0.02428
399.87411	0.02431
