3997.45528	0.00490
3996.16951	0.00535
3994.88374	0.00575
3993.59798	0.00613
3992.31221	0.00661
3991.02644	0.00715
3989.74067	0.00746
3988.45490	0.00724
3987.16913	0.00652
3985.88336	0.00573
3984.59759	0.00538
3983.31183	0.00569
3982.02606	0.00642
3980.74029	0.00717
3979.45452	0.00765
3978.16875	0.00781
3976.88298	0.00774
3975.59721	0.00758
3974.31144	0.00754
3973.02567	0.00784
3971.73991	0.00859
3970.45414	0.00955
3969.16837	0.01033
3967.88260	0.01067
3966.59683	0.01058
3965.31106	0.01022
3964.02529	0.00978
3962.73952	0.00941
3961.45376	0.00926
3960.16799	0.00938
3958.88222	0.00972
3957.59645	0.01016
3956.31068	0.01058
3955.02491	0.01096
3953.73914	0.01136
3952.45337	0.01185
3951.16760	0.01244
3949.88184	0.01299
3948.59607	0.01325
3947.31030	0.01307
3946.02453	0.01251
3944.73876	0.01186
3943.45299	0.01142
3942.16722	0.01129
3940.88145	0.01135
3939.59569	0.01140
3938.30992	0.01130
3937.02415	0.01111
3935.73838	0.01096
3934.45261	0.01090
3933.16684	0.01092
3931.88107	0.01094
3930.59530	0.01104
3929.30953	0.01126
3928.02377	0.01161
3926.73800	0.01205
3925.45223	0.01269
3924.16646	0.01357
3922.88069	0.01446
3921.59492	0.01493
3920.30915	0.01473
3919.02338	0.01405
3917.73762	0.01341
3916.45185	0.01319
3915.16608	0.01341
3913.88031	0.01390
3912.59454	0.01447
3911.30877	0.01494
3910.02300	0.01513
3908.73723	0.01490
3907.45146	0.01441
3906.16570	0.01394
3904.87993	0.01372
3903.59416	0.01373
3902.30839	0.01379
3901.02262	0.01375
3899.73685	0.01358
3898.45108	0.01327
3897.16531	0.01293
3895.87955	0.01274
3894.59378	0.01295
3893.30801	0.01362
3892.02224	0.01447
3890.73647	0.01506
3889.45070	0.01522
3888.16493	0.01514
3886.87916	0.01520
3885.59339	0.01554
3884.30763	0.01601
3883.02186	0.01635
3881.73609	0.01639
3880.45032	0.01614
3879.16455	0.01561
3877.87878	0.01489
3876.59301	0.01425
3875.30724	0.01402
3874.02148	0.01436
3872.73571	0.01505
3871.44994	0.01563
3870.16417	0.01572
3868.87840	0.01535
3867.59263	0.01493
3866.30686	0.01479
3865.02109	0.01484
3863.73532	0.01477
3862.44956	0.01443
3861.16379	0.01402
3859.87802	0.01385
3858.59225	0.01412
3857.30648	0.01488
3856.02071	0.01586
3854.73494	0.01664
3853.44917	0.01687
3852.16341	0.01667
3850.87764	0.01649
3849.59187	0.01659
3848.30610	0.01693
3847.02033	0.01731
3845.73456	0.01765
3844.44879	0.01800
3843.16302	0.01830
3841.87725	0.01834
3840.59149	0.01799
3839.30572	0.01734
3838.01995	0.01667
3836.73418	0.01630
3835.44841	0.01641
3834.16264	0.01695
3832.87687	0.01750
3831.59110	0.01758
3830.30534	0.01711
3829.01957	0.01648
3827.73380	0.01614
3826.44803	0.01614
3825.16226	0.01634
3823.87649	0.01668
3822.59072	0.01721
3821.30495	0.01788
3820.01918	0.01845
3818.73342	0.01872
3817.44765	0.01872
3816.16188	0.01857
3814.87611	0.01829
3813.59034	0.01774
3812.30457	0.01691
3811.01880	0.01606
3809.73303	0.01554
3808.44726	0.01543
3807.16150	0.01555
3805.87573	0.01572
3804.58996	0.01597
3803.30419	0.01642
3802.01842	0.01700
3800.73265	0.01746
3799.44688	0.01765
3798.16111	0.01762
3796.87535	0.01754
3795.58958	0.01762
3794.30381	0.01787
3793.01804	0.01811
3791.73227	0.01804
3790.44650	0.01759
3789.16073	0.01711
3787.87496	0.01706
3786.58919	0.01749
3785.30343	0.01796
3784.01766	0.01804
3782.73189	0.01776
3781.44612	0.01751
3780.16035	0.01748
3778.87458	0.01746
3777.58881	0.01714
3776.30304	0.01649
3775.01728	0.01580
3773.73151	0.01541
3772.44574	0.01549
3771.15997	0.01599
3769.87420	0.01674
3768.58843	0.01751
3767.30266	0.01807
3766.01689	0.01813
3764.73112	0.01757
3763.44536	0.01666
3762.15959	0.01601
3760.87382	0.01599
3759.58805	0.01640
3758.30228	0.01667
3757.01651	0.01655
3755.73074	0.01628
3754.44497	0.01622
3753.15921	0.01650
3751.87344	0.01699
3750.58767	0.01740
3749.30190	0.01751
3748.01613	0.01740
3746.73036	0.01737
3745.44459	0.01755
3744.15882	0.01774
3742.87305	0.01755
3741.58729	0.01682
3740.30152	0.01583
3739.01575	0.01498
3737.72998	0.01438
3736.44421	0.01393
3735.15844	0.01360
3733.87267	0.01359
3732.58690	0.01380
3731.30114	0.01394
3730.01537	0.01380
3728.72960	0.01344
3727.44383	0.01332
3726.15806	0.01362
3724.87229	0.01408
3723.58652	0.01428
3722.30075	0.01375
3721.01498	0.01270
3719.72922	0.01197
3718.44345	0.01218
3717.15768	0.01321
3715.87191	0.01443
3714.58614	0.01536
3713.30037	0.01574
3712.01460	0.01518
3710.72883	0.01386
3709.44307	0.01266
3708.15730	0.01213
3706.87153	0.01232
3705.58576	0.01275
3704.29999	0.01294
3703.01422	0.01291
3701.72845	0.01281
3700.44268	0.01271
3699.15691	0.01256
3697.87115	0.01232
3696.58538	0.01214
3695.29961	0.01222
3694.01384	0.01275
3692.72807	0.01352
3691.44230	0.01449
3690.15653	0.01559
3688.87076	0.01639
3687.58500	0.01662
3686.29923	0.01641
3685.01346	0.01604
3683.72769	0.01593
3682.44192	0.01627
3681.15615	0.01688
3679.87038	0.01743
3678.58461	0.01774
3677.29884	0.01798
3676.01308	0.01836
3674.72731	0.01882
3673.44154	0.01885
3672.15577	0.01813
3670.87000	0.01696
3669.58423	0.01604
3668.29846	0.01594
3667.01269	0.01664
3665.72693	0.01766
3664.44116	0.01844
3663.15539	0.01877
3661.86962	0.01874
3660.58385	0.01875
3659.29808	0.01912
3658.01231	0.01983
3656.72654	0.02049
3655.44077	0.02075
3654.15501	0.02066
3652.86924	0.02060
3651.58347	0.02082
3650.29770	0.02122
3649.01193	0.02149
3647.72616	0.02145
3646.44039	0.02117
3645.15462	0.02074
3643.86886	0.02016
3642.58309	0.01955
3641.29732	0.01921
3640.01155	0.01944
3638.72578	0.02029
3637.44001	0.02145
3636.15424	0.02247
3634.86847	0.02316
3633.58270	0.02358
3632.29694	0.02400
3631.01117	0.02453
3629.72540	0.02495
3628.43963	0.02502
3627.15386	0.02469
3625.86809	0.02408
3624.58232	0.02333
3623.29655	0.02293
3622.01079	0.02331
3620.72502	0.02447
3619.43925	0.02576
3618.15348	0.02657
3616.86771	0.02689
3615.58194	0.02711
3614.29617	0.02761
3613.01040	0.02848
3611.72463	0.02932
3610.43887	0.02954
3609.15310	0.02909
3607.86733	0.02844
3606.58156	0.02810
3605.29579	0.02808
3604.01002	0.02826
3602.72425	0.02879
3601.43848	0.02961
3600.15272	0.03042
3598.86695	0.03097
3597.58118	0.03124
3596.29541	0.03120
3595.00964	0.03114
3593.72387	0.03121
3592.43810	0.03113
3591.15233	0.03094
3589.86656	0.03079
3588.58080	0.03076
3587.29503	0.03111
3586.00926	0.03167
3584.72349	0.03199
3583.43772	0.03195
3582.15195	0.03183
3580.86618	0.03198
3579.58041	0.03250
3578.29464	0.03318
3577.00888	0.03381
3575.72311	0.03426
3574.43734	0.03447
3573.15157	0.03452
3571.86580	0.03471
3570.58003	0.03531
3569.29426	0.03630
3568.00849	0.03731
3566.72273	0.03787
3565.43696	0.03793
3564.15119	0.03789
3562.86542	0.03818
3561.57965	0.03887
3560.29388	0.03964
3559.00811	0.04017
3557.72234	0.04044
3556.43657	0.04070
3555.15081	0.04115
3553.86504	0.04177
3552.57927	0.04243
3551.29350	0.04301
3550.00773	0.04345
3548.72196	0.04361
3547.43619	0.04340
3546.15042	0.04294
3544.86466	0.04249
3543.57889	0.04224
3542.29312	0.04223
3541.00735	0.04242
3539.72158	0.04272
3538.43581	0.04311
3537.15004	0.04368
3535.86427	0.04454
3534.57850	0.04560
3533.29274	0.04642
3532.00697	0.04662
3530.72120	0.04627
3529.43543	0.04587
3528.14966	0.04584
3526.86389	0.04621
3525.57812	0.04671
3524.29235	0.04716
3523.00659	0.04752
3521.72082	0.04781
3520.43505	0.04800
3519.14928	0.04801
3517.86351	0.04779
3516.57774	0.04744
3515.29197	0.04716
3514.00620	0.04716
3512.72043	0.04747
3511.43467	0.04798
3510.14890	0.04848
3508.86313	0.04874
3507.57736	0.04871
3506.29159	0.04857
3505.00582	0.04861
3503.72005	0.04897
3502.43428	0.04953
3501.14852	0.05005
3499.86275	0.05044
3498.57698	0.05069
3497.29121	0.05089
3496.00544	0.05111
3494.71967	0.05139
3493.43390	0.05167
3492.14813	0.05182
3490.86236	0.05181
3489.57660	0.05175
3488.29083	0.05178
3487.00506	0.05201
3485.71929	0.05247
3484.43352	0.05313
3483.14775	0.05378
3481.86198	0.05418
3480.57621	0.05422
3479.29045	0.05406
3478.00468	0.05400
3476.71891	0.05420
3475.43314	0.05452
3474.14737	0.05479
3472.86160	0.05494
3471.57583	0.05507
3470.29006	0.05537
3469.00429	0.05585
3467.71853	0.05631
3466.43276	0.05647
3465.14699	0.05629
3463.86122	0.05599
3462.57545	0.05578
3461.28968	0.05568
3460.00391	0.05558
3458.71814	0.05557
3457.43238	0.05588
3456.14661	0.05657
3454.86084	0.05737
3453.57507	0.05789
3452.28930	0.05803
3451.00353	0.05803
3449.71776	0.05807
3448.43199	0.05806
3447.14622	0.05781
3445.86046	0.05740
3444.57469	0.05715
3443.28892	0.05729
3442.00315	0.05781
3440.71738	0.05852
3439.43161	0.05915
3438.14584	0.05947
3436.86007	0.05937
3435.57431	0.05899
3434.28854	0.05866
3433.00277	0.05871
3431.71700	0.05921
3430.43123	0.05995
3429.14546	0.06065
3427.85969	0.06116
3426.57392	0.06141
3425.28815	0.06144
3424.00239	0.06130
3422.71662	0.06116
3421.43085	0.06124
3420.14508	0.06174
3418.85931	0.06252
3417.57354	0.06318
3416.28777	0.06333
3415.00200	0.06299
3413.71624	0.06257
3412.43047	0.06249
3411.14470	0.06286
3409.85893	0.06340
3408.57316	0.06370
3407.28739	0.06366
3406.00162	0.06355
3404.71585	0.06368
3403.43008	0.06398
3402.14432	0.06414
3400.85855	0.06391
3399.57278	0.06341
3398.28701	0.06299
3397.00124	0.06277
3395.71547	0.06265
3394.42970	0.06257
3393.14393	0.06267
3391.85817	0.06309
3390.57240	0.06386
3389.28663	0.06479
3388.00086	0.06563
3386.71509	0.06619
3385.42932	0.06636
3384.14355	0.06618
3382.85778	0.06578
3381.57201	0.06526
3380.28625	0.06476
3379.00048	0.06448
3377.71471	0.06449
3376.42894	0.06468
3375.14317	0.06479
3373.85740	0.06478
3372.57163	0.06484
3371.28586	0.06509
3370.00010	0.06549
3368.71433	0.06590
3367.42856	0.06625
3366.14279	0.06640
3364.85702	0.06619
3363.57125	0.06559
3362.28548	0.06494
3360.99971	0.06460
3359.71394	0.06466
3358.42818	0.06495
3357.14241	0.06527
3355.85664	0.06564
3354.57087	0.06620
3353.28510	0.06692
3351.99933	0.06757
3350.71356	0.06792
3349.42779	0.06788
3348.14202	0.06760
3346.85626	0.06727
3345.57049	0.06694
3344.28472	0.06664
3342.99895	0.06643
3341.71318	0.06637
3340.42741	0.06643
3339.14164	0.06645
3337.85587	0.06630
3336.57011	0.06605
3335.28434	0.06599
3333.99857	0.06624
3332.71280	0.06664
3331.42703	0.06681
3330.14126	0.06656
3328.85549	0.06603
3327.56972	0.06564
3326.28395	0.06569
3324.99819	0.06619
3323.71242	0.06684
3322.42665	0.06733
3321.14088	0.06753
3319.85511	0.06758
3318.56934	0.06758
3317.28357	0.06748
3315.99780	0.06727
3314.71204	0.06708
3313.42627	0.06711
3312.14050	0.06730
3310.85473	0.06737
3309.56896	0.06712
3308.28319	0.06664
3306.99742	0.06623
3305.71165	0.06605
3304.42588	0.06599
3303.14012	0.06586
3301.85435	0.06558
3300.56858	0.06524
3299.28281	0.06504
3297.99704	0.06515
3296.71127	0.06556
3295.42550	0.06605
3294.13973	0.06635
3292.85397	0.06634
3291.56820	0.06620
3290.28243	0.06613
3288.99666	0.06613
3287.71089	0.06603
3286.42512	0.06574
3285.13935	0.06548
3283.85358	0.06547
3282.56781	0.06563
3281.28205	0.06560
3279.99628	0.06525
3278.71051	0.06481
3277.42474	0.06468
3276.13897	0.06505
3274.85320	0.06580
3273.56743	0.06659
3272.28166	0.06707
3270.99590	0.06704
3269.71013	0.06658
3268.42436	0.06601
3267.13859	0.06570
3265.85282	0.06577
3264.56705	0.06606
3263.28128	0.06624
3261.99551	0.06611
3260.70974	0.06576
3259.42398	0.06545
3258.13821	0.06547
3256.85244	0.06587
3255.56667	0.06644
3254.28090	0.06681
3252.99513	0.06680
3251.70936	0.06657
3250.42359	0.06636
3249.13783	0.06623
3247.85206	0.06602
3246.56629	0.06562
3245.28052	0.06514
3243.99475	0.06478
3242.70898	0.06459
3241.42321	0.06450
3240.13744	0.06438
3238.85167	0.06420
3237.56591	0.06403
3236.28014	0.06394
3234.99437	0.06399
3233.70860	0.06417
3232.42283	0.06444
3231.13706	0.06464
3229.85129	0.06473
3228.56552	0.06472
3227.27976	0.06474
3225.99399	0.06487
3224.70822	0.06506
3223.42245	0.06511
3222.13668	0.06488
3220.85091	0.06444
3219.56514	0.06403
3218.27937	0.06389
3216.99360	0.06409
3215.70784	0.06454
3214.42207	0.06505
3213.13630	0.06543
3211.85053	0.06556
3210.56476	0.06539
3209.27899	0.06494
3207.99322	0.06431
3206.70745	0.06376
3205.42169	0.06356
3204.13592	0.06377
3202.85015	0.06419
3201.56438	0.06450
3200.27861	0.06457
3198.99284	0.06450
3197.70707	0.06443
3196.42130	0.06440
3195.13553	0.06435
3193.84977	0.06425
3192.56400	0.06408
3191.27823	0.06390
3189.99246	0.06381
3188.70669	0.06382
3187.42092	0.06384
3186.13515	0.06375
3184.84938	0.06346
3183.56362	0.06311
3182.27785	0.06293
3180.99208	0.06314
3179.70631	0.06366
3178.42054	0.06417
3177.13477	0.06435
3175.84900	0.06418
3174.56323	0.06395
3173.27746	0.06387
3171.99170	0.06382
3170.70593	0.06356
3169.42016	0.06307
3168.13439	0.06267
3166.84862	0.06269
3165.56285	0.06313
3164.27708	0.06364
3162.99131	0.06382
3161.70555	0.06358
3160.41978	0.06317
3159.13401	0.06292
3157.84824	0.06286
3156.56247	0.06283
3155.27670	0.06271
3153.99093	0.06253
3152.70516	0.06239
3151.41939	0.06234
3150.13363	0.06236
3148.84786	0.06245
3147.56209	0.06261
3146.27632	0.06276
3144.99055	0.06282
3143.70478	0.06275
3142.41901	0.06256
3141.13324	0.06229
3139.84748	0.06201
3138.56171	0.06179
3137.27594	0.06164
3135.99017	0.06154
3134.70440	0.06146
3133.41863	0.06139
3132.13286	0.06127
3130.84709	0.06108
3129.56132	0.06084
3128.27556	0.06059
3126.98979	0.06037
3125.70402	0.06018
3124.41825	0.06005
3123.13248	0.06004
3121.84671	0.06014
3120.56094	0.06024
3119.27517	0.06027
3117.98940	0.06025
3116.70364	0.06023
3115.41787	0.06023
3114.13210	0.06018
3112.84633	0.06006
3111.56056	0.05991
3110.27479	0.05981
3108.98902	0.05982
3107.70325	0.05995
3106.41749	0.06012
3105.13172	0.06022
3103.84595	0.06012
3102.56018	0.05984
3101.27441	0.05954
3099.98864	0.05945
3098.70287	0.05960
3097.41710	0.05978
3096.13133	0.05977
3094.84557	0.05956
3093.55980	0.05934
3092.27403	0.05928
3090.98826	0.05940
3089.70249	0.05966
3088.41672	0.05997
3087.13095	0.06019
3085.84518	0.06020
3084.55942	0.05997
3083.27365	0.05962
3081.98788	0.05924
3080.70211	0.05882
3079.41634	0.05835
3078.13057	0.05794
3076.84480	0.05770
3075.55903	0.05763
3074.27326	0.05758
3072.98750	0.05744
3071.70173	0.05723
3070.41596	0.05705
3069.13019	0.05700
3067.84442	0.05707
3066.55865	0.05727
3065.27288	0.05756
3063.98711	0.05788
3062.70135	0.05813
3061.41558	0.05824
3060.12981	0.05825
3058.84404	0.05827
3057.55827	0.05834
3056.27250	0.05835
3054.98673	0.05814
3053.70096	0.05771
3052.41519	0.05717
3051.12943	0.05670
3049.84366	0.05643
3048.55789	0.05639
3047.27212	0.05649
3045.98635	0.05663
3044.70058	0.05674
3043.41481	0.05680
3042.12904	0.05683
3040.84328	0.05682
3039.55751	0.05680
3038.27174	0.05672
3036.98597	0.05654
3035.70020	0.05625
3034.41443	0.05593
3033.12866	0.05572
3031.84289	0.05570
3030.55712	0.05585
3029.27136	0.05605
3027.98559	0.05619
3026.69982	0.05617
3025.41405	0.05598
3024.12828	0.05567
3022.84251	0.05537
3021.55674	0.05523
3020.27097	0.05534
3018.98521	0.05567
3017.69944	0.05602
3016.41367	0.05625
3015.12790	0.05633
3013.84213	0.05629
3012.55636	0.05608
3011.27059	0.05568
3009.98482	0.05522
3008.69905	0.05496
3007.41329	0.05508
3006.12752	0.05549
3004.84175	0.05585
3003.55598	0.05580
3002.27021	0.05530
3000.98444	0.05458
2999.69867	0.05400
2998.41290	0.05384
2997.12714	0.05397
2995.84137	0.05421
2994.55560	0.05443
2993.26983	0.05457
2991.98406	0.05464
2990.69829	0.05465
2989.41252	0.05465
2988.12675	0.05469
2986.84098	0.05484
2985.55522	0.05520
2984.26945	0.05573
2982.98368	0.05625
2981.69791	0.05667
2980.41214	0.05710
2979.12637	0.05766
2977.84060	0.05840
2976.55483	0.05930
2975.26907	0.06025
2973.98330	0.06119
2972.69753	0.06206
2971.41176	0.06289
2970.12599	0.06381
2968.84022	0.06485
2967.55445	0.06594
2966.26868	0.06700
2964.98291	0.06805
2963.69715	0.06915
2962.41138	0.07030
2961.12561	0.07148
2959.83984	0.07267
2958.55407	0.07389
2957.26830	0.07507
2955.98253	0.07600
2954.69676	0.07648
2953.41100	0.07656
2952.12523	0.07651
2950.83946	0.07656
2949.55369	0.07675
2948.26792	0.07698
2946.98215	0.07718
2945.69638	0.07728
2944.41061	0.07725
2943.12484	0.07710
2941.83908	0.07700
2940.55331	0.07714
2939.26754	0.07764
2937.98177	0.07851
2936.69600	0.07964
2935.41023	0.08085
2934.12446	0.08195
2932.83869	0.08288
2931.55293	0.08374
2930.26716	0.08462
2928.98139	0.08556
2927.69562	0.08663
2926.40985	0.08782
2925.12408	0.08895
2923.83831	0.08967
2922.55254	0.08982
2921.26677	0.08955
2919.98101	0.08915
2918.69524	0.08872
2917.40947	0.08815
2916.12370	0.08725
2914.83793	0.08600
2913.55216	0.08455
2912.26639	0.08325
2910.98062	0.08237
2909.69486	0.08193
2908.40909	0.08171
2907.12332	0.08136
2905.83755	0.08071
2904.55178	0.07983
2903.26601	0.07890
2901.98024	0.07799
2900.69447	0.07708
2899.40870	0.07617
2898.12294	0.07530
2896.83717	0.07458
2895.55140	0.07401
2894.26563	0.07348
2892.97986	0.07278
2891.69409	0.07184
2890.40832	0.07085
2889.12255	0.07013
2887.83678	0.06983
2886.55102	0.06980
2885.26525	0.06974
2883.97948	0.06945
2882.69371	0.06891
2881.40794	0.06829
2880.12217	0.06791
2878.83640	0.06803
2877.55063	0.06867
2876.26487	0.06953
2874.97910	0.07026
2873.69333	0.07068
2872.40756	0.07088
2871.12179	0.07106
2869.83602	0.07133
2868.55025	0.07164
2867.26448	0.07192
2865.97871	0.07211
2864.69295	0.07225
2863.40718	0.07236
2862.12141	0.07245
2860.83564	0.07258
2859.54987	0.07275
2858.26410	0.07294
2856.97833	0.07302
2855.69256	0.07291
2854.40680	0.07264
2853.12103	0.07232
2851.83526	0.07195
2850.54949	0.07144
2849.26372	0.07075
2847.97795	0.06995
2846.69218	0.06914
2845.40641	0.06831
2844.12064	0.06739
2842.83488	0.06639
2841.54911	0.06546
2840.26334	0.06471
2838.97757	0.06407
2837.69180	0.06335
2836.40603	0.06246
2835.12026	0.06148
2833.83449	0.06051
2832.54873	0.05956
2831.26296	0.05861
2829.97719	0.05774
2828.69142	0.05706
2827.40565	0.05659
2826.11988	0.05625
2824.83411	0.05589
2823.54834	0.05541
2822.26257	0.05483
2820.97681	0.05428
2819.69104	0.05388
2818.40527	0.05365
2817.11950	0.05355
2815.83373	0.05355
2814.54796	0.05358
2813.26219	0.05354
2811.97642	0.05333
2810.69066	0.05301
2809.40489	0.05272
2808.11912	0.05253
2806.83335	0.05236
2805.54758	0.05211
2804.26181	0.05179
2802.97604	0.05151
2801.69027	0.05126
2800.40450	0.05101
2799.11874	0.05077
2797.83297	0.05058
2796.54720	0.05048
2795.26143	0.05042
2793.97566	0.05035
2792.68989	0.05027
2791.40412	0.05018
2790.11835	0.05010
2788.83259	0.05002
2787.54682	0.04992
2786.26105	0.04983
2784.97528	0.04983
2783.68951	0.04993
2782.40374	0.05004
2781.11797	0.05005
2779.83220	0.04994
2778.54643	0.04970
2777.26067	0.04933
2775.97490	0.04884
2774.68913	0.04835
2773.40336	0.04808
2772.11759	0.04808
2770.83182	0.04820
2769.54605	0.04821
2768.26028	0.04813
2766.97452	0.04812
2765.68875	0.04830
2764.40298	0.04859
2763.11721	0.04877
2761.83144	0.04866
2760.54567	0.04830
2759.25990	0.04791
2757.97413	0.04771
2756.68836	0.04774
2755.40260	0.04783
2754.11683	0.04784
2752.83106	0.04773
2751.54529	0.04762
2750.25952	0.04759
2748.97375	0.04761
2747.68798	0.04757
2746.40221	0.04738
2745.11645	0.04710
2743.83068	0.04683
2742.54491	0.04667
2741.25914	0.04657
2739.97337	0.04648
2738.68760	0.04645
2737.40183	0.04658
2736.11606	0.04682
2734.83029	0.04707
2733.54453	0.04721
2732.25876	0.04720
2730.97299	0.04704
2729.68722	0.04678
2728.40145	0.04655
2727.11568	0.04643
2725.82991	0.04634
2724.54414	0.04610
2723.25838	0.04567
2721.97261	0.04532
2720.68684	0.04533
2719.40107	0.04573
2718.11530	0.04625
2716.82953	0.04658
2715.54376	0.04666
2714.25799	0.04657
2712.97222	0.04636
2711.68646	0.04604
2710.40069	0.04563
2709.11492	0.04528
2707.82915	0.04509
2706.54338	0.04509
2705.25761	0.04523
2703.97184	0.04542
2702.68607	0.04550
2701.40031	0.04537
2700.11454	0.04504
2698.82877	0.04465
2697.54300	0.04439
2696.25723	0.04433
2694.97146	0.04440
2693.68569	0.04451
2692.39992	0.04461
2691.11415	0.04468
2689.82839	0.04470
2688.54262	0.04472
2687.25685	0.04479
2685.97108	0.04489
2684.68531	0.04489
2683.39954	0.04470
2682.11377	0.04440
2680.82800	0.04416
2679.54224	0.04403
2678.25647	0.04395
2676.97070	0.04388
2675.68493	0.04385
2674.39916	0.04390
2673.11339	0.04402
2671.82762	0.04419
2670.54185	0.04433
2669.25608	0.04437
2667.97032	0.04429
2666.68455	0.04413
2665.39878	0.04402
2664.11301	0.04403
2662.82724	0.04415
2661.54147	0.04431
2660.25570	0.04439
2658.96993	0.04429
2657.68417	0.04397
2656.39840	0.04353
2655.11263	0.04315
2653.82686	0.04299
2652.54109	0.04300
2651.25532	0.04304
2649.96955	0.04301
2648.68378	0.04285
2647.39801	0.04262
2646.11225	0.04237
2644.82648	0.04210
2643.54071	0.04171
2642.25494	0.04124
2640.96917	0.04083
2639.68340	0.04063
2638.39763	0.04059
2637.11186	0.04052
2635.82609	0.04032
2634.54033	0.04008
2633.25456	0.03992
2631.96879	0.03988
2630.68302	0.03987
2629.39725	0.03980
2628.11148	0.03963
2626.82571	0.03941
2625.53994	0.03924
2624.25418	0.03912
2622.96841	0.03892
2621.68264	0.03853
2620.39687	0.03801
2619.11110	0.03755
2617.82533	0.03730
2616.53956	0.03724
2615.25379	0.03728
2613.96802	0.03732
2612.68226	0.03727
2611.39649	0.03712
2610.11072	0.03696
2608.82495	0.03687
2607.53918	0.03686
2606.25341	0.03684
2604.96764	0.03673
2603.68187	0.03650
2602.39611	0.03611
2601.11034	0.03566
2599.82457	0.03536
2598.53880	0.03536
2597.25303	0.03563
2595.96726	0.03593
2594.68149	0.03603
2593.39572	0.03596
2592.10995	0.03589
2590.82419	0.03596
2589.53842	0.03613
2588.25265	0.03618
2586.96688	0.03597
2585.68111	0.03565
2584.39534	0.03545
2583.10957	0.03540
2581.82380	0.03532
2580.53804	0.03509
2579.25227	0.03475
2577.96650	0.03444
2576.68073	0.03425
2575.39496	0.03426
2574.10919	0.03454
2572.82342	0.03493
2571.53765	0.03510
2570.25188	0.03479
2568.96612	0.03417
2567.68035	0.03367
2566.39458	0.03359
2565.10881	0.03380
2563.82304	0.03401
2562.53727	0.03409
2561.25150	0.03408
2559.96573	0.03402
2558.67997	0.03390
2557.39420	0.03384
2556.10843	0.03395
2554.82266	0.03415
2553.53689	0.03422
2552.25112	0.03405
2550.96535	0.03376
2549.67958	0.03350
2548.39381	0.03335
2547.10805	0.03330
2545.82228	0.03334
2544.53651	0.03338
2543.25074	0.03325
2541.96497	0.03290
2540.67920	0.03250
2539.39343	0.03233
2538.10766	0.03253
2536.82190	0.03292
2535.53613	0.03317
2534.25036	0.03309
2532.96459	0.03277
2531.67882	0.03245
2530.39305	0.03233
2529.10728	0.03246
2527.82151	0.03275
2526.53574	0.03297
2525.24998	0.03295
2523.96421	0.03276
2522.67844	0.03258
2521.39267	0.03250
2520.10690	0.03245
2518.82113	0.03238
2517.53536	0.03234
2516.24959	0.03236
2514.96383	0.03228
2513.67806	0.03195
2512.39229	0.03144
2511.10652	0.03100
2509.82075	0.03083
2508.53498	0.03094
2507.24921	0.03118
2505.96344	0.03147
2504.67767	0.03180
2503.39191	0.03214
2502.10614	0.03228
2500.82037	0.03199
2499.53460	0.03138
2498.24883	0.03086
2496.96306	0.03074
2495.67729	0.03097
2494.39152	0.03132
2493.10576	0.03161
2491.81999	0.03173
2490.53422	0.03166
2489.24845	0.03152
2487.96268	0.03154
2486.67691	0.03180
2485.39114	0.03203
2484.10537	0.03197
2482.81960	0.03163
2481.53384	0.03130
2480.24807	0.03119
2478.96230	0.03127
2477.67653	0.03134
2476.39076	0.03126
2475.10499	0.03100
2473.81922	0.03068
2472.53345	0.03051
2471.24769	0.03067
2469.96192	0.03107
2468.67615	0.03141
2467.39038	0.03146
2466.10461	0.03124
2464.81884	0.03095
2463.53307	0.03067
2462.24730	0.03039
2460.96153	0.03016
2459.67577	0.03016
2458.39000	0.03046
2457.10423	0.03086
2455.81846	0.03108
2454.53269	0.03102
2453.24692	0.03081
2451.96115	0.03064
2450.67538	0.03057
2449.38962	0.03054
2448.10385	0.03048
2446.81808	0.03032
2445.53231	0.03010
2444.24654	0.02995
2442.96077	0.02998
2441.67500	0.03018
2440.38923	0.03039
2439.10346	0.03047
2437.81770	0.03036
2436.53193	0.03011
2435.24616	0.02984
2433.96039	0.02969
2432.67462	0.02972
2431.38885	0.02980
2430.10308	0.02970
2428.81731	0.02938
2427.53155	0.02910
2426.24578	0.02912
2424.96001	0.02942
2423.67424	0.02971
2422.38847	0.02979
2421.10270	0.02976
2419.81693	0.02984
2418.53116	0.03008
2417.24539	0.03028
2415.95963	0.03023
2414.67386	0.02993
2413.38809	0.02961
2412.10232	0.02953
2410.81655	0.02983
2409.53078	0.03032
2408.24501	0.03072
2406.95924	0.03082
2405.67347	0.03062
2404.38771	0.03030
2403.10194	0.03001
2401.81617	0.02984
2400.53040	0.02987
2399.24463	0.03085
2397.95886	0.03157
2396.67309	0.03165
2395.38732	0.03132
2394.10156	0.03080
2392.81579	0.03021
2391.53002	0.02964
2390.24425	0.02915
2388.95848	0.02873
2387.67271	0.02835
2386.38694	0.02792
2385.10117	0.02744
2383.81540	0.02693
2382.52964	0.02655
2381.24387	0.02644
2379.95810	0.02676
2378.67233	0.02725
2377.38656	0.02740
2376.10079	0.02739
2374.81502	0.02715
2373.52925	0.02646
2372.24349	0.02547
2370.95772	0.02429
2369.67195	0.02381
2368.38618	0.02363
2367.10041	0.02230
2365.81464	0.02031
2364.52887	0.01945
2363.24310	0.01938
2361.95733	0.01883
2360.67157	0.01855
2359.38580	0.02021
2358.10003	0.02275
2356.81426	0.02449
2355.52849	0.02510
2354.24272	0.02466
2352.95695	0.02360
2351.67118	0.02107
2350.38542	0.01665
2349.09965	0.01434
2347.81388	0.01765
2346.52811	0.02312
2345.24234	0.02549
2343.95657	0.02494
2342.67080	0.02484
2341.38503	0.02560
2340.09926	0.02601
2338.81350	0.02599
2337.52773	0.02541
2336.24196	0.02481
2334.95619	0.02396
2333.67042	0.02299
2332.38465	0.02295
2331.09888	0.02332
2329.81311	0.02365
2328.52735	0.02462
2327.24158	0.02549
2325.95581	0.02611
2324.67004	0.02725
2323.38427	0.02827
2322.09850	0.02879
2320.81273	0.02910
2319.52696	0.02848
2318.24119	0.02694
2316.95543	0.02573
2315.66966	0.02560
2314.38389	0.02631
2313.09812	0.02716
2311.81235	0.02788
2310.52658	0.02833
2309.24081	0.02843
2307.95504	0.02836
2306.66928	0.02818
2305.38351	0.02782
2304.09774	0.02741
2302.81197	0.02718
2301.52620	0.02710
2300.24043	0.02696
2298.95466	0.02676
2297.66889	0.02658
2296.38312	0.02643
2295.09736	0.02633
2293.81159	0.02616
2292.52582	0.02596
2291.24005	0.02580
2289.95428	0.02574
2288.66851	0.02576
2287.38274	0.02582
2286.09697	0.02587
2284.81121	0.02586
2283.52544	0.02586
2282.23967	0.02592
2280.95390	0.02597
2279.66813	0.02589
2278.38236	0.02569
2277.09659	0.02549
2275.81082	0.02541
2274.52505	0.02546
2273.23929	0.02559
2271.95352	0.02560
2270.66775	0.02534
2269.38198	0.02481
2268.09621	0.02416
2266.81044	0.02351
2265.52467	0.02296
2264.23890	0.02255
2262.95314	0.02225
2261.66737	0.02208
2260.38160	0.02203
2259.09583	0.02198
2257.81006	0.02185
2256.52429	0.02162
2255.23852	0.02143
2253.95275	0.02143
2252.66698	0.02161
2251.38122	0.02183
2250.09545	0.02194
2248.80968	0.02180
2247.52391	0.02084
2246.23814	0.01988
2244.95237	0.01943
2243.66660	0.01970
2242.38083	0.02041
2241.09507	0.02107
2239.80930	0.02130
2238.52353	0.02104
2237.23776	0.02051
2235.95199	0.01989
2234.66622	0.01925
2233.38045	0.01866
2232.09468	0.01837
2230.80891	0.01855
2229.52315	0.01901
2228.23738	0.01938
2226.95161	0.01953
2225.66584	0.01958
2224.38007	0.01950
2223.09430	0.01893
2221.80853	0.01774
2220.52276	0.01647
2219.23700	0.01600
2217.95123	0.01668
2216.66546	0.01794
2215.37969	0.01883
2214.09392	0.01883
2212.80815	0.01808
2211.52238	0.01714
2210.23661	0.01654
2208.95084	0.01654
2207.66508	0.01697
2206.37931	0.01740
2205.09354	0.01744
2203.80777	0.01712
2202.52200	0.01664
2201.23623	0.01608
2199.95046	0.01543
2198.66469	0.01478
2197.37893	0.01444
2196.09316	0.01462
2194.80739	0.01522
2193.52162	0.01578
2192.23585	0.01587
2190.95008	0.01530
2189.66431	0.01420
2188.37854	0.01295
2187.09277	0.01201
2185.80701	0.01158
2184.52124	0.01138
2183.23547	0.01107
2181.94970	0.01081
2180.66393	0.01102
2179.37816	0.01176
2178.09239	0.01253
2176.80662	0.01285
2175.52085	0.01260
2174.23509	0.01204
2172.94932	0.01148
2171.66355	0.01113
2170.37778	0.01085
2169.09201	0.01021
2167.80624	0.00892
2166.52047	0.00727
2165.23470	0.00599
2163.94894	0.00553
2162.66317	0.00564
2161.37740	0.00579
2160.09163	0.00583
2158.80586	0.00601
2157.52009	0.00631
2156.23432	0.00649
2154.94855	0.00670
2153.66278	0.00755
2152.37702	0.00930
2151.09125	0.01138
2149.80548	0.01299
2148.51971	0.01378
2147.23394	0.01389
2145.94817	0.01356
2144.66240	0.01304
2143.37663	0.01260
2142.09087	0.01246
2140.80510	0.01275
2139.51933	0.01346
2138.23356	0.01441
2136.94779	0.01518
2135.66202	0.01540
2134.37625	0.01514
2133.09048	0.01486
2131.80471	0.01493
2130.51895	0.01533
2129.23318	0.01579
2127.94741	0.01605
2126.66164	0.01598
2125.37587	0.01566
2124.09010	0.01529
2122.80433	0.01509
2121.51856	0.01522
2120.23280	0.01579
2118.94703	0.01665
2117.66126	0.01742
2116.37549	0.01778
2115.08972	0.01773
2113.80395	0.01754
2112.51818	0.01732
2111.23241	0.01701
2109.94664	0.01663
2108.66088	0.01636
2107.37511	0.01633
2106.08934	0.01651
2104.80357	0.01673
2103.51780	0.01694
2102.23203	0.01709
2100.94626	0.01707
2099.66049	0.01735
2098.37473	0.01681
2097.08896	0.01583
2095.80319	0.01523
2094.51742	0.01534
2093.23165	0.01593
2091.94588	0.01645
2090.66011	0.01651
2089.37434	0.01617
2088.08857	0.01588
2086.80281	0.01602
2085.51704	0.01640
2084.23127	0.01645
2082.94550	0.01592
2081.65973	0.01526
2080.37396	0.01506
2079.08819	0.01534
2077.80242	0.01552
2076.51666	0.01518
2075.23089	0.01453
2073.94512	0.01403
2072.65935	0.01383
2071.37358	0.01374
2070.08781	0.01364
2068.80204	0.01364
2067.51627	0.01382
2066.23050	0.01404
2064.94474	0.01403
2063.65897	0.01364
2062.37320	0.01306
2061.08743	0.01261
2059.80166	0.01254
2058.51589	0.01283
2057.23012	0.01315
2055.94435	0.01312
2054.65859	0.01262
2053.37282	0.01196
2052.08705	0.01163
2050.80128	0.01181
2049.51551	0.01222
2048.22974	0.01238
2046.94397	0.01203
2045.65820	0.01129
2044.37243	0.01053
2043.08667	0.00999
2041.80090	0.00966
2040.51513	0.00937
2039.22936	0.00904
2037.94359	0.00876
2036.65782	0.00868
2035.37205	0.00882
2034.08628	0.00905
2032.80052	0.00908
2031.51475	0.00861
2030.22898	0.00763
2028.94321	0.00645
2027.65744	0.00560
2026.37167	0.00538
2025.08590	0.00574
2023.80013	0.00639
2022.51436	0.00707
2021.22860	0.00774
2019.94283	0.00845
2018.65706	0.00931
2017.37129	0.01029
2016.08552	0.01121
2014.79975	0.01173
2013.51398	0.01166
2012.22821	0.01119
2010.94245	0.01072
2009.65668	0.01040
2008.37091	0.01010
2007.08514	0.00975
2005.79937	0.00955
2004.51360	0.00965
2003.22783	0.00986
2001.94206	0.00984
2000.65629	0.00960
1999.37053	0.00943
1998.08476	0.00963
1996.79899	0.01018
1995.51322	0.01085
1994.22745	0.01136
1992.94168	0.01152
1991.65591	0.01125
1990.37014	0.01063
1989.08438	0.01002
1987.79861	0.00988
1986.51284	0.01044
1985.22707	0.01142
1983.94130	0.01235
1982.65553	0.01292
1981.36976	0.01312
1980.08399	0.01308
1978.79822	0.01289
1977.51246	0.01260
1976.22669	0.01238
1974.94092	0.01250
1973.65515	0.01309
1972.36938	0.01391
1971.08361	0.01444
1969.79784	0.01435
1968.51207	0.01377
1967.22631	0.01310
1965.94054	0.01261
1964.65477	0.01232
1963.36900	0.01219
1962.08323	0.01223
1960.79746	0.01247
1959.51169	0.01278
1958.22592	0.01300
1956.94015	0.01312
1955.65439	0.01328
1954.36862	0.01359
1953.08285	0.01399
1951.79708	0.01426
1950.51131	0.01429
1949.22554	0.01417
1947.93977	0.01404
1946.65400	0.01405
1945.36823	0.01428
1944.08247	0.01483
1942.79670	0.01561
1941.51093	0.01631
1940.22516	0.01670
1938.93939	0.01684
1937.65362	0.01698
1936.36785	0.01723
1935.08208	0.01748
1933.79632	0.01760
1932.51055	0.01760
1931.22478	0.01751
1929.93901	0.01734
1928.65324	0.01710
1927.36747	0.01688
1926.08170	0.01672
1924.79593	0.01655
1923.51016	0.01634
1922.22440	0.01618
1920.93863	0.01622
1919.65286	0.01643
1918.36709	0.01662
1917.08132	0.01661
1915.79555	0.01649
1914.50978	0.01647
1913.22401	0.01668
1911.93825	0.01700
1910.65248	0.01725
1909.36671	0.01729
1908.08094	0.01719
1906.79517	0.01711
1905.50940	0.01718
1904.22363	0.01735
1902.93786	0.01753
1901.65209	0.01767
1900.36633	0.01789
1899.08056	0.01822
1897.79479	0.01852
1896.50902	0.01852
1895.22325	0.01815
1893.93748	0.01768
1892.65171	0.01743
1891.36594	0.01753
1890.08018	0.01777
1888.79441	0.01796
1887.50864	0.01806
1886.22287	0.01813
1884.93710	0.01818
1883.65133	0.01814
1882.36556	0.01799
1881.07979	0.01777
1879.79402	0.01756
1878.50826	0.01747
1877.22249	0.01759
1875.93672	0.01791
1874.65095	0.01832
1873.36518	0.01869
1872.07941	0.01900
1870.79364	0.01922
1869.50787	0.01928
1868.22211	0.01912
1866.93634	0.01882
1865.65057	0.01859
1864.36480	0.01860
1863.07903	0.01883
1861.79326	0.01908
1860.50749	0.01917
1859.22172	0.01904
1857.93595	0.01880
1856.65019	0.01860
1855.36442	0.01849
1854.07865	0.01843
1852.79288	0.01837
1851.50711	0.01830
1850.22134	0.01829
1848.93557	0.01842
1847.64980	0.01871
1846.36404	0.01911
1845.07827	0.01941
1843.79250	0.01946
1842.50673	0.01923
1841.22096	0.01888
1839.93519	0.01866
1838.64942	0.01862
1837.36365	0.01865
1836.07788	0.01860
1834.79212	0.01848
1833.50635	0.01840
1832.22058	0.01850
1830.93481	0.01869
1829.64904	0.01882
1828.36327	0.01882
1827.07750	0.01876
1825.79173	0.01876
1824.50597	0.01884
1823.22020	0.01895
1821.93443	0.01904
1820.64866	0.01904
1819.36289	0.01887
1818.07712	0.01854
1816.79135	0.01821
1815.50558	0.01805
1814.21981	0.01813
1812.93405	0.01835
1811.64828	0.01857
1810.36251	0.01872
1809.07674	0.01879
1807.79097	0.01883
1806.50520	0.01889
1805.21943	0.01899
1803.93366	0.01913
1802.64790	0.01924
1801.36213	0.01928
1800.07636	0.01924
1798.79059	0.01920
1797.50482	0.01925
1796.21905	0.01946
1794.93328	0.01982
1793.64751	0.02019
1792.36174	0.02038
1791.07598	0.02029
1789.79021	0.02001
1788.50444	0.01970
1787.21867	0.01949
1785.93290	0.01940
1784.64713	0.01943
1783.36136	0.01957
1782.07559	0.01978
1780.78983	0.01996
1779.50406	0.02003
1778.21829	0.02001
1776.93252	0.02008
1775.64675	0.02033
1774.36098	0.02072
1773.07521	0.02102
1771.78944	0.02108
1770.50367	0.02094
1769.21791	0.02073
1767.93214	0.02057
1766.64637	0.02047
1765.36060	0.02048
1764.07483	0.02059
1762.78906	0.02073
1761.50329	0.02082
1760.21752	0.02086
1758.93176	0.02089
1757.64599	0.02094
1756.36022	0.02099
1755.07445	0.02107
1753.78868	0.02122
1752.50291	0.02141
1751.21714	0.02150
1749.93137	0.02138
1748.64560	0.02111
1747.35984	0.02086
1746.07407	0.02075
1744.78830	0.02083
1743.50253	0.02105
1742.21676	0.02135
1740.93099	0.02162
1739.64522	0.02180
1738.35945	0.02197
1737.07369	0.02230
1735.78792	0.02281
1734.50215	0.02324
1733.21638	0.02329
1731.93061	0.02298
1730.64484	0.02255
1729.35907	0.02224
1728.07330	0.02210
1726.78753	0.02211
1725.50177	0.02220
1724.21600	0.02235
1722.93023	0.02258
1721.64446	0.02298
1720.35869	0.02358
1719.07292	0.02428
1717.78715	0.02483
1716.50138	0.02508
1715.21561	0.02509
1713.92985	0.02502
1712.64408	0.02500
1711.35831	0.02509
1710.07254	0.02529
1708.78677	0.02562
1707.50100	0.02605
1706.21523	0.02656
1704.92946	0.02717
1703.64370	0.02790
1702.35793	0.02868
1701.07216	0.02934
1699.78639	0.02972
1698.50062	0.02984
1697.21485	0.02984
1695.92908	0.02974
1694.64331	0.02953
1693.35754	0.02924
1692.07178	0.02906
1690.78601	0.02910
1689.50024	0.02939
1688.21447	0.02990
1686.92870	0.03057
1685.64293	0.03121
1684.35716	0.03153
1683.07139	0.03138
1681.78563	0.03094
1680.49986	0.03056
1679.21409	0.03051
1677.92832	0.03081
1676.64255	0.03130
1675.35678	0.03173
1674.07101	0.03202
1672.78524	0.03223
1671.49947	0.03246
1670.21371	0.03273
1668.92794	0.03292
1667.64217	0.03301
1666.35640	0.03306
1665.07063	0.03317
1663.78486	0.03335
1662.49909	0.03351
1661.21332	0.03359
1659.92756	0.03364
1658.64179	0.03384
1657.35602	0.03437
1656.07025	0.03525
1654.78448	0.03624
1653.49871	0.03689
1652.21294	0.03689
1650.92717	0.03644
1649.64140	0.03604
1648.35564	0.03595
1647.06987	0.03603
1645.78410	0.03599
1644.49833	0.03572
1643.21256	0.03539
1641.92679	0.03518
1640.64102	0.03519
1639.35525	0.03542
1638.06949	0.03583
1636.78372	0.03624
1635.49795	0.03645
1634.21218	0.03636
1632.92641	0.03613
1631.64064	0.03599
1630.35487	0.03606
1629.06910	0.03626
1627.78333	0.03648
1626.49757	0.03670
1625.21180	0.03691
1623.92603	0.03709
1622.64026	0.03719
1621.35449	0.03723
1620.06872	0.03734
1618.78295	0.03759
1617.49718	0.03786
1616.21142	0.03794
1614.92565	0.03777
1613.63988	0.03753
1612.35411	0.03741
1611.06834	0.03752
1609.78257	0.03777
1608.49680	0.03805
1607.21103	0.03828
1605.92526	0.03843
1604.63950	0.03855
1603.35373	0.03864
1602.06796	0.03873
1600.78219	0.03883
1599.49642	0.03892
1598.21065	0.03900
1596.92488	0.03907
1595.63911	0.03912
1594.35335	0.03917
1593.06758	0.03924
1591.78181	0.03933
1590.49604	0.03940
1589.21027	0.03949
1587.92450	0.03959
1586.63873	0.03972
1585.35296	0.03985
1584.06719	0.03997
1582.78143	0.04010
1581.49566	0.04029
1580.20989	0.04060
1578.92412	0.04104
1577.63835	0.04151
1576.35258	0.04181
1575.06681	0.04186
1573.78104	0.04176
1572.49528	0.04175
1571.20951	0.04192
1569.92374	0.04215
1568.63797	0.04225
1567.35220	0.04220
1566.06643	0.04212
1564.78066	0.04219
1563.49489	0.04255
1562.20912	0.04327
1560.92336	0.04419
1559.63759	0.04494
1558.35182	0.04516
1557.06605	0.04484
1555.78028	0.04429
1554.49451	0.04384
1553.20874	0.04359
1551.92297	0.04350
1550.63721	0.04348
1549.35144	0.04350
1548.06567	0.04360
1546.77990	0.04386
1545.49413	0.04427
1544.20836	0.04481
1542.92259	0.04537
1541.63682	0.04583
1540.35105	0.04601
1539.06529	0.04578
1537.77952	0.04531
1536.49375	0.04490
1535.20798	0.04475
1533.92221	0.04480
1532.63644	0.04492
1531.35067	0.04505
1530.06490	0.04531
1528.77914	0.04579
1527.49337	0.04646
1526.20760	0.04720
1524.92183	0.04799
1523.63606	0.04884
1522.35029	0.04972
1521.06452	0.05052
1519.77875	0.05121
1518.49298	0.05185
1517.20722	0.05257
1515.92145	0.05342
1514.63568	0.05440
1513.34991	0.05549
1512.06414	0.05671
1510.77837	0.05812
1509.49260	0.05975
1508.20683	0.06146
1506.92107	0.06295
1505.63530	0.06394
1504.34953	0.06450
1503.06376	0.06497
1501.77799	0.06565
1500.49222	0.06660
1499.20645	0.06769
1497.92068	0.06870
1496.63491	0.06951
1495.34915	0.07010
1494.06338	0.07061
1492.77761	0.07120
1491.49184	0.07194
1490.20607	0.07276
1488.92030	0.07355
1487.63453	0.07427
1486.34876	0.07499
1485.06299	0.07580
1483.77723	0.07674
1482.49146	0.07779
1481.20569	0.07891
1479.91992	0.08004
1478.63415	0.08117
1477.34838	0.08233
1476.06261	0.08354
1474.77684	0.08476
1473.49108	0.08588
1472.20531	0.08676
1470.91954	0.08737
1469.63377	0.08784
1468.34800	0.08835
1467.06223	0.08895
1465.77646	0.08957
1464.49069	0.09010
1463.20492	0.09054
1461.91916	0.09103
1460.63339	0.09172
1459.34762	0.09263
1458.06185	0.09357
1456.77608	0.09425
1455.49031	0.09458
1454.20454	0.09469
1452.91877	0.09482
1451.63301	0.09505
1450.34724	0.09533
1449.06147	0.09554
1447.77570	0.09558
1446.48993	0.09543
1445.20416	0.09515
1443.91839	0.09483
1442.63262	0.09454
1441.34685	0.09435
1440.06109	0.09429
1438.77532	0.09436
1437.48955	0.09442
1436.20378	0.09437
1434.91801	0.09427
1433.63224	0.09431
1432.34647	0.09466
1431.06070	0.09535
1429.77494	0.09627
1428.48917	0.09731
1427.20340	0.09844
1425.91763	0.09965
1424.63186	0.10094
1423.34609	0.10233
1422.06032	0.10381
1420.77455	0.10530
1419.48878	0.10664
1418.20302	0.10767
1416.91725	0.10833
1415.63148	0.10874
1414.34571	0.10901
1413.05994	0.10919
1411.77417	0.10924
1410.48840	0.10912
1409.20263	0.10880
1407.91687	0.10828
1406.63110	0.10757
1405.34533	0.10667
1404.05956	0.10561
1402.77379	0.10441
1401.48802	0.10309
1400.20225	0.10168
1398.91648	0.10023
1397.63071	0.09875
1396.34495	0.09722
1395.05918	0.09556
1393.77341	0.09369
1392.48764	0.09167
1391.20187	0.08964
1389.91610	0.08775
1388.63033	0.08602
1387.34456	0.08437
1386.05880	0.08270
1384.77303	0.08104
1383.48726	0.07948
1382.20149	0.07805
1380.91572	0.07672
1379.62995	0.07539
1378.34418	0.07394
1377.05841	0.07232
1375.77264	0.07050
1374.48688	0.06850
1373.20111	0.06636
1371.91534	0.06417
1370.62957	0.06205
1369.34380	0.06010
1368.05803	0.05836
1366.77226	0.05682
1365.48649	0.05536
1364.20073	0.05389
1362.91496	0.05239
1361.62919	0.05087
1360.34342	0.04941
1359.05765	0.04806
1357.77188	0.04682
1356.48611	0.04569
1355.20034	0.04465
1353.91457	0.04369
1352.62881	0.04280
1351.34304	0.04198
1350.05727	0.04123
1348.77150	0.04051
1347.48573	0.03981
1346.19996	0.03913
1344.91419	0.03849
1343.62842	0.03792
1342.34266	0.03742
1341.05689	0.03695
1339.77112	0.03648
1338.48535	0.03602
1337.19958	0.03557
1335.91381	0.03515
1334.62804	0.03474
1333.34227	0.03434
1332.05650	0.03391
1330.77074	0.03349
1329.48497	0.03312
1328.19920	0.03282
1326.91343	0.03260
1325.62766	0.03240
1324.34189	0.03220
1323.05612	0.03198
1321.77035	0.03174
1320.48459	0.03147
1319.19882	0.03119
1317.91305	0.03091
1316.62728	0.03065
1315.34151	0.03042
1314.05574	0.03022
1312.76997	0.03004
1311.48420	0.02987
1310.19843	0.02971
1308.91267	0.02956
1307.62690	0.02939
1306.34113	0.02919
1305.05536	0.02898
1303.76959	0.02876
1302.48382	0.02855
1301.19805	0.02836
1299.91228	0.02819
1298.62652	0.02805
1297.34075	0.02791
1296.05498	0.02775
1294.76921	0.02759
1293.48344	0.02743
1292.19767	0.02728
1290.91190	0.02713
1289.62613	0.02698
1288.34036	0.02685
1287.05460	0.02674
1285.76883	0.02664
1284.48306	0.02653
1283.19729	0.02639
1281.91152	0.02622
1280.62575	0.02603
1279.33998	0.02581
1278.05421	0.02560
1276.76845	0.02540
1275.48268	0.02521
1274.19691	0.02504
1272.91114	0.02490
1271.62537	0.02480
1270.33960	0.02473
1269.05383	0.02462
1267.76806	0.02447
1266.48229	0.02430
1265.19653	0.02413
1263.91076	0.02399
1262.62499	0.02389
1261.33922	0.02380
1260.05345	0.02369
1258.76768	0.02354
1257.48191	0.02337
1256.19614	0.02324
1254.91037	0.02317
1253.62461	0.02314
1252.33884	0.02311
1251.05307	0.02303
1249.76730	0.02291
1248.48153	0.02278
1247.19576	0.02264
1245.90999	0.02247
1244.62422	0.02231
1243.33846	0.02219
1242.05269	0.02212
1240.76692	0.02208
1239.48115	0.02202
1238.19538	0.02193
1236.90961	0.02181
1235.62384	0.02169
1234.33807	0.02156
1233.05230	0.02141
1231.76654	0.02126
1230.48077	0.02113
1229.19500	0.02105
1227.90923	0.02102
1226.62346	0.02101
1225.33769	0.02098
1224.05192	0.02093
1222.76615	0.02085
1221.48039	0.02077
1220.19462	0.02068
1218.90885	0.02058
1217.62308	0.02047
1216.33731	0.02037
1215.05154	0.02031
1213.76577	0.02031
1212.48000	0.02032
1211.19423	0.02031
1209.90847	0.02027
1208.62270	0.02023
1207.33693	0.02023
1206.05116	0.02026
1204.76539	0.02029
1203.47962	0.02028
1202.19385	0.02022
1200.90808	0.02011
1199.62232	0.01994
1198.33655	0.01992
1197.05078	0.01990
1195.76501	0.01987
1194.47924	0.01982
1193.19347	0.01977
1191.90770	0.01972
1190.62193	0.01968
1189.33616	0.01965
1188.05040	0.01963
1186.76463	0.01963
1185.47886	0.01965
1184.19309	0.01969
1182.90732	0.01974
1181.62155	0.01975
1180.33578	0.01972
1179.05001	0.01968
1177.76425	0.01969
1176.47848	0.01977
1175.19271	0.01988
1173.90694	0.01996
1172.62117	0.02000
1171.33540	0.02000
1170.04963	0.02000
1168.76386	0.02002
1167.47809	0.02007
1166.19233	0.02017
1164.90656	0.02032
1163.62079	0.02049
1162.33502	0.02062
1161.04925	0.02068
1159.76348	0.02072
1158.47771	0.02082
1157.19194	0.02103
1155.90618	0.02128
1154.62041	0.02154
1153.33464	0.02178
1152.04887	0.02205
1150.76310	0.02238
1149.47733	0.02273
1148.19156	0.02308
1146.90579	0.02347
1145.62002	0.02392
1144.33426	0.02444
1143.04849	0.02500
1141.76272	0.02558
1140.47695	0.02623
1139.19118	0.02703
1137.90541	0.02799
1136.61964	0.02911
1135.33387	0.03035
1134.04811	0.03169
1132.76234	0.03315
1131.47657	0.03477
1130.19080	0.03657
1128.90503	0.03860
1127.61926	0.04087
1126.33349	0.04337
1125.04772	0.04606
1123.76195	0.04890
1122.47619	0.05188
1121.19042	0.05497
1119.90465	0.05815
1118.61888	0.06133
1117.33311	0.06448
1116.04734	0.06765
1114.76157	0.07092
1113.47580	0.07426
1112.19004	0.07759
1110.90427	0.08079
1109.61850	0.08380
1108.33273	0.08665
1107.04696	0.08938
1105.76119	0.09206
1104.47542	0.09467
1103.18965	0.09717
1101.90388	0.09957
1100.61812	0.10189
1099.33235	0.10412
1098.04658	0.10622
1096.76081	0.10818
1095.47504	0.11006
1094.18927	0.11193
1092.90350	0.11380
1091.61773	0.11558
1090.33197	0.11720
1089.04620	0.11866
1087.76043	0.12006
1086.47466	0.12150
1085.18889	0.12304
1083.90312	0.12469
1082.61735	0.12642
1081.33158	0.12819
1080.04581	0.13002
1078.76005	0.13193
1077.47428	0.13394
1076.18851	0.13606
1074.90274	0.13827
1073.61697	0.14061
1072.33120	0.14309
1071.04543	0.14566
1069.75966	0.14829
1068.47390	0.15095
1067.18813	0.15367
1065.90236	0.15647
1064.61659	0.15932
1063.33082	0.16216
1062.04505	0.16496
1060.75928	0.16774
1059.47351	0.17054
1058.18774	0.17335
1056.90198	0.17616
1055.61621	0.17892
1054.33044	0.18163
1053.04467	0.18430
1051.75890	0.18697
1050.47313	0.18965
1049.18736	0.19239
1047.90159	0.19523
1046.61583	0.19823
1045.33006	0.20138
1044.04429	0.20461
1042.75852	0.20784
1041.47275	0.21100
1040.18698	0.21413
1038.90121	0.21729
1037.61544	0.22051
1036.32967	0.22377
1035.04391	0.22698
1033.75814	0.23002
1032.47237	0.23280
1031.18660	0.23531
1029.90083	0.23756
1028.61506	0.23962
1027.32929	0.24149
1026.04352	0.24314
1024.75775	0.24453
1023.47199	0.24562
1022.18622	0.24642
1020.90045	0.24690
1019.61468	0.24701
1018.32891	0.24671
1017.04314	0.24595
1015.75737	0.24472
1014.47160	0.24301
1013.18584	0.24079
1011.90007	0.23804
1010.61430	0.23476
1009.32853	0.23101
1008.04276	0.22690
1006.75699	0.22253
1005.47122	0.21788
1004.18545	0.21293
1002.89968	0.20767
1001.61392	0.20218
1000.32815	0.19650
999.04238	0.19067
997.75661	0.18468
996.47084	0.17858
995.18507	0.17247
993.89930	0.16646
992.61353	0.16061
991.32777	0.15491
990.04200	0.14932
988.75623	0.14388
987.47046	0.13866
986.18469	0.13371
984.89892	0.12901
983.61315	0.12450
982.32738	0.12020
981.04161	0.11619
979.75585	0.11252
978.47008	0.10920
977.18431	0.10617
975.89854	0.10337
974.61277	0.10082
973.32700	0.09856
972.04123	0.09670
970.75546	0.09531
969.46970	0.09447
968.18393	0.09420
966.89816	0.09447
965.61239	0.09514
964.32662	0.09601
963.04085	0.09688
961.75508	0.09753
960.46931	0.09775
959.18354	0.09740
957.89778	0.09642
956.61201	0.09491
955.32624	0.09300
954.04047	0.09086
952.75470	0.08858
951.46893	0.08627
950.18316	0.08400
948.89739	0.08183
947.61163	0.07977
946.32586	0.07784
945.04009	0.07598
943.75432	0.07416
942.46855	0.07238
941.18278	0.07066
939.89701	0.06904
938.61124	0.06754
937.32547	0.06612
936.03971	0.06474
934.75394	0.06343
933.46817	0.06226
932.18240	0.06122
930.89663	0.06023
929.61086	0.05921
928.32509	0.05818
927.03932	0.05723
925.75356	0.05641
924.46779	0.05568
923.18202	0.05499
921.89625	0.05431
920.61048	0.05365
919.32471	0.05302
918.03894	0.05242
916.75317	0.05187
915.46740	0.05135
914.18164	0.05082
912.89587	0.05027
911.61010	0.04966
910.32433	0.04903
909.03856	0.04843
907.75279	0.04792
906.46702	0.04751
905.18125	0.04717
903.89549	0.04687
902.60972	0.04659
901.32395	0.04630
900.03818	0.04600
898.75241	0.04569
897.46664	0.04544
896.18087	0.04527
894.89510	0.04510
893.60933	0.04488
892.32357	0.04460
891.03780	0.04436
889.75203	0.04433
888.46626	0.04461
887.18049	0.04524
885.89472	0.04626
884.60895	0.04779
883.32318	0.04996
882.03742	0.05264
880.75165	0.05547
879.46588	0.05798
878.18011	0.05999
876.89434	0.06162
875.60857	0.06317
874.32280	0.06478
873.03703	0.06626
871.75126	0.06721
870.46550	0.06732
869.17973	0.06653
867.89396	0.06498
866.60819	0.06286
865.32242	0.06037
864.03665	0.05778
862.75088	0.05534
861.46511	0.05326
860.17935	0.05153
858.89358	0.05007
857.60781	0.04880
856.32204	0.04769
855.03627	0.04672
853.75050	0.04588
852.46473	0.04516
851.17896	0.04455
849.89319	0.04402
848.60743	0.04353
847.32166	0.04307
846.03589	0.04266
844.75012	0.04232
843.46435	0.04202
842.17858	0.04170
840.89281	0.04134
839.60704	0.04099
838.32128	0.04069
837.03551	0.04045
835.74974	0.04023
834.46397	0.04002
833.17820	0.03983
831.89243	0.03966
830.60666	0.03950
829.32089	0.03932
828.03512	0.03911
826.74936	0.03889
825.46359	0.03871
824.17782	0.03859
822.89205	0.03855
821.60628	0.03855
820.32051	0.03856
819.03474	0.03853
817.74897	0.03844
816.46321	0.03830
815.17744	0.03812
813.89167	0.03796
812.60590	0.03785
811.32013	0.03778
810.03436	0.03774
808.74859	0.03766
807.46282	0.03758
806.17705	0.03755
804.89129	0.03759
803.60552	0.03765
802.31975	0.03763
801.03398	0.03753
799.74821	0.03738
798.46244	0.03723
797.17667	0.03706
795.89090	0.03690
794.60513	0.03678
793.31937	0.03671
792.03360	0.03667
790.74783	0.03663
789.46206	0.03655
788.17629	0.03646
786.89052	0.03639
785.60475	0.03636
784.31898	0.03632
783.03322	0.03623
781.74745	0.03608
780.46168	0.03590
779.17591	0.03573
777.89014	0.03557
776.60437	0.03547
775.31860	0.03546
774.03283	0.03555
772.74706	0.03569
771.46130	0.03579
770.17553	0.03585
768.88976	0.03588
767.60399	0.03591
766.31822	0.03591
765.03245	0.03585
763.74668	0.03570
762.46091	0.03550
761.17515	0.03531
759.88938	0.03522
758.60361	0.03527
757.31784	0.03543
756.03207	0.03559
754.74630	0.03570
753.46053	0.03572
752.17476	0.03569
750.88899	0.03564
749.60323	0.03564
748.31746	0.03565
747.03169	0.03561
745.74592	0.03545
744.46015	0.03524
743.17438	0.03506
741.88861	0.03495
740.60284	0.03487
739.31708	0.03474
738.03131	0.03458
736.74554	0.03447
735.45977	0.03447
734.17400	0.03454
732.88823	0.03457
731.60246	0.03451
730.31669	0.03438
729.03092	0.03427
727.74516	0.03424
726.45939	0.03423
725.17362	0.03421
723.88785	0.03398
722.60208	0.03407
721.31631	0.03455
720.03054	0.03493
718.74477	0.03494
717.45901	0.03487
716.17324	0.03476
714.88747	0.03454
713.60170	0.03427
712.31593	0.03399
711.03016	0.03375
709.74439	0.03353
708.45862	0.03332
707.17285	0.03314
705.88709	0.03299
704.60132	0.03287
703.31555	0.03277
702.02978	0.03269
700.74401	0.03264
699.45824	0.03263
698.17247	0.03262
696.88670	0.03260
695.60094	0.03257
694.31517	0.03249
693.02940	0.03238
691.74363	0.03225
690.45786	0.03211
689.17209	0.03195
687.88632	0.03179
686.60055	0.03160
685.31478	0.03139
684.02902	0.03117
682.74325	0.03096
681.45748	0.03078
680.17171	0.03064
678.88594	0.03055
677.60017	0.03053
676.31440	0.03055
675.02863	0.03050
673.74287	0.03017
672.45710	0.02942
671.17133	0.02905
669.88556	0.03093
668.59979	0.03436
667.31402	0.03370
666.02825	0.03032
664.74248	0.02925
663.45671	0.02979
662.17095	0.03015
660.88518	0.03009
659.59941	0.02986
658.31364	0.02961
657.02787	0.02943
655.74210	0.02930
654.45633	0.02920
653.17056	0.02913
651.88480	0.02909
650.59903	0.02911
649.31326	0.02920
648.02749	0.02930
646.74172	0.02944
645.45595	0.02964
644.17018	0.02985
642.88441	0.03002
641.59864	0.03014
640.31288	0.03022
639.02711	0.03029
637.74134	0.03038
636.45557	0.03049
635.16980	0.03064
633.88403	0.03081
632.59826	0.03111
631.31249	0.03178
630.02673	0.03304
628.74096	0.03422
627.45519	0.03437
626.16942	0.03654
624.88365	0.03970
623.59788	0.04224
622.31211	0.04371
621.02634	0.04461
619.74057	0.04567
618.45481	0.04743
617.16904	0.05015
615.88327	0.05371
614.59750	0.05766
613.31173	0.06181
612.02596	0.06644
610.74019	0.07188
609.45442	0.07775
608.16866	0.08315
606.88289	0.08766
605.59712	0.09144
604.31135	0.09453
603.02558	0.09648
601.73981	0.09684
600.45404	0.09561
599.16827	0.09321
597.88250	0.09028
596.59674	0.08736
595.31097	0.08476
594.02520	0.08251
592.73943	0.08058
591.45366	0.07895
590.16789	0.07778
588.88212	0.07725
587.59635	0.07742
586.31059	0.07823
585.02482	0.07953
583.73905	0.08124
582.45328	0.08326
581.16751	0.08545
579.88174	0.08764
578.59597	0.08973
577.31020	0.09176
576.02443	0.09381
574.73867	0.09593
573.45290	0.09809
572.16713	0.10029
570.88136	0.10268
569.59559	0.10551
568.30982	0.10891
567.02405	0.11275
565.73828	0.11667
564.45251	0.12005
563.16675	0.12229
561.88098	0.12297
560.59521	0.12198
559.30944	0.11947
558.02367	0.11572
556.73790	0.11107
555.45213	0.10585
554.16636	0.10040
552.88060	0.09501
551.59483	0.08991
550.30906	0.08516
549.02329	0.08075
547.73752	0.07669
546.45175	0.07298
545.16598	0.06963
543.88021	0.06662
542.59444	0.06396
541.30868	0.06166
540.02291	0.05965
538.73714	0.05784
537.45137	0.05615
536.16560	0.05460
534.87983	0.05321
533.59406	0.05193
532.30829	0.05069
531.02253	0.04946
529.73676	0.04828
528.45099	0.04724
527.16522	0.04632
525.87945	0.04546
524.59368	0.04456
523.30791	0.04361
522.02214	0.04269
520.73637	0.04189
519.45061	0.04121
518.16484	0.04058
516.87907	0.03989
515.59330	0.03910
514.30753	0.03831
513.02176	0.03762
511.73599	0.03706
510.45022	0.03659
509.16446	0.03617
507.87869	0.03579
506.59292	0.03542
505.30715	0.03505
504.02138	0.03466
502.73561	0.03424
501.44984	0.03376
500.16407	0.03323
498.87830	0.03272
497.59254	0.03228
496.30677	0.03190
495.02100	0.03157
493.73523	0.03131
492.44946	0.03117
491.16369	0.03113
489.87792	0.03107
488.59215	0.03093
487.30639	0.03070
486.02062	0.03044
484.73485	0.03022
483.44908	0.03010
482.16331	0.03013
480.87754	0.03028
479.59177	0.03053
478.30600	0.03083
477.02023	0.03115
475.73447	0.03148
474.44870	0.03176
473.16293	0.03196
471.87716	0.03205
470.59139	0.03205
469.30562	0.03204
468.01985	0.03205
466.73408	0.03203
465.44832	0.03191
464.16255	0.03166
462.87678	0.03131
461.59101	0.03095
460.30524	0.03066
459.01947	0.03047
457.73370	0.03033
456.44793	0.03017
455.16216	0.02997
453.87640	0.02971
452.59063	0.02942
451.30486	0.02909
450.01909	0.02874
448.73332	0.02837
447.44755	0.02800
446.16178	0.02765
444.87601	0.02734
443.59025	0.02710
442.30448	0.02693
441.01871	0.02679
439.73294	0.02667
438.44717	0.02655
437.16140	0.02643
435.87563	0.02631
434.58986	0.02618
433.30409	0.02605
432.01833	0.02595
430.73256	0.02588
429.44679	0.02583
428.16102	0.02579
426.87525	0.02572
425.58948	0.02560
424.30371	0.02543
423.01794	0.02527
421.73218	0.02515
420.44641	0.02508
419.16064	0.02500
417.87487	0.02486
416.58910	0.02466
415.30333	0.02441
414.01756	0.02415
412.73179	0.02392
411.44602	0.02373
410.16026	0.02362
408.87449	0.02357
407.58872	0.02358
406.30295	0.02361
405.01718	0.02365
403.73141	0.02367
402.44564	0.02369
401.15987	0.02374
399.87411	0.02385
