3997.45528	0.06240
3996.16951	0.06201
3994.88374	0.06163
3993.59798	0.06124
3992.31221	0.06084
3991.02644	0.06041
3989.74067	0.06000
3988.45490	0.05983
3987.16913	0.06008
3985.88336	0.06060
3984.59759	0.06101
3983.31183	0.06113
3982.02606	0.06097
3980.74029	0.06056
3979.45452	0.05987
3978.16875	0.05906
3976.88298	0.05844
3975.59721	0.05816
3974.31144	0.05818
3973.02567	0.05845
3971.73991	0.05896
3970.45414	0.05954
3969.16837	0.05989
3967.88260	0.05979
3966.59683	0.05927
3965.31106	0.05852
3964.02529	0.05794
3962.73952	0.05791
3961.45376	0.05844
3960.16799	0.05901
3958.88222	0.05902
3957.59645	0.05841
3956.31068	0.05763
3955.02491	0.05711
3953.73914	0.05681
3952.45337	0.05652
3951.16760	0.05622
3949.88184	0.05620
3948.59607	0.05669
3947.31030	0.05755
3946.02453	0.05835
3944.73876	0.05862
3943.45299	0.05819
3942.16722	0.05722
3940.88145	0.05616
3939.59569	0.05550
3938.30992	0.05556
3937.02415	0.05616
3935.73838	0.05673
3934.45261	0.05683
3933.16684	0.05656
3931.88107	0.05637
3930.59530	0.05651
3929.30953	0.05691
3928.02377	0.05731
3926.73800	0.05747
3925.45223	0.05731
3924.16646	0.05696
3922.88069	0.05682
3921.59492	0.05715
3920.30915	0.05781
3919.02338	0.05834
3917.73762	0.05840
3916.45185	0.05805
3915.16608	0.05753
3913.88031	0.05690
3912.59454	0.05611
3911.30877	0.05528
3910.02300	0.05486
3908.73723	0.05516
3907.45146	0.05601
3906.16570	0.05687
3904.87993	0.05736
3903.59416	0.05748
3902.30839	0.05742
3901.02262	0.05729
3899.73685	0.05704
3898.45108	0.05655
3897.16531	0.05580
3895.87955	0.05491
3894.59378	0.05416
3893.30801	0.05375
3892.02224	0.05367
3890.73647	0.05379
3889.45070	0.05406
3888.16493	0.05462
3886.87916	0.05549
3885.59339	0.05633
3884.30763	0.05659
3883.02186	0.05604
3881.73609	0.05490
3880.45032	0.05366
3879.16455	0.05273
3877.87878	0.05222
3876.59301	0.05206
3875.30724	0.05218
3874.02148	0.05246
3872.73571	0.05263
3871.44994	0.05252
3870.16417	0.05230
3868.87840	0.05245
3867.59263	0.05318
3866.30686	0.05403
3865.02109	0.05436
3863.73532	0.05395
3862.44956	0.05326
3861.16379	0.05285
3859.87802	0.05290
3858.59225	0.05306
3857.30648	0.05294
3856.02071	0.05247
3854.73494	0.05197
3853.44917	0.05180
3852.16341	0.05201
3850.87764	0.05238
3849.59187	0.05266
3848.30610	0.05266
3847.02033	0.05235
3845.73456	0.05180
3844.44879	0.05126
3843.16302	0.05096
3841.87725	0.05094
3840.59149	0.05101
3839.30572	0.05104
3838.01995	0.05109
3836.73418	0.05135
3835.44841	0.05175
3834.16264	0.05197
3832.87687	0.05171
3831.59110	0.05109
3830.30534	0.05057
3829.01957	0.05049
3827.73380	0.05088
3826.44803	0.05149
3825.16226	0.05209
3823.87649	0.05242
3822.59072	0.05228
3821.30495	0.05177
3820.01918	0.05140
3818.73342	0.05162
3817.44765	0.05233
3816.16188	0.05295
3814.87611	0.05303
3813.59034	0.05266
3812.30457	0.05231
3811.01880	0.05219
3809.73303	0.05200
3808.44726	0.05141
3807.16150	0.05051
3805.87573	0.04970
3804.58996	0.04911
3803.30419	0.04854
3802.01842	0.04798
3800.73265	0.04778
3799.44688	0.04823
3798.16111	0.04912
3796.87535	0.04996
3795.58958	0.05034
3794.30381	0.05013
3793.01804	0.04955
3791.73227	0.04899
3790.44650	0.04889
3789.16073	0.04943
3787.87496	0.05038
3786.58919	0.05133
3785.30343	0.05194
3784.01766	0.05210
3782.73189	0.05182
3781.44612	0.05106
3780.16035	0.04986
3778.87458	0.04856
3777.58881	0.04774
3776.30304	0.04784
3775.01728	0.04872
3773.73151	0.04977
3772.44574	0.05045
3771.15997	0.05064
3769.87420	0.05056
3768.58843	0.05046
3767.30266	0.05043
3766.01689	0.05048
3764.73112	0.05067
3763.44536	0.05092
3762.15959	0.05105
3760.87382	0.05091
3759.58805	0.05060
3758.30228	0.05038
3757.01651	0.05035
3755.73074	0.05041
3754.44497	0.05034
3753.15921	0.05008
3751.87344	0.04975
3750.58767	0.04958
3749.30190	0.04975
3748.01613	0.05022
3746.73036	0.05071
3745.44459	0.05078
3744.15882	0.05016
3742.87305	0.04907
3741.58729	0.04812
3740.30152	0.04778
3739.01575	0.04800
3737.72998	0.04838
3736.44421	0.04860
3735.15844	0.04867
3733.87267	0.04871
3732.58690	0.04872
3731.30114	0.04861
3730.01537	0.04826
3728.72960	0.04770
3727.44383	0.04722
3726.15806	0.04705
3724.87229	0.04719
3723.58652	0.04735
3722.30075	0.04733
3721.01498	0.04715
3719.72922	0.04702
3718.44345	0.04708
3717.15768	0.04737
3715.87191	0.04774
3714.58614	0.04780
3713.30037	0.04713
3712.01460	0.04561
3710.72883	0.04380
3709.44307	0.04264
3708.15730	0.04282
3706.87153	0.04414
3705.58576	0.04566
3704.29999	0.04647
3703.01422	0.04645
3701.72845	0.04622
3700.44268	0.04632
3699.15691	0.04665
3697.87115	0.04673
3696.58538	0.04637
3695.29961	0.04588
3694.01384	0.04576
3692.72807	0.04615
3691.44230	0.04669
3690.15653	0.04689
3688.87076	0.04664
3687.58500	0.04627
3686.29923	0.04605
3685.01346	0.04595
3683.72769	0.04576
3682.44192	0.04551
3681.15615	0.04542
3679.87038	0.04559
3678.58461	0.04579
3677.29884	0.04571
3676.01308	0.04548
3674.72731	0.04557
3673.44154	0.04630
3672.15577	0.04730
3670.87000	0.04788
3669.58423	0.04763
3668.29846	0.04667
3667.01269	0.04536
3665.72693	0.04412
3664.44116	0.04339
3663.15539	0.04361
3661.86962	0.04484
3660.58385	0.04659
3659.29808	0.04814
3658.01231	0.04894
3656.72654	0.04901
3655.44077	0.04882
3654.15501	0.04879
3652.86924	0.04898
3651.58347	0.04916
3650.29770	0.04918
3649.01193	0.04912
3647.72616	0.04913
3646.44039	0.04930
3645.15462	0.04963
3643.86886	0.05004
3642.58309	0.05030
3641.29732	0.05028
3640.01155	0.05016
3638.72578	0.05032
3637.44001	0.05086
3636.15424	0.05134
3634.86847	0.05130
3633.58270	0.05078
3632.29694	0.05033
3631.01117	0.05043
3629.72540	0.05106
3628.43963	0.05190
3627.15386	0.05259
3625.86809	0.05282
3624.58232	0.05260
3623.29655	0.05228
3622.01079	0.05240
3620.72502	0.05308
3619.43925	0.05397
3618.15348	0.05472
3616.86771	0.05525
3615.58194	0.05558
3614.29617	0.05559
3613.01040	0.05510
3611.72463	0.05419
3610.43887	0.05328
3609.15310	0.05286
3607.86733	0.05315
3606.58156	0.05394
3605.29579	0.05474
3604.01002	0.05519
3602.72425	0.05532
3601.43848	0.05541
3600.15272	0.05570
3598.86695	0.05613
3597.58118	0.05645
3596.29541	0.05661
3595.00964	0.05681
3593.72387	0.05720
3592.43810	0.05760
3591.15233	0.05768
3589.86656	0.05749
3588.58080	0.05738
3587.29503	0.05758
3586.00926	0.05794
3584.72349	0.05821
3583.43772	0.05831
3582.15195	0.05837
3580.86618	0.05852
3579.58041	0.05872
3578.29464	0.05876
3577.00888	0.05853
3575.72311	0.05826
3574.43734	0.05838
3573.15157	0.05908
3571.86580	0.06017
3570.58003	0.06123
3569.29426	0.06190
3568.00849	0.06204
3566.72273	0.06177
3565.43696	0.06139
3564.15119	0.06117
3562.86542	0.06116
3561.57965	0.06130
3560.29388	0.06157
3559.00811	0.06197
3557.72234	0.06243
3556.43657	0.06280
3555.15081	0.06299
3553.86504	0.06306
3552.57927	0.06314
3551.29350	0.06329
3550.00773	0.06352
3548.72196	0.06379
3547.43619	0.06403
3546.15042	0.06414
3544.86466	0.06401
3543.57889	0.06370
3542.29312	0.06350
3541.00735	0.06371
3539.72158	0.06436
3538.43581	0.06516
3537.15004	0.06567
3535.86427	0.06570
3534.57850	0.06538
3533.29274	0.06506
3532.00697	0.06506
3530.72120	0.06541
3529.43543	0.06593
3528.14966	0.06643
3526.86389	0.06683
3525.57812	0.06710
3524.29235	0.06715
3523.00659	0.06699
3521.72082	0.06676
3520.43505	0.06660
3519.14928	0.06658
3517.86351	0.06671
3516.57774	0.06696
3515.29197	0.06721
3514.00620	0.06727
3512.72043	0.06714
3511.43467	0.06706
3510.14890	0.06724
3508.86313	0.06773
3507.57736	0.06844
3506.29159	0.06926
3505.00582	0.07000
3503.72005	0.07043
3502.43428	0.07048
3501.14852	0.07032
3499.86275	0.07017
3498.57698	0.07013
3497.29121	0.07017
3496.00544	0.07017
3494.71967	0.07009
3493.43390	0.07003
3492.14813	0.07009
3490.86236	0.07033
3489.57660	0.07069
3488.29083	0.07102
3487.00506	0.07117
3485.71929	0.07105
3484.43352	0.07064
3483.14775	0.07007
3481.86198	0.06959
3480.57621	0.06946
3479.29045	0.06977
3478.00468	0.07035
3476.71891	0.07089
3475.43314	0.07115
3474.14737	0.07114
3472.86160	0.07105
3471.57583	0.07114
3470.29006	0.07154
3469.00429	0.07227
3467.71853	0.07320
3466.43276	0.07404
3465.14699	0.07448
3463.86122	0.07441
3462.57545	0.07406
3461.28968	0.07376
3460.00391	0.07375
3458.71814	0.07404
3457.43238	0.07454
3456.14661	0.07506
3454.86084	0.07536
3453.57507	0.07527
3452.28930	0.07489
3451.00353	0.07453
3449.71776	0.07446
3448.43199	0.07467
3447.14622	0.07507
3445.86046	0.07561
3444.57469	0.07632
3443.28892	0.07716
3442.00315	0.07789
3440.71738	0.07820
3439.43161	0.07797
3438.14584	0.07733
3436.86007	0.07659
3435.57431	0.07604
3434.28854	0.07583
3433.00277	0.07586
3431.71700	0.07595
3430.43123	0.07608
3429.14546	0.07640
3427.85969	0.07698
3426.57392	0.07769
3425.28815	0.07828
3424.00239	0.07856
3422.71662	0.07843
3421.43085	0.07793
3420.14508	0.07729
3418.85931	0.07690
3417.57354	0.07697
3416.28777	0.07732
3415.00200	0.07759
3413.71624	0.07758
3412.43047	0.07743
3411.14470	0.07746
3409.85893	0.07783
3408.57316	0.07835
3407.28739	0.07872
3406.00162	0.07884
3404.71585	0.07881
3403.43008	0.07870
3402.14432	0.07848
3400.85855	0.07818
3399.57278	0.07795
3398.28701	0.07799
3397.00124	0.07841
3395.71547	0.07904
3394.42970	0.07959
3393.14393	0.07988
3391.85817	0.07994
3390.57240	0.07990
3389.28663	0.07982
3388.00086	0.07960
3386.71509	0.07917
3385.42932	0.07864
3384.14355	0.07826
3382.85778	0.07825
3381.57201	0.07853
3380.28625	0.07886
3379.00048	0.07910
3377.71471	0.07928
3376.42894	0.07948
3375.14317	0.07965
3373.85740	0.07965
3372.57163	0.07944
3371.28586	0.07917
3370.00010	0.07915
3368.71433	0.07966
3367.42856	0.08063
3366.14279	0.08165
3364.85702	0.08220
3363.57125	0.08210
3362.28548	0.08156
3360.99971	0.08097
3359.71394	0.08056
3358.42818	0.08038
3357.14241	0.08043
3355.85664	0.08064
3354.57087	0.08079
3353.28510	0.08067
3351.99933	0.08022
3350.71356	0.07958
3349.42779	0.07891
3348.14202	0.07825
3346.85626	0.07764
3345.57049	0.07728
3344.28472	0.07733
3342.99895	0.07783
3341.71318	0.07857
3340.42741	0.07928
3339.14164	0.07978
3337.85587	0.08000
3336.57011	0.07993
3335.28434	0.07963
3333.99857	0.07923
3332.71280	0.07891
3331.42703	0.07879
3330.14126	0.07887
3328.85549	0.07903
3327.56972	0.07916
3326.28395	0.07926
3324.99819	0.07937
3323.71242	0.07942
3322.42665	0.07931
3321.14088	0.07896
3319.85511	0.07847
3318.56934	0.07805
3317.28357	0.07786
3315.99780	0.07793
3314.71204	0.07818
3313.42627	0.07846
3312.14050	0.07867
3310.85473	0.07874
3309.56896	0.07868
3308.28319	0.07852
3306.99742	0.07829
3305.71165	0.07801
3304.42588	0.07774
3303.14012	0.07754
3301.85435	0.07745
3300.56858	0.07746
3299.28281	0.07751
3297.99704	0.07747
3296.71127	0.07728
3295.42550	0.07700
3294.13973	0.07685
3292.85397	0.07701
3291.56820	0.07748
3290.28243	0.07805
3288.99666	0.07837
3287.71089	0.07822
3286.42512	0.07766
3285.13935	0.07704
3283.85358	0.07671
3282.56781	0.07680
3281.28205	0.07717
3279.99628	0.07757
3278.71051	0.07779
3277.42474	0.07773
3276.13897	0.07747
3274.85320	0.07717
3273.56743	0.07689
3272.28166	0.07652
3270.99590	0.07588
3269.71013	0.07501
3268.42436	0.07417
3267.13859	0.07374
3265.85282	0.07384
3264.56705	0.07425
3263.28128	0.07462
3261.99551	0.07482
3260.70974	0.07497
3259.42398	0.07520
3258.13821	0.07548
3256.85244	0.07563
3255.56667	0.07555
3254.28090	0.07530
3252.99513	0.07502
3251.70936	0.07481
3250.42359	0.07474
3249.13783	0.07492
3247.85206	0.07532
3246.56629	0.07572
3245.28052	0.07586
3243.99475	0.07573
3242.70898	0.07555
3241.42321	0.07552
3240.13744	0.07565
3238.85167	0.07586
3237.56591	0.07605
3236.28014	0.07617
3234.99437	0.07608
3233.70860	0.07563
3232.42283	0.07494
3231.13706	0.07436
3229.85129	0.07419
3228.56552	0.07438
3227.27976	0.07457
3225.99399	0.07455
3224.70822	0.07437
3223.42245	0.07418
3222.13668	0.07407
3220.85091	0.07403
3219.56514	0.07397
3218.27937	0.07379
3216.99360	0.07352
3215.70784	0.07338
3214.42207	0.07354
3213.13630	0.07386
3211.85053	0.07398
3210.56476	0.07373
3209.27899	0.07324
3207.99322	0.07277
3206.70745	0.07241
3205.42169	0.07218
3204.13592	0.07215
3202.85015	0.07238
3201.56438	0.07279
3200.27861	0.07311
3198.99284	0.07312
3197.70707	0.07285
3196.42130	0.07246
3195.13553	0.07211
3193.84977	0.07181
3192.56400	0.07157
3191.27823	0.07142
3189.99246	0.07137
3188.70669	0.07136
3187.42092	0.07132
3186.13515	0.07118
3184.84938	0.07089
3183.56362	0.07052
3182.27785	0.07025
3180.99208	0.07023
3179.70631	0.07045
3178.42054	0.07067
3177.13477	0.07070
3175.84900	0.07051
3174.56323	0.07025
3173.27746	0.07005
3171.99170	0.06994
3170.70593	0.06985
3169.42016	0.06968
3168.13439	0.06944
3166.84862	0.06924
3165.56285	0.06921
3164.27708	0.06937
3162.99131	0.06965
3161.70555	0.06987
3160.41978	0.06983
3159.13401	0.06948
3157.84824	0.06896
3156.56247	0.06858
3155.27670	0.06856
3153.99093	0.06887
3152.70516	0.06924
3151.41939	0.06937
3150.13363	0.06912
3148.84786	0.06857
3147.56209	0.06787
3146.27632	0.06718
3144.99055	0.06660
3143.70478	0.06614
3142.41901	0.06591
3141.13324	0.06602
3139.84748	0.06645
3138.56171	0.06695
3137.27594	0.06722
3135.99017	0.06723
3134.70440	0.06715
3133.41863	0.06714
3132.13286	0.06720
3130.84709	0.06725
3129.56132	0.06721
3128.27556	0.06709
3126.98979	0.06694
3125.70402	0.06685
3124.41825	0.06690
3123.13248	0.06702
3121.84671	0.06709
3120.56094	0.06700
3119.27517	0.06679
3117.98940	0.06655
3116.70364	0.06631
3115.41787	0.06600
3114.13210	0.06554
3112.84633	0.06499
3111.56056	0.06458
3110.27479	0.06449
3108.98902	0.06467
3107.70325	0.06491
3106.41749	0.06497
3105.13172	0.06468
3103.84595	0.06408
3102.56018	0.06335
3101.27441	0.06284
3099.98864	0.06275
3098.70287	0.06296
3097.41710	0.06317
3096.13133	0.06316
3094.84557	0.06299
3093.55980	0.06276
3092.27403	0.06253
3090.98826	0.06230
3089.70249	0.06212
3088.41672	0.06204
3087.13095	0.06205
3085.84518	0.06213
3084.55942	0.06225
3083.27365	0.06237
3081.98788	0.06234
3080.70211	0.06205
3079.41634	0.06157
3078.13057	0.06113
3076.84480	0.06090
3075.55903	0.06092
3074.27326	0.06112
3072.98750	0.06142
3071.70173	0.06173
3070.41596	0.06193
3069.13019	0.06194
3067.84442	0.06175
3066.55865	0.06132
3065.27288	0.06063
3063.98711	0.05986
3062.70135	0.05935
3061.41558	0.05932
3060.12981	0.05967
3058.84404	0.06001
3057.55827	0.06003
3056.27250	0.05972
3054.98673	0.05938
3053.70096	0.05931
3052.41519	0.05961
3051.12943	0.06006
3049.84366	0.06032
3048.55789	0.06021
3047.27212	0.05981
3045.98635	0.05934
3044.70058	0.05899
3043.41481	0.05881
3042.12904	0.05876
3040.84328	0.05872
3039.55751	0.05859
3038.27174	0.05837
3036.98597	0.05810
3035.70020	0.05777
3034.41443	0.05737
3033.12866	0.05703
3031.84289	0.05693
3030.55712	0.05713
3029.27136	0.05743
3027.98559	0.05761
3026.69982	0.05763
3025.41405	0.05760
3024.12828	0.05755
3022.84251	0.05746
3021.55674	0.05725
3020.27097	0.05694
3018.98521	0.05663
3017.69944	0.05644
3016.41367	0.05646
3015.12790	0.05666
3013.84213	0.05692
3012.55636	0.05706
3011.27059	0.05694
3009.98482	0.05651
3008.69905	0.05589
3007.41329	0.05531
3006.12752	0.05495
3004.84175	0.05481
3003.55598	0.05475
3002.27021	0.05473
3000.98444	0.05479
2999.69867	0.05493
2998.41290	0.05515
2997.12714	0.05527
2995.84137	0.05529
2994.55560	0.05532
2993.26983	0.05541
2991.98406	0.05546
2990.69829	0.05524
2989.41252	0.05473
2988.12675	0.05428
2986.84098	0.05425
2985.55522	0.05469
2984.26945	0.05530
2982.98368	0.05579
2981.69791	0.05609
2980.41214	0.05631
2979.12637	0.05654
2977.84060	0.05684
2976.55483	0.05723
2975.26907	0.05764
2973.98330	0.05796
2972.69753	0.05815
2971.41176	0.05832
2970.12599	0.05863
2968.84022	0.05913
2967.55445	0.05978
2966.26868	0.06047
2964.98291	0.06119
2963.69715	0.06187
2962.41138	0.06237
2961.12561	0.06253
2959.83984	0.06235
2958.55407	0.06205
2957.26830	0.06191
2955.98253	0.06208
2954.69676	0.06248
2953.41100	0.06294
2952.12523	0.06325
2950.83946	0.06332
2949.55369	0.06319
2948.26792	0.06303
2946.98215	0.06302
2945.69638	0.06314
2944.41061	0.06326
2943.12484	0.06332
2941.83908	0.06340
2940.55331	0.06358
2939.26754	0.06380
2937.98177	0.06391
2936.69600	0.06383
2935.41023	0.06368
2934.12446	0.06363
2932.83869	0.06384
2931.55293	0.06427
2930.26716	0.06478
2928.98139	0.06518
2927.69562	0.06540
2926.40985	0.06544
2925.12408	0.06538
2923.83831	0.06522
2922.55254	0.06494
2921.26677	0.06459
2919.98101	0.06427
2918.69524	0.06404
2917.40947	0.06379
2916.12370	0.06333
2914.83793	0.06267
2913.55216	0.06199
2912.26639	0.06153
2910.98062	0.06130
2909.69486	0.06111
2908.40909	0.06077
2907.12332	0.06026
2905.83755	0.05971
2904.55178	0.05930
2903.26601	0.05903
2901.98024	0.05879
2900.69447	0.05848
2899.40870	0.05810
2898.12294	0.05773
2896.83717	0.05742
2895.55140	0.05716
2894.26563	0.05694
2892.97986	0.05668
2891.69409	0.05635
2890.40832	0.05598
2889.12255	0.05562
2887.83678	0.05526
2886.55102	0.05484
2885.26525	0.05438
2883.97948	0.05401
2882.69371	0.05384
2881.40794	0.05387
2880.12217	0.05401
2878.83640	0.05420
2877.55063	0.05442
2876.26487	0.05460
2874.97910	0.05469
2873.69333	0.05471
2872.40756	0.05472
2871.12179	0.05479
2869.83602	0.05495
2868.55025	0.05512
2867.26448	0.05518
2865.97871	0.05512
2864.69295	0.05497
2863.40718	0.05472
2862.12141	0.05430
2860.83564	0.05376
2859.54987	0.05333
2858.26410	0.05316
2856.97833	0.05319
2855.69256	0.05317
2854.40680	0.05294
2853.12103	0.05256
2851.83526	0.05216
2850.54949	0.05184
2849.26372	0.05154
2847.97795	0.05119
2846.69218	0.05075
2845.40641	0.05029
2844.12064	0.04993
2842.83488	0.04969
2841.54911	0.04944
2840.26334	0.04902
2838.97757	0.04842
2837.69180	0.04776
2836.40603	0.04721
2835.12026	0.04676
2833.83449	0.04636
2832.54873	0.04596
2831.26296	0.04555
2829.97719	0.04518
2828.69142	0.04484
2827.40565	0.04451
2826.11988	0.04421
2824.83411	0.04408
2823.54834	0.04414
2822.26257	0.04423
2820.97681	0.04417
2819.69104	0.04390
2818.40527	0.04358
2817.11950	0.04338
2815.83373	0.04330
2814.54796	0.04320
2813.26219	0.04303
2811.97642	0.04283
2810.69066	0.04271
2809.40489	0.04262
2808.11912	0.04246
2806.83335	0.04222
2805.54758	0.04197
2804.26181	0.04181
2802.97604	0.04181
2801.69027	0.04199
2800.40450	0.04226
2799.11874	0.04236
2797.83297	0.04209
2796.54720	0.04157
2795.26143	0.04109
2793.97566	0.04087
2792.68989	0.04084
2791.40412	0.04085
2790.11835	0.04083
2788.83259	0.04080
2787.54682	0.04079
2786.26105	0.04077
2784.97528	0.04073
2783.68951	0.04070
2782.40374	0.04063
2781.11797	0.04049
2779.83220	0.04031
2778.54643	0.04018
2777.26067	0.04013
2775.97490	0.04014
2774.68913	0.04013
2773.40336	0.04010
2772.11759	0.04005
2770.83182	0.04001
2769.54605	0.03997
2768.26028	0.03991
2766.97452	0.03982
2765.68875	0.03964
2764.40298	0.03939
2763.11721	0.03909
2761.83144	0.03877
2760.54567	0.03853
2759.25990	0.03841
2757.97413	0.03841
2756.68836	0.03849
2755.40260	0.03862
2754.11683	0.03878
2752.83106	0.03896
2751.54529	0.03909
2750.25952	0.03913
2748.97375	0.03904
2747.68798	0.03879
2746.40221	0.03842
2745.11645	0.03804
2743.83068	0.03776
2742.54491	0.03765
2741.25914	0.03767
2739.97337	0.03780
2738.68760	0.03803
2737.40183	0.03828
2736.11606	0.03845
2734.83029	0.03843
2733.54453	0.03821
2732.25876	0.03789
2730.97299	0.03769
2729.68722	0.03772
2728.40145	0.03792
2727.11568	0.03811
2725.82991	0.03811
2724.54414	0.03786
2723.25838	0.03745
2721.97261	0.03704
2720.68684	0.03677
2719.40107	0.03671
2718.11530	0.03681
2716.82953	0.03693
2715.54376	0.03696
2714.25799	0.03684
2712.97222	0.03660
2711.68646	0.03636
2710.40069	0.03625
2709.11492	0.03636
2707.82915	0.03663
2706.54338	0.03692
2705.25761	0.03705
2703.97184	0.03692
2702.68607	0.03660
2701.40031	0.03627
2700.11454	0.03610
2698.82877	0.03607
2697.54300	0.03610
2696.25723	0.03610
2694.97146	0.03611
2693.68569	0.03621
2692.39992	0.03635
2691.11415	0.03639
2689.82839	0.03623
2688.54262	0.03587
2687.25685	0.03546
2685.97108	0.03513
2684.68531	0.03496
2683.39954	0.03491
2682.11377	0.03497
2680.82800	0.03508
2679.54224	0.03519
2678.25647	0.03529
2676.97070	0.03543
2675.68493	0.03561
2674.39916	0.03572
2673.11339	0.03562
2671.82762	0.03535
2670.54185	0.03507
2669.25608	0.03494
2667.97032	0.03497
2666.68455	0.03507
2665.39878	0.03514
2664.11301	0.03514
2662.82724	0.03513
2661.54147	0.03517
2660.25570	0.03528
2658.96993	0.03542
2657.68417	0.03553
2656.39840	0.03550
2655.11263	0.03528
2653.82686	0.03497
2652.54109	0.03478
2651.25532	0.03480
2649.96955	0.03489
2648.68378	0.03486
2647.39801	0.03466
2646.11225	0.03443
2644.82648	0.03426
2643.54071	0.03412
2642.25494	0.03394
2640.96917	0.03369
2639.68340	0.03336
2638.39763	0.03302
2637.11186	0.03279
2635.82609	0.03275
2634.54033	0.03283
2633.25456	0.03288
2631.96879	0.03281
2630.68302	0.03262
2629.39725	0.03239
2628.11148	0.03219
2626.82571	0.03208
2625.53994	0.03204
2624.25418	0.03202
2622.96841	0.03194
2621.68264	0.03178
2620.39687	0.03158
2619.11110	0.03136
2617.82533	0.03118
2616.53956	0.03103
2615.25379	0.03090
2613.96802	0.03073
2612.68226	0.03049
2611.39649	0.03018
2610.11072	0.02984
2608.82495	0.02962
2607.53918	0.02965
2606.25341	0.02989
2604.96764	0.03010
2603.68187	0.03002
2602.39611	0.02968
2601.11034	0.02932
2599.82457	0.02921
2598.53880	0.02933
2597.25303	0.02947
2595.96726	0.02943
2594.68149	0.02919
2593.39572	0.02888
2592.10995	0.02872
2590.82419	0.02885
2589.53842	0.02922
2588.25265	0.02958
2586.96688	0.02970
2585.68111	0.02952
2584.39534	0.02911
2583.10957	0.02867
2581.82380	0.02847
2580.53804	0.02864
2579.25227	0.02902
2577.96650	0.02919
2576.68073	0.02885
2575.39496	0.02814
2574.10919	0.02751
2572.82342	0.02720
2571.53765	0.02712
2570.25188	0.02711
2568.96612	0.02716
2567.68035	0.02732
2566.39458	0.02745
2565.10881	0.02736
2563.82304	0.02707
2562.53727	0.02684
2561.25150	0.02694
2559.96573	0.02730
2558.67997	0.02759
2557.39420	0.02755
2556.10843	0.02726
2554.82266	0.02698
2553.53689	0.02688
2552.25112	0.02689
2550.96535	0.02687
2549.67958	0.02678
2548.39381	0.02670
2547.10805	0.02673
2545.82228	0.02692
2544.53651	0.02712
2543.25074	0.02713
2541.96497	0.02692
2540.67920	0.02661
2539.39343	0.02633
2538.10766	0.02616
2536.82190	0.02613
2535.53613	0.02623
2534.25036	0.02630
2532.96459	0.02618
2531.67882	0.02595
2530.39305	0.02587
2529.10728	0.02609
2527.82151	0.02645
2526.53574	0.02653
2525.24998	0.02609
2523.96421	0.02529
2522.67844	0.02455
2521.39267	0.02420
2520.10690	0.02434
2518.82113	0.02484
2517.53536	0.02545
2516.24959	0.02589
2514.96383	0.02602
2513.67806	0.02595
2512.39229	0.02589
2511.10652	0.02587
2509.82075	0.02579
2508.53498	0.02552
2507.24921	0.02505
2505.96344	0.02443
2504.67767	0.02378
2503.39191	0.02336
2502.10614	0.02340
2500.82037	0.02392
2499.53460	0.02457
2498.24883	0.02498
2496.96306	0.02507
2495.67729	0.02501
2494.39152	0.02499
2493.10576	0.02498
2491.81999	0.02491
2490.53422	0.02473
2489.24845	0.02448
2487.96268	0.02428
2486.67691	0.02429
2485.39114	0.02455
2484.10537	0.02495
2482.81960	0.02528
2481.53384	0.02543
2480.24807	0.02543
2478.96230	0.02539
2477.67653	0.02534
2476.39076	0.02524
2475.10499	0.02509
2473.81922	0.02488
2472.53345	0.02458
2471.24769	0.02415
2469.96192	0.02373
2468.67615	0.02352
2467.39038	0.02362
2466.10461	0.02390
2464.81884	0.02414
2463.53307	0.02426
2462.24730	0.02426
2460.96153	0.02413
2459.67577	0.02388
2458.39000	0.02362
2457.10423	0.02340
2455.81846	0.02323
2454.53269	0.02317
2453.24692	0.02335
2451.96115	0.02371
2450.67538	0.02395
2449.38962	0.02388
2448.10385	0.02363
2446.81808	0.02347
2445.53231	0.02346
2444.24654	0.02349
2442.96077	0.02347
2441.67500	0.02335
2440.38923	0.02318
2439.10346	0.02301
2437.81770	0.02296
2436.53193	0.02303
2435.24616	0.02313
2433.96039	0.02314
2432.67462	0.02305
2431.38885	0.02295
2430.10308	0.02288
2428.81731	0.02282
2427.53155	0.02279
2426.24578	0.02278
2424.96001	0.02267
2423.67424	0.02236
2422.38847	0.02192
2421.10270	0.02162
2419.81693	0.02167
2418.53116	0.02204
2417.24539	0.02253
2415.95963	0.02290
2414.67386	0.02305
2413.38809	0.02295
2412.10232	0.02271
2410.81655	0.02248
2409.53078	0.02237
2408.24501	0.02236
2406.95924	0.02228
2405.67347	0.02204
2404.38771	0.02166
2403.10194	0.02130
2401.81617	0.02110
2400.53040	0.02107
2399.24463	0.02094
2397.95886	0.02087
2396.67309	0.02083
2395.38732	0.02077
2394.10156	0.02071
2392.81579	0.02071
2391.53002	0.02072
2390.24425	0.02068
2388.95848	0.02058
2387.67271	0.02050
2386.38694	0.02056
2385.10117	0.02077
2383.81540	0.02108
2382.52964	0.02137
2381.24387	0.02165
2379.95810	0.02193
2378.67233	0.02216
2377.38656	0.02227
2376.10079	0.02222
2374.81502	0.02213
2373.52925	0.02205
2372.24349	0.02200
2370.95772	0.02191
2369.67195	0.02177
2368.38618	0.02170
2367.10041	0.02181
2365.81464	0.02208
2364.52887	0.02238
2363.24310	0.02262
2361.95733	0.02283
2360.67157	0.02304
2359.38580	0.02324
2358.10003	0.02336
2356.81426	0.02340
2355.52849	0.02341
2354.24272	0.02346
2352.95695	0.02352
2351.67118	0.02351
2350.38542	0.02343
2349.09965	0.02334
2347.81388	0.02325
2346.52811	0.02319
2345.24234	0.02313
2343.95657	0.02312
2342.67080	0.02317
2341.38503	0.02324
2340.09926	0.02329
2338.81350	0.02329
2337.52773	0.02325
2336.24196	0.02315
2334.95619	0.02290
2333.67042	0.02245
2332.38465	0.02181
2331.09888	0.02115
2329.81311	0.02077
2328.52735	0.02099
2327.24158	0.02197
2325.95581	0.02349
2324.67004	0.02503
2323.38427	0.02604
2322.09850	0.02637
2320.81273	0.02628
2319.52696	0.02609
2318.24119	0.02592
2316.95543	0.02573
2315.66966	0.02547
2314.38389	0.02515
2313.09812	0.02481
2311.81235	0.02444
2310.52658	0.02407
2309.24081	0.02371
2307.95504	0.02340
2306.66928	0.02316
2305.38351	0.02301
2304.09774	0.02291
2302.81197	0.02281
2301.52620	0.02263
2300.24043	0.02234
2298.95466	0.02198
2297.66889	0.02165
2296.38312	0.02138
2295.09736	0.02125
2293.81159	0.02128
2292.52582	0.02152
2291.24005	0.02191
2289.95428	0.02234
2288.66851	0.02266
2287.38274	0.02278
2286.09697	0.02260
2284.81121	0.02211
2283.52544	0.02151
2282.23967	0.02109
2280.95390	0.02104
2279.66813	0.02123
2278.38236	0.02136
2277.09659	0.02124
2275.81082	0.02087
2274.52505	0.02032
2273.23929	0.01968
2271.95352	0.01912
2270.66775	0.01884
2269.38198	0.01891
2268.09621	0.01924
2266.81044	0.01965
2265.52467	0.01991
2264.23890	0.01986
2262.95314	0.01944
2261.66737	0.01870
2260.38160	0.01795
2259.09583	0.01754
2257.81006	0.01764
2256.52429	0.01805
2255.23852	0.01837
2253.95275	0.01822
2252.66698	0.01749
2251.38122	0.01647
2250.09545	0.01609
2248.80968	0.01698
2247.52391	0.01769
2246.23814	0.01813
2244.95237	0.01787
2243.66660	0.01711
2242.38083	0.01630
2241.09507	0.01574
2239.80930	0.01552
2238.52353	0.01559
2237.23776	0.01582
2235.95199	0.01605
2234.66622	0.01619
2233.38045	0.01621
2232.09468	0.01612
2230.80891	0.01597
2229.52315	0.01587
2228.23738	0.01595
2226.95161	0.01620
2225.66584	0.01637
2224.38007	0.01615
2223.09430	0.01553
2221.80853	0.01478
2220.52276	0.01422
2219.23700	0.01393
2217.95123	0.01387
2216.66546	0.01403
2215.37969	0.01432
2214.09392	0.01456
2212.80815	0.01471
2211.52238	0.01486
2210.23661	0.01505
2208.95084	0.01517
2207.66508	0.01515
2206.37931	0.01504
2205.09354	0.01485
2203.80777	0.01448
2202.52200	0.01390
2201.23623	0.01323
2199.95046	0.01277
2198.66469	0.01280
2197.37893	0.01336
2196.09316	0.01398
2194.80739	0.01401
2193.52162	0.01319
2192.23585	0.01207
2190.95008	0.01146
2189.66431	0.01175
2188.37854	0.01257
2187.09277	0.01317
2185.80701	0.01295
2184.52124	0.01181
2183.23547	0.01011
2181.94970	0.00841
2180.66393	0.00713
2179.37816	0.00638
2178.09239	0.00610
2176.80662	0.00626
2175.52085	0.00680
2174.23509	0.00753
2172.94932	0.00820
2171.66355	0.00873
2170.37778	0.00932
2169.09201	0.01016
2167.80624	0.01114
2166.52047	0.01188
2165.23470	0.01217
2163.94894	0.01221
2162.66317	0.01212
2161.37740	0.01129
2160.09163	0.00893
2158.80586	0.00531
2157.52009	0.00191
2156.23432	0.00005
2154.94855	-0.00007
2153.66278	0.00115
2152.37702	0.00310
2151.09125	0.00489
2149.80548	0.00564
2148.51971	0.00523
2147.23394	0.00437
2145.94817	0.00378
2144.66240	0.00367
2143.37663	0.00393
2142.09087	0.00447
2140.80510	0.00519
2139.51933	0.00578
2138.23356	0.00603
2136.94779	0.00614
2135.66202	0.00652
2134.37625	0.00734
2133.09048	0.00834
2131.80471	0.00898
2130.51895	0.00892
2129.23318	0.00828
2127.94741	0.00763
2126.66164	0.00756
2125.37587	0.00812
2124.09010	0.00888
2122.80433	0.00933
2121.51856	0.00935
2120.23280	0.00926
2118.94703	0.00948
2117.66126	0.01017
2116.37549	0.01109
2115.08972	0.01191
2113.80395	0.01245
2112.51818	0.01276
2111.23241	0.01293
2109.94664	0.01297
2108.66088	0.01290
2107.37511	0.01272
2106.08934	0.01238
2104.80357	0.01185
2103.51780	0.01124
2102.23203	0.01071
2100.94626	0.01030
2099.66049	0.00903
2098.37473	0.00822
2097.08896	0.00778
2095.80319	0.00752
2094.51742	0.00762
2093.23165	0.00821
2091.94588	0.00912
2090.66011	0.00998
2089.37434	0.01052
2088.08857	0.01064
2086.80281	0.01041
2085.51704	0.00999
2084.23127	0.00964
2082.94550	0.00953
2081.65973	0.00964
2080.37396	0.00971
2079.08819	0.00944
2077.80242	0.00878
2076.51666	0.00796
2075.23089	0.00732
2073.94512	0.00715
2072.65935	0.00756
2071.37358	0.00837
2070.08781	0.00914
2068.80204	0.00940
2067.51627	0.00906
2066.23050	0.00832
2064.94474	0.00742
2063.65897	0.00652
2062.37320	0.00586
2061.08743	0.00580
2059.80166	0.00641
2058.51589	0.00728
2057.23012	0.00791
2055.94435	0.00825
2054.65859	0.00858
2053.37282	0.00897
2052.08705	0.00893
2050.80128	0.00798
2049.51551	0.00625
2048.22974	0.00448
2046.94397	0.00334
2045.65820	0.00280
2044.37243	0.00236
2043.08667	0.00170
2041.80090	0.00103
2040.51513	0.00078
2039.22936	0.00102
2037.94359	0.00131
2036.65782	0.00124
2035.37205	0.00088
2034.08628	0.00055
2032.80052	0.00040
2031.51475	0.00035
2030.22898	0.00045
2028.94321	0.00079
2027.65744	0.00124
2026.37167	0.00144
2025.08590	0.00128
2023.80013	0.00101
2022.51436	0.00095
2021.22860	0.00113
2019.94283	0.00133
2018.65706	0.00131
2017.37129	0.00099
2016.08552	0.00050
2014.79975	0.00025
2013.51398	0.00058
2012.22821	0.00128
2010.94245	0.00166
2009.65668	0.00131
2008.37091	0.00069
2007.08514	0.00065
2005.79937	0.00155
2004.51360	0.00285
2003.22783	0.00376
2001.94206	0.00415
2000.65629	0.00465
1999.37053	0.00581
1998.08476	0.00754
1996.79899	0.00915
1995.51322	0.01007
1994.22745	0.01011
1992.94168	0.00943
1991.65591	0.00841
1990.37014	0.00755
1989.08438	0.00723
1987.79861	0.00760
1986.51284	0.00839
1985.22707	0.00910
1983.94130	0.00925
1982.65553	0.00859
1981.36976	0.00719
1980.08399	0.00538
1978.79822	0.00370
1977.51246	0.00266
1976.22669	0.00248
1974.94092	0.00287
1973.65515	0.00333
1972.36938	0.00358
1971.08361	0.00367
1969.79784	0.00376
1968.51207	0.00390
1967.22631	0.00406
1965.94054	0.00436
1964.65477	0.00493
1963.36900	0.00569
1962.08323	0.00643
1960.79746	0.00697
1959.51169	0.00724
1958.22592	0.00723
1956.94015	0.00697
1955.65439	0.00666
1954.36862	0.00652
1953.08285	0.00669
1951.79708	0.00712
1950.51131	0.00767
1949.22554	0.00812
1947.93977	0.00819
1946.65400	0.00779
1945.36823	0.00717
1944.08247	0.00678
1942.79670	0.00680
1941.51093	0.00704
1940.22516	0.00727
1938.93939	0.00754
1937.65362	0.00797
1936.36785	0.00845
1935.08208	0.00870
1933.79632	0.00863
1932.51055	0.00850
1931.22478	0.00862
1929.93901	0.00900
1928.65324	0.00937
1927.36747	0.00950
1926.08170	0.00935
1924.79593	0.00909
1923.51016	0.00895
1922.22440	0.00902
1920.93863	0.00923
1919.65286	0.00944
1918.36709	0.00954
1917.08132	0.00951
1915.79555	0.00939
1914.50978	0.00923
1913.22401	0.00914
1911.93825	0.00923
1910.65248	0.00947
1909.36671	0.00970
1908.08094	0.00969
1906.79517	0.00944
1905.50940	0.00920
1904.22363	0.00926
1902.93786	0.00965
1901.65209	0.01013
1900.36633	0.01043
1899.08056	0.01048
1897.79479	0.01047
1896.50902	0.01057
1895.22325	0.01073
1893.93748	0.01076
1892.65171	0.01052
1891.36594	0.01010
1890.08018	0.00972
1888.79441	0.00957
1887.50864	0.00965
1886.22287	0.00988
1884.93710	0.01017
1883.65133	0.01037
1882.36556	0.01041
1881.07979	0.01028
1879.79402	0.01006
1878.50826	0.00987
1877.22249	0.00977
1875.93672	0.00971
1874.65095	0.00967
1873.36518	0.00969
1872.07941	0.00986
1870.79364	0.01014
1869.50787	0.01041
1868.22211	0.01054
1866.93634	0.01050
1865.65057	0.01039
1864.36480	0.01031
1863.07903	0.01031
1861.79326	0.01034
1860.50749	0.01037
1859.22172	0.01044
1857.93595	0.01052
1856.65019	0.01060
1855.36442	0.01065
1854.07865	0.01070
1852.79288	0.01074
1851.50711	0.01073
1850.22134	0.01063
1848.93557	0.01045
1847.64980	0.01028
1846.36404	0.01020
1845.07827	0.01022
1843.79250	0.01029
1842.50673	0.01035
1841.22096	0.01037
1839.93519	0.01043
1838.64942	0.01059
1837.36365	0.01088
1836.07788	0.01121
1834.79212	0.01142
1833.50635	0.01147
1832.22058	0.01136
1830.93481	0.01114
1829.64904	0.01089
1828.36327	0.01064
1827.07750	0.01042
1825.79173	0.01023
1824.50597	0.01006
1823.22020	0.00995
1821.93443	0.00990
1820.64866	0.00987
1819.36289	0.00986
1818.07712	0.00994
1816.79135	0.01025
1815.50558	0.01077
1814.21981	0.01136
1812.93405	0.01182
1811.64828	0.01208
1810.36251	0.01221
1809.07674	0.01228
1807.79097	0.01232
1806.50520	0.01233
1805.21943	0.01233
1803.93366	0.01235
1802.64790	0.01240
1801.36213	0.01243
1800.07636	0.01243
1798.79059	0.01241
1797.50482	0.01238
1796.21905	0.01238
1794.93328	0.01238
1793.64751	0.01237
1792.36174	0.01235
1791.07598	0.01235
1789.79021	0.01238
1788.50444	0.01242
1787.21867	0.01249
1785.93290	0.01257
1784.64713	0.01265
1783.36136	0.01270
1782.07559	0.01272
1780.78983	0.01277
1779.50406	0.01284
1778.21829	0.01288
1776.93252	0.01289
1775.64675	0.01289
1774.36098	0.01297
1773.07521	0.01314
1771.78944	0.01337
1770.50367	0.01367
1769.21791	0.01402
1767.93214	0.01435
1766.64637	0.01459
1765.36060	0.01469
1764.07483	0.01469
1762.78906	0.01469
1761.50329	0.01476
1760.21752	0.01490
1758.93176	0.01503
1757.64599	0.01509
1756.36022	0.01507
1755.07445	0.01501
1753.78868	0.01498
1752.50291	0.01498
1751.21714	0.01503
1749.93137	0.01511
1748.64560	0.01521
1747.35984	0.01528
1746.07407	0.01528
1744.78830	0.01525
1743.50253	0.01524
1742.21676	0.01529
1740.93099	0.01540
1739.64522	0.01551
1738.35945	0.01559
1737.07369	0.01564
1735.78792	0.01568
1734.50215	0.01575
1733.21638	0.01587
1731.93061	0.01605
1730.64484	0.01625
1729.35907	0.01646
1728.07330	0.01670
1726.78753	0.01700
1725.50177	0.01737
1724.21600	0.01776
1722.93023	0.01812
1721.64446	0.01842
1720.35869	0.01865
1719.07292	0.01881
1717.78715	0.01892
1716.50138	0.01904
1715.21561	0.01924
1713.92985	0.01954
1712.64408	0.01991
1711.35831	0.02028
1710.07254	0.02061
1708.78677	0.02088
1707.50100	0.02116
1706.21523	0.02150
1704.92946	0.02190
1703.64370	0.02233
1702.35793	0.02272
1701.07216	0.02308
1699.78639	0.02339
1698.50062	0.02365
1697.21485	0.02386
1695.92908	0.02406
1694.64331	0.02433
1693.35754	0.02470
1692.07178	0.02512
1690.78601	0.02553
1689.50024	0.02589
1688.21447	0.02620
1686.92870	0.02644
1685.64293	0.02664
1684.35716	0.02689
1683.07139	0.02729
1681.78563	0.02782
1680.49986	0.02834
1679.21409	0.02876
1677.92832	0.02906
1676.64255	0.02932
1675.35678	0.02963
1674.07101	0.03000
1672.78524	0.03039
1671.49947	0.03070
1670.21371	0.03095
1668.92794	0.03118
1667.64217	0.03147
1666.35640	0.03182
1665.07063	0.03220
1663.78486	0.03255
1662.49909	0.03287
1661.21332	0.03318
1659.92756	0.03350
1658.64179	0.03380
1657.35602	0.03402
1656.07025	0.03412
1654.78448	0.03411
1653.49871	0.03409
1652.21294	0.03421
1650.92717	0.03452
1649.64140	0.03496
1648.35564	0.03539
1647.06987	0.03572
1645.78410	0.03595
1644.49833	0.03611
1643.21256	0.03620
1641.92679	0.03626
1640.64102	0.03633
1639.35525	0.03642
1638.06949	0.03650
1636.78372	0.03655
1635.49795	0.03661
1634.21218	0.03678
1632.92641	0.03705
1631.64064	0.03736
1630.35487	0.03762
1629.06910	0.03783
1627.78333	0.03800
1626.49757	0.03814
1625.21180	0.03825
1623.92603	0.03835
1622.64026	0.03850
1621.35449	0.03870
1620.06872	0.03892
1618.78295	0.03911
1617.49718	0.03927
1616.21142	0.03945
1614.92565	0.03965
1613.63988	0.03989
1612.35411	0.04016
1611.06834	0.04044
1609.78257	0.04071
1608.49680	0.04098
1607.21103	0.04124
1605.92526	0.04151
1604.63950	0.04175
1603.35373	0.04198
1602.06796	0.04223
1600.78219	0.04252
1599.49642	0.04281
1598.21065	0.04305
1596.92488	0.04327
1595.63911	0.04350
1594.35335	0.04374
1593.06758	0.04396
1591.78181	0.04418
1590.49604	0.04439
1589.21027	0.04462
1587.92450	0.04485
1586.63873	0.04510
1585.35296	0.04538
1584.06719	0.04570
1582.78143	0.04605
1581.49566	0.04640
1580.20989	0.04672
1578.92412	0.04700
1577.63835	0.04723
1576.35258	0.04745
1575.06681	0.04771
1573.78104	0.04800
1572.49528	0.04829
1571.20951	0.04853
1569.92374	0.04874
1568.63797	0.04897
1567.35220	0.04926
1566.06643	0.04958
1564.78066	0.04988
1563.49489	0.05014
1562.20912	0.05030
1560.92336	0.05036
1559.63759	0.05038
1558.35182	0.05046
1557.06605	0.05065
1555.78028	0.05094
1554.49451	0.05127
1553.20874	0.05159
1551.92297	0.05186
1550.63721	0.05205
1549.35144	0.05217
1548.06567	0.05223
1546.77990	0.05224
1545.49413	0.05220
1544.20836	0.05213
1542.92259	0.05199
1541.63682	0.05181
1540.35105	0.05163
1539.06529	0.05152
1537.77952	0.05154
1536.49375	0.05166
1535.20798	0.05184
1533.92221	0.05209
1532.63644	0.05242
1531.35067	0.05284
1530.06490	0.05333
1528.77914	0.05384
1527.49337	0.05437
1526.20760	0.05497
1524.92183	0.05566
1523.63606	0.05644
1522.35029	0.05731
1521.06452	0.05829
1519.77875	0.05941
1518.49298	0.06064
1517.20722	0.06197
1515.92145	0.06335
1514.63568	0.06480
1513.34991	0.06630
1512.06414	0.06785
1510.77837	0.06945
1509.49260	0.07105
1508.20683	0.07261
1506.92107	0.07413
1505.63530	0.07564
1504.34953	0.07714
1503.06376	0.07858
1501.77799	0.07990
1500.49222	0.08107
1499.20645	0.08212
1497.92068	0.08310
1496.63491	0.08405
1495.34915	0.08497
1494.06338	0.08586
1492.77761	0.08672
1491.49184	0.08761
1490.20607	0.08855
1488.92030	0.08959
1487.63453	0.09077
1486.34876	0.09209
1485.06299	0.09352
1483.77723	0.09498
1482.49146	0.09642
1481.20569	0.09779
1479.91992	0.09912
1478.63415	0.10043
1477.34838	0.10172
1476.06261	0.10295
1474.77684	0.10405
1473.49108	0.10497
1472.20531	0.10576
1470.91954	0.10645
1469.63377	0.10706
1468.34800	0.10756
1467.06223	0.10792
1465.77646	0.10816
1464.49069	0.10832
1463.20492	0.10845
1461.91916	0.10864
1460.63339	0.10890
1459.34762	0.10927
1458.06185	0.10976
1456.77608	0.11037
1455.49031	0.11113
1454.20454	0.11196
1452.91877	0.11280
1451.63301	0.11353
1450.34724	0.11410
1449.06147	0.11449
1447.77570	0.11473
1446.48993	0.11483
1445.20416	0.11477
1443.91839	0.11457
1442.63262	0.11427
1441.34685	0.11394
1440.06109	0.11366
1438.77532	0.11345
1437.48955	0.11334
1436.20378	0.11337
1434.91801	0.11363
1433.63224	0.11418
1432.34647	0.11503
1431.06070	0.11618
1429.77494	0.11760
1428.48917	0.11925
1427.20340	0.12109
1425.91763	0.12303
1424.63186	0.12499
1423.34609	0.12687
1422.06032	0.12863
1420.77455	0.13021
1419.48878	0.13161
1418.20302	0.13282
1416.91725	0.13383
1415.63148	0.13460
1414.34571	0.13510
1413.05994	0.13531
1411.77417	0.13525
1410.48840	0.13488
1409.20263	0.13417
1407.91687	0.13311
1406.63110	0.13175
1405.34533	0.13014
1404.05956	0.12828
1402.77379	0.12618
1401.48802	0.12385
1400.20225	0.12136
1398.91648	0.11877
1397.63071	0.11614
1396.34495	0.11346
1395.05918	0.11075
1393.77341	0.10797
1392.48764	0.10516
1391.20187	0.10232
1389.91610	0.09948
1388.63033	0.09667
1387.34456	0.09393
1386.05880	0.09126
1384.77303	0.08866
1383.48726	0.08610
1382.20149	0.08355
1380.91572	0.08097
1379.62995	0.07837
1378.34418	0.07574
1377.05841	0.07307
1375.77264	0.07037
1374.48688	0.06766
1373.20111	0.06500
1371.91534	0.06245
1370.62957	0.06005
1369.34380	0.05777
1368.05803	0.05562
1366.77226	0.05364
1365.48649	0.05182
1364.20073	0.05011
1362.91496	0.04846
1361.62919	0.04687
1360.34342	0.04536
1359.05765	0.04397
1357.77188	0.04268
1356.48611	0.04149
1355.20034	0.04037
1353.91457	0.03932
1352.62881	0.03831
1351.34304	0.03736
1350.05727	0.03647
1348.77150	0.03565
1347.48573	0.03488
1346.19996	0.03412
1344.91419	0.03337
1343.62842	0.03265
1342.34266	0.03197
1341.05689	0.03133
1339.77112	0.03076
1338.48535	0.03028
1337.19958	0.02990
1335.91381	0.02956
1334.62804	0.02924
1333.34227	0.02890
1332.05650	0.02857
1330.77074	0.02828
1329.48497	0.02800
1328.19920	0.02771
1326.91343	0.02740
1325.62766	0.02711
1324.34189	0.02682
1323.05612	0.02651
1321.77035	0.02617
1320.48459	0.02585
1319.19882	0.02558
1317.91305	0.02537
1316.62728	0.02521
1315.34151	0.02503
1314.05574	0.02486
1312.76997	0.02469
1311.48420	0.02453
1310.19843	0.02437
1308.91267	0.02418
1307.62690	0.02398
1306.34113	0.02376
1305.05536	0.02354
1303.76959	0.02333
1302.48382	0.02315
1301.19805	0.02303
1299.91228	0.02295
1298.62652	0.02290
1297.34075	0.02281
1296.05498	0.02265
1294.76921	0.02245
1293.48344	0.02227
1292.19767	0.02215
1290.91190	0.02207
1289.62613	0.02201
1288.34036	0.02190
1287.05460	0.02175
1285.76883	0.02157
1284.48306	0.02140
1283.19729	0.02130
1281.91152	0.02126
1280.62575	0.02123
1279.33998	0.02116
1278.05421	0.02102
1276.76845	0.02085
1275.48268	0.02068
1274.19691	0.02055
1272.91114	0.02044
1271.62537	0.02032
1270.33960	0.02019
1269.05383	0.02008
1267.76806	0.02000
1266.48229	0.01994
1265.19653	0.01991
1263.91076	0.01988
1262.62499	0.01981
1261.33922	0.01971
1260.05345	0.01958
1258.76768	0.01947
1257.48191	0.01938
1256.19614	0.01930
1254.91037	0.01922
1253.62461	0.01910
1252.33884	0.01897
1251.05307	0.01885
1249.76730	0.01877
1248.48153	0.01872
1247.19576	0.01870
1245.90999	0.01868
1244.62422	0.01862
1243.33846	0.01851
1242.05269	0.01835
1240.76692	0.01819
1239.48115	0.01807
1238.19538	0.01801
1236.90961	0.01801
1235.62384	0.01802
1234.33807	0.01803
1233.05230	0.01800
1231.76654	0.01793
1230.48077	0.01783
1229.19500	0.01773
1227.90923	0.01767
1226.62346	0.01768
1225.33769	0.01774
1224.05192	0.01780
1222.76615	0.01781
1221.48039	0.01777
1220.19462	0.01771
1218.90885	0.01764
1217.62308	0.01755
1216.33731	0.01746
1215.05154	0.01740
1213.76577	0.01737
1212.48000	0.01735
1211.19423	0.01732
1209.90847	0.01729
1208.62270	0.01727
1207.33693	0.01730
1206.05116	0.01734
1204.76539	0.01736
1203.47962	0.01732
1202.19385	0.01724
1200.90808	0.01720
1199.62232	0.01726
1198.33655	0.01723
1197.05078	0.01725
1195.76501	0.01729
1194.47924	0.01731
1193.19347	0.01733
1191.90770	0.01734
1190.62193	0.01737
1189.33616	0.01741
1188.05040	0.01747
1186.76463	0.01754
1185.47886	0.01760
1184.19309	0.01766
1182.90732	0.01771
1181.62155	0.01777
1180.33578	0.01784
1179.05001	0.01793
1177.76425	0.01802
1176.47848	0.01811
1175.19271	0.01820
1173.90694	0.01830
1172.62117	0.01843
1171.33540	0.01859
1170.04963	0.01876
1168.76386	0.01896
1167.47809	0.01918
1166.19233	0.01943
1164.90656	0.01970
1163.62079	0.02001
1162.33502	0.02036
1161.04925	0.02074
1159.76348	0.02109
1158.47771	0.02139
1157.19194	0.02169
1155.90618	0.02203
1154.62041	0.02243
1153.33464	0.02289
1152.04887	0.02341
1150.76310	0.02402
1149.47733	0.02472
1148.19156	0.02550
1146.90579	0.02631
1145.62002	0.02718
1144.33426	0.02810
1143.04849	0.02909
1141.76272	0.03017
1140.47695	0.03139
1139.19118	0.03276
1137.90541	0.03430
1136.61964	0.03598
1135.33387	0.03782
1134.04811	0.03985
1132.76234	0.04206
1131.47657	0.04450
1130.19080	0.04719
1128.90503	0.05017
1127.61926	0.05344
1126.33349	0.05695
1125.04772	0.06065
1123.76195	0.06455
1122.47619	0.06868
1121.19042	0.07300
1119.90465	0.07740
1118.61888	0.08184
1117.33311	0.08628
1116.04734	0.09075
1114.76157	0.09523
1113.47580	0.09967
1112.19004	0.10400
1110.90427	0.10819
1109.61850	0.11223
1108.33273	0.11613
1107.04696	0.11992
1105.76119	0.12361
1104.47542	0.12725
1103.18965	0.13087
1101.90388	0.13447
1100.61812	0.13800
1099.33235	0.14140
1098.04658	0.14468
1096.76081	0.14787
1095.47504	0.15099
1094.18927	0.15403
1092.90350	0.15693
1091.61773	0.15965
1090.33197	0.16226
1089.04620	0.16481
1087.76043	0.16734
1086.47466	0.16983
1085.18889	0.17226
1083.90312	0.17472
1082.61735	0.17736
1081.33158	0.18031
1080.04581	0.18359
1078.76005	0.18710
1077.47428	0.19068
1076.18851	0.19430
1074.90274	0.19798
1073.61697	0.20180
1072.33120	0.20586
1071.04543	0.21016
1069.75966	0.21464
1068.47390	0.21924
1067.18813	0.22395
1065.90236	0.22876
1064.61659	0.23369
1063.33082	0.23873
1062.04505	0.24386
1060.75928	0.24905
1059.47351	0.25420
1058.18774	0.25919
1056.90198	0.26398
1055.61621	0.26863
1054.33044	0.27324
1053.04467	0.27789
1051.75890	0.28264
1050.47313	0.28751
1049.18736	0.29254
1047.90159	0.29778
1046.61583	0.30321
1045.33006	0.30878
1044.04429	0.31445
1042.75852	0.32017
1041.47275	0.32594
1040.18698	0.33179
1038.90121	0.33766
1037.61544	0.34352
1036.32967	0.34940
1035.04391	0.35534
1033.75814	0.36128
1032.47237	0.36703
1031.18660	0.37241
1029.90083	0.37733
1028.61506	0.38174
1027.32929	0.38562
1026.04352	0.38894
1024.75775	0.39172
1023.47199	0.39400
1022.18622	0.39581
1020.90045	0.39703
1019.61468	0.39747
1018.32891	0.39697
1017.04314	0.39544
1015.75737	0.39287
1014.47160	0.38927
1013.18584	0.38471
1011.90007	0.37932
1010.61430	0.37313
1009.32853	0.36603
1008.04276	0.35792
1006.75699	0.34880
1005.47122	0.33881
1004.18545	0.32812
1002.89968	0.31683
1001.61392	0.30502
1000.32815	0.29282
999.04238	0.28042
997.75661	0.26797
996.47084	0.25550
995.18507	0.24301
993.89930	0.23057
992.61353	0.21838
991.32777	0.20662
990.04200	0.19547
988.75623	0.18498
987.47046	0.17515
986.18469	0.16590
984.89892	0.15721
983.61315	0.14907
982.32738	0.14150
981.04161	0.13451
979.75585	0.12816
978.47008	0.12249
977.18431	0.11753
975.89854	0.11326
974.61277	0.10965
973.32700	0.10677
972.04123	0.10474
970.75546	0.10362
969.46970	0.10338
968.18393	0.10390
966.89816	0.10504
965.61239	0.10662
964.32662	0.10837
963.04085	0.10998
961.75508	0.11109
960.46931	0.11138
959.18354	0.11067
957.89778	0.10890
956.61201	0.10620
955.32624	0.10284
954.04047	0.09916
952.75470	0.09543
951.46893	0.09185
950.18316	0.08847
948.89739	0.08525
947.61163	0.08211
946.32586	0.07902
945.04009	0.07600
943.75432	0.07310
942.46855	0.07038
941.18278	0.06783
939.89701	0.06545
938.61124	0.06325
937.32547	0.06128
936.03971	0.05955
934.75394	0.05804
933.46817	0.05671
932.18240	0.05550
930.89663	0.05437
929.61086	0.05327
928.32509	0.05217
927.03932	0.05110
925.75356	0.05011
924.46779	0.04923
923.18202	0.04846
921.89625	0.04781
920.61048	0.04728
919.32471	0.04684
918.03894	0.04642
916.75317	0.04593
915.46740	0.04537
914.18164	0.04481
912.89587	0.04429
911.61010	0.04382
910.32433	0.04343
909.03856	0.04312
907.75279	0.04284
906.46702	0.04251
905.18125	0.04215
903.89549	0.04183
902.60972	0.04157
901.32395	0.04132
900.03818	0.04104
898.75241	0.04077
897.46664	0.04064
896.18087	0.04065
894.89510	0.04074
893.60933	0.04083
892.32357	0.04094
891.03780	0.04116
889.75203	0.04159
888.46626	0.04234
887.18049	0.04355
885.89472	0.04546
884.60895	0.04829
883.32318	0.05203
882.03742	0.05630
880.75165	0.06039
879.46588	0.06369
878.18011	0.06607
876.89434	0.06796
875.60857	0.06993
874.32280	0.07211
873.03703	0.07401
871.75126	0.07494
870.46550	0.07449
869.17973	0.07274
867.89396	0.07002
866.60819	0.06669
865.32242	0.06311
864.03665	0.05956
862.75088	0.05629
861.46511	0.05340
860.17935	0.05088
858.89358	0.04869
857.60781	0.04682
856.32204	0.04529
855.03627	0.04408
853.75050	0.04313
852.46473	0.04237
851.17896	0.04175
849.89319	0.04123
848.60743	0.04077
847.32166	0.04035
846.03589	0.03998
844.75012	0.03966
843.46435	0.03938
842.17858	0.03911
840.89281	0.03882
839.60704	0.03847
838.32128	0.03808
837.03551	0.03773
835.74974	0.03750
834.46397	0.03739
833.17820	0.03734
831.89243	0.03725
830.60666	0.03711
829.32089	0.03696
828.03512	0.03690
826.74936	0.03693
825.46359	0.03695
824.17782	0.03688
822.89205	0.03672
821.60628	0.03653
820.32051	0.03642
819.03474	0.03637
817.74897	0.03630
816.46321	0.03612
815.17744	0.03589
813.89167	0.03570
812.60590	0.03562
811.32013	0.03563
810.03436	0.03566
808.74859	0.03566
807.46282	0.03562
806.17705	0.03556
804.89129	0.03553
803.60552	0.03557
802.31975	0.03565
801.03398	0.03571
799.74821	0.03568
798.46244	0.03557
797.17667	0.03545
795.89090	0.03536
794.60513	0.03533
793.31937	0.03531
792.03360	0.03531
790.74783	0.03535
789.46206	0.03545
788.17629	0.03559
786.89052	0.03570
785.60475	0.03568
784.31898	0.03551
783.03322	0.03527
781.74745	0.03511
780.46168	0.03511
779.17591	0.03524
777.89014	0.03535
776.60437	0.03537
775.31860	0.03535
774.03283	0.03532
772.74706	0.03527
771.46130	0.03519
770.17553	0.03513
768.88976	0.03517
767.60399	0.03531
766.31822	0.03546
765.03245	0.03552
763.74668	0.03548
762.46091	0.03539
761.17515	0.03536
759.88938	0.03548
758.60361	0.03578
757.31784	0.03613
756.03207	0.03639
754.74630	0.03646
753.46053	0.03638
752.17476	0.03624
750.88899	0.03610
749.60323	0.03597
748.31746	0.03584
747.03169	0.03569
745.74592	0.03551
744.46015	0.03532
743.17438	0.03518
741.88861	0.03513
740.60284	0.03516
739.31708	0.03523
738.03131	0.03530
736.74554	0.03530
735.45977	0.03527
734.17400	0.03525
732.88823	0.03528
731.60246	0.03533
730.31669	0.03536
729.03092	0.03540
727.74516	0.03545
726.45939	0.03553
725.17362	0.03555
723.88785	0.03528
722.60208	0.03540
721.31631	0.03575
720.03054	0.03612
718.74477	0.03643
717.45901	0.03660
716.17324	0.03658
714.88747	0.03641
713.60170	0.03620
712.31593	0.03603
711.03016	0.03592
709.74439	0.03587
708.45862	0.03583
707.17285	0.03580
705.88709	0.03578
704.60132	0.03578
703.31555	0.03582
702.02978	0.03588
700.74401	0.03599
699.45824	0.03613
698.17247	0.03628
696.88670	0.03641
695.60094	0.03652
694.31517	0.03664
693.02940	0.03679
691.74363	0.03693
690.45786	0.03698
689.17209	0.03689
687.88632	0.03669
686.60055	0.03646
685.31478	0.03627
684.02902	0.03612
682.74325	0.03599
681.45748	0.03586
680.17171	0.03576
678.88594	0.03572
677.60017	0.03572
676.31440	0.03575
675.02863	0.03578
673.74287	0.03582
672.45710	0.03592
671.17133	0.03611
669.88556	0.03637
668.59979	0.03660
667.31402	0.03669
666.02825	0.03659
664.74248	0.03636
663.45671	0.03608
662.17095	0.03584
660.88518	0.03566
659.59941	0.03556
658.31364	0.03556
657.02787	0.03562
655.74210	0.03567
654.45633	0.03567
653.17056	0.03564
651.88480	0.03567
650.59903	0.03578
649.31326	0.03594
648.02749	0.03610
646.74172	0.03623
645.45595	0.03635
644.17018	0.03651
642.88441	0.03677
641.59864	0.03710
640.31288	0.03746
639.02711	0.03779
637.74134	0.03808
636.45557	0.03843
635.16980	0.03893
633.88403	0.03963
632.59826	0.04049
631.31249	0.04132
630.02673	0.04162
628.74096	0.04183
627.45519	0.04405
626.16942	0.04420
624.88365	0.04267
623.59788	0.04116
622.31211	0.04099
621.02634	0.04315
619.74057	0.04780
618.45481	0.05413
617.16904	0.06100
615.88327	0.06759
614.59750	0.07381
613.31173	0.08014
612.02596	0.08699
610.74019	0.09391
609.45442	0.09985
608.16866	0.10441
606.88289	0.10845
605.59712	0.11299
604.31135	0.11791
603.02558	0.12197
601.73981	0.12401
600.45404	0.12386
599.16827	0.12205
597.88250	0.11922
596.59674	0.11585
595.31097	0.11227
594.02520	0.10884
592.73943	0.10590
591.45366	0.10375
590.16789	0.10259
588.88212	0.10241
587.59635	0.10308
586.31059	0.10445
585.02482	0.10639
583.73905	0.10890
582.45328	0.11195
581.16751	0.11548
579.88174	0.11929
578.59597	0.12319
577.31020	0.12707
576.02443	0.13089
574.73867	0.13458
573.45290	0.13804
572.16713	0.14134
570.88136	0.14492
569.59559	0.14927
568.30982	0.15458
567.02405	0.16056
565.73828	0.16655
564.45251	0.17179
563.16675	0.17557
561.88098	0.17734
560.59521	0.17674
559.30944	0.17363
558.02367	0.16805
556.73790	0.16032
555.45213	0.15104
554.16636	0.14096
552.88060	0.13085
551.59483	0.12127
550.30906	0.11255
549.02329	0.10483
547.73752	0.09810
546.45175	0.09223
545.16598	0.08704
543.88021	0.08241
542.59444	0.07832
541.30868	0.07478
540.02291	0.07169
538.73714	0.06889
537.45137	0.06627
536.16560	0.06378
534.87983	0.06141
533.59406	0.05918
532.30829	0.05713
531.02253	0.05529
529.73676	0.05365
528.45099	0.05214
527.16522	0.05073
525.87945	0.04942
524.59368	0.04827
523.30791	0.04729
522.02214	0.04638
520.73637	0.04545
519.45061	0.04444
518.16484	0.04339
516.87907	0.04235
515.59330	0.04139
514.30753	0.04058
513.02176	0.03990
511.73599	0.03932
510.45022	0.03877
509.16446	0.03823
507.87869	0.03765
506.59292	0.03698
505.30715	0.03625
504.02138	0.03557
502.73561	0.03508
501.44984	0.03474
500.16407	0.03443
498.87830	0.03405
497.59254	0.03368
496.30677	0.03340
495.02100	0.03321
493.73523	0.03301
492.44946	0.03275
491.16369	0.03246
489.87792	0.03224
488.59215	0.03209
487.30639	0.03200
486.02062	0.03196
484.73485	0.03200
483.44908	0.03212
482.16331	0.03231
480.87754	0.03252
479.59177	0.03274
478.30600	0.03301
477.02023	0.03330
475.73447	0.03360
474.44870	0.03390
473.16293	0.03422
471.87716	0.03453
470.59139	0.03478
469.30562	0.03489
468.01985	0.03475
466.73408	0.03433
465.44832	0.03372
464.16255	0.03308
462.87678	0.03255
461.59101	0.03217
460.30524	0.03186
459.01947	0.03154
457.73370	0.03121
456.44793	0.03091
455.16216	0.03064
453.87640	0.03039
452.59063	0.03014
451.30486	0.02995
450.01909	0.02982
448.73332	0.02969
447.44755	0.02951
446.16178	0.02928
444.87601	0.02902
443.59025	0.02877
442.30448	0.02855
441.01871	0.02835
439.73294	0.02819
438.44717	0.02810
437.16140	0.02808
435.87563	0.02810
434.58986	0.02812
433.30409	0.02812
432.01833	0.02809
430.73256	0.02802
429.44679	0.02795
428.16102	0.02785
426.87525	0.02771
425.58948	0.02753
424.30371	0.02735
423.01794	0.02720
421.73218	0.02706
420.44641	0.02691
419.16064	0.02676
417.87487	0.02664
416.58910	0.02657
415.30333	0.02654
414.01756	0.02652
412.73179	0.02651
411.44602	0.02650
410.16026	0.02653
408.87449	0.02659
407.58872	0.02670
406.30295	0.02683
405.01718	0.02696
403.73141	0.02710
402.44564	0.02724
401.15987	0.02741
399.87411	0.02759
