3997.45528	-0.00473
3996.16951	-0.00489
3994.88374	-0.00524
3993.59798	-0.00581
3992.31221	-0.00637
3991.02644	-0.00662
3989.74067	-0.00647
3988.45490	-0.00610
3987.16913	-0.00575
3985.88336	-0.00550
3984.59759	-0.00523
3983.31183	-0.00485
3982.02606	-0.00441
3980.74029	-0.00410
3979.45452	-0.00401
3978.16875	-0.00406
3976.88298	-0.00405
3975.59721	-0.00384
3974.31144	-0.00347
3973.02567	-0.00295
3971.73991	-0.00230
3970.45414	-0.00169
3969.16837	-0.00135
3967.88260	-0.00139
3966.59683	-0.00172
3965.31106	-0.00222
3964.02529	-0.00278
3962.73952	-0.00324
3961.45376	-0.00344
3960.16799	-0.00330
3958.88222	-0.00289
3957.59645	-0.00229
3956.31068	-0.00160
3955.02491	-0.00096
3953.73914	-0.00042
3952.45337	0.00010
3951.16760	0.00075
3949.88184	0.00143
3948.59607	0.00173
3947.31030	0.00132
3946.02453	0.00037
3944.73876	-0.00060
3943.45299	-0.00127
3942.16722	-0.00170
3940.88145	-0.00204
3939.59569	-0.00228
3938.30992	-0.00229
3937.02415	-0.00204
3935.73838	-0.00165
3934.45261	-0.00133
3933.16684	-0.00134
3931.88107	-0.00176
3930.59530	-0.00229
3929.30953	-0.00248
3928.02377	-0.00204
3926.73800	-0.00111
3925.45223	0.00001
3924.16646	0.00105
3922.88069	0.00175
3921.59492	0.00187
3920.30915	0.00133
3919.02338	0.00040
3917.73762	-0.00037
3916.45185	-0.00052
3915.16608	-0.00005
3913.88031	0.00061
3912.59454	0.00109
3911.30877	0.00129
3910.02300	0.00135
3908.73723	0.00136
3907.45146	0.00127
3906.16570	0.00103
3904.87993	0.00066
3903.59416	0.00017
3902.30839	-0.00043
3901.02262	-0.00099
3899.73685	-0.00125
3898.45108	-0.00106
3897.16531	-0.00062
3895.87955	-0.00023
3894.59378	0.00001
3893.30801	0.00023
3892.02224	0.00056
3890.73647	0.00094
3889.45070	0.00126
3888.16493	0.00147
3886.87916	0.00162
3885.59339	0.00184
3884.30763	0.00220
3883.02186	0.00257
3881.73609	0.00275
3880.45032	0.00259
3879.16455	0.00212
3877.87878	0.00149
3876.59301	0.00084
3875.30724	0.00030
3874.02148	0.00005
3872.73571	0.00023
3871.44994	0.00078
3870.16417	0.00139
3868.87840	0.00171
3867.59263	0.00172
3866.30686	0.00163
3865.02109	0.00160
3863.73532	0.00155
3862.44956	0.00143
3861.16379	0.00134
3859.87802	0.00135
3858.59225	0.00144
3857.30648	0.00158
3856.02071	0.00184
3854.73494	0.00228
3853.44917	0.00281
3852.16341	0.00316
3850.87764	0.00324
3849.59187	0.00322
3848.30610	0.00338
3847.02033	0.00378
3845.73456	0.00412
3844.44879	0.00398
3843.16302	0.00313
3841.87725	0.00183
3840.59149	0.00065
3839.30572	0.00017
3838.01995	0.00057
3836.73418	0.00167
3835.44841	0.00311
3834.16264	0.00454
3832.87687	0.00552
3831.59110	0.00566
3830.30534	0.00496
3829.01957	0.00389
3827.73380	0.00298
3826.44803	0.00236
3825.16226	0.00192
3823.87649	0.00171
3822.59072	0.00195
3821.30495	0.00267
3820.01918	0.00352
3818.73342	0.00410
3817.44765	0.00433
3816.16188	0.00440
3814.87611	0.00433
3813.59034	0.00386
3812.30457	0.00281
3811.01880	0.00142
3809.73303	0.00029
3808.44726	-0.00009
3807.16150	0.00020
3805.87573	0.00067
3804.58996	0.00093
3803.30419	0.00103
3802.01842	0.00129
3800.73265	0.00184
3799.44688	0.00251
3798.16111	0.00311
3796.87535	0.00358
3795.58958	0.00386
3794.30381	0.00378
3793.01804	0.00329
3791.73227	0.00270
3790.44650	0.00249
3789.16073	0.00289
3787.87496	0.00368
3786.58919	0.00440
3785.30343	0.00477
3784.01766	0.00490
3782.73189	0.00509
3781.44612	0.00551
3780.16035	0.00599
3778.87458	0.00616
3777.58881	0.00580
3776.30304	0.00509
3775.01728	0.00446
3773.73151	0.00422
3772.44574	0.00425
3771.15997	0.00427
3769.87420	0.00414
3768.58843	0.00400
3767.30266	0.00398
3766.01689	0.00401
3764.73112	0.00395
3763.44536	0.00376
3762.15959	0.00352
3760.87382	0.00332
3759.58805	0.00321
3758.30228	0.00314
3757.01651	0.00304
3755.73074	0.00291
3754.44497	0.00285
3753.15921	0.00302
3751.87344	0.00349
3750.58767	0.00409
3749.30190	0.00453
3748.01613	0.00468
3746.73036	0.00460
3745.44459	0.00438
3744.15882	0.00404
3742.87305	0.00359
3741.58729	0.00317
3740.30152	0.00286
3739.01575	0.00262
3737.72998	0.00234
3736.44421	0.00209
3735.15844	0.00203
3733.87267	0.00218
3732.58690	0.00235
3731.30114	0.00227
3730.01537	0.00182
3728.72960	0.00123
3727.44383	0.00078
3726.15806	0.00071
3724.87229	0.00107
3723.58652	0.00163
3722.30075	0.00204
3721.01498	0.00210
3719.72922	0.00200
3718.44345	0.00233
3717.15768	0.00332
3715.87191	0.00468
3714.58614	0.00581
3713.30037	0.00620
3712.01460	0.00578
3710.72883	0.00484
3709.44307	0.00396
3708.15730	0.00374
3706.87153	0.00409
3705.58576	0.00443
3704.29999	0.00429
3703.01422	0.00374
3701.72845	0.00319
3700.44268	0.00289
3699.15691	0.00281
3697.87115	0.00293
3696.58538	0.00321
3695.29961	0.00358
3694.01384	0.00384
3692.72807	0.00404
3691.44230	0.00443
3690.15653	0.00510
3688.87076	0.00579
3687.58500	0.00610
3686.29923	0.00598
3685.01346	0.00588
3683.72769	0.00620
3682.44192	0.00692
3681.15615	0.00766
3679.87038	0.00798
3678.58461	0.00782
3677.29884	0.00758
3676.01308	0.00767
3674.72731	0.00803
3673.44154	0.00814
3672.15577	0.00766
3670.87000	0.00683
3669.58423	0.00622
3668.29846	0.00617
3667.01269	0.00662
3665.72693	0.00732
3664.44116	0.00811
3663.15539	0.00894
3661.86962	0.00971
3660.58385	0.01027
3659.29808	0.01056
3658.01231	0.01074
3656.72654	0.01103
3655.44077	0.01143
3654.15501	0.01176
3652.86924	0.01182
3651.58347	0.01168
3650.29770	0.01159
3649.01193	0.01178
3647.72616	0.01231
3646.44039	0.01286
3645.15462	0.01303
3643.86886	0.01271
3642.58309	0.01222
3641.29732	0.01203
3640.01155	0.01234
3638.72578	0.01293
3637.44001	0.01351
3636.15424	0.01398
3634.86847	0.01435
3633.58270	0.01471
3632.29694	0.01505
3631.01117	0.01540
3629.72540	0.01582
3628.43963	0.01631
3627.15386	0.01676
3625.86809	0.01704
3624.58232	0.01726
3623.29655	0.01769
3622.01079	0.01861
3620.72502	0.01984
3619.43925	0.02086
3618.15348	0.02112
3616.86771	0.02064
3615.58194	0.02009
3614.29617	0.02015
3613.01040	0.02091
3611.72463	0.02184
3610.43887	0.02249
3609.15310	0.02281
3607.86733	0.02297
3606.58156	0.02310
3605.29579	0.02318
3604.01002	0.02329
3602.72425	0.02369
3601.43848	0.02457
3600.15272	0.02573
3598.86695	0.02671
3597.58118	0.02710
3596.29541	0.02699
3595.00964	0.02664
3593.72387	0.02634
3592.43810	0.02618
3591.15233	0.02604
3589.86656	0.02601
3588.58080	0.02646
3587.29503	0.02752
3586.00926	0.02883
3584.72349	0.02974
3583.43772	0.03000
3582.15195	0.02985
3580.86618	0.02968
3579.58041	0.02959
3578.29464	0.02957
3577.00888	0.02973
3575.72311	0.03021
3574.43734	0.03097
3573.15157	0.03181
3571.86580	0.03257
3570.58003	0.03319
3569.29426	0.03369
3568.00849	0.03409
3566.72273	0.03439
3565.43696	0.03468
3564.15119	0.03509
3562.86542	0.03576
3561.57965	0.03667
3560.29388	0.03767
3559.00811	0.03859
3557.72234	0.03929
3556.43657	0.03972
3555.15081	0.03991
3553.86504	0.03990
3552.57927	0.03982
3551.29350	0.03975
3550.00773	0.03974
3548.72196	0.03975
3547.43619	0.03979
3546.15042	0.03984
3544.86466	0.03987
3543.57889	0.03984
3542.29312	0.03977
3541.00735	0.03978
3539.72158	0.04006
3538.43581	0.04080
3537.15004	0.04206
3535.86427	0.04362
3534.57850	0.04500
3533.29274	0.04574
3532.00697	0.04576
3530.72120	0.04535
3529.43543	0.04489
3528.14966	0.04461
3526.86389	0.04455
3525.57812	0.04466
3524.29235	0.04501
3523.00659	0.04564
3521.72082	0.04641
3520.43505	0.04697
3519.14928	0.04703
3517.86351	0.04669
3516.57774	0.04650
3515.29197	0.04696
3514.00620	0.04802
3512.72043	0.04916
3511.43467	0.04989
3510.14890	0.05013
3508.86313	0.05009
3507.57736	0.05005
3506.29159	0.05022
3505.00582	0.05065
3503.72005	0.05122
3502.43428	0.05174
3501.14852	0.05205
3499.86275	0.05218
3498.57698	0.05227
3497.29121	0.05248
3496.00544	0.05289
3494.71967	0.05344
3493.43390	0.05392
3492.14813	0.05413
3490.86236	0.05397
3489.57660	0.05353
3488.29083	0.05303
3487.00506	0.05280
3485.71929	0.05305
3484.43352	0.05375
3483.14775	0.05459
3481.86198	0.05525
3480.57621	0.05567
3479.29045	0.05601
3478.00468	0.05639
3476.71891	0.05672
3475.43314	0.05685
3474.14737	0.05683
3472.86160	0.05694
3471.57583	0.05746
3470.29006	0.05832
3469.00429	0.05915
3467.71853	0.05957
3466.43276	0.05944
3465.14699	0.05898
3463.86122	0.05860
3462.57545	0.05860
3461.28968	0.05889
3460.00391	0.05916
3458.71814	0.05919
3457.43238	0.05910
3456.14661	0.05911
3454.86084	0.05930
3453.57507	0.05958
3452.28930	0.05991
3451.00353	0.06036
3449.71776	0.06086
3448.43199	0.06111
3447.14622	0.06094
3445.86046	0.06054
3444.57469	0.06042
3443.28892	0.06087
3442.00315	0.06176
3440.71738	0.06268
3439.43161	0.06327
3438.14584	0.06340
3436.86007	0.06312
3435.57431	0.06264
3434.28854	0.06231
3433.00277	0.06240
3431.71700	0.06286
3430.43123	0.06340
3429.14546	0.06380
3427.85969	0.06411
3426.57392	0.06450
3425.28815	0.06507
3424.00239	0.06564
3422.71662	0.06590
3421.43085	0.06571
3420.14508	0.06531
3418.85931	0.06515
3417.57354	0.06540
3416.28777	0.06589
3415.00200	0.06634
3413.71624	0.06667
3412.43047	0.06692
3411.14470	0.06710
3409.85893	0.06709
3408.57316	0.06685
3407.28739	0.06657
3406.00162	0.06649
3404.71585	0.06664
3403.43008	0.06680
3402.14432	0.06678
3400.85855	0.06662
3399.57278	0.06638
3398.28701	0.06618
3397.00124	0.06604
3395.71547	0.06605
3394.42970	0.06628
3393.14393	0.06673
3391.85817	0.06725
3390.57240	0.06768
3389.28663	0.06789
3388.00086	0.06793
3386.71509	0.06796
3385.42932	0.06805
3384.14355	0.06813
3382.85778	0.06806
3381.57201	0.06778
3380.28625	0.06739
3379.00048	0.06711
3377.71471	0.06711
3376.42894	0.06734
3375.14317	0.06759
3373.85740	0.06767
3372.57163	0.06758
3371.28586	0.06744
3370.00010	0.06746
3368.71433	0.06770
3367.42856	0.06805
3366.14279	0.06825
3364.85702	0.06813
3363.57125	0.06772
3362.28548	0.06724
3360.99971	0.06694
3359.71394	0.06693
3358.42818	0.06712
3357.14241	0.06728
3355.85664	0.06733
3354.57087	0.06739
3353.28510	0.06762
3351.99933	0.06800
3350.71356	0.06834
3349.42779	0.06852
3348.14202	0.06857
3346.85626	0.06856
3345.57049	0.06845
3344.28472	0.06810
3342.99895	0.06757
3341.71318	0.06718
3340.42741	0.06718
3339.14164	0.06741
3337.85587	0.06752
3336.57011	0.06737
3335.28434	0.06722
3333.99857	0.06733
3332.71280	0.06760
3331.42703	0.06770
3330.14126	0.06739
3328.85549	0.06680
3327.56972	0.06632
3326.28395	0.06624
3324.99819	0.06656
3323.71242	0.06706
3322.42665	0.06753
3321.14088	0.06785
3319.85511	0.06798
3318.56934	0.06784
3317.28357	0.06743
3315.99780	0.06685
3314.71204	0.06636
3313.42627	0.06621
3312.14050	0.06637
3310.85473	0.06661
3309.56896	0.06667
3308.28319	0.06642
3306.99742	0.06594
3305.71165	0.06539
3304.42588	0.06498
3303.14012	0.06487
3301.85435	0.06505
3300.56858	0.06538
3299.28281	0.06568
3297.99704	0.06581
3296.71127	0.06573
3295.42550	0.06552
3294.13973	0.06534
3292.85397	0.06536
3291.56820	0.06556
3290.28243	0.06580
3288.99666	0.06585
3287.71089	0.06558
3286.42512	0.06506
3285.13935	0.06462
3283.85358	0.06455
3282.56781	0.06482
3281.28205	0.06514
3279.99628	0.06524
3278.71051	0.06517
3277.42474	0.06509
3276.13897	0.06505
3274.85320	0.06498
3273.56743	0.06478
3272.28166	0.06450
3270.99590	0.06429
3269.71013	0.06425
3268.42436	0.06433
3267.13859	0.06443
3265.85282	0.06445
3264.56705	0.06437
3263.28128	0.06414
3261.99551	0.06377
3260.70974	0.06335
3259.42398	0.06311
3258.13821	0.06326
3256.85244	0.06381
3255.56667	0.06439
3254.28090	0.06456
3252.99513	0.06420
3251.70936	0.06369
3250.42359	0.06343
3249.13783	0.06349
3247.85206	0.06353
3246.56629	0.06327
3245.28052	0.06268
3243.99475	0.06201
3242.70898	0.06159
3241.42321	0.06154
3240.13744	0.06174
3238.85167	0.06187
3237.56591	0.06172
3236.28014	0.06138
3234.99437	0.06115
3233.70860	0.06127
3232.42283	0.06168
3231.13706	0.06201
3229.85129	0.06199
3228.56552	0.06161
3227.27976	0.06100
3225.99399	0.06035
3224.70822	0.05976
3223.42245	0.05934
3222.13668	0.05909
3220.85091	0.05898
3219.56514	0.05901
3218.27937	0.05917
3216.99360	0.05939
3215.70784	0.05966
3214.42207	0.05997
3213.13630	0.06028
3211.85053	0.06044
3210.56476	0.06033
3209.27899	0.05990
3207.99322	0.05931
3206.70745	0.05880
3205.42169	0.05860
3204.13592	0.05876
3202.85015	0.05910
3201.56438	0.05931
3200.27861	0.05927
3198.99284	0.05910
3197.70707	0.05900
3196.42130	0.05903
3195.13553	0.05904
3193.84977	0.05882
3192.56400	0.05840
3191.27823	0.05802
3189.99246	0.05785
3188.70669	0.05791
3187.42092	0.05805
3186.13515	0.05815
3184.84938	0.05805
3183.56362	0.05767
3182.27785	0.05714
3180.99208	0.05681
3179.70631	0.05685
3178.42054	0.05711
3177.13477	0.05721
3175.84900	0.05696
3174.56323	0.05652
3173.27746	0.05621
3171.99170	0.05622
3170.70593	0.05641
3169.42016	0.05653
3168.13439	0.05644
3166.84862	0.05626
3165.56285	0.05617
3164.27708	0.05615
3162.99131	0.05601
3161.70555	0.05560
3160.41978	0.05504
3159.13401	0.05463
3157.84824	0.05455
3156.56247	0.05473
3155.27670	0.05494
3153.99093	0.05492
3152.70516	0.05459
3151.41939	0.05408
3150.13363	0.05364
3148.84786	0.05343
3147.56209	0.05347
3146.27632	0.05364
3144.99055	0.05381
3143.70478	0.05388
3142.41901	0.05376
3141.13324	0.05350
3139.84748	0.05316
3138.56171	0.05277
3137.27594	0.05229
3135.99017	0.05177
3134.70440	0.05140
3133.41863	0.05130
3132.13286	0.05137
3130.84709	0.05142
3129.56132	0.05143
3128.27556	0.05155
3126.98979	0.05176
3125.70402	0.05185
3124.41825	0.05162
3123.13248	0.05120
3121.84671	0.05081
3120.56094	0.05052
3119.27517	0.05025
3117.98940	0.04996
3116.70364	0.04979
3115.41787	0.04977
3114.13210	0.04973
3112.84633	0.04953
3111.56056	0.04924
3110.27479	0.04909
3108.98902	0.04920
3107.70325	0.04943
3106.41749	0.04955
3105.13172	0.04946
3103.84595	0.04922
3102.56018	0.04895
3101.27441	0.04877
3099.98864	0.04874
3098.70287	0.04882
3097.41710	0.04887
3096.13133	0.04877
3094.84557	0.04857
3093.55980	0.04836
3092.27403	0.04816
3090.98826	0.04794
3089.70249	0.04777
3088.41672	0.04775
3087.13095	0.04788
3085.84518	0.04806
3084.55942	0.04817
3083.27365	0.04816
3081.98788	0.04803
3080.70211	0.04778
3079.41634	0.04745
3078.13057	0.04712
3076.84480	0.04680
3075.55903	0.04648
3074.27326	0.04616
3072.98750	0.04584
3071.70173	0.04558
3070.41596	0.04544
3069.13019	0.04544
3067.84442	0.04552
3066.55865	0.04556
3065.27288	0.04545
3063.98711	0.04521
3062.70135	0.04500
3061.41558	0.04495
3060.12981	0.04501
3058.84404	0.04503
3057.55827	0.04487
3056.27250	0.04453
3054.98673	0.04407
3053.70096	0.04359
3052.41519	0.04320
3051.12943	0.04298
3049.84366	0.04292
3048.55789	0.04291
3047.27212	0.04288
3045.98635	0.04279
3044.70058	0.04263
3043.41481	0.04239
3042.12904	0.04213
3040.84328	0.04199
3039.55751	0.04203
3038.27174	0.04217
3036.98597	0.04222
3035.70020	0.04210
3034.41443	0.04192
3033.12866	0.04180
3031.84289	0.04183
3030.55712	0.04198
3029.27136	0.04214
3027.98559	0.04218
3026.69982	0.04200
3025.41405	0.04161
3024.12828	0.04115
3022.84251	0.04084
3021.55674	0.04084
3020.27097	0.04114
3018.98521	0.04152
3017.69944	0.04174
3016.41367	0.04169
3015.12790	0.04142
3013.84213	0.04100
3012.55636	0.04051
3011.27059	0.04011
3009.98482	0.03996
3008.69905	0.04013
3007.41329	0.04054
3006.12752	0.04104
3004.84175	0.04134
3003.55598	0.04121
3002.27021	0.04063
3000.98444	0.03983
2999.69867	0.03915
2998.41290	0.03884
2997.12714	0.03887
2995.84137	0.03906
2994.55560	0.03926
2993.26983	0.03942
2991.98406	0.03954
2990.69829	0.03965
2989.41252	0.03967
2988.12675	0.03959
2986.84098	0.03952
2985.55522	0.03965
2984.26945	0.03991
2982.98368	0.04003
2981.69791	0.03993
2980.41214	0.03981
2979.12637	0.03987
2977.84060	0.04005
2976.55483	0.04019
2975.26907	0.04018
2973.98330	0.04004
2972.69753	0.03984
2971.41176	0.03967
2970.12599	0.03967
2968.84022	0.03991
2967.55445	0.04036
2966.26868	0.04089
2964.98291	0.04133
2963.69715	0.04152
2962.41138	0.04144
2961.12561	0.04121
2959.83984	0.04100
2958.55407	0.04097
2957.26830	0.04117
2955.98253	0.04151
2954.69676	0.04181
2953.41100	0.04194
2952.12523	0.04195
2950.83946	0.04198
2949.55369	0.04214
2948.26792	0.04237
2946.98215	0.04248
2945.69638	0.04226
2944.41061	0.04172
2943.12484	0.04105
2941.83908	0.04053
2940.55331	0.04034
2939.26754	0.04053
2937.98177	0.04098
2936.69600	0.04148
2935.41023	0.04181
2934.12446	0.04191
2932.83869	0.04188
2931.55293	0.04187
2930.26716	0.04192
2928.98139	0.04197
2927.69562	0.04199
2926.40985	0.04207
2925.12408	0.04222
2923.83831	0.04234
2922.55254	0.04231
2921.26677	0.04219
2919.98101	0.04210
2918.69524	0.04205
2917.40947	0.04194
2916.12370	0.04168
2914.83793	0.04125
2913.55216	0.04076
2912.26639	0.04036
2910.98062	0.04018
2909.69486	0.04026
2908.40909	0.04046
2907.12332	0.04063
2905.83755	0.04057
2904.55178	0.04021
2903.26601	0.03962
2901.98024	0.03899
2900.69447	0.03848
2899.40870	0.03812
2898.12294	0.03783
2896.83717	0.03766
2895.55140	0.03767
2894.26563	0.03777
2892.97986	0.03764
2891.69409	0.03711
2890.40832	0.03639
2889.12255	0.03588
2887.83678	0.03585
2886.55102	0.03617
2885.26525	0.03649
2883.97948	0.03654
2882.69371	0.03631
2881.40794	0.03596
2880.12217	0.03575
2878.83640	0.03581
2877.55063	0.03610
2876.26487	0.03642
2874.97910	0.03656
2873.69333	0.03643
2872.40756	0.03616
2871.12179	0.03591
2869.83602	0.03575
2868.55025	0.03567
2867.26448	0.03563
2865.97871	0.03561
2864.69295	0.03561
2863.40718	0.03563
2862.12141	0.03566
2860.83564	0.03569
2859.54987	0.03576
2858.26410	0.03588
2856.97833	0.03595
2855.69256	0.03584
2854.40680	0.03549
2853.12103	0.03506
2851.83526	0.03469
2850.54949	0.03439
2849.26372	0.03404
2847.97795	0.03361
2846.69218	0.03315
2845.40641	0.03269
2844.12064	0.03221
2842.83488	0.03174
2841.54911	0.03145
2840.26334	0.03144
2838.97757	0.03161
2837.69180	0.03170
2836.40603	0.03157
2835.12026	0.03126
2833.83449	0.03089
2832.54873	0.03049
2831.26296	0.03009
2829.97719	0.02973
2828.69142	0.02950
2827.40565	0.02943
2826.11988	0.02943
2824.83411	0.02941
2823.54834	0.02942
2822.26257	0.02949
2820.97681	0.02960
2819.69104	0.02963
2818.40527	0.02949
2817.11950	0.02925
2815.83373	0.02902
2814.54796	0.02889
2813.26219	0.02884
2811.97642	0.02879
2810.69066	0.02866
2809.40489	0.02846
2808.11912	0.02832
2806.83335	0.02827
2805.54758	0.02825
2804.26181	0.02817
2802.97604	0.02811
2801.69027	0.02813
2800.40450	0.02822
2799.11874	0.02827
2797.83297	0.02823
2796.54720	0.02810
2795.26143	0.02792
2793.97566	0.02769
2792.68989	0.02743
2791.40412	0.02724
2790.11835	0.02730
2788.83259	0.02755
2787.54682	0.02773
2786.26105	0.02764
2784.97528	0.02734
2783.68951	0.02708
2782.40374	0.02696
2781.11797	0.02695
2779.83220	0.02698
2778.54643	0.02698
2777.26067	0.02690
2775.97490	0.02672
2774.68913	0.02654
2773.40336	0.02648
2772.11759	0.02653
2770.83182	0.02653
2769.54605	0.02636
2768.26028	0.02609
2766.97452	0.02593
2765.68875	0.02603
2764.40298	0.02631
2763.11721	0.02651
2761.83144	0.02643
2760.54567	0.02615
2759.25990	0.02593
2757.97413	0.02592
2756.68836	0.02606
2755.40260	0.02615
2754.11683	0.02610
2752.83106	0.02596
2751.54529	0.02581
2750.25952	0.02574
2748.97375	0.02578
2747.68798	0.02587
2746.40221	0.02592
2745.11645	0.02587
2743.83068	0.02574
2742.54491	0.02560
2741.25914	0.02547
2739.97337	0.02533
2738.68760	0.02515
2737.40183	0.02498
2736.11606	0.02486
2734.83029	0.02480
2733.54453	0.02482
2732.25876	0.02488
2730.97299	0.02492
2729.68722	0.02492
2728.40145	0.02490
2727.11568	0.02490
2725.82991	0.02487
2724.54414	0.02472
2723.25838	0.02445
2721.97261	0.02420
2720.68684	0.02419
2719.40107	0.02443
2718.11530	0.02476
2716.82953	0.02497
2715.54376	0.02498
2714.25799	0.02486
2712.97222	0.02471
2711.68646	0.02456
2710.40069	0.02439
2709.11492	0.02418
2707.82915	0.02397
2706.54338	0.02391
2705.25761	0.02404
2703.97184	0.02424
2702.68607	0.02432
2701.40031	0.02417
2700.11454	0.02392
2698.82877	0.02372
2697.54300	0.02366
2696.25723	0.02367
2694.97146	0.02366
2693.68569	0.02362
2692.39992	0.02355
2691.11415	0.02348
2689.82839	0.02345
2688.54262	0.02347
2687.25685	0.02350
2685.97108	0.02348
2684.68531	0.02339
2683.39954	0.02325
2682.11377	0.02313
2680.82800	0.02306
2679.54224	0.02294
2678.25647	0.02271
2676.97070	0.02242
2675.68493	0.02224
2674.39916	0.02225
2673.11339	0.02241
2671.82762	0.02263
2670.54185	0.02288
2669.25608	0.02310
2667.97032	0.02322
2666.68455	0.02317
2665.39878	0.02302
2664.11301	0.02291
2662.82724	0.02292
2661.54147	0.02303
2660.25570	0.02319
2658.96993	0.02332
2657.68417	0.02333
2656.39840	0.02323
2655.11263	0.02307
2653.82686	0.02295
2652.54109	0.02291
2651.25532	0.02293
2649.96955	0.02295
2648.68378	0.02290
2647.39801	0.02273
2646.11225	0.02246
2644.82648	0.02219
2643.54071	0.02200
2642.25494	0.02191
2640.96917	0.02192
2639.68340	0.02194
2638.39763	0.02185
2637.11186	0.02158
2635.82609	0.02118
2634.54033	0.02083
2633.25456	0.02065
2631.96879	0.02065
2630.68302	0.02078
2629.39725	0.02098
2628.11148	0.02118
2626.82571	0.02126
2625.53994	0.02113
2624.25418	0.02078
2622.96841	0.02030
2621.68264	0.01987
2620.39687	0.01967
2619.11110	0.01976
2617.82533	0.01999
2616.53956	0.02015
2615.25379	0.02018
2613.96802	0.02012
2612.68226	0.02002
2611.39649	0.01987
2610.11072	0.01967
2608.82495	0.01951
2607.53918	0.01944
2606.25341	0.01944
2604.96764	0.01945
2603.68187	0.01942
2602.39611	0.01931
2601.11034	0.01911
2599.82457	0.01883
2598.53880	0.01850
2597.25303	0.01824
2595.96726	0.01814
2594.68149	0.01819
2593.39572	0.01825
2592.10995	0.01819
2590.82419	0.01804
2589.53842	0.01788
2588.25265	0.01784
2586.96688	0.01797
2585.68111	0.01821
2584.39534	0.01844
2583.10957	0.01859
2581.82380	0.01863
2580.53804	0.01852
2579.25227	0.01816
2577.96650	0.01757
2576.68073	0.01701
2575.39496	0.01679
2574.10919	0.01696
2572.82342	0.01722
2571.53765	0.01727
2570.25188	0.01708
2568.96612	0.01684
2567.68035	0.01680
2566.39458	0.01702
2565.10881	0.01737
2563.82304	0.01771
2562.53727	0.01796
2561.25150	0.01812
2559.96573	0.01811
2558.67997	0.01781
2557.39420	0.01732
2556.10843	0.01696
2554.82266	0.01698
2553.53689	0.01728
2552.25112	0.01760
2550.96535	0.01771
2549.67958	0.01749
2548.39381	0.01696
2547.10805	0.01634
2545.82228	0.01590
2544.53651	0.01581
2543.25074	0.01599
2541.96497	0.01617
2540.67920	0.01614
2539.39343	0.01590
2538.10766	0.01565
2536.82190	0.01557
2535.53613	0.01563
2534.25036	0.01572
2532.96459	0.01578
2531.67882	0.01584
2530.39305	0.01595
2529.10728	0.01615
2527.82151	0.01643
2526.53574	0.01674
2525.24998	0.01696
2523.96421	0.01710
2522.67844	0.01720
2521.39267	0.01716
2520.10690	0.01688
2518.82113	0.01644
2517.53536	0.01610
2516.24959	0.01606
2514.96383	0.01617
2513.67806	0.01620
2512.39229	0.01605
2511.10652	0.01586
2509.82075	0.01577
2508.53498	0.01573
2507.24921	0.01560
2505.96344	0.01546
2504.67767	0.01552
2503.39191	0.01582
2502.10614	0.01607
2500.82037	0.01595
2499.53460	0.01553
2498.24883	0.01512
2496.96306	0.01490
2495.67729	0.01487
2494.39152	0.01502
2493.10576	0.01532
2491.81999	0.01563
2490.53422	0.01575
2489.24845	0.01566
2487.96268	0.01559
2486.67691	0.01576
2485.39114	0.01611
2484.10537	0.01629
2482.81960	0.01608
2481.53384	0.01556
2480.24807	0.01504
2478.96230	0.01476
2477.67653	0.01469
2476.39076	0.01468
2475.10499	0.01466
2473.81922	0.01474
2472.53345	0.01498
2471.24769	0.01531
2469.96192	0.01554
2468.67615	0.01553
2467.39038	0.01536
2466.10461	0.01524
2464.81884	0.01530
2463.53307	0.01549
2462.24730	0.01563
2460.96153	0.01557
2459.67577	0.01536
2458.39000	0.01520
2457.10423	0.01524
2455.81846	0.01541
2454.53269	0.01552
2453.24692	0.01548
2451.96115	0.01540
2450.67538	0.01535
2449.38962	0.01530
2448.10385	0.01518
2446.81808	0.01504
2445.53231	0.01491
2444.24654	0.01472
2442.96077	0.01444
2441.67500	0.01413
2440.38923	0.01401
2439.10346	0.01411
2437.81770	0.01427
2436.53193	0.01428
2435.24616	0.01413
2433.96039	0.01402
2432.67462	0.01412
2431.38885	0.01443
2430.10308	0.01479
2428.81731	0.01500
2427.53155	0.01495
2426.24578	0.01467
2424.96001	0.01433
2423.67424	0.01407
2422.38847	0.01395
2421.10270	0.01398
2419.81693	0.01411
2418.53116	0.01418
2417.24539	0.01399
2415.95963	0.01352
2414.67386	0.01301
2413.38809	0.01275
2412.10232	0.01290
2410.81655	0.01341
2409.53078	0.01406
2408.24501	0.01461
2406.95924	0.01485
2405.67347	0.01469
2404.38771	0.01425
2403.10194	0.01383
2401.81617	0.01370
2400.53040	0.01394
2399.24463	0.01508
2397.95886	0.01597
2396.67309	0.01619
2395.38732	0.01587
2394.10156	0.01519
2392.81579	0.01438
2391.53002	0.01364
2390.24425	0.01309
2388.95848	0.01277
2387.67271	0.01267
2386.38694	0.01273
2385.10117	0.01284
2383.81540	0.01288
2382.52964	0.01281
2381.24387	0.01267
2379.95810	0.01250
2378.67233	0.01238
2377.38656	0.01237
2376.10079	0.01228
2374.81502	0.01205
2373.52925	0.01174
2372.24349	0.01123
2370.95772	0.01056
2369.67195	0.00948
2368.38618	0.00826
2367.10041	0.00750
2365.81464	0.00713
2364.52887	0.00656
2363.24310	0.00599
2361.95733	0.00579
2360.67157	0.00572
2359.38580	0.00529
2358.10003	0.00492
2356.81426	0.00489
2355.52849	0.00501
2354.24272	0.00544
2352.95695	0.00619
2351.67118	0.00741
2350.38542	0.00916
2349.09965	0.01012
2347.81388	0.00930
2346.52811	0.00810
2345.24234	0.00808
2343.95657	0.00901
2342.67080	0.00986
2341.38503	0.01049
2340.09926	0.01105
2338.81350	0.01132
2337.52773	0.01132
2336.24196	0.01084
2334.95619	0.01027
2333.67042	0.01006
2332.38465	0.00981
2331.09888	0.00957
2329.81311	0.00961
2328.52735	0.00979
2327.24158	0.01048
2325.95581	0.01163
2324.67004	0.01262
2323.38427	0.01331
2322.09850	0.01364
2320.81273	0.01343
2319.52696	0.01307
2318.24119	0.01285
2316.95543	0.01269
2315.66966	0.01255
2314.38389	0.01245
2313.09812	0.01249
2311.81235	0.01266
2310.52658	0.01288
2309.24081	0.01312
2307.95504	0.01321
2306.66928	0.01310
2305.38351	0.01297
2304.09774	0.01294
2302.81197	0.01302
2301.52620	0.01313
2300.24043	0.01321
2298.95466	0.01325
2297.66889	0.01325
2296.38312	0.01321
2295.09736	0.01311
2293.81159	0.01299
2292.52582	0.01294
2291.24005	0.01301
2289.95428	0.01321
2288.66851	0.01347
2287.38274	0.01367
2286.09697	0.01377
2284.81121	0.01377
2283.52544	0.01366
2282.23967	0.01345
2280.95390	0.01316
2279.66813	0.01291
2278.38236	0.01286
2277.09659	0.01311
2275.81082	0.01353
2274.52505	0.01377
2273.23929	0.01345
2271.95352	0.01255
2270.66775	0.01141
2269.38198	0.01052
2268.09621	0.01022
2266.81044	0.01045
2265.52467	0.01091
2264.23890	0.01131
2262.95314	0.01149
2261.66737	0.01148
2260.38160	0.01141
2259.09583	0.01140
2257.81006	0.01138
2256.52429	0.01118
2255.23852	0.01076
2253.95275	0.01025
2252.66698	0.00985
2251.38122	0.00961
2250.09545	0.00951
2248.80968	0.00951
2247.52391	0.00914
2246.23814	0.00891
2244.95237	0.00890
2243.66660	0.00904
2242.38083	0.00925
2241.09507	0.00943
2239.80930	0.00949
2238.52353	0.00956
2237.23776	0.00980
2235.95199	0.01012
2234.66622	0.01027
2233.38045	0.01018
2232.09468	0.01014
2230.80891	0.01041
2229.52315	0.01078
2228.23738	0.01070
2226.95161	0.00999
2225.66584	0.00911
2224.38007	0.00860
2223.09430	0.00844
2221.80853	0.00814
2220.52276	0.00751
2219.23700	0.00699
2217.95123	0.00715
2216.66546	0.00800
2215.37969	0.00886
2214.09392	0.00899
2212.80815	0.00817
2211.52238	0.00686
2210.23661	0.00582
2208.95084	0.00556
2207.66508	0.00596
2206.37931	0.00659
2205.09354	0.00709
2203.80777	0.00732
2202.52200	0.00708
2201.23623	0.00625
2199.95046	0.00507
2198.66469	0.00420
2197.37893	0.00418
2196.09316	0.00497
2194.80739	0.00600
2193.52162	0.00670
2192.23585	0.00694
2190.95008	0.00680
2189.66431	0.00631
2188.37854	0.00536
2187.09277	0.00407
2185.80701	0.00280
2184.52124	0.00189
2183.23547	0.00156
2181.94970	0.00184
2180.66393	0.00244
2179.37816	0.00282
2178.09239	0.00257
2176.80662	0.00184
2175.52085	0.00113
2174.23509	0.00085
2172.94932	0.00115
2171.66355	0.00194
2170.37778	0.00287
2169.09201	0.00341
2167.80624	0.00334
2166.52047	0.00297
2165.23470	0.00285
2163.94894	0.00308
2162.66317	0.00300
2161.37740	0.00200
2160.09163	0.00035
2158.80586	-0.00096
2157.52009	-0.00147
2156.23432	-0.00177
2154.94855	-0.00244
2153.66278	-0.00324
2152.37702	-0.00335
2151.09125	-0.00229
2149.80548	-0.00030
2148.51971	0.00182
2147.23394	0.00325
2145.94817	0.00363
2144.66240	0.00321
2143.37663	0.00265
2142.09087	0.00259
2140.80510	0.00326
2139.51933	0.00427
2138.23356	0.00492
2136.94779	0.00474
2135.66202	0.00382
2134.37625	0.00280
2133.09048	0.00243
2131.80471	0.00302
2130.51895	0.00417
2129.23318	0.00511
2127.94741	0.00528
2126.66164	0.00474
2125.37587	0.00395
2124.09010	0.00337
2122.80433	0.00329
2121.51856	0.00380
2120.23280	0.00471
2118.94703	0.00549
2117.66126	0.00559
2116.37549	0.00494
2115.08972	0.00408
2113.80395	0.00367
2112.51818	0.00382
2111.23241	0.00418
2109.94664	0.00449
2108.66088	0.00483
2107.37511	0.00532
2106.08934	0.00582
2104.80357	0.00606
2103.51780	0.00597
2102.23203	0.00577
2100.94626	0.00569
2099.66049	0.00596
2098.37473	0.00589
2097.08896	0.00537
2095.80319	0.00479
2094.51742	0.00460
2093.23165	0.00490
2091.94588	0.00531
2090.66011	0.00545
2089.37434	0.00524
2088.08857	0.00495
2086.80281	0.00481
2085.51704	0.00474
2084.23127	0.00456
2082.94550	0.00429
2081.65973	0.00421
2080.37396	0.00454
2079.08819	0.00505
2077.80242	0.00525
2076.51666	0.00484
2075.23089	0.00393
2073.94512	0.00290
2072.65935	0.00210
2071.37358	0.00171
2070.08781	0.00173
2068.80204	0.00203
2067.51627	0.00243
2066.23050	0.00269
2064.94474	0.00269
2063.65897	0.00245
2062.37320	0.00217
2061.08743	0.00210
2059.80166	0.00230
2058.51589	0.00259
2057.23012	0.00254
2055.94435	0.00194
2054.65859	0.00107
2053.37282	0.00054
2052.08705	0.00071
2050.80128	0.00138
2049.51551	0.00204
2048.22974	0.00235
2046.94397	0.00213
2045.65820	0.00139
2044.37243	0.00040
2043.08667	-0.00034
2041.80090	-0.00039
2040.51513	0.00017
2039.22936	0.00072
2037.94359	0.00066
2036.65782	-0.00004
2035.37205	-0.00088
2034.08628	-0.00134
2032.80052	-0.00140
2031.51475	-0.00149
2030.22898	-0.00204
2028.94321	-0.00304
2027.65744	-0.00407
2026.37167	-0.00455
2025.08590	-0.00419
2023.80013	-0.00308
2022.51436	-0.00161
2021.22860	-0.00030
2019.94283	0.00040
2018.65706	0.00045
2017.37129	0.00023
2016.08552	0.00022
2014.79975	0.00047
2013.51398	0.00069
2012.22821	0.00080
2010.94245	0.00092
2009.65668	0.00100
2008.37091	0.00072
2007.08514	0.00005
2005.79937	-0.00057
2004.51360	-0.00066
2003.22783	-0.00019
2001.94206	0.00053
2000.65629	0.00122
1999.37053	0.00185
1998.08476	0.00256
1996.79899	0.00339
1995.51322	0.00408
1994.22745	0.00430
1992.94168	0.00393
1991.65591	0.00330
1990.37014	0.00297
1989.08438	0.00323
1987.79861	0.00390
1986.51284	0.00451
1985.22707	0.00471
1983.94130	0.00454
1982.65553	0.00436
1981.36976	0.00444
1980.08399	0.00474
1978.79822	0.00494
1977.51246	0.00478
1976.22669	0.00422
1974.94092	0.00354
1973.65515	0.00315
1972.36938	0.00329
1971.08361	0.00393
1969.79784	0.00483
1968.51207	0.00564
1967.22631	0.00612
1965.94054	0.00621
1964.65477	0.00603
1963.36900	0.00579
1962.08323	0.00566
1960.79746	0.00572
1959.51169	0.00589
1958.22592	0.00596
1956.94015	0.00582
1955.65439	0.00561
1954.36862	0.00555
1953.08285	0.00563
1951.79708	0.00569
1950.51131	0.00558
1949.22554	0.00531
1947.93977	0.00494
1946.65400	0.00461
1945.36823	0.00448
1944.08247	0.00468
1942.79670	0.00521
1941.51093	0.00591
1940.22516	0.00655
1938.93939	0.00692
1937.65362	0.00695
1936.36785	0.00675
1935.08208	0.00653
1933.79632	0.00643
1932.51055	0.00650
1931.22478	0.00669
1929.93901	0.00685
1928.65324	0.00678
1927.36747	0.00639
1926.08170	0.00587
1924.79593	0.00546
1923.51016	0.00533
1922.22440	0.00548
1920.93863	0.00588
1919.65286	0.00644
1918.36709	0.00695
1917.08132	0.00715
1915.79555	0.00696
1914.50978	0.00663
1913.22401	0.00647
1911.93825	0.00652
1910.65248	0.00655
1909.36671	0.00640
1908.08094	0.00618
1906.79517	0.00616
1905.50940	0.00645
1904.22363	0.00690
1902.93786	0.00734
1901.65209	0.00771
1900.36633	0.00800
1899.08056	0.00821
1897.79479	0.00827
1896.50902	0.00813
1895.22325	0.00779
1893.93748	0.00741
1892.65171	0.00716
1891.36594	0.00713
1890.08018	0.00732
1888.79441	0.00763
1887.50864	0.00797
1886.22287	0.00827
1884.93710	0.00848
1883.65133	0.00858
1882.36556	0.00856
1881.07979	0.00839
1879.79402	0.00808
1878.50826	0.00774
1877.22249	0.00753
1875.93672	0.00751
1874.65095	0.00766
1873.36518	0.00791
1872.07941	0.00819
1870.79364	0.00848
1869.50787	0.00872
1868.22211	0.00877
1866.93634	0.00860
1865.65057	0.00827
1864.36480	0.00801
1863.07903	0.00796
1861.79326	0.00817
1860.50749	0.00851
1859.22172	0.00883
1857.93595	0.00901
1856.65019	0.00899
1855.36442	0.00882
1854.07865	0.00857
1852.79288	0.00834
1851.50711	0.00817
1850.22134	0.00808
1848.93557	0.00807
1847.64980	0.00814
1846.36404	0.00827
1845.07827	0.00840
1843.79250	0.00849
1842.50673	0.00851
1841.22096	0.00850
1839.93519	0.00854
1838.64942	0.00861
1837.36365	0.00868
1836.07788	0.00867
1834.79212	0.00863
1833.50635	0.00862
1832.22058	0.00869
1830.93481	0.00878
1829.64904	0.00881
1828.36327	0.00877
1827.07750	0.00867
1825.79173	0.00857
1824.50597	0.00851
1823.22020	0.00853
1821.93443	0.00868
1820.64866	0.00886
1819.36289	0.00891
1818.07712	0.00878
1816.79135	0.00858
1815.50558	0.00851
1814.21981	0.00866
1812.93405	0.00896
1811.64828	0.00929
1810.36251	0.00956
1809.07674	0.00973
1807.79097	0.00977
1806.50520	0.00970
1805.21943	0.00958
1803.93366	0.00950
1802.64790	0.00951
1801.36213	0.00962
1800.07636	0.00979
1798.79059	0.00998
1797.50482	0.01017
1796.21905	0.01035
1794.93328	0.01052
1793.64751	0.01062
1792.36174	0.01062
1791.07598	0.01053
1789.79021	0.01038
1788.50444	0.01023
1787.21867	0.01014
1785.93290	0.01014
1784.64713	0.01021
1783.36136	0.01033
1782.07559	0.01044
1780.78983	0.01051
1779.50406	0.01053
1778.21829	0.01055
1776.93252	0.01066
1775.64675	0.01086
1774.36098	0.01110
1773.07521	0.01126
1771.78944	0.01132
1770.50367	0.01133
1769.21791	0.01136
1767.93214	0.01140
1766.64637	0.01143
1765.36060	0.01145
1764.07483	0.01151
1762.78906	0.01162
1761.50329	0.01175
1760.21752	0.01184
1758.93176	0.01186
1757.64599	0.01182
1756.36022	0.01177
1755.07445	0.01177
1753.78868	0.01185
1752.50291	0.01195
1751.21714	0.01196
1749.93137	0.01184
1748.64560	0.01169
1747.35984	0.01162
1746.07407	0.01169
1744.78830	0.01188
1743.50253	0.01210
1742.21676	0.01231
1740.93099	0.01247
1739.64522	0.01256
1738.35945	0.01261
1737.07369	0.01271
1735.78792	0.01289
1734.50215	0.01312
1733.21638	0.01330
1731.93061	0.01340
1730.64484	0.01345
1729.35907	0.01350
1728.07330	0.01358
1726.78753	0.01369
1725.50177	0.01381
1724.21600	0.01391
1722.93023	0.01399
1721.64446	0.01412
1720.35869	0.01440
1719.07292	0.01479
1717.78715	0.01520
1716.50138	0.01551
1715.21561	0.01570
1713.92985	0.01583
1712.64408	0.01596
1711.35831	0.01612
1710.07254	0.01635
1708.78677	0.01664
1707.50100	0.01697
1706.21523	0.01730
1704.92946	0.01765
1703.64370	0.01804
1702.35793	0.01845
1701.07216	0.01885
1699.78639	0.01919
1698.50062	0.01948
1697.21485	0.01971
1695.92908	0.01987
1694.64331	0.01997
1693.35754	0.02007
1692.07178	0.02025
1690.78601	0.02053
1689.50024	0.02088
1688.21447	0.02131
1686.92870	0.02181
1685.64293	0.02232
1684.35716	0.02270
1683.07139	0.02287
1681.78563	0.02291
1680.49986	0.02300
1679.21409	0.02325
1677.92832	0.02365
1676.64255	0.02412
1675.35678	0.02455
1674.07101	0.02493
1672.78524	0.02529
1671.49947	0.02570
1670.21371	0.02614
1668.92794	0.02656
1667.64217	0.02692
1666.35640	0.02727
1665.07063	0.02762
1663.78486	0.02798
1662.49909	0.02832
1661.21332	0.02863
1659.92756	0.02895
1658.64179	0.02933
1657.35602	0.02980
1656.07025	0.03037
1654.78448	0.03096
1653.49871	0.03142
1652.21294	0.03165
1650.92717	0.03172
1649.64140	0.03178
1648.35564	0.03193
1647.06987	0.03213
1645.78410	0.03228
1644.49833	0.03235
1643.21256	0.03243
1641.92679	0.03258
1640.64102	0.03283
1639.35525	0.03317
1638.06949	0.03357
1636.78372	0.03395
1635.49795	0.03419
1634.21218	0.03423
1632.92641	0.03415
1631.64064	0.03410
1630.35487	0.03417
1629.06910	0.03436
1627.78333	0.03465
1626.49757	0.03497
1625.21180	0.03529
1623.92603	0.03552
1622.64026	0.03563
1621.35449	0.03566
1620.06872	0.03569
1618.78295	0.03580
1617.49718	0.03598
1616.21142	0.03615
1614.92565	0.03624
1613.63988	0.03629
1612.35411	0.03636
1611.06834	0.03654
1609.78257	0.03680
1608.49680	0.03710
1607.21103	0.03738
1605.92526	0.03757
1604.63950	0.03769
1603.35373	0.03777
1602.06796	0.03787
1600.78219	0.03804
1599.49642	0.03827
1598.21065	0.03852
1596.92488	0.03873
1595.63911	0.03888
1594.35335	0.03898
1593.06758	0.03905
1591.78181	0.03910
1590.49604	0.03915
1589.21027	0.03922
1587.92450	0.03935
1586.63873	0.03955
1585.35296	0.03978
1584.06719	0.03999
1582.78143	0.04013
1581.49566	0.04023
1580.20989	0.04036
1578.92412	0.04058
1577.63835	0.04088
1576.35258	0.04115
1575.06681	0.04131
1573.78104	0.04137
1572.49528	0.04146
1571.20951	0.04163
1569.92374	0.04184
1568.63797	0.04201
1567.35220	0.04210
1566.06643	0.04215
1564.78066	0.04226
1563.49489	0.04249
1562.20912	0.04291
1560.92336	0.04346
1559.63759	0.04401
1558.35182	0.04441
1557.06605	0.04462
1555.78028	0.04473
1554.49451	0.04490
1553.20874	0.04518
1551.92297	0.04554
1550.63721	0.04594
1549.35144	0.04634
1548.06567	0.04677
1546.77990	0.04730
1545.49413	0.04791
1544.20836	0.04854
1542.92259	0.04917
1541.63682	0.04979
1540.35105	0.05037
1539.06529	0.05085
1537.77952	0.05126
1536.49375	0.05171
1535.20798	0.05229
1533.92221	0.05303
1532.63644	0.05386
1531.35067	0.05475
1530.06490	0.05572
1528.77914	0.05681
1527.49337	0.05803
1526.20760	0.05935
1524.92183	0.06074
1523.63606	0.06220
1522.35029	0.06373
1521.06452	0.06527
1519.77875	0.06679
1518.49298	0.06832
1517.20722	0.06992
1515.92145	0.07160
1514.63568	0.07335
1513.34991	0.07516
1512.06414	0.07706
1510.77837	0.07909
1509.49260	0.08129
1508.20683	0.08360
1506.92107	0.08588
1505.63530	0.08793
1504.34953	0.08969
1503.06376	0.09128
1501.77799	0.09288
1500.49222	0.09454
1499.20645	0.09622
1497.92068	0.09782
1496.63491	0.09927
1495.34915	0.10057
1494.06338	0.10182
1492.77761	0.10313
1491.49184	0.10455
1490.20607	0.10608
1488.92030	0.10763
1487.63453	0.10917
1486.34876	0.11072
1485.06299	0.11237
1483.77723	0.11415
1482.49146	0.11603
1481.20569	0.11796
1479.91992	0.11985
1478.63415	0.12168
1477.34838	0.12342
1476.06261	0.12510
1474.77684	0.12673
1473.49108	0.12829
1472.20531	0.12967
1470.91954	0.13076
1469.63377	0.13152
1468.34800	0.13205
1467.06223	0.13244
1465.77646	0.13272
1464.49069	0.13294
1463.20492	0.13320
1461.91916	0.13363
1460.63339	0.13433
1459.34762	0.13530
1458.06185	0.13641
1456.77608	0.13745
1455.49031	0.13833
1454.20454	0.13905
1452.91877	0.13971
1451.63301	0.14037
1450.34724	0.14096
1449.06147	0.14138
1447.77570	0.14154
1446.48993	0.14140
1445.20416	0.14098
1443.91839	0.14037
1442.63262	0.13964
1441.34685	0.13889
1440.06109	0.13822
1438.77532	0.13774
1437.48955	0.13751
1436.20378	0.13753
1434.91801	0.13779
1433.63224	0.13832
1432.34647	0.13919
1431.06070	0.14044
1429.77494	0.14204
1428.48917	0.14388
1427.20340	0.14587
1425.91763	0.14792
1424.63186	0.14999
1423.34609	0.15204
1422.06032	0.15404
1420.77455	0.15594
1419.48878	0.15764
1418.20302	0.15897
1416.91725	0.15985
1415.63148	0.16030
1414.34571	0.16039
1413.05994	0.16021
1411.77417	0.15975
1410.48840	0.15898
1409.20263	0.15785
1407.91687	0.15636
1406.63110	0.15450
1405.34533	0.15229
1404.05956	0.14980
1402.77379	0.14707
1401.48802	0.14414
1400.20225	0.14107
1398.91648	0.13790
1397.63071	0.13471
1396.34495	0.13150
1395.05918	0.12824
1393.77341	0.12491
1392.48764	0.12153
1391.20187	0.11814
1389.91610	0.11480
1388.63033	0.11150
1387.34456	0.10826
1386.05880	0.10510
1384.77303	0.10204
1383.48726	0.09907
1382.20149	0.09612
1380.91572	0.09316
1379.62995	0.09018
1378.34418	0.08722
1377.05841	0.08433
1375.77264	0.08152
1374.48688	0.07879
1373.20111	0.07611
1371.91534	0.07351
1370.62957	0.07100
1369.34380	0.06864
1368.05803	0.06645
1366.77226	0.06443
1365.48649	0.06252
1364.20073	0.06066
1362.91496	0.05883
1361.62919	0.05704
1360.34342	0.05534
1359.05765	0.05375
1357.77188	0.05225
1356.48611	0.05087
1355.20034	0.04961
1353.91457	0.04846
1352.62881	0.04735
1351.34304	0.04625
1350.05727	0.04516
1348.77150	0.04413
1347.48573	0.04317
1346.19996	0.04228
1344.91419	0.04144
1343.62842	0.04066
1342.34266	0.03991
1341.05689	0.03918
1339.77112	0.03848
1338.48535	0.03781
1337.19958	0.03721
1335.91381	0.03665
1334.62804	0.03612
1333.34227	0.03558
1332.05650	0.03501
1330.77074	0.03441
1329.48497	0.03383
1328.19920	0.03327
1326.91343	0.03278
1325.62766	0.03233
1324.34189	0.03192
1323.05612	0.03156
1321.77035	0.03123
1320.48459	0.03090
1319.19882	0.03052
1317.91305	0.03010
1316.62728	0.02968
1315.34151	0.02931
1314.05574	0.02902
1312.76997	0.02879
1311.48420	0.02859
1310.19843	0.02837
1308.91267	0.02812
1307.62690	0.02785
1306.34113	0.02758
1305.05536	0.02733
1303.76959	0.02710
1302.48382	0.02688
1301.19805	0.02667
1299.91228	0.02645
1298.62652	0.02622
1297.34075	0.02599
1296.05498	0.02576
1294.76921	0.02553
1293.48344	0.02530
1292.19767	0.02509
1290.91190	0.02493
1289.62613	0.02483
1288.34036	0.02475
1287.05460	0.02466
1285.76883	0.02454
1284.48306	0.02438
1283.19729	0.02419
1281.91152	0.02400
1280.62575	0.02381
1279.33998	0.02360
1278.05421	0.02340
1276.76845	0.02321
1275.48268	0.02306
1274.19691	0.02294
1272.91114	0.02286
1271.62537	0.02281
1270.33960	0.02276
1269.05383	0.02269
1267.76806	0.02258
1266.48229	0.02245
1265.19653	0.02232
1263.91076	0.02223
1262.62499	0.02216
1261.33922	0.02210
1260.05345	0.02200
1258.76768	0.02186
1257.48191	0.02170
1256.19614	0.02157
1254.91037	0.02150
1253.62461	0.02149
1252.33884	0.02151
1251.05307	0.02148
1249.76730	0.02140
1248.48153	0.02128
1247.19576	0.02114
1245.90999	0.02099
1244.62422	0.02085
1243.33846	0.02073
1242.05269	0.02066
1240.76692	0.02058
1239.48115	0.02048
1238.19538	0.02035
1236.90961	0.02025
1235.62384	0.02018
1234.33807	0.02013
1233.05230	0.02007
1231.76654	0.01999
1230.48077	0.01994
1229.19500	0.01994
1227.90923	0.01999
1226.62346	0.02005
1225.33769	0.02009
1224.05192	0.02009
1222.76615	0.02002
1221.48039	0.01992
1220.19462	0.01981
1218.90885	0.01971
1217.62308	0.01962
1216.33731	0.01955
1215.05154	0.01953
1213.76577	0.01956
1212.48000	0.01962
1211.19423	0.01969
1209.90847	0.01974
1208.62270	0.01979
1207.33693	0.01984
1206.05116	0.01986
1204.76539	0.01987
1203.47962	0.01988
1202.19385	0.01989
1200.90808	0.01988
1199.62232	0.01984
1198.33655	0.01983
1197.05078	0.01984
1195.76501	0.01989
1194.47924	0.01996
1193.19347	0.02005
1191.90770	0.02015
1190.62193	0.02026
1189.33616	0.02034
1188.05040	0.02037
1186.76463	0.02036
1185.47886	0.02036
1184.19309	0.02040
1182.90732	0.02048
1181.62155	0.02058
1180.33578	0.02067
1179.05001	0.02075
1177.76425	0.02085
1176.47848	0.02098
1175.19271	0.02115
1173.90694	0.02131
1172.62117	0.02144
1171.33540	0.02155
1170.04963	0.02165
1168.76386	0.02180
1167.47809	0.02198
1166.19233	0.02217
1164.90656	0.02236
1163.62079	0.02253
1162.33502	0.02270
1161.04925	0.02289
1159.76348	0.02310
1158.47771	0.02337
1157.19194	0.02370
1155.90618	0.02403
1154.62041	0.02434
1153.33464	0.02463
1152.04887	0.02498
1150.76310	0.02541
1149.47733	0.02595
1148.19156	0.02656
1146.90579	0.02717
1145.62002	0.02778
1144.33426	0.02841
1143.04849	0.02909
1141.76272	0.02985
1140.47695	0.03073
1139.19118	0.03180
1137.90541	0.03315
1136.61964	0.03476
1135.33387	0.03656
1134.04811	0.03848
1132.76234	0.04053
1131.47657	0.04280
1130.19080	0.04535
1128.90503	0.04820
1127.61926	0.05133
1126.33349	0.05474
1125.04772	0.05844
1123.76195	0.06245
1122.47619	0.06671
1121.19042	0.07114
1119.90465	0.07567
1118.61888	0.08024
1117.33311	0.08480
1116.04734	0.08935
1114.76157	0.09389
1113.47580	0.09836
1112.19004	0.10266
1110.90427	0.10672
1109.61850	0.11054
1108.33273	0.11423
1107.04696	0.11784
1105.76119	0.12138
1104.47542	0.12482
1103.18965	0.12815
1101.90388	0.13141
1100.61812	0.13463
1099.33235	0.13784
1098.04658	0.14102
1096.76081	0.14415
1095.47504	0.14718
1094.18927	0.15007
1092.90350	0.15279
1091.61773	0.15530
1090.33197	0.15759
1089.04620	0.15969
1087.76043	0.16166
1086.47466	0.16357
1085.18889	0.16558
1083.90312	0.16776
1082.61735	0.17012
1081.33158	0.17266
1080.04581	0.17542
1078.76005	0.17852
1077.47428	0.18198
1076.18851	0.18571
1074.90274	0.18963
1073.61697	0.19374
1072.33120	0.19811
1071.04543	0.20274
1069.75966	0.20753
1068.47390	0.21237
1067.18813	0.21725
1065.90236	0.22227
1064.61659	0.22754
1063.33082	0.23305
1062.04505	0.23870
1060.75928	0.24443
1059.47351	0.25019
1058.18774	0.25598
1056.90198	0.26180
1055.61621	0.26762
1054.33044	0.27347
1053.04467	0.27930
1051.75890	0.28513
1050.47313	0.29101
1049.18736	0.29708
1047.90159	0.30344
1046.61583	0.31011
1045.33006	0.31699
1044.04429	0.32391
1042.75852	0.33078
1041.47275	0.33762
1040.18698	0.34458
1038.90121	0.35178
1037.61544	0.35916
1036.32967	0.36660
1035.04391	0.37394
1033.75814	0.38109
1032.47237	0.38793
1031.18660	0.39437
1029.90083	0.40031
1028.61506	0.40564
1027.32929	0.41031
1026.04352	0.41424
1024.75775	0.41741
1023.47199	0.41971
1022.18622	0.42102
1020.90045	0.42121
1019.61468	0.42023
1018.32891	0.41800
1017.04314	0.41443
1015.75737	0.40949
1014.47160	0.40317
1013.18584	0.39552
1011.90007	0.38656
1010.61430	0.37634
1009.32853	0.36499
1008.04276	0.35259
1006.75699	0.33922
1005.47122	0.32500
1004.18545	0.31011
1002.89968	0.29480
1001.61392	0.27932
1000.32815	0.26387
999.04238	0.24862
997.75661	0.23370
996.47084	0.21919
995.18507	0.20517
993.89930	0.19178
992.61353	0.17920
991.32777	0.16759
990.04200	0.15696
988.75623	0.14726
987.47046	0.13836
986.18469	0.13015
984.89892	0.12258
983.61315	0.11564
982.32738	0.10938
981.04161	0.10385
979.75585	0.09904
978.47008	0.09488
977.18431	0.09132
975.89854	0.08838
974.61277	0.08610
973.32700	0.08449
972.04123	0.08356
970.75546	0.08333
969.46970	0.08388
968.18393	0.08529
966.89816	0.08748
965.61239	0.09013
964.32662	0.09274
963.04085	0.09476
961.75508	0.09573
960.46931	0.09538
959.18354	0.09367
957.89778	0.09076
956.61201	0.08700
955.32624	0.08285
954.04047	0.07874
952.75470	0.07493
951.46893	0.07152
950.18316	0.06844
948.89739	0.06560
947.61163	0.06296
946.32586	0.06052
945.04009	0.05820
943.75432	0.05593
942.46855	0.05368
941.18278	0.05157
939.89701	0.04973
938.61124	0.04819
937.32547	0.04688
936.03971	0.04572
934.75394	0.04471
933.46817	0.04385
932.18240	0.04313
930.89663	0.04245
929.61086	0.04174
928.32509	0.04102
927.03932	0.04036
925.75356	0.03980
924.46779	0.03932
923.18202	0.03885
921.89625	0.03839
920.61048	0.03798
919.32471	0.03766
918.03894	0.03743
916.75317	0.03721
915.46740	0.03692
914.18164	0.03654
912.89587	0.03611
911.61010	0.03571
910.32433	0.03537
909.03856	0.03509
907.75279	0.03485
906.46702	0.03466
905.18125	0.03451
903.89549	0.03439
902.60972	0.03427
901.32395	0.03417
900.03818	0.03413
898.75241	0.03415
897.46664	0.03420
896.18087	0.03423
894.89510	0.03426
893.60933	0.03441
892.32357	0.03489
891.03780	0.03590
889.75203	0.03753
888.46626	0.03979
887.18049	0.04269
885.89472	0.04646
884.60895	0.05130
883.32318	0.05718
882.03742	0.06349
880.75165	0.06932
879.46588	0.07391
878.18011	0.07720
876.89434	0.07969
875.60857	0.08190
874.32280	0.08378
873.03703	0.08465
871.75126	0.08381
870.46550	0.08104
869.17973	0.07677
867.89396	0.07163
866.60819	0.06619
865.32242	0.06082
864.03665	0.05585
862.75088	0.05160
861.46511	0.04819
860.17935	0.04557
858.89358	0.04355
857.60781	0.04195
856.32204	0.04068
855.03627	0.03969
853.75050	0.03890
852.46473	0.03824
851.17896	0.03767
849.89319	0.03713
848.60743	0.03658
847.32166	0.03599
846.03589	0.03542
844.75012	0.03493
843.46435	0.03456
842.17858	0.03429
840.89281	0.03409
839.60704	0.03394
838.32128	0.03383
837.03551	0.03372
835.74974	0.03357
834.46397	0.03334
833.17820	0.03307
831.89243	0.03283
830.60666	0.03268
829.32089	0.03255
828.03512	0.03241
826.74936	0.03223
825.46359	0.03208
824.17782	0.03198
822.89205	0.03194
821.60628	0.03196
820.32051	0.03206
819.03474	0.03222
817.74897	0.03235
816.46321	0.03233
815.17744	0.03214
813.89167	0.03191
812.60590	0.03178
811.32013	0.03179
810.03436	0.03184
808.74859	0.03187
807.46282	0.03192
806.17705	0.03204
804.89129	0.03220
803.60552	0.03234
802.31975	0.03243
801.03398	0.03250
799.74821	0.03261
798.46244	0.03273
797.17667	0.03278
795.89090	0.03272
794.60513	0.03258
793.31937	0.03247
792.03360	0.03242
790.74783	0.03237
789.46206	0.03229
788.17629	0.03221
786.89052	0.03219
785.60475	0.03222
784.31898	0.03226
783.03322	0.03229
781.74745	0.03235
780.46168	0.03244
779.17591	0.03249
777.89014	0.03244
776.60437	0.03235
775.31860	0.03230
774.03283	0.03233
772.74706	0.03239
771.46130	0.03244
770.17553	0.03245
768.88976	0.03243
767.60399	0.03244
766.31822	0.03248
765.03245	0.03254
763.74668	0.03260
762.46091	0.03266
761.17515	0.03273
759.88938	0.03280
758.60361	0.03286
757.31784	0.03293
756.03207	0.03301
754.74630	0.03305
753.46053	0.03302
752.17476	0.03291
750.88899	0.03281
749.60323	0.03276
748.31746	0.03275
747.03169	0.03277
745.74592	0.03282
744.46015	0.03288
743.17438	0.03293
741.88861	0.03292
740.60284	0.03288
739.31708	0.03292
738.03131	0.03311
736.74554	0.03345
735.45977	0.03386
734.17400	0.03427
732.88823	0.03465
731.60246	0.03508
730.31669	0.03559
729.03092	0.03613
727.74516	0.03659
726.45939	0.03690
725.17362	0.03700
723.88785	0.03690
722.60208	0.03696
721.31631	0.03712
720.03054	0.03728
718.74477	0.03736
717.45901	0.03728
716.17324	0.03710
714.88747	0.03688
713.60170	0.03663
712.31593	0.03634
711.03016	0.03606
709.74439	0.03582
708.45862	0.03563
707.17285	0.03549
705.88709	0.03539
704.60132	0.03532
703.31555	0.03529
702.02978	0.03528
700.74401	0.03525
699.45824	0.03522
698.17247	0.03521
696.88670	0.03529
695.60094	0.03545
694.31517	0.03564
693.02940	0.03580
691.74363	0.03589
690.45786	0.03591
689.17209	0.03589
687.88632	0.03582
686.60055	0.03573
685.31478	0.03565
684.02902	0.03560
682.74325	0.03563
681.45748	0.03571
680.17171	0.03578
678.88594	0.03579
677.60017	0.03575
676.31440	0.03569
675.02863	0.03571
673.74287	0.03600
672.45710	0.03678
671.17133	0.03783
669.88556	0.03815
668.59979	0.03732
667.31402	0.03734
666.02825	0.03810
664.74248	0.03781
663.45671	0.03697
662.17095	0.03643
660.88518	0.03628
659.59941	0.03633
658.31364	0.03641
657.02787	0.03646
655.74210	0.03650
654.45633	0.03655
653.17056	0.03658
651.88480	0.03662
650.59903	0.03669
649.31326	0.03680
648.02749	0.03701
646.74172	0.03728
645.45595	0.03756
644.17018	0.03785
642.88441	0.03814
641.59864	0.03844
640.31288	0.03874
639.02711	0.03905
637.74134	0.03938
636.45557	0.03972
635.16980	0.04008
633.88403	0.04044
632.59826	0.04086
631.31249	0.04143
630.02673	0.04225
628.74096	0.04313
627.45519	0.04378
626.16942	0.04522
624.88365	0.04700
623.59788	0.04875
622.31211	0.05100
621.02634	0.05431
619.74057	0.05811
618.45481	0.06127
617.16904	0.06379
615.88327	0.06681
614.59750	0.07115
613.31173	0.07629
612.02596	0.08113
610.74019	0.08542
609.45442	0.09018
608.16866	0.09634
606.88289	0.10367
605.59712	0.11118
604.31135	0.11780
603.02558	0.12263
601.73981	0.12504
600.45404	0.12478
599.16827	0.12205
597.88250	0.11749
596.59674	0.11199
595.31097	0.10646
594.02520	0.10163
592.73943	0.09790
591.45366	0.09532
590.16789	0.09378
588.88212	0.09322
587.59635	0.09363
586.31059	0.09497
585.02482	0.09708
583.73905	0.09979
582.45328	0.10298
581.16751	0.10661
579.88174	0.11061
578.59597	0.11489
577.31020	0.11932
576.02443	0.12372
574.73867	0.12795
573.45290	0.13201
572.16713	0.13603
570.88136	0.14042
569.59559	0.14561
568.30982	0.15176
567.02405	0.15852
565.73828	0.16502
564.45251	0.17027
563.16675	0.17344
561.88098	0.17396
560.59521	0.17141
559.30944	0.16564
558.02367	0.15701
556.73790	0.14644
555.45213	0.13502
554.16636	0.12364
552.88060	0.11297
551.59483	0.10340
550.30906	0.09509
549.02329	0.08800
547.73752	0.08197
546.45175	0.07682
545.16598	0.07240
543.88021	0.06857
542.59444	0.06525
541.30868	0.06237
540.02291	0.05991
538.73714	0.05780
537.45137	0.05597
536.16560	0.05432
534.87983	0.05282
533.59406	0.05144
532.30829	0.05012
531.02253	0.04883
529.73676	0.04756
528.45099	0.04635
527.16522	0.04524
525.87945	0.04424
524.59368	0.04335
523.30791	0.04255
522.02214	0.04176
520.73637	0.04095
519.45061	0.04016
518.16484	0.03943
516.87907	0.03880
515.59330	0.03825
514.30753	0.03777
513.02176	0.03737
511.73599	0.03706
510.45022	0.03682
509.16446	0.03662
507.87869	0.03645
506.59292	0.03629
505.30715	0.03607
504.02138	0.03575
502.73561	0.03534
501.44984	0.03493
500.16407	0.03464
498.87830	0.03450
497.59254	0.03444
496.30677	0.03438
495.02100	0.03428
493.73523	0.03420
492.44946	0.03418
491.16369	0.03421
489.87792	0.03422
488.59215	0.03420
487.30639	0.03419
486.02062	0.03425
484.73485	0.03437
483.44908	0.03451
482.16331	0.03468
480.87754	0.03496
479.59177	0.03542
478.30600	0.03604
477.02023	0.03674
475.73447	0.03743
474.44870	0.03805
473.16293	0.03854
471.87716	0.03888
470.59139	0.03905
469.30562	0.03909
468.01985	0.03908
466.73408	0.03902
465.44832	0.03889
464.16255	0.03868
462.87678	0.03841
461.59101	0.03814
460.30524	0.03789
459.01947	0.03770
457.73370	0.03756
456.44793	0.03748
455.16216	0.03741
453.87640	0.03731
452.59063	0.03716
451.30486	0.03693
450.01909	0.03661
448.73332	0.03617
447.44755	0.03567
446.16178	0.03516
444.87601	0.03468
443.59025	0.03428
442.30448	0.03395
441.01871	0.03367
439.73294	0.03340
438.44717	0.03312
437.16140	0.03281
435.87563	0.03247
434.58986	0.03215
433.30409	0.03194
432.01833	0.03190
430.73256	0.03201
429.44679	0.03213
428.16102	0.03213
426.87525	0.03201
425.58948	0.03183
424.30371	0.03168
423.01794	0.03158
421.73218	0.03151
420.44641	0.03144
419.16064	0.03140
417.87487	0.03140
416.58910	0.03143
415.30333	0.03146
414.01756	0.03149
412.73179	0.03151
411.44602	0.03157
410.16026	0.03169
408.87449	0.03186
407.58872	0.03209
406.30295	0.03236
405.01718	0.03265
403.73141	0.03297
402.44564	0.03332
401.15987	0.03373
399.87411	0.03417
