3997.45528	-0.00723
3996.16951	-0.00698
3994.88374	-0.00712
3993.59798	-0.00767
3992.31221	-0.00817
3991.02644	-0.00814
3989.74067	-0.00759
3988.45490	-0.00701
3987.16913	-0.00689
3985.88336	-0.00730
3984.59759	-0.00781
3983.31183	-0.00800
3982.02606	-0.00773
3980.74029	-0.00718
3979.45452	-0.00657
3978.16875	-0.00591
3976.88298	-0.00509
3975.59721	-0.00411
3974.31144	-0.00310
3973.02567	-0.00220
3971.73991	-0.00147
3970.45414	-0.00108
3969.16837	-0.00127
3967.88260	-0.00212
3966.59683	-0.00338
3965.31106	-0.00460
3964.02529	-0.00544
3962.73952	-0.00573
3961.45376	-0.00544
3960.16799	-0.00473
3958.88222	-0.00392
3957.59645	-0.00329
3956.31068	-0.00290
3955.02491	-0.00261
3953.73914	-0.00219
3952.45337	-0.00157
3951.16760	-0.00082
3949.88184	-0.00019
3948.59607	0.00007
3947.31030	-0.00020
3946.02453	-0.00087
3944.73876	-0.00154
3943.45299	-0.00176
3942.16722	-0.00147
3940.88145	-0.00101
3939.59569	-0.00074
3938.30992	-0.00067
3937.02415	-0.00061
3935.73838	-0.00050
3934.45261	-0.00046
3933.16684	-0.00061
3931.88107	-0.00094
3930.59530	-0.00134
3929.30953	-0.00161
3928.02377	-0.00154
3926.73800	-0.00110
3925.45223	-0.00043
3924.16646	0.00020
3922.88069	0.00052
3921.59492	0.00037
3920.30915	-0.00014
3919.02338	-0.00069
3917.73762	-0.00096
3916.45185	-0.00084
3915.16608	-0.00048
3913.88031	-0.00022
3912.59454	-0.00017
3911.30877	-0.00016
3910.02300	-0.00003
3908.73723	0.00017
3907.45146	0.00023
3906.16570	0.00000
3904.87993	-0.00032
3903.59416	-0.00050
3902.30839	-0.00059
3901.02262	-0.00086
3899.73685	-0.00126
3898.45108	-0.00137
3897.16531	-0.00091
3895.87955	-0.00003
3894.59378	0.00085
3893.30801	0.00141
3892.02224	0.00162
3890.73647	0.00169
3889.45070	0.00156
3888.16493	0.00100
3886.87916	0.00028
3885.59339	0.00019
3884.30763	0.00088
3883.02186	0.00162
3881.73609	0.00178
3880.45032	0.00150
3879.16455	0.00110
3877.87878	0.00059
3876.59301	0.00005
3875.30724	-0.00010
3874.02148	0.00040
3872.73571	0.00123
3871.44994	0.00191
3870.16417	0.00252
3868.87840	0.00328
3867.59263	0.00389
3866.30686	0.00394
3865.02109	0.00362
3863.73532	0.00323
3862.44956	0.00288
3861.16379	0.00274
3859.87802	0.00312
3858.59225	0.00401
3857.30648	0.00482
3856.02071	0.00495
3854.73494	0.00456
3853.44917	0.00442
3852.16341	0.00480
3850.87764	0.00521
3849.59187	0.00535
3848.30610	0.00537
3847.02033	0.00531
3845.73456	0.00502
3844.44879	0.00454
3843.16302	0.00412
3841.87725	0.00385
3840.59149	0.00355
3839.30572	0.00326
3838.01995	0.00339
3836.73418	0.00408
3835.44841	0.00485
3834.16264	0.00508
3832.87687	0.00472
3831.59110	0.00418
3830.30534	0.00375
3829.01957	0.00349
3827.73380	0.00338
3826.44803	0.00347
3825.16226	0.00369
3823.87649	0.00374
3822.59072	0.00367
3821.30495	0.00398
3820.01918	0.00483
3818.73342	0.00557
3817.44765	0.00575
3816.16188	0.00588
3814.87611	0.00632
3813.59034	0.00638
3812.30457	0.00534
3811.01880	0.00354
3809.73303	0.00181
3808.44726	0.00088
3807.16150	0.00121
3805.87573	0.00265
3804.58996	0.00410
3803.30419	0.00452
3802.01842	0.00420
3800.73265	0.00414
3799.44688	0.00451
3798.16111	0.00472
3796.87535	0.00453
3795.58958	0.00428
3794.30381	0.00419
3793.01804	0.00427
3791.73227	0.00445
3790.44650	0.00459
3789.16073	0.00450
3787.87496	0.00419
3786.58919	0.00387
3785.30343	0.00379
3784.01766	0.00405
3782.73189	0.00453
3781.44612	0.00506
3780.16035	0.00561
3778.87458	0.00608
3777.58881	0.00617
3776.30304	0.00577
3775.01728	0.00525
3773.73151	0.00511
3772.44574	0.00528
3771.15997	0.00532
3769.87420	0.00500
3768.58843	0.00447
3767.30266	0.00406
3766.01689	0.00412
3764.73112	0.00471
3763.44536	0.00543
3762.15959	0.00574
3760.87382	0.00566
3759.58805	0.00560
3758.30228	0.00577
3757.01651	0.00601
3755.73074	0.00597
3754.44497	0.00549
3753.15921	0.00489
3751.87344	0.00474
3750.58767	0.00535
3749.30190	0.00652
3748.01613	0.00762
3746.73036	0.00784
3745.44459	0.00716
3744.15882	0.00654
3742.87305	0.00633
3741.58729	0.00583
3740.30152	0.00467
3739.01575	0.00330
3737.72998	0.00233
3736.44421	0.00216
3735.15844	0.00281
3733.87267	0.00367
3732.58690	0.00408
3731.30114	0.00383
3730.01537	0.00304
3728.72960	0.00193
3727.44383	0.00100
3726.15806	0.00071
3724.87229	0.00095
3723.58652	0.00119
3722.30075	0.00111
3721.01498	0.00078
3719.72922	0.00059
3718.44345	0.00094
3717.15768	0.00192
3715.87191	0.00311
3714.58614	0.00389
3713.30037	0.00403
3712.01460	0.00376
3710.72883	0.00343
3709.44307	0.00318
3708.15730	0.00294
3706.87153	0.00254
3705.58576	0.00188
3704.29999	0.00112
3703.01422	0.00072
3701.72845	0.00095
3700.44268	0.00164
3699.15691	0.00231
3697.87115	0.00271
3696.58538	0.00304
3695.29961	0.00350
3694.01384	0.00408
3692.72807	0.00469
3691.44230	0.00523
3690.15653	0.00553
3688.87076	0.00563
3687.58500	0.00572
3686.29923	0.00574
3685.01346	0.00540
3683.72769	0.00481
3682.44192	0.00447
3681.15615	0.00480
3679.87038	0.00570
3678.58461	0.00652
3677.29884	0.00680
3676.01308	0.00692
3674.72731	0.00738
3673.44154	0.00768
3672.15577	0.00701
3670.87000	0.00584
3669.58423	0.00538
3668.29846	0.00594
3667.01269	0.00684
3665.72693	0.00744
3664.44116	0.00758
3663.15539	0.00730
3661.86962	0.00680
3660.58385	0.00639
3659.29808	0.00635
3658.01231	0.00688
3656.72654	0.00804
3655.44077	0.00957
3654.15501	0.01079
3652.86924	0.01114
3651.58347	0.01079
3650.29770	0.01040
3649.01193	0.01035
3647.72616	0.01049
3646.44039	0.01049
3645.15462	0.01021
3643.86886	0.00979
3642.58309	0.00950
3641.29732	0.00955
3640.01155	0.00987
3638.72578	0.01027
3637.44001	0.01058
3636.15424	0.01070
3634.86847	0.01072
3633.58270	0.01088
3632.29694	0.01125
3631.01117	0.01173
3629.72540	0.01234
3628.43963	0.01313
3627.15386	0.01377
3625.86809	0.01392
3624.58232	0.01379
3623.29655	0.01383
3622.01079	0.01406
3620.72502	0.01420
3619.43925	0.01423
3618.15348	0.01420
3616.86771	0.01405
3615.58194	0.01390
3614.29617	0.01415
3613.01040	0.01499
3611.72463	0.01595
3610.43887	0.01634
3609.15310	0.01602
3607.86733	0.01556
3606.58156	0.01549
3605.29579	0.01591
3604.01002	0.01672
3602.72425	0.01778
3601.43848	0.01892
3600.15272	0.01977
3598.86695	0.01986
3597.58118	0.01911
3596.29541	0.01801
3595.00964	0.01731
3593.72387	0.01740
3592.43810	0.01804
3591.15233	0.01880
3589.86656	0.01949
3588.58080	0.02031
3587.29503	0.02137
3586.00926	0.02238
3584.72349	0.02296
3583.43772	0.02305
3582.15195	0.02291
3580.86618	0.02281
3579.58041	0.02284
3578.29464	0.02308
3577.00888	0.02354
3575.72311	0.02416
3574.43734	0.02477
3573.15157	0.02524
3571.86580	0.02560
3570.58003	0.02594
3569.29426	0.02628
3568.00849	0.02647
3566.72273	0.02638
3565.43696	0.02610
3564.15119	0.02598
3562.86542	0.02636
3561.57965	0.02719
3560.29388	0.02804
3559.00811	0.02861
3557.72234	0.02896
3556.43657	0.02936
3555.15081	0.02982
3553.86504	0.03012
3552.57927	0.03010
3551.29350	0.02989
3550.00773	0.02975
3548.72196	0.02979
3547.43619	0.02989
3546.15042	0.02986
3544.86466	0.02957
3543.57889	0.02910
3542.29312	0.02871
3541.00735	0.02867
3539.72158	0.02906
3538.43581	0.02978
3537.15004	0.03067
3535.86427	0.03162
3534.57850	0.03250
3533.29274	0.03308
3532.00697	0.03323
3530.72120	0.03311
3529.43543	0.03313
3528.14966	0.03360
3526.86389	0.03446
3525.57812	0.03537
3524.29235	0.03602
3523.00659	0.03628
3521.72082	0.03618
3520.43505	0.03575
3519.14928	0.03508
3517.86351	0.03439
3516.57774	0.03398
3515.29197	0.03406
3514.00620	0.03469
3512.72043	0.03569
3511.43467	0.03667
3510.14890	0.03724
3508.86313	0.03724
3507.57736	0.03688
3506.29159	0.03664
3505.00582	0.03689
3503.72005	0.03767
3502.43428	0.03871
3501.14852	0.03972
3499.86275	0.04051
3498.57698	0.04091
3497.29121	0.04083
3496.00544	0.04045
3494.71967	0.04019
3493.43390	0.04029
3492.14813	0.04055
3490.86236	0.04055
3489.57660	0.04020
3488.29083	0.03982
3487.00506	0.03982
3485.71929	0.04024
3484.43352	0.04083
3483.14775	0.04133
3481.86198	0.04169
3480.57621	0.04195
3479.29045	0.04218
3478.00468	0.04241
3476.71891	0.04264
3475.43314	0.04280
3474.14737	0.04284
3472.86160	0.04288
3471.57583	0.04316
3470.29006	0.04380
3469.00429	0.04465
3467.71853	0.04528
3466.43276	0.04537
3465.14699	0.04495
3463.86122	0.04435
3462.57545	0.04388
3461.28968	0.04369
3460.00391	0.04375
3458.71814	0.04408
3457.43238	0.04465
3456.14661	0.04532
3454.86084	0.04587
3453.57507	0.04619
3452.28930	0.04634
3451.00353	0.04648
3449.71776	0.04666
3448.43199	0.04676
3447.14622	0.04664
3445.86046	0.04635
3444.57469	0.04613
3443.28892	0.04625
3442.00315	0.04671
3440.71738	0.04719
3439.43161	0.04737
3438.14584	0.04720
3436.86007	0.04689
3435.57431	0.04670
3434.28854	0.04673
3433.00277	0.04698
3431.71700	0.04739
3430.43123	0.04788
3429.14546	0.04840
3427.85969	0.04890
3426.57392	0.04931
3425.28815	0.04953
3424.00239	0.04952
3422.71662	0.04932
3421.43085	0.04910
3420.14508	0.04906
3418.85931	0.04925
3417.57354	0.04954
3416.28777	0.04968
3415.00200	0.04964
3413.71624	0.04961
3412.43047	0.04985
3411.14470	0.05031
3409.85893	0.05073
3408.57316	0.05089
3407.28739	0.05087
3406.00162	0.05092
3404.71585	0.05109
3403.43008	0.05124
3402.14432	0.05122
3400.85855	0.05104
3399.57278	0.05082
3398.28701	0.05069
3397.00124	0.05062
3395.71547	0.05061
3394.42970	0.05079
3393.14393	0.05120
3391.85817	0.05167
3390.57240	0.05192
3389.28663	0.05194
3388.00086	0.05200
3386.71509	0.05232
3385.42932	0.05276
3384.14355	0.05302
3382.85778	0.05294
3381.57201	0.05266
3380.28625	0.05238
3379.00048	0.05220
3377.71471	0.05211
3376.42894	0.05212
3375.14317	0.05227
3373.85740	0.05252
3372.57163	0.05274
3371.28586	0.05285
3370.00010	0.05289
3368.71433	0.05298
3367.42856	0.05312
3366.14279	0.05324
3364.85702	0.05327
3363.57125	0.05319
3362.28548	0.05303
3360.99971	0.05283
3359.71394	0.05267
3358.42818	0.05261
3357.14241	0.05269
3355.85664	0.05287
3354.57087	0.05314
3353.28510	0.05348
3351.99933	0.05381
3350.71356	0.05401
3349.42779	0.05396
3348.14202	0.05375
3346.85626	0.05355
3345.57049	0.05350
3344.28472	0.05356
3342.99895	0.05369
3341.71318	0.05388
3340.42741	0.05407
3339.14164	0.05409
3337.85587	0.05383
3336.57011	0.05346
3335.28434	0.05325
3333.99857	0.05335
3332.71280	0.05364
3331.42703	0.05386
3330.14126	0.05383
3328.85549	0.05357
3327.56972	0.05334
3326.28395	0.05336
3324.99819	0.05370
3323.71242	0.05422
3322.42665	0.05474
3321.14088	0.05518
3319.85511	0.05550
3318.56934	0.05559
3317.28357	0.05537
3315.99780	0.05496
3314.71204	0.05462
3313.42627	0.05462
3312.14050	0.05496
3310.85473	0.05542
3309.56896	0.05568
3308.28319	0.05557
3306.99742	0.05511
3305.71165	0.05451
3304.42588	0.05397
3303.14012	0.05352
3301.85435	0.05316
3300.56858	0.05297
3299.28281	0.05304
3297.99704	0.05326
3296.71127	0.05342
3295.42550	0.05341
3294.13973	0.05337
3292.85397	0.05344
3291.56820	0.05361
3290.28243	0.05378
3288.99666	0.05384
3287.71089	0.05376
3286.42512	0.05359
3285.13935	0.05348
3283.85358	0.05354
3282.56781	0.05366
3281.28205	0.05367
3279.99628	0.05351
3278.71051	0.05332
3277.42474	0.05330
3276.13897	0.05350
3274.85320	0.05381
3273.56743	0.05405
3272.28166	0.05416
3270.99590	0.05421
3269.71013	0.05425
3268.42436	0.05415
3267.13859	0.05385
3265.85282	0.05357
3264.56705	0.05357
3263.28128	0.05379
3261.99551	0.05395
3260.70974	0.05388
3259.42398	0.05374
3258.13821	0.05381
3256.85244	0.05410
3255.56667	0.05431
3254.28090	0.05414
3252.99513	0.05361
3251.70936	0.05302
3250.42359	0.05273
3249.13783	0.05279
3247.85206	0.05298
3246.56629	0.05300
3245.28052	0.05279
3243.99475	0.05261
3242.70898	0.05268
3241.42321	0.05294
3240.13744	0.05307
3238.85167	0.05293
3237.56591	0.05269
3236.28014	0.05264
3234.99437	0.05289
3233.70860	0.05330
3232.42283	0.05361
3231.13706	0.05370
3229.85129	0.05362
3228.56552	0.05352
3227.27976	0.05350
3225.99399	0.05351
3224.70822	0.05343
3223.42245	0.05317
3222.13668	0.05278
3220.85091	0.05235
3219.56514	0.05200
3218.27937	0.05180
3216.99360	0.05178
3215.70784	0.05189
3214.42207	0.05199
3213.13630	0.05201
3211.85053	0.05197
3210.56476	0.05190
3209.27899	0.05178
3207.99322	0.05156
3206.70745	0.05128
3205.42169	0.05108
3204.13592	0.05107
3202.85015	0.05122
3201.56438	0.05145
3200.27861	0.05168
3198.99284	0.05188
3197.70707	0.05201
3196.42130	0.05208
3195.13553	0.05210
3193.84977	0.05210
3192.56400	0.05208
3191.27823	0.05200
3189.99246	0.05185
3188.70669	0.05160
3187.42092	0.05132
3186.13515	0.05104
3184.84938	0.05083
3183.56362	0.05079
3182.27785	0.05104
3180.99208	0.05155
3179.70631	0.05207
3178.42054	0.05228
3177.13477	0.05213
3175.84900	0.05182
3174.56323	0.05158
3173.27746	0.05144
3171.99170	0.05129
3170.70593	0.05099
3169.42016	0.05061
3168.13439	0.05037
3166.84862	0.05053
3165.56285	0.05108
3164.27708	0.05170
3162.99131	0.05195
3161.70555	0.05167
3160.41978	0.05112
3159.13401	0.05072
3157.84824	0.05062
3156.56247	0.05064
3155.27670	0.05049
3153.99093	0.05008
3152.70516	0.04957
3151.41939	0.04919
3150.13363	0.04907
3148.84786	0.04919
3147.56209	0.04945
3146.27632	0.04972
3144.99055	0.04994
3143.70478	0.05012
3142.41901	0.05026
3141.13324	0.05027
3139.84748	0.05014
3138.56171	0.04993
3137.27594	0.04974
3135.99017	0.04958
3134.70440	0.04939
3133.41863	0.04909
3132.13286	0.04869
3130.84709	0.04823
3129.56132	0.04783
3128.27556	0.04758
3126.98979	0.04753
3125.70402	0.04766
3124.41825	0.04796
3123.13248	0.04838
3121.84671	0.04878
3120.56094	0.04894
3119.27517	0.04871
3117.98940	0.04818
3116.70364	0.04766
3115.41787	0.04742
3114.13210	0.04746
3112.84633	0.04754
3111.56056	0.04752
3110.27479	0.04750
3108.98902	0.04762
3107.70325	0.04784
3106.41749	0.04799
3105.13172	0.04794
3103.84595	0.04778
3102.56018	0.04766
3101.27441	0.04766
3099.98864	0.04772
3098.70287	0.04774
3097.41710	0.04769
3096.13133	0.04758
3094.84557	0.04746
3093.55980	0.04738
3092.27403	0.04736
3090.98826	0.04748
3089.70249	0.04776
3088.41672	0.04812
3087.13095	0.04835
3085.84518	0.04835
3084.55942	0.04817
3083.27365	0.04796
3081.98788	0.04777
3080.70211	0.04751
3079.41634	0.04715
3078.13057	0.04676
3076.84480	0.04646
3075.55903	0.04626
3074.27326	0.04608
3072.98750	0.04589
3071.70173	0.04569
3070.41596	0.04553
3069.13019	0.04550
3067.84442	0.04569
3066.55865	0.04609
3065.27288	0.04652
3063.98711	0.04673
3062.70135	0.04660
3061.41558	0.04624
3060.12981	0.04586
3058.84404	0.04562
3057.55827	0.04555
3056.27250	0.04554
3054.98673	0.04547
3053.70096	0.04524
3052.41519	0.04494
3051.12943	0.04472
3049.84366	0.04468
3048.55789	0.04480
3047.27212	0.04494
3045.98635	0.04495
3044.70058	0.04476
3043.41481	0.04439
3042.12904	0.04398
3040.84328	0.04374
3039.55751	0.04378
3038.27174	0.04401
3036.98597	0.04427
3035.70020	0.04448
3034.41443	0.04466
3033.12866	0.04484
3031.84289	0.04499
3030.55712	0.04504
3029.27136	0.04498
3027.98559	0.04482
3026.69982	0.04459
3025.41405	0.04437
3024.12828	0.04418
3022.84251	0.04402
3021.55674	0.04393
3020.27097	0.04396
3018.98521	0.04406
3017.69944	0.04411
3016.41367	0.04398
3015.12790	0.04372
3013.84213	0.04343
3012.55636	0.04319
3011.27059	0.04304
3009.98482	0.04303
3008.69905	0.04318
3007.41329	0.04342
3006.12752	0.04362
3004.84175	0.04366
3003.55598	0.04355
3002.27021	0.04332
3000.98444	0.04301
2999.69867	0.04267
2998.41290	0.04251
2997.12714	0.04268
2995.84137	0.04310
2994.55560	0.04349
2993.26983	0.04360
2991.98406	0.04342
2990.69829	0.04316
2989.41252	0.04294
2988.12675	0.04282
2986.84098	0.04284
2985.55522	0.04308
2984.26945	0.04345
2982.98368	0.04380
2981.69791	0.04407
2980.41214	0.04437
2979.12637	0.04479
2977.84060	0.04536
2976.55483	0.04607
2975.26907	0.04693
2973.98330	0.04784
2972.69753	0.04861
2971.41176	0.04913
2970.12599	0.04947
2968.84022	0.04983
2967.55445	0.05042
2966.26868	0.05132
2964.98291	0.05248
2963.69715	0.05374
2962.41138	0.05500
2961.12561	0.05615
2959.83984	0.05708
2958.55407	0.05768
2957.26830	0.05794
2955.98253	0.05800
2954.69676	0.05795
2953.41100	0.05785
2952.12523	0.05773
2950.83946	0.05767
2949.55369	0.05774
2948.26792	0.05801
2946.98215	0.05838
2945.69638	0.05869
2944.41061	0.05881
2943.12484	0.05869
2941.83908	0.05849
2940.55331	0.05840
2939.26754	0.05858
2937.98177	0.05911
2936.69600	0.05991
2935.41023	0.06079
2934.12446	0.06155
2932.83869	0.06213
2931.55293	0.06259
2930.26716	0.06304
2928.98139	0.06350
2927.69562	0.06401
2926.40985	0.06463
2925.12408	0.06532
2923.83831	0.06591
2922.55254	0.06620
2921.26677	0.06616
2919.98101	0.06591
2918.69524	0.06550
2917.40947	0.06490
2916.12370	0.06407
2914.83793	0.06305
2913.55216	0.06196
2912.26639	0.06101
2910.98062	0.06039
2909.69486	0.06010
2908.40909	0.05991
2907.12332	0.05956
2905.83755	0.05898
2904.55178	0.05832
2903.26601	0.05768
2901.98024	0.05704
2900.69447	0.05629
2899.40870	0.05543
2898.12294	0.05460
2896.83717	0.05401
2895.55140	0.05369
2894.26563	0.05343
2892.97986	0.05296
2891.69409	0.05218
2890.40832	0.05130
2889.12255	0.05064
2887.83678	0.05036
2886.55102	0.05036
2885.26525	0.05037
2883.97948	0.05017
2882.69371	0.04979
2881.40794	0.04947
2880.12217	0.04945
2878.83640	0.04981
2877.55063	0.05037
2876.26487	0.05088
2874.97910	0.05115
2873.69333	0.05123
2872.40756	0.05129
2871.12179	0.05147
2869.83602	0.05176
2868.55025	0.05202
2867.26448	0.05211
2865.97871	0.05202
2864.69295	0.05190
2863.40718	0.05191
2862.12141	0.05214
2860.83564	0.05252
2859.54987	0.05297
2858.26410	0.05342
2856.97833	0.05371
2855.69256	0.05362
2854.40680	0.05310
2853.12103	0.05237
2851.83526	0.05171
2850.54949	0.05120
2849.26372	0.05070
2847.97795	0.05006
2846.69218	0.04934
2845.40641	0.04863
2844.12064	0.04793
2842.83488	0.04719
2841.54911	0.04641
2840.26334	0.04569
2838.97757	0.04515
2837.69180	0.04475
2836.40603	0.04435
2835.12026	0.04386
2833.83449	0.04326
2832.54873	0.04261
2831.26296	0.04200
2829.97719	0.04149
2828.69142	0.04111
2827.40565	0.04081
2826.11988	0.04049
2824.83411	0.04008
2823.54834	0.03965
2822.26257	0.03937
2820.97681	0.03932
2819.69104	0.03940
2818.40527	0.03944
2817.11950	0.03935
2815.83373	0.03918
2814.54796	0.03903
2813.26219	0.03896
2811.97642	0.03889
2810.69066	0.03873
2809.40489	0.03849
2808.11912	0.03826
2806.83335	0.03812
2805.54758	0.03806
2804.26181	0.03803
2802.97604	0.03792
2801.69027	0.03771
2800.40450	0.03748
2799.11874	0.03737
2797.83297	0.03741
2796.54720	0.03748
2795.26143	0.03746
2793.97566	0.03731
2792.68989	0.03708
2791.40412	0.03690
2790.11835	0.03687
2788.83259	0.03695
2787.54682	0.03701
2786.26105	0.03692
2784.97528	0.03667
2783.68951	0.03636
2782.40374	0.03612
2781.11797	0.03601
2779.83220	0.03601
2778.54643	0.03607
2777.26067	0.03609
2775.97490	0.03603
2774.68913	0.03592
2773.40336	0.03583
2772.11759	0.03577
2770.83182	0.03568
2769.54605	0.03549
2768.26028	0.03527
2766.97452	0.03516
2765.68875	0.03527
2764.40298	0.03552
2763.11721	0.03571
2761.83144	0.03566
2760.54567	0.03539
2759.25990	0.03508
2757.97413	0.03496
2756.68836	0.03504
2755.40260	0.03520
2754.11683	0.03525
2752.83106	0.03515
2751.54529	0.03499
2750.25952	0.03489
2748.97375	0.03490
2747.68798	0.03497
2746.40221	0.03504
2745.11645	0.03506
2743.83068	0.03501
2742.54491	0.03490
2741.25914	0.03473
2739.97337	0.03450
2738.68760	0.03430
2737.40183	0.03421
2736.11606	0.03424
2734.83029	0.03434
2733.54453	0.03442
2732.25876	0.03434
2730.97299	0.03405
2729.68722	0.03370
2728.40145	0.03352
2727.11568	0.03362
2725.82991	0.03386
2724.54414	0.03395
2723.25838	0.03379
2721.97261	0.03353
2720.68684	0.03344
2719.40107	0.03360
2718.11530	0.03386
2716.82953	0.03398
2715.54376	0.03393
2714.25799	0.03378
2712.97222	0.03358
2711.68646	0.03335
2710.40069	0.03312
2709.11492	0.03297
2707.82915	0.03297
2706.54338	0.03308
2705.25761	0.03322
2703.97184	0.03325
2702.68607	0.03311
2701.40031	0.03290
2700.11454	0.03276
2698.82877	0.03275
2697.54300	0.03275
2696.25723	0.03270
2694.97146	0.03260
2693.68569	0.03253
2692.39992	0.03252
2691.11415	0.03252
2689.82839	0.03250
2688.54262	0.03246
2687.25685	0.03244
2685.97108	0.03247
2684.68531	0.03252
2683.39954	0.03254
2682.11377	0.03253
2680.82800	0.03248
2679.54224	0.03235
2678.25647	0.03211
2676.97070	0.03184
2675.68493	0.03168
2674.39916	0.03168
2673.11339	0.03178
2671.82762	0.03188
2670.54185	0.03193
2669.25608	0.03196
2667.97032	0.03195
2666.68455	0.03190
2665.39878	0.03180
2664.11301	0.03168
2662.82724	0.03158
2661.54147	0.03157
2660.25570	0.03168
2658.96993	0.03190
2657.68417	0.03205
2656.39840	0.03200
2655.11263	0.03179
2653.82686	0.03151
2652.54109	0.03128
2651.25532	0.03113
2649.96955	0.03112
2648.68378	0.03123
2647.39801	0.03133
2646.11225	0.03126
2644.82648	0.03097
2643.54071	0.03059
2642.25494	0.03032
2640.96917	0.03023
2639.68340	0.03023
2638.39763	0.03012
2637.11186	0.02980
2635.82609	0.02932
2634.54033	0.02883
2633.25456	0.02849
2631.96879	0.02836
2630.68302	0.02843
2629.39725	0.02862
2628.11148	0.02878
2626.82571	0.02880
2625.53994	0.02864
2624.25418	0.02832
2622.96841	0.02786
2621.68264	0.02733
2620.39687	0.02690
2619.11110	0.02676
2617.82533	0.02690
2616.53956	0.02712
2615.25379	0.02725
2613.96802	0.02725
2612.68226	0.02715
2611.39649	0.02697
2610.11072	0.02674
2608.82495	0.02649
2607.53918	0.02626
2606.25341	0.02603
2604.96764	0.02584
2603.68187	0.02567
2602.39611	0.02547
2601.11034	0.02519
2599.82457	0.02486
2598.53880	0.02463
2597.25303	0.02469
2595.96726	0.02500
2594.68149	0.02531
2593.39572	0.02544
2592.10995	0.02548
2590.82419	0.02559
2589.53842	0.02573
2588.25265	0.02571
2586.96688	0.02549
2585.68111	0.02526
2584.39534	0.02517
2583.10957	0.02519
2581.82380	0.02512
2580.53804	0.02488
2579.25227	0.02457
2577.96650	0.02434
2576.68073	0.02425
2575.39496	0.02426
2574.10919	0.02428
2572.82342	0.02425
2571.53765	0.02406
2570.25188	0.02365
2568.96612	0.02320
2567.68035	0.02306
2566.39458	0.02340
2565.10881	0.02397
2563.82304	0.02438
2562.53727	0.02450
2561.25150	0.02448
2559.96573	0.02446
2558.67997	0.02438
2557.39420	0.02417
2556.10843	0.02394
2554.82266	0.02391
2553.53689	0.02416
2552.25112	0.02454
2550.96535	0.02481
2549.67958	0.02477
2548.39381	0.02440
2547.10805	0.02379
2545.82228	0.02313
2544.53651	0.02264
2543.25074	0.02240
2541.96497	0.02233
2540.67920	0.02226
2539.39343	0.02213
2538.10766	0.02200
2536.82190	0.02194
2535.53613	0.02192
2534.25036	0.02187
2532.96459	0.02183
2531.67882	0.02188
2530.39305	0.02208
2529.10728	0.02234
2527.82151	0.02256
2526.53574	0.02267
2525.24998	0.02264
2523.96421	0.02248
2522.67844	0.02228
2521.39267	0.02209
2520.10690	0.02185
2518.82113	0.02153
2517.53536	0.02127
2516.24959	0.02129
2514.96383	0.02154
2513.67806	0.02178
2512.39229	0.02186
2511.10652	0.02188
2509.82075	0.02197
2508.53498	0.02211
2507.24921	0.02215
2505.96344	0.02208
2504.67767	0.02205
2503.39191	0.02217
2502.10614	0.02237
2500.82037	0.02243
2499.53460	0.02229
2498.24883	0.02213
2496.96306	0.02211
2495.67729	0.02217
2494.39152	0.02221
2493.10576	0.02222
2491.81999	0.02219
2490.53422	0.02208
2489.24845	0.02202
2487.96268	0.02218
2486.67691	0.02258
2485.39114	0.02295
2484.10537	0.02295
2482.81960	0.02257
2481.53384	0.02214
2480.24807	0.02200
2478.96230	0.02219
2477.67653	0.02246
2476.39076	0.02245
2475.10499	0.02205
2473.81922	0.02151
2472.53345	0.02122
2471.24769	0.02131
2469.96192	0.02159
2468.67615	0.02174
2467.39038	0.02174
2466.10461	0.02184
2464.81884	0.02216
2463.53307	0.02250
2462.24730	0.02252
2460.96153	0.02216
2459.67577	0.02168
2458.39000	0.02142
2457.10423	0.02154
2455.81846	0.02189
2454.53269	0.02223
2453.24692	0.02240
2451.96115	0.02243
2450.67538	0.02240
2449.38962	0.02231
2448.10385	0.02214
2446.81808	0.02191
2445.53231	0.02171
2444.24654	0.02163
2442.96077	0.02161
2441.67500	0.02158
2440.38923	0.02149
2439.10346	0.02143
2437.81770	0.02144
2436.53193	0.02141
2435.24616	0.02125
2433.96039	0.02102
2432.67462	0.02083
2431.38885	0.02069
2430.10308	0.02047
2428.81731	0.02018
2427.53155	0.01998
2426.24578	0.01999
2424.96001	0.02015
2423.67424	0.02034
2422.38847	0.02053
2421.10270	0.02070
2419.81693	0.02085
2418.53116	0.02097
2417.24539	0.02105
2415.95963	0.02106
2414.67386	0.02086
2413.38809	0.02048
2412.10232	0.02012
2410.81655	0.02012
2409.53078	0.02061
2408.24501	0.02132
2406.95924	0.02179
2405.67347	0.02176
2404.38771	0.02139
2403.10194	0.02104
2401.81617	0.02096
2400.53040	0.02113
2399.24463	0.02202
2397.95886	0.02254
2396.67309	0.02242
2395.38732	0.02196
2394.10156	0.02136
2392.81579	0.02072
2391.53002	0.02012
2390.24425	0.01966
2388.95848	0.01940
2387.67271	0.01936
2386.38694	0.01945
2385.10117	0.01950
2383.81540	0.01935
2382.52964	0.01897
2381.24387	0.01845
2379.95810	0.01795
2378.67233	0.01757
2377.38656	0.01735
2376.10079	0.01727
2374.81502	0.01726
2373.52925	0.01711
2372.24349	0.01666
2370.95772	0.01583
2369.67195	0.01478
2368.38618	0.01375
2367.10041	0.01289
2365.81464	0.01210
2364.52887	0.01127
2363.24310	0.01046
2361.95733	0.00998
2360.67157	0.01017
2359.38580	0.01102
2358.10003	0.01215
2356.81426	0.01296
2355.52849	0.01317
2354.24272	0.01303
2352.95695	0.01281
2351.67118	0.01251
2350.38542	0.01217
2349.09965	0.01189
2347.81388	0.01195
2346.52811	0.01242
2345.24234	0.01300
2343.95657	0.01358
2342.67080	0.01436
2341.38503	0.01536
2340.09926	0.01612
2338.81350	0.01621
2337.52773	0.01559
2336.24196	0.01468
2334.95619	0.01413
2333.67042	0.01436
2332.38465	0.01519
2331.09888	0.01611
2329.81311	0.01674
2328.52735	0.01701
2327.24158	0.01709
2325.95581	0.01716
2324.67004	0.01731
2323.38427	0.01757
2322.09850	0.01780
2320.81273	0.01784
2319.52696	0.01759
2318.24119	0.01722
2316.95543	0.01700
2315.66966	0.01711
2314.38389	0.01749
2313.09812	0.01791
2311.81235	0.01821
2310.52658	0.01848
2309.24081	0.01880
2307.95504	0.01916
2306.66928	0.01939
2305.38351	0.01940
2304.09774	0.01922
2302.81197	0.01897
2301.52620	0.01869
2300.24043	0.01841
2298.95466	0.01817
2297.66889	0.01804
2296.38312	0.01797
2295.09736	0.01789
2293.81159	0.01776
2292.52582	0.01765
2291.24005	0.01764
2289.95428	0.01779
2288.66851	0.01804
2287.38274	0.01830
2286.09697	0.01849
2284.81121	0.01865
2283.52544	0.01881
2282.23967	0.01888
2280.95390	0.01873
2279.66813	0.01836
2278.38236	0.01799
2277.09659	0.01787
2275.81082	0.01799
2274.52505	0.01815
2273.23929	0.01813
2271.95352	0.01797
2270.66775	0.01780
2269.38198	0.01769
2268.09621	0.01751
2266.81044	0.01715
2265.52467	0.01663
2264.23890	0.01616
2262.95314	0.01590
2261.66737	0.01585
2260.38160	0.01583
2259.09583	0.01560
2257.81006	0.01516
2256.52429	0.01471
2255.23852	0.01446
2253.95275	0.01445
2252.66698	0.01447
2251.38122	0.01435
2250.09545	0.01417
2248.80968	0.01400
2247.52391	0.01332
2246.23814	0.01265
2244.95237	0.01241
2243.66660	0.01283
2242.38083	0.01366
2241.09507	0.01435
2239.80930	0.01452
2238.52353	0.01430
2237.23776	0.01401
2235.95199	0.01381
2234.66622	0.01357
2233.38045	0.01316
2232.09468	0.01264
2230.80891	0.01222
2229.52315	0.01201
2228.23738	0.01191
2226.95161	0.01182
2225.66584	0.01173
2224.38007	0.01165
2223.09430	0.01142
2221.80853	0.01086
2220.52276	0.01003
2219.23700	0.00927
2217.95123	0.00899
2216.66546	0.00937
2215.37969	0.01016
2214.09392	0.01081
2212.80815	0.01088
2211.52238	0.01048
2210.23661	0.01012
2208.95084	0.01001
2207.66508	0.00993
2206.37931	0.00959
2205.09354	0.00902
2203.80777	0.00840
2202.52200	0.00775
2201.23623	0.00709
2199.95046	0.00658
2198.66469	0.00643
2197.37893	0.00675
2196.09316	0.00750
2194.80739	0.00851
2193.52162	0.00936
2192.23585	0.00962
2190.95008	0.00917
2189.66431	0.00822
2188.37854	0.00725
2187.09277	0.00670
2185.80701	0.00673
2184.52124	0.00702
2183.23547	0.00711
2181.94970	0.00691
2180.66393	0.00663
2179.37816	0.00640
2178.09239	0.00613
2176.80662	0.00579
2175.52085	0.00551
2174.23509	0.00552
2172.94932	0.00592
2171.66355	0.00649
2170.37778	0.00673
2169.09201	0.00625
2167.80624	0.00516
2166.52047	0.00413
2165.23470	0.00390
2163.94894	0.00456
2162.66317	0.00526
2161.37740	0.00484
2160.09163	0.00311
2158.80586	0.00109
2157.52009	-0.00015
2156.23432	-0.00051
2154.94855	-0.00028
2153.66278	0.00058
2152.37702	0.00219
2151.09125	0.00413
2149.80548	0.00579
2148.51971	0.00695
2147.23394	0.00779
2145.94817	0.00841
2144.66240	0.00861
2143.37663	0.00825
2142.09087	0.00775
2140.80510	0.00776
2139.51933	0.00843
2138.23356	0.00918
2136.94779	0.00938
2135.66202	0.00901
2134.37625	0.00850
2133.09048	0.00814
2131.80471	0.00790
2130.51895	0.00767
2129.23318	0.00745
2127.94741	0.00732
2126.66164	0.00736
2125.37587	0.00759
2124.09010	0.00795
2122.80433	0.00835
2121.51856	0.00875
2120.23280	0.00918
2118.94703	0.00958
2117.66126	0.00984
2116.37549	0.00999
2115.08972	0.01021
2113.80395	0.01055
2112.51818	0.01072
2111.23241	0.01052
2109.94664	0.01008
2108.66088	0.00981
2107.37511	0.00989
2106.08934	0.01012
2104.80357	0.01027
2103.51780	0.01027
2102.23203	0.01021
2100.94626	0.01016
2099.66049	0.01051
2098.37473	0.01036
2097.08896	0.00985
2095.80319	0.00956
2094.51742	0.00976
2093.23165	0.01029
2091.94588	0.01070
2090.66011	0.01063
2089.37434	0.01019
2088.08857	0.00980
2086.80281	0.00981
2085.51704	0.01012
2084.23127	0.01033
2082.94550	0.01025
2081.65973	0.01001
2080.37396	0.00986
2079.08819	0.00982
2077.80242	0.00967
2076.51666	0.00923
2075.23089	0.00849
2073.94512	0.00769
2072.65935	0.00715
2071.37358	0.00707
2070.08781	0.00737
2068.80204	0.00784
2067.51627	0.00827
2066.23050	0.00853
2064.94474	0.00858
2063.65897	0.00846
2062.37320	0.00826
2061.08743	0.00808
2059.80166	0.00792
2058.51589	0.00768
2057.23012	0.00723
2055.94435	0.00659
2054.65859	0.00593
2053.37282	0.00552
2052.08705	0.00544
2050.80128	0.00553
2049.51551	0.00548
2048.22974	0.00513
2046.94397	0.00453
2045.65820	0.00380
2044.37243	0.00310
2043.08667	0.00266
2041.80090	0.00277
2040.51513	0.00349
2039.22936	0.00446
2037.94359	0.00508
2036.65782	0.00508
2035.37205	0.00464
2034.08628	0.00401
2032.80052	0.00312
2031.51475	0.00186
2030.22898	0.00046
2028.94321	-0.00055
2027.65744	-0.00085
2026.37167	-0.00045
2025.08590	0.00040
2023.80013	0.00146
2022.51436	0.00252
2021.22860	0.00340
2019.94283	0.00400
2018.65706	0.00422
2017.37129	0.00411
2016.08552	0.00382
2014.79975	0.00359
2013.51398	0.00364
2012.22821	0.00404
2010.94245	0.00455
2009.65668	0.00472
2008.37091	0.00436
2007.08514	0.00379
2005.79937	0.00357
2004.51360	0.00402
2003.22783	0.00491
2001.94206	0.00583
2000.65629	0.00652
1999.37053	0.00700
1998.08476	0.00735
1996.79899	0.00759
1995.51322	0.00761
1994.22745	0.00745
1992.94168	0.00722
1991.65591	0.00704
1990.37014	0.00694
1989.08438	0.00696
1987.79861	0.00710
1986.51284	0.00731
1985.22707	0.00753
1983.94130	0.00779
1982.65553	0.00813
1981.36976	0.00849
1980.08399	0.00875
1978.79822	0.00885
1977.51246	0.00873
1976.22669	0.00843
1974.94092	0.00809
1973.65515	0.00791
1972.36938	0.00801
1971.08361	0.00832
1969.79784	0.00859
1968.51207	0.00854
1967.22631	0.00811
1965.94054	0.00754
1964.65477	0.00704
1963.36900	0.00668
1962.08323	0.00656
1960.79746	0.00691
1959.51169	0.00771
1958.22592	0.00848
1956.94015	0.00872
1955.65439	0.00847
1954.36862	0.00823
1953.08285	0.00835
1951.79708	0.00873
1950.51131	0.00904
1949.22554	0.00908
1947.93977	0.00888
1946.65400	0.00872
1945.36823	0.00888
1944.08247	0.00943
1942.79670	0.01016
1941.51093	0.01075
1940.22516	0.01097
1938.93939	0.01085
1937.65362	0.01063
1936.36785	0.01057
1935.08208	0.01074
1933.79632	0.01103
1932.51055	0.01117
1931.22478	0.01100
1929.93901	0.01053
1928.65324	0.00996
1927.36747	0.00946
1926.08170	0.00912
1924.79593	0.00898
1923.51016	0.00912
1922.22440	0.00957
1920.93863	0.01020
1919.65286	0.01072
1918.36709	0.01101
1917.08132	0.01113
1915.79555	0.01120
1914.50978	0.01132
1913.22401	0.01155
1911.93825	0.01175
1910.65248	0.01174
1909.36671	0.01147
1908.08094	0.01113
1906.79517	0.01096
1905.50940	0.01103
1904.22363	0.01131
1902.93786	0.01172
1901.65209	0.01219
1900.36633	0.01258
1899.08056	0.01278
1897.79479	0.01273
1896.50902	0.01249
1895.22325	0.01220
1893.93748	0.01205
1892.65171	0.01213
1891.36594	0.01241
1890.08018	0.01269
1888.79441	0.01284
1887.50864	0.01288
1886.22287	0.01290
1884.93710	0.01300
1883.65133	0.01314
1882.36556	0.01323
1881.07979	0.01317
1879.79402	0.01298
1878.50826	0.01275
1877.22249	0.01262
1875.93672	0.01267
1874.65095	0.01284
1873.36518	0.01304
1872.07941	0.01320
1870.79364	0.01328
1869.50787	0.01327
1868.22211	0.01318
1866.93634	0.01303
1865.65057	0.01289
1864.36480	0.01285
1863.07903	0.01293
1861.79326	0.01300
1860.50749	0.01300
1859.22172	0.01295
1857.93595	0.01299
1856.65019	0.01316
1855.36442	0.01334
1854.07865	0.01338
1852.79288	0.01320
1851.50711	0.01290
1850.22134	0.01265
1848.93557	0.01265
1847.64980	0.01290
1846.36404	0.01318
1845.07827	0.01329
1843.79250	0.01325
1842.50673	0.01318
1841.22096	0.01313
1839.93519	0.01315
1838.64942	0.01326
1837.36365	0.01340
1836.07788	0.01348
1834.79212	0.01350
1833.50635	0.01353
1832.22058	0.01357
1830.93481	0.01360
1829.64904	0.01362
1828.36327	0.01362
1827.07750	0.01353
1825.79173	0.01336
1824.50597	0.01326
1823.22020	0.01332
1821.93443	0.01352
1820.64866	0.01367
1819.36289	0.01360
1818.07712	0.01330
1816.79135	0.01297
1815.50558	0.01283
1814.21981	0.01293
1812.93405	0.01311
1811.64828	0.01323
1810.36251	0.01325
1809.07674	0.01320
1807.79097	0.01316
1806.50520	0.01316
1805.21943	0.01325
1803.93366	0.01337
1802.64790	0.01349
1801.36213	0.01356
1800.07636	0.01358
1798.79059	0.01358
1797.50482	0.01368
1796.21905	0.01395
1794.93328	0.01430
1793.64751	0.01457
1792.36174	0.01469
1791.07598	0.01467
1789.79021	0.01452
1788.50444	0.01428
1787.21867	0.01404
1785.93290	0.01390
1784.64713	0.01390
1783.36136	0.01401
1782.07559	0.01413
1780.78983	0.01423
1779.50406	0.01434
1778.21829	0.01448
1776.93252	0.01470
1775.64675	0.01497
1774.36098	0.01515
1773.07521	0.01524
1771.78944	0.01527
1770.50367	0.01523
1769.21791	0.01508
1767.93214	0.01492
1766.64637	0.01490
1765.36060	0.01498
1764.07483	0.01506
1762.78906	0.01513
1761.50329	0.01524
1760.21752	0.01534
1758.93176	0.01533
1757.64599	0.01523
1756.36022	0.01525
1755.07445	0.01544
1753.78868	0.01562
1752.50291	0.01566
1751.21714	0.01562
1749.93137	0.01558
1748.64560	0.01552
1747.35984	0.01542
1746.07407	0.01534
1744.78830	0.01533
1743.50253	0.01538
1742.21676	0.01545
1740.93099	0.01551
1739.64522	0.01565
1738.35945	0.01595
1737.07369	0.01626
1735.78792	0.01641
1734.50215	0.01648
1733.21638	0.01659
1731.93061	0.01666
1730.64484	0.01654
1729.35907	0.01632
1728.07330	0.01622
1726.78753	0.01625
1725.50177	0.01632
1724.21600	0.01641
1722.93023	0.01662
1721.64446	0.01702
1720.35869	0.01750
1719.07292	0.01793
1717.78715	0.01830
1716.50138	0.01862
1715.21561	0.01882
1713.92985	0.01888
1712.64408	0.01890
1711.35831	0.01902
1710.07254	0.01930
1708.78677	0.01966
1707.50100	0.01997
1706.21523	0.02025
1704.92946	0.02068
1703.64370	0.02125
1702.35793	0.02171
1701.07216	0.02204
1699.78639	0.02247
1698.50062	0.02289
1697.21485	0.02297
1695.92908	0.02278
1694.64331	0.02272
1693.35754	0.02281
1692.07178	0.02287
1690.78601	0.02297
1689.50024	0.02332
1688.21447	0.02389
1686.92870	0.02438
1685.64293	0.02466
1684.35716	0.02488
1683.07139	0.02513
1681.78563	0.02524
1680.49986	0.02518
1679.21409	0.02518
1677.92832	0.02539
1676.64255	0.02574
1675.35678	0.02620
1674.07101	0.02677
1672.78524	0.02730
1671.49947	0.02761
1670.21371	0.02776
1668.92794	0.02790
1667.64217	0.02810
1666.35640	0.02830
1665.07063	0.02843
1663.78486	0.02851
1662.49909	0.02862
1661.21332	0.02876
1659.92756	0.02893
1658.64179	0.02923
1657.35602	0.02976
1656.07025	0.03038
1654.78448	0.03078
1653.49871	0.03100
1652.21294	0.03125
1650.92717	0.03150
1649.64140	0.03146
1648.35564	0.03113
1647.06987	0.03081
1645.78410	0.03064
1644.49833	0.03051
1643.21256	0.03033
1641.92679	0.03016
1640.64102	0.03018
1639.35525	0.03039
1638.06949	0.03060
1636.78372	0.03067
1635.49795	0.03067
1634.21218	0.03069
1632.92641	0.03066
1631.64064	0.03056
1630.35487	0.03046
1629.06910	0.03047
1627.78333	0.03055
1626.49757	0.03063
1625.21180	0.03063
1623.92603	0.03059
1622.64026	0.03063
1621.35449	0.03078
1620.06872	0.03092
1618.78295	0.03092
1617.49718	0.03082
1616.21142	0.03075
1614.92565	0.03071
1613.63988	0.03057
1612.35411	0.03039
1611.06834	0.03032
1609.78257	0.03044
1608.49680	0.03065
1607.21103	0.03083
1605.92526	0.03094
1604.63950	0.03098
1603.35373	0.03096
1602.06796	0.03091
1600.78219	0.03088
1599.49642	0.03089
1598.21065	0.03095
1596.92488	0.03103
1595.63911	0.03109
1594.35335	0.03113
1593.06758	0.03115
1591.78181	0.03117
1590.49604	0.03120
1589.21027	0.03128
1587.92450	0.03141
1586.63873	0.03160
1585.35296	0.03180
1584.06719	0.03200
1582.78143	0.03220
1581.49566	0.03243
1580.20989	0.03273
1578.92412	0.03301
1577.63835	0.03316
1576.35258	0.03328
1575.06681	0.03350
1573.78104	0.03374
1572.49528	0.03384
1571.20951	0.03385
1569.92374	0.03394
1568.63797	0.03414
1567.35220	0.03428
1566.06643	0.03430
1564.78066	0.03441
1563.49489	0.03484
1562.20912	0.03547
1560.92336	0.03604
1559.63759	0.03647
1558.35182	0.03682
1557.06605	0.03699
1555.78028	0.03682
1554.49451	0.03648
1553.20874	0.03627
1551.92297	0.03623
1550.63721	0.03628
1549.35144	0.03639
1548.06567	0.03657
1546.77990	0.03678
1545.49413	0.03707
1544.20836	0.03747
1542.92259	0.03790
1541.63682	0.03813
1540.35105	0.03807
1539.06529	0.03788
1537.77952	0.03769
1536.49375	0.03746
1535.20798	0.03719
1533.92221	0.03703
1532.63644	0.03711
1531.35067	0.03736
1530.06490	0.03763
1528.77914	0.03795
1527.49337	0.03840
1526.20760	0.03905
1524.92183	0.03984
1523.63606	0.04060
1522.35029	0.04127
1521.06452	0.04194
1519.77875	0.04265
1518.49298	0.04331
1517.20722	0.04391
1515.92145	0.04461
1514.63568	0.04544
1513.34991	0.04639
1512.06414	0.04752
1510.77837	0.04888
1509.49260	0.05035
1508.20683	0.05172
1506.92107	0.05293
1505.63530	0.05401
1504.34953	0.05491
1503.06376	0.05559
1501.77799	0.05621
1500.49222	0.05696
1499.20645	0.05782
1497.92068	0.05864
1496.63491	0.05934
1495.34915	0.06002
1494.06338	0.06070
1492.77761	0.06134
1491.49184	0.06198
1490.20607	0.06268
1488.92030	0.06343
1487.63453	0.06417
1486.34876	0.06495
1485.06299	0.06586
1483.77723	0.06693
1482.49146	0.06813
1481.20569	0.06940
1479.91992	0.07070
1478.63415	0.07199
1477.34838	0.07326
1476.06261	0.07451
1474.77684	0.07569
1473.49108	0.07676
1472.20531	0.07772
1470.91954	0.07853
1469.63377	0.07915
1468.34800	0.07955
1467.06223	0.07980
1465.77646	0.08003
1464.49069	0.08033
1463.20492	0.08077
1461.91916	0.08140
1460.63339	0.08216
1459.34762	0.08294
1458.06185	0.08364
1456.77608	0.08426
1455.49031	0.08478
1454.20454	0.08508
1452.91877	0.08513
1451.63301	0.08507
1450.34724	0.08502
1449.06147	0.08492
1447.77570	0.08466
1446.48993	0.08420
1445.20416	0.08354
1443.91839	0.08276
1442.63262	0.08200
1441.34685	0.08139
1440.06109	0.08091
1438.77532	0.08045
1437.48955	0.07998
1436.20378	0.07965
1434.91801	0.07954
1433.63224	0.07967
1432.34647	0.08006
1431.06070	0.08077
1429.77494	0.08177
1428.48917	0.08295
1427.20340	0.08422
1425.91763	0.08555
1424.63186	0.08698
1423.34609	0.08853
1422.06032	0.09006
1420.77455	0.09142
1419.48878	0.09257
1418.20302	0.09354
1416.91725	0.09424
1415.63148	0.09464
1414.34571	0.09482
1413.05994	0.09486
1411.77417	0.09476
1410.48840	0.09448
1409.20263	0.09397
1407.91687	0.09319
1406.63110	0.09214
1405.34533	0.09086
1404.05956	0.08942
1402.77379	0.08788
1401.48802	0.08619
1400.20225	0.08440
1398.91648	0.08257
1397.63071	0.08072
1396.34495	0.07880
1395.05918	0.07678
1393.77341	0.07472
1392.48764	0.07268
1391.20187	0.07067
1389.91610	0.06872
1388.63033	0.06685
1387.34456	0.06511
1386.05880	0.06346
1384.77303	0.06184
1383.48726	0.06023
1382.20149	0.05867
1380.91572	0.05717
1379.62995	0.05570
1378.34418	0.05421
1377.05841	0.05264
1375.77264	0.05093
1374.48688	0.04907
1373.20111	0.04716
1371.91534	0.04528
1370.62957	0.04349
1369.34380	0.04186
1368.05803	0.04043
1366.77226	0.03918
1365.48649	0.03802
1364.20073	0.03687
1362.91496	0.03572
1361.62919	0.03462
1360.34342	0.03358
1359.05765	0.03261
1357.77188	0.03171
1356.48611	0.03088
1355.20034	0.03012
1353.91457	0.02944
1352.62881	0.02881
1351.34304	0.02824
1350.05727	0.02770
1348.77150	0.02719
1347.48573	0.02671
1346.19996	0.02626
1344.91419	0.02587
1343.62842	0.02553
1342.34266	0.02520
1341.05689	0.02487
1339.77112	0.02456
1338.48535	0.02429
1337.19958	0.02405
1335.91381	0.02379
1334.62804	0.02352
1333.34227	0.02323
1332.05650	0.02297
1330.77074	0.02273
1329.48497	0.02250
1328.19920	0.02228
1326.91343	0.02208
1325.62766	0.02190
1324.34189	0.02171
1323.05612	0.02153
1321.77035	0.02135
1320.48459	0.02119
1319.19882	0.02102
1317.91305	0.02082
1316.62728	0.02059
1315.34151	0.02040
1314.05574	0.02026
1312.76997	0.02016
1311.48420	0.02009
1310.19843	0.02002
1308.91267	0.01993
1307.62690	0.01983
1306.34113	0.01970
1305.05536	0.01953
1303.76959	0.01935
1302.48382	0.01918
1301.19805	0.01905
1299.91228	0.01893
1298.62652	0.01880
1297.34075	0.01869
1296.05498	0.01858
1294.76921	0.01848
1293.48344	0.01837
1292.19767	0.01826
1290.91190	0.01814
1289.62613	0.01804
1288.34036	0.01800
1287.05460	0.01801
1285.76883	0.01804
1284.48306	0.01803
1283.19729	0.01797
1281.91152	0.01787
1280.62575	0.01775
1279.33998	0.01762
1278.05421	0.01748
1276.76845	0.01735
1275.48268	0.01722
1274.19691	0.01710
1272.91114	0.01699
1271.62537	0.01692
1270.33960	0.01689
1269.05383	0.01688
1267.76806	0.01685
1266.48229	0.01681
1265.19653	0.01674
1263.91076	0.01664
1262.62499	0.01654
1261.33922	0.01645
1260.05345	0.01637
1258.76768	0.01630
1257.48191	0.01623
1256.19614	0.01616
1254.91037	0.01609
1253.62461	0.01605
1252.33884	0.01603
1251.05307	0.01602
1249.76730	0.01601
1248.48153	0.01598
1247.19576	0.01591
1245.90999	0.01582
1244.62422	0.01573
1243.33846	0.01568
1242.05269	0.01567
1240.76692	0.01566
1239.48115	0.01560
1238.19538	0.01549
1236.90961	0.01537
1235.62384	0.01529
1234.33807	0.01525
1233.05230	0.01522
1231.76654	0.01517
1230.48077	0.01511
1229.19500	0.01506
1227.90923	0.01505
1226.62346	0.01506
1225.33769	0.01507
1224.05192	0.01505
1222.76615	0.01499
1221.48039	0.01488
1220.19462	0.01477
1218.90885	0.01468
1217.62308	0.01461
1216.33731	0.01457
1215.05154	0.01456
1213.76577	0.01457
1212.48000	0.01460
1211.19423	0.01465
1209.90847	0.01471
1208.62270	0.01476
1207.33693	0.01481
1206.05116	0.01481
1204.76539	0.01479
1203.47962	0.01474
1202.19385	0.01469
1200.90808	0.01463
1199.62232	0.01455
1198.33655	0.01460
1197.05078	0.01466
1195.76501	0.01471
1194.47924	0.01476
1193.19347	0.01480
1191.90770	0.01479
1190.62193	0.01471
1189.33616	0.01461
1188.05040	0.01459
1186.76463	0.01468
1185.47886	0.01484
1184.19309	0.01500
1182.90732	0.01513
1181.62155	0.01523
1180.33578	0.01530
1179.05001	0.01535
1177.76425	0.01538
1176.47848	0.01543
1175.19271	0.01548
1173.90694	0.01554
1172.62117	0.01563
1171.33540	0.01575
1170.04963	0.01591
1168.76386	0.01612
1167.47809	0.01640
1166.19233	0.01675
1164.90656	0.01711
1163.62079	0.01739
1162.33502	0.01757
1161.04925	0.01769
1159.76348	0.01784
1158.47771	0.01806
1157.19194	0.01834
1155.90618	0.01862
1154.62041	0.01886
1153.33464	0.01913
1152.04887	0.01948
1150.76310	0.01994
1149.47733	0.02048
1148.19156	0.02109
1146.90579	0.02178
1145.62002	0.02254
1144.33426	0.02332
1143.04849	0.02411
1141.76272	0.02491
1140.47695	0.02578
1139.19118	0.02677
1137.90541	0.02793
1136.61964	0.02926
1135.33387	0.03072
1134.04811	0.03230
1132.76234	0.03400
1131.47657	0.03590
1130.19080	0.03803
1128.90503	0.04038
1127.61926	0.04293
1126.33349	0.04570
1125.04772	0.04872
1123.76195	0.05196
1122.47619	0.05537
1121.19042	0.05892
1119.90465	0.06258
1118.61888	0.06631
1117.33311	0.07004
1116.04734	0.07375
1114.76157	0.07746
1113.47580	0.08116
1112.19004	0.08482
1110.90427	0.08837
1109.61850	0.09177
1108.33273	0.09502
1107.04696	0.09818
1105.76119	0.10131
1104.47542	0.10439
1103.18965	0.10737
1101.90388	0.11023
1100.61812	0.11297
1099.33235	0.11563
1098.04658	0.11825
1096.76081	0.12086
1095.47504	0.12343
1094.18927	0.12585
1092.90350	0.12805
1091.61773	0.13007
1090.33197	0.13202
1089.04620	0.13396
1087.76043	0.13590
1086.47466	0.13781
1085.18889	0.13971
1083.90312	0.14158
1082.61735	0.14347
1081.33158	0.14545
1080.04581	0.14764
1078.76005	0.15005
1077.47428	0.15269
1076.18851	0.15550
1074.90274	0.15853
1073.61697	0.16176
1072.33120	0.16515
1071.04543	0.16859
1069.75966	0.17200
1068.47390	0.17539
1067.18813	0.17886
1065.90236	0.18247
1064.61659	0.18625
1063.33082	0.19013
1062.04505	0.19402
1060.75928	0.19788
1059.47351	0.20172
1058.18774	0.20554
1056.90198	0.20930
1055.61621	0.21302
1054.33044	0.21672
1053.04467	0.22045
1051.75890	0.22421
1050.47313	0.22800
1049.18736	0.23184
1047.90159	0.23580
1046.61583	0.23988
1045.33006	0.24405
1044.04429	0.24824
1042.75852	0.25242
1041.47275	0.25663
1040.18698	0.26094
1038.90121	0.26541
1037.61544	0.26999
1036.32967	0.27459
1035.04391	0.27909
1033.75814	0.28340
1032.47237	0.28745
1031.18660	0.29117
1029.90083	0.29449
1028.61506	0.29736
1027.32929	0.29971
1026.04352	0.30156
1024.75775	0.30298
1023.47199	0.30404
1022.18622	0.30472
1020.90045	0.30491
1019.61468	0.30450
1018.32891	0.30344
1017.04314	0.30172
1015.75737	0.29929
1014.47160	0.29617
1013.18584	0.29241
1011.90007	0.28804
1010.61430	0.28306
1009.32853	0.27742
1008.04276	0.27112
1006.75699	0.26423
1005.47122	0.25687
1004.18545	0.24915
1002.89968	0.24111
1001.61392	0.23278
1000.32815	0.22424
999.04238	0.21559
997.75661	0.20690
996.47084	0.19821
995.18507	0.18957
993.89930	0.18106
992.61353	0.17279
991.32777	0.16484
990.04200	0.15724
988.75623	0.14999
987.47046	0.14315
986.18469	0.13674
984.89892	0.13071
983.61315	0.12499
982.32738	0.11957
981.04161	0.11451
979.75585	0.10988
978.47008	0.10568
977.18431	0.10191
975.89854	0.09860
974.61277	0.09577
973.32700	0.09348
972.04123	0.09178
970.75546	0.09065
969.46970	0.09012
968.18393	0.09024
966.89816	0.09099
965.61239	0.09225
964.32662	0.09373
963.04085	0.09511
961.75508	0.09606
960.46931	0.09632
959.18354	0.09572
957.89778	0.09418
956.61201	0.09182
955.32624	0.08890
954.04047	0.08575
952.75470	0.08265
951.46893	0.07973
950.18316	0.07701
948.89739	0.07445
947.61163	0.07203
946.32586	0.06971
945.04009	0.06747
943.75432	0.06524
942.46855	0.06301
941.18278	0.06084
939.89701	0.05883
938.61124	0.05705
937.32547	0.05551
936.03971	0.05415
934.75394	0.05291
933.46817	0.05173
932.18240	0.05059
930.89663	0.04951
929.61086	0.04847
928.32509	0.04751
927.03932	0.04663
925.75356	0.04585
924.46779	0.04515
923.18202	0.04451
921.89625	0.04392
920.61048	0.04339
919.32471	0.04292
918.03894	0.04246
916.75317	0.04194
915.46740	0.04138
914.18164	0.04088
912.89587	0.04049
911.61010	0.04015
910.32433	0.03977
909.03856	0.03932
907.75279	0.03886
906.46702	0.03845
905.18125	0.03809
903.89549	0.03777
902.60972	0.03747
901.32395	0.03719
900.03818	0.03697
898.75241	0.03683
897.46664	0.03673
896.18087	0.03663
894.89510	0.03652
893.60933	0.03643
892.32357	0.03642
891.03780	0.03659
889.75203	0.03697
888.46626	0.03755
887.18049	0.03835
885.89472	0.03948
884.60895	0.04117
883.32318	0.04358
882.03742	0.04655
880.75165	0.04954
879.46588	0.05195
878.18011	0.05357
876.89434	0.05479
875.60857	0.05612
874.32280	0.05764
873.03703	0.05890
871.75126	0.05935
870.46550	0.05883
869.17973	0.05752
867.89396	0.05564
866.60819	0.05330
865.32242	0.05067
864.03665	0.04804
862.75088	0.04570
861.46511	0.04376
860.17935	0.04218
858.89358	0.04088
857.60781	0.03981
856.32204	0.03892
855.03627	0.03813
853.75050	0.03739
852.46473	0.03669
851.17896	0.03608
849.89319	0.03561
848.60743	0.03526
847.32166	0.03498
846.03589	0.03471
844.75012	0.03442
843.46435	0.03414
842.17858	0.03385
840.89281	0.03357
839.60704	0.03328
838.32128	0.03301
837.03551	0.03277
835.74974	0.03254
834.46397	0.03232
833.17820	0.03214
831.89243	0.03205
830.60666	0.03207
829.32089	0.03214
828.03512	0.03215
826.74936	0.03203
825.46359	0.03180
824.17782	0.03157
822.89205	0.03144
821.60628	0.03144
820.32051	0.03153
819.03474	0.03159
817.74897	0.03156
816.46321	0.03141
815.17744	0.03122
813.89167	0.03106
812.60590	0.03094
811.32013	0.03084
810.03436	0.03074
808.74859	0.03064
807.46282	0.03057
806.17705	0.03057
804.89129	0.03060
803.60552	0.03063
802.31975	0.03064
801.03398	0.03061
799.74821	0.03057
798.46244	0.03048
797.17667	0.03036
795.89090	0.03024
794.60513	0.03018
793.31937	0.03017
792.03360	0.03016
790.74783	0.03011
789.46206	0.03000
788.17629	0.02987
786.89052	0.02979
785.60475	0.02979
784.31898	0.02982
783.03322	0.02983
781.74745	0.02979
780.46168	0.02969
779.17591	0.02954
777.89014	0.02940
776.60437	0.02933
775.31860	0.02935
774.03283	0.02942
772.74706	0.02950
771.46130	0.02957
770.17553	0.02961
768.88976	0.02963
767.60399	0.02962
766.31822	0.02960
765.03245	0.02960
763.74668	0.02965
762.46091	0.02973
761.17515	0.02981
759.88938	0.02988
758.60361	0.02993
757.31784	0.02997
756.03207	0.03004
754.74630	0.03012
753.46053	0.03017
752.17476	0.03017
750.88899	0.03014
749.60323	0.03013
748.31746	0.03016
747.03169	0.03019
745.74592	0.03017
744.46015	0.03005
743.17438	0.02985
741.88861	0.02964
740.60284	0.02955
739.31708	0.02963
738.03131	0.02983
736.74554	0.02999
735.45977	0.03001
734.17400	0.02989
732.88823	0.02970
731.60246	0.02956
730.31669	0.02953
729.03092	0.02960
727.74516	0.02973
726.45939	0.02990
725.17362	0.03004
723.88785	0.03002
722.60208	0.03016
721.31631	0.03043
720.03054	0.03066
718.74477	0.03074
717.45901	0.03068
716.17324	0.03053
714.88747	0.03033
713.60170	0.03013
712.31593	0.02994
711.03016	0.02976
709.74439	0.02959
708.45862	0.02942
707.17285	0.02929
705.88709	0.02920
704.60132	0.02915
703.31555	0.02913
702.02978	0.02913
700.74401	0.02916
699.45824	0.02921
698.17247	0.02925
696.88670	0.02927
695.60094	0.02928
694.31517	0.02929
693.02940	0.02929
691.74363	0.02926
690.45786	0.02921
689.17209	0.02914
687.88632	0.02905
686.60055	0.02894
685.31478	0.02882
684.02902	0.02870
682.74325	0.02860
681.45748	0.02855
680.17171	0.02853
678.88594	0.02852
677.60017	0.02850
676.31440	0.02847
675.02863	0.02848
673.74287	0.02863
672.45710	0.02905
671.17133	0.02975
669.88556	0.03045
668.59979	0.03072
667.31402	0.03054
666.02825	0.03025
664.74248	0.02982
663.45671	0.02930
662.17095	0.02888
660.88518	0.02861
659.59941	0.02848
658.31364	0.02844
657.02787	0.02848
655.74210	0.02859
654.45633	0.02874
653.17056	0.02890
651.88480	0.02903
650.59903	0.02911
649.31326	0.02914
648.02749	0.02914
646.74172	0.02916
645.45595	0.02922
644.17018	0.02934
642.88441	0.02955
641.59864	0.02985
640.31288	0.03023
639.02711	0.03064
637.74134	0.03107
636.45557	0.03148
635.16980	0.03185
633.88403	0.03221
632.59826	0.03265
631.31249	0.03339
630.02673	0.03459
628.74096	0.03576
627.45519	0.03615
626.16942	0.03785
624.88365	0.04006
623.59788	0.04189
622.31211	0.04366
621.02634	0.04600
619.74057	0.04874
618.45481	0.05123
617.16904	0.05337
615.88327	0.05562
614.59750	0.05861
613.31173	0.06279
612.02596	0.06830
610.74019	0.07465
609.45442	0.08103
608.16866	0.08709
606.88289	0.09310
605.59712	0.09900
604.31135	0.10405
603.02558	0.10739
601.73981	0.10867
600.45404	0.10796
599.16827	0.10554
597.88250	0.10193
596.59674	0.09784
595.31097	0.09394
594.02520	0.09060
592.73943	0.08786
591.45366	0.08569
590.16789	0.08412
588.88212	0.08334
587.59635	0.08348
586.31059	0.08449
585.02482	0.08621
583.73905	0.08848
582.45328	0.09119
581.16751	0.09423
579.88174	0.09747
578.59597	0.10080
577.31020	0.10413
576.02443	0.10738
574.73867	0.11048
573.45290	0.11341
572.16713	0.11626
570.88136	0.11931
569.59559	0.12287
568.30982	0.12714
567.02405	0.13196
565.73828	0.13680
564.45251	0.14098
563.16675	0.14380
561.88098	0.14482
560.59521	0.14376
559.30944	0.14058
558.02367	0.13547
556.73790	0.12889
555.45213	0.12139
554.16636	0.11349
552.88060	0.10567
551.59483	0.09839
550.30906	0.09195
549.02329	0.08643
547.73752	0.08169
546.45175	0.07751
545.16598	0.07365
543.88021	0.06990
542.59444	0.06625
541.30868	0.06282
540.02291	0.05979
538.73714	0.05722
537.45137	0.05499
536.16560	0.05299
534.87983	0.05118
533.59406	0.04956
532.30829	0.04809
531.02253	0.04668
529.73676	0.04528
528.45099	0.04389
527.16522	0.04256
525.87945	0.04132
524.59368	0.04022
523.30791	0.03918
522.02214	0.03817
520.73637	0.03717
519.45061	0.03627
518.16484	0.03549
516.87907	0.03482
515.59330	0.03420
514.30753	0.03362
513.02176	0.03310
511.73599	0.03263
510.45022	0.03216
509.16446	0.03171
507.87869	0.03129
506.59292	0.03089
505.30715	0.03046
504.02138	0.02994
502.73561	0.02935
501.44984	0.02878
500.16407	0.02832
498.87830	0.02799
497.59254	0.02772
496.30677	0.02744
495.02100	0.02711
493.73523	0.02682
492.44946	0.02662
491.16369	0.02653
489.87792	0.02644
488.59215	0.02627
487.30639	0.02607
486.02062	0.02594
484.73485	0.02593
483.44908	0.02602
482.16331	0.02615
480.87754	0.02629
479.59177	0.02646
478.30600	0.02667
477.02023	0.02693
475.73447	0.02725
474.44870	0.02759
473.16293	0.02785
471.87716	0.02798
470.59139	0.02799
469.30562	0.02792
468.01985	0.02781
466.73408	0.02767
465.44832	0.02745
464.16255	0.02712
462.87678	0.02671
461.59101	0.02629
460.30524	0.02595
459.01947	0.02572
457.73370	0.02557
456.44793	0.02541
455.16216	0.02515
453.87640	0.02483
452.59063	0.02451
451.30486	0.02426
450.01909	0.02405
448.73332	0.02384
447.44755	0.02359
446.16178	0.02330
444.87601	0.02305
443.59025	0.02289
442.30448	0.02284
441.01871	0.02287
439.73294	0.02290
438.44717	0.02288
437.16140	0.02281
435.87563	0.02270
434.58986	0.02254
433.30409	0.02238
432.01833	0.02227
430.73256	0.02225
429.44679	0.02230
428.16102	0.02236
426.87525	0.02236
425.58948	0.02229
424.30371	0.02220
423.01794	0.02214
421.73218	0.02212
420.44641	0.02211
419.16064	0.02210
417.87487	0.02209
416.58910	0.02204
415.30333	0.02194
414.01756	0.02181
412.73179	0.02171
411.44602	0.02166
410.16026	0.02169
408.87449	0.02180
407.58872	0.02194
406.30295	0.02207
405.01718	0.02217
403.73141	0.02224
402.44564	0.02230
401.15987	0.02238
399.87411	0.02251
