3997.45528	0.06585
3996.16951	0.06560
3994.88374	0.06511
3993.59798	0.06436
3992.31221	0.06371
3991.02644	0.06361
3989.74067	0.06425
3988.45490	0.06534
3987.16913	0.06627
3985.88336	0.06658
3984.59759	0.06625
3983.31183	0.06574
3982.02606	0.06563
3980.74029	0.06621
3979.45452	0.06731
3978.16875	0.06843
3976.88298	0.06905
3975.59721	0.06893
3974.31144	0.06828
3973.02567	0.06753
3971.73991	0.06704
3970.45414	0.06687
3969.16837	0.06685
3967.88260	0.06674
3966.59683	0.06636
3965.31106	0.06567
3964.02529	0.06482
3962.73952	0.06409
3961.45376	0.06377
3960.16799	0.06391
3958.88222	0.06430
3957.59645	0.06469
3956.31068	0.06497
3955.02491	0.06526
3953.73914	0.06562
3952.45337	0.06600
3951.16760	0.06624
3949.88184	0.06626
3948.59607	0.06607
3947.31030	0.06565
3946.02453	0.06501
3944.73876	0.06432
3943.45299	0.06385
3942.16722	0.06364
3940.88145	0.06357
3939.59569	0.06356
3938.30992	0.06368
3937.02415	0.06397
3935.73838	0.06438
3934.45261	0.06471
3933.16684	0.06474
3931.88107	0.06432
3930.59530	0.06366
3929.30953	0.06324
3928.02377	0.06344
3926.73800	0.06416
3925.45223	0.06501
3924.16646	0.06575
3922.88069	0.06632
3921.59492	0.06662
3920.30915	0.06638
3919.02338	0.06555
3917.73762	0.06453
3916.45185	0.06381
3915.16608	0.06353
3913.88031	0.06341
3912.59454	0.06321
3911.30877	0.06307
3910.02300	0.06322
3908.73723	0.06351
3907.45146	0.06352
3906.16570	0.06302
3904.87993	0.06229
3903.59416	0.06181
3902.30839	0.06174
3901.02262	0.06183
3899.73685	0.06174
3898.45108	0.06132
3897.16531	0.06079
3895.87955	0.06049
3894.59378	0.06071
3893.30801	0.06142
3892.02224	0.06227
3890.73647	0.06291
3889.45070	0.06324
3888.16493	0.06345
3886.87916	0.06380
3885.59339	0.06434
3884.30763	0.06483
3883.02186	0.06501
3881.73609	0.06474
3880.45032	0.06411
3879.16455	0.06327
3877.87878	0.06241
3876.59301	0.06180
3875.30724	0.06167
3874.02148	0.06201
3872.73571	0.06254
3871.44994	0.06297
3870.16417	0.06314
3868.87840	0.06309
3867.59263	0.06298
3866.30686	0.06294
3865.02109	0.06288
3863.73532	0.06255
3862.44956	0.06185
3861.16379	0.06103
3859.87802	0.06048
3858.59225	0.06044
3857.30648	0.06088
3856.02071	0.06159
3854.73494	0.06235
3853.44917	0.06298
3852.16341	0.06341
3850.87764	0.06365
3849.59187	0.06380
3848.30610	0.06390
3847.02033	0.06394
3845.73456	0.06392
3844.44879	0.06383
3843.16302	0.06362
3841.87725	0.06318
3840.59149	0.06249
3839.30572	0.06173
3838.01995	0.06123
3836.73418	0.06117
3835.44841	0.06146
3834.16264	0.06179
3832.87687	0.06179
3831.59110	0.06125
3830.30534	0.06033
3829.01957	0.05946
3827.73380	0.05900
3826.44803	0.05903
3825.16226	0.05952
3823.87649	0.06045
3822.59072	0.06166
3821.30495	0.06265
3820.01918	0.06280
3818.73342	0.06196
3817.44765	0.06071
3816.16188	0.05993
3814.87611	0.05994
3813.59034	0.06026
3812.30457	0.06012
3811.01880	0.05933
3809.73303	0.05839
3808.44726	0.05791
3807.16150	0.05808
3805.87573	0.05863
3804.58996	0.05910
3803.30419	0.05927
3802.01842	0.05933
3800.73265	0.05963
3799.44688	0.06032
3798.16111	0.06114
3796.87535	0.06165
3795.58958	0.06158
3794.30381	0.06107
3793.01804	0.06045
3791.73227	0.05994
3790.44650	0.05957
3789.16073	0.05927
3787.87496	0.05905
3786.58919	0.05901
3785.30343	0.05911
3784.01766	0.05914
3782.73189	0.05896
3781.44612	0.05869
3780.16035	0.05861
3778.87458	0.05878
3777.58881	0.05893
3776.30304	0.05880
3775.01728	0.05847
3773.73151	0.05823
3772.44574	0.05820
3771.15997	0.05823
3769.87420	0.05808
3768.58843	0.05778
3767.30266	0.05750
3766.01689	0.05736
3764.73112	0.05731
3763.44536	0.05727
3762.15959	0.05729
3760.87382	0.05754
3759.58805	0.05804
3758.30228	0.05857
3757.01651	0.05877
3755.73074	0.05847
3754.44497	0.05787
3753.15921	0.05760
3751.87344	0.05814
3750.58767	0.05935
3749.30190	0.06037
3748.01613	0.06055
3746.73036	0.06002
3745.44459	0.05943
3744.15882	0.05910
3742.87305	0.05883
3741.58729	0.05836
3740.30152	0.05773
3739.01575	0.05722
3737.72998	0.05710
3736.44421	0.05746
3735.15844	0.05816
3733.87267	0.05892
3732.58690	0.05949
3731.30114	0.05965
3730.01537	0.05926
3728.72960	0.05834
3727.44383	0.05718
3726.15806	0.05622
3724.87229	0.05571
3723.58652	0.05552
3722.30075	0.05530
3721.01498	0.05484
3719.72922	0.05429
3718.44345	0.05407
3717.15768	0.05442
3715.87191	0.05521
3714.58614	0.05602
3713.30037	0.05643
3712.01460	0.05631
3710.72883	0.05586
3709.44307	0.05553
3708.15730	0.05558
3706.87153	0.05582
3705.58576	0.05589
3704.29999	0.05576
3703.01422	0.05566
3701.72845	0.05570
3700.44268	0.05571
3699.15691	0.05557
3697.87115	0.05540
3696.58538	0.05534
3695.29961	0.05535
3694.01384	0.05534
3692.72807	0.05543
3691.44230	0.05571
3690.15653	0.05602
3688.87076	0.05610
3687.58500	0.05597
3686.29923	0.05593
3685.01346	0.05624
3683.72769	0.05688
3682.44192	0.05762
3681.15615	0.05813
3679.87038	0.05807
3678.58461	0.05745
3677.29884	0.05686
3676.01308	0.05693
3674.72731	0.05761
3673.44154	0.05818
3672.15577	0.05817
3670.87000	0.05782
3669.58423	0.05765
3668.29846	0.05780
3667.01269	0.05803
3665.72693	0.05815
3664.44116	0.05816
3663.15539	0.05811
3661.86962	0.05799
3660.58385	0.05784
3659.29808	0.05786
3658.01231	0.05820
3656.72654	0.05880
3655.44077	0.05950
3654.15501	0.06022
3652.86924	0.06088
3651.58347	0.06127
3650.29770	0.06119
3649.01193	0.06069
3647.72616	0.06020
3646.44039	0.06013
3645.15462	0.06052
3643.86886	0.06107
3642.58309	0.06150
3641.29732	0.06182
3640.01155	0.06220
3638.72578	0.06270
3637.44001	0.06324
3636.15424	0.06373
3634.86847	0.06412
3633.58270	0.06441
3632.29694	0.06458
3631.01117	0.06468
3629.72540	0.06490
3628.43963	0.06534
3627.15386	0.06580
3625.86809	0.06600
3624.58232	0.06586
3623.29655	0.06559
3622.01079	0.06544
3620.72502	0.06553
3619.43925	0.06586
3618.15348	0.06632
3616.86771	0.06688
3615.58194	0.06758
3614.29617	0.06851
3613.01040	0.06955
3611.72463	0.07035
3610.43887	0.07055
3609.15310	0.07024
3607.86733	0.06995
3606.58156	0.07019
3605.29579	0.07099
3604.01002	0.07196
3602.72425	0.07276
3601.43848	0.07324
3600.15272	0.07342
3598.86695	0.07337
3597.58118	0.07329
3596.29541	0.07348
3595.00964	0.07403
3593.72387	0.07478
3592.43810	0.07534
3591.15233	0.07539
3589.86656	0.07503
3588.58080	0.07474
3587.29503	0.07482
3586.00926	0.07510
3584.72349	0.07526
3583.43772	0.07539
3582.15195	0.07588
3580.86618	0.07688
3579.58041	0.07807
3578.29464	0.07903
3577.00888	0.07965
3575.72311	0.07998
3574.43734	0.08013
3573.15157	0.08021
3571.86580	0.08034
3570.58003	0.08059
3569.29426	0.08091
3568.00849	0.08120
3566.72273	0.08149
3565.43696	0.08196
3564.15119	0.08281
3562.86542	0.08394
3561.57965	0.08490
3560.29388	0.08522
3559.00811	0.08481
3557.72234	0.08409
3556.43657	0.08363
3555.15081	0.08371
3553.86504	0.08418
3552.57927	0.08471
3551.29350	0.08515
3550.00773	0.08557
3548.72196	0.08602
3547.43619	0.08640
3546.15042	0.08652
3544.86466	0.08640
3543.57889	0.08621
3542.29312	0.08624
3541.00735	0.08670
3539.72158	0.08762
3538.43581	0.08885
3537.15004	0.09008
3535.86427	0.09099
3534.57850	0.09135
3533.29274	0.09122
3532.00697	0.09090
3530.72120	0.09084
3529.43543	0.09130
3528.14966	0.09224
3526.86389	0.09331
3525.57812	0.09404
3524.29235	0.09416
3523.00659	0.09372
3521.72082	0.09307
3520.43505	0.09255
3519.14928	0.09230
3517.86351	0.09236
3516.57774	0.09278
3515.29197	0.09365
3514.00620	0.09489
3512.72043	0.09617
3511.43467	0.09706
3510.14890	0.09738
3508.86313	0.09727
3507.57736	0.09707
3506.29159	0.09707
3505.00582	0.09730
3503.72005	0.09761
3502.43428	0.09786
3501.14852	0.09811
3499.86275	0.09849
3498.57698	0.09903
3497.29121	0.09958
3496.00544	0.10008
3494.71967	0.10060
3493.43390	0.10115
3492.14813	0.10150
3490.86236	0.10144
3489.57660	0.10106
3488.29083	0.10076
3487.00506	0.10086
3485.71929	0.10137
3484.43352	0.10213
3483.14775	0.10298
3481.86198	0.10380
3480.57621	0.10447
3479.29045	0.10487
3478.00468	0.10500
3476.71891	0.10498
3475.43314	0.10500
3474.14737	0.10515
3472.86160	0.10544
3471.57583	0.10576
3470.29006	0.10609
3469.00429	0.10650
3467.71853	0.10702
3466.43276	0.10749
3465.14699	0.10770
3463.86122	0.10761
3462.57545	0.10738
3461.28968	0.10720
3460.00391	0.10711
3458.71814	0.10711
3457.43238	0.10727
3456.14661	0.10766
3454.86084	0.10824
3453.57507	0.10883
3452.28930	0.10931
3451.00353	0.10972
3449.71776	0.11010
3448.43199	0.11037
3447.14622	0.11040
3445.86046	0.11026
3444.57469	0.11022
3443.28892	0.11041
3442.00315	0.11073
3440.71738	0.11103
3439.43161	0.11123
3438.14584	0.11138
3436.86007	0.11146
3435.57431	0.11145
3434.28854	0.11141
3433.00277	0.11151
3431.71700	0.11191
3430.43123	0.11265
3429.14546	0.11357
3427.85969	0.11438
3426.57392	0.11491
3425.28815	0.11514
3424.00239	0.11516
3422.71662	0.11500
3421.43085	0.11482
3420.14508	0.11491
3418.85931	0.11544
3417.57354	0.11622
3416.28777	0.11684
3415.00200	0.11707
3413.71624	0.11701
3412.43047	0.11694
3411.14470	0.11702
3409.85893	0.11721
3408.57316	0.11740
3407.28739	0.11763
3406.00162	0.11799
3404.71585	0.11846
3403.43008	0.11890
3402.14432	0.11917
3400.85855	0.11925
3399.57278	0.11909
3398.28701	0.11868
3397.00124	0.11817
3395.71547	0.11781
3394.42970	0.11788
3393.14393	0.11840
3391.85817	0.11915
3390.57240	0.11984
3389.28663	0.12025
3388.00086	0.12045
3386.71509	0.12056
3385.42932	0.12062
3384.14355	0.12059
3382.85778	0.12044
3381.57201	0.12030
3380.28625	0.12033
3379.00048	0.12052
3377.71471	0.12073
3376.42894	0.12081
3375.14317	0.12076
3373.85740	0.12074
3372.57163	0.12091
3371.28586	0.12136
3370.00010	0.12200
3368.71433	0.12270
3367.42856	0.12327
3366.14279	0.12355
3364.85702	0.12342
3363.57125	0.12296
3362.28548	0.12238
3360.99971	0.12190
3359.71394	0.12162
3358.42818	0.12152
3357.14241	0.12153
3355.85664	0.12171
3354.57087	0.12213
3353.28510	0.12272
3351.99933	0.12329
3350.71356	0.12362
3349.42779	0.12370
3348.14202	0.12371
3346.85626	0.12381
3345.57049	0.12396
3344.28472	0.12400
3342.99895	0.12386
3341.71318	0.12364
3340.42741	0.12348
3339.14164	0.12337
3337.85587	0.12321
3336.57011	0.12296
3335.28434	0.12282
3333.99857	0.12304
3332.71280	0.12361
3331.42703	0.12421
3330.14126	0.12446
3328.85549	0.12428
3327.56972	0.12399
3326.28395	0.12399
3324.99819	0.12441
3323.71242	0.12503
3322.42665	0.12551
3321.14088	0.12568
3319.85511	0.12560
3318.56934	0.12534
3317.28357	0.12498
3315.99780	0.12455
3314.71204	0.12415
3313.42627	0.12387
3312.14050	0.12373
3310.85473	0.12367
3309.56896	0.12361
3308.28319	0.12354
3306.99742	0.12348
3305.71165	0.12345
3304.42588	0.12345
3303.14012	0.12346
3301.85435	0.12354
3300.56858	0.12376
3299.28281	0.12406
3297.99704	0.12426
3296.71127	0.12424
3295.42550	0.12409
3294.13973	0.12400
3292.85397	0.12405
3291.56820	0.12422
3290.28243	0.12445
3288.99666	0.12462
3287.71089	0.12455
3286.42512	0.12414
3285.13935	0.12351
3283.85358	0.12295
3282.56781	0.12260
3281.28205	0.12241
3279.99628	0.12227
3278.71051	0.12215
3277.42474	0.12211
3276.13897	0.12223
3274.85320	0.12254
3273.56743	0.12290
3272.28166	0.12311
3270.99590	0.12297
3269.71013	0.12249
3268.42436	0.12189
3267.13859	0.12144
3265.85282	0.12130
3264.56705	0.12142
3263.28128	0.12161
3261.99551	0.12176
3260.70974	0.12185
3259.42398	0.12192
3258.13821	0.12199
3256.85244	0.12203
3255.56667	0.12192
3254.28090	0.12155
3252.99513	0.12093
3251.70936	0.12029
3250.42359	0.11983
3249.13783	0.11966
3247.85206	0.11965
3246.56629	0.11958
3245.28052	0.11932
3243.99475	0.11897
3242.70898	0.11872
3241.42321	0.11864
3240.13744	0.11864
3238.85167	0.11850
3237.56591	0.11815
3236.28014	0.11776
3234.99437	0.11756
3233.70860	0.11763
3232.42283	0.11779
3231.13706	0.11782
3229.85129	0.11765
3228.56552	0.11737
3227.27976	0.11703
3225.99399	0.11665
3224.70822	0.11634
3223.42245	0.11622
3222.13668	0.11631
3220.85091	0.11645
3219.56514	0.11648
3218.27937	0.11639
3216.99360	0.11620
3215.70784	0.11597
3214.42207	0.11576
3213.13630	0.11563
3211.85053	0.11563
3210.56476	0.11568
3209.27899	0.11560
3207.99322	0.11530
3206.70745	0.11488
3205.42169	0.11460
3204.13592	0.11459
3202.85015	0.11467
3201.56438	0.11458
3200.27861	0.11424
3198.99284	0.11385
3197.70707	0.11359
3196.42130	0.11348
3195.13553	0.11343
3193.84977	0.11341
3192.56400	0.11340
3191.27823	0.11333
3189.99246	0.11314
3188.70669	0.11281
3187.42092	0.11242
3186.13515	0.11204
3184.84938	0.11167
3183.56362	0.11131
3182.27785	0.11108
3180.99208	0.11114
3179.70631	0.11152
3178.42054	0.11190
3177.13477	0.11195
3175.84900	0.11156
3174.56323	0.11098
3173.27746	0.11055
3171.99170	0.11040
3170.70593	0.11031
3169.42016	0.11003
3168.13439	0.10954
3166.84862	0.10908
3165.56285	0.10884
3164.27708	0.10876
3162.99131	0.10857
3161.70555	0.10815
3160.41978	0.10769
3159.13401	0.10749
3157.84824	0.10759
3156.56247	0.10773
3155.27670	0.10769
3153.99093	0.10749
3152.70516	0.10726
3151.41939	0.10708
3150.13363	0.10693
3148.84786	0.10683
3147.56209	0.10675
3146.27632	0.10667
3144.99055	0.10658
3143.70478	0.10656
3142.41901	0.10656
3141.13324	0.10643
3139.84748	0.10603
3138.56171	0.10538
3137.27594	0.10463
3135.99017	0.10399
3134.70440	0.10366
3133.41863	0.10366
3132.13286	0.10384
3130.84709	0.10393
3129.56132	0.10386
3128.27556	0.10374
3126.98979	0.10368
3125.70402	0.10364
3124.41825	0.10354
3123.13248	0.10335
3121.84671	0.10308
3120.56094	0.10272
3119.27517	0.10228
3117.98940	0.10185
3116.70364	0.10160
3115.41787	0.10160
3114.13210	0.10173
3112.84633	0.10184
3111.56056	0.10189
3110.27479	0.10200
3108.98902	0.10222
3107.70325	0.10238
3106.41749	0.10223
3105.13172	0.10173
3103.84595	0.10105
3102.56018	0.10049
3101.27441	0.10025
3099.98864	0.10038
3098.70287	0.10074
3097.41710	0.10107
3096.13133	0.10114
3094.84557	0.10091
3093.55980	0.10048
3092.27403	0.10002
3090.98826	0.09965
3089.70249	0.09952
3088.41672	0.09968
3087.13095	0.10001
3085.84518	0.10029
3084.55942	0.10037
3083.27365	0.10020
3081.98788	0.09982
3080.70211	0.09930
3079.41634	0.09877
3078.13057	0.09838
3076.84480	0.09817
3075.55903	0.09802
3074.27326	0.09780
3072.98750	0.09746
3071.70173	0.09706
3070.41596	0.09667
3069.13019	0.09643
3067.84442	0.09650
3066.55865	0.09690
3065.27288	0.09738
3063.98711	0.09758
3062.70135	0.09737
3061.41558	0.09686
3060.12981	0.09629
3058.84404	0.09586
3057.55827	0.09566
3056.27250	0.09565
3054.98673	0.09575
3053.70096	0.09580
3052.41519	0.09570
3051.12943	0.09542
3049.84366	0.09503
3048.55789	0.09468
3047.27212	0.09439
3045.98635	0.09408
3044.70058	0.09364
3043.41481	0.09307
3042.12904	0.09251
3040.84328	0.09214
3039.55751	0.09196
3038.27174	0.09185
3036.98597	0.09167
3035.70020	0.09139
3034.41443	0.09112
3033.12866	0.09088
3031.84289	0.09068
3030.55712	0.09051
3029.27136	0.09044
3027.98559	0.09051
3026.69982	0.09064
3025.41405	0.09066
3024.12828	0.09048
3022.84251	0.09021
3021.55674	0.09008
3020.27097	0.09017
3018.98521	0.09037
3017.69944	0.09044
3016.41367	0.09031
3015.12790	0.09010
3013.84213	0.08990
3012.55636	0.08968
3011.27059	0.08937
3009.98482	0.08903
3008.69905	0.08886
3007.41329	0.08899
3006.12752	0.08927
3004.84175	0.08938
3003.55598	0.08907
3002.27021	0.08833
3000.98444	0.08743
2999.69867	0.08667
2998.41290	0.08632
2997.12714	0.08644
2995.84137	0.08690
2994.55560	0.08743
2993.26983	0.08780
2991.98406	0.08796
2990.69829	0.08807
2989.41252	0.08824
2988.12675	0.08846
2986.84098	0.08875
2985.55522	0.08920
2984.26945	0.08988
2982.98368	0.09069
2981.69791	0.09153
2980.41214	0.09249
2979.12637	0.09374
2977.84060	0.09528
2976.55483	0.09696
2975.26907	0.09856
2973.98330	0.10000
2972.69753	0.10145
2971.41176	0.10311
2970.12599	0.10510
2968.84022	0.10739
2967.55445	0.10987
2966.26868	0.11242
2964.98291	0.11489
2963.69715	0.11726
2962.41138	0.11969
2961.12561	0.12226
2959.83984	0.12485
2958.55407	0.12720
2957.26830	0.12919
2955.98253	0.13088
2954.69676	0.13231
2953.41100	0.13349
2952.12523	0.13443
2950.83946	0.13515
2949.55369	0.13571
2948.26792	0.13606
2946.98215	0.13617
2945.69638	0.13606
2944.41061	0.13590
2943.12484	0.13591
2941.83908	0.13625
2940.55331	0.13696
2939.26754	0.13806
2937.98177	0.13960
2936.69600	0.14152
2935.41023	0.14368
2934.12446	0.14598
2932.83869	0.14846
2931.55293	0.15111
2930.26716	0.15367
2928.98139	0.15586
2927.69562	0.15762
2926.40985	0.15913
2925.12408	0.16045
2923.83831	0.16145
2922.55254	0.16196
2921.26677	0.16193
2919.98101	0.16142
2918.69524	0.16043
2917.40947	0.15893
2916.12370	0.15691
2914.83793	0.15448
2913.55216	0.15193
2912.26639	0.14965
2910.98062	0.14787
2909.69486	0.14648
2908.40909	0.14515
2907.12332	0.14368
2905.83755	0.14212
2904.55178	0.14061
2903.26601	0.13920
2901.98024	0.13782
2900.69447	0.13637
2899.40870	0.13482
2898.12294	0.13325
2896.83717	0.13181
2895.55140	0.13053
2894.26563	0.12923
2892.97986	0.12772
2891.69409	0.12601
2890.40832	0.12431
2889.12255	0.12289
2887.83678	0.12179
2886.55102	0.12087
2885.26525	0.11999
2883.97948	0.11915
2882.69371	0.11842
2881.40794	0.11786
2880.12217	0.11760
2878.83640	0.11777
2877.55063	0.11834
2876.26487	0.11912
2874.97910	0.11995
2873.69333	0.12086
2872.40756	0.12188
2871.12179	0.12292
2869.83602	0.12381
2868.55025	0.12439
2867.26448	0.12469
2865.97871	0.12487
2864.69295	0.12515
2863.40718	0.12561
2862.12141	0.12618
2860.83564	0.12671
2859.54987	0.12714
2858.26410	0.12753
2856.97833	0.12793
2855.69256	0.12822
2854.40680	0.12817
2853.12103	0.12765
2851.83526	0.12674
2850.54949	0.12557
2849.26372	0.12420
2847.97795	0.12259
2846.69218	0.12078
2845.40641	0.11885
2844.12064	0.11681
2842.83488	0.11470
2841.54911	0.11258
2840.26334	0.11052
2838.97757	0.10851
2837.69180	0.10650
2836.40603	0.10445
2835.12026	0.10238
2833.83449	0.10032
2832.54873	0.09829
2831.26296	0.09635
2829.97719	0.09462
2828.69142	0.09322
2827.40565	0.09215
2826.11988	0.09127
2824.83411	0.09039
2823.54834	0.08943
2822.26257	0.08851
2820.97681	0.08775
2819.69104	0.08712
2818.40527	0.08650
2817.11950	0.08582
2815.83373	0.08514
2814.54796	0.08455
2813.26219	0.08407
2811.97642	0.08365
2810.69066	0.08323
2809.40489	0.08280
2808.11912	0.08234
2806.83335	0.08183
2805.54758	0.08132
2804.26181	0.08086
2802.97604	0.08053
2801.69027	0.08034
2800.40450	0.08022
2799.11874	0.08000
2797.83297	0.07961
2796.54720	0.07912
2795.26143	0.07867
2793.97566	0.07831
2792.68989	0.07797
2791.40412	0.07756
2790.11835	0.07710
2788.83259	0.07675
2787.54682	0.07657
2786.26105	0.07651
2784.97528	0.07638
2783.68951	0.07606
2782.40374	0.07561
2781.11797	0.07520
2779.83220	0.07498
2778.54643	0.07490
2777.26067	0.07477
2775.97490	0.07447
2774.68913	0.07411
2773.40336	0.07390
2772.11759	0.07387
2770.83182	0.07385
2769.54605	0.07363
2768.26028	0.07319
2766.97452	0.07273
2765.68875	0.07248
2764.40298	0.07249
2763.11721	0.07258
2761.83144	0.07249
2760.54567	0.07212
2759.25990	0.07167
2757.97413	0.07146
2756.68836	0.07152
2755.40260	0.07164
2754.11683	0.07158
2752.83106	0.07128
2751.54529	0.07087
2750.25952	0.07055
2748.97375	0.07043
2747.68798	0.07050
2746.40221	0.07059
2745.11645	0.07057
2743.83068	0.07040
2742.54491	0.07015
2741.25914	0.06985
2739.97337	0.06957
2738.68760	0.06939
2737.40183	0.06940
2736.11606	0.06954
2734.83029	0.06970
2733.54453	0.06976
2732.25876	0.06966
2730.97299	0.06938
2729.68722	0.06899
2728.40145	0.06866
2727.11568	0.06848
2725.82991	0.06840
2724.54414	0.06822
2723.25838	0.06787
2721.97261	0.06748
2720.68684	0.06727
2719.40107	0.06734
2718.11530	0.06753
2716.82953	0.06765
2715.54376	0.06760
2714.25799	0.06742
2712.97222	0.06722
2711.68646	0.06708
2710.40069	0.06699
2709.11492	0.06687
2707.82915	0.06661
2706.54338	0.06625
2705.25761	0.06591
2703.97184	0.06569
2702.68607	0.06557
2701.40031	0.06548
2700.11454	0.06537
2698.82877	0.06520
2697.54300	0.06494
2696.25723	0.06463
2694.97146	0.06436
2693.68569	0.06422
2692.39992	0.06417
2691.11415	0.06411
2689.82839	0.06401
2688.54262	0.06393
2687.25685	0.06393
2685.97108	0.06397
2684.68531	0.06393
2683.39954	0.06374
2682.11377	0.06347
2680.82800	0.06326
2679.54224	0.06320
2678.25647	0.06322
2676.97070	0.06322
2675.68493	0.06315
2674.39916	0.06306
2673.11339	0.06304
2671.82762	0.06310
2670.54185	0.06319
2669.25608	0.06325
2667.97032	0.06316
2666.68455	0.06288
2665.39878	0.06249
2664.11301	0.06217
2662.82724	0.06209
2661.54147	0.06224
2660.25570	0.06243
2658.96993	0.06251
2657.68417	0.06241
2656.39840	0.06221
2655.11263	0.06196
2653.82686	0.06171
2652.54109	0.06151
2651.25532	0.06139
2649.96955	0.06129
2648.68378	0.06112
2647.39801	0.06083
2646.11225	0.06047
2644.82648	0.06010
2643.54071	0.05969
2642.25494	0.05926
2640.96917	0.05894
2639.68340	0.05884
2638.39763	0.05892
2637.11186	0.05893
2635.82609	0.05870
2634.54033	0.05826
2633.25456	0.05779
2631.96879	0.05743
2630.68302	0.05719
2629.39725	0.05699
2628.11148	0.05674
2626.82571	0.05642
2625.53994	0.05611
2624.25418	0.05589
2622.96841	0.05569
2621.68264	0.05533
2620.39687	0.05479
2619.11110	0.05422
2617.82533	0.05380
2616.53956	0.05360
2615.25379	0.05362
2613.96802	0.05383
2612.68226	0.05408
2611.39649	0.05415
2610.11072	0.05400
2608.82495	0.05376
2607.53918	0.05357
2606.25341	0.05342
2604.96764	0.05324
2603.68187	0.05302
2602.39611	0.05284
2601.11034	0.05266
2599.82457	0.05240
2598.53880	0.05200
2597.25303	0.05153
2595.96726	0.05109
2594.68149	0.05079
2593.39572	0.05070
2592.10995	0.05082
2590.82419	0.05104
2589.53842	0.05116
2588.25265	0.05108
2586.96688	0.05087
2585.68111	0.05074
2584.39534	0.05083
2583.10957	0.05103
2581.82380	0.05107
2580.53804	0.05076
2579.25227	0.05023
2577.96650	0.04978
2576.68073	0.04959
2575.39496	0.04959
2574.10919	0.04961
2572.82342	0.04945
2571.53765	0.04901
2570.25188	0.04837
2568.96612	0.04787
2567.68035	0.04793
2566.39458	0.04851
2565.10881	0.04914
2563.82304	0.04930
2562.53727	0.04892
2561.25150	0.04836
2559.96573	0.04790
2558.67997	0.04757
2557.39420	0.04733
2556.10843	0.04722
2554.82266	0.04732
2553.53689	0.04749
2552.25112	0.04754
2550.96535	0.04740
2549.67958	0.04713
2548.39381	0.04683
2547.10805	0.04660
2545.82228	0.04654
2544.53651	0.04661
2543.25074	0.04667
2541.96497	0.04657
2540.67920	0.04635
2539.39343	0.04619
2538.10766	0.04623
2536.82190	0.04635
2535.53613	0.04638
2534.25036	0.04624
2532.96459	0.04607
2531.67882	0.04607
2530.39305	0.04622
2529.10728	0.04637
2527.82151	0.04637
2526.53574	0.04620
2525.24998	0.04599
2523.96421	0.04590
2522.67844	0.04606
2521.39267	0.04643
2520.10690	0.04679
2518.82113	0.04688
2517.53536	0.04666
2516.24959	0.04622
2514.96383	0.04568
2513.67806	0.04513
2512.39229	0.04466
2511.10652	0.04444
2509.82075	0.04458
2508.53498	0.04494
2507.24921	0.04527
2505.96344	0.04536
2504.67767	0.04531
2503.39191	0.04526
2502.10614	0.04518
2500.82037	0.04490
2499.53460	0.04447
2498.24883	0.04417
2496.96306	0.04415
2495.67729	0.04427
2494.39152	0.04436
2493.10576	0.04446
2491.81999	0.04464
2490.53422	0.04486
2489.24845	0.04505
2487.96268	0.04523
2486.67691	0.04536
2485.39114	0.04530
2484.10537	0.04495
2482.81960	0.04439
2481.53384	0.04387
2480.24807	0.04359
2478.96230	0.04362
2477.67653	0.04376
2476.39076	0.04370
2475.10499	0.04333
2473.81922	0.04285
2472.53345	0.04258
2471.24769	0.04266
2469.96192	0.04293
2468.67615	0.04318
2467.39038	0.04337
2466.10461	0.04357
2464.81884	0.04375
2463.53307	0.04370
2462.24730	0.04333
2460.96153	0.04286
2459.67577	0.04262
2458.39000	0.04269
2457.10423	0.04288
2455.81846	0.04297
2454.53269	0.04292
2453.24692	0.04282
2451.96115	0.04280
2450.67538	0.04294
2449.38962	0.04315
2448.10385	0.04332
2446.81808	0.04335
2445.53231	0.04324
2444.24654	0.04306
2442.96077	0.04289
2441.67500	0.04273
2440.38923	0.04252
2439.10346	0.04223
2437.81770	0.04184
2436.53193	0.04141
2435.24616	0.04106
2433.96039	0.04096
2432.67462	0.04114
2431.38885	0.04144
2430.10308	0.04160
2428.81731	0.04152
2427.53155	0.04127
2426.24578	0.04100
2424.96001	0.04081
2423.67424	0.04078
2422.38847	0.04092
2421.10270	0.04115
2419.81693	0.04139
2418.53116	0.04155
2417.24539	0.04161
2415.95963	0.04151
2414.67386	0.04120
2413.38809	0.04080
2412.10232	0.04056
2410.81655	0.04065
2409.53078	0.04097
2408.24501	0.04132
2406.95924	0.04150
2405.67347	0.04143
2404.38771	0.04114
2403.10194	0.04078
2401.81617	0.04056
2400.53040	0.04053
2399.24463	0.04031
2397.95886	0.04019
2396.67309	0.04024
2395.38732	0.04037
2394.10156	0.04050
2392.81579	0.04061
2391.53002	0.04065
2390.24425	0.04066
2388.95848	0.04070
2387.67271	0.04084
2386.38694	0.04109
2385.10117	0.04136
2383.81540	0.04148
2382.52964	0.04132
2381.24387	0.04091
2379.95810	0.04037
2378.67233	0.03986
2377.38656	0.03947
2376.10079	0.03930
2374.81502	0.03938
2373.52925	0.03959
2372.24349	0.03972
2370.95772	0.03957
2369.67195	0.03913
2368.38618	0.03853
2367.10041	0.03798
2365.81464	0.03772
2364.52887	0.03778
2363.24310	0.03799
2361.95733	0.03815
2360.67157	0.03834
2359.38580	0.03891
2358.10003	0.03995
2356.81426	0.04109
2355.52849	0.04186
2354.24272	0.04216
2352.95695	0.04232
2351.67118	0.04258
2350.38542	0.04282
2349.09965	0.04275
2347.81388	0.04224
2346.52811	0.04145
2345.24234	0.04076
2343.95657	0.04056
2342.67080	0.04099
2341.38503	0.04194
2340.09926	0.04300
2338.81350	0.04364
2337.52773	0.04352
2336.24196	0.04266
2334.95619	0.04142
2333.67042	0.04027
2332.38465	0.03966
2331.09888	0.03981
2329.81311	0.04064
2328.52735	0.04181
2327.24158	0.04287
2325.95581	0.04344
2324.67004	0.04333
2323.38427	0.04264
2322.09850	0.04163
2320.81273	0.04060
2319.52696	0.03977
2318.24119	0.03925
2316.95543	0.03904
2315.66966	0.03900
2314.38389	0.03895
2313.09812	0.03884
2311.81235	0.03877
2310.52658	0.03886
2309.24081	0.03908
2307.95504	0.03928
2306.66928	0.03935
2305.38351	0.03931
2304.09774	0.03929
2302.81197	0.03930
2301.52620	0.03927
2300.24043	0.03912
2298.95466	0.03886
2297.66889	0.03857
2296.38312	0.03830
2295.09736	0.03809
2293.81159	0.03794
2292.52582	0.03784
2291.24005	0.03780
2289.95428	0.03775
2288.66851	0.03756
2287.38274	0.03716
2286.09697	0.03667
2284.81121	0.03623
2283.52544	0.03591
2282.23967	0.03566
2280.95390	0.03541
2279.66813	0.03523
2278.38236	0.03519
2277.09659	0.03532
2275.81082	0.03550
2274.52505	0.03553
2273.23929	0.03524
2271.95352	0.03463
2270.66775	0.03384
2269.38198	0.03304
2268.09621	0.03246
2266.81044	0.03221
2265.52467	0.03226
2264.23890	0.03237
2262.95314	0.03225
2261.66737	0.03183
2260.38160	0.03135
2259.09583	0.03113
2257.81006	0.03129
2256.52429	0.03157
2255.23852	0.03163
2253.95275	0.03135
2252.66698	0.03096
2251.38122	0.03072
2250.09545	0.03064
2248.80968	0.03046
2247.52391	0.03009
2246.23814	0.02944
2244.95237	0.02885
2243.66660	0.02868
2242.38083	0.02897
2241.09507	0.02948
2239.80930	0.02984
2238.52353	0.02984
2237.23776	0.02950
2235.95199	0.02901
2234.66622	0.02853
2233.38045	0.02823
2232.09468	0.02817
2230.80891	0.02830
2229.52315	0.02842
2228.23738	0.02828
2226.95161	0.02785
2225.66584	0.02743
2224.38007	0.02726
2223.09430	0.02718
2221.80853	0.02682
2220.52276	0.02605
2219.23700	0.02522
2217.95123	0.02482
2216.66546	0.02493
2215.37969	0.02509
2214.09392	0.02469
2212.80815	0.02364
2211.52238	0.02259
2210.23661	0.02242
2208.95084	0.02329
2207.66508	0.02440
2206.37931	0.02477
2205.09354	0.02421
2203.80777	0.02335
2202.52200	0.02287
2201.23623	0.02280
2199.95046	0.02271
2198.66469	0.02229
2197.37893	0.02176
2196.09316	0.02171
2194.80739	0.02249
2193.52162	0.02373
2192.23585	0.02459
2190.95008	0.02439
2189.66431	0.02309
2188.37854	0.02121
2187.09277	0.01943
2185.80701	0.01822
2184.52124	0.01773
2183.23547	0.01782
2181.94970	0.01833
2180.66393	0.01905
2179.37816	0.01969
2178.09239	0.01996
2176.80662	0.01984
2175.52085	0.01969
2174.23509	0.01987
2172.94932	0.02040
2171.66355	0.02092
2170.37778	0.02101
2169.09201	0.02048
2167.80624	0.01938
2166.52047	0.01794
2165.23470	0.01667
2163.94894	0.01610
2162.66317	0.01622
2161.37740	0.01623
2160.09163	0.01533
2158.80586	0.01368
2157.52009	0.01224
2156.23432	0.01165
2154.94855	0.01195
2153.66278	0.01306
2152.37702	0.01488
2151.09125	0.01709
2149.80548	0.01909
2148.51971	0.02035
2147.23394	0.02064
2145.94817	0.02008
2144.66240	0.01910
2143.37663	0.01832
2142.09087	0.01831
2140.80510	0.01923
2139.51933	0.02062
2138.23356	0.02171
2136.94779	0.02201
2135.66202	0.02170
2134.37625	0.02127
2133.09048	0.02102
2131.80471	0.02086
2130.51895	0.02059
2129.23318	0.02029
2127.94741	0.02023
2126.66164	0.02063
2125.37587	0.02143
2124.09010	0.02233
2122.80433	0.02296
2121.51856	0.02328
2120.23280	0.02351
2118.94703	0.02384
2117.66126	0.02406
2116.37549	0.02392
2115.08972	0.02350
2113.80395	0.02321
2112.51818	0.02318
2111.23241	0.02320
2109.94664	0.02309
2108.66088	0.02302
2107.37511	0.02322
2106.08934	0.02367
2104.80357	0.02411
2103.51780	0.02438
2102.23203	0.02440
2100.94626	0.02413
2099.66049	0.02358
2098.37473	0.02270
2097.08896	0.02172
2095.80319	0.02100
2094.51742	0.02080
2093.23165	0.02111
2091.94588	0.02160
2090.66011	0.02186
2089.37434	0.02170
2088.08857	0.02126
2086.80281	0.02092
2085.51704	0.02089
2084.23127	0.02110
2082.94550	0.02133
2081.65973	0.02145
2080.37396	0.02148
2079.08819	0.02144
2077.80242	0.02128
2076.51666	0.02087
2075.23089	0.02024
2073.94512	0.01960
2072.65935	0.01920
2071.37358	0.01915
2070.08781	0.01932
2068.80204	0.01949
2067.51627	0.01954
2066.23050	0.01953
2064.94474	0.01954
2063.65897	0.01961
2062.37320	0.01963
2061.08743	0.01949
2059.80166	0.01915
2058.51589	0.01866
2057.23012	0.01809
2055.94435	0.01743
2054.65859	0.01676
2053.37282	0.01634
2052.08705	0.01645
2050.80128	0.01700
2049.51551	0.01749
2048.22974	0.01732
2046.94397	0.01632
2045.65820	0.01483
2044.37243	0.01346
2043.08667	0.01262
2041.80090	0.01240
2040.51513	0.01254
2039.22936	0.01276
2037.94359	0.01293
2036.65782	0.01312
2035.37205	0.01348
2034.08628	0.01401
2032.80052	0.01448
2031.51475	0.01441
2030.22898	0.01344
2028.94321	0.01176
2027.65744	0.01017
2026.37167	0.00950
2025.08590	0.00999
2023.80013	0.01108
2022.51436	0.01204
2021.22860	0.01247
2019.94283	0.01250
2018.65706	0.01246
2017.37129	0.01258
2016.08552	0.01275
2014.79975	0.01269
2013.51398	0.01250
2012.22821	0.01273
2010.94245	0.01365
2009.65668	0.01465
2008.37091	0.01489
2007.08514	0.01444
2005.79937	0.01416
2004.51360	0.01455
2003.22783	0.01521
2001.94206	0.01553
2000.65629	0.01543
1999.37053	0.01525
1998.08476	0.01528
1996.79899	0.01544
1995.51322	0.01555
1994.22745	0.01558
1992.94168	0.01569
1991.65591	0.01599
1990.37014	0.01640
1989.08438	0.01677
1987.79861	0.01700
1986.51284	0.01699
1985.22707	0.01672
1983.94130	0.01646
1982.65553	0.01658
1981.36976	0.01711
1980.08399	0.01758
1978.79822	0.01739
1977.51246	0.01642
1976.22669	0.01511
1974.94092	0.01418
1973.65515	0.01410
1972.36938	0.01493
1971.08361	0.01634
1969.79784	0.01784
1968.51207	0.01897
1967.22631	0.01950
1965.94054	0.01947
1964.65477	0.01907
1963.36900	0.01844
1962.08323	0.01775
1960.79746	0.01727
1959.51169	0.01712
1958.22592	0.01721
1956.94015	0.01727
1955.65439	0.01716
1954.36862	0.01694
1953.08285	0.01679
1951.79708	0.01689
1950.51131	0.01724
1949.22554	0.01758
1947.93977	0.01765
1946.65400	0.01746
1945.36823	0.01732
1944.08247	0.01761
1942.79670	0.01843
1941.51093	0.01949
1940.22516	0.02033
1938.93939	0.02062
1937.65362	0.02039
1936.36785	0.01999
1935.08208	0.01978
1933.79632	0.01991
1932.51055	0.02022
1931.22478	0.02049
1929.93901	0.02050
1928.65324	0.02021
1927.36747	0.01973
1926.08170	0.01927
1924.79593	0.01895
1923.51016	0.01879
1922.22440	0.01877
1920.93863	0.01892
1919.65286	0.01922
1918.36709	0.01954
1917.08132	0.01973
1915.79555	0.01981
1914.50978	0.01995
1913.22401	0.02018
1911.93825	0.02037
1910.65248	0.02037
1909.36671	0.02026
1908.08094	0.02026
1906.79517	0.02042
1905.50940	0.02066
1904.22363	0.02095
1902.93786	0.02137
1901.65209	0.02198
1900.36633	0.02257
1899.08056	0.02283
1897.79479	0.02259
1896.50902	0.02204
1895.22325	0.02149
1893.93748	0.02121
1892.65171	0.02127
1891.36594	0.02154
1890.08018	0.02183
1888.79441	0.02198
1887.50864	0.02199
1886.22287	0.02202
1884.93710	0.02212
1883.65133	0.02225
1882.36556	0.02226
1881.07979	0.02208
1879.79402	0.02178
1878.50826	0.02151
1877.22249	0.02138
1875.93672	0.02141
1874.65095	0.02155
1873.36518	0.02181
1872.07941	0.02220
1870.79364	0.02268
1869.50787	0.02307
1868.22211	0.02319
1866.93634	0.02303
1865.65057	0.02273
1864.36480	0.02249
1863.07903	0.02239
1861.79326	0.02239
1860.50749	0.02240
1859.22172	0.02243
1857.93595	0.02254
1856.65019	0.02276
1855.36442	0.02298
1854.07865	0.02307
1852.79288	0.02297
1851.50711	0.02281
1850.22134	0.02269
1848.93557	0.02268
1847.64980	0.02274
1846.36404	0.02281
1845.07827	0.02284
1843.79250	0.02284
1842.50673	0.02281
1841.22096	0.02279
1839.93519	0.02281
1838.64942	0.02287
1837.36365	0.02291
1836.07788	0.02287
1834.79212	0.02275
1833.50635	0.02260
1832.22058	0.02248
1830.93481	0.02245
1829.64904	0.02249
1828.36327	0.02258
1827.07750	0.02264
1825.79173	0.02261
1824.50597	0.02254
1823.22020	0.02252
1821.93443	0.02257
1820.64866	0.02261
1819.36289	0.02251
1818.07712	0.02229
1816.79135	0.02213
1815.50558	0.02220
1814.21981	0.02252
1812.93405	0.02290
1811.64828	0.02317
1810.36251	0.02328
1809.07674	0.02329
1807.79097	0.02331
1806.50520	0.02332
1805.21943	0.02332
1803.93366	0.02330
1802.64790	0.02331
1801.36213	0.02336
1800.07636	0.02341
1798.79059	0.02345
1797.50482	0.02348
1796.21905	0.02354
1794.93328	0.02367
1793.64751	0.02384
1792.36174	0.02404
1791.07598	0.02421
1789.79021	0.02430
1788.50444	0.02429
1787.21867	0.02421
1785.93290	0.02410
1784.64713	0.02400
1783.36136	0.02396
1782.07559	0.02402
1780.78983	0.02415
1779.50406	0.02431
1778.21829	0.02446
1776.93252	0.02463
1775.64675	0.02477
1774.36098	0.02483
1773.07521	0.02480
1771.78944	0.02477
1770.50367	0.02484
1769.21791	0.02500
1767.93214	0.02517
1766.64637	0.02530
1765.36060	0.02538
1764.07483	0.02544
1762.78906	0.02548
1761.50329	0.02551
1760.21752	0.02555
1758.93176	0.02561
1757.64599	0.02564
1756.36022	0.02564
1755.07445	0.02564
1753.78868	0.02566
1752.50291	0.02569
1751.21714	0.02569
1749.93137	0.02566
1748.64560	0.02565
1747.35984	0.02571
1746.07407	0.02584
1744.78830	0.02600
1743.50253	0.02616
1742.21676	0.02631
1740.93099	0.02647
1739.64522	0.02662
1738.35945	0.02675
1737.07369	0.02688
1735.78792	0.02706
1734.50215	0.02727
1733.21638	0.02747
1731.93061	0.02760
1730.64484	0.02767
1729.35907	0.02770
1728.07330	0.02778
1726.78753	0.02795
1725.50177	0.02821
1724.21600	0.02846
1722.93023	0.02866
1721.64446	0.02884
1720.35869	0.02909
1719.07292	0.02946
1717.78715	0.02993
1716.50138	0.03043
1715.21561	0.03093
1713.92985	0.03143
1712.64408	0.03195
1711.35831	0.03252
1710.07254	0.03312
1708.78677	0.03372
1707.50100	0.03432
1706.21523	0.03494
1704.92946	0.03563
1703.64370	0.03640
1702.35793	0.03723
1701.07216	0.03804
1699.78639	0.03879
1698.50062	0.03945
1697.21485	0.04004
1695.92908	0.04061
1694.64331	0.04119
1693.35754	0.04184
1692.07178	0.04259
1690.78601	0.04339
1689.50024	0.04417
1688.21447	0.04487
1686.92870	0.04553
1685.64293	0.04621
1684.35716	0.04694
1683.07139	0.04766
1681.78563	0.04835
1680.49986	0.04908
1679.21409	0.04989
1677.92832	0.05082
1676.64255	0.05183
1675.35678	0.05286
1674.07101	0.05386
1672.78524	0.05484
1671.49947	0.05582
1670.21371	0.05678
1668.92794	0.05768
1667.64217	0.05850
1666.35640	0.05929
1665.07063	0.06010
1663.78486	0.06091
1662.49909	0.06168
1661.21332	0.06236
1659.92756	0.06294
1658.64179	0.06346
1657.35602	0.06391
1656.07025	0.06433
1654.78448	0.06477
1653.49871	0.06521
1652.21294	0.06558
1650.92717	0.06584
1649.64140	0.06603
1648.35564	0.06621
1647.06987	0.06637
1645.78410	0.06641
1644.49833	0.06631
1643.21256	0.06614
1641.92679	0.06600
1640.64102	0.06591
1639.35525	0.06581
1638.06949	0.06566
1636.78372	0.06542
1635.49795	0.06507
1634.21218	0.06465
1632.92641	0.06423
1631.64064	0.06384
1630.35487	0.06348
1629.06910	0.06311
1627.78333	0.06271
1626.49757	0.06229
1625.21180	0.06186
1623.92603	0.06140
1622.64026	0.06090
1621.35449	0.06040
1620.06872	0.05996
1618.78295	0.05962
1617.49718	0.05936
1616.21142	0.05911
1614.92565	0.05885
1613.63988	0.05861
1612.35411	0.05844
1611.06834	0.05839
1609.78257	0.05843
1608.49680	0.05850
1607.21103	0.05854
1605.92526	0.05855
1604.63950	0.05856
1603.35373	0.05862
1602.06796	0.05873
1600.78219	0.05886
1599.49642	0.05899
1598.21065	0.05911
1596.92488	0.05922
1595.63911	0.05936
1594.35335	0.05955
1593.06758	0.05981
1591.78181	0.06012
1590.49604	0.06044
1589.21027	0.06079
1587.92450	0.06120
1586.63873	0.06170
1585.35296	0.06225
1584.06719	0.06281
1582.78143	0.06336
1581.49566	0.06389
1580.20989	0.06445
1578.92412	0.06507
1577.63835	0.06576
1576.35258	0.06649
1575.06681	0.06725
1573.78104	0.06803
1572.49528	0.06885
1571.20951	0.06973
1569.92374	0.07062
1568.63797	0.07145
1567.35220	0.07218
1566.06643	0.07282
1564.78066	0.07343
1563.49489	0.07407
1562.20912	0.07479
1560.92336	0.07557
1559.63759	0.07634
1558.35182	0.07707
1557.06605	0.07772
1555.78028	0.07831
1554.49451	0.07885
1553.20874	0.07931
1551.92297	0.07965
1550.63721	0.07987
1549.35144	0.08001
1548.06567	0.08009
1546.77990	0.08012
1545.49413	0.08008
1544.20836	0.07994
1542.92259	0.07969
1541.63682	0.07936
1540.35105	0.07896
1539.06529	0.07851
1537.77952	0.07799
1536.49375	0.07744
1535.20798	0.07693
1533.92221	0.07649
1532.63644	0.07614
1531.35067	0.07586
1530.06490	0.07564
1528.77914	0.07550
1527.49337	0.07546
1526.20760	0.07552
1524.92183	0.07566
1523.63606	0.07589
1522.35029	0.07625
1521.06452	0.07671
1519.77875	0.07727
1518.49298	0.07792
1517.20722	0.07867
1515.92145	0.07953
1514.63568	0.08048
1513.34991	0.08148
1512.06414	0.08254
1510.77837	0.08368
1509.49260	0.08494
1508.20683	0.08633
1506.92107	0.08777
1505.63530	0.08913
1504.34953	0.09035
1503.06376	0.09144
1501.77799	0.09247
1500.49222	0.09346
1499.20645	0.09438
1497.92068	0.09522
1496.63491	0.09599
1495.34915	0.09672
1494.06338	0.09742
1492.77761	0.09814
1491.49184	0.09890
1490.20607	0.09974
1488.92030	0.10064
1487.63453	0.10160
1486.34876	0.10264
1485.06299	0.10378
1483.77723	0.10505
1482.49146	0.10645
1481.20569	0.10793
1479.91992	0.10944
1478.63415	0.11092
1477.34838	0.11235
1476.06261	0.11378
1474.77684	0.11525
1473.49108	0.11678
1472.20531	0.11831
1470.91954	0.11981
1469.63377	0.12122
1468.34800	0.12257
1467.06223	0.12387
1465.77646	0.12513
1464.49069	0.12630
1463.20492	0.12738
1461.91916	0.12837
1460.63339	0.12933
1459.34762	0.13033
1458.06185	0.13138
1456.77608	0.13241
1455.49031	0.13333
1454.20454	0.13410
1452.91877	0.13472
1451.63301	0.13524
1450.34724	0.13566
1449.06147	0.13596
1447.77570	0.13608
1446.48993	0.13599
1445.20416	0.13571
1443.91839	0.13530
1442.63262	0.13484
1441.34685	0.13436
1440.06109	0.13386
1438.77532	0.13340
1437.48955	0.13302
1436.20378	0.13275
1434.91801	0.13263
1433.63224	0.13270
1432.34647	0.13304
1431.06070	0.13370
1429.77494	0.13469
1428.48917	0.13596
1427.20340	0.13745
1425.91763	0.13909
1424.63186	0.14083
1423.34609	0.14259
1422.06032	0.14429
1420.77455	0.14593
1419.48878	0.14750
1418.20302	0.14896
1416.91725	0.15024
1415.63148	0.15129
1414.34571	0.15208
1413.05994	0.15263
1411.77417	0.15293
1410.48840	0.15300
1409.20263	0.15281
1407.91687	0.15233
1406.63110	0.15156
1405.34533	0.15052
1404.05956	0.14925
1402.77379	0.14773
1401.48802	0.14597
1400.20225	0.14396
1398.91648	0.14177
1397.63071	0.13945
1396.34495	0.13702
1395.05918	0.13448
1393.77341	0.13183
1392.48764	0.12911
1391.20187	0.12639
1389.91610	0.12372
1388.63033	0.12116
1387.34456	0.11878
1386.05880	0.11659
1384.77303	0.11457
1383.48726	0.11265
1382.20149	0.11079
1380.91572	0.10896
1379.62995	0.10709
1378.34418	0.10514
1377.05841	0.10301
1375.77264	0.10066
1374.48688	0.09804
1373.20111	0.09518
1371.91534	0.09220
1370.62957	0.08925
1369.34380	0.08648
1368.05803	0.08395
1366.77226	0.08164
1365.48649	0.07944
1364.20073	0.07726
1362.91496	0.07508
1361.62919	0.07296
1360.34342	0.07097
1359.05765	0.06914
1357.77188	0.06747
1356.48611	0.06595
1355.20034	0.06459
1353.91457	0.06336
1352.62881	0.06226
1351.34304	0.06126
1350.05727	0.06033
1348.77150	0.05944
1347.48573	0.05856
1346.19996	0.05770
1344.91419	0.05689
1343.62842	0.05615
1342.34266	0.05545
1341.05689	0.05480
1339.77112	0.05419
1338.48535	0.05363
1337.19958	0.05310
1335.91381	0.05259
1334.62804	0.05204
1333.34227	0.05147
1332.05650	0.05089
1330.77074	0.05036
1329.48497	0.04988
1328.19920	0.04945
1326.91343	0.04904
1325.62766	0.04862
1324.34189	0.04818
1323.05612	0.04772
1321.77035	0.04728
1320.48459	0.04687
1319.19882	0.04652
1317.91305	0.04621
1316.62728	0.04593
1315.34151	0.04566
1314.05574	0.04540
1312.76997	0.04514
1311.48420	0.04485
1310.19843	0.04452
1308.91267	0.04418
1307.62690	0.04384
1306.34113	0.04350
1305.05536	0.04317
1303.76959	0.04283
1302.48382	0.04249
1301.19805	0.04214
1299.91228	0.04179
1298.62652	0.04144
1297.34075	0.04111
1296.05498	0.04079
1294.76921	0.04051
1293.48344	0.04025
1292.19767	0.04002
1290.91190	0.03980
1289.62613	0.03958
1288.34036	0.03934
1287.05460	0.03913
1285.76883	0.03896
1284.48306	0.03882
1283.19729	0.03866
1281.91152	0.03845
1280.62575	0.03821
1279.33998	0.03796
1278.05421	0.03773
1276.76845	0.03751
1275.48268	0.03730
1274.19691	0.03708
1272.91114	0.03687
1271.62537	0.03670
1270.33960	0.03655
1269.05383	0.03639
1267.76806	0.03621
1266.48229	0.03602
1265.19653	0.03584
1263.91076	0.03568
1262.62499	0.03553
1261.33922	0.03541
1260.05345	0.03531
1258.76768	0.03521
1257.48191	0.03510
1256.19614	0.03498
1254.91037	0.03487
1253.62461	0.03479
1252.33884	0.03473
1251.05307	0.03467
1249.76730	0.03461
1248.48153	0.03454
1247.19576	0.03447
1245.90999	0.03438
1244.62422	0.03429
1243.33846	0.03419
1242.05269	0.03409
1240.76692	0.03395
1239.48115	0.03373
1238.19538	0.03346
1236.90961	0.03320
1235.62384	0.03299
1234.33807	0.03281
1233.05230	0.03264
1231.76654	0.03246
1230.48077	0.03230
1229.19500	0.03215
1227.90923	0.03202
1226.62346	0.03188
1225.33769	0.03171
1224.05192	0.03150
1222.76615	0.03127
1221.48039	0.03101
1220.19462	0.03074
1218.90885	0.03047
1217.62308	0.03022
1216.33731	0.03004
1215.05154	0.02992
1213.76577	0.02987
1212.48000	0.02985
1211.19423	0.02983
1209.90847	0.02981
1208.62270	0.02981
1207.33693	0.02980
1206.05116	0.02974
1204.76539	0.02961
1203.47962	0.02944
1202.19385	0.02928
1200.90808	0.02916
1199.62232	0.02907
1198.33655	0.02898
1197.05078	0.02888
1195.76501	0.02878
1194.47924	0.02869
1193.19347	0.02862
1191.90770	0.02855
1190.62193	0.02844
1189.33616	0.02830
1188.05040	0.02817
1186.76463	0.02807
1185.47886	0.02802
1184.19309	0.02801
1182.90732	0.02804
1181.62155	0.02807
1180.33578	0.02807
1179.05001	0.02804
1177.76425	0.02801
1176.47848	0.02806
1175.19271	0.02823
1173.90694	0.02845
1172.62117	0.02864
1171.33540	0.02878
1170.04963	0.02889
1168.76386	0.02902
1167.47809	0.02919
1166.19233	0.02937
1164.90656	0.02957
1163.62079	0.02977
1162.33502	0.02995
1161.04925	0.03011
1159.76348	0.03027
1158.47771	0.03048
1157.19194	0.03076
1155.90618	0.03105
1154.62041	0.03131
1153.33464	0.03154
1152.04887	0.03181
1150.76310	0.03215
1149.47733	0.03256
1148.19156	0.03304
1146.90579	0.03360
1145.62002	0.03426
1144.33426	0.03498
1143.04849	0.03573
1141.76272	0.03653
1140.47695	0.03742
1139.19118	0.03844
1137.90541	0.03965
1136.61964	0.04105
1135.33387	0.04260
1134.04811	0.04428
1132.76234	0.04610
1131.47657	0.04813
1130.19080	0.05044
1128.90503	0.05304
1127.61926	0.05590
1126.33349	0.05901
1125.04772	0.06237
1123.76195	0.06597
1122.47619	0.06978
1121.19042	0.07372
1119.90465	0.07772
1118.61888	0.08174
1117.33311	0.08575
1116.04734	0.08973
1114.76157	0.09368
1113.47580	0.09758
1112.19004	0.10140
1110.90427	0.10514
1109.61850	0.10878
1108.33273	0.11228
1107.04696	0.11563
1105.76119	0.11880
1104.47542	0.12180
1103.18965	0.12465
1101.90388	0.12736
1100.61812	0.12992
1099.33235	0.13233
1098.04658	0.13465
1096.76081	0.13687
1095.47504	0.13900
1094.18927	0.14101
1092.90350	0.14288
1091.61773	0.14459
1090.33197	0.14615
1089.04620	0.14759
1087.76043	0.14895
1086.47466	0.15031
1085.18889	0.15173
1083.90312	0.15322
1082.61735	0.15479
1081.33158	0.15648
1080.04581	0.15832
1078.76005	0.16030
1077.47428	0.16238
1076.18851	0.16453
1074.90274	0.16676
1073.61697	0.16918
1072.33120	0.17183
1071.04543	0.17468
1069.75966	0.17761
1068.47390	0.18049
1067.18813	0.18336
1065.90236	0.18631
1064.61659	0.18944
1063.33082	0.19269
1062.04505	0.19594
1060.75928	0.19914
1059.47351	0.20231
1058.18774	0.20551
1056.90198	0.20876
1055.61621	0.21203
1054.33044	0.21530
1053.04467	0.21856
1051.75890	0.22181
1050.47313	0.22503
1049.18736	0.22830
1047.90159	0.23169
1046.61583	0.23527
1045.33006	0.23900
1044.04429	0.24281
1042.75852	0.24667
1041.47275	0.25060
1040.18698	0.25464
1038.90121	0.25883
1037.61544	0.26312
1036.32967	0.26743
1035.04391	0.27165
1033.75814	0.27570
1032.47237	0.27952
1031.18660	0.28310
1029.90083	0.28644
1028.61506	0.28954
1027.32929	0.29239
1026.04352	0.29496
1024.75775	0.29723
1023.47199	0.29916
1022.18622	0.30077
1020.90045	0.30206
1019.61468	0.30301
1018.32891	0.30357
1017.04314	0.30370
1015.75737	0.30337
1014.47160	0.30257
1013.18584	0.30127
1011.90007	0.29949
1010.61430	0.29725
1009.32853	0.29459
1008.04276	0.29153
1006.75699	0.28807
1005.47122	0.28423
1004.18545	0.28000
1002.89968	0.27539
1001.61392	0.27046
1000.32815	0.26527
999.04238	0.25985
997.75661	0.25417
996.47084	0.24821
995.18507	0.24199
993.89930	0.23561
992.61353	0.22921
991.32777	0.22289
990.04200	0.21670
988.75623	0.21064
987.47046	0.20469
986.18469	0.19884
984.89892	0.19308
983.61315	0.18742
982.32738	0.18195
981.04161	0.17676
979.75585	0.17189
978.47008	0.16733
977.18431	0.16302
975.89854	0.15899
974.61277	0.15536
973.32700	0.15227
972.04123	0.14976
970.75546	0.14781
969.46970	0.14644
968.18393	0.14575
966.89816	0.14578
965.61239	0.14640
964.32662	0.14734
963.04085	0.14825
961.75508	0.14885
960.46931	0.14895
959.18354	0.14841
957.89778	0.14720
956.61201	0.14532
955.32624	0.14288
954.04047	0.14005
952.75470	0.13705
951.46893	0.13406
950.18316	0.13116
948.89739	0.12837
947.61163	0.12566
946.32586	0.12299
945.04009	0.12030
943.75432	0.11759
942.46855	0.11493
941.18278	0.11241
939.89701	0.11005
938.61124	0.10781
937.32547	0.10562
936.03971	0.10351
934.75394	0.10155
933.46817	0.09978
932.18240	0.09816
930.89663	0.09663
929.61086	0.09512
928.32509	0.09361
927.03932	0.09214
925.75356	0.09078
924.46779	0.08958
923.18202	0.08852
921.89625	0.08752
920.61048	0.08651
919.32471	0.08552
918.03894	0.08457
916.75317	0.08366
915.46740	0.08275
914.18164	0.08184
912.89587	0.08096
911.61010	0.08012
910.32433	0.07929
909.03856	0.07846
907.75279	0.07764
906.46702	0.07684
905.18125	0.07605
903.89549	0.07528
902.60972	0.07455
901.32395	0.07386
900.03818	0.07318
898.75241	0.07252
897.46664	0.07192
896.18087	0.07136
894.89510	0.07084
893.60933	0.07035
892.32357	0.06995
891.03780	0.06973
889.75203	0.06970
888.46626	0.06984
887.18049	0.07024
885.89472	0.07117
884.60895	0.07295
883.32318	0.07574
882.03742	0.07929
880.75165	0.08299
879.46588	0.08618
878.18011	0.08858
876.89434	0.09043
875.60857	0.09218
874.32280	0.09405
873.03703	0.09579
871.75126	0.09690
870.46550	0.09696
869.17973	0.09593
867.89396	0.09399
866.60819	0.09140
865.32242	0.08846
864.03665	0.08545
862.75088	0.08263
861.46511	0.08008
860.17935	0.07784
858.89358	0.07588
857.60781	0.07420
856.32204	0.07274
855.03627	0.07144
853.75050	0.07025
852.46473	0.06915
851.17896	0.06815
849.89319	0.06724
848.60743	0.06641
847.32166	0.06566
846.03589	0.06497
844.75012	0.06437
843.46435	0.06383
842.17858	0.06330
840.89281	0.06275
839.60704	0.06219
838.32128	0.06165
837.03551	0.06115
835.74974	0.06068
834.46397	0.06020
833.17820	0.05974
831.89243	0.05933
830.60666	0.05897
829.32089	0.05867
828.03512	0.05839
826.74936	0.05813
825.46359	0.05789
824.17782	0.05764
822.89205	0.05740
821.60628	0.05722
820.32051	0.05716
819.03474	0.05722
817.74897	0.05726
816.46321	0.05718
815.17744	0.05698
813.89167	0.05675
812.60590	0.05657
811.32013	0.05650
810.03436	0.05650
808.74859	0.05650
807.46282	0.05644
806.17705	0.05631
804.89129	0.05615
803.60552	0.05602
802.31975	0.05595
801.03398	0.05592
799.74821	0.05589
798.46244	0.05579
797.17667	0.05558
795.89090	0.05529
794.60513	0.05502
793.31937	0.05484
792.03360	0.05476
790.74783	0.05472
789.46206	0.05468
788.17629	0.05464
786.89052	0.05458
785.60475	0.05448
784.31898	0.05434
783.03322	0.05416
781.74745	0.05398
780.46168	0.05382
779.17591	0.05365
777.89014	0.05346
776.60437	0.05330
775.31860	0.05322
774.03283	0.05322
772.74706	0.05322
771.46130	0.05317
770.17553	0.05306
768.88976	0.05295
767.60399	0.05287
766.31822	0.05284
765.03245	0.05287
763.74668	0.05297
762.46091	0.05312
761.17515	0.05326
759.88938	0.05336
758.60361	0.05338
757.31784	0.05333
756.03207	0.05318
754.74630	0.05299
753.46053	0.05283
752.17476	0.05277
750.88899	0.05281
749.60323	0.05290
748.31746	0.05298
747.03169	0.05297
745.74592	0.05288
744.46015	0.05273
743.17438	0.05255
741.88861	0.05229
740.60284	0.05197
739.31708	0.05167
738.03131	0.05146
736.74554	0.05135
735.45977	0.05126
734.17400	0.05116
732.88823	0.05102
731.60246	0.05093
730.31669	0.05096
729.03092	0.05110
727.74516	0.05127
726.45939	0.05132
725.17362	0.05123
723.88785	0.05111
722.60208	0.05094
721.31631	0.05079
720.03054	0.05072
718.74477	0.05069
717.45901	0.05062
716.17324	0.05047
714.88747	0.05028
713.60170	0.05010
712.31593	0.04995
711.03016	0.04983
709.74439	0.04969
708.45862	0.04951
707.17285	0.04932
705.88709	0.04914
704.60132	0.04901
703.31555	0.04893
702.02978	0.04889
700.74401	0.04887
699.45824	0.04883
698.17247	0.04876
696.88670	0.04867
695.60094	0.04856
694.31517	0.04844
693.02940	0.04829
691.74363	0.04813
690.45786	0.04795
689.17209	0.04775
687.88632	0.04753
686.60055	0.04729
685.31478	0.04705
684.02902	0.04683
682.74325	0.04667
681.45748	0.04658
680.17171	0.04654
678.88594	0.04651
677.60017	0.04648
676.31440	0.04644
675.02863	0.04640
673.74287	0.04633
672.45710	0.04620
671.17133	0.04599
669.88556	0.04583
668.59979	0.04586
667.31402	0.04603
666.02825	0.04611
664.74248	0.04603
663.45671	0.04579
662.17095	0.04544
660.88518	0.04505
659.59941	0.04470
658.31364	0.04441
657.02787	0.04419
655.74210	0.04401
654.45633	0.04387
653.17056	0.04376
651.88480	0.04368
650.59903	0.04363
649.31326	0.04358
648.02749	0.04348
646.74172	0.04335
645.45595	0.04325
644.17018	0.04322
642.88441	0.04327
641.59864	0.04335
640.31288	0.04341
639.02711	0.04345
637.74134	0.04349
636.45557	0.04356
635.16980	0.04369
633.88403	0.04389
632.59826	0.04418
631.31249	0.04460
630.02673	0.04516
628.74096	0.04584
627.45519	0.04659
626.16942	0.04766
624.88365	0.04896
623.59788	0.05054
622.31211	0.05297
621.02634	0.05669
619.74057	0.06113
618.45481	0.06513
617.16904	0.06808
615.88327	0.07035
614.59750	0.07282
613.31173	0.07628
612.02596	0.08123
610.74019	0.08757
609.45442	0.09434
608.16866	0.10021
606.88289	0.10460
605.59712	0.10794
604.31135	0.11094
603.02558	0.11387
601.73981	0.11636
600.45404	0.11770
599.16827	0.11727
597.88250	0.11506
596.59674	0.11163
595.31097	0.10775
594.02520	0.10406
592.73943	0.10091
591.45366	0.09846
590.16789	0.09676
588.88212	0.09590
587.59635	0.09589
586.31059	0.09660
585.02482	0.09780
583.73905	0.09930
582.45328	0.10107
581.16751	0.10316
579.88174	0.10559
578.59597	0.10828
577.31020	0.11107
576.02443	0.11381
574.73867	0.11635
573.45290	0.11861
572.16713	0.12062
570.88136	0.12265
569.59559	0.12516
568.30982	0.12852
567.02405	0.13276
565.73828	0.13747
564.45251	0.14206
563.16675	0.14595
561.88098	0.14875
560.59521	0.15008
559.30944	0.14963
558.02367	0.14731
556.73790	0.14337
555.45213	0.13830
554.16636	0.13261
552.88060	0.12675
551.59483	0.12103
550.30906	0.11564
549.02329	0.11064
547.73752	0.10604
546.45175	0.10179
545.16598	0.09786
543.88021	0.09421
542.59444	0.09085
541.30868	0.08782
540.02291	0.08510
538.73714	0.08269
537.45137	0.08053
536.16560	0.07859
534.87983	0.07680
533.59406	0.07508
532.30829	0.07337
531.02253	0.07170
529.73676	0.07016
528.45099	0.06875
527.16522	0.06746
525.87945	0.06621
524.59368	0.06493
523.30791	0.06360
522.02214	0.06223
520.73637	0.06093
519.45061	0.05979
518.16484	0.05884
516.87907	0.05801
515.59330	0.05718
514.30753	0.05628
513.02176	0.05534
511.73599	0.05441
510.45022	0.05354
509.16446	0.05276
507.87869	0.05205
506.59292	0.05137
505.30715	0.05065
504.02138	0.04987
502.73561	0.04905
501.44984	0.04826
500.16407	0.04761
498.87830	0.04714
497.59254	0.04678
496.30677	0.04640
495.02100	0.04592
493.73523	0.04546
492.44946	0.04510
491.16369	0.04488
489.87792	0.04467
488.59215	0.04439
487.30639	0.04406
486.02062	0.04376
484.73485	0.04357
483.44908	0.04351
482.16331	0.04357
480.87754	0.04371
479.59177	0.04393
478.30600	0.04421
477.02023	0.04454
475.73447	0.04488
474.44870	0.04522
473.16293	0.04554
471.87716	0.04575
470.59139	0.04582
469.30562	0.04574
468.01985	0.04556
466.73408	0.04534
465.44832	0.04506
464.16255	0.04468
462.87678	0.04416
461.59101	0.04361
460.30524	0.04312
459.01947	0.04275
457.73370	0.04245
456.44793	0.04212
455.16216	0.04169
453.87640	0.04119
452.59063	0.04067
451.30486	0.04019
450.01909	0.03979
448.73332	0.03944
447.44755	0.03910
446.16178	0.03875
444.87601	0.03840
443.59025	0.03806
442.30448	0.03776
441.01871	0.03748
439.73294	0.03723
438.44717	0.03698
437.16140	0.03674
435.87563	0.03653
434.58986	0.03636
433.30409	0.03625
432.01833	0.03618
430.73256	0.03613
429.44679	0.03604
428.16102	0.03588
426.87525	0.03562
425.58948	0.03533
424.30371	0.03508
423.01794	0.03486
421.73218	0.03465
420.44641	0.03442
419.16064	0.03416
417.87487	0.03391
416.58910	0.03367
415.30333	0.03342
414.01756	0.03312
412.73179	0.03275
411.44602	0.03237
410.16026	0.03206
408.87449	0.03188
407.58872	0.03185
406.30295	0.03190
405.01718	0.03199
403.73141	0.03208
402.44564	0.03218
401.15987	0.03232
399.87411	0.03248
