3997.45528	0.05114
3996.16951	0.05073
3994.88374	0.05017
3993.59798	0.04967
3992.31221	0.04940
3991.02644	0.04919
3989.74067	0.04883
3988.45490	0.04844
3987.16913	0.04843
3985.88336	0.04904
3984.59759	0.05000
3983.31183	0.05077
3982.02606	0.05080
3980.74029	0.04995
3979.45452	0.04859
3978.16875	0.04737
3976.88298	0.04675
3975.59721	0.04673
3974.31144	0.04702
3973.02567	0.04741
3971.73991	0.04781
3970.45414	0.04818
3969.16837	0.04844
3967.88260	0.04854
3966.59683	0.04833
3965.31106	0.04769
3964.02529	0.04680
3962.73952	0.04621
3961.45376	0.04629
3960.16799	0.04679
3958.88222	0.04709
3957.59645	0.04681
3956.31068	0.04608
3955.02491	0.04524
3953.73914	0.04458
3952.45337	0.04428
3951.16760	0.04442
3949.88184	0.04490
3948.59607	0.04548
3947.31030	0.04605
3946.02453	0.04662
3944.73876	0.04708
3943.45299	0.04715
3942.16722	0.04652
3940.88145	0.04531
3939.59569	0.04410
3938.30992	0.04362
3937.02415	0.04411
3935.73838	0.04505
3934.45261	0.04568
3933.16684	0.04571
3931.88107	0.04549
3930.59530	0.04553
3929.30953	0.04601
3928.02377	0.04665
3926.73800	0.04700
3925.45223	0.04675
3924.16646	0.04603
3922.88069	0.04526
3921.59492	0.04480
3920.30915	0.04470
3919.02338	0.04466
3917.73762	0.04449
3916.45185	0.04427
3915.16608	0.04416
3913.88031	0.04417
3912.59454	0.04410
3911.30877	0.04387
3910.02300	0.04362
3908.73723	0.04364
3907.45146	0.04408
3906.16570	0.04470
3904.87993	0.04512
3903.59416	0.04517
3902.30839	0.04504
3901.02262	0.04497
3899.73685	0.04504
3898.45108	0.04503
3897.16531	0.04473
3895.87955	0.04418
3894.59378	0.04369
3893.30801	0.04345
3892.02224	0.04334
3890.73647	0.04317
3889.45070	0.04296
3888.16493	0.04295
3886.87916	0.04344
3885.59339	0.04435
3884.30763	0.04519
3883.02186	0.04538
3881.73609	0.04483
3880.45032	0.04393
3879.16455	0.04319
3877.87878	0.04291
3876.59301	0.04311
3875.30724	0.04351
3874.02148	0.04364
3872.73571	0.04311
3871.44994	0.04218
3870.16417	0.04171
3868.87840	0.04228
3867.59263	0.04345
3866.30686	0.04426
3865.02109	0.04430
3863.73532	0.04379
3862.44956	0.04314
3861.16379	0.04263
3859.87802	0.04228
3858.59225	0.04195
3857.30648	0.04157
3856.02071	0.04122
3854.73494	0.04114
3853.44917	0.04151
3852.16341	0.04212
3850.87764	0.04255
3849.59187	0.04260
3848.30610	0.04237
3847.02033	0.04195
3845.73456	0.04147
3844.44879	0.04122
3843.16302	0.04142
3841.87725	0.04196
3840.59149	0.04238
3839.30572	0.04244
3838.01995	0.04245
3836.73418	0.04281
3835.44841	0.04333
3834.16264	0.04344
3832.87687	0.04284
3831.59110	0.04181
3830.30534	0.04088
3829.01957	0.04047
3827.73380	0.04073
3826.44803	0.04159
3825.16226	0.04261
3823.87649	0.04309
3822.59072	0.04265
3821.30495	0.04174
3820.01918	0.04110
3818.73342	0.04094
3817.44765	0.04094
3816.16188	0.04092
3814.87611	0.04094
3813.59034	0.04107
3812.30457	0.04131
3811.01880	0.04153
3809.73303	0.04134
3808.44726	0.04052
3807.16150	0.03950
3805.87573	0.03884
3804.58996	0.03847
3803.30419	0.03798
3802.01842	0.03749
3800.73265	0.03758
3799.44688	0.03830
3798.16111	0.03914
3796.87535	0.03972
3795.58958	0.04004
3794.30381	0.04017
3793.01804	0.04013
3791.73227	0.03999
3790.44650	0.03984
3789.16073	0.03967
3787.87496	0.03936
3786.58919	0.03884
3785.30343	0.03824
3784.01766	0.03786
3782.73189	0.03794
3781.44612	0.03841
3780.16035	0.03905
3778.87458	0.03962
3777.58881	0.03989
3776.30304	0.03973
3775.01728	0.03926
3773.73151	0.03884
3772.44574	0.03875
3771.15997	0.03898
3769.87420	0.03933
3768.58843	0.03956
3767.30266	0.03958
3766.01689	0.03964
3764.73112	0.04001
3763.44536	0.04062
3762.15959	0.04108
3760.87382	0.04115
3759.58805	0.04093
3758.30228	0.04058
3757.01651	0.04009
3755.73074	0.03939
3754.44497	0.03848
3753.15921	0.03765
3751.87344	0.03732
3750.58767	0.03773
3749.30190	0.03871
3748.01613	0.03978
3746.73036	0.04029
3745.44459	0.04009
3744.15882	0.03960
3742.87305	0.03918
3741.58729	0.03883
3740.30152	0.03869
3739.01575	0.03886
3737.72998	0.03917
3736.44421	0.03935
3735.15844	0.03934
3733.87267	0.03910
3732.58690	0.03867
3731.30114	0.03823
3730.01537	0.03796
3728.72960	0.03791
3727.44383	0.03816
3726.15806	0.03866
3724.87229	0.03909
3723.58652	0.03907
3722.30075	0.03855
3721.01498	0.03789
3719.72922	0.03746
3718.44345	0.03743
3717.15768	0.03768
3715.87191	0.03805
3714.58614	0.03835
3713.30037	0.03837
3712.01460	0.03795
3710.72883	0.03713
3709.44307	0.03629
3708.15730	0.03592
3706.87153	0.03612
3705.58576	0.03658
3704.29999	0.03693
3703.01422	0.03708
3701.72845	0.03721
3700.44268	0.03762
3699.15691	0.03839
3697.87115	0.03915
3696.58538	0.03959
3695.29961	0.03983
3694.01384	0.04013
3692.72807	0.04033
3691.44230	0.03998
3690.15653	0.03887
3688.87076	0.03745
3687.58500	0.03654
3686.29923	0.03647
3685.01346	0.03671
3683.72769	0.03668
3682.44192	0.03638
3681.15615	0.03620
3679.87038	0.03636
3678.58461	0.03666
3677.29884	0.03674
3676.01308	0.03668
3674.72731	0.03694
3673.44154	0.03763
3672.15577	0.03840
3670.87000	0.03902
3669.58423	0.03944
3668.29846	0.03947
3667.01269	0.03887
3665.72693	0.03779
3664.44116	0.03675
3663.15539	0.03639
3661.86962	0.03689
3660.58385	0.03777
3659.29808	0.03827
3658.01231	0.03810
3656.72654	0.03767
3655.44077	0.03760
3654.15501	0.03794
3652.86924	0.03825
3651.58347	0.03825
3650.29770	0.03816
3649.01193	0.03830
3647.72616	0.03868
3646.44039	0.03907
3645.15462	0.03934
3643.86886	0.03951
3642.58309	0.03965
3641.29732	0.03981
3640.01155	0.04009
3638.72578	0.04062
3637.44001	0.04124
3636.15424	0.04156
3634.86847	0.04134
3633.58270	0.04082
3632.29694	0.04041
3631.01117	0.04036
3629.72540	0.04073
3628.43963	0.04146
3627.15386	0.04223
3625.86809	0.04258
3624.58232	0.04239
3623.29655	0.04201
3622.01079	0.04191
3620.72502	0.04220
3619.43925	0.04269
3618.15348	0.04304
3616.86771	0.04293
3615.58194	0.04230
3614.29617	0.04138
3613.01040	0.04057
3611.72463	0.04022
3610.43887	0.04045
3609.15310	0.04118
3607.86733	0.04217
3606.58156	0.04303
3605.29579	0.04345
3604.01002	0.04352
3602.72425	0.04362
3601.43848	0.04409
3600.15272	0.04498
3598.86695	0.04594
3597.58118	0.04646
3596.29541	0.04628
3595.00964	0.04565
3593.72387	0.04502
3592.43810	0.04453
3591.15233	0.04418
3589.86656	0.04423
3588.58080	0.04497
3587.29503	0.04617
3586.00926	0.04715
3584.72349	0.04742
3583.43772	0.04699
3582.15195	0.04629
3580.86618	0.04572
3579.58041	0.04548
3578.29464	0.04550
3577.00888	0.04561
3575.72311	0.04571
3574.43734	0.04588
3573.15157	0.04622
3571.86580	0.04675
3570.58003	0.04735
3569.29426	0.04788
3568.00849	0.04825
3566.72273	0.04847
3565.43696	0.04861
3564.15119	0.04869
3562.86542	0.04869
3561.57965	0.04859
3560.29388	0.04833
3559.00811	0.04793
3557.72234	0.04744
3556.43657	0.04699
3555.15081	0.04674
3553.86504	0.04676
3552.57927	0.04713
3551.29350	0.04780
3550.00773	0.04859
3548.72196	0.04929
3547.43619	0.04980
3546.15042	0.05015
3544.86466	0.05034
3543.57889	0.05035
3542.29312	0.05030
3541.00735	0.05038
3539.72158	0.05055
3538.43581	0.05057
3537.15004	0.05027
3535.86427	0.04970
3534.57850	0.04909
3533.29274	0.04864
3532.00697	0.04852
3530.72120	0.04876
3529.43543	0.04920
3528.14966	0.04962
3526.86389	0.04991
3525.57812	0.05013
3524.29235	0.05039
3523.00659	0.05075
3521.72082	0.05111
3520.43505	0.05125
3519.14928	0.05105
3517.86351	0.05071
3516.57774	0.05054
3515.29197	0.05065
3514.00620	0.05082
3512.72043	0.05087
3511.43467	0.05076
3510.14890	0.05061
3508.86313	0.05062
3507.57736	0.05099
3506.29159	0.05180
3505.00582	0.05281
3503.72005	0.05357
3502.43428	0.05376
3501.14852	0.05343
3499.86275	0.05300
3498.57698	0.05288
3497.29121	0.05308
3496.00544	0.05325
3494.71967	0.05310
3493.43390	0.05273
3492.14813	0.05258
3490.86236	0.05304
3489.57660	0.05401
3488.29083	0.05501
3487.00506	0.05555
3485.71929	0.05543
3484.43352	0.05484
3483.14775	0.05410
3481.86198	0.05349
3480.57621	0.05318
3479.29045	0.05322
3478.00468	0.05347
3476.71891	0.05372
3475.43314	0.05385
3474.14737	0.05392
3472.86160	0.05403
3471.57583	0.05414
3470.29006	0.05420
3469.00429	0.05433
3467.71853	0.05473
3466.43276	0.05542
3465.14699	0.05613
3463.86122	0.05653
3462.57545	0.05658
3461.28968	0.05647
3460.00391	0.05646
3458.71814	0.05662
3457.43238	0.05689
3456.14661	0.05714
3454.86084	0.05730
3453.57507	0.05728
3452.28930	0.05703
3451.00353	0.05664
3449.71776	0.05640
3448.43199	0.05651
3447.14622	0.05692
3445.86046	0.05732
3444.57469	0.05745
3443.28892	0.05729
3442.00315	0.05701
3440.71738	0.05688
3439.43161	0.05704
3438.14584	0.05733
3436.86007	0.05748
3435.57431	0.05732
3434.28854	0.05696
3433.00277	0.05659
3431.71700	0.05643
3430.43123	0.05660
3429.14546	0.05713
3427.85969	0.05783
3426.57392	0.05847
3425.28815	0.05893
3424.00239	0.05927
3422.71662	0.05956
3421.43085	0.05973
3420.14508	0.05963
3418.85931	0.05920
3417.57354	0.05860
3416.28777	0.05809
3415.00200	0.05789
3413.71624	0.05796
3412.43047	0.05810
3411.14470	0.05814
3409.85893	0.05802
3408.57316	0.05781
3407.28739	0.05757
3406.00162	0.05749
3404.71585	0.05771
3403.43008	0.05819
3402.14432	0.05857
3400.85855	0.05850
3399.57278	0.05804
3398.28701	0.05763
3397.00124	0.05773
3395.71547	0.05836
3394.42970	0.05908
3393.14393	0.05948
3391.85817	0.05950
3390.57240	0.05934
3389.28663	0.05913
3388.00086	0.05883
3386.71509	0.05832
3385.42932	0.05757
3384.14355	0.05673
3382.85778	0.05614
3381.57201	0.05606
3380.28625	0.05653
3379.00048	0.05732
3377.71471	0.05816
3376.42894	0.05885
3375.14317	0.05928
3373.85740	0.05942
3372.57163	0.05927
3371.28586	0.05893
3370.00010	0.05865
3368.71433	0.05868
3367.42856	0.05907
3366.14279	0.05959
3364.85702	0.05983
3363.57125	0.05958
3362.28548	0.05900
3360.99971	0.05854
3359.71394	0.05851
3358.42818	0.05890
3357.14241	0.05945
3355.85664	0.05984
3354.57087	0.05988
3353.28510	0.05959
3351.99933	0.05923
3350.71356	0.05904
3349.42779	0.05902
3348.14202	0.05892
3346.85626	0.05856
3345.57049	0.05803
3344.28472	0.05755
3342.99895	0.05730
3341.71318	0.05735
3340.42741	0.05767
3339.14164	0.05817
3337.85587	0.05868
3336.57011	0.05892
3335.28434	0.05876
3333.99857	0.05837
3332.71280	0.05811
3331.42703	0.05820
3330.14126	0.05851
3328.85549	0.05881
3327.56972	0.05902
3326.28395	0.05924
3324.99819	0.05948
3323.71242	0.05959
3322.42665	0.05938
3321.14088	0.05892
3319.85511	0.05842
3318.56934	0.05808
3317.28357	0.05797
3315.99780	0.05800
3314.71204	0.05813
3313.42627	0.05832
3312.14050	0.05855
3310.85473	0.05873
3309.56896	0.05870
3308.28319	0.05837
3306.99742	0.05785
3305.71165	0.05735
3304.42588	0.05699
3303.14012	0.05675
3301.85435	0.05660
3300.56858	0.05661
3299.28281	0.05677
3297.99704	0.05694
3296.71127	0.05698
3295.42550	0.05697
3294.13973	0.05708
3292.85397	0.05734
3291.56820	0.05757
3290.28243	0.05752
3288.99666	0.05711
3287.71089	0.05645
3286.42512	0.05580
3285.13935	0.05542
3283.85358	0.05541
3282.56781	0.05574
3281.28205	0.05629
3279.99628	0.05681
3278.71051	0.05708
3277.42474	0.05698
3276.13897	0.05659
3274.85320	0.05611
3273.56743	0.05580
3272.28166	0.05584
3270.99590	0.05614
3269.71013	0.05639
3268.42436	0.05632
3267.13859	0.05599
3265.85282	0.05570
3264.56705	0.05567
3263.28128	0.05590
3261.99551	0.05628
3260.70974	0.05674
3259.42398	0.05720
3258.13821	0.05747
3256.85244	0.05731
3255.56667	0.05666
3254.28090	0.05583
3252.99513	0.05526
3251.70936	0.05517
3250.42359	0.05537
3249.13783	0.05555
3247.85206	0.05556
3246.56629	0.05554
3245.28052	0.05569
3243.99475	0.05605
3242.70898	0.05644
3241.42321	0.05663
3240.13744	0.05654
3238.85167	0.05624
3237.56591	0.05585
3236.28014	0.05543
3234.99437	0.05496
3233.70860	0.05445
3232.42283	0.05404
3231.13706	0.05393
3229.85129	0.05420
3228.56552	0.05459
3227.27976	0.05479
3225.99399	0.05471
3224.70822	0.05452
3223.42245	0.05440
3222.13668	0.05439
3220.85091	0.05445
3219.56514	0.05455
3218.27937	0.05459
3216.99360	0.05450
3215.70784	0.05433
3214.42207	0.05423
3213.13630	0.05423
3211.85053	0.05417
3210.56476	0.05385
3209.27899	0.05329
3207.99322	0.05268
3206.70745	0.05226
3205.42169	0.05212
3204.13592	0.05228
3202.85015	0.05272
3201.56438	0.05327
3200.27861	0.05365
3198.99284	0.05368
3197.70707	0.05348
3196.42130	0.05331
3195.13553	0.05330
3193.84977	0.05329
3192.56400	0.05313
3191.27823	0.05282
3189.99246	0.05251
3188.70669	0.05232
3187.42092	0.05228
3186.13515	0.05234
3184.84938	0.05234
3183.56362	0.05216
3182.27785	0.05186
3180.99208	0.05164
3179.70631	0.05165
3178.42054	0.05186
3177.13477	0.05209
3175.84900	0.05210
3174.56323	0.05175
3173.27746	0.05114
3171.99170	0.05053
3170.70593	0.05015
3169.42016	0.05001
3168.13439	0.04996
3166.84862	0.04992
3165.56285	0.04992
3164.27708	0.05003
3162.99131	0.05023
3161.70555	0.05038
3160.41978	0.05032
3159.13401	0.05005
3157.84824	0.04978
3156.56247	0.04975
3155.27670	0.05001
3153.99093	0.05032
3152.70516	0.05045
3151.41939	0.05039
3150.13363	0.05035
3148.84786	0.05041
3147.56209	0.05046
3146.27632	0.05038
3144.99055	0.05016
3143.70478	0.04983
3142.41901	0.04942
3141.13324	0.04904
3139.84748	0.04882
3138.56171	0.04884
3137.27594	0.04902
3135.99017	0.04922
3134.70440	0.04933
3133.41863	0.04935
3132.13286	0.04927
3130.84709	0.04913
3129.56132	0.04890
3128.27556	0.04859
3126.98979	0.04825
3125.70402	0.04796
3124.41825	0.04777
3123.13248	0.04769
3121.84671	0.04767
3120.56094	0.04763
3119.27517	0.04757
3117.98940	0.04753
3116.70364	0.04756
3115.41787	0.04755
3114.13210	0.04741
3112.84633	0.04719
3111.56056	0.04704
3110.27479	0.04705
3108.98902	0.04708
3107.70325	0.04696
3106.41749	0.04667
3105.13172	0.04638
3103.84595	0.04622
3102.56018	0.04616
3101.27441	0.04614
3099.98864	0.04616
3098.70287	0.04626
3097.41710	0.04639
3096.13133	0.04644
3094.84557	0.04643
3093.55980	0.04642
3092.27403	0.04643
3090.98826	0.04635
3089.70249	0.04605
3088.41672	0.04552
3087.13095	0.04497
3085.84518	0.04467
3084.55942	0.04477
3083.27365	0.04513
3081.98788	0.04547
3080.70211	0.04553
3079.41634	0.04528
3078.13057	0.04485
3076.84480	0.04448
3075.55903	0.04435
3074.27326	0.04451
3072.98750	0.04481
3071.70173	0.04506
3070.41596	0.04513
3069.13019	0.04509
3067.84442	0.04496
3066.55865	0.04470
3065.27288	0.04424
3063.98711	0.04363
3062.70135	0.04312
3061.41558	0.04293
3060.12981	0.04311
3058.84404	0.04346
3057.55827	0.04368
3056.27250	0.04357
3054.98673	0.04320
3053.70096	0.04282
3052.41519	0.04270
3051.12943	0.04289
3049.84366	0.04326
3048.55789	0.04362
3047.27212	0.04380
3045.98635	0.04376
3044.70058	0.04355
3043.41481	0.04328
3042.12904	0.04301
3040.84328	0.04273
3039.55751	0.04246
3038.27174	0.04225
3036.98597	0.04208
3035.70020	0.04184
3034.41443	0.04149
3033.12866	0.04116
3031.84289	0.04109
3030.55712	0.04132
3029.27136	0.04169
3027.98559	0.04193
3026.69982	0.04192
3025.41405	0.04175
3024.12828	0.04161
3022.84251	0.04156
3021.55674	0.04150
3020.27097	0.04129
3018.98521	0.04090
3017.69944	0.04049
3016.41367	0.04029
3015.12790	0.04039
3013.84213	0.04071
3012.55636	0.04104
3011.27059	0.04124
3009.98482	0.04122
3008.69905	0.04096
3007.41329	0.04051
3006.12752	0.04004
3004.84175	0.03968
3003.55598	0.03949
3002.27021	0.03942
3000.98444	0.03945
2999.69867	0.03959
2998.41290	0.03983
2997.12714	0.04005
2995.84137	0.04009
2994.55560	0.03996
2993.26983	0.03989
2991.98406	0.04004
2990.69829	0.04029
2989.41252	0.04042
2988.12675	0.04036
2986.84098	0.04025
2985.55522	0.04015
2984.26945	0.04003
2982.98368	0.03992
2981.69791	0.03999
2980.41214	0.04030
2979.12637	0.04074
2977.84060	0.04114
2976.55483	0.04139
2975.26907	0.04149
2973.98330	0.04148
2972.69753	0.04142
2971.41176	0.04138
2970.12599	0.04147
2968.84022	0.04176
2967.55445	0.04225
2966.26868	0.04278
2964.98291	0.04317
2963.69715	0.04342
2962.41138	0.04365
2961.12561	0.04396
2959.83984	0.04427
2958.55407	0.04445
2957.26830	0.04446
2955.98253	0.04439
2954.69676	0.04437
2953.41100	0.04451
2952.12523	0.04474
2950.83946	0.04492
2949.55369	0.04496
2948.26792	0.04486
2946.98215	0.04466
2945.69638	0.04440
2944.41061	0.04414
2943.12484	0.04398
2941.83908	0.04393
2940.55331	0.04395
2939.26754	0.04401
2937.98177	0.04414
2936.69600	0.04430
2935.41023	0.04447
2934.12446	0.04464
2932.83869	0.04479
2931.55293	0.04493
2930.26716	0.04510
2928.98139	0.04539
2927.69562	0.04578
2926.40985	0.04609
2925.12408	0.04617
2923.83831	0.04605
2922.55254	0.04588
2921.26677	0.04573
2919.98101	0.04558
2918.69524	0.04531
2917.40947	0.04485
2916.12370	0.04421
2914.83793	0.04352
2913.55216	0.04294
2912.26639	0.04259
2910.98062	0.04253
2909.69486	0.04266
2908.40909	0.04272
2907.12332	0.04248
2905.83755	0.04195
2904.55178	0.04131
2903.26601	0.04079
2901.98024	0.04054
2900.69447	0.04056
2899.40870	0.04077
2898.12294	0.04096
2896.83717	0.04098
2895.55140	0.04077
2894.26563	0.04041
2892.97986	0.04004
2891.69409	0.03981
2890.40832	0.03971
2889.12255	0.03964
2887.83678	0.03949
2886.55102	0.03924
2885.26525	0.03897
2883.97948	0.03871
2882.69371	0.03845
2881.40794	0.03822
2880.12217	0.03814
2878.83640	0.03831
2877.55063	0.03864
2876.26487	0.03890
2874.97910	0.03893
2873.69333	0.03875
2872.40756	0.03849
2871.12179	0.03833
2869.83602	0.03834
2868.55025	0.03846
2867.26448	0.03854
2865.97871	0.03852
2864.69295	0.03848
2863.40718	0.03848
2862.12141	0.03847
2860.83564	0.03835
2859.54987	0.03814
2858.26410	0.03799
2856.97833	0.03793
2855.69256	0.03783
2854.40680	0.03754
2853.12103	0.03709
2851.83526	0.03662
2850.54949	0.03624
2849.26372	0.03597
2847.97795	0.03579
2846.69218	0.03565
2845.40641	0.03545
2844.12064	0.03520
2842.83488	0.03493
2841.54911	0.03464
2840.26334	0.03428
2838.97757	0.03389
2837.69180	0.03360
2836.40603	0.03352
2835.12026	0.03358
2833.83449	0.03358
2832.54873	0.03337
2831.26296	0.03297
2829.97719	0.03256
2828.69142	0.03233
2827.40565	0.03227
2826.11988	0.03227
2824.83411	0.03223
2823.54834	0.03216
2822.26257	0.03210
2820.97681	0.03203
2819.69104	0.03186
2818.40527	0.03160
2817.11950	0.03131
2815.83373	0.03111
2814.54796	0.03103
2813.26219	0.03108
2811.97642	0.03124
2810.69066	0.03142
2809.40489	0.03144
2808.11912	0.03119
2806.83335	0.03075
2805.54758	0.03032
2804.26181	0.03008
2802.97604	0.03006
2801.69027	0.03016
2800.40450	0.03020
2799.11874	0.03005
2797.83297	0.02972
2796.54720	0.02941
2795.26143	0.02927
2793.97566	0.02926
2792.68989	0.02923
2791.40412	0.02913
2790.11835	0.02905
2788.83259	0.02910
2787.54682	0.02927
2786.26105	0.02946
2784.97528	0.02957
2783.68951	0.02957
2782.40374	0.02946
2781.11797	0.02930
2779.83220	0.02917
2778.54643	0.02912
2777.26067	0.02915
2775.97490	0.02918
2774.68913	0.02911
2773.40336	0.02897
2772.11759	0.02885
2770.83182	0.02879
2769.54605	0.02876
2768.26028	0.02868
2766.97452	0.02853
2765.68875	0.02837
2764.40298	0.02824
2763.11721	0.02817
2761.83144	0.02817
2760.54567	0.02823
2759.25990	0.02826
2757.97413	0.02817
2756.68836	0.02796
2755.40260	0.02775
2754.11683	0.02764
2752.83106	0.02766
2751.54529	0.02776
2750.25952	0.02787
2748.97375	0.02795
2747.68798	0.02794
2746.40221	0.02785
2745.11645	0.02770
2743.83068	0.02752
2742.54491	0.02734
2741.25914	0.02716
2739.97337	0.02704
2738.68760	0.02704
2737.40183	0.02709
2736.11606	0.02710
2734.83029	0.02704
2733.54453	0.02697
2732.25876	0.02692
2730.97299	0.02691
2729.68722	0.02698
2728.40145	0.02714
2727.11568	0.02734
2725.82991	0.02751
2724.54414	0.02753
2723.25838	0.02739
2721.97261	0.02715
2720.68684	0.02690
2719.40107	0.02669
2718.11530	0.02653
2716.82953	0.02643
2715.54376	0.02638
2714.25799	0.02636
2712.97222	0.02631
2711.68646	0.02625
2710.40069	0.02621
2709.11492	0.02624
2707.82915	0.02632
2706.54338	0.02637
2705.25761	0.02633
2703.97184	0.02624
2702.68607	0.02617
2701.40031	0.02613
2700.11454	0.02612
2698.82877	0.02611
2697.54300	0.02606
2696.25723	0.02597
2694.97146	0.02583
2693.68569	0.02571
2692.39992	0.02565
2691.11415	0.02569
2689.82839	0.02577
2688.54262	0.02582
2687.25685	0.02576
2685.97108	0.02559
2684.68531	0.02537
2683.39954	0.02519
2682.11377	0.02510
2680.82800	0.02510
2679.54224	0.02514
2678.25647	0.02516
2676.97070	0.02518
2675.68493	0.02519
2674.39916	0.02519
2673.11339	0.02515
2671.82762	0.02510
2670.54185	0.02508
2669.25608	0.02515
2667.97032	0.02530
2666.68455	0.02550
2665.39878	0.02566
2664.11301	0.02570
2662.82724	0.02561
2661.54147	0.02548
2660.25570	0.02539
2658.96993	0.02540
2657.68417	0.02546
2656.39840	0.02546
2655.11263	0.02532
2653.82686	0.02512
2652.54109	0.02501
2651.25532	0.02504
2649.96955	0.02506
2648.68378	0.02491
2647.39801	0.02465
2646.11225	0.02442
2644.82648	0.02432
2643.54071	0.02431
2642.25494	0.02435
2640.96917	0.02433
2639.68340	0.02420
2638.39763	0.02400
2637.11186	0.02387
2635.82609	0.02392
2634.54033	0.02411
2633.25456	0.02430
2631.96879	0.02432
2630.68302	0.02415
2629.39725	0.02390
2628.11148	0.02370
2626.82571	0.02355
2625.53994	0.02334
2624.25418	0.02302
2622.96841	0.02268
2621.68264	0.02242
2620.39687	0.02225
2619.11110	0.02217
2617.82533	0.02218
2616.53956	0.02224
2615.25379	0.02233
2613.96802	0.02242
2612.68226	0.02245
2611.39649	0.02230
2610.11072	0.02192
2608.82495	0.02142
2607.53918	0.02105
2606.25341	0.02097
2604.96764	0.02111
2603.68187	0.02133
2602.39611	0.02147
2601.11034	0.02149
2599.82457	0.02147
2598.53880	0.02151
2597.25303	0.02161
2595.96726	0.02159
2594.68149	0.02122
2593.39572	0.02057
2592.10995	0.02002
2590.82419	0.01998
2589.53842	0.02045
2588.25265	0.02102
2586.96688	0.02130
2585.68111	0.02125
2584.39534	0.02111
2583.10957	0.02113
2581.82380	0.02141
2580.53804	0.02181
2579.25227	0.02203
2577.96650	0.02186
2576.68073	0.02135
2575.39496	0.02078
2574.10919	0.02040
2572.82342	0.02021
2571.53765	0.02011
2570.25188	0.02006
2568.96612	0.02019
2567.68035	0.02060
2566.39458	0.02111
2565.10881	0.02140
2563.82304	0.02124
2562.53727	0.02079
2561.25150	0.02040
2559.96573	0.02029
2558.67997	0.02033
2557.39420	0.02027
2556.10843	0.02011
2554.82266	0.02014
2553.53689	0.02051
2552.25112	0.02100
2550.96535	0.02123
2549.67958	0.02100
2548.39381	0.02054
2547.10805	0.02021
2545.82228	0.02019
2544.53651	0.02032
2543.25074	0.02038
2541.96497	0.02028
2540.67920	0.02004
2539.39343	0.01971
2538.10766	0.01940
2536.82190	0.01926
2535.53613	0.01934
2534.25036	0.01941
2532.96459	0.01928
2531.67882	0.01906
2530.39305	0.01898
2529.10728	0.01915
2527.82151	0.01943
2526.53574	0.01959
2525.24998	0.01956
2523.96421	0.01940
2522.67844	0.01927
2521.39267	0.01918
2520.10690	0.01906
2518.82113	0.01890
2517.53536	0.01872
2516.24959	0.01854
2514.96383	0.01841
2513.67806	0.01843
2512.39229	0.01867
2511.10652	0.01905
2509.82075	0.01933
2508.53498	0.01932
2507.24921	0.01900
2505.96344	0.01854
2504.67767	0.01815
2503.39191	0.01800
2502.10614	0.01805
2500.82037	0.01821
2499.53460	0.01846
2498.24883	0.01881
2496.96306	0.01916
2495.67729	0.01932
2494.39152	0.01919
2493.10576	0.01885
2491.81999	0.01850
2490.53422	0.01828
2489.24845	0.01819
2487.96268	0.01824
2486.67691	0.01840
2485.39114	0.01863
2484.10537	0.01878
2482.81960	0.01877
2481.53384	0.01872
2480.24807	0.01878
2478.96230	0.01895
2477.67653	0.01905
2476.39076	0.01900
2475.10499	0.01888
2473.81922	0.01875
2472.53345	0.01856
2471.24769	0.01824
2469.96192	0.01792
2468.67615	0.01777
2467.39038	0.01787
2466.10461	0.01812
2464.81884	0.01836
2463.53307	0.01845
2462.24730	0.01828
2460.96153	0.01784
2459.67577	0.01731
2458.39000	0.01693
2457.10423	0.01687
2455.81846	0.01709
2454.53269	0.01743
2453.24692	0.01769
2451.96115	0.01771
2450.67538	0.01738
2449.38962	0.01679
2448.10385	0.01625
2446.81808	0.01604
2445.53231	0.01619
2444.24654	0.01650
2442.96077	0.01680
2441.67500	0.01699
2440.38923	0.01699
2439.10346	0.01684
2437.81770	0.01669
2436.53193	0.01669
2435.24616	0.01683
2433.96039	0.01697
2432.67462	0.01703
2431.38885	0.01702
2430.10308	0.01707
2428.81731	0.01727
2427.53155	0.01762
2426.24578	0.01792
2424.96001	0.01790
2423.67424	0.01750
2422.38847	0.01694
2421.10270	0.01658
2419.81693	0.01660
2418.53116	0.01691
2417.24539	0.01725
2415.95963	0.01735
2414.67386	0.01716
2413.38809	0.01678
2412.10232	0.01642
2410.81655	0.01630
2409.53078	0.01644
2408.24501	0.01665
2406.95924	0.01669
2405.67347	0.01657
2404.38771	0.01644
2403.10194	0.01640
2401.81617	0.01639
2400.53040	0.01635
2399.24463	0.01624
2397.95886	0.01614
2396.67309	0.01607
2395.38732	0.01603
2394.10156	0.01602
2392.81579	0.01603
2391.53002	0.01602
2390.24425	0.01595
2388.95848	0.01577
2387.67271	0.01554
2386.38694	0.01538
2385.10117	0.01540
2383.81540	0.01554
2382.52964	0.01566
2381.24387	0.01570
2379.95810	0.01574
2378.67233	0.01573
2377.38656	0.01585
2376.10079	0.01623
2374.81502	0.01667
2373.52925	0.01646
2372.24349	0.01564
2370.95772	0.01492
2369.67195	0.01479
2368.38618	0.01514
2367.10041	0.01553
2365.81464	0.01597
2364.52887	0.01639
2363.24310	0.01673
2361.95733	0.01680
2360.67157	0.01639
2359.38580	0.01607
2358.10003	0.01631
2356.81426	0.01705
2355.52849	0.01799
2354.24272	0.01882
2352.95695	0.01915
2351.67118	0.01850
2350.38542	0.01756
2349.09965	0.01725
2347.81388	0.01727
2346.52811	0.01677
2345.24234	0.01631
2343.95657	0.01697
2342.67080	0.01854
2341.38503	0.01835
2340.09926	0.01673
2338.81350	0.01698
2337.52773	0.01878
2336.24196	0.01833
2334.95619	0.01666
2333.67042	0.01711
2332.38465	0.01874
2331.09888	0.01756
2329.81311	0.01678
2328.52735	0.01812
2327.24158	0.01841
2325.95581	0.01834
2324.67004	0.01948
2323.38427	0.02038
2322.09850	0.01980
2320.81273	0.01957
2319.52696	0.01894
2318.24119	0.01802
2316.95543	0.01770
2315.66966	0.01739
2314.38389	0.01735
2313.09812	0.01764
2311.81235	0.01759
2310.52658	0.01756
2309.24081	0.01747
2307.95504	0.01700
2306.66928	0.01655
2305.38351	0.01618
2304.09774	0.01617
2302.81197	0.01641
2301.52620	0.01648
2300.24043	0.01627
2298.95466	0.01581
2297.66889	0.01536
2296.38312	0.01505
2295.09736	0.01494
2293.81159	0.01506
2292.52582	0.01540
2291.24005	0.01591
2289.95428	0.01641
2288.66851	0.01669
2287.38274	0.01668
2286.09697	0.01639
2284.81121	0.01595
2283.52544	0.01552
2282.23967	0.01522
2280.95390	0.01506
2279.66813	0.01500
2278.38236	0.01498
2277.09659	0.01491
2275.81082	0.01461
2274.52505	0.01400
2273.23929	0.01328
2271.95352	0.01273
2270.66775	0.01252
2269.38198	0.01265
2268.09621	0.01311
2266.81044	0.01384
2265.52467	0.01462
2264.23890	0.01515
2262.95314	0.01522
2261.66737	0.01490
2260.38160	0.01450
2259.09583	0.01424
2257.81006	0.01422
2256.52429	0.01436
2255.23852	0.01449
2253.95275	0.01434
2252.66698	0.01388
2251.38122	0.01345
2250.09545	0.01354
2248.80968	0.01428
2247.52391	0.01514
2246.23814	0.01542
2244.95237	0.01491
2243.66660	0.01399
2242.38083	0.01310
2241.09507	0.01241
2239.80930	0.01188
2238.52353	0.01150
2237.23776	0.01134
2235.95199	0.01150
2234.66622	0.01196
2233.38045	0.01245
2232.09468	0.01265
2230.80891	0.01244
2229.52315	0.01205
2228.23738	0.01180
2226.95161	0.01170
2225.66584	0.01144
2224.38007	0.01074
2223.09430	0.00980
2221.80853	0.00916
2220.52276	0.00908
2219.23700	0.00936
2217.95123	0.00965
2216.66546	0.00982
2215.37969	0.00993
2214.09392	0.01008
2212.80815	0.01034
2211.52238	0.01070
2210.23661	0.01111
2208.95084	0.01158
2207.66508	0.01219
2206.37931	0.01282
2205.09354	0.01305
2203.80777	0.01250
2202.52200	0.01122
2201.23623	0.00982
2199.95046	0.00916
2198.66469	0.00966
2197.37893	0.01091
2196.09316	0.01191
2194.80739	0.01203
2193.52162	0.01142
2192.23585	0.01068
2190.95008	0.01038
2189.66431	0.01066
2188.37854	0.01121
2187.09277	0.01138
2185.80701	0.01088
2184.52124	0.00997
2183.23547	0.00891
2181.94970	0.00761
2180.66393	0.00606
2179.37816	0.00478
2178.09239	0.00424
2176.80662	0.00446
2175.52085	0.00517
2174.23509	0.00614
2172.94932	0.00705
2171.66355	0.00751
2170.37778	0.00744
2169.09201	0.00744
2167.80624	0.00818
2166.52047	0.00972
2165.23470	0.01141
2163.94894	0.01265
2162.66317	0.01313
2161.37740	0.01251
2160.09163	0.01031
2158.80586	0.00686
2157.52009	0.00358
2156.23432	0.00179
2154.94855	0.00167
2153.66278	0.00254
2152.37702	0.00357
2151.09125	0.00417
2149.80548	0.00423
2148.51971	0.00401
2147.23394	0.00378
2145.94817	0.00364
2144.66240	0.00365
2143.37663	0.00396
2142.09087	0.00468
2140.80510	0.00559
2139.51933	0.00641
2138.23356	0.00690
2136.94779	0.00699
2135.66202	0.00669
2134.37625	0.00619
2133.09048	0.00581
2131.80471	0.00578
2130.51895	0.00605
2129.23318	0.00642
2127.94741	0.00677
2126.66164	0.00714
2125.37587	0.00750
2124.09010	0.00770
2122.80433	0.00771
2121.51856	0.00766
2120.23280	0.00766
2118.94703	0.00771
2117.66126	0.00781
2116.37549	0.00796
2115.08972	0.00808
2113.80395	0.00810
2112.51818	0.00811
2111.23241	0.00835
2109.94664	0.00890
2108.66088	0.00954
2107.37511	0.00999
2106.08934	0.01005
2104.80357	0.00969
2103.51780	0.00903
2102.23203	0.00831
2100.94626	0.00772
2099.66049	0.00583
2098.37473	0.00502
2097.08896	0.00512
2095.80319	0.00548
2094.51742	0.00609
2093.23165	0.00698
2091.94588	0.00789
2090.66011	0.00844
2089.37434	0.00851
2088.08857	0.00832
2086.80281	0.00815
2085.51704	0.00809
2084.23127	0.00804
2082.94550	0.00793
2081.65973	0.00777
2080.37396	0.00749
2079.08819	0.00691
2077.80242	0.00593
2076.51666	0.00470
2075.23089	0.00364
2073.94512	0.00318
2072.65935	0.00349
2071.37358	0.00437
2070.08781	0.00521
2068.80204	0.00546
2067.51627	0.00504
2066.23050	0.00440
2064.94474	0.00410
2063.65897	0.00435
2062.37320	0.00506
2061.08743	0.00596
2059.80166	0.00680
2058.51589	0.00733
2057.23012	0.00742
2055.94435	0.00717
2054.65859	0.00681
2053.37282	0.00640
2052.08705	0.00572
2050.80128	0.00453
2049.51551	0.00295
2048.22974	0.00147
2046.94397	0.00053
2045.65820	0.00008
2044.37243	-0.00016
2043.08667	-0.00023
2041.80090	0.00008
2040.51513	0.00082
2039.22936	0.00153
2037.94359	0.00158
2036.65782	0.00082
2035.37205	-0.00016
2034.08628	-0.00056
2032.80052	-0.00012
2031.51475	0.00071
2030.22898	0.00136
2028.94321	0.00166
2027.65744	0.00192
2026.37167	0.00239
2025.08590	0.00303
2023.80013	0.00358
2022.51436	0.00397
2021.22860	0.00414
2019.94283	0.00382
2018.65706	0.00261
2017.37129	0.00049
2016.08552	-0.00184
2014.79975	-0.00341
2013.51398	-0.00369
2012.22821	-0.00297
2010.94245	-0.00209
2009.65668	-0.00161
2008.37091	-0.00136
2007.08514	-0.00078
2005.79937	0.00043
2004.51360	0.00206
2003.22783	0.00372
2001.94206	0.00519
2000.65629	0.00638
1999.37053	0.00731
1998.08476	0.00801
1996.79899	0.00858
1995.51322	0.00898
1994.22745	0.00909
1992.94168	0.00873
1991.65591	0.00784
1990.37014	0.00666
1989.08438	0.00557
1987.79861	0.00490
1986.51284	0.00470
1985.22707	0.00479
1983.94130	0.00484
1982.65553	0.00444
1981.36976	0.00324
1980.08399	0.00125
1978.79822	-0.00095
1977.51246	-0.00257
1976.22669	-0.00309
1974.94092	-0.00252
1973.65515	-0.00133
1972.36938	-0.00008
1971.08361	0.00089
1969.79784	0.00152
1968.51207	0.00183
1967.22631	0.00185
1965.94054	0.00171
1964.65477	0.00170
1963.36900	0.00214
1962.08323	0.00305
1960.79746	0.00407
1959.51169	0.00481
1958.22592	0.00509
1956.94015	0.00504
1955.65439	0.00492
1954.36862	0.00492
1953.08285	0.00514
1951.79708	0.00558
1950.51131	0.00616
1949.22554	0.00666
1947.93977	0.00682
1946.65400	0.00655
1945.36823	0.00605
1944.08247	0.00564
1942.79670	0.00556
1941.51093	0.00577
1940.22516	0.00606
1938.93939	0.00627
1937.65362	0.00639
1936.36785	0.00641
1935.08208	0.00626
1933.79632	0.00593
1932.51055	0.00558
1931.22478	0.00547
1929.93901	0.00572
1928.65324	0.00614
1927.36747	0.00650
1926.08170	0.00664
1924.79593	0.00665
1923.51016	0.00668
1922.22440	0.00682
1920.93863	0.00701
1919.65286	0.00718
1918.36709	0.00736
1917.08132	0.00758
1915.79555	0.00775
1914.50978	0.00768
1913.22401	0.00736
1911.93825	0.00696
1910.65248	0.00672
1909.36671	0.00665
1908.08094	0.00660
1906.79517	0.00648
1905.50940	0.00638
1904.22363	0.00642
1902.93786	0.00659
1901.65209	0.00679
1900.36633	0.00698
1899.08056	0.00720
1897.79479	0.00749
1896.50902	0.00779
1895.22325	0.00796
1893.93748	0.00783
1892.65171	0.00735
1891.36594	0.00667
1890.08018	0.00611
1888.79441	0.00590
1887.50864	0.00604
1886.22287	0.00633
1884.93710	0.00663
1883.65133	0.00688
1882.36556	0.00704
1881.07979	0.00710
1879.79402	0.00709
1878.50826	0.00700
1877.22249	0.00683
1875.93672	0.00667
1874.65095	0.00665
1873.36518	0.00692
1872.07941	0.00740
1870.79364	0.00788
1869.50787	0.00815
1868.22211	0.00810
1866.93634	0.00778
1865.65057	0.00735
1864.36480	0.00703
1863.07903	0.00695
1861.79326	0.00708
1860.50749	0.00730
1859.22172	0.00749
1857.93595	0.00762
1856.65019	0.00772
1855.36442	0.00782
1854.07865	0.00792
1852.79288	0.00801
1851.50711	0.00809
1850.22134	0.00815
1848.93557	0.00814
1847.64980	0.00802
1846.36404	0.00780
1845.07827	0.00761
1843.79250	0.00758
1842.50673	0.00774
1841.22096	0.00794
1839.93519	0.00809
1838.64942	0.00820
1837.36365	0.00834
1836.07788	0.00848
1834.79212	0.00860
1833.50635	0.00868
1832.22058	0.00874
1830.93481	0.00877
1829.64904	0.00874
1828.36327	0.00866
1827.07750	0.00848
1825.79173	0.00820
1824.50597	0.00787
1823.22020	0.00752
1821.93443	0.00724
1820.64866	0.00709
1819.36289	0.00712
1818.07712	0.00734
1816.79135	0.00773
1815.50558	0.00824
1814.21981	0.00872
1812.93405	0.00907
1811.64828	0.00926
1810.36251	0.00936
1809.07674	0.00939
1807.79097	0.00937
1806.50520	0.00932
1805.21943	0.00929
1803.93366	0.00926
1802.64790	0.00918
1801.36213	0.00906
1800.07636	0.00894
1798.79059	0.00888
1797.50482	0.00890
1796.21905	0.00895
1794.93328	0.00894
1793.64751	0.00888
1792.36174	0.00885
1791.07598	0.00895
1789.79021	0.00911
1788.50444	0.00925
1787.21867	0.00932
1785.93290	0.00935
1784.64713	0.00941
1783.36136	0.00949
1782.07559	0.00954
1780.78983	0.00952
1779.50406	0.00946
1778.21829	0.00939
1776.93252	0.00934
1775.64675	0.00933
1774.36098	0.00936
1773.07521	0.00945
1771.78944	0.00964
1770.50367	0.00991
1769.21791	0.01020
1767.93214	0.01050
1766.64637	0.01080
1765.36060	0.01098
1764.07483	0.01100
1762.78906	0.01093
1761.50329	0.01091
1760.21752	0.01095
1758.93176	0.01094
1757.64599	0.01085
1756.36022	0.01078
1755.07445	0.01080
1753.78868	0.01085
1752.50291	0.01089
1751.21714	0.01093
1749.93137	0.01105
1748.64560	0.01125
1747.35984	0.01146
1746.07407	0.01159
1744.78830	0.01158
1743.50253	0.01148
1742.21676	0.01138
1740.93099	0.01139
1739.64522	0.01154
1738.35945	0.01180
1737.07369	0.01198
1735.78792	0.01200
1734.50215	0.01199
1733.21638	0.01212
1731.93061	0.01238
1730.64484	0.01262
1729.35907	0.01277
1728.07330	0.01290
1726.78753	0.01306
1725.50177	0.01324
1724.21600	0.01343
1722.93023	0.01361
1721.64446	0.01374
1720.35869	0.01378
1719.07292	0.01376
1717.78715	0.01384
1716.50138	0.01414
1715.21561	0.01455
1713.92985	0.01492
1712.64408	0.01520
1711.35831	0.01539
1710.07254	0.01553
1708.78677	0.01564
1707.50100	0.01574
1706.21523	0.01588
1704.92946	0.01609
1703.64370	0.01632
1702.35793	0.01646
1701.07216	0.01657
1699.78639	0.01678
1698.50062	0.01702
1697.21485	0.01715
1695.92908	0.01728
1694.64331	0.01764
1693.35754	0.01815
1692.07178	0.01857
1690.78601	0.01879
1689.50024	0.01891
1688.21447	0.01893
1686.92870	0.01882
1685.64293	0.01869
1684.35716	0.01882
1683.07139	0.01933
1681.78563	0.01997
1680.49986	0.02050
1679.21409	0.02085
1677.92832	0.02108
1676.64255	0.02127
1675.35678	0.02153
1674.07101	0.02189
1672.78524	0.02222
1671.49947	0.02240
1670.21371	0.02247
1668.92794	0.02256
1667.64217	0.02273
1666.35640	0.02292
1665.07063	0.02306
1663.78486	0.02318
1662.49909	0.02338
1661.21332	0.02368
1659.92756	0.02398
1658.64179	0.02418
1657.35602	0.02421
1656.07025	0.02402
1654.78448	0.02367
1653.49871	0.02348
1652.21294	0.02372
1650.92717	0.02427
1649.64140	0.02471
1648.35564	0.02490
1647.06987	0.02500
1645.78410	0.02522
1644.49833	0.02553
1643.21256	0.02578
1641.92679	0.02589
1640.64102	0.02593
1639.35525	0.02593
1638.06949	0.02584
1636.78372	0.02569
1635.49795	0.02564
1634.21218	0.02582
1632.92641	0.02616
1631.64064	0.02651
1630.35487	0.02677
1629.06910	0.02696
1627.78333	0.02710
1626.49757	0.02719
1625.21180	0.02722
1623.92603	0.02725
1622.64026	0.02734
1621.35449	0.02750
1620.06872	0.02765
1618.78295	0.02769
1617.49718	0.02772
1616.21142	0.02789
1614.92565	0.02819
1613.63988	0.02848
1612.35411	0.02870
1611.06834	0.02888
1609.78257	0.02905
1608.49680	0.02922
1607.21103	0.02938
1605.92526	0.02954
1604.63950	0.02968
1603.35373	0.02981
1602.06796	0.02997
1600.78219	0.03015
1599.49642	0.03033
1598.21065	0.03051
1596.92488	0.03067
1595.63911	0.03078
1594.35335	0.03084
1593.06758	0.03086
1591.78181	0.03088
1590.49604	0.03095
1589.21027	0.03106
1587.92450	0.03119
1586.63873	0.03129
1585.35296	0.03137
1584.06719	0.03146
1582.78143	0.03159
1581.49566	0.03177
1580.20989	0.03195
1578.92412	0.03203
1577.63835	0.03201
1576.35258	0.03200
1575.06681	0.03216
1573.78104	0.03239
1572.49528	0.03251
1571.20951	0.03253
1569.92374	0.03259
1568.63797	0.03277
1567.35220	0.03298
1566.06643	0.03312
1564.78066	0.03316
1563.49489	0.03314
1562.20912	0.03299
1560.92336	0.03272
1559.63759	0.03256
1558.35182	0.03272
1557.06605	0.03312
1555.78028	0.03350
1554.49451	0.03376
1553.20874	0.03400
1551.92297	0.03422
1550.63721	0.03438
1549.35144	0.03447
1548.06567	0.03453
1546.77990	0.03452
1545.49413	0.03446
1544.20836	0.03437
1542.92259	0.03427
1541.63682	0.03419
1540.35105	0.03422
1539.06529	0.03446
1537.77952	0.03486
1536.49375	0.03519
1535.20798	0.03537
1533.92221	0.03553
1532.63644	0.03582
1531.35067	0.03624
1530.06490	0.03667
1528.77914	0.03704
1527.49337	0.03740
1526.20760	0.03783
1524.92183	0.03832
1523.63606	0.03883
1522.35029	0.03935
1521.06452	0.04001
1519.77875	0.04086
1518.49298	0.04180
1517.20722	0.04279
1515.92145	0.04384
1514.63568	0.04495
1513.34991	0.04605
1512.06414	0.04710
1510.77837	0.04807
1509.49260	0.04895
1508.20683	0.04977
1506.92107	0.05071
1505.63530	0.05189
1504.34953	0.05323
1503.06376	0.05446
1501.77799	0.05545
1500.49222	0.05622
1499.20645	0.05689
1497.92068	0.05752
1496.63491	0.05818
1495.34915	0.05893
1494.06338	0.05971
1492.77761	0.06044
1491.49184	0.06110
1490.20607	0.06181
1488.92030	0.06264
1487.63453	0.06359
1486.34876	0.06462
1485.06299	0.06568
1483.77723	0.06674
1482.49146	0.06777
1481.20569	0.06877
1479.91992	0.06974
1478.63415	0.07067
1477.34838	0.07153
1476.06261	0.07231
1474.77684	0.07296
1473.49108	0.07352
1472.20531	0.07410
1470.91954	0.07471
1469.63377	0.07523
1468.34800	0.07556
1467.06223	0.07572
1465.77646	0.07580
1464.49069	0.07591
1463.20492	0.07606
1461.91916	0.07618
1460.63339	0.07625
1459.34762	0.07625
1458.06185	0.07624
1456.77608	0.07638
1455.49031	0.07676
1454.20454	0.07731
1452.91877	0.07787
1451.63301	0.07836
1450.34724	0.07871
1449.06147	0.07890
1447.77570	0.07896
1446.48993	0.07891
1445.20416	0.07880
1443.91839	0.07865
1442.63262	0.07848
1441.34685	0.07831
1440.06109	0.07811
1438.77532	0.07791
1437.48955	0.07780
1436.20378	0.07794
1434.91801	0.07836
1433.63224	0.07895
1432.34647	0.07965
1431.06070	0.08049
1429.77494	0.08151
1428.48917	0.08269
1427.20340	0.08398
1425.91763	0.08530
1424.63186	0.08663
1423.34609	0.08791
1422.06032	0.08905
1420.77455	0.09000
1419.48878	0.09085
1418.20302	0.09167
1416.91725	0.09241
1415.63148	0.09296
1414.34571	0.09325
1413.05994	0.09331
1411.77417	0.09315
1410.48840	0.09282
1409.20263	0.09230
1407.91687	0.09162
1406.63110	0.09077
1405.34533	0.08978
1404.05956	0.08865
1402.77379	0.08738
1401.48802	0.08594
1400.20225	0.08436
1398.91648	0.08270
1397.63071	0.08099
1396.34495	0.07921
1395.05918	0.07737
1393.77341	0.07555
1392.48764	0.07376
1391.20187	0.07198
1389.91610	0.07018
1388.63033	0.06840
1387.34456	0.06665
1386.05880	0.06494
1384.77303	0.06320
1383.48726	0.06140
1382.20149	0.05959
1380.91572	0.05781
1379.62995	0.05607
1378.34418	0.05433
1377.05841	0.05254
1375.77264	0.05068
1374.48688	0.04879
1373.20111	0.04696
1371.91534	0.04526
1370.62957	0.04368
1369.34380	0.04219
1368.05803	0.04076
1366.77226	0.03937
1365.48649	0.03802
1364.20073	0.03674
1362.91496	0.03554
1361.62919	0.03444
1360.34342	0.03345
1359.05765	0.03255
1357.77188	0.03173
1356.48611	0.03097
1355.20034	0.03027
1353.91457	0.02959
1352.62881	0.02890
1351.34304	0.02824
1350.05727	0.02763
1348.77150	0.02711
1347.48573	0.02662
1346.19996	0.02614
1344.91419	0.02564
1343.62842	0.02514
1342.34266	0.02464
1341.05689	0.02416
1339.77112	0.02374
1338.48535	0.02340
1337.19958	0.02311
1335.91381	0.02283
1334.62804	0.02254
1333.34227	0.02227
1332.05650	0.02204
1330.77074	0.02187
1329.48497	0.02170
1328.19920	0.02149
1326.91343	0.02124
1325.62766	0.02099
1324.34189	0.02078
1323.05612	0.02061
1321.77035	0.02043
1320.48459	0.02021
1319.19882	0.01995
1317.91305	0.01969
1316.62728	0.01947
1315.34151	0.01929
1314.05574	0.01916
1312.76997	0.01904
1311.48420	0.01891
1310.19843	0.01874
1308.91267	0.01854
1307.62690	0.01833
1306.34113	0.01815
1305.05536	0.01801
1303.76959	0.01788
1302.48382	0.01777
1301.19805	0.01766
1299.91228	0.01758
1298.62652	0.01753
1297.34075	0.01750
1296.05498	0.01743
1294.76921	0.01734
1293.48344	0.01726
1292.19767	0.01721
1290.91190	0.01715
1289.62613	0.01708
1288.34036	0.01697
1287.05460	0.01684
1285.76883	0.01671
1284.48306	0.01661
1283.19729	0.01653
1281.91152	0.01648
1280.62575	0.01643
1279.33998	0.01637
1278.05421	0.01628
1276.76845	0.01619
1275.48268	0.01612
1274.19691	0.01606
1272.91114	0.01601
1271.62537	0.01594
1270.33960	0.01585
1269.05383	0.01574
1267.76806	0.01564
1266.48229	0.01556
1265.19653	0.01551
1263.91076	0.01548
1262.62499	0.01544
1261.33922	0.01536
1260.05345	0.01525
1258.76768	0.01514
1257.48191	0.01506
1256.19614	0.01502
1254.91037	0.01498
1253.62461	0.01489
1252.33884	0.01477
1251.05307	0.01466
1249.76730	0.01460
1248.48153	0.01457
1247.19576	0.01457
1245.90999	0.01455
1244.62422	0.01450
1243.33846	0.01442
1242.05269	0.01432
1240.76692	0.01422
1239.48115	0.01413
1238.19538	0.01407
1236.90961	0.01403
1235.62384	0.01403
1234.33807	0.01403
1233.05230	0.01401
1231.76654	0.01394
1230.48077	0.01385
1229.19500	0.01377
1227.90923	0.01374
1226.62346	0.01376
1225.33769	0.01379
1224.05192	0.01380
1222.76615	0.01377
1221.48039	0.01373
1220.19462	0.01370
1218.90885	0.01365
1217.62308	0.01356
1216.33731	0.01348
1215.05154	0.01344
1213.76577	0.01345
1212.48000	0.01346
1211.19423	0.01345
1209.90847	0.01343
1208.62270	0.01342
1207.33693	0.01340
1206.05116	0.01336
1204.76539	0.01332
1203.47962	0.01329
1202.19385	0.01328
1200.90808	0.01336
1199.62232	0.01355
1198.33655	0.01349
1197.05078	0.01347
1195.76501	0.01350
1194.47924	0.01356
1193.19347	0.01359
1191.90770	0.01360
1190.62193	0.01360
1189.33616	0.01358
1188.05040	0.01355
1186.76463	0.01355
1185.47886	0.01361
1184.19309	0.01372
1182.90732	0.01383
1181.62155	0.01390
1180.33578	0.01393
1179.05001	0.01395
1177.76425	0.01398
1176.47848	0.01404
1175.19271	0.01412
1173.90694	0.01424
1172.62117	0.01440
1171.33540	0.01456
1170.04963	0.01471
1168.76386	0.01487
1167.47809	0.01505
1166.19233	0.01526
1164.90656	0.01546
1163.62079	0.01561
1162.33502	0.01575
1161.04925	0.01590
1159.76348	0.01611
1158.47771	0.01638
1157.19194	0.01668
1155.90618	0.01697
1154.62041	0.01727
1153.33464	0.01758
1152.04887	0.01796
1150.76310	0.01841
1149.47733	0.01892
1148.19156	0.01945
1146.90579	0.01997
1145.62002	0.02052
1144.33426	0.02114
1143.04849	0.02186
1141.76272	0.02268
1140.47695	0.02359
1139.19118	0.02458
1137.90541	0.02564
1136.61964	0.02679
1135.33387	0.02803
1134.04811	0.02936
1132.76234	0.03074
1131.47657	0.03220
1130.19080	0.03382
1128.90503	0.03571
1127.61926	0.03785
1126.33349	0.04013
1125.04772	0.04249
1123.76195	0.04496
1122.47619	0.04758
1121.19042	0.05034
1119.90465	0.05316
1118.61888	0.05598
1117.33311	0.05879
1116.04734	0.06162
1114.76157	0.06448
1113.47580	0.06732
1112.19004	0.07007
1110.90427	0.07270
1109.61850	0.07521
1108.33273	0.07763
1107.04696	0.08003
1105.76119	0.08243
1104.47542	0.08483
1103.18965	0.08718
1101.90388	0.08950
1100.61812	0.09177
1099.33235	0.09396
1098.04658	0.09608
1096.76081	0.09816
1095.47504	0.10025
1094.18927	0.10231
1092.90350	0.10427
1091.61773	0.10605
1090.33197	0.10770
1089.04620	0.10928
1087.76043	0.11083
1086.47466	0.11234
1085.18889	0.11385
1083.90312	0.11543
1082.61735	0.11715
1081.33158	0.11902
1080.04581	0.12098
1078.76005	0.12300
1077.47428	0.12507
1076.18851	0.12715
1074.90274	0.12925
1073.61697	0.13141
1072.33120	0.13371
1071.04543	0.13617
1069.75966	0.13874
1068.47390	0.14134
1067.18813	0.14398
1065.90236	0.14668
1064.61659	0.14946
1063.33082	0.15233
1062.04505	0.15522
1060.75928	0.15802
1059.47351	0.16065
1058.18774	0.16310
1056.90198	0.16545
1055.61621	0.16781
1054.33044	0.17024
1053.04467	0.17271
1051.75890	0.17520
1050.47313	0.17771
1049.18736	0.18024
1047.90159	0.18281
1046.61583	0.18543
1045.33006	0.18809
1044.04429	0.19076
1042.75852	0.19345
1041.47275	0.19616
1040.18698	0.19893
1038.90121	0.20175
1037.61544	0.20455
1036.32967	0.20731
1035.04391	0.21000
1033.75814	0.21260
1032.47237	0.21508
1031.18660	0.21734
1029.90083	0.21932
1028.61506	0.22098
1027.32929	0.22237
1026.04352	0.22354
1024.75775	0.22453
1023.47199	0.22530
1022.18622	0.22579
1020.90045	0.22594
1019.61468	0.22574
1018.32891	0.22518
1017.04314	0.22425
1015.75737	0.22295
1014.47160	0.22131
1013.18584	0.21935
1011.90007	0.21705
1010.61430	0.21434
1009.32853	0.21119
1008.04276	0.20759
1006.75699	0.20359
1005.47122	0.19924
1004.18545	0.19456
1002.89968	0.18955
1001.61392	0.18423
1000.32815	0.17862
999.04238	0.17282
997.75661	0.16690
996.47084	0.16093
995.18507	0.15490
993.89930	0.14884
992.61353	0.14281
991.32777	0.13689
990.04200	0.13115
988.75623	0.12560
987.47046	0.12024
986.18469	0.11507
984.89892	0.11013
983.61315	0.10549
982.32738	0.10121
981.04161	0.09731
979.75585	0.09372
978.47008	0.09042
977.18431	0.08737
975.89854	0.08460
974.61277	0.08219
973.32700	0.08025
972.04123	0.07885
970.75546	0.07799
969.46970	0.07763
968.18393	0.07772
966.89816	0.07818
965.61239	0.07891
964.32662	0.07978
963.04085	0.08060
961.75508	0.08116
960.46931	0.08125
959.18354	0.08076
957.89778	0.07974
956.61201	0.07831
955.32624	0.07653
954.04047	0.07446
952.75470	0.07219
951.46893	0.06987
950.18316	0.06764
948.89739	0.06554
947.61163	0.06356
946.32586	0.06162
945.04009	0.05964
943.75432	0.05758
942.46855	0.05553
941.18278	0.05357
939.89701	0.05180
938.61124	0.05019
937.32547	0.04872
936.03971	0.04739
934.75394	0.04626
933.46817	0.04532
932.18240	0.04442
930.89663	0.04347
929.61086	0.04248
928.32509	0.04158
927.03932	0.04084
925.75356	0.04023
924.46779	0.03965
923.18202	0.03905
921.89625	0.03845
920.61048	0.03791
919.32471	0.03746
918.03894	0.03706
916.75317	0.03663
915.46740	0.03615
914.18164	0.03566
912.89587	0.03521
911.61010	0.03485
910.32433	0.03458
909.03856	0.03443
907.75279	0.03429
906.46702	0.03405
905.18125	0.03369
903.89549	0.03331
902.60972	0.03300
901.32395	0.03272
900.03818	0.03245
898.75241	0.03224
897.46664	0.03220
896.18087	0.03224
894.89510	0.03224
893.60933	0.03216
892.32357	0.03213
891.03780	0.03231
889.75203	0.03276
888.46626	0.03346
887.18049	0.03445
885.89472	0.03586
884.60895	0.03783
883.32318	0.04041
882.03742	0.04341
880.75165	0.04639
879.46588	0.04887
878.18011	0.05062
876.89434	0.05188
875.60857	0.05308
874.32280	0.05438
873.03703	0.05553
871.75126	0.05601
870.46550	0.05552
869.17973	0.05411
867.89396	0.05210
866.60819	0.04978
865.32242	0.04732
864.03665	0.04483
862.75088	0.04242
861.46511	0.04024
860.17935	0.03844
858.89358	0.03701
857.60781	0.03587
856.32204	0.03492
855.03627	0.03410
853.75050	0.03341
852.46473	0.03283
851.17896	0.03236
849.89319	0.03196
848.60743	0.03161
847.32166	0.03130
846.03589	0.03103
844.75012	0.03079
843.46435	0.03056
842.17858	0.03035
840.89281	0.03011
839.60704	0.02983
838.32128	0.02949
837.03551	0.02914
835.74974	0.02882
834.46397	0.02856
833.17820	0.02833
831.89243	0.02814
830.60666	0.02803
829.32089	0.02798
828.03512	0.02797
826.74936	0.02799
825.46359	0.02802
824.17782	0.02803
822.89205	0.02797
821.60628	0.02787
820.32051	0.02777
819.03474	0.02769
817.74897	0.02757
816.46321	0.02738
815.17744	0.02718
813.89167	0.02706
812.60590	0.02705
811.32013	0.02713
810.03436	0.02722
808.74859	0.02724
807.46282	0.02718
806.17705	0.02710
804.89129	0.02707
803.60552	0.02708
802.31975	0.02704
801.03398	0.02693
799.74821	0.02680
798.46244	0.02673
797.17667	0.02677
795.89090	0.02686
794.60513	0.02694
793.31937	0.02695
792.03360	0.02691
790.74783	0.02687
789.46206	0.02686
788.17629	0.02687
786.89052	0.02683
785.60475	0.02674
784.31898	0.02661
783.03322	0.02650
781.74745	0.02646
780.46168	0.02649
779.17591	0.02654
777.89014	0.02661
776.60437	0.02670
775.31860	0.02682
774.03283	0.02689
772.74706	0.02682
771.46130	0.02660
770.17553	0.02636
768.88976	0.02623
767.60399	0.02624
766.31822	0.02629
765.03245	0.02632
763.74668	0.02629
762.46091	0.02622
761.17515	0.02616
759.88938	0.02619
758.60361	0.02634
757.31784	0.02660
756.03207	0.02686
754.74630	0.02702
753.46053	0.02707
752.17476	0.02703
750.88899	0.02693
749.60323	0.02680
748.31746	0.02667
747.03169	0.02656
745.74592	0.02646
744.46015	0.02634
743.17438	0.02621
741.88861	0.02611
740.60284	0.02609
739.31708	0.02616
738.03131	0.02629
736.74554	0.02642
735.45977	0.02650
734.17400	0.02655
732.88823	0.02660
731.60246	0.02661
730.31669	0.02657
729.03092	0.02651
727.74516	0.02650
726.45939	0.02651
725.17362	0.02644
723.88785	0.02626
722.60208	0.02614
721.31631	0.02613
720.03054	0.02622
718.74477	0.02630
717.45901	0.02633
716.17324	0.02636
714.88747	0.02641
713.60170	0.02646
712.31593	0.02644
711.03016	0.02634
709.74439	0.02623
708.45862	0.02616
707.17285	0.02612
705.88709	0.02609
704.60132	0.02604
703.31555	0.02601
702.02978	0.02602
700.74401	0.02606
699.45824	0.02610
698.17247	0.02611
696.88670	0.02607
695.60094	0.02601
694.31517	0.02597
693.02940	0.02602
691.74363	0.02615
690.45786	0.02630
689.17209	0.02636
687.88632	0.02630
686.60055	0.02619
685.31478	0.02608
684.02902	0.02598
682.74325	0.02586
681.45748	0.02575
680.17171	0.02568
678.88594	0.02567
677.60017	0.02568
676.31440	0.02567
675.02863	0.02565
673.74287	0.02567
672.45710	0.02577
671.17133	0.02592
669.88556	0.02606
668.59979	0.02619
667.31402	0.02632
666.02825	0.02625
664.74248	0.02608
663.45671	0.02587
662.17095	0.02566
660.88518	0.02550
659.59941	0.02540
658.31364	0.02535
657.02787	0.02531
655.74210	0.02527
654.45633	0.02524
653.17056	0.02523
651.88480	0.02528
650.59903	0.02537
649.31326	0.02548
648.02749	0.02561
646.74172	0.02571
645.45595	0.02578
644.17018	0.02587
642.88441	0.02602
641.59864	0.02629
640.31288	0.02665
639.02711	0.02705
637.74134	0.02741
636.45557	0.02772
635.16980	0.02804
633.88403	0.02842
632.59826	0.02888
631.31249	0.02922
630.02673	0.02852
628.74096	0.02726
627.45519	0.02914
626.16942	0.02756
624.88365	0.02366
623.59788	0.02054
622.31211	0.01995
621.02634	0.02221
619.74057	0.02634
618.45481	0.03119
617.16904	0.03625
615.88327	0.04123
614.59750	0.04572
613.31173	0.04963
612.02596	0.05354
610.74019	0.05802
609.45442	0.06279
608.16866	0.06695
606.88289	0.07004
605.59712	0.07231
604.31135	0.07416
603.02558	0.07581
601.73981	0.07719
600.45404	0.07801
599.16827	0.07790
597.88250	0.07675
596.59674	0.07486
595.31097	0.07270
594.02520	0.07069
592.73943	0.06902
591.45366	0.06782
590.16789	0.06719
588.88212	0.06716
587.59635	0.06767
586.31059	0.06859
585.02482	0.06986
583.73905	0.07147
582.45328	0.07341
581.16751	0.07555
579.88174	0.07775
578.59597	0.07991
577.31020	0.08205
576.02443	0.08428
574.73867	0.08661
573.45290	0.08899
572.16713	0.09126
570.88136	0.09338
569.59559	0.09549
568.30982	0.09785
567.02405	0.10055
565.73828	0.10341
564.45251	0.10599
563.16675	0.10785
561.88098	0.10868
560.59521	0.10827
559.30944	0.10647
558.02367	0.10332
556.73790	0.09905
555.45213	0.09402
554.16636	0.08868
552.88060	0.08341
551.59483	0.07848
550.30906	0.07396
549.02329	0.06977
547.73752	0.06584
546.45175	0.06217
545.16598	0.05880
543.88021	0.05585
542.59444	0.05338
541.30868	0.05133
540.02291	0.04957
538.73714	0.04800
537.45137	0.04657
536.16560	0.04522
534.87983	0.04387
533.59406	0.04246
532.30829	0.04103
531.02253	0.03972
529.73676	0.03860
528.45099	0.03770
527.16522	0.03694
525.87945	0.03620
524.59368	0.03544
523.30791	0.03465
522.02214	0.03387
520.73637	0.03312
519.45061	0.03237
518.16484	0.03160
516.87907	0.03083
515.59330	0.03014
514.30753	0.02958
513.02176	0.02914
511.73599	0.02880
510.45022	0.02851
509.16446	0.02822
507.87869	0.02788
506.59292	0.02749
505.30715	0.02706
504.02138	0.02665
502.73561	0.02630
501.44984	0.02599
500.16407	0.02568
498.87830	0.02533
497.59254	0.02500
496.30677	0.02473
495.02100	0.02452
493.73523	0.02436
492.44946	0.02425
491.16369	0.02419
489.87792	0.02417
488.59215	0.02414
487.30639	0.02412
486.02062	0.02413
484.73485	0.02418
483.44908	0.02428
482.16331	0.02439
480.87754	0.02450
479.59177	0.02463
478.30600	0.02483
477.02023	0.02506
475.73447	0.02526
474.44870	0.02543
473.16293	0.02558
471.87716	0.02577
470.59139	0.02599
469.30562	0.02615
468.01985	0.02616
466.73408	0.02596
465.44832	0.02559
464.16255	0.02515
462.87678	0.02477
461.59101	0.02446
460.30524	0.02422
459.01947	0.02402
457.73370	0.02387
456.44793	0.02374
455.16216	0.02361
453.87640	0.02348
452.59063	0.02338
451.30486	0.02327
450.01909	0.02312
448.73332	0.02292
447.44755	0.02274
446.16178	0.02263
444.87601	0.02258
443.59025	0.02252
442.30448	0.02243
441.01871	0.02231
439.73294	0.02221
438.44717	0.02214
437.16140	0.02213
435.87563	0.02219
434.58986	0.02228
433.30409	0.02238
432.01833	0.02245
430.73256	0.02251
429.44679	0.02259
428.16102	0.02265
426.87525	0.02265
425.58948	0.02256
424.30371	0.02245
423.01794	0.02238
421.73218	0.02233
420.44641	0.02228
419.16064	0.02223
417.87487	0.02222
416.58910	0.02223
415.30333	0.02221
414.01756	0.02213
412.73179	0.02206
411.44602	0.02205
410.16026	0.02210
408.87449	0.02218
407.58872	0.02228
406.30295	0.02243
405.01718	0.02259
403.73141	0.02277
402.44564	0.02294
401.15987	0.02308
399.87411	0.02321
