3997.45528	0.05151
3996.16951	0.05133
3994.88374	0.05144
3993.59798	0.05192
3992.31221	0.05251
3991.02644	0.05282
3989.74067	0.05260
3988.45490	0.05201
3987.16913	0.05152
3985.88336	0.05153
3984.59759	0.05202
3983.31183	0.05256
3982.02606	0.05266
3980.74029	0.05210
3979.45452	0.05109
3978.16875	0.05010
3976.88298	0.04953
3975.59721	0.04945
3974.31144	0.04960
3973.02567	0.04975
3971.73991	0.04989
3970.45414	0.05015
3969.16837	0.05045
3967.88260	0.05043
3966.59683	0.04982
3965.31106	0.04880
3964.02529	0.04792
3962.73952	0.04765
3961.45376	0.04804
3960.16799	0.04878
3958.88222	0.04941
3957.59645	0.04968
3956.31068	0.04963
3955.02491	0.04956
3953.73914	0.04971
3952.45337	0.05007
3951.16760	0.05041
3949.88184	0.05053
3948.59607	0.05039
3947.31030	0.05010
3946.02453	0.04986
3944.73876	0.04978
3943.45299	0.04973
3942.16722	0.04953
3940.88145	0.04911
3939.59569	0.04860
3938.30992	0.04817
3937.02415	0.04790
3935.73838	0.04772
3934.45261	0.04750
3933.16684	0.04716
3931.88107	0.04676
3930.59530	0.04654
3929.30953	0.04670
3928.02377	0.04717
3926.73800	0.04771
3925.45223	0.04813
3924.16646	0.04846
3922.88069	0.04873
3921.59492	0.04883
3920.30915	0.04866
3919.02338	0.04831
3917.73762	0.04804
3916.45185	0.04801
3915.16608	0.04811
3913.88031	0.04810
3912.59454	0.04781
3911.30877	0.04736
3910.02300	0.04697
3908.73723	0.04677
3907.45146	0.04670
3906.16570	0.04665
3904.87993	0.04668
3903.59416	0.04690
3902.30839	0.04715
3901.02262	0.04698
3899.73685	0.04619
3898.45108	0.04514
3897.16531	0.04451
3895.87955	0.04461
3894.59378	0.04516
3893.30801	0.04574
3892.02224	0.04624
3890.73647	0.04675
3889.45070	0.04724
3888.16493	0.04749
3886.87916	0.04727
3885.59339	0.04652
3884.30763	0.04533
3883.02186	0.04406
3881.73609	0.04313
3880.45032	0.04286
3879.16455	0.04326
3877.87878	0.04403
3876.59301	0.04477
3875.30724	0.04515
3874.02148	0.04507
3872.73571	0.04473
3871.44994	0.04449
3870.16417	0.04458
3868.87840	0.04488
3867.59263	0.04509
3866.30686	0.04505
3865.02109	0.04495
3863.73532	0.04504
3862.44956	0.04536
3861.16379	0.04576
3859.87802	0.04604
3858.59225	0.04606
3857.30648	0.04581
3856.02071	0.04540
3854.73494	0.04503
3853.44917	0.04485
3852.16341	0.04491
3850.87764	0.04508
3849.59187	0.04516
3848.30610	0.04504
3847.02033	0.04472
3845.73456	0.04439
3844.44879	0.04417
3843.16302	0.04406
3841.87725	0.04396
3840.59149	0.04381
3839.30572	0.04359
3838.01995	0.04331
3836.73418	0.04308
3835.44841	0.04306
3834.16264	0.04328
3832.87687	0.04351
3831.59110	0.04352
3830.30534	0.04336
3829.01957	0.04335
3827.73380	0.04362
3826.44803	0.04390
3825.16226	0.04394
3823.87649	0.04386
3822.59072	0.04397
3821.30495	0.04435
3820.01918	0.04475
3818.73342	0.04487
3817.44765	0.04463
3816.16188	0.04420
3814.87611	0.04386
3813.59034	0.04373
3812.30457	0.04380
3811.01880	0.04399
3809.73303	0.04420
3808.44726	0.04421
3807.16150	0.04377
3805.87573	0.04279
3804.58996	0.04159
3803.30419	0.04067
3802.01842	0.04037
3800.73265	0.04063
3799.44688	0.04110
3798.16111	0.04151
3796.87535	0.04191
3795.58958	0.04247
3794.30381	0.04313
3793.01804	0.04359
3791.73227	0.04358
3790.44650	0.04320
3789.16073	0.04268
3787.87496	0.04220
3786.58919	0.04179
3785.30343	0.04155
3784.01766	0.04158
3782.73189	0.04190
3781.44612	0.04236
3780.16035	0.04265
3778.87458	0.04254
3777.58881	0.04193
3776.30304	0.04097
3775.01728	0.04000
3773.73151	0.03937
3772.44574	0.03935
3771.15997	0.03991
3769.87420	0.04073
3768.58843	0.04133
3767.30266	0.04141
3766.01689	0.04107
3764.73112	0.04073
3763.44536	0.04073
3762.15959	0.04108
3760.87382	0.04155
3759.58805	0.04195
3758.30228	0.04225
3757.01651	0.04244
3755.73074	0.04243
3754.44497	0.04210
3753.15921	0.04150
3751.87344	0.04095
3750.58767	0.04077
3749.30190	0.04104
3748.01613	0.04160
3746.73036	0.04235
3745.44459	0.04319
3744.15882	0.04384
3742.87305	0.04400
3741.58729	0.04366
3740.30152	0.04320
3739.01575	0.04300
3737.72998	0.04301
3736.44421	0.04294
3735.15844	0.04263
3733.87267	0.04231
3732.58690	0.04231
3731.30114	0.04266
3730.01537	0.04289
3728.72960	0.04260
3727.44383	0.04187
3726.15806	0.04104
3724.87229	0.04038
3723.58652	0.03988
3722.30075	0.03946
3721.01498	0.03909
3719.72922	0.03888
3718.44345	0.03895
3717.15768	0.03929
3715.87191	0.03967
3714.58614	0.03983
3713.30037	0.03973
3712.01460	0.03953
3710.72883	0.03938
3709.44307	0.03936
3708.15730	0.03946
3706.87153	0.03959
3705.58576	0.03965
3704.29999	0.03949
3703.01422	0.03931
3701.72845	0.03942
3700.44268	0.03983
3699.15691	0.03999
3697.87115	0.03960
3696.58538	0.03890
3695.29961	0.03833
3694.01384	0.03824
3692.72807	0.03871
3691.44230	0.03940
3690.15653	0.03979
3688.87076	0.03972
3687.58500	0.03938
3686.29923	0.03891
3685.01346	0.03858
3683.72769	0.03863
3682.44192	0.03900
3681.15615	0.03940
3679.87038	0.03946
3678.58461	0.03902
3677.29884	0.03838
3676.01308	0.03791
3674.72731	0.03772
3673.44154	0.03769
3672.15577	0.03764
3670.87000	0.03754
3669.58423	0.03754
3668.29846	0.03776
3667.01269	0.03823
3665.72693	0.03879
3664.44116	0.03914
3663.15539	0.03908
3661.86962	0.03869
3660.58385	0.03829
3659.29808	0.03805
3658.01231	0.03793
3656.72654	0.03785
3655.44077	0.03788
3654.15501	0.03817
3652.86924	0.03868
3651.58347	0.03916
3650.29770	0.03938
3649.01193	0.03939
3647.72616	0.03939
3646.44039	0.03945
3645.15462	0.03940
3643.86886	0.03908
3642.58309	0.03857
3641.29732	0.03812
3640.01155	0.03779
3638.72578	0.03752
3637.44001	0.03730
3636.15424	0.03725
3634.86847	0.03738
3633.58270	0.03756
3632.29694	0.03768
3631.01117	0.03774
3629.72540	0.03785
3628.43963	0.03793
3627.15386	0.03781
3625.86809	0.03750
3624.58232	0.03727
3623.29655	0.03740
3622.01079	0.03792
3620.72502	0.03856
3619.43925	0.03899
3618.15348	0.03912
3616.86771	0.03915
3615.58194	0.03933
3614.29617	0.03963
3613.01040	0.03975
3611.72463	0.03947
3610.43887	0.03893
3609.15310	0.03845
3607.86733	0.03825
3606.58156	0.03832
3605.29579	0.03854
3604.01002	0.03870
3602.72425	0.03871
3601.43848	0.03859
3600.15272	0.03844
3598.86695	0.03829
3597.58118	0.03831
3596.29541	0.03876
3595.00964	0.03960
3593.72387	0.04026
3592.43810	0.04026
3591.15233	0.03969
3589.86656	0.03905
3588.58080	0.03885
3587.29503	0.03914
3586.00926	0.03956
3584.72349	0.03983
3583.43772	0.04003
3582.15195	0.04032
3580.86618	0.04061
3579.58041	0.04069
3578.29464	0.04051
3577.00888	0.04022
3575.72311	0.04000
3574.43734	0.03993
3573.15157	0.03995
3571.86580	0.04004
3570.58003	0.04019
3569.29426	0.04040
3568.00849	0.04053
3566.72273	0.04040
3565.43696	0.04004
3564.15119	0.03969
3562.86542	0.03960
3561.57965	0.03974
3560.29388	0.04000
3559.00811	0.04028
3557.72234	0.04055
3556.43657	0.04071
3555.15081	0.04066
3553.86504	0.04047
3552.57927	0.04029
3551.29350	0.04024
3550.00773	0.04032
3548.72196	0.04042
3547.43619	0.04049
3546.15042	0.04061
3544.86466	0.04085
3543.57889	0.04104
3542.29312	0.04088
3541.00735	0.04036
3539.72158	0.03988
3538.43581	0.03982
3537.15004	0.04007
3535.86427	0.04022
3534.57850	0.04013
3533.29274	0.04012
3532.00697	0.04058
3530.72120	0.04154
3529.43543	0.04246
3528.14966	0.04272
3526.86389	0.04218
3525.57812	0.04141
3524.29235	0.04112
3523.00659	0.04155
3521.72082	0.04236
3520.43505	0.04304
3519.14928	0.04330
3517.86351	0.04312
3516.57774	0.04259
3515.29197	0.04192
3514.00620	0.04141
3512.72043	0.04130
3511.43467	0.04161
3510.14890	0.04218
3508.86313	0.04275
3507.57736	0.04317
3506.29159	0.04345
3505.00582	0.04367
3503.72005	0.04381
3502.43428	0.04373
3501.14852	0.04337
3499.86275	0.04291
3498.57698	0.04259
3497.29121	0.04250
3496.00544	0.04249
3494.71967	0.04248
3493.43390	0.04258
3492.14813	0.04289
3490.86236	0.04326
3489.57660	0.04336
3488.29083	0.04302
3487.00506	0.04244
3485.71929	0.04198
3484.43352	0.04184
3483.14775	0.04195
3481.86198	0.04212
3480.57621	0.04224
3479.29045	0.04226
3478.00468	0.04216
3476.71891	0.04204
3475.43314	0.04210
3474.14737	0.04244
3472.86160	0.04303
3471.57583	0.04368
3470.29006	0.04420
3469.00429	0.04439
3467.71853	0.04421
3466.43276	0.04384
3465.14699	0.04361
3463.86122	0.04369
3462.57545	0.04388
3461.28968	0.04387
3460.00391	0.04356
3458.71814	0.04314
3457.43238	0.04294
3456.14661	0.04314
3454.86084	0.04365
3453.57507	0.04416
3452.28930	0.04440
3451.00353	0.04436
3449.71776	0.04415
3448.43199	0.04387
3447.14622	0.04349
3445.86046	0.04308
3444.57469	0.04286
3443.28892	0.04302
3442.00315	0.04351
3440.71738	0.04408
3439.43161	0.04438
3438.14584	0.04431
3436.86007	0.04409
3435.57431	0.04403
3434.28854	0.04419
3433.00277	0.04430
3431.71700	0.04412
3430.43123	0.04381
3429.14546	0.04374
3427.85969	0.04407
3426.57392	0.04457
3425.28815	0.04494
3424.00239	0.04517
3422.71662	0.04539
3421.43085	0.04561
3420.14508	0.04559
3418.85931	0.04526
3417.57354	0.04482
3416.28777	0.04455
3415.00200	0.04448
3413.71624	0.04445
3412.43047	0.04428
3411.14470	0.04393
3409.85893	0.04351
3408.57316	0.04328
3407.28739	0.04351
3406.00162	0.04421
3404.71585	0.04508
3403.43008	0.04575
3402.14432	0.04605
3400.85855	0.04602
3399.57278	0.04578
3398.28701	0.04544
3397.00124	0.04510
3395.71547	0.04497
3394.42970	0.04516
3393.14393	0.04549
3391.85817	0.04566
3390.57240	0.04554
3389.28663	0.04535
3388.00086	0.04532
3386.71509	0.04551
3385.42932	0.04583
3384.14355	0.04617
3382.85778	0.04657
3381.57201	0.04708
3380.28625	0.04758
3379.00048	0.04782
3377.71471	0.04764
3376.42894	0.04709
3375.14317	0.04646
3373.85740	0.04601
3372.57163	0.04584
3371.28586	0.04583
3370.00010	0.04589
3368.71433	0.04601
3367.42856	0.04621
3366.14279	0.04636
3364.85702	0.04628
3363.57125	0.04589
3362.28548	0.04535
3360.99971	0.04489
3359.71394	0.04469
3358.42818	0.04479
3357.14241	0.04518
3355.85664	0.04581
3354.57087	0.04659
3353.28510	0.04734
3351.99933	0.04788
3350.71356	0.04814
3349.42779	0.04824
3348.14202	0.04841
3346.85626	0.04876
3345.57049	0.04913
3344.28472	0.04922
3342.99895	0.04888
3341.71318	0.04822
3340.42741	0.04756
3339.14164	0.04712
3337.85587	0.04701
3336.57011	0.04723
3335.28434	0.04768
3333.99857	0.04817
3332.71280	0.04853
3331.42703	0.04877
3330.14126	0.04899
3328.85549	0.04924
3327.56972	0.04947
3326.28395	0.04956
3324.99819	0.04949
3323.71242	0.04934
3322.42665	0.04930
3321.14088	0.04945
3319.85511	0.04975
3318.56934	0.05000
3317.28357	0.05013
3315.99780	0.05021
3314.71204	0.05036
3313.42627	0.05055
3312.14050	0.05063
3310.85473	0.05055
3309.56896	0.05034
3308.28319	0.05010
3306.99742	0.04992
3305.71165	0.04990
3304.42588	0.05008
3303.14012	0.05037
3301.85435	0.05058
3300.56858	0.05057
3299.28281	0.05038
3297.99704	0.05008
3296.71127	0.04976
3295.42550	0.04951
3294.13973	0.04945
3292.85397	0.04963
3291.56820	0.04984
3290.28243	0.04983
3288.99666	0.04952
3287.71089	0.04908
3286.42512	0.04885
3285.13935	0.04899
3283.85358	0.04948
3282.56781	0.05011
3281.28205	0.05065
3279.99628	0.05095
3278.71051	0.05104
3277.42474	0.05096
3276.13897	0.05075
3274.85320	0.05050
3273.56743	0.05034
3272.28166	0.05035
3270.99590	0.05042
3269.71013	0.05039
3268.42436	0.05022
3267.13859	0.05005
3265.85282	0.05005
3264.56705	0.05028
3263.28128	0.05058
3261.99551	0.05072
3260.70974	0.05061
3259.42398	0.05035
3258.13821	0.05010
3256.85244	0.04992
3255.56667	0.04975
3254.28090	0.04949
3252.99513	0.04915
3251.70936	0.04876
3250.42359	0.04844
3249.13783	0.04827
3247.85206	0.04830
3246.56629	0.04851
3245.28052	0.04885
3243.99475	0.04915
3242.70898	0.04923
3241.42321	0.04902
3240.13744	0.04865
3238.85167	0.04843
3237.56591	0.04850
3236.28014	0.04876
3234.99437	0.04895
3233.70860	0.04891
3232.42283	0.04864
3231.13706	0.04837
3229.85129	0.04830
3228.56552	0.04841
3227.27976	0.04853
3225.99399	0.04849
3224.70822	0.04833
3223.42245	0.04820
3222.13668	0.04821
3220.85091	0.04830
3219.56514	0.04836
3218.27937	0.04827
3216.99360	0.04803
3215.70784	0.04772
3214.42207	0.04748
3213.13630	0.04740
3211.85053	0.04743
3210.56476	0.04746
3209.27899	0.04736
3207.99322	0.04712
3206.70745	0.04690
3205.42169	0.04686
3204.13592	0.04702
3202.85015	0.04722
3201.56438	0.04724
3200.27861	0.04693
3198.99284	0.04641
3197.70707	0.04595
3196.42130	0.04580
3195.13553	0.04597
3193.84977	0.04634
3192.56400	0.04678
3191.27823	0.04716
3189.99246	0.04745
3188.70669	0.04760
3187.42092	0.04758
3186.13515	0.04735
3184.84938	0.04697
3183.56362	0.04665
3182.27785	0.04651
3180.99208	0.04643
3179.70631	0.04626
3178.42054	0.04602
3177.13477	0.04588
3175.84900	0.04590
3174.56323	0.04593
3173.27746	0.04583
3171.99170	0.04567
3170.70593	0.04563
3169.42016	0.04575
3168.13439	0.04586
3166.84862	0.04585
3165.56285	0.04573
3164.27708	0.04557
3162.99131	0.04537
3161.70555	0.04519
3160.41978	0.04510
3159.13401	0.04515
3157.84824	0.04530
3156.56247	0.04543
3155.27670	0.04550
3153.99093	0.04546
3152.70516	0.04530
3151.41939	0.04511
3150.13363	0.04507
3148.84786	0.04525
3147.56209	0.04544
3146.27632	0.04539
3144.99055	0.04498
3143.70478	0.04439
3142.41901	0.04388
3141.13324	0.04362
3139.84748	0.04365
3138.56171	0.04386
3137.27594	0.04411
3135.99017	0.04426
3134.70440	0.04428
3133.41863	0.04423
3132.13286	0.04416
3130.84709	0.04403
3129.56132	0.04377
3128.27556	0.04342
3126.98979	0.04314
3125.70402	0.04311
3124.41825	0.04330
3123.13248	0.04351
3121.84671	0.04352
3120.56094	0.04322
3119.27517	0.04277
3117.98940	0.04241
3116.70364	0.04233
3115.41787	0.04250
3114.13210	0.04280
3112.84633	0.04312
3111.56056	0.04341
3110.27479	0.04368
3108.98902	0.04386
3107.70325	0.04385
3106.41749	0.04356
3105.13172	0.04298
3103.84595	0.04227
3102.56018	0.04176
3101.27441	0.04173
3099.98864	0.04216
3098.70287	0.04275
3097.41710	0.04316
3096.13133	0.04328
3094.84557	0.04323
3093.55980	0.04322
3092.27403	0.04333
3090.98826	0.04341
3089.70249	0.04329
3088.41672	0.04296
3087.13095	0.04258
3085.84518	0.04233
3084.55942	0.04223
3083.27365	0.04223
3081.98788	0.04231
3080.70211	0.04242
3079.41634	0.04251
3078.13057	0.04257
3076.84480	0.04268
3075.55903	0.04289
3074.27326	0.04311
3072.98750	0.04315
3071.70173	0.04300
3070.41596	0.04277
3069.13019	0.04251
3067.84442	0.04219
3066.55865	0.04192
3065.27288	0.04187
3063.98711	0.04210
3062.70135	0.04243
3061.41558	0.04264
3060.12981	0.04266
3058.84404	0.04257
3057.55827	0.04245
3056.27250	0.04234
3054.98673	0.04226
3053.70096	0.04221
3052.41519	0.04218
3051.12943	0.04210
3049.84366	0.04195
3048.55789	0.04174
3047.27212	0.04152
3045.98635	0.04133
3044.70058	0.04121
3043.41481	0.04120
3042.12904	0.04136
3040.84328	0.04161
3039.55751	0.04178
3038.27174	0.04166
3036.98597	0.04124
3035.70020	0.04072
3034.41443	0.04033
3033.12866	0.04015
3031.84289	0.04015
3030.55712	0.04032
3029.27136	0.04056
3027.98559	0.04070
3026.69982	0.04057
3025.41405	0.04021
3024.12828	0.03987
3022.84251	0.03969
3021.55674	0.03961
3020.27097	0.03948
3018.98521	0.03926
3017.69944	0.03909
3016.41367	0.03908
3015.12790	0.03921
3013.84213	0.03942
3012.55636	0.03962
3011.27059	0.03971
3009.98482	0.03964
3008.69905	0.03945
3007.41329	0.03921
3006.12752	0.03899
3004.84175	0.03883
3003.55598	0.03876
3002.27021	0.03873
3000.98444	0.03868
2999.69867	0.03855
2998.41290	0.03838
2997.12714	0.03831
2995.84137	0.03839
2994.55560	0.03848
2993.26983	0.03846
2991.98406	0.03834
2990.69829	0.03823
2989.41252	0.03814
2988.12675	0.03807
2986.84098	0.03808
2985.55522	0.03824
2984.26945	0.03852
2982.98368	0.03876
2981.69791	0.03880
2980.41214	0.03865
2979.12637	0.03851
2977.84060	0.03856
2976.55483	0.03878
2975.26907	0.03901
2973.98330	0.03913
2972.69753	0.03922
2971.41176	0.03934
2970.12599	0.03947
2968.84022	0.03954
2967.55445	0.03964
2966.26868	0.03987
2964.98291	0.04020
2963.69715	0.04051
2962.41138	0.04077
2961.12561	0.04105
2959.83984	0.04139
2958.55407	0.04170
2957.26830	0.04185
2955.98253	0.04181
2954.69676	0.04163
2953.41100	0.04133
2952.12523	0.04092
2950.83946	0.04053
2949.55369	0.04032
2948.26792	0.04039
2946.98215	0.04065
2945.69638	0.04090
2944.41061	0.04107
2943.12484	0.04116
2941.83908	0.04124
2940.55331	0.04127
2939.26754	0.04124
2937.98177	0.04118
2936.69600	0.04115
2935.41023	0.04119
2934.12446	0.04124
2932.83869	0.04123
2931.55293	0.04114
2930.26716	0.04103
2928.98139	0.04093
2927.69562	0.04080
2926.40985	0.04057
2925.12408	0.04028
2923.83831	0.04001
2922.55254	0.03980
2921.26677	0.03960
2919.98101	0.03943
2918.69524	0.03939
2917.40947	0.03952
2916.12370	0.03974
2914.83793	0.03989
2913.55216	0.03991
2912.26639	0.03982
2910.98062	0.03967
2909.69486	0.03949
2908.40909	0.03931
2907.12332	0.03917
2905.83755	0.03913
2904.55178	0.03927
2903.26601	0.03968
2901.98024	0.04023
2900.69447	0.04059
2899.40870	0.04044
2898.12294	0.03979
2896.83717	0.03901
2895.55140	0.03843
2894.26563	0.03812
2892.97986	0.03797
2891.69409	0.03786
2890.40832	0.03779
2889.12255	0.03776
2887.83678	0.03779
2886.55102	0.03783
2885.26525	0.03785
2883.97948	0.03782
2882.69371	0.03775
2881.40794	0.03776
2880.12217	0.03789
2878.83640	0.03800
2877.55063	0.03792
2876.26487	0.03764
2874.97910	0.03737
2873.69333	0.03730
2872.40756	0.03745
2871.12179	0.03770
2869.83602	0.03792
2868.55025	0.03800
2867.26448	0.03788
2865.97871	0.03762
2864.69295	0.03735
2863.40718	0.03715
2862.12141	0.03698
2860.83564	0.03676
2859.54987	0.03646
2858.26410	0.03614
2856.97833	0.03590
2855.69256	0.03581
2854.40680	0.03581
2853.12103	0.03582
2851.83526	0.03576
2850.54949	0.03561
2849.26372	0.03541
2847.97795	0.03530
2846.69218	0.03535
2845.40641	0.03550
2844.12064	0.03558
2842.83488	0.03557
2841.54911	0.03560
2840.26334	0.03571
2838.97757	0.03578
2837.69180	0.03562
2836.40603	0.03522
2835.12026	0.03478
2833.83449	0.03453
2832.54873	0.03452
2831.26296	0.03461
2829.97719	0.03460
2828.69142	0.03449
2827.40565	0.03433
2826.11988	0.03417
2824.83411	0.03397
2823.54834	0.03374
2822.26257	0.03356
2820.97681	0.03347
2819.69104	0.03346
2818.40527	0.03347
2817.11950	0.03352
2815.83373	0.03357
2814.54796	0.03357
2813.26219	0.03344
2811.97642	0.03323
2810.69066	0.03303
2809.40489	0.03292
2808.11912	0.03281
2806.83335	0.03266
2805.54758	0.03251
2804.26181	0.03241
2802.97604	0.03235
2801.69027	0.03227
2800.40450	0.03224
2799.11874	0.03232
2797.83297	0.03241
2796.54720	0.03234
2795.26143	0.03204
2793.97566	0.03166
2792.68989	0.03141
2791.40412	0.03138
2790.11835	0.03156
2788.83259	0.03188
2787.54682	0.03222
2786.26105	0.03243
2784.97528	0.03241
2783.68951	0.03219
2782.40374	0.03192
2781.11797	0.03169
2779.83220	0.03153
2778.54643	0.03142
2777.26067	0.03134
2775.97490	0.03130
2774.68913	0.03131
2773.40336	0.03131
2772.11759	0.03131
2770.83182	0.03130
2769.54605	0.03126
2768.26028	0.03115
2766.97452	0.03103
2765.68875	0.03100
2764.40298	0.03109
2763.11721	0.03121
2761.83144	0.03122
2760.54567	0.03114
2759.25990	0.03105
2757.97413	0.03101
2756.68836	0.03105
2755.40260	0.03117
2754.11683	0.03136
2752.83106	0.03149
2751.54529	0.03138
2750.25952	0.03106
2748.97375	0.03075
2747.68798	0.03065
2746.40221	0.03072
2745.11645	0.03081
2743.83068	0.03076
2742.54491	0.03061
2741.25914	0.03044
2739.97337	0.03030
2738.68760	0.03015
2737.40183	0.02998
2736.11606	0.02988
2734.83029	0.02992
2733.54453	0.03004
2732.25876	0.03008
2730.97299	0.02992
2729.68722	0.02960
2728.40145	0.02935
2727.11568	0.02935
2725.82991	0.02958
2724.54414	0.02984
2723.25838	0.02991
2721.97261	0.02976
2720.68684	0.02953
2719.40107	0.02941
2718.11530	0.02946
2716.82953	0.02958
2715.54376	0.02966
2714.25799	0.02967
2712.97222	0.02962
2711.68646	0.02948
2710.40069	0.02923
2709.11492	0.02894
2707.82915	0.02877
2706.54338	0.02875
2705.25761	0.02883
2703.97184	0.02892
2702.68607	0.02894
2701.40031	0.02889
2700.11454	0.02872
2698.82877	0.02847
2697.54300	0.02823
2696.25723	0.02811
2694.97146	0.02812
2693.68569	0.02817
2692.39992	0.02817
2691.11415	0.02817
2689.82839	0.02823
2688.54262	0.02827
2687.25685	0.02822
2685.97108	0.02812
2684.68531	0.02814
2683.39954	0.02834
2682.11377	0.02857
2680.82800	0.02856
2679.54224	0.02826
2678.25647	0.02787
2676.97070	0.02767
2675.68493	0.02775
2674.39916	0.02801
2673.11339	0.02826
2671.82762	0.02840
2670.54185	0.02844
2669.25608	0.02845
2667.97032	0.02844
2666.68455	0.02841
2665.39878	0.02837
2664.11301	0.02832
2662.82724	0.02825
2661.54147	0.02818
2660.25570	0.02813
2658.96993	0.02809
2657.68417	0.02803
2656.39840	0.02790
2655.11263	0.02773
2653.82686	0.02760
2652.54109	0.02757
2651.25532	0.02760
2649.96955	0.02764
2648.68378	0.02763
2647.39801	0.02757
2646.11225	0.02746
2644.82648	0.02732
2643.54071	0.02721
2642.25494	0.02709
2640.96917	0.02686
2639.68340	0.02652
2638.39763	0.02617
2637.11186	0.02593
2635.82609	0.02578
2634.54033	0.02571
2633.25456	0.02576
2631.96879	0.02594
2630.68302	0.02610
2629.39725	0.02610
2628.11148	0.02591
2626.82571	0.02565
2625.53994	0.02544
2624.25418	0.02531
2622.96841	0.02530
2621.68264	0.02536
2620.39687	0.02541
2619.11110	0.02534
2617.82533	0.02521
2616.53956	0.02511
2615.25379	0.02503
2613.96802	0.02487
2612.68226	0.02464
2611.39649	0.02444
2610.11072	0.02437
2608.82495	0.02440
2607.53918	0.02444
2606.25341	0.02444
2604.96764	0.02438
2603.68187	0.02433
2602.39611	0.02438
2601.11034	0.02460
2599.82457	0.02488
2598.53880	0.02504
2597.25303	0.02495
2595.96726	0.02466
2594.68149	0.02437
2593.39572	0.02424
2592.10995	0.02426
2590.82419	0.02438
2589.53842	0.02453
2588.25265	0.02465
2586.96688	0.02467
2585.68111	0.02463
2584.39534	0.02468
2583.10957	0.02486
2581.82380	0.02495
2580.53804	0.02471
2579.25227	0.02415
2577.96650	0.02349
2576.68073	0.02299
2575.39496	0.02278
2574.10919	0.02289
2572.82342	0.02321
2571.53765	0.02346
2570.25188	0.02342
2568.96612	0.02313
2567.68035	0.02283
2566.39458	0.02273
2565.10881	0.02279
2563.82304	0.02292
2562.53727	0.02310
2561.25150	0.02333
2559.96573	0.02350
2558.67997	0.02341
2557.39420	0.02298
2556.10843	0.02241
2554.82266	0.02197
2553.53689	0.02184
2552.25112	0.02206
2550.96535	0.02255
2549.67958	0.02311
2548.39381	0.02351
2547.10805	0.02360
2545.82228	0.02342
2544.53651	0.02306
2543.25074	0.02264
2541.96497	0.02230
2540.67920	0.02213
2539.39343	0.02212
2538.10766	0.02219
2536.82190	0.02219
2535.53613	0.02209
2534.25036	0.02195
2532.96459	0.02182
2531.67882	0.02168
2530.39305	0.02149
2529.10728	0.02132
2527.82151	0.02133
2526.53574	0.02160
2525.24998	0.02203
2523.96421	0.02236
2522.67844	0.02243
2521.39267	0.02232
2520.10690	0.02223
2518.82113	0.02233
2517.53536	0.02257
2516.24959	0.02280
2514.96383	0.02290
2513.67806	0.02282
2512.39229	0.02260
2511.10652	0.02230
2509.82075	0.02203
2508.53498	0.02198
2507.24921	0.02222
2505.96344	0.02257
2504.67767	0.02272
2503.39191	0.02255
2502.10614	0.02224
2500.82037	0.02202
2499.53460	0.02195
2498.24883	0.02190
2496.96306	0.02172
2495.67729	0.02131
2494.39152	0.02078
2493.10576	0.02043
2491.81999	0.02047
2490.53422	0.02074
2489.24845	0.02086
2487.96268	0.02069
2486.67691	0.02045
2485.39114	0.02039
2484.10537	0.02052
2482.81960	0.02070
2481.53384	0.02086
2480.24807	0.02104
2478.96230	0.02125
2477.67653	0.02140
2476.39076	0.02144
2475.10499	0.02143
2473.81922	0.02142
2472.53345	0.02143
2471.24769	0.02139
2469.96192	0.02126
2468.67615	0.02107
2467.39038	0.02098
2466.10461	0.02118
2464.81884	0.02164
2463.53307	0.02205
2462.24730	0.02209
2460.96153	0.02173
2459.67577	0.02125
2458.39000	0.02091
2457.10423	0.02076
2455.81846	0.02075
2454.53269	0.02083
2453.24692	0.02092
2451.96115	0.02088
2450.67538	0.02060
2449.38962	0.02012
2448.10385	0.01969
2446.81808	0.01946
2445.53231	0.01946
2444.24654	0.01961
2442.96077	0.01983
2441.67500	0.02006
2440.38923	0.02018
2439.10346	0.02015
2437.81770	0.02004
2436.53193	0.01998
2435.24616	0.01999
2433.96039	0.02001
2432.67462	0.02003
2431.38885	0.02013
2430.10308	0.02031
2428.81731	0.02042
2427.53155	0.02027
2426.24578	0.01990
2424.96001	0.01954
2423.67424	0.01937
2422.38847	0.01940
2421.10270	0.01955
2419.81693	0.01968
2418.53116	0.01966
2417.24539	0.01947
2415.95963	0.01923
2414.67386	0.01914
2413.38809	0.01930
2412.10232	0.01962
2410.81655	0.01989
2409.53078	0.01999
2408.24501	0.01999
2406.95924	0.02008
2405.67347	0.02035
2404.38771	0.02075
2403.10194	0.02110
2401.81617	0.02121
2400.53040	0.02101
2399.24463	0.02059
2397.95886	0.02016
2396.67309	0.01983
2395.38732	0.01964
2394.10156	0.01953
2392.81579	0.01946
2391.53002	0.01941
2390.24425	0.01945
2388.95848	0.01966
2387.67271	0.01997
2386.38694	0.02023
2385.10117	0.02034
2383.81540	0.02032
2382.52964	0.02025
2381.24387	0.02020
2379.95810	0.02017
2378.67233	0.02035
2377.38656	0.02049
2376.10079	0.02029
2374.81502	0.01996
2373.52925	0.02049
2372.24349	0.02170
2370.95772	0.02257
2369.67195	0.02273
2368.38618	0.02249
2367.10041	0.02237
2365.81464	0.02235
2364.52887	0.02240
2363.24310	0.02250
2361.95733	0.02273
2360.67157	0.02329
2359.38580	0.02356
2358.10003	0.02324
2356.81426	0.02250
2355.52849	0.02151
2354.24272	0.02032
2352.95695	0.01939
2351.67118	0.01973
2350.38542	0.02057
2349.09965	0.02082
2347.81388	0.02093
2346.52811	0.02184
2345.24234	0.02254
2343.95657	0.02158
2342.67080	0.01929
2341.38503	0.01963
2340.09926	0.02199
2338.81350	0.02171
2337.52773	0.01930
2336.24196	0.02016
2334.95619	0.02260
2333.67042	0.02190
2332.38465	0.01926
2331.09888	0.02055
2329.81311	0.02128
2328.52735	0.01971
2327.24158	0.02044
2325.95581	0.02211
2324.67004	0.02201
2323.38427	0.02136
2322.09850	0.02183
2320.81273	0.02111
2319.52696	0.02064
2318.24119	0.02066
2316.95543	0.02032
2315.66966	0.02042
2314.38389	0.02045
2313.09812	0.02011
2311.81235	0.02018
2310.52658	0.02005
2309.24081	0.01977
2307.95504	0.01967
2306.66928	0.01929
2305.38351	0.01894
2304.09774	0.01867
2302.81197	0.01866
2301.52620	0.01906
2300.24043	0.01953
2298.95466	0.01985
2297.66889	0.01984
2296.38312	0.01957
2295.09736	0.01925
2293.81159	0.01894
2292.52582	0.01870
2291.24005	0.01842
2289.95428	0.01812
2288.66851	0.01790
2287.38274	0.01785
2286.09697	0.01801
2284.81121	0.01825
2283.52544	0.01837
2282.23967	0.01818
2280.95390	0.01778
2279.66813	0.01745
2278.38236	0.01734
2277.09659	0.01731
2275.81082	0.01711
2274.52505	0.01666
2273.23929	0.01616
2271.95352	0.01586
2270.66775	0.01590
2269.38198	0.01615
2268.09621	0.01641
2266.81044	0.01650
2265.52467	0.01637
2264.23890	0.01597
2262.95314	0.01549
2261.66737	0.01519
2260.38160	0.01515
2259.09583	0.01533
2257.81006	0.01560
2256.52429	0.01578
2255.23852	0.01564
2253.95275	0.01516
2252.66698	0.01449
2251.38122	0.01392
2250.09545	0.01380
2248.80968	0.01424
2247.52391	0.01499
2246.23814	0.01568
2244.95237	0.01610
2243.66660	0.01620
2242.38083	0.01602
2241.09507	0.01561
2239.80930	0.01508
2238.52353	0.01458
2237.23776	0.01427
2235.95199	0.01427
2234.66622	0.01449
2233.38045	0.01465
2232.09468	0.01447
2230.80891	0.01387
2229.52315	0.01298
2228.23738	0.01218
2226.95161	0.01198
2225.66584	0.01251
2224.38007	0.01326
2223.09430	0.01359
2221.80853	0.01341
2220.52276	0.01325
2219.23700	0.01352
2217.95123	0.01409
2216.66546	0.01455
2215.37969	0.01479
2214.09392	0.01498
2212.80815	0.01515
2211.52238	0.01503
2210.23661	0.01444
2208.95084	0.01374
2207.66508	0.01349
2206.37931	0.01393
2205.09354	0.01476
2203.80777	0.01548
2202.52200	0.01572
2201.23623	0.01540
2199.95046	0.01474
2198.66469	0.01405
2197.37893	0.01347
2196.09316	0.01296
2194.80739	0.01247
2193.52162	0.01209
2192.23585	0.01186
2190.95008	0.01176
2189.66431	0.01168
2188.37854	0.01149
2187.09277	0.01105
2185.80701	0.01040
2184.52124	0.00989
2183.23547	0.00975
2181.94970	0.00976
2180.66393	0.00935
2179.37816	0.00834
2178.09239	0.00723
2176.80662	0.00674
2175.52085	0.00713
2174.23509	0.00810
2172.94932	0.00919
2171.66355	0.01004
2170.37778	0.01032
2169.09201	0.00982
2167.80624	0.00872
2166.52047	0.00749
2165.23470	0.00659
2163.94894	0.00612
2162.66317	0.00585
2161.37740	0.00542
2160.09163	0.00465
2158.80586	0.00382
2157.52009	0.00341
2156.23432	0.00358
2154.94855	0.00410
2153.66278	0.00494
2152.37702	0.00627
2151.09125	0.00795
2149.80548	0.00932
2148.51971	0.00971
2147.23394	0.00927
2145.94817	0.00880
2144.66240	0.00883
2143.37663	0.00913
2142.09087	0.00919
2140.80510	0.00891
2139.51933	0.00869
2138.23356	0.00877
2136.94779	0.00892
2135.66202	0.00878
2134.37625	0.00846
2133.09048	0.00834
2131.80471	0.00855
2130.51895	0.00883
2129.23318	0.00914
2127.94741	0.00972
2126.66164	0.01063
2125.37587	0.01142
2124.09010	0.01161
2122.80433	0.01129
2121.51856	0.01098
2120.23280	0.01101
2118.94703	0.01120
2117.66126	0.01115
2116.37549	0.01082
2115.08972	0.01054
2113.80395	0.01062
2112.51818	0.01105
2111.23241	0.01154
2109.94664	0.01190
2108.66088	0.01211
2107.37511	0.01216
2106.08934	0.01198
2104.80357	0.01169
2103.51780	0.01154
2102.23203	0.01154
2100.94626	0.01144
2099.66049	0.01067
2098.37473	0.00993
2097.08896	0.00936
2095.80319	0.00894
2094.51742	0.00875
2093.23165	0.00892
2091.94588	0.00945
2090.66011	0.01011
2089.37434	0.01050
2088.08857	0.01041
2086.80281	0.01005
2085.51704	0.00991
2084.23127	0.01035
2082.94550	0.01118
2081.65973	0.01180
2080.37396	0.01173
2079.08819	0.01106
2077.80242	0.01024
2076.51666	0.00955
2075.23089	0.00896
2073.94512	0.00847
2072.65935	0.00830
2071.37358	0.00853
2070.08781	0.00891
2068.80204	0.00911
2067.51627	0.00916
2066.23050	0.00926
2064.94474	0.00946
2063.65897	0.00958
2062.37320	0.00960
2061.08743	0.00967
2059.80166	0.00967
2058.51589	0.00929
2057.23012	0.00845
2055.94435	0.00756
2054.65859	0.00720
2053.37282	0.00746
2052.08705	0.00796
2050.80128	0.00812
2049.51551	0.00765
2048.22974	0.00668
2046.94397	0.00563
2045.65820	0.00491
2044.37243	0.00468
2043.08667	0.00477
2041.80090	0.00496
2040.51513	0.00506
2039.22936	0.00498
2037.94359	0.00466
2036.65782	0.00416
2035.37205	0.00379
2034.08628	0.00393
2032.80052	0.00455
2031.51475	0.00513
2030.22898	0.00514
2028.94321	0.00468
2027.65744	0.00434
2026.37167	0.00467
2025.08590	0.00552
2023.80013	0.00620
2022.51436	0.00610
2021.22860	0.00530
2019.94283	0.00446
2018.65706	0.00417
2017.37129	0.00445
2016.08552	0.00499
2014.79975	0.00552
2013.51398	0.00590
2012.22821	0.00599
2010.94245	0.00577
2009.65668	0.00551
2008.37091	0.00547
2007.08514	0.00559
2005.79937	0.00558
2004.51360	0.00536
2003.22783	0.00517
2001.94206	0.00526
2000.65629	0.00563
1999.37053	0.00614
1998.08476	0.00680
1996.79899	0.00778
1995.51322	0.00904
1994.22745	0.01014
1992.94168	0.01042
1991.65591	0.00971
1990.37014	0.00854
1989.08438	0.00774
1987.79861	0.00782
1986.51284	0.00865
1985.22707	0.00967
1983.94130	0.01025
1982.65553	0.01011
1981.36976	0.00947
1980.08399	0.00868
1978.79822	0.00782
1977.51246	0.00681
1976.22669	0.00581
1974.94092	0.00527
1973.65515	0.00543
1972.36938	0.00601
1971.08361	0.00652
1969.79784	0.00669
1968.51207	0.00662
1967.22631	0.00669
1965.94054	0.00721
1964.65477	0.00815
1963.36900	0.00903
1962.08323	0.00930
1960.79746	0.00890
1959.51169	0.00825
1958.22592	0.00779
1956.94015	0.00751
1955.65439	0.00716
1954.36862	0.00667
1953.08285	0.00630
1951.79708	0.00638
1950.51131	0.00690
1949.22554	0.00748
1947.93977	0.00778
1946.65400	0.00781
1945.36823	0.00784
1944.08247	0.00808
1942.79670	0.00846
1941.51093	0.00877
1940.22516	0.00892
1938.93939	0.00900
1937.65362	0.00915
1936.36785	0.00935
1935.08208	0.00949
1933.79632	0.00950
1932.51055	0.00951
1931.22478	0.00976
1929.93901	0.01031
1928.65324	0.01092
1927.36747	0.01132
1926.08170	0.01141
1924.79593	0.01127
1923.51016	0.01099
1922.22440	0.01058
1920.93863	0.01012
1919.65286	0.00979
1918.36709	0.00974
1917.08132	0.00995
1915.79555	0.01025
1914.50978	0.01048
1913.22401	0.01050
1911.93825	0.01026
1910.65248	0.00992
1909.36671	0.00976
1908.08094	0.00991
1906.79517	0.01024
1905.50940	0.01052
1904.22363	0.01064
1902.93786	0.01061
1901.65209	0.01042
1900.36633	0.01000
1899.08056	0.00943
1897.79479	0.00893
1896.50902	0.00876
1895.22325	0.00901
1893.93748	0.00958
1892.65171	0.01026
1891.36594	0.01081
1890.08018	0.01108
1888.79441	0.01109
1887.50864	0.01102
1886.22287	0.01103
1884.93710	0.01107
1883.65133	0.01093
1882.36556	0.01057
1881.07979	0.01019
1879.79402	0.01011
1878.50826	0.01044
1877.22249	0.01096
1875.93672	0.01133
1874.65095	0.01130
1873.36518	0.01094
1872.07941	0.01052
1870.79364	0.01029
1869.50787	0.01036
1868.22211	0.01063
1866.93634	0.01094
1865.65057	0.01114
1864.36480	0.01114
1863.07903	0.01097
1861.79326	0.01079
1860.50749	0.01080
1859.22172	0.01107
1857.93595	0.01143
1856.65019	0.01165
1855.36442	0.01164
1854.07865	0.01146
1852.79288	0.01121
1851.50711	0.01098
1850.22134	0.01082
1848.93557	0.01081
1847.64980	0.01095
1846.36404	0.01114
1845.07827	0.01121
1843.79250	0.01112
1842.50673	0.01092
1841.22096	0.01075
1839.93519	0.01071
1838.64942	0.01082
1837.36365	0.01103
1836.07788	0.01122
1834.79212	0.01127
1833.50635	0.01116
1832.22058	0.01096
1830.93481	0.01078
1829.64904	0.01070
1828.36327	0.01072
1827.07750	0.01078
1825.79173	0.01081
1824.50597	0.01077
1823.22020	0.01069
1821.93443	0.01061
1820.64866	0.01058
1819.36289	0.01058
1818.07712	0.01059
1816.79135	0.01067
1815.50558	0.01088
1814.21981	0.01116
1812.93405	0.01139
1811.64828	0.01150
1810.36251	0.01152
1809.07674	0.01151
1807.79097	0.01154
1806.50520	0.01159
1805.21943	0.01164
1803.93366	0.01168
1802.64790	0.01166
1801.36213	0.01162
1800.07636	0.01161
1798.79059	0.01164
1797.50482	0.01171
1796.21905	0.01175
1794.93328	0.01174
1793.64751	0.01164
1792.36174	0.01147
1791.07598	0.01131
1789.79021	0.01120
1788.50444	0.01113
1787.21867	0.01108
1785.93290	0.01103
1784.64713	0.01100
1783.36136	0.01103
1782.07559	0.01109
1780.78983	0.01110
1779.50406	0.01102
1778.21829	0.01090
1776.93252	0.01086
1775.64675	0.01092
1774.36098	0.01103
1773.07521	0.01109
1771.78944	0.01107
1770.50367	0.01100
1769.21791	0.01099
1767.93214	0.01107
1766.64637	0.01122
1765.36060	0.01137
1764.07483	0.01144
1762.78906	0.01144
1761.50329	0.01142
1760.21752	0.01142
1758.93176	0.01142
1757.64599	0.01139
1756.36022	0.01132
1755.07445	0.01124
1753.78868	0.01116
1752.50291	0.01110
1751.21714	0.01105
1749.93137	0.01102
1748.64560	0.01101
1747.35984	0.01099
1746.07407	0.01095
1744.78830	0.01088
1743.50253	0.01078
1742.21676	0.01067
1740.93099	0.01056
1739.64522	0.01047
1738.35945	0.01044
1737.07369	0.01046
1735.78792	0.01052
1734.50215	0.01060
1733.21638	0.01067
1731.93061	0.01077
1730.64484	0.01086
1729.35907	0.01089
1728.07330	0.01083
1726.78753	0.01076
1725.50177	0.01077
1724.21600	0.01091
1722.93023	0.01110
1721.64446	0.01123
1720.35869	0.01125
1719.07292	0.01122
1717.78715	0.01126
1716.50138	0.01143
1715.21561	0.01170
1713.92985	0.01200
1712.64408	0.01226
1711.35831	0.01249
1710.07254	0.01272
1708.78677	0.01299
1707.50100	0.01333
1706.21523	0.01377
1704.92946	0.01423
1703.64370	0.01466
1702.35793	0.01505
1701.07216	0.01548
1699.78639	0.01602
1698.50062	0.01671
1697.21485	0.01749
1695.92908	0.01832
1694.64331	0.01915
1693.35754	0.01997
1692.07178	0.02076
1690.78601	0.02153
1689.50024	0.02227
1688.21447	0.02297
1686.92870	0.02362
1685.64293	0.02423
1684.35716	0.02484
1683.07139	0.02551
1681.78563	0.02625
1680.49986	0.02699
1679.21409	0.02770
1677.92832	0.02840
1676.64255	0.02914
1675.35678	0.02990
1674.07101	0.03067
1672.78524	0.03141
1671.49947	0.03212
1670.21371	0.03279
1668.92794	0.03343
1667.64217	0.03404
1666.35640	0.03469
1665.07063	0.03538
1663.78486	0.03613
1662.49909	0.03689
1661.21332	0.03761
1659.92756	0.03823
1658.64179	0.03874
1657.35602	0.03915
1656.07025	0.03949
1654.78448	0.03981
1653.49871	0.04017
1652.21294	0.04063
1650.92717	0.04114
1649.64140	0.04162
1648.35564	0.04201
1647.06987	0.04229
1645.78410	0.04250
1644.49833	0.04267
1643.21256	0.04280
1641.92679	0.04286
1640.64102	0.04286
1639.35525	0.04282
1638.06949	0.04276
1636.78372	0.04266
1635.49795	0.04247
1634.21218	0.04216
1632.92641	0.04174
1631.64064	0.04123
1630.35487	0.04066
1629.06910	0.04006
1627.78333	0.03945
1626.49757	0.03883
1625.21180	0.03818
1623.92603	0.03749
1622.64026	0.03677
1621.35449	0.03602
1620.06872	0.03524
1618.78295	0.03440
1617.49718	0.03353
1616.21142	0.03271
1614.92565	0.03196
1613.63988	0.03130
1612.35411	0.03069
1611.06834	0.03012
1609.78257	0.02958
1608.49680	0.02906
1607.21103	0.02855
1605.92526	0.02806
1604.63950	0.02762
1603.35373	0.02724
1602.06796	0.02692
1600.78219	0.02667
1599.49642	0.02645
1598.21065	0.02626
1596.92488	0.02609
1595.63911	0.02595
1594.35335	0.02586
1593.06758	0.02584
1591.78181	0.02587
1590.49604	0.02591
1589.21027	0.02594
1587.92450	0.02594
1586.63873	0.02594
1585.35296	0.02598
1584.06719	0.02610
1582.78143	0.02629
1581.49566	0.02654
1580.20989	0.02681
1578.92412	0.02707
1577.63835	0.02734
1576.35258	0.02767
1575.06681	0.02807
1573.78104	0.02850
1572.49528	0.02890
1571.20951	0.02926
1569.92374	0.02963
1568.63797	0.03007
1567.35220	0.03057
1566.06643	0.03108
1564.78066	0.03149
1563.49489	0.03177
1562.20912	0.03194
1560.92336	0.03208
1559.63759	0.03231
1558.35182	0.03267
1557.06605	0.03311
1555.78028	0.03360
1554.49451	0.03409
1553.20874	0.03454
1551.92297	0.03494
1550.63721	0.03527
1549.35144	0.03555
1548.06567	0.03577
1546.77990	0.03592
1545.49413	0.03601
1544.20836	0.03603
1542.92259	0.03601
1541.63682	0.03597
1540.35105	0.03598
1539.06529	0.03606
1537.77952	0.03619
1536.49375	0.03630
1535.20798	0.03637
1533.92221	0.03639
1532.63644	0.03637
1531.35067	0.03632
1530.06490	0.03624
1528.77914	0.03616
1527.49337	0.03611
1526.20760	0.03608
1524.92183	0.03601
1523.63606	0.03591
1522.35029	0.03582
1521.06452	0.03579
1519.77875	0.03585
1518.49298	0.03597
1517.20722	0.03611
1515.92145	0.03628
1514.63568	0.03645
1513.34991	0.03661
1512.06414	0.03672
1510.77837	0.03678
1509.49260	0.03683
1508.20683	0.03688
1506.92107	0.03698
1505.63530	0.03713
1504.34953	0.03731
1503.06376	0.03749
1501.77799	0.03763
1500.49222	0.03769
1499.20645	0.03770
1497.92068	0.03766
1496.63491	0.03762
1495.34915	0.03758
1494.06338	0.03756
1492.77761	0.03759
1491.49184	0.03767
1490.20607	0.03780
1488.92030	0.03799
1487.63453	0.03824
1486.34876	0.03855
1485.06299	0.03893
1483.77723	0.03936
1482.49146	0.03984
1481.20569	0.04037
1479.91992	0.04092
1478.63415	0.04150
1477.34838	0.04210
1476.06261	0.04270
1474.77684	0.04328
1473.49108	0.04382
1472.20531	0.04433
1470.91954	0.04482
1469.63377	0.04528
1468.34800	0.04570
1467.06223	0.04610
1465.77646	0.04649
1464.49069	0.04690
1463.20492	0.04733
1461.91916	0.04775
1460.63339	0.04817
1459.34762	0.04858
1458.06185	0.04903
1456.77608	0.04954
1455.49031	0.05007
1454.20454	0.05056
1452.91877	0.05093
1451.63301	0.05117
1450.34724	0.05131
1449.06147	0.05143
1447.77570	0.05150
1446.48993	0.05146
1445.20416	0.05124
1443.91839	0.05085
1442.63262	0.05032
1441.34685	0.04975
1440.06109	0.04920
1438.77532	0.04872
1437.48955	0.04831
1436.20378	0.04799
1434.91801	0.04778
1433.63224	0.04768
1432.34647	0.04772
1431.06070	0.04786
1429.77494	0.04811
1428.48917	0.04847
1427.20340	0.04892
1425.91763	0.04948
1424.63186	0.05013
1423.34609	0.05082
1422.06032	0.05152
1420.77455	0.05221
1419.48878	0.05286
1418.20302	0.05342
1416.91725	0.05387
1415.63148	0.05423
1414.34571	0.05455
1413.05994	0.05488
1411.77417	0.05514
1410.48840	0.05526
1409.20263	0.05520
1407.91687	0.05499
1406.63110	0.05469
1405.34533	0.05433
1404.05956	0.05394
1402.77379	0.05350
1401.48802	0.05298
1400.20225	0.05234
1398.91648	0.05159
1397.63071	0.05076
1396.34495	0.04989
1395.05918	0.04903
1393.77341	0.04814
1392.48764	0.04724
1391.20187	0.04634
1389.91610	0.04543
1388.63033	0.04453
1387.34456	0.04361
1386.05880	0.04267
1384.77303	0.04174
1383.48726	0.04082
1382.20149	0.03994
1380.91572	0.03906
1379.62995	0.03819
1378.34418	0.03732
1377.05841	0.03647
1375.77264	0.03561
1374.48688	0.03473
1373.20111	0.03386
1371.91534	0.03301
1370.62957	0.03219
1369.34380	0.03137
1368.05803	0.03054
1366.77226	0.02972
1365.48649	0.02896
1364.20073	0.02832
1362.91496	0.02778
1361.62919	0.02730
1360.34342	0.02683
1359.05765	0.02636
1357.77188	0.02592
1356.48611	0.02553
1355.20034	0.02521
1353.91457	0.02494
1352.62881	0.02466
1351.34304	0.02438
1350.05727	0.02409
1348.77150	0.02383
1347.48573	0.02363
1346.19996	0.02350
1344.91419	0.02341
1343.62842	0.02335
1342.34266	0.02329
1341.05689	0.02320
1339.77112	0.02309
1338.48535	0.02297
1337.19958	0.02285
1335.91381	0.02275
1334.62804	0.02264
1333.34227	0.02249
1332.05650	0.02231
1330.77074	0.02210
1329.48497	0.02188
1328.19920	0.02163
1326.91343	0.02139
1325.62766	0.02118
1324.34189	0.02101
1323.05612	0.02090
1321.77035	0.02082
1320.48459	0.02074
1319.19882	0.02066
1317.91305	0.02057
1316.62728	0.02047
1315.34151	0.02035
1314.05574	0.02016
1312.76997	0.01992
1311.48420	0.01966
1310.19843	0.01944
1308.91267	0.01925
1307.62690	0.01909
1306.34113	0.01894
1305.05536	0.01880
1303.76959	0.01867
1302.48382	0.01857
1301.19805	0.01847
1299.91228	0.01834
1298.62652	0.01820
1297.34075	0.01807
1296.05498	0.01798
1294.76921	0.01792
1293.48344	0.01785
1292.19767	0.01775
1290.91190	0.01764
1289.62613	0.01757
1288.34036	0.01758
1287.05460	0.01765
1285.76883	0.01771
1284.48306	0.01771
1283.19729	0.01764
1281.91152	0.01753
1280.62575	0.01742
1279.33998	0.01733
1278.05421	0.01726
1276.76845	0.01721
1275.48268	0.01715
1274.19691	0.01710
1272.91114	0.01705
1271.62537	0.01701
1270.33960	0.01696
1269.05383	0.01689
1267.76806	0.01684
1266.48229	0.01685
1265.19653	0.01690
1263.91076	0.01699
1262.62499	0.01707
1261.33922	0.01710
1260.05345	0.01706
1258.76768	0.01697
1257.48191	0.01687
1256.19614	0.01679
1254.91037	0.01678
1253.62461	0.01683
1252.33884	0.01691
1251.05307	0.01696
1249.76730	0.01697
1248.48153	0.01694
1247.19576	0.01692
1245.90999	0.01691
1244.62422	0.01693
1243.33846	0.01694
1242.05269	0.01694
1240.76692	0.01688
1239.48115	0.01680
1238.19538	0.01672
1236.90961	0.01665
1235.62384	0.01660
1234.33807	0.01656
1233.05230	0.01647
1231.76654	0.01633
1230.48077	0.01611
1229.19500	0.01585
1227.90923	0.01558
1226.62346	0.01536
1225.33769	0.01518
1224.05192	0.01501
1222.76615	0.01483
1221.48039	0.01462
1220.19462	0.01443
1218.90885	0.01426
1217.62308	0.01409
1216.33731	0.01389
1215.05154	0.01368
1213.76577	0.01350
1212.48000	0.01337
1211.19423	0.01331
1209.90847	0.01329
1208.62270	0.01326
1207.33693	0.01323
1206.05116	0.01319
1204.76539	0.01317
1203.47962	0.01315
1202.19385	0.01310
1200.90808	0.01302
1199.62232	0.01296
1198.33655	0.01282
1197.05078	0.01269
1195.76501	0.01257
1194.47924	0.01245
1193.19347	0.01235
1191.90770	0.01224
1190.62193	0.01212
1189.33616	0.01200
1188.05040	0.01190
1186.76463	0.01183
1185.47886	0.01176
1184.19309	0.01167
1182.90732	0.01157
1181.62155	0.01151
1180.33578	0.01148
1179.05001	0.01146
1177.76425	0.01143
1176.47848	0.01137
1175.19271	0.01131
1173.90694	0.01128
1172.62117	0.01129
1171.33540	0.01131
1170.04963	0.01132
1168.76386	0.01134
1167.47809	0.01142
1166.19233	0.01154
1164.90656	0.01165
1163.62079	0.01173
1162.33502	0.01178
1161.04925	0.01181
1159.76348	0.01183
1158.47771	0.01185
1157.19194	0.01193
1155.90618	0.01210
1154.62041	0.01232
1153.33464	0.01252
1152.04887	0.01262
1150.76310	0.01264
1149.47733	0.01270
1148.19156	0.01289
1146.90579	0.01317
1145.62002	0.01344
1144.33426	0.01367
1143.04849	0.01394
1141.76272	0.01431
1140.47695	0.01477
1139.19118	0.01523
1137.90541	0.01568
1136.61964	0.01619
1135.33387	0.01680
1134.04811	0.01748
1132.76234	0.01826
1131.47657	0.01915
1130.19080	0.02017
1128.90503	0.02127
1127.61926	0.02245
1126.33349	0.02375
1125.04772	0.02521
1123.76195	0.02682
1122.47619	0.02855
1121.19042	0.03036
1119.90465	0.03224
1118.61888	0.03414
1117.33311	0.03604
1116.04734	0.03788
1114.76157	0.03969
1113.47580	0.04151
1112.19004	0.04335
1110.90427	0.04524
1109.61850	0.04716
1108.33273	0.04907
1107.04696	0.05091
1105.76119	0.05264
1104.47542	0.05428
1103.18965	0.05588
1101.90388	0.05745
1100.61812	0.05898
1099.33235	0.06041
1098.04658	0.06172
1096.76081	0.06293
1095.47504	0.06406
1094.18927	0.06515
1092.90350	0.06621
1091.61773	0.06723
1090.33197	0.06822
1089.04620	0.06919
1087.76043	0.07013
1086.47466	0.07102
1085.18889	0.07185
1083.90312	0.07268
1082.61735	0.07358
1081.33158	0.07461
1080.04581	0.07576
1078.76005	0.07699
1077.47428	0.07829
1076.18851	0.07967
1074.90274	0.08115
1073.61697	0.08275
1072.33120	0.08440
1071.04543	0.08603
1069.75966	0.08764
1068.47390	0.08928
1067.18813	0.09100
1065.90236	0.09282
1064.61659	0.09472
1063.33082	0.09665
1062.04505	0.09850
1060.75928	0.10025
1059.47351	0.10193
1058.18774	0.10361
1056.90198	0.10537
1055.61621	0.10721
1054.33044	0.10907
1053.04467	0.11087
1051.75890	0.11257
1050.47313	0.11423
1049.18736	0.11592
1047.90159	0.11766
1046.61583	0.11945
1045.33006	0.12128
1044.04429	0.12316
1042.75852	0.12505
1041.47275	0.12688
1040.18698	0.12863
1038.90121	0.13032
1037.61544	0.13205
1036.32967	0.13387
1035.04391	0.13577
1033.75814	0.13767
1032.47237	0.13945
1031.18660	0.14098
1029.90083	0.14226
1028.61506	0.14335
1027.32929	0.14434
1026.04352	0.14524
1024.75775	0.14601
1023.47199	0.14660
1022.18622	0.14697
1020.90045	0.14710
1019.61468	0.14701
1018.32891	0.14674
1017.04314	0.14629
1015.75737	0.14562
1014.47160	0.14472
1013.18584	0.14363
1011.90007	0.14240
1010.61430	0.14101
1009.32853	0.13944
1008.04276	0.13765
1006.75699	0.13565
1005.47122	0.13344
1004.18545	0.13101
1002.89968	0.12840
1001.61392	0.12565
1000.32815	0.12282
999.04238	0.11992
997.75661	0.11693
996.47084	0.11383
995.18507	0.11067
993.89930	0.10751
992.61353	0.10441
991.32777	0.10137
990.04200	0.09840
988.75623	0.09549
987.47046	0.09265
986.18469	0.08988
984.89892	0.08718
983.61315	0.08458
982.32738	0.08209
981.04161	0.07970
979.75585	0.07744
978.47008	0.07530
977.18431	0.07327
975.89854	0.07135
974.61277	0.06958
973.32700	0.06801
972.04123	0.06672
970.75546	0.06571
969.46970	0.06500
968.18393	0.06463
966.89816	0.06463
965.61239	0.06495
964.32662	0.06545
963.04085	0.06596
961.75508	0.06633
960.46931	0.06646
959.18354	0.06626
957.89778	0.06568
956.61201	0.06478
955.32624	0.06366
954.04047	0.06241
952.75470	0.06107
951.46893	0.05971
950.18316	0.05840
948.89739	0.05718
947.61163	0.05602
946.32586	0.05486
945.04009	0.05368
943.75432	0.05252
942.46855	0.05139
941.18278	0.05029
939.89701	0.04921
938.61124	0.04817
937.32547	0.04717
936.03971	0.04615
934.75394	0.04514
933.46817	0.04423
932.18240	0.04351
930.89663	0.04296
929.61086	0.04246
928.32509	0.04194
927.03932	0.04138
925.75356	0.04083
924.46779	0.04033
923.18202	0.03987
921.89625	0.03941
920.61048	0.03890
919.32471	0.03834
918.03894	0.03780
916.75317	0.03732
915.46740	0.03687
914.18164	0.03642
912.89587	0.03597
911.61010	0.03558
910.32433	0.03525
909.03856	0.03495
907.75279	0.03466
906.46702	0.03437
905.18125	0.03408
903.89549	0.03376
902.60972	0.03341
901.32395	0.03306
900.03818	0.03274
898.75241	0.03244
897.46664	0.03213
896.18087	0.03179
894.89510	0.03148
893.60933	0.03128
892.32357	0.03120
891.03780	0.03116
889.75203	0.03109
888.46626	0.03106
887.18049	0.03121
885.89472	0.03166
884.60895	0.03247
883.32318	0.03368
882.03742	0.03516
880.75165	0.03663
879.46588	0.03778
878.18011	0.03850
876.89434	0.03895
875.60857	0.03942
874.32280	0.03999
873.03703	0.04051
871.75126	0.04072
870.46550	0.04049
869.17973	0.03989
867.89396	0.03905
866.60819	0.03810
865.32242	0.03709
864.03665	0.03609
862.75088	0.03516
861.46511	0.03433
860.17935	0.03362
858.89358	0.03304
857.60781	0.03255
856.32204	0.03213
855.03627	0.03172
853.75050	0.03131
852.46473	0.03093
851.17896	0.03060
849.89319	0.03023
848.60743	0.02980
847.32166	0.02938
846.03589	0.02907
844.75012	0.02888
843.46435	0.02873
842.17858	0.02856
840.89281	0.02837
839.60704	0.02816
838.32128	0.02796
837.03551	0.02778
835.74974	0.02765
834.46397	0.02757
833.17820	0.02751
831.89243	0.02742
830.60666	0.02727
829.32089	0.02708
828.03512	0.02692
826.74936	0.02682
825.46359	0.02676
824.17782	0.02672
822.89205	0.02666
821.60628	0.02660
820.32051	0.02655
819.03474	0.02648
817.74897	0.02631
816.46321	0.02608
815.17744	0.02589
813.89167	0.02580
812.60590	0.02577
811.32013	0.02573
810.03436	0.02564
808.74859	0.02554
807.46282	0.02546
806.17705	0.02540
804.89129	0.02536
803.60552	0.02532
802.31975	0.02533
801.03398	0.02538
799.74821	0.02538
798.46244	0.02529
797.17667	0.02518
795.89090	0.02515
794.60513	0.02522
793.31937	0.02530
792.03360	0.02533
790.74783	0.02528
789.46206	0.02519
788.17629	0.02506
786.89052	0.02496
785.60475	0.02490
784.31898	0.02490
783.03322	0.02491
781.74745	0.02487
780.46168	0.02477
779.17591	0.02467
777.89014	0.02464
776.60437	0.02470
775.31860	0.02482
774.03283	0.02489
772.74706	0.02488
771.46130	0.02479
770.17553	0.02473
768.88976	0.02471
767.60399	0.02471
766.31822	0.02470
765.03245	0.02467
763.74668	0.02464
762.46091	0.02459
761.17515	0.02453
759.88938	0.02449
758.60361	0.02449
757.31784	0.02454
756.03207	0.02457
754.74630	0.02455
753.46053	0.02450
752.17476	0.02448
750.88899	0.02454
749.60323	0.02466
748.31746	0.02479
747.03169	0.02487
745.74592	0.02482
744.46015	0.02463
743.17438	0.02436
741.88861	0.02411
740.60284	0.02395
739.31708	0.02390
738.03131	0.02396
736.74554	0.02408
735.45977	0.02423
734.17400	0.02439
732.88823	0.02454
731.60246	0.02463
730.31669	0.02457
729.03092	0.02439
727.74516	0.02419
726.45939	0.02406
725.17362	0.02406
723.88785	0.02416
722.60208	0.02434
721.31631	0.02454
720.03054	0.02468
718.74477	0.02476
717.45901	0.02479
716.17324	0.02477
714.88747	0.02472
713.60170	0.02465
712.31593	0.02458
711.03016	0.02454
709.74439	0.02454
708.45862	0.02457
707.17285	0.02458
705.88709	0.02454
704.60132	0.02449
703.31555	0.02445
702.02978	0.02449
700.74401	0.02456
699.45824	0.02460
698.17247	0.02456
696.88670	0.02444
695.60094	0.02434
694.31517	0.02430
693.02940	0.02429
691.74363	0.02429
690.45786	0.02428
689.17209	0.02430
687.88632	0.02432
686.60055	0.02434
685.31478	0.02435
684.02902	0.02437
682.74325	0.02441
681.45748	0.02438
680.17171	0.02427
678.88594	0.02410
677.60017	0.02396
676.31440	0.02392
675.02863	0.02390
673.74287	0.02385
672.45710	0.02381
671.17133	0.02384
669.88556	0.02400
668.59979	0.02415
667.31402	0.02411
666.02825	0.02413
664.74248	0.02409
663.45671	0.02399
662.17095	0.02384
660.88518	0.02366
659.59941	0.02351
658.31364	0.02345
657.02787	0.02348
655.74210	0.02351
654.45633	0.02350
653.17056	0.02346
651.88480	0.02343
650.59903	0.02347
649.31326	0.02352
648.02749	0.02354
646.74172	0.02352
645.45595	0.02352
644.17018	0.02362
642.88441	0.02382
641.59864	0.02406
640.31288	0.02425
639.02711	0.02433
637.74134	0.02437
636.45557	0.02443
635.16980	0.02456
633.88403	0.02475
632.59826	0.02500
631.31249	0.02521
630.02673	0.02511
628.74096	0.02476
627.45519	0.02500
626.16942	0.02407
624.88365	0.02222
623.59788	0.02057
622.31211	0.02046
621.02634	0.02269
619.74057	0.02639
618.45481	0.02975
617.16904	0.03177
615.88327	0.03278
614.59750	0.03353
613.31173	0.03445
612.02596	0.03569
610.74019	0.03747
609.45442	0.03997
608.16866	0.04324
606.88289	0.04727
605.59712	0.05195
604.31135	0.05674
603.02558	0.06065
601.73981	0.06285
600.45404	0.06319
599.16827	0.06211
597.88250	0.06023
596.59674	0.05809
595.31097	0.05608
594.02520	0.05444
592.73943	0.05320
591.45366	0.05231
590.16789	0.05169
588.88212	0.05134
587.59635	0.05130
586.31059	0.05154
585.02482	0.05200
583.73905	0.05267
582.45328	0.05359
581.16751	0.05483
579.88174	0.05638
578.59597	0.05816
577.31020	0.06000
576.02443	0.06173
574.73867	0.06326
573.45290	0.06466
572.16713	0.06608
570.88136	0.06765
569.59559	0.06944
568.30982	0.07144
567.02405	0.07365
565.73828	0.07602
564.45251	0.07842
563.16675	0.08055
561.88098	0.08202
560.59521	0.08251
559.30944	0.08184
558.02367	0.08011
556.73790	0.07759
555.45213	0.07460
554.16636	0.07146
552.88060	0.06841
551.59483	0.06556
550.30906	0.06293
549.02329	0.06046
547.73752	0.05811
546.45175	0.05584
545.16598	0.05368
543.88021	0.05167
542.59444	0.04989
541.30868	0.04836
540.02291	0.04703
538.73714	0.04584
537.45137	0.04470
536.16560	0.04362
534.87983	0.04261
533.59406	0.04169
532.30829	0.04083
531.02253	0.03999
529.73676	0.03909
528.45099	0.03807
527.16522	0.03701
525.87945	0.03603
524.59368	0.03527
523.30791	0.03475
522.02214	0.03440
520.73637	0.03410
519.45061	0.03378
518.16484	0.03336
516.87907	0.03280
515.59330	0.03213
514.30753	0.03141
513.02176	0.03073
511.73599	0.03014
510.45022	0.02965
509.16446	0.02925
507.87869	0.02889
506.59292	0.02851
505.30715	0.02808
504.02138	0.02761
502.73561	0.02721
501.44984	0.02696
500.16407	0.02681
498.87830	0.02664
497.59254	0.02632
496.30677	0.02588
495.02100	0.02546
493.73523	0.02517
492.44946	0.02502
491.16369	0.02496
489.87792	0.02493
488.59215	0.02483
487.30639	0.02460
486.02062	0.02426
484.73485	0.02393
483.44908	0.02372
482.16331	0.02367
480.87754	0.02371
479.59177	0.02377
478.30600	0.02382
477.02023	0.02384
475.73447	0.02387
474.44870	0.02391
473.16293	0.02398
471.87716	0.02407
470.59139	0.02414
469.30562	0.02412
468.01985	0.02398
466.73408	0.02376
465.44832	0.02351
464.16255	0.02327
462.87678	0.02301
461.59101	0.02269
460.30524	0.02233
459.01947	0.02198
457.73370	0.02170
456.44793	0.02150
455.16216	0.02137
453.87640	0.02126
452.59063	0.02114
451.30486	0.02101
450.01909	0.02087
448.73332	0.02069
447.44755	0.02050
446.16178	0.02028
444.87601	0.02008
443.59025	0.01992
442.30448	0.01981
441.01871	0.01971
439.73294	0.01958
438.44717	0.01944
437.16140	0.01932
435.87563	0.01923
434.58986	0.01913
433.30409	0.01902
432.01833	0.01896
430.73256	0.01896
429.44679	0.01899
428.16102	0.01897
426.87525	0.01885
425.58948	0.01864
424.30371	0.01841
423.01794	0.01819
421.73218	0.01799
420.44641	0.01784
419.16064	0.01773
417.87487	0.01766
416.58910	0.01761
415.30333	0.01755
414.01756	0.01750
412.73179	0.01746
411.44602	0.01741
410.16026	0.01737
408.87449	0.01733
407.58872	0.01732
406.30295	0.01730
405.01718	0.01727
403.73141	0.01723
402.44564	0.01720
401.15987	0.01719
399.87411	0.01721
