3997.45528	-0.00922
3996.16951	-0.00897
3994.88374	-0.00873
3993.59798	-0.00847
3992.31221	-0.00816
3991.02644	-0.00782
3989.74067	-0.00748
3988.45490	-0.00715
3987.16913	-0.00687
3985.88336	-0.00666
3984.59759	-0.00645
3983.31183	-0.00606
3982.02606	-0.00541
3980.74029	-0.00465
3979.45452	-0.00408
3978.16875	-0.00391
3976.88298	-0.00407
3975.59721	-0.00427
3974.31144	-0.00417
3973.02567	-0.00355
3971.73991	-0.00252
3970.45414	-0.00148
3969.16837	-0.00094
3967.88260	-0.00115
3966.59683	-0.00201
3965.31106	-0.00310
3964.02529	-0.00393
3962.73952	-0.00412
3961.45376	-0.00345
3960.16799	-0.00216
3958.88222	-0.00088
3957.59645	-0.00034
3956.31068	-0.00073
3955.02491	-0.00154
3953.73914	-0.00213
3952.45337	-0.00214
3951.16760	-0.00165
3949.88184	-0.00091
3948.59607	-0.00027
3947.31030	0.00002
3946.02453	-0.00002
3944.73876	-0.00006
3943.45299	0.00012
3942.16722	0.00031
3940.88145	0.00021
3939.59569	-0.00012
3938.30992	-0.00026
3937.02415	0.00012
3935.73838	0.00089
3934.45261	0.00150
3933.16684	0.00138
3931.88107	0.00052
3930.59530	-0.00053
3929.30953	-0.00108
3928.02377	-0.00080
3926.73800	0.00016
3925.45223	0.00135
3924.16646	0.00233
3922.88069	0.00298
3921.59492	0.00331
3920.30915	0.00324
3919.02338	0.00274
3917.73762	0.00197
3916.45185	0.00129
3915.16608	0.00102
3913.88031	0.00122
3912.59454	0.00163
3911.30877	0.00194
3910.02300	0.00197
3908.73723	0.00176
3907.45146	0.00148
3906.16570	0.00126
3904.87993	0.00105
3903.59416	0.00074
3902.30839	0.00035
3901.02262	0.00008
3899.73685	0.00003
3898.45108	0.00024
3897.16531	0.00076
3895.87955	0.00160
3894.59378	0.00259
3893.30801	0.00349
3892.02224	0.00404
3890.73647	0.00404
3889.45070	0.00367
3888.16493	0.00347
3886.87916	0.00365
3885.59339	0.00396
3884.30763	0.00432
3883.02186	0.00498
3881.73609	0.00586
3880.45032	0.00635
3879.16455	0.00607
3877.87878	0.00538
3876.59301	0.00481
3875.30724	0.00443
3874.02148	0.00404
3872.73571	0.00378
3871.44994	0.00399
3870.16417	0.00449
3868.87840	0.00483
3867.59263	0.00507
3866.30686	0.00546
3865.02109	0.00576
3863.73532	0.00567
3862.44956	0.00534
3861.16379	0.00502
3859.87802	0.00466
3858.59225	0.00421
3857.30648	0.00403
3856.02071	0.00459
3854.73494	0.00572
3853.44917	0.00650
3852.16341	0.00652
3850.87764	0.00634
3849.59187	0.00653
3848.30610	0.00705
3847.02033	0.00763
3845.73456	0.00805
3844.44879	0.00812
3843.16302	0.00770
3841.87725	0.00683
3840.59149	0.00594
3839.30572	0.00551
3838.01995	0.00557
3836.73418	0.00583
3835.44841	0.00620
3834.16264	0.00677
3832.87687	0.00735
3831.59110	0.00751
3830.30534	0.00714
3829.01957	0.00657
3827.73380	0.00618
3826.44803	0.00600
3825.16226	0.00604
3823.87649	0.00650
3822.59072	0.00728
3821.30495	0.00773
3820.01918	0.00759
3818.73342	0.00753
3817.44765	0.00811
3816.16188	0.00886
3814.87611	0.00904
3813.59034	0.00868
3812.30457	0.00800
3811.01880	0.00702
3809.73303	0.00598
3808.44726	0.00542
3807.16150	0.00540
3805.87573	0.00552
3804.58996	0.00572
3803.30419	0.00606
3802.01842	0.00620
3800.73265	0.00582
3799.44688	0.00540
3798.16111	0.00566
3796.87535	0.00644
3795.58958	0.00700
3794.30381	0.00710
3793.01804	0.00694
3791.73227	0.00677
3790.44650	0.00670
3789.16073	0.00676
3787.87496	0.00698
3786.58919	0.00721
3785.30343	0.00726
3784.01766	0.00704
3782.73189	0.00682
3781.44612	0.00698
3780.16035	0.00755
3778.87458	0.00812
3777.58881	0.00831
3776.30304	0.00811
3775.01728	0.00772
3773.73151	0.00736
3772.44574	0.00717
3771.15997	0.00709
3769.87420	0.00687
3768.58843	0.00653
3767.30266	0.00644
3766.01689	0.00676
3764.73112	0.00714
3763.44536	0.00724
3762.15959	0.00711
3760.87382	0.00690
3759.58805	0.00669
3758.30228	0.00646
3757.01651	0.00610
3755.73074	0.00568
3754.44497	0.00551
3753.15921	0.00590
3751.87344	0.00675
3750.58767	0.00758
3749.30190	0.00776
3748.01613	0.00719
3746.73036	0.00666
3745.44459	0.00666
3744.15882	0.00650
3742.87305	0.00589
3741.58729	0.00560
3740.30152	0.00596
3739.01575	0.00643
3737.72998	0.00643
3736.44421	0.00567
3735.15844	0.00450
3733.87267	0.00344
3732.58690	0.00291
3731.30114	0.00258
3730.01537	0.00201
3728.72960	0.00142
3727.44383	0.00101
3726.15806	0.00087
3724.87229	0.00108
3723.58652	0.00148
3722.30075	0.00195
3721.01498	0.00228
3719.72922	0.00249
3718.44345	0.00289
3717.15768	0.00351
3715.87191	0.00421
3714.58614	0.00483
3713.30037	0.00509
3712.01460	0.00498
3710.72883	0.00452
3709.44307	0.00385
3708.15730	0.00350
3706.87153	0.00324
3705.58576	0.00283
3704.29999	0.00253
3703.01422	0.00269
3701.72845	0.00324
3700.44268	0.00375
3699.15691	0.00395
3697.87115	0.00398
3696.58538	0.00398
3695.29961	0.00401
3694.01384	0.00396
3692.72807	0.00418
3691.44230	0.00489
3690.15653	0.00590
3688.87076	0.00669
3687.58500	0.00667
3686.29923	0.00594
3685.01346	0.00533
3683.72769	0.00525
3682.44192	0.00578
3681.15615	0.00685
3679.87038	0.00799
3678.58461	0.00888
3677.29884	0.00976
3676.01308	0.01049
3674.72731	0.01060
3673.44154	0.01016
3672.15577	0.00977
3670.87000	0.00963
3669.58423	0.00933
3668.29846	0.00871
3667.01269	0.00804
3665.72693	0.00765
3664.44116	0.00785
3663.15539	0.00860
3661.86962	0.00940
3660.58385	0.00979
3659.29808	0.00995
3658.01231	0.01048
3656.72654	0.01145
3655.44077	0.01224
3654.15501	0.01242
3652.86924	0.01229
3651.58347	0.01224
3650.29770	0.01236
3649.01193	0.01247
3647.72616	0.01246
3646.44039	0.01237
3645.15462	0.01239
3643.86886	0.01278
3642.58309	0.01354
3641.29732	0.01429
3640.01155	0.01468
3638.72578	0.01468
3637.44001	0.01458
3636.15424	0.01458
3634.86847	0.01454
3633.58270	0.01427
3632.29694	0.01396
3631.01117	0.01405
3629.72540	0.01468
3628.43963	0.01521
3627.15386	0.01532
3625.86809	0.01525
3624.58232	0.01543
3623.29655	0.01578
3622.01079	0.01650
3620.72502	0.01767
3619.43925	0.01910
3618.15348	0.02001
3616.86771	0.01997
3615.58194	0.01948
3614.29617	0.01941
3613.01040	0.02011
3611.72463	0.02118
3610.43887	0.02218
3609.15310	0.02279
3607.86733	0.02307
3606.58156	0.02321
3605.29579	0.02341
3604.01002	0.02366
3602.72425	0.02384
3601.43848	0.02407
3600.15272	0.02431
3598.86695	0.02443
3597.58118	0.02427
3596.29541	0.02417
3595.00964	0.02422
3593.72387	0.02439
3592.43810	0.02478
3591.15233	0.02515
3589.86656	0.02547
3588.58080	0.02598
3587.29503	0.02652
3586.00926	0.02702
3584.72349	0.02752
3583.43772	0.02810
3582.15195	0.02878
3580.86618	0.02953
3579.58041	0.03029
3578.29464	0.03105
3577.00888	0.03180
3575.72311	0.03242
3574.43734	0.03268
3573.15157	0.03256
3571.86580	0.03238
3570.58003	0.03263
3569.29426	0.03355
3568.00849	0.03476
3566.72273	0.03567
3565.43696	0.03611
3564.15119	0.03637
3562.86542	0.03678
3561.57965	0.03730
3560.29388	0.03781
3559.00811	0.03829
3557.72234	0.03882
3556.43657	0.03940
3555.15081	0.03992
3553.86504	0.04020
3552.57927	0.04014
3551.29350	0.03988
3550.00773	0.03975
3548.72196	0.03992
3547.43619	0.04014
3546.15042	0.03999
3544.86466	0.03939
3543.57889	0.03875
3542.29312	0.03852
3541.00735	0.03888
3539.72158	0.03968
3538.43581	0.04069
3537.15004	0.04175
3535.86427	0.04279
3534.57850	0.04369
3533.29274	0.04433
3532.00697	0.04464
3530.72120	0.04474
3529.43543	0.04484
3528.14966	0.04504
3526.86389	0.04524
3525.57812	0.04530
3524.29235	0.04533
3523.00659	0.04559
3521.72082	0.04613
3520.43505	0.04674
3519.14928	0.04713
3517.86351	0.04721
3516.57774	0.04720
3515.29197	0.04735
3514.00620	0.04773
3512.72043	0.04819
3511.43467	0.04861
3510.14890	0.04900
3508.86313	0.04943
3507.57736	0.04995
3506.29159	0.05052
3505.00582	0.05104
3503.72005	0.05136
3502.43428	0.05136
3501.14852	0.05122
3499.86275	0.05126
3498.57698	0.05161
3497.29121	0.05214
3496.00544	0.05267
3494.71967	0.05311
3493.43390	0.05330
3492.14813	0.05312
3490.86236	0.05266
3489.57660	0.05236
3488.29083	0.05257
3487.00506	0.05323
3485.71929	0.05397
3484.43352	0.05458
3483.14775	0.05508
3481.86198	0.05552
3480.57621	0.05586
3479.29045	0.05600
3478.00468	0.05601
3476.71891	0.05606
3475.43314	0.05623
3474.14737	0.05649
3472.86160	0.05676
3471.57583	0.05703
3470.29006	0.05734
3469.00429	0.05766
3467.71853	0.05791
3466.43276	0.05796
3465.14699	0.05780
3463.86122	0.05762
3462.57545	0.05766
3461.28968	0.05805
3460.00391	0.05858
3458.71814	0.05901
3457.43238	0.05927
3456.14661	0.05953
3454.86084	0.05987
3453.57507	0.06022
3452.28930	0.06042
3451.00353	0.06046
3449.71776	0.06040
3448.43199	0.06031
3447.14622	0.06014
3445.86046	0.05997
3444.57469	0.06003
3443.28892	0.06056
3442.00315	0.06144
3440.71738	0.06233
3439.43161	0.06284
3438.14584	0.06287
3436.86007	0.06251
3435.57431	0.06203
3434.28854	0.06175
3433.00277	0.06189
3431.71700	0.06244
3430.43123	0.06319
3429.14546	0.06388
3427.85969	0.06440
3426.57392	0.06481
3425.28815	0.06518
3424.00239	0.06548
3422.71662	0.06563
3421.43085	0.06561
3420.14508	0.06558
3418.85931	0.06576
3417.57354	0.06616
3416.28777	0.06649
3415.00200	0.06645
3413.71624	0.06604
3412.43047	0.06559
3411.14470	0.06541
3409.85893	0.06554
3408.57316	0.06583
3407.28739	0.06612
3406.00162	0.06640
3404.71585	0.06672
3403.43008	0.06710
3402.14432	0.06746
3400.85855	0.06765
3399.57278	0.06754
3398.28701	0.06716
3397.00124	0.06667
3395.71547	0.06636
3394.42970	0.06642
3393.14393	0.06684
3391.85817	0.06743
3390.57240	0.06800
3389.28663	0.06853
3388.00086	0.06907
3386.71509	0.06954
3385.42932	0.06979
3384.14355	0.06976
3382.85778	0.06955
3381.57201	0.06933
3380.28625	0.06913
3379.00048	0.06892
3377.71471	0.06871
3376.42894	0.06853
3375.14317	0.06842
3373.85740	0.06850
3372.57163	0.06887
3371.28586	0.06954
3370.00010	0.07036
3368.71433	0.07107
3367.42856	0.07146
3366.14279	0.07142
3364.85702	0.07097
3363.57125	0.07031
3362.28548	0.06972
3360.99971	0.06935
3359.71394	0.06913
3358.42818	0.06898
3357.14241	0.06888
3355.85664	0.06898
3354.57087	0.06944
3353.28510	0.07024
3351.99933	0.07111
3350.71356	0.07169
3349.42779	0.07181
3348.14202	0.07159
3346.85626	0.07126
3345.57049	0.07090
3344.28472	0.07048
3342.99895	0.07011
3341.71318	0.06999
3340.42741	0.07023
3339.14164	0.07070
3337.85587	0.07115
3336.57011	0.07146
3335.28434	0.07164
3333.99857	0.07168
3332.71280	0.07150
3331.42703	0.07106
3330.14126	0.07047
3328.85549	0.06993
3327.56972	0.06960
3326.28395	0.06965
3324.99819	0.07013
3323.71242	0.07090
3322.42665	0.07164
3321.14088	0.07209
3319.85511	0.07225
3318.56934	0.07218
3317.28357	0.07195
3315.99780	0.07163
3314.71204	0.07135
3313.42627	0.07128
3312.14050	0.07142
3310.85473	0.07162
3309.56896	0.07168
3308.28319	0.07155
3306.99742	0.07127
3305.71165	0.07093
3304.42588	0.07063
3303.14012	0.07039
3301.85435	0.07023
3300.56858	0.07015
3299.28281	0.07007
3297.99704	0.06996
3296.71127	0.06982
3295.42550	0.06971
3294.13973	0.06970
3292.85397	0.06981
3291.56820	0.07003
3290.28243	0.07030
3288.99666	0.07043
3287.71089	0.07029
3286.42512	0.06992
3285.13935	0.06962
3283.85358	0.06959
3282.56781	0.06975
3281.28205	0.06981
3279.99628	0.06969
3278.71051	0.06958
3277.42474	0.06963
3276.13897	0.06981
3274.85320	0.06997
3273.56743	0.07005
3272.28166	0.07008
3270.99590	0.07013
3269.71013	0.07013
3268.42436	0.07003
3267.13859	0.06986
3265.85282	0.06973
3264.56705	0.06971
3263.28128	0.06975
3261.99551	0.06974
3260.70974	0.06967
3259.42398	0.06965
3258.13821	0.06985
3256.85244	0.07022
3255.56667	0.07045
3254.28090	0.07026
3252.99513	0.06966
3251.70936	0.06897
3250.42359	0.06847
3249.13783	0.06823
3247.85206	0.06812
3246.56629	0.06799
3245.28052	0.06777
3243.99475	0.06742
3242.70898	0.06706
3241.42321	0.06692
3240.13744	0.06712
3238.85167	0.06752
3237.56591	0.06794
3236.28014	0.06831
3234.99437	0.06871
3233.70860	0.06911
3232.42283	0.06931
3231.13706	0.06917
3229.85129	0.06877
3228.56552	0.06839
3227.27976	0.06817
3225.99399	0.06808
3224.70822	0.06794
3223.42245	0.06766
3222.13668	0.06730
3220.85091	0.06700
3219.56514	0.06683
3218.27937	0.06672
3216.99360	0.06659
3215.70784	0.06646
3214.42207	0.06640
3213.13630	0.06645
3211.85053	0.06660
3210.56476	0.06677
3209.27899	0.06686
3207.99322	0.06676
3206.70745	0.06652
3205.42169	0.06633
3204.13592	0.06638
3202.85015	0.06665
3201.56438	0.06694
3200.27861	0.06705
3198.99284	0.06699
3197.70707	0.06681
3196.42130	0.06657
3195.13553	0.06632
3193.84977	0.06617
3192.56400	0.06623
3191.27823	0.06644
3189.99246	0.06663
3188.70669	0.06669
3187.42092	0.06664
3186.13515	0.06655
3184.84938	0.06637
3183.56362	0.06608
3182.27785	0.06581
3180.99208	0.06575
3179.70631	0.06589
3178.42054	0.06595
3177.13477	0.06576
3175.84900	0.06540
3174.56323	0.06508
3173.27746	0.06488
3171.99170	0.06473
3170.70593	0.06453
3169.42016	0.06434
3168.13439	0.06431
3166.84862	0.06456
3165.56285	0.06499
3164.27708	0.06527
3162.99131	0.06510
3161.70555	0.06454
3160.41978	0.06400
3159.13401	0.06381
3157.84824	0.06397
3156.56247	0.06418
3155.27670	0.06422
3153.99093	0.06408
3152.70516	0.06382
3151.41939	0.06350
3150.13363	0.06317
3148.84786	0.06289
3147.56209	0.06267
3146.27632	0.06246
3144.99055	0.06226
3143.70478	0.06211
3142.41901	0.06204
3141.13324	0.06199
3139.84748	0.06191
3138.56171	0.06178
3137.27594	0.06161
3135.99017	0.06148
3134.70440	0.06148
3133.41863	0.06161
3132.13286	0.06173
3130.84709	0.06169
3129.56132	0.06155
3128.27556	0.06142
3126.98979	0.06135
3125.70402	0.06129
3124.41825	0.06117
3123.13248	0.06106
3121.84671	0.06095
3120.56094	0.06080
3119.27517	0.06060
3117.98940	0.06047
3116.70364	0.06049
3115.41787	0.06061
3114.13210	0.06071
3112.84633	0.06073
3111.56056	0.06073
3110.27479	0.06074
3108.98902	0.06066
3107.70325	0.06040
3106.41749	0.05996
3105.13172	0.05951
3103.84595	0.05922
3102.56018	0.05917
3101.27441	0.05934
3099.98864	0.05969
3098.70287	0.06010
3097.41710	0.06043
3096.13133	0.06054
3094.84557	0.06045
3093.55980	0.06020
3092.27403	0.05979
3090.98826	0.05934
3089.70249	0.05909
3088.41672	0.05922
3087.13095	0.05958
3085.84518	0.05983
3084.55942	0.05986
3083.27365	0.05982
3081.98788	0.05985
3080.70211	0.05981
3079.41634	0.05953
3078.13057	0.05905
3076.84480	0.05860
3075.55903	0.05832
3074.27326	0.05819
3072.98750	0.05816
3071.70173	0.05820
3070.41596	0.05825
3069.13019	0.05823
3067.84442	0.05817
3066.55865	0.05817
3065.27288	0.05822
3063.98711	0.05821
3062.70135	0.05803
3061.41558	0.05774
3060.12981	0.05746
3058.84404	0.05726
3057.55827	0.05713
3056.27250	0.05704
3054.98673	0.05695
3053.70096	0.05687
3052.41519	0.05681
3051.12943	0.05680
3049.84366	0.05684
3048.55789	0.05690
3047.27212	0.05689
3045.98635	0.05673
3044.70058	0.05641
3043.41481	0.05602
3042.12904	0.05568
3040.84328	0.05551
3039.55751	0.05548
3038.27174	0.05547
3036.98597	0.05542
3035.70020	0.05536
3034.41443	0.05537
3033.12866	0.05552
3031.84289	0.05577
3030.55712	0.05604
3029.27136	0.05625
3027.98559	0.05632
3026.69982	0.05621
3025.41405	0.05590
3024.12828	0.05548
3022.84251	0.05508
3021.55674	0.05488
3020.27097	0.05494
3018.98521	0.05510
3017.69944	0.05513
3016.41367	0.05492
3015.12790	0.05456
3013.84213	0.05426
3012.55636	0.05411
3011.27059	0.05412
3009.98482	0.05429
3008.69905	0.05465
3007.41329	0.05517
3006.12752	0.05559
3004.84175	0.05560
3003.55598	0.05504
3002.27021	0.05411
3000.98444	0.05322
2999.69867	0.05271
2998.41290	0.05277
2997.12714	0.05316
2995.84137	0.05361
2994.55560	0.05398
2993.26983	0.05430
2991.98406	0.05462
2990.69829	0.05487
2989.41252	0.05489
2988.12675	0.05465
2986.84098	0.05435
2985.55522	0.05429
2984.26945	0.05456
2982.98368	0.05508
2981.69791	0.05574
2980.41214	0.05648
2979.12637	0.05726
2977.84060	0.05801
2976.55483	0.05864
2975.26907	0.05913
2973.98330	0.05950
2972.69753	0.05986
2971.41176	0.06036
2970.12599	0.06107
2968.84022	0.06192
2967.55445	0.06276
2966.26868	0.06355
2964.98291	0.06436
2963.69715	0.06525
2962.41138	0.06621
2961.12561	0.06723
2959.83984	0.06826
2958.55407	0.06921
2957.26830	0.06989
2955.98253	0.07020
2954.69676	0.07018
2953.41100	0.07003
2952.12523	0.06997
2950.83946	0.07014
2949.55369	0.07054
2948.26792	0.07098
2946.98215	0.07122
2945.69638	0.07111
2944.41061	0.07064
2943.12484	0.06999
2941.83908	0.06945
2940.55331	0.06936
2939.26754	0.06987
2937.98177	0.07079
2936.69600	0.07168
2935.41023	0.07223
2934.12446	0.07247
2932.83869	0.07280
2931.55293	0.07349
2930.26716	0.07445
2928.98139	0.07528
2927.69562	0.07580
2926.40985	0.07616
2925.12408	0.07656
2923.83831	0.07701
2922.55254	0.07732
2921.26677	0.07738
2919.98101	0.07713
2918.69524	0.07649
2917.40947	0.07548
2916.12370	0.07426
2914.83793	0.07302
2913.55216	0.07196
2912.26639	0.07119
2910.98062	0.07076
2909.69486	0.07061
2908.40909	0.07054
2907.12332	0.07034
2905.83755	0.06992
2904.55178	0.06932
2903.26601	0.06862
2901.98024	0.06794
2900.69447	0.06733
2899.40870	0.06677
2898.12294	0.06621
2896.83717	0.06561
2895.55140	0.06496
2894.26563	0.06421
2892.97986	0.06339
2891.69409	0.06263
2890.40832	0.06207
2889.12255	0.06177
2887.83678	0.06168
2886.55102	0.06167
2885.26525	0.06168
2883.97948	0.06165
2882.69371	0.06154
2881.40794	0.06137
2880.12217	0.06122
2878.83640	0.06130
2877.55063	0.06171
2876.26487	0.06230
2874.97910	0.06279
2873.69333	0.06302
2872.40756	0.06306
2871.12179	0.06303
2869.83602	0.06293
2868.55025	0.06274
2867.26448	0.06249
2865.97871	0.06231
2864.69295	0.06230
2863.40718	0.06248
2862.12141	0.06276
2860.83564	0.06305
2859.54987	0.06329
2858.26410	0.06340
2856.97833	0.06332
2855.69256	0.06300
2854.40680	0.06254
2853.12103	0.06212
2851.83526	0.06181
2850.54949	0.06145
2849.26372	0.06088
2847.97795	0.06007
2846.69218	0.05914
2845.40641	0.05822
2844.12064	0.05733
2842.83488	0.05648
2841.54911	0.05573
2840.26334	0.05512
2838.97757	0.05468
2837.69180	0.05432
2836.40603	0.05393
2835.12026	0.05338
2833.83449	0.05264
2832.54873	0.05184
2831.26296	0.05119
2829.97719	0.05082
2828.69142	0.05062
2827.40565	0.05043
2826.11988	0.05015
2824.83411	0.04979
2823.54834	0.04948
2822.26257	0.04929
2820.97681	0.04919
2819.69104	0.04904
2818.40527	0.04874
2817.11950	0.04829
2815.83373	0.04788
2814.54796	0.04770
2813.26219	0.04770
2811.97642	0.04771
2810.69066	0.04758
2809.40489	0.04733
2808.11912	0.04708
2806.83335	0.04691
2805.54758	0.04682
2804.26181	0.04678
2802.97604	0.04675
2801.69027	0.04671
2800.40450	0.04665
2799.11874	0.04657
2797.83297	0.04647
2796.54720	0.04630
2795.26143	0.04604
2793.97566	0.04577
2792.68989	0.04555
2791.40412	0.04541
2790.11835	0.04534
2788.83259	0.04531
2787.54682	0.04528
2786.26105	0.04518
2784.97528	0.04503
2783.68951	0.04493
2782.40374	0.04491
2781.11797	0.04491
2779.83220	0.04485
2778.54643	0.04467
2777.26067	0.04440
2775.97490	0.04412
2774.68913	0.04392
2773.40336	0.04385
2772.11759	0.04385
2770.83182	0.04378
2769.54605	0.04362
2768.26028	0.04349
2766.97452	0.04352
2765.68875	0.04377
2764.40298	0.04411
2763.11721	0.04430
2761.83144	0.04418
2760.54567	0.04382
2759.25990	0.04349
2757.97413	0.04341
2756.68836	0.04352
2755.40260	0.04359
2754.11683	0.04348
2752.83106	0.04322
2751.54529	0.04294
2750.25952	0.04274
2748.97375	0.04268
2747.68798	0.04273
2746.40221	0.04279
2745.11645	0.04279
2743.83068	0.04276
2742.54491	0.04271
2741.25914	0.04259
2739.97337	0.04236
2738.68760	0.04216
2737.40183	0.04214
2736.11606	0.04235
2734.83029	0.04264
2733.54453	0.04285
2732.25876	0.04291
2730.97299	0.04277
2729.68722	0.04247
2728.40145	0.04213
2727.11568	0.04193
2725.82991	0.04190
2724.54414	0.04192
2723.25838	0.04185
2721.97261	0.04169
2720.68684	0.04159
2719.40107	0.04159
2718.11530	0.04165
2716.82953	0.04169
2715.54376	0.04166
2714.25799	0.04159
2712.97222	0.04146
2711.68646	0.04131
2710.40069	0.04116
2709.11492	0.04104
2707.82915	0.04096
2706.54338	0.04096
2705.25761	0.04105
2703.97184	0.04112
2702.68607	0.04106
2701.40031	0.04081
2700.11454	0.04046
2698.82877	0.04013
2697.54300	0.03988
2696.25723	0.03974
2694.97146	0.03977
2693.68569	0.03997
2692.39992	0.04021
2691.11415	0.04037
2689.82839	0.04039
2688.54262	0.04037
2687.25685	0.04036
2685.97108	0.04034
2684.68531	0.04029
2683.39954	0.04017
2682.11377	0.03998
2680.82800	0.03972
2679.54224	0.03948
2678.25647	0.03934
2676.97070	0.03933
2675.68493	0.03936
2674.39916	0.03934
2673.11339	0.03928
2671.82762	0.03927
2670.54185	0.03935
2669.25608	0.03947
2667.97032	0.03953
2666.68455	0.03951
2665.39878	0.03943
2664.11301	0.03934
2662.82724	0.03932
2661.54147	0.03942
2660.25570	0.03961
2658.96993	0.03974
2657.68417	0.03968
2656.39840	0.03946
2655.11263	0.03923
2653.82686	0.03907
2652.54109	0.03897
2651.25532	0.03884
2649.96955	0.03864
2648.68378	0.03842
2647.39801	0.03824
2646.11225	0.03810
2644.82648	0.03793
2643.54071	0.03764
2642.25494	0.03723
2640.96917	0.03684
2639.68340	0.03659
2638.39763	0.03645
2637.11186	0.03629
2635.82609	0.03603
2634.54033	0.03574
2633.25456	0.03552
2631.96879	0.03536
2630.68302	0.03523
2629.39725	0.03510
2628.11148	0.03501
2626.82571	0.03492
2625.53994	0.03474
2624.25418	0.03447
2622.96841	0.03414
2621.68264	0.03386
2620.39687	0.03374
2619.11110	0.03384
2617.82533	0.03405
2616.53956	0.03417
2615.25379	0.03407
2613.96802	0.03383
2612.68226	0.03362
2611.39649	0.03353
2610.11072	0.03351
2608.82495	0.03349
2607.53918	0.03336
2606.25341	0.03306
2604.96764	0.03260
2603.68187	0.03215
2602.39611	0.03182
2601.11034	0.03163
2599.82457	0.03148
2598.53880	0.03134
2597.25303	0.03125
2595.96726	0.03124
2594.68149	0.03127
2593.39572	0.03123
2592.10995	0.03113
2590.82419	0.03103
2589.53842	0.03102
2588.25265	0.03109
2586.96688	0.03119
2585.68111	0.03128
2584.39534	0.03135
2583.10957	0.03140
2581.82380	0.03141
2580.53804	0.03134
2579.25227	0.03108
2577.96650	0.03056
2576.68073	0.02988
2575.39496	0.02934
2574.10919	0.02919
2572.82342	0.02936
2571.53765	0.02952
2570.25188	0.02937
2568.96612	0.02900
2567.68035	0.02879
2566.39458	0.02895
2565.10881	0.02928
2563.82304	0.02945
2562.53727	0.02949
2561.25150	0.02966
2559.96573	0.02996
2558.67997	0.03004
2557.39420	0.02970
2556.10843	0.02920
2554.82266	0.02902
2553.53689	0.02930
2552.25112	0.02975
2550.96535	0.02996
2549.67958	0.02974
2548.39381	0.02929
2547.10805	0.02894
2545.82228	0.02891
2544.53651	0.02909
2543.25074	0.02925
2541.96497	0.02926
2540.67920	0.02911
2539.39343	0.02881
2538.10766	0.02842
2536.82190	0.02806
2535.53613	0.02788
2534.25036	0.02791
2532.96459	0.02809
2531.67882	0.02828
2530.39305	0.02841
2529.10728	0.02851
2527.82151	0.02859
2526.53574	0.02859
2525.24998	0.02848
2523.96421	0.02831
2522.67844	0.02815
2521.39267	0.02801
2520.10690	0.02794
2518.82113	0.02802
2517.53536	0.02827
2516.24959	0.02851
2514.96383	0.02856
2513.67806	0.02836
2512.39229	0.02806
2511.10652	0.02789
2509.82075	0.02795
2508.53498	0.02820
2507.24921	0.02849
2505.96344	0.02873
2504.67767	0.02894
2503.39191	0.02911
2502.10614	0.02909
2500.82037	0.02878
2499.53460	0.02831
2498.24883	0.02794
2496.96306	0.02785
2495.67729	0.02795
2494.39152	0.02809
2493.10576	0.02817
2491.81999	0.02810
2490.53422	0.02784
2489.24845	0.02751
2487.96268	0.02736
2486.67691	0.02756
2485.39114	0.02792
2484.10537	0.02810
2482.81960	0.02788
2481.53384	0.02739
2480.24807	0.02697
2478.96230	0.02684
2477.67653	0.02692
2476.39076	0.02691
2475.10499	0.02665
2473.81922	0.02630
2472.53345	0.02615
2471.24769	0.02636
2469.96192	0.02679
2468.67615	0.02721
2467.39038	0.02750
2466.10461	0.02767
2464.81884	0.02776
2463.53307	0.02773
2462.24730	0.02758
2460.96153	0.02741
2459.67577	0.02736
2458.39000	0.02756
2457.10423	0.02797
2455.81846	0.02841
2454.53269	0.02852
2453.24692	0.02813
2451.96115	0.02746
2450.67538	0.02696
2449.38962	0.02687
2448.10385	0.02699
2446.81808	0.02699
2445.53231	0.02673
2444.24654	0.02637
2442.96077	0.02614
2441.67500	0.02617
2440.38923	0.02631
2439.10346	0.02631
2437.81770	0.02604
2436.53193	0.02557
2435.24616	0.02511
2433.96039	0.02489
2432.67462	0.02508
2431.38885	0.02564
2430.10308	0.02629
2428.81731	0.02670
2427.53155	0.02678
2426.24578	0.02665
2424.96001	0.02647
2423.67424	0.02626
2422.38847	0.02600
2421.10270	0.02575
2419.81693	0.02564
2418.53116	0.02571
2417.24539	0.02583
2415.95963	0.02581
2414.67386	0.02559
2413.38809	0.02534
2412.10232	0.02533
2410.81655	0.02560
2409.53078	0.02598
2408.24501	0.02621
2406.95924	0.02618
2405.67347	0.02596
2404.38771	0.02568
2403.10194	0.02543
2401.81617	0.02528
2400.53040	0.02529
2399.24463	0.02640
2397.95886	0.02725
2396.67309	0.02739
2395.38732	0.02708
2394.10156	0.02653
2392.81579	0.02587
2391.53002	0.02523
2390.24425	0.02469
2388.95848	0.02432
2387.67271	0.02415
2386.38694	0.02411
2385.10117	0.02407
2383.81540	0.02389
2382.52964	0.02355
2381.24387	0.02326
2379.95810	0.02303
2378.67233	0.02293
2377.38656	0.02303
2376.10079	0.02275
2374.81502	0.02198
2373.52925	0.02118
2372.24349	0.02012
2370.95772	0.01917
2369.67195	0.01752
2368.38618	0.01576
2367.10041	0.01532
2365.81464	0.01562
2364.52887	0.01453
2363.24310	0.01271
2361.95733	0.01184
2360.67157	0.01206
2359.38580	0.01190
2358.10003	0.01217
2356.81426	0.01308
2355.52849	0.01365
2354.24272	0.01421
2352.95695	0.01473
2351.67118	0.01621
2350.38542	0.01987
2349.09965	0.02217
2347.81388	0.01936
2346.52811	0.01512
2345.24234	0.01405
2343.95657	0.01581
2342.67080	0.01719
2341.38503	0.01775
2340.09926	0.01828
2338.81350	0.01846
2337.52773	0.01842
2336.24196	0.01733
2334.95619	0.01640
2333.67042	0.01689
2332.38465	0.01728
2331.09888	0.01768
2329.81311	0.01874
2328.52735	0.01927
2327.24158	0.02015
2325.95581	0.02161
2324.67004	0.02253
2323.38427	0.02333
2322.09850	0.02419
2320.81273	0.02394
2319.52696	0.02374
2318.24119	0.02399
2316.95543	0.02396
2315.66966	0.02390
2314.38389	0.02386
2313.09812	0.02385
2311.81235	0.02391
2310.52658	0.02362
2309.24081	0.02349
2307.95504	0.02367
2306.66928	0.02367
2305.38351	0.02386
2304.09774	0.02393
2302.81197	0.02376
2301.52620	0.02358
2300.24043	0.02338
2298.95466	0.02325
2297.66889	0.02300
2296.38312	0.02267
2295.09736	0.02237
2293.81159	0.02218
2292.52582	0.02219
2291.24005	0.02231
2289.95428	0.02248
2288.66851	0.02258
2287.38274	0.02257
2286.09697	0.02252
2284.81121	0.02257
2283.52544	0.02269
2282.23967	0.02273
2280.95390	0.02258
2279.66813	0.02221
2278.38236	0.02176
2277.09659	0.02141
2275.81082	0.02134
2274.52505	0.02151
2273.23929	0.02164
2271.95352	0.02149
2270.66775	0.02109
2269.38198	0.02068
2268.09621	0.02042
2266.81044	0.02031
2265.52467	0.02021
2264.23890	0.02006
2262.95314	0.01986
2261.66737	0.01958
2260.38160	0.01928
2259.09583	0.01910
2257.81006	0.01900
2256.52429	0.01884
2255.23852	0.01845
2253.95275	0.01790
2252.66698	0.01740
2251.38122	0.01724
2250.09545	0.01767
2248.80968	0.01846
2247.52391	0.01841
2246.23814	0.01773
2244.95237	0.01686
2243.66660	0.01644
2242.38083	0.01670
2241.09507	0.01723
2239.80930	0.01741
2238.52353	0.01708
2237.23776	0.01655
2235.95199	0.01604
2234.66622	0.01536
2233.38045	0.01443
2232.09468	0.01370
2230.80891	0.01381
2229.52315	0.01475
2228.23738	0.01577
2226.95161	0.01614
2225.66584	0.01586
2224.38007	0.01538
2223.09430	0.01488
2221.80853	0.01413
2220.52276	0.01310
2219.23700	0.01226
2217.95123	0.01225
2216.66546	0.01321
2215.37969	0.01455
2214.09392	0.01534
2212.80815	0.01502
2211.52238	0.01389
2210.23661	0.01282
2208.95084	0.01230
2207.66508	0.01205
2206.37931	0.01165
2205.09354	0.01112
2203.80777	0.01083
2202.52200	0.01081
2201.23623	0.01081
2199.95046	0.01065
2198.66469	0.01046
2197.37893	0.01048
2196.09316	0.01077
2194.80739	0.01115
2193.52162	0.01133
2192.23585	0.01109
2190.95008	0.01037
2189.66431	0.00922
2188.37854	0.00794
2187.09277	0.00695
2185.80701	0.00653
2184.52124	0.00657
2183.23547	0.00686
2181.94970	0.00732
2180.66393	0.00792
2179.37816	0.00841
2178.09239	0.00838
2176.80662	0.00769
2175.52085	0.00664
2174.23509	0.00571
2172.94932	0.00522
2171.66355	0.00514
2170.37778	0.00518
2169.09201	0.00507
2167.80624	0.00469
2166.52047	0.00417
2165.23470	0.00381
2163.94894	0.00359
2162.66317	0.00309
2161.37740	0.00201
2160.09163	0.00078
2158.80586	0.00020
2157.52009	0.00048
2156.23432	0.00109
2154.94855	0.00159
2153.66278	0.00202
2152.37702	0.00262
2151.09125	0.00361
2149.80548	0.00504
2148.51971	0.00673
2147.23394	0.00812
2145.94817	0.00867
2144.66240	0.00838
2143.37663	0.00794
2142.09087	0.00811
2140.80510	0.00911
2139.51933	0.01043
2138.23356	0.01125
2136.94779	0.01112
2135.66202	0.01024
2134.37625	0.00929
2133.09048	0.00877
2131.80471	0.00870
2130.51895	0.00891
2129.23318	0.00929
2127.94741	0.00984
2126.66164	0.01050
2125.37587	0.01117
2124.09010	0.01177
2122.80433	0.01226
2121.51856	0.01270
2120.23280	0.01323
2118.94703	0.01379
2117.66126	0.01402
2116.37549	0.01370
2115.08972	0.01313
2113.80395	0.01288
2112.51818	0.01307
2111.23241	0.01331
2109.94664	0.01326
2108.66088	0.01301
2107.37511	0.01282
2106.08934	0.01283
2104.80357	0.01298
2103.51780	0.01319
2102.23203	0.01336
2100.94626	0.01335
2099.66049	0.01322
2098.37473	0.01262
2097.08896	0.01184
2095.80319	0.01137
2094.51742	0.01145
2093.23165	0.01199
2091.94588	0.01265
2090.66011	0.01306
2089.37434	0.01309
2088.08857	0.01291
2086.80281	0.01276
2085.51704	0.01262
2084.23127	0.01225
2082.94550	0.01162
2081.65973	0.01113
2080.37396	0.01116
2079.08819	0.01160
2077.80242	0.01188
2076.51666	0.01154
2075.23089	0.01066
2073.94512	0.00969
2072.65935	0.00900
2071.37358	0.00872
2070.08781	0.00884
2068.80204	0.00933
2067.51627	0.01009
2066.23050	0.01083
2064.94474	0.01114
2063.65897	0.01085
2062.37320	0.01015
2061.08743	0.00948
2059.80166	0.00908
2058.51589	0.00888
2057.23012	0.00862
2055.94435	0.00818
2054.65859	0.00780
2053.37282	0.00780
2052.08705	0.00820
2050.80128	0.00860
2049.51551	0.00848
2048.22974	0.00768
2046.94397	0.00645
2045.65820	0.00529
2044.37243	0.00461
2043.08667	0.00465
2041.80090	0.00532
2040.51513	0.00619
2039.22936	0.00679
2037.94359	0.00686
2036.65782	0.00654
2035.37205	0.00611
2034.08628	0.00566
2032.80052	0.00497
2031.51475	0.00385
2030.22898	0.00251
2028.94321	0.00149
2027.65744	0.00125
2026.37167	0.00174
2025.08590	0.00250
2023.80013	0.00301
2022.51436	0.00310
2021.22860	0.00292
2019.94283	0.00269
2018.65706	0.00256
2017.37129	0.00257
2016.08552	0.00284
2014.79975	0.00341
2013.51398	0.00425
2012.22821	0.00524
2010.94245	0.00622
2009.65668	0.00691
2008.37091	0.00702
2007.08514	0.00660
2005.79937	0.00608
2004.51360	0.00590
2003.22783	0.00614
2001.94206	0.00657
2000.65629	0.00693
1999.37053	0.00715
1998.08476	0.00737
1996.79899	0.00769
1995.51322	0.00799
1994.22745	0.00813
1992.94168	0.00808
1991.65591	0.00794
1990.37014	0.00790
1989.08438	0.00818
1987.79861	0.00887
1986.51284	0.00975
1985.22707	0.01046
1983.94130	0.01078
1982.65553	0.01077
1981.36976	0.01057
1980.08399	0.01014
1978.79822	0.00936
1977.51246	0.00831
1976.22669	0.00735
1974.94092	0.00688
1973.65515	0.00710
1972.36938	0.00788
1971.08361	0.00881
1969.79784	0.00947
1968.51207	0.00965
1967.22631	0.00951
1965.94054	0.00939
1964.65477	0.00945
1963.36900	0.00955
1962.08323	0.00956
1960.79746	0.00966
1959.51169	0.01001
1958.22592	0.01041
1956.94015	0.01045
1955.65439	0.01013
1954.36862	0.00988
1953.08285	0.01013
1951.79708	0.01083
1950.51131	0.01156
1949.22554	0.01196
1947.93977	0.01193
1946.65400	0.01161
1945.36823	0.01125
1944.08247	0.01112
1942.79670	0.01136
1941.51093	0.01187
1940.22516	0.01238
1938.93939	0.01271
1937.65362	0.01285
1936.36785	0.01291
1935.08208	0.01302
1933.79632	0.01318
1932.51055	0.01334
1931.22478	0.01340
1929.93901	0.01325
1928.65324	0.01288
1927.36747	0.01244
1926.08170	0.01206
1924.79593	0.01182
1923.51016	0.01168
1922.22440	0.01167
1920.93863	0.01188
1919.65286	0.01236
1918.36709	0.01286
1917.08132	0.01312
1915.79555	0.01314
1914.50978	0.01322
1913.22401	0.01355
1911.93825	0.01401
1910.65248	0.01425
1909.36671	0.01403
1908.08094	0.01350
1906.79517	0.01305
1905.50940	0.01297
1904.22363	0.01323
1902.93786	0.01366
1901.65209	0.01405
1900.36633	0.01431
1899.08056	0.01444
1897.79479	0.01450
1896.50902	0.01459
1895.22325	0.01471
1893.93748	0.01481
1892.65171	0.01487
1891.36594	0.01494
1890.08018	0.01502
1888.79441	0.01502
1887.50864	0.01494
1886.22287	0.01482
1884.93710	0.01471
1883.65133	0.01459
1882.36556	0.01445
1881.07979	0.01429
1879.79402	0.01415
1878.50826	0.01409
1877.22249	0.01416
1875.93672	0.01438
1874.65095	0.01464
1873.36518	0.01485
1872.07941	0.01507
1870.79364	0.01532
1869.50787	0.01548
1868.22211	0.01539
1866.93634	0.01508
1865.65057	0.01483
1864.36480	0.01486
1863.07903	0.01514
1861.79326	0.01543
1860.50749	0.01552
1859.22172	0.01541
1857.93595	0.01528
1856.65019	0.01527
1855.36442	0.01535
1854.07865	0.01534
1852.79288	0.01516
1851.50711	0.01492
1850.22134	0.01476
1848.93557	0.01481
1847.64980	0.01505
1846.36404	0.01542
1845.07827	0.01577
1843.79250	0.01587
1842.50673	0.01573
1841.22096	0.01558
1839.93519	0.01556
1838.64942	0.01561
1837.36365	0.01557
1836.07788	0.01539
1834.79212	0.01513
1833.50635	0.01492
1832.22058	0.01489
1830.93481	0.01502
1829.64904	0.01514
1828.36327	0.01516
1827.07750	0.01521
1825.79173	0.01535
1824.50597	0.01552
1823.22020	0.01563
1821.93443	0.01569
1820.64866	0.01567
1819.36289	0.01551
1818.07712	0.01527
1816.79135	0.01511
1815.50558	0.01516
1814.21981	0.01541
1812.93405	0.01573
1811.64828	0.01593
1810.36251	0.01594
1809.07674	0.01584
1807.79097	0.01575
1806.50520	0.01570
1805.21943	0.01570
1803.93366	0.01572
1802.64790	0.01577
1801.36213	0.01582
1800.07636	0.01582
1798.79059	0.01578
1797.50482	0.01577
1796.21905	0.01588
1794.93328	0.01618
1793.64751	0.01659
1792.36174	0.01687
1791.07598	0.01685
1789.79021	0.01663
1788.50444	0.01646
1787.21867	0.01647
1785.93290	0.01657
1784.64713	0.01662
1783.36136	0.01664
1782.07559	0.01672
1780.78983	0.01686
1779.50406	0.01697
1778.21829	0.01700
1776.93252	0.01703
1775.64675	0.01719
1774.36098	0.01747
1773.07521	0.01765
1771.78944	0.01755
1770.50367	0.01734
1769.21791	0.01731
1767.93214	0.01744
1766.64637	0.01752
1765.36060	0.01754
1764.07483	0.01764
1762.78906	0.01779
1761.50329	0.01785
1760.21752	0.01780
1758.93176	0.01778
1757.64599	0.01785
1756.36022	0.01787
1755.07445	0.01782
1753.78868	0.01789
1752.50291	0.01812
1751.21714	0.01830
1749.93137	0.01827
1748.64560	0.01810
1747.35984	0.01796
1746.07407	0.01791
1744.78830	0.01794
1743.50253	0.01805
1742.21676	0.01823
1740.93099	0.01840
1739.64522	0.01842
1738.35945	0.01826
1737.07369	0.01829
1735.78792	0.01877
1734.50215	0.01938
1733.21638	0.01959
1731.93061	0.01939
1730.64484	0.01918
1729.35907	0.01913
1728.07330	0.01916
1726.78753	0.01926
1725.50177	0.01947
1724.21600	0.01971
1722.93023	0.01988
1721.64446	0.02006
1720.35869	0.02049
1719.07292	0.02121
1717.78715	0.02183
1716.50138	0.02206
1715.21561	0.02204
1713.92985	0.02206
1712.64408	0.02226
1711.35831	0.02261
1710.07254	0.02302
1708.78677	0.02348
1707.50100	0.02398
1706.21523	0.02444
1704.92946	0.02478
1703.64370	0.02522
1702.35793	0.02601
1701.07216	0.02693
1699.78639	0.02749
1698.50062	0.02776
1697.21485	0.02816
1695.92908	0.02863
1694.64331	0.02879
1693.35754	0.02880
1692.07178	0.02907
1690.78601	0.02962
1689.50024	0.03014
1688.21447	0.03062
1686.92870	0.03135
1685.64293	0.03231
1684.35716	0.03298
1683.07139	0.03304
1681.78563	0.03284
1680.49986	0.03286
1679.21409	0.03322
1677.92832	0.03388
1676.64255	0.03471
1675.35678	0.03546
1674.07101	0.03595
1672.78524	0.03636
1671.49947	0.03694
1670.21371	0.03759
1668.92794	0.03806
1667.64217	0.03829
1666.35640	0.03851
1665.07063	0.03892
1663.78486	0.03945
1662.49909	0.03987
1661.21332	0.04009
1659.92756	0.04020
1658.64179	0.04032
1657.35602	0.04059
1656.07025	0.04127
1654.78448	0.04240
1653.49871	0.04335
1652.21294	0.04342
1650.92717	0.04284
1649.64140	0.04248
1648.35564	0.04273
1647.06987	0.04312
1645.78410	0.04315
1644.49833	0.04281
1643.21256	0.04245
1641.92679	0.04226
1640.64102	0.04218
1639.35525	0.04217
1638.06949	0.04233
1636.78372	0.04257
1635.49795	0.04254
1634.21218	0.04208
1632.92641	0.04147
1631.64064	0.04111
1630.35487	0.04106
1629.06910	0.04113
1627.78333	0.04112
1626.49757	0.04103
1625.21180	0.04095
1623.92603	0.04086
1622.64026	0.04064
1621.35449	0.04030
1620.06872	0.04012
1618.78295	0.04023
1617.49718	0.04043
1616.21142	0.04030
1614.92565	0.03982
1613.63988	0.03936
1612.35411	0.03920
1611.06834	0.03928
1609.78257	0.03947
1608.49680	0.03968
1607.21103	0.03985
1605.92526	0.03995
1604.63950	0.04000
1603.35373	0.04001
1602.06796	0.04000
1600.78219	0.04003
1599.49642	0.04012
1598.21065	0.04029
1596.92488	0.04049
1595.63911	0.04069
1594.35335	0.04086
1593.06758	0.04101
1591.78181	0.04117
1590.49604	0.04134
1589.21027	0.04155
1587.92450	0.04181
1586.63873	0.04211
1585.35296	0.04245
1584.06719	0.04281
1582.78143	0.04317
1581.49566	0.04352
1580.20989	0.04391
1578.92412	0.04450
1577.63835	0.04532
1576.35258	0.04602
1575.06681	0.04629
1573.78104	0.04635
1572.49528	0.04666
1571.20951	0.04731
1569.92374	0.04801
1568.63797	0.04845
1567.35220	0.04867
1566.06643	0.04884
1564.78066	0.04905
1563.49489	0.04937
1562.20912	0.05008
1560.92336	0.05123
1559.63759	0.05233
1558.35182	0.05276
1557.06605	0.05262
1555.78028	0.05249
1554.49451	0.05261
1553.20874	0.05282
1551.92297	0.05300
1550.63721	0.05317
1549.35144	0.05332
1548.06567	0.05345
1546.77990	0.05366
1545.49413	0.05392
1544.20836	0.05418
1542.92259	0.05444
1541.63682	0.05475
1540.35105	0.05493
1539.06529	0.05466
1537.77952	0.05404
1536.49375	0.05358
1535.20798	0.05363
1533.92221	0.05399
1532.63644	0.05428
1531.35067	0.05447
1530.06490	0.05476
1528.77914	0.05527
1527.49337	0.05594
1526.20760	0.05663
1524.92183	0.05738
1523.63606	0.05834
1522.35029	0.05950
1521.06452	0.06060
1519.77875	0.06151
1518.49298	0.06247
1517.20722	0.06366
1515.92145	0.06499
1514.63568	0.06636
1513.34991	0.06776
1512.06414	0.06919
1510.77837	0.07071
1509.49260	0.07251
1508.20683	0.07461
1506.92107	0.07665
1505.63530	0.07812
1504.34953	0.07905
1503.06376	0.07995
1501.77799	0.08112
1500.49222	0.08249
1499.20645	0.08391
1497.92068	0.08528
1496.63491	0.08647
1495.34915	0.08741
1494.06338	0.08823
1492.77761	0.08922
1491.49184	0.09048
1490.20607	0.09182
1488.92030	0.09310
1487.63453	0.09431
1486.34876	0.09557
1485.06299	0.09698
1483.77723	0.09858
1482.49146	0.10032
1481.20569	0.10210
1479.91992	0.10384
1478.63415	0.10553
1477.34838	0.10720
1476.06261	0.10885
1474.77684	0.11046
1473.49108	0.11195
1472.20531	0.11310
1470.91954	0.11383
1469.63377	0.11432
1468.34800	0.11479
1467.06223	0.11530
1465.77646	0.11575
1464.49069	0.11605
1463.20492	0.11625
1461.91916	0.11656
1460.63339	0.11722
1459.34762	0.11832
1458.06185	0.11961
1456.77608	0.12061
1455.49031	0.12109
1454.20454	0.12133
1452.91877	0.12169
1451.63301	0.12222
1450.34724	0.12278
1449.06147	0.12323
1447.77570	0.12342
1446.48993	0.12328
1445.20416	0.12289
1443.91839	0.12239
1442.63262	0.12186
1441.34685	0.12131
1440.06109	0.12082
1438.77532	0.12050
1437.48955	0.12027
1436.20378	0.11997
1434.91801	0.11967
1433.63224	0.11968
1432.34647	0.12020
1431.06070	0.12117
1429.77494	0.12243
1428.48917	0.12388
1427.20340	0.12551
1425.91763	0.12732
1424.63186	0.12921
1423.34609	0.13111
1422.06032	0.13310
1420.77455	0.13520
1419.48878	0.13719
1418.20302	0.13874
1416.91725	0.13983
1415.63148	0.14062
1414.34571	0.14122
1413.05994	0.14162
1411.77417	0.14178
1410.48840	0.14164
1409.20263	0.14117
1407.91687	0.14040
1406.63110	0.13933
1405.34533	0.13795
1404.05956	0.13623
1402.77379	0.13419
1401.48802	0.13192
1400.20225	0.12949
1398.91648	0.12690
1397.63071	0.12421
1396.34495	0.12150
1395.05918	0.11874
1393.77341	0.11583
1392.48764	0.11279
1391.20187	0.10979
1389.91610	0.10695
1388.63033	0.10426
1387.34456	0.10155
1386.05880	0.09877
1384.77303	0.09599
1383.48726	0.09332
1382.20149	0.09077
1380.91572	0.08828
1379.62995	0.08576
1378.34418	0.08321
1377.05841	0.08061
1375.77264	0.07796
1374.48688	0.07524
1373.20111	0.07241
1371.91534	0.06957
1370.62957	0.06686
1369.34380	0.06436
1368.05803	0.06208
1366.77226	0.05998
1365.48649	0.05803
1364.20073	0.05619
1362.91496	0.05438
1361.62919	0.05261
1360.34342	0.05093
1359.05765	0.04942
1357.77188	0.04809
1356.48611	0.04690
1355.20034	0.04579
1353.91457	0.04471
1352.62881	0.04370
1351.34304	0.04278
1350.05727	0.04196
1348.77150	0.04119
1347.48573	0.04045
1346.19996	0.03972
1344.91419	0.03903
1343.62842	0.03841
1342.34266	0.03786
1341.05689	0.03740
1339.77112	0.03695
1338.48535	0.03647
1337.19958	0.03596
1335.91381	0.03547
1334.62804	0.03502
1333.34227	0.03459
1332.05650	0.03417
1330.77074	0.03376
1329.48497	0.03338
1328.19920	0.03303
1326.91343	0.03270
1325.62766	0.03238
1324.34189	0.03207
1323.05612	0.03176
1321.77035	0.03148
1320.48459	0.03120
1319.19882	0.03091
1317.91305	0.03061
1316.62728	0.03032
1315.34151	0.03005
1314.05574	0.02981
1312.76997	0.02960
1311.48420	0.02939
1310.19843	0.02918
1308.91267	0.02895
1307.62690	0.02871
1306.34113	0.02847
1305.05536	0.02825
1303.76959	0.02806
1302.48382	0.02788
1301.19805	0.02768
1299.91228	0.02745
1298.62652	0.02720
1297.34075	0.02697
1296.05498	0.02676
1294.76921	0.02660
1293.48344	0.02648
1292.19767	0.02637
1290.91190	0.02624
1289.62613	0.02608
1288.34036	0.02592
1287.05460	0.02580
1285.76883	0.02573
1284.48306	0.02567
1283.19729	0.02558
1281.91152	0.02545
1280.62575	0.02528
1279.33998	0.02510
1278.05421	0.02492
1276.76845	0.02476
1275.48268	0.02460
1274.19691	0.02443
1272.91114	0.02427
1271.62537	0.02414
1270.33960	0.02404
1269.05383	0.02395
1267.76806	0.02385
1266.48229	0.02373
1265.19653	0.02358
1263.91076	0.02342
1262.62499	0.02329
1261.33922	0.02319
1260.05345	0.02311
1258.76768	0.02300
1257.48191	0.02289
1256.19614	0.02280
1254.91037	0.02276
1253.62461	0.02276
1252.33884	0.02275
1251.05307	0.02270
1249.76730	0.02261
1248.48153	0.02251
1247.19576	0.02242
1245.90999	0.02232
1244.62422	0.02221
1243.33846	0.02209
1242.05269	0.02200
1240.76692	0.02191
1239.48115	0.02182
1238.19538	0.02171
1236.90961	0.02160
1235.62384	0.02150
1234.33807	0.02143
1233.05230	0.02137
1231.76654	0.02132
1230.48077	0.02126
1229.19500	0.02119
1227.90923	0.02110
1226.62346	0.02102
1225.33769	0.02094
1224.05192	0.02088
1222.76615	0.02083
1221.48039	0.02076
1220.19462	0.02065
1218.90885	0.02050
1217.62308	0.02035
1216.33731	0.02024
1215.05154	0.02020
1213.76577	0.02024
1212.48000	0.02033
1211.19423	0.02045
1209.90847	0.02057
1208.62270	0.02066
1207.33693	0.02069
1206.05116	0.02066
1204.76539	0.02059
1203.47962	0.02051
1202.19385	0.02048
1200.90808	0.02048
1199.62232	0.02049
1198.33655	0.02055
1197.05078	0.02061
1195.76501	0.02067
1194.47924	0.02071
1193.19347	0.02073
1191.90770	0.02075
1190.62193	0.02075
1189.33616	0.02075
1188.05040	0.02074
1186.76463	0.02073
1185.47886	0.02074
1184.19309	0.02076
1182.90732	0.02077
1181.62155	0.02076
1180.33578	0.02075
1179.05001	0.02076
1177.76425	0.02082
1176.47848	0.02093
1175.19271	0.02108
1173.90694	0.02126
1172.62117	0.02145
1171.33540	0.02159
1170.04963	0.02168
1168.76386	0.02173
1167.47809	0.02183
1166.19233	0.02201
1164.90656	0.02226
1163.62079	0.02250
1162.33502	0.02270
1161.04925	0.02286
1159.76348	0.02301
1158.47771	0.02324
1157.19194	0.02355
1155.90618	0.02386
1154.62041	0.02411
1153.33464	0.02433
1152.04887	0.02459
1150.76310	0.02495
1149.47733	0.02543
1148.19156	0.02601
1146.90579	0.02662
1145.62002	0.02722
1144.33426	0.02782
1143.04849	0.02848
1141.76272	0.02928
1140.47695	0.03027
1139.19118	0.03143
1137.90541	0.03274
1136.61964	0.03420
1135.33387	0.03580
1134.04811	0.03751
1132.76234	0.03934
1131.47657	0.04132
1130.19080	0.04352
1128.90503	0.04599
1127.61926	0.04877
1126.33349	0.05186
1125.04772	0.05522
1123.76195	0.05878
1122.47619	0.06248
1121.19042	0.06628
1119.90465	0.07016
1118.61888	0.07413
1117.33311	0.07820
1116.04734	0.08237
1114.76157	0.08663
1113.47580	0.09086
1112.19004	0.09497
1110.90427	0.09894
1109.61850	0.10284
1108.33273	0.10673
1107.04696	0.11060
1105.76119	0.11436
1104.47542	0.11797
1103.18965	0.12143
1101.90388	0.12483
1100.61812	0.12826
1099.33235	0.13172
1098.04658	0.13513
1096.76081	0.13842
1095.47504	0.14157
1094.18927	0.14454
1092.90350	0.14734
1091.61773	0.15000
1090.33197	0.15256
1089.04620	0.15501
1087.76043	0.15734
1086.47466	0.15959
1085.18889	0.16185
1083.90312	0.16413
1082.61735	0.16643
1081.33158	0.16878
1080.04581	0.17133
1078.76005	0.17419
1077.47428	0.17738
1076.18851	0.18079
1074.90274	0.18436
1073.61697	0.18809
1072.33120	0.19202
1071.04543	0.19612
1069.75966	0.20033
1068.47390	0.20456
1067.18813	0.20879
1065.90236	0.21310
1064.61659	0.21755
1063.33082	0.22216
1062.04505	0.22685
1060.75928	0.23150
1059.47351	0.23608
1058.18774	0.24058
1056.90198	0.24505
1055.61621	0.24948
1054.33044	0.25386
1053.04467	0.25818
1051.75890	0.26245
1050.47313	0.26672
1049.18736	0.27109
1047.90159	0.27563
1046.61583	0.28038
1045.33006	0.28529
1044.04429	0.29024
1042.75852	0.29517
1041.47275	0.30010
1040.18698	0.30509
1038.90121	0.31020
1037.61544	0.31544
1036.32967	0.32073
1035.04391	0.32595
1033.75814	0.33098
1032.47237	0.33577
1031.18660	0.34029
1029.90083	0.34450
1028.61506	0.34831
1027.32929	0.35171
1026.04352	0.35472
1024.75775	0.35737
1023.47199	0.35962
1022.18622	0.36131
1020.90045	0.36232
1019.61468	0.36264
1018.32891	0.36235
1017.04314	0.36148
1015.75737	0.35999
1014.47160	0.35772
1013.18584	0.35456
1011.90007	0.35050
1010.61430	0.34562
1009.32853	0.34002
1008.04276	0.33372
1006.75699	0.32667
1005.47122	0.31880
1004.18545	0.31015
1002.89968	0.30087
1001.61392	0.29116
1000.32815	0.28121
999.04238	0.27112
997.75661	0.26094
996.47084	0.25064
995.18507	0.24023
993.89930	0.22984
992.61353	0.21971
991.32777	0.21004
990.04200	0.20085
988.75623	0.19206
987.47046	0.18362
986.18469	0.17554
984.89892	0.16782
983.61315	0.16050
982.32738	0.15359
981.04161	0.14717
979.75585	0.14130
978.47008	0.13596
977.18431	0.13112
975.89854	0.12675
974.61277	0.12289
973.32700	0.11965
972.04123	0.11714
970.75546	0.11544
969.46970	0.11461
968.18393	0.11471
966.89816	0.11567
965.61239	0.11728
964.32662	0.11919
963.04085	0.12103
961.75508	0.12241
960.46931	0.12298
959.18354	0.12254
957.89778	0.12102
956.61201	0.11854
955.32624	0.11533
954.04047	0.11168
952.75470	0.10789
951.46893	0.10416
950.18316	0.10063
948.89739	0.09730
947.61163	0.09414
946.32586	0.09103
945.04009	0.08794
943.75432	0.08485
942.46855	0.08186
941.18278	0.07909
939.89701	0.07660
938.61124	0.07435
937.32547	0.07228
936.03971	0.07035
934.75394	0.06859
933.46817	0.06700
932.18240	0.06551
930.89663	0.06409
929.61086	0.06271
928.32509	0.06141
927.03932	0.06021
925.75356	0.05912
924.46779	0.05809
923.18202	0.05710
921.89625	0.05616
920.61048	0.05528
919.32471	0.05447
918.03894	0.05375
916.75317	0.05310
915.46740	0.05249
914.18164	0.05186
912.89587	0.05119
911.61010	0.05051
910.32433	0.04986
909.03856	0.04928
907.75279	0.04875
906.46702	0.04827
905.18125	0.04782
903.89549	0.04739
902.60972	0.04699
901.32395	0.04659
900.03818	0.04616
898.75241	0.04571
897.46664	0.04531
896.18087	0.04500
894.89510	0.04479
893.60933	0.04469
892.32357	0.04474
891.03780	0.04500
889.75203	0.04553
888.46626	0.04636
887.18049	0.04758
885.89472	0.04935
884.60895	0.05195
883.32318	0.05558
882.03742	0.06004
880.75165	0.06467
879.46588	0.06868
878.18011	0.07167
876.89434	0.07395
875.60857	0.07610
874.32280	0.07836
873.03703	0.08038
871.75126	0.08147
870.46550	0.08116
869.17973	0.07937
867.89396	0.07638
866.60819	0.07259
865.32242	0.06840
864.03665	0.06423
862.75088	0.06043
861.46511	0.05716
860.17935	0.05445
858.89358	0.05221
857.60781	0.05038
856.32204	0.04890
855.03627	0.04769
853.75050	0.04667
852.46473	0.04579
851.17896	0.04500
849.89319	0.04431
848.60743	0.04370
847.32166	0.04315
846.03589	0.04267
844.75012	0.04226
843.46435	0.04190
842.17858	0.04153
840.89281	0.04113
839.60704	0.04074
838.32128	0.04041
837.03551	0.04015
835.74974	0.03987
834.46397	0.03954
833.17820	0.03920
831.89243	0.03892
830.60666	0.03874
829.32089	0.03858
828.03512	0.03839
826.74936	0.03814
825.46359	0.03787
824.17782	0.03767
822.89205	0.03757
821.60628	0.03758
820.32051	0.03764
819.03474	0.03767
817.74897	0.03762
816.46321	0.03747
815.17744	0.03726
813.89167	0.03705
812.60590	0.03688
811.32013	0.03675
810.03436	0.03663
808.74859	0.03653
807.46282	0.03647
806.17705	0.03647
804.89129	0.03650
803.60552	0.03652
802.31975	0.03651
801.03398	0.03648
799.74821	0.03644
798.46244	0.03636
797.17667	0.03623
795.89090	0.03606
794.60513	0.03592
793.31937	0.03585
792.03360	0.03582
790.74783	0.03574
789.46206	0.03559
788.17629	0.03544
786.89052	0.03540
785.60475	0.03548
784.31898	0.03552
783.03322	0.03545
781.74745	0.03528
780.46168	0.03512
779.17591	0.03500
777.89014	0.03490
776.60437	0.03485
775.31860	0.03486
774.03283	0.03490
772.74706	0.03492
771.46130	0.03487
770.17553	0.03479
768.88976	0.03473
767.60399	0.03472
766.31822	0.03477
765.03245	0.03480
763.74668	0.03482
762.46091	0.03485
761.17515	0.03494
759.88938	0.03510
758.60361	0.03528
757.31784	0.03543
756.03207	0.03549
754.74630	0.03546
753.46053	0.03540
752.17476	0.03536
750.88899	0.03535
749.60323	0.03532
748.31746	0.03522
747.03169	0.03508
745.74592	0.03495
744.46015	0.03484
743.17438	0.03472
741.88861	0.03460
740.60284	0.03452
739.31708	0.03452
738.03131	0.03458
736.74554	0.03461
735.45977	0.03458
734.17400	0.03444
732.88823	0.03426
731.60246	0.03414
730.31669	0.03419
729.03092	0.03438
727.74516	0.03459
726.45939	0.03473
725.17362	0.03476
723.88785	0.03466
722.60208	0.03482
721.31631	0.03505
720.03054	0.03533
718.74477	0.03571
717.45901	0.03589
716.17324	0.03592
714.88747	0.03588
713.60170	0.03576
712.31593	0.03554
711.03016	0.03526
709.74439	0.03500
708.45862	0.03479
707.17285	0.03466
705.88709	0.03458
704.60132	0.03454
703.31555	0.03453
702.02978	0.03453
700.74401	0.03455
699.45824	0.03461
698.17247	0.03473
696.88670	0.03490
695.60094	0.03509
694.31517	0.03530
693.02940	0.03548
691.74363	0.03561
690.45786	0.03565
689.17209	0.03561
687.88632	0.03552
686.60055	0.03541
685.31478	0.03531
684.02902	0.03522
682.74325	0.03513
681.45748	0.03504
680.17171	0.03495
678.88594	0.03485
677.60017	0.03472
676.31440	0.03457
675.02863	0.03452
673.74287	0.03498
672.45710	0.03648
671.17133	0.03849
669.88556	0.03837
668.59979	0.03519
667.31402	0.03528
666.02825	0.03793
664.74248	0.03751
663.45671	0.03563
662.17095	0.03446
660.88518	0.03414
659.59941	0.03424
658.31364	0.03444
657.02787	0.03457
655.74210	0.03459
654.45633	0.03460
653.17056	0.03462
651.88480	0.03471
650.59903	0.03484
649.31326	0.03495
648.02749	0.03510
646.74172	0.03521
645.45595	0.03529
644.17018	0.03541
642.88441	0.03558
641.59864	0.03582
640.31288	0.03609
639.02711	0.03635
637.74134	0.03662
636.45557	0.03689
635.16980	0.03717
633.88403	0.03747
632.59826	0.03782
631.31249	0.03830
630.02673	0.03902
628.74096	0.03982
627.45519	0.04043
626.16942	0.04182
624.88365	0.04379
623.59788	0.04611
622.31211	0.04896
621.02634	0.05232
619.74057	0.05594
618.45481	0.05976
617.16904	0.06375
615.88327	0.06763
614.59750	0.07122
613.31173	0.07497
612.02596	0.07955
610.74019	0.08522
609.45442	0.09174
608.16866	0.09879
606.88289	0.10609
605.59712	0.11323
604.31135	0.11964
603.02558	0.12475
601.73981	0.12794
600.45404	0.12860
599.16827	0.12662
597.88250	0.12266
596.59674	0.11779
595.31097	0.11290
594.02520	0.10850
592.73943	0.10480
591.45366	0.10194
590.16789	0.10004
588.88212	0.09915
587.59635	0.09918
586.31059	0.09999
585.02482	0.10154
583.73905	0.10386
582.45328	0.10686
581.16751	0.11032
579.88174	0.11395
578.59597	0.11759
577.31020	0.12118
576.02443	0.12466
574.73867	0.12795
573.45290	0.13111
572.16713	0.13435
570.88136	0.13800
569.59559	0.14236
568.30982	0.14747
567.02405	0.15304
565.73828	0.15858
564.45251	0.16345
563.16675	0.16704
561.88098	0.16876
560.59521	0.16821
559.30944	0.16527
558.02367	0.16012
556.73790	0.15321
555.45213	0.14509
554.16636	0.13633
552.88060	0.12745
551.59483	0.11889
550.30906	0.11095
549.02329	0.10381
547.73752	0.09754
546.45175	0.09202
545.16598	0.08703
543.88021	0.08244
542.59444	0.07825
541.30868	0.07456
540.02291	0.07138
538.73714	0.06860
537.45137	0.06605
536.16560	0.06368
534.87983	0.06150
533.59406	0.05951
532.30829	0.05767
531.02253	0.05596
529.73676	0.05439
528.45099	0.05299
527.16522	0.05173
525.87945	0.05053
524.59368	0.04932
523.30791	0.04807
522.02214	0.04679
520.73637	0.04557
519.45061	0.04452
518.16484	0.04373
516.87907	0.04309
515.59330	0.04245
514.30753	0.04169
513.02176	0.04088
511.73599	0.04009
510.45022	0.03936
509.16446	0.03869
507.87869	0.03809
506.59292	0.03752
505.30715	0.03695
504.02138	0.03636
502.73561	0.03577
501.44984	0.03518
500.16407	0.03466
498.87830	0.03424
497.59254	0.03389
496.30677	0.03353
495.02100	0.03315
493.73523	0.03279
492.44946	0.03255
491.16369	0.03239
489.87792	0.03221
488.59215	0.03194
487.30639	0.03162
486.02062	0.03137
484.73485	0.03125
483.44908	0.03122
482.16331	0.03128
480.87754	0.03143
479.59177	0.03168
478.30600	0.03197
477.02023	0.03220
475.73447	0.03240
474.44870	0.03266
473.16293	0.03299
471.87716	0.03330
470.59139	0.03349
469.30562	0.03349
468.01985	0.03334
466.73408	0.03305
465.44832	0.03264
464.16255	0.03216
462.87678	0.03166
461.59101	0.03122
460.30524	0.03089
459.01947	0.03067
457.73370	0.03046
456.44793	0.03015
455.16216	0.02973
453.87640	0.02925
452.59063	0.02880
451.30486	0.02843
450.01909	0.02813
448.73332	0.02787
447.44755	0.02759
446.16178	0.02726
444.87601	0.02691
443.59025	0.02659
442.30448	0.02634
441.01871	0.02614
439.73294	0.02598
438.44717	0.02586
437.16140	0.02577
435.87563	0.02567
434.58986	0.02554
433.30409	0.02538
432.01833	0.02522
430.73256	0.02505
429.44679	0.02489
428.16102	0.02476
426.87525	0.02466
425.58948	0.02456
424.30371	0.02445
423.01794	0.02432
421.73218	0.02420
420.44641	0.02410
419.16064	0.02397
417.87487	0.02379
416.58910	0.02359
415.30333	0.02343
414.01756	0.02331
412.73179	0.02319
411.44602	0.02308
410.16026	0.02302
408.87449	0.02302
407.58872	0.02306
406.30295	0.02313
405.01718	0.02317
403.73141	0.02318
402.44564	0.02321
401.15987	0.02334
399.87411	0.02358
