3997.45528	0.02773
3996.16951	0.02803
3994.88374	0.02853
3993.59798	0.02916
3992.31221	0.02960
3991.02644	0.02959
3989.74067	0.02916
3988.45490	0.02861
3987.16913	0.02823
3985.88336	0.02807
3984.59759	0.02794
3983.31183	0.02768
3982.02606	0.02728
3980.74029	0.02692
3979.45452	0.02675
3978.16875	0.02672
3976.88298	0.02665
3975.59721	0.02646
3974.31144	0.02627
3973.02567	0.02635
3971.73991	0.02682
3970.45414	0.02754
3969.16837	0.02818
3967.88260	0.02840
3966.59683	0.02817
3965.31106	0.02782
3964.02529	0.02786
3962.73952	0.02848
3961.45376	0.02925
3960.16799	0.02950
3958.88222	0.02892
3957.59645	0.02779
3956.31068	0.02666
3955.02491	0.02589
3953.73914	0.02552
3952.45337	0.02549
3951.16760	0.02566
3949.88184	0.02584
3948.59607	0.02591
3947.31030	0.02597
3946.02453	0.02608
3944.73876	0.02610
3943.45299	0.02588
3942.16722	0.02551
3940.88145	0.02521
3939.59569	0.02514
3938.30992	0.02535
3937.02415	0.02577
3935.73838	0.02637
3934.45261	0.02703
3933.16684	0.02758
3931.88107	0.02779
3930.59530	0.02754
3929.30953	0.02701
3928.02377	0.02663
3926.73800	0.02678
3925.45223	0.02743
3924.16646	0.02822
3922.88069	0.02877
3921.59492	0.02888
3920.30915	0.02850
3919.02338	0.02762
3917.73762	0.02646
3916.45185	0.02547
3915.16608	0.02501
3913.88031	0.02504
3912.59454	0.02517
3911.30877	0.02511
3910.02300	0.02496
3908.73723	0.02506
3907.45146	0.02556
3906.16570	0.02620
3904.87993	0.02664
3903.59416	0.02681
3902.30839	0.02693
3901.02262	0.02709
3899.73685	0.02709
3898.45108	0.02659
3897.16531	0.02559
3895.87955	0.02445
3894.59378	0.02365
3893.30801	0.02343
3892.02224	0.02375
3890.73647	0.02435
3889.45070	0.02497
3888.16493	0.02550
3886.87916	0.02609
3885.59339	0.02689
3884.30763	0.02775
3883.02186	0.02825
3881.73609	0.02808
3880.45032	0.02730
3879.16455	0.02618
3877.87878	0.02509
3876.59301	0.02439
3875.30724	0.02427
3874.02148	0.02464
3872.73571	0.02511
3871.44994	0.02535
3870.16417	0.02546
3868.87840	0.02571
3867.59263	0.02615
3866.30686	0.02655
3865.02109	0.02670
3863.73532	0.02658
3862.44956	0.02636
3861.16379	0.02634
3859.87802	0.02662
3858.59225	0.02699
3857.30648	0.02716
3856.02071	0.02700
3854.73494	0.02667
3853.44917	0.02642
3852.16341	0.02635
3850.87764	0.02639
3849.59187	0.02652
3848.30610	0.02663
3847.02033	0.02649
3845.73456	0.02598
3844.44879	0.02539
3843.16302	0.02516
3841.87725	0.02536
3840.59149	0.02565
3839.30572	0.02582
3838.01995	0.02603
3836.73418	0.02648
3835.44841	0.02684
3834.16264	0.02660
3832.87687	0.02568
3831.59110	0.02451
3830.30534	0.02366
3829.01957	0.02340
3827.73380	0.02370
3826.44803	0.02441
3825.16226	0.02530
3823.87649	0.02594
3822.59072	0.02597
3821.30495	0.02548
3820.01918	0.02491
3818.73342	0.02452
3817.44765	0.02422
3816.16188	0.02381
3814.87611	0.02327
3813.59034	0.02281
3812.30457	0.02289
3811.01880	0.02370
3809.73303	0.02472
3808.44726	0.02516
3807.16150	0.02481
3805.87573	0.02412
3804.58996	0.02352
3803.30419	0.02309
3802.01842	0.02293
3800.73265	0.02318
3799.44688	0.02374
3798.16111	0.02426
3796.87535	0.02445
3795.58958	0.02429
3794.30381	0.02393
3793.01804	0.02362
3791.73227	0.02352
3790.44650	0.02356
3789.16073	0.02353
3787.87496	0.02328
3786.58919	0.02285
3785.30343	0.02251
3784.01766	0.02249
3782.73189	0.02288
3781.44612	0.02346
3780.16035	0.02389
3778.87458	0.02394
3777.58881	0.02363
3776.30304	0.02324
3775.01728	0.02310
3773.73151	0.02334
3772.44574	0.02378
3771.15997	0.02414
3769.87420	0.02428
3768.58843	0.02419
3767.30266	0.02394
3766.01689	0.02368
3764.73112	0.02362
3763.44536	0.02376
3762.15959	0.02396
3760.87382	0.02410
3759.58805	0.02413
3758.30228	0.02406
3757.01651	0.02396
3755.73074	0.02390
3754.44497	0.02384
3753.15921	0.02378
3751.87344	0.02383
3750.58767	0.02408
3749.30190	0.02458
3748.01613	0.02528
3746.73036	0.02588
3745.44459	0.02606
3744.15882	0.02579
3742.87305	0.02514
3741.58729	0.02435
3740.30152	0.02393
3739.01575	0.02411
3737.72998	0.02453
3736.44421	0.02471
3735.15844	0.02452
3733.87267	0.02420
3732.58690	0.02403
3731.30114	0.02409
3730.01537	0.02414
3728.72960	0.02384
3727.44383	0.02319
3726.15806	0.02248
3724.87229	0.02199
3723.58652	0.02184
3722.30075	0.02203
3721.01498	0.02254
3719.72922	0.02320
3718.44345	0.02370
3717.15768	0.02381
3715.87191	0.02359
3714.58614	0.02329
3713.30037	0.02306
3712.01460	0.02277
3710.72883	0.02229
3709.44307	0.02184
3708.15730	0.02184
3706.87153	0.02244
3705.58576	0.02324
3704.29999	0.02372
3703.01422	0.02375
3701.72845	0.02359
3700.44268	0.02362
3699.15691	0.02394
3697.87115	0.02421
3696.58538	0.02411
3695.29961	0.02371
3694.01384	0.02337
3692.72807	0.02322
3691.44230	0.02313
3690.15653	0.02287
3688.87076	0.02252
3687.58500	0.02242
3686.29923	0.02273
3685.01346	0.02310
3683.72769	0.02310
3682.44192	0.02271
3681.15615	0.02224
3679.87038	0.02220
3678.58461	0.02285
3677.29884	0.02389
3676.01308	0.02494
3674.72731	0.02582
3673.44154	0.02648
3672.15577	0.02677
3670.87000	0.02651
3669.58423	0.02564
3668.29846	0.02418
3667.01269	0.02247
3665.72693	0.02113
3664.44116	0.02073
3663.15539	0.02138
3661.86962	0.02265
3660.58385	0.02378
3659.29808	0.02423
3658.01231	0.02402
3656.72654	0.02361
3655.44077	0.02354
3654.15501	0.02402
3652.86924	0.02497
3651.58347	0.02613
3650.29770	0.02711
3649.01193	0.02755
3647.72616	0.02735
3646.44039	0.02685
3645.15462	0.02651
3643.86886	0.02648
3642.58309	0.02662
3641.29732	0.02675
3640.01155	0.02690
3638.72578	0.02719
3637.44001	0.02750
3636.15424	0.02758
3634.86847	0.02731
3633.58270	0.02694
3632.29694	0.02677
3631.01117	0.02688
3629.72540	0.02723
3628.43963	0.02771
3627.15386	0.02812
3625.86809	0.02817
3624.58232	0.02781
3623.29655	0.02734
3622.01079	0.02720
3620.72502	0.02762
3619.43925	0.02846
3618.15348	0.02934
3616.86771	0.02989
3615.58194	0.03001
3614.29617	0.02974
3613.01040	0.02927
3611.72463	0.02877
3610.43887	0.02844
3609.15310	0.02845
3607.86733	0.02876
3606.58156	0.02901
3605.29579	0.02884
3604.01002	0.02838
3602.72425	0.02827
3601.43848	0.02897
3600.15272	0.03037
3598.86695	0.03183
3597.58118	0.03277
3596.29541	0.03304
3595.00964	0.03289
3593.72387	0.03265
3592.43810	0.03230
3591.15233	0.03176
3589.86656	0.03132
3588.58080	0.03142
3587.29503	0.03207
3586.00926	0.03277
3584.72349	0.03298
3583.43772	0.03254
3582.15195	0.03174
3580.86618	0.03107
3579.58041	0.03084
3578.29464	0.03114
3577.00888	0.03184
3575.72311	0.03270
3574.43734	0.03347
3573.15157	0.03407
3571.86580	0.03454
3570.58003	0.03503
3569.29426	0.03548
3568.00849	0.03558
3566.72273	0.03506
3565.43696	0.03413
3564.15119	0.03346
3562.86542	0.03356
3561.57965	0.03430
3560.29388	0.03500
3559.00811	0.03511
3557.72234	0.03462
3556.43657	0.03394
3555.15081	0.03348
3553.86504	0.03343
3552.57927	0.03379
3551.29350	0.03437
3550.00773	0.03489
3548.72196	0.03517
3547.43619	0.03526
3546.15042	0.03529
3544.86466	0.03530
3543.57889	0.03538
3542.29312	0.03561
3541.00735	0.03601
3539.72158	0.03635
3538.43581	0.03631
3537.15004	0.03587
3535.86427	0.03530
3534.57850	0.03492
3533.29274	0.03482
3532.00697	0.03490
3530.72120	0.03506
3529.43543	0.03523
3528.14966	0.03543
3526.86389	0.03568
3525.57812	0.03596
3524.29235	0.03626
3523.00659	0.03660
3521.72082	0.03698
3520.43505	0.03741
3519.14928	0.03793
3517.86351	0.03868
3516.57774	0.03965
3515.29197	0.04045
3514.00620	0.04061
3512.72043	0.04004
3511.43467	0.03916
3510.14890	0.03847
3508.86313	0.03819
3507.57736	0.03833
3506.29159	0.03885
3505.00582	0.03958
3503.72005	0.04033
3502.43428	0.04097
3501.14852	0.04150
3499.86275	0.04198
3498.57698	0.04230
3497.29121	0.04235
3496.00544	0.04210
3494.71967	0.04172
3493.43390	0.04148
3492.14813	0.04155
3490.86236	0.04188
3489.57660	0.04223
3488.29083	0.04236
3487.00506	0.04215
3485.71929	0.04166
3484.43352	0.04106
3483.14775	0.04048
3481.86198	0.04000
3480.57621	0.03974
3479.29045	0.03987
3478.00468	0.04038
3476.71891	0.04105
3475.43314	0.04158
3474.14737	0.04180
3472.86160	0.04180
3471.57583	0.04179
3470.29006	0.04196
3469.00429	0.04240
3467.71853	0.04304
3466.43276	0.04361
3465.14699	0.04385
3463.86122	0.04371
3462.57545	0.04343
3461.28968	0.04335
3460.00391	0.04358
3458.71814	0.04399
3457.43238	0.04437
3456.14661	0.04467
3454.86084	0.04491
3453.57507	0.04505
3452.28930	0.04498
3451.00353	0.04469
3449.71776	0.04440
3448.43199	0.04434
3447.14622	0.04464
3445.86046	0.04519
3444.57469	0.04580
3443.28892	0.04632
3442.00315	0.04668
3440.71738	0.04682
3439.43161	0.04669
3438.14584	0.04623
3436.86007	0.04553
3435.57431	0.04484
3434.28854	0.04453
3433.00277	0.04479
3431.71700	0.04546
3430.43123	0.04616
3429.14546	0.04654
3427.85969	0.04654
3426.57392	0.04641
3425.28815	0.04646
3424.00239	0.04681
3422.71662	0.04724
3421.43085	0.04741
3420.14508	0.04722
3418.85931	0.04690
3417.57354	0.04669
3416.28777	0.04669
3415.00200	0.04679
3413.71624	0.04686
3412.43047	0.04677
3411.14470	0.04651
3409.85893	0.04621
3408.57316	0.04606
3407.28739	0.04614
3406.00162	0.04641
3404.71585	0.04680
3403.43008	0.04718
3402.14432	0.04739
3400.85855	0.04729
3399.57278	0.04695
3398.28701	0.04671
3397.00124	0.04678
3395.71547	0.04707
3394.42970	0.04739
3393.14393	0.04764
3391.85817	0.04780
3390.57240	0.04780
3389.28663	0.04753
3388.00086	0.04701
3386.71509	0.04643
3385.42932	0.04603
3384.14355	0.04584
3382.85778	0.04576
3381.57201	0.04571
3380.28625	0.04580
3379.00048	0.04611
3377.71471	0.04657
3376.42894	0.04692
3375.14317	0.04697
3373.85740	0.04674
3372.57163	0.04640
3371.28586	0.04618
3370.00010	0.04628
3368.71433	0.04679
3367.42856	0.04763
3366.14279	0.04852
3364.85702	0.04911
3363.57125	0.04917
3362.28548	0.04879
3360.99971	0.04834
3359.71394	0.04813
3358.42818	0.04826
3357.14241	0.04853
3355.85664	0.04866
3354.57087	0.04848
3353.28510	0.04808
3351.99933	0.04773
3350.71356	0.04766
3349.42779	0.04788
3348.14202	0.04813
3346.85626	0.04813
3345.57049	0.04777
3344.28472	0.04718
3342.99895	0.04660
3341.71318	0.04626
3340.42741	0.04629
3339.14164	0.04669
3337.85587	0.04729
3336.57011	0.04785
3335.28434	0.04811
3333.99857	0.04797
3332.71280	0.04758
3331.42703	0.04722
3330.14126	0.04712
3328.85549	0.04733
3327.56972	0.04776
3326.28395	0.04827
3324.99819	0.04875
3323.71242	0.04903
3322.42665	0.04897
3321.14088	0.04862
3319.85511	0.04821
3318.56934	0.04801
3317.28357	0.04801
3315.99780	0.04800
3314.71204	0.04784
3313.42627	0.04765
3312.14050	0.04762
3310.85473	0.04778
3309.56896	0.04794
3308.28319	0.04792
3306.99742	0.04774
3305.71165	0.04754
3304.42588	0.04736
3303.14012	0.04712
3301.85435	0.04675
3300.56858	0.04627
3299.28281	0.04582
3297.99704	0.04558
3296.71127	0.04566
3295.42550	0.04608
3294.13973	0.04676
3292.85397	0.04748
3291.56820	0.04795
3290.28243	0.04795
3288.99666	0.04749
3287.71089	0.04685
3286.42512	0.04646
3285.13935	0.04650
3283.85358	0.04688
3282.56781	0.04730
3281.28205	0.04750
3279.99628	0.04736
3278.71051	0.04687
3277.42474	0.04617
3276.13897	0.04555
3274.85320	0.04526
3273.56743	0.04534
3272.28166	0.04559
3270.99590	0.04572
3269.71013	0.04564
3268.42436	0.04547
3267.13859	0.04545
3265.85282	0.04564
3264.56705	0.04596
3263.28128	0.04621
3261.99551	0.04633
3260.70974	0.04637
3259.42398	0.04636
3258.13821	0.04628
3256.85244	0.04607
3255.56667	0.04574
3254.28090	0.04539
3252.99513	0.04522
3251.70936	0.04533
3250.42359	0.04561
3249.13783	0.04584
3247.85206	0.04592
3246.56629	0.04595
3245.28052	0.04607
3243.99475	0.04631
3242.70898	0.04656
3241.42321	0.04675
3240.13744	0.04685
3238.85167	0.04681
3237.56591	0.04651
3236.28014	0.04593
3234.99437	0.04522
3233.70860	0.04459
3232.42283	0.04422
3231.13706	0.04418
3229.85129	0.04442
3228.56552	0.04481
3227.27976	0.04521
3225.99399	0.04557
3224.70822	0.04587
3223.42245	0.04604
3222.13668	0.04602
3220.85091	0.04590
3219.56514	0.04589
3218.27937	0.04606
3216.99360	0.04619
3215.70784	0.04609
3214.42207	0.04573
3213.13630	0.04526
3211.85053	0.04477
3210.56476	0.04435
3209.27899	0.04412
3207.99322	0.04410
3206.70745	0.04418
3205.42169	0.04423
3204.13592	0.04428
3202.85015	0.04442
3201.56438	0.04463
3200.27861	0.04478
3198.99284	0.04476
3197.70707	0.04466
3196.42130	0.04465
3195.13553	0.04477
3193.84977	0.04491
3192.56400	0.04496
3191.27823	0.04495
3189.99246	0.04489
3188.70669	0.04475
3187.42092	0.04452
3186.13515	0.04418
3184.84938	0.04378
3183.56362	0.04338
3182.27785	0.04306
3180.99208	0.04292
3179.70631	0.04298
3178.42054	0.04321
3177.13477	0.04346
3175.84900	0.04357
3174.56323	0.04349
3173.27746	0.04330
3171.99170	0.04305
3170.70593	0.04269
3169.42016	0.04221
3168.13439	0.04171
3166.84862	0.04142
3165.56285	0.04152
3164.27708	0.04197
3162.99131	0.04251
3161.70555	0.04278
3160.41978	0.04256
3159.13401	0.04198
3157.84824	0.04137
3156.56247	0.04115
3155.27670	0.04145
3153.99093	0.04202
3152.70516	0.04244
3151.41939	0.04250
3150.13363	0.04226
3148.84786	0.04186
3147.56209	0.04136
3146.27632	0.04085
3144.99055	0.04054
3143.70478	0.04051
3142.41901	0.04072
3141.13324	0.04100
3139.84748	0.04126
3138.56171	0.04146
3137.27594	0.04153
3135.99017	0.04147
3134.70440	0.04129
3133.41863	0.04109
3132.13286	0.04096
3130.84709	0.04092
3129.56132	0.04100
3128.27556	0.04119
3126.98979	0.04141
3125.70402	0.04154
3124.41825	0.04146
3123.13248	0.04117
3121.84671	0.04077
3120.56094	0.04045
3119.27517	0.04030
3117.98940	0.04026
3116.70364	0.04022
3115.41787	0.04006
3114.13210	0.03975
3112.84633	0.03939
3111.56056	0.03915
3110.27479	0.03917
3108.98902	0.03935
3107.70325	0.03950
3106.41749	0.03944
3105.13172	0.03911
3103.84595	0.03859
3102.56018	0.03806
3101.27441	0.03777
3099.98864	0.03786
3098.70287	0.03817
3097.41710	0.03845
3096.13133	0.03853
3094.84557	0.03842
3093.55980	0.03822
3092.27403	0.03811
3090.98826	0.03820
3089.70249	0.03846
3088.41672	0.03872
3087.13095	0.03891
3085.84518	0.03906
3084.55942	0.03919
3083.27365	0.03917
3081.98788	0.03884
3080.70211	0.03826
3079.41634	0.03770
3078.13057	0.03736
3076.84480	0.03726
3075.55903	0.03729
3074.27326	0.03740
3072.98750	0.03758
3071.70173	0.03778
3070.41596	0.03792
3069.13019	0.03791
3067.84442	0.03770
3066.55865	0.03729
3065.27288	0.03676
3063.98711	0.03635
3062.70135	0.03625
3061.41558	0.03644
3060.12981	0.03668
3058.84404	0.03675
3057.55827	0.03660
3056.27250	0.03636
3054.98673	0.03620
3053.70096	0.03627
3052.41519	0.03656
3051.12943	0.03698
3049.84366	0.03736
3048.55789	0.03755
3047.27212	0.03746
3045.98635	0.03710
3044.70058	0.03662
3043.41481	0.03623
3042.12904	0.03606
3040.84328	0.03608
3039.55751	0.03610
3038.27174	0.03601
3036.98597	0.03583
3035.70020	0.03564
3034.41443	0.03547
3033.12866	0.03532
3031.84289	0.03522
3030.55712	0.03526
3029.27136	0.03547
3027.98559	0.03577
3026.69982	0.03602
3025.41405	0.03612
3024.12828	0.03608
3022.84251	0.03596
3021.55674	0.03579
3020.27097	0.03557
3018.98521	0.03533
3017.69944	0.03514
3016.41367	0.03503
3015.12790	0.03500
3013.84213	0.03495
3012.55636	0.03482
3011.27059	0.03453
3009.98482	0.03414
3008.69905	0.03374
3007.41329	0.03349
3006.12752	0.03347
3004.84175	0.03361
3003.55598	0.03377
3002.27021	0.03389
3000.98444	0.03399
2999.69867	0.03418
2998.41290	0.03449
2997.12714	0.03481
2995.84137	0.03494
2994.55560	0.03477
2993.26983	0.03444
2991.98406	0.03419
2990.69829	0.03413
2989.41252	0.03419
2988.12675	0.03430
2986.84098	0.03439
2985.55522	0.03446
2984.26945	0.03449
2982.98368	0.03457
2981.69791	0.03477
2980.41214	0.03510
2979.12637	0.03547
2977.84060	0.03576
2976.55483	0.03587
2975.26907	0.03573
2973.98330	0.03536
2972.69753	0.03489
2971.41176	0.03453
2970.12599	0.03445
2968.84022	0.03470
2967.55445	0.03513
2966.26868	0.03561
2964.98291	0.03600
2963.69715	0.03630
2962.41138	0.03649
2961.12561	0.03656
2959.83984	0.03647
2958.55407	0.03627
2957.26830	0.03609
2955.98253	0.03611
2954.69676	0.03643
2953.41100	0.03689
2952.12523	0.03722
2950.83946	0.03721
2949.55369	0.03691
2948.26792	0.03657
2946.98215	0.03641
2945.69638	0.03649
2944.41061	0.03672
2943.12484	0.03694
2941.83908	0.03703
2940.55331	0.03697
2939.26754	0.03683
2937.98177	0.03673
2936.69600	0.03676
2935.41023	0.03692
2934.12446	0.03710
2932.83869	0.03722
2931.55293	0.03735
2930.26716	0.03762
2928.98139	0.03799
2927.69562	0.03831
2926.40985	0.03841
2925.12408	0.03831
2923.83831	0.03813
2922.55254	0.03790
2921.26677	0.03769
2919.98101	0.03755
2918.69524	0.03752
2917.40947	0.03750
2916.12370	0.03729
2914.83793	0.03684
2913.55216	0.03631
2912.26639	0.03596
2910.98062	0.03589
2909.69486	0.03600
2908.40909	0.03608
2907.12332	0.03599
2905.83755	0.03572
2904.55178	0.03535
2903.26601	0.03498
2901.98024	0.03462
2900.69447	0.03428
2899.40870	0.03398
2898.12294	0.03375
2896.83717	0.03361
2895.55140	0.03355
2894.26563	0.03351
2892.97986	0.03344
2891.69409	0.03331
2890.40832	0.03316
2889.12255	0.03304
2887.83678	0.03290
2886.55102	0.03271
2885.26525	0.03250
2883.97948	0.03234
2882.69371	0.03217
2881.40794	0.03192
2880.12217	0.03170
2878.83640	0.03168
2877.55063	0.03189
2876.26487	0.03218
2874.97910	0.03235
2873.69333	0.03233
2872.40756	0.03221
2871.12179	0.03218
2869.83602	0.03234
2868.55025	0.03259
2867.26448	0.03274
2865.97871	0.03272
2864.69295	0.03261
2863.40718	0.03249
2862.12141	0.03231
2860.83564	0.03204
2859.54987	0.03172
2858.26410	0.03149
2856.97833	0.03142
2855.69256	0.03138
2854.40680	0.03124
2853.12103	0.03100
2851.83526	0.03080
2850.54949	0.03071
2849.26372	0.03071
2847.97795	0.03062
2846.69218	0.03032
2845.40641	0.02982
2844.12064	0.02935
2842.83488	0.02910
2841.54911	0.02908
2840.26334	0.02907
2838.97757	0.02888
2837.69180	0.02855
2836.40603	0.02822
2835.12026	0.02799
2833.83449	0.02786
2832.54873	0.02777
2831.26296	0.02765
2829.97719	0.02746
2828.69142	0.02724
2827.40565	0.02707
2826.11988	0.02700
2824.83411	0.02706
2823.54834	0.02717
2822.26257	0.02725
2820.97681	0.02731
2819.69104	0.02736
2818.40527	0.02743
2817.11950	0.02746
2815.83373	0.02740
2814.54796	0.02727
2813.26219	0.02714
2811.97642	0.02706
2810.69066	0.02698
2809.40489	0.02684
2808.11912	0.02655
2806.83335	0.02613
2805.54758	0.02566
2804.26181	0.02525
2802.97604	0.02505
2801.69027	0.02515
2800.40450	0.02550
2799.11874	0.02588
2797.83297	0.02603
2796.54720	0.02592
2795.26143	0.02567
2793.97566	0.02542
2792.68989	0.02520
2791.40412	0.02497
2790.11835	0.02476
2788.83259	0.02462
2787.54682	0.02455
2786.26105	0.02453
2784.97528	0.02459
2783.68951	0.02473
2782.40374	0.02489
2781.11797	0.02493
2779.83220	0.02482
2778.54643	0.02465
2777.26067	0.02453
2775.97490	0.02452
2774.68913	0.02458
2773.40336	0.02467
2772.11759	0.02471
2770.83182	0.02465
2769.54605	0.02451
2768.26028	0.02434
2766.97452	0.02422
2765.68875	0.02417
2764.40298	0.02418
2763.11721	0.02424
2761.83144	0.02427
2760.54567	0.02425
2759.25990	0.02417
2757.97413	0.02405
2756.68836	0.02388
2755.40260	0.02371
2754.11683	0.02363
2752.83106	0.02368
2751.54529	0.02375
2750.25952	0.02374
2748.97375	0.02363
2747.68798	0.02351
2746.40221	0.02347
2745.11645	0.02358
2743.83068	0.02381
2742.54491	0.02403
2741.25914	0.02413
2739.97337	0.02407
2738.68760	0.02393
2737.40183	0.02374
2736.11606	0.02354
2734.83029	0.02332
2733.54453	0.02315
2732.25876	0.02310
2730.97299	0.02317
2729.68722	0.02330
2728.40145	0.02338
2727.11568	0.02337
2725.82991	0.02332
2724.54414	0.02326
2723.25838	0.02316
2721.97261	0.02298
2720.68684	0.02278
2719.40107	0.02262
2718.11530	0.02258
2716.82953	0.02264
2715.54376	0.02276
2714.25799	0.02288
2712.97222	0.02291
2711.68646	0.02278
2710.40069	0.02256
2709.11492	0.02243
2707.82915	0.02254
2706.54338	0.02276
2705.25761	0.02291
2703.97184	0.02287
2702.68607	0.02272
2701.40031	0.02257
2700.11454	0.02248
2698.82877	0.02247
2697.54300	0.02257
2696.25723	0.02276
2694.97146	0.02296
2693.68569	0.02301
2692.39992	0.02286
2691.11415	0.02257
2689.82839	0.02230
2688.54262	0.02213
2687.25685	0.02209
2685.97108	0.02216
2684.68531	0.02232
2683.39954	0.02248
2682.11377	0.02260
2680.82800	0.02261
2679.54224	0.02254
2678.25647	0.02243
2676.97070	0.02235
2675.68493	0.02233
2674.39916	0.02234
2673.11339	0.02228
2671.82762	0.02216
2670.54185	0.02205
2669.25608	0.02201
2667.97032	0.02204
2666.68455	0.02208
2665.39878	0.02205
2664.11301	0.02192
2662.82724	0.02176
2661.54147	0.02171
2660.25570	0.02181
2658.96993	0.02201
2657.68417	0.02217
2656.39840	0.02222
2655.11263	0.02211
2653.82686	0.02191
2652.54109	0.02178
2651.25532	0.02174
2649.96955	0.02165
2648.68378	0.02140
2647.39801	0.02105
2646.11225	0.02076
2644.82648	0.02066
2643.54071	0.02073
2642.25494	0.02089
2640.96917	0.02097
2639.68340	0.02084
2638.39763	0.02050
2637.11186	0.02016
2635.82609	0.02004
2634.54033	0.02018
2633.25456	0.02040
2631.96879	0.02052
2630.68302	0.02048
2629.39725	0.02030
2628.11148	0.02003
2626.82571	0.01973
2625.53994	0.01946
2624.25418	0.01924
2622.96841	0.01907
2621.68264	0.01900
2620.39687	0.01908
2619.11110	0.01929
2617.82533	0.01953
2616.53956	0.01965
2615.25379	0.01958
2613.96802	0.01935
2612.68226	0.01901
2611.39649	0.01861
2610.11072	0.01822
2608.82495	0.01791
2607.53918	0.01778
2606.25341	0.01785
2604.96764	0.01803
2603.68187	0.01815
2602.39611	0.01814
2601.11034	0.01803
2599.82457	0.01792
2598.53880	0.01784
2597.25303	0.01779
2595.96726	0.01772
2594.68149	0.01758
2593.39572	0.01739
2592.10995	0.01724
2590.82419	0.01721
2589.53842	0.01724
2588.25265	0.01721
2586.96688	0.01717
2585.68111	0.01732
2584.39534	0.01778
2583.10957	0.01838
2581.82380	0.01882
2580.53804	0.01892
2579.25227	0.01871
2577.96650	0.01834
2576.68073	0.01796
2575.39496	0.01762
2574.10919	0.01732
2572.82342	0.01705
2571.53765	0.01682
2570.25188	0.01674
2568.96612	0.01690
2567.68035	0.01729
2566.39458	0.01772
2565.10881	0.01788
2563.82304	0.01766
2562.53727	0.01722
2561.25150	0.01686
2559.96573	0.01676
2558.67997	0.01681
2557.39420	0.01677
2556.10843	0.01658
2554.82266	0.01635
2553.53689	0.01618
2552.25112	0.01610
2550.96535	0.01603
2549.67958	0.01601
2548.39381	0.01605
2547.10805	0.01617
2545.82228	0.01639
2544.53651	0.01670
2543.25074	0.01705
2541.96497	0.01727
2540.67920	0.01719
2539.39343	0.01683
2538.10766	0.01645
2536.82190	0.01633
2535.53613	0.01650
2534.25036	0.01667
2532.96459	0.01653
2531.67882	0.01609
2530.39305	0.01569
2529.10728	0.01561
2527.82151	0.01582
2526.53574	0.01610
2525.24998	0.01633
2523.96421	0.01647
2522.67844	0.01642
2521.39267	0.01612
2520.10690	0.01572
2518.82113	0.01551
2517.53536	0.01562
2516.24959	0.01586
2514.96383	0.01603
2513.67806	0.01612
2512.39229	0.01627
2511.10652	0.01646
2509.82075	0.01649
2508.53498	0.01613
2507.24921	0.01536
2505.96344	0.01446
2504.67767	0.01386
2503.39191	0.01380
2502.10614	0.01421
2500.82037	0.01473
2499.53460	0.01512
2498.24883	0.01532
2496.96306	0.01549
2495.67729	0.01573
2494.39152	0.01597
2493.10576	0.01601
2491.81999	0.01577
2490.53422	0.01538
2489.24845	0.01507
2487.96268	0.01491
2486.67691	0.01488
2485.39114	0.01492
2484.10537	0.01506
2482.81960	0.01530
2481.53384	0.01559
2480.24807	0.01580
2478.96230	0.01580
2477.67653	0.01562
2476.39076	0.01535
2475.10499	0.01511
2473.81922	0.01489
2472.53345	0.01465
2471.24769	0.01440
2469.96192	0.01419
2468.67615	0.01411
2467.39038	0.01416
2466.10461	0.01435
2464.81884	0.01467
2463.53307	0.01503
2462.24730	0.01529
2460.96153	0.01534
2459.67577	0.01520
2458.39000	0.01502
2457.10423	0.01492
2455.81846	0.01497
2454.53269	0.01515
2453.24692	0.01535
2451.96115	0.01534
2450.67538	0.01498
2449.38962	0.01442
2448.10385	0.01403
2446.81808	0.01404
2445.53231	0.01435
2444.24654	0.01465
2442.96077	0.01475
2441.67500	0.01469
2440.38923	0.01457
2439.10346	0.01449
2437.81770	0.01445
2436.53193	0.01441
2435.24616	0.01420
2433.96039	0.01384
2432.67462	0.01353
2431.38885	0.01351
2430.10308	0.01386
2428.81731	0.01448
2427.53155	0.01517
2426.24578	0.01562
2424.96001	0.01559
2423.67424	0.01511
2422.38847	0.01449
2421.10270	0.01402
2419.81693	0.01381
2418.53116	0.01383
2417.24539	0.01392
2415.95963	0.01387
2414.67386	0.01359
2413.38809	0.01319
2412.10232	0.01291
2410.81655	0.01295
2409.53078	0.01333
2408.24501	0.01380
2406.95924	0.01407
2405.67347	0.01404
2404.38771	0.01385
2403.10194	0.01364
2401.81617	0.01349
2400.53040	0.01342
2399.24463	0.01349
2397.95886	0.01371
2396.67309	0.01398
2395.38732	0.01417
2394.10156	0.01420
2392.81579	0.01408
2391.53002	0.01386
2390.24425	0.01357
2388.95848	0.01328
2387.67271	0.01311
2386.38694	0.01313
2385.10117	0.01332
2383.81540	0.01350
2382.52964	0.01353
2381.24387	0.01344
2379.95810	0.01340
2378.67233	0.01350
2377.38656	0.01370
2376.10079	0.01394
2374.81502	0.01418
2373.52925	0.01428
2372.24349	0.01417
2370.95772	0.01395
2369.67195	0.01384
2368.38618	0.01387
2367.10041	0.01394
2365.81464	0.01406
2364.52887	0.01419
2363.24310	0.01423
2361.95733	0.01406
2360.67157	0.01362
2359.38580	0.01337
2358.10003	0.01365
2356.81426	0.01427
2355.52849	0.01488
2354.24272	0.01528
2352.95695	0.01538
2351.67118	0.01506
2350.38542	0.01465
2349.09965	0.01459
2347.81388	0.01468
2346.52811	0.01432
2345.24234	0.01390
2343.95657	0.01438
2342.67080	0.01537
2341.38503	0.01517
2340.09926	0.01393
2338.81350	0.01397
2337.52773	0.01527
2336.24196	0.01511
2334.95619	0.01388
2333.67042	0.01427
2332.38465	0.01546
2331.09888	0.01472
2329.81311	0.01389
2328.52735	0.01479
2327.24158	0.01499
2325.95581	0.01490
2324.67004	0.01608
2323.38427	0.01671
2322.09850	0.01615
2320.81273	0.01617
2319.52696	0.01593
2318.24119	0.01540
2316.95543	0.01538
2315.66966	0.01504
2314.38389	0.01460
2313.09812	0.01457
2311.81235	0.01442
2310.52658	0.01438
2309.24081	0.01431
2307.95504	0.01393
2306.66928	0.01362
2305.38351	0.01339
2304.09774	0.01341
2302.81197	0.01364
2301.52620	0.01377
2300.24043	0.01377
2298.95466	0.01363
2297.66889	0.01355
2296.38312	0.01363
2295.09736	0.01387
2293.81159	0.01419
2292.52582	0.01444
2291.24005	0.01456
2289.95428	0.01454
2288.66851	0.01439
2287.38274	0.01410
2286.09697	0.01368
2284.81121	0.01320
2283.52544	0.01283
2282.23967	0.01271
2280.95390	0.01277
2279.66813	0.01284
2278.38236	0.01276
2277.09659	0.01255
2275.81082	0.01237
2274.52505	0.01230
2273.23929	0.01231
2271.95352	0.01225
2270.66775	0.01209
2269.38198	0.01193
2268.09621	0.01196
2266.81044	0.01222
2265.52467	0.01249
2264.23890	0.01252
2262.95314	0.01226
2261.66737	0.01188
2260.38160	0.01168
2259.09583	0.01173
2257.81006	0.01188
2256.52429	0.01198
2255.23852	0.01201
2253.95275	0.01193
2252.66698	0.01167
2251.38122	0.01136
2250.09545	0.01135
2248.80968	0.01191
2247.52391	0.01278
2246.23814	0.01334
2244.95237	0.01322
2243.66660	0.01254
2242.38083	0.01162
2241.09507	0.01063
2239.80930	0.00976
2238.52353	0.00927
2237.23776	0.00934
2235.95199	0.00982
2234.66622	0.01035
2233.38045	0.01065
2232.09468	0.01065
2230.80891	0.01048
2229.52315	0.01039
2228.23738	0.01058
2226.95161	0.01092
2225.66584	0.01097
2224.38007	0.01027
2223.09430	0.00887
2221.80853	0.00744
2220.52276	0.00666
2219.23700	0.00675
2217.95123	0.00743
2216.66546	0.00834
2215.37969	0.00912
2214.09392	0.00948
2212.80815	0.00932
2211.52238	0.00885
2210.23661	0.00839
2208.95084	0.00806
2207.66508	0.00771
2206.37931	0.00729
2205.09354	0.00696
2203.80777	0.00700
2202.52200	0.00741
2201.23623	0.00790
2199.95046	0.00824
2198.66469	0.00849
2197.37893	0.00880
2196.09316	0.00902
2194.80739	0.00882
2193.52162	0.00815
2192.23585	0.00747
2190.95008	0.00727
2189.66431	0.00767
2188.37854	0.00828
2187.09277	0.00852
2185.80701	0.00809
2184.52124	0.00721
2183.23547	0.00637
2181.94970	0.00591
2180.66393	0.00579
2179.37816	0.00567
2178.09239	0.00530
2176.80662	0.00476
2175.52085	0.00442
2174.23509	0.00454
2172.94932	0.00492
2171.66355	0.00524
2170.37778	0.00546
2169.09201	0.00568
2167.80624	0.00589
2166.52047	0.00601
2165.23470	0.00626
2163.94894	0.00701
2162.66317	0.00811
2161.37740	0.00879
2160.09163	0.00827
2158.80586	0.00654
2157.52009	0.00447
2156.23432	0.00290
2154.94855	0.00208
2153.66278	0.00182
2152.37702	0.00182
2151.09125	0.00185
2149.80548	0.00180
2148.51971	0.00184
2147.23394	0.00209
2145.94817	0.00227
2144.66240	0.00192
2143.37663	0.00113
2142.09087	0.00058
2140.80510	0.00087
2139.51933	0.00186
2138.23356	0.00292
2136.94779	0.00354
2135.66202	0.00377
2134.37625	0.00399
2133.09048	0.00450
2131.80471	0.00512
2130.51895	0.00541
2129.23318	0.00514
2127.94741	0.00465
2126.66164	0.00444
2125.37587	0.00464
2124.09010	0.00492
2122.80433	0.00499
2121.51856	0.00499
2120.23280	0.00525
2118.94703	0.00581
2117.66126	0.00637
2116.37549	0.00663
2115.08972	0.00662
2113.80395	0.00663
2112.51818	0.00685
2111.23241	0.00722
2109.94664	0.00753
2108.66088	0.00759
2107.37511	0.00738
2106.08934	0.00699
2104.80357	0.00656
2103.51780	0.00616
2102.23203	0.00577
2100.94626	0.00553
2099.66049	0.00704
2098.37473	0.00798
2097.08896	0.00807
2095.80319	0.00765
2094.51742	0.00692
2093.23165	0.00619
2091.94588	0.00575
2090.66011	0.00571
2089.37434	0.00597
2088.08857	0.00636
2086.80281	0.00669
2085.51704	0.00688
2084.23127	0.00697
2082.94550	0.00703
2081.65973	0.00711
2080.37396	0.00717
2079.08819	0.00706
2077.80242	0.00663
2076.51666	0.00591
2075.23089	0.00519
2073.94512	0.00485
2072.65935	0.00511
2071.37358	0.00586
2070.08781	0.00668
2068.80204	0.00706
2067.51627	0.00678
2066.23050	0.00613
2064.94474	0.00565
2063.65897	0.00566
2062.37320	0.00606
2061.08743	0.00651
2059.80166	0.00671
2058.51589	0.00654
2057.23012	0.00605
2055.94435	0.00530
2054.65859	0.00439
2053.37282	0.00355
2052.08705	0.00313
2050.80128	0.00331
2049.51551	0.00393
2048.22974	0.00463
2046.94397	0.00510
2045.65820	0.00522
2044.37243	0.00496
2043.08667	0.00439
2041.80090	0.00379
2040.51513	0.00354
2039.22936	0.00378
2037.94359	0.00426
2036.65782	0.00457
2035.37205	0.00458
2034.08628	0.00441
2032.80052	0.00408
2031.51475	0.00344
2030.22898	0.00245
2028.94321	0.00147
2027.65744	0.00102
2026.37167	0.00131
2025.08590	0.00208
2023.80013	0.00287
2022.51436	0.00339
2021.22860	0.00354
2019.94283	0.00327
2018.65706	0.00261
2017.37129	0.00166
2016.08552	0.00073
2014.79975	0.00025
2013.51398	0.00062
2012.22821	0.00188
2010.94245	0.00358
2009.65668	0.00514
2008.37091	0.00632
2007.08514	0.00724
2005.79937	0.00782
2004.51360	0.00770
2003.22783	0.00673
2001.94206	0.00541
2000.65629	0.00449
1999.37053	0.00440
1998.08476	0.00505
1996.79899	0.00609
1995.51322	0.00709
1994.22745	0.00767
1992.94168	0.00768
1991.65591	0.00711
1990.37014	0.00604
1989.08438	0.00469
1987.79861	0.00357
1986.51284	0.00326
1985.22707	0.00390
1983.94130	0.00506
1982.65553	0.00621
1981.36976	0.00718
1980.08399	0.00807
1978.79822	0.00883
1977.51246	0.00908
1976.22669	0.00851
1974.94092	0.00733
1973.65515	0.00610
1972.36938	0.00532
1971.08361	0.00505
1969.79784	0.00505
1968.51207	0.00513
1967.22631	0.00535
1965.94054	0.00604
1964.65477	0.00729
1963.36900	0.00873
1962.08323	0.00964
1960.79746	0.00959
1959.51169	0.00873
1958.22592	0.00751
1956.94015	0.00635
1955.65439	0.00538
1954.36862	0.00465
1953.08285	0.00423
1951.79708	0.00435
1950.51131	0.00512
1949.22554	0.00627
1947.93977	0.00727
1946.65400	0.00774
1945.36823	0.00780
1944.08247	0.00778
1942.79670	0.00786
1941.51093	0.00791
1940.22516	0.00786
1938.93939	0.00783
1937.65362	0.00798
1936.36785	0.00825
1935.08208	0.00838
1933.79632	0.00831
1932.51055	0.00826
1931.22478	0.00843
1929.93901	0.00874
1928.65324	0.00883
1927.36747	0.00853
1926.08170	0.00795
1924.79593	0.00746
1923.51016	0.00729
1922.22440	0.00745
1920.93863	0.00779
1919.65286	0.00822
1918.36709	0.00867
1917.08132	0.00902
1915.79555	0.00915
1914.50978	0.00903
1913.22401	0.00883
1911.93825	0.00872
1910.65248	0.00868
1909.36671	0.00859
1908.08094	0.00838
1906.79517	0.00817
1905.50940	0.00812
1904.22363	0.00830
1902.93786	0.00859
1901.65209	0.00879
1900.36633	0.00884
1899.08056	0.00882
1897.79479	0.00884
1896.50902	0.00892
1895.22325	0.00897
1893.93748	0.00893
1892.65171	0.00877
1891.36594	0.00861
1890.08018	0.00864
1888.79441	0.00892
1887.50864	0.00931
1886.22287	0.00958
1884.93710	0.00961
1883.65133	0.00941
1882.36556	0.00910
1881.07979	0.00881
1879.79402	0.00861
1878.50826	0.00848
1877.22249	0.00836
1875.93672	0.00825
1874.65095	0.00823
1873.36518	0.00835
1872.07941	0.00861
1870.79364	0.00893
1869.50787	0.00924
1868.22211	0.00944
1866.93634	0.00945
1865.65057	0.00927
1864.36480	0.00904
1863.07903	0.00891
1861.79326	0.00890
1860.50749	0.00891
1859.22172	0.00888
1857.93595	0.00882
1856.65019	0.00881
1855.36442	0.00886
1854.07865	0.00887
1852.79288	0.00875
1851.50711	0.00855
1850.22134	0.00841
1848.93557	0.00841
1847.64980	0.00855
1846.36404	0.00875
1845.07827	0.00891
1843.79250	0.00898
1842.50673	0.00895
1841.22096	0.00885
1839.93519	0.00877
1838.64942	0.00883
1837.36365	0.00896
1836.07788	0.00906
1834.79212	0.00903
1833.50635	0.00894
1832.22058	0.00886
1830.93481	0.00882
1829.64904	0.00882
1828.36327	0.00886
1827.07750	0.00890
1825.79173	0.00894
1824.50597	0.00907
1823.22020	0.00932
1821.93443	0.00965
1820.64866	0.00990
1819.36289	0.00993
1818.07712	0.00968
1816.79135	0.00925
1815.50558	0.00881
1814.21981	0.00851
1812.93405	0.00839
1811.64828	0.00842
1810.36251	0.00852
1809.07674	0.00862
1807.79097	0.00871
1806.50520	0.00882
1805.21943	0.00896
1803.93366	0.00910
1802.64790	0.00918
1801.36213	0.00919
1800.07636	0.00916
1798.79059	0.00913
1797.50482	0.00915
1796.21905	0.00922
1794.93328	0.00932
1793.64751	0.00946
1792.36174	0.00963
1791.07598	0.00978
1789.79021	0.00986
1788.50444	0.00989
1787.21867	0.00992
1785.93290	0.01001
1784.64713	0.01014
1783.36136	0.01028
1782.07559	0.01036
1780.78983	0.01037
1779.50406	0.01029
1778.21829	0.01011
1776.93252	0.00992
1775.64675	0.00984
1774.36098	0.00991
1773.07521	0.01005
1771.78944	0.01016
1770.50367	0.01020
1769.21791	0.01019
1767.93214	0.01020
1766.64637	0.01023
1765.36060	0.01025
1764.07483	0.01027
1762.78906	0.01034
1761.50329	0.01050
1760.21752	0.01068
1758.93176	0.01076
1757.64599	0.01069
1756.36022	0.01057
1755.07445	0.01051
1753.78868	0.01055
1752.50291	0.01066
1751.21714	0.01078
1749.93137	0.01086
1748.64560	0.01091
1747.35984	0.01096
1746.07407	0.01103
1744.78830	0.01109
1743.50253	0.01111
1742.21676	0.01111
1740.93099	0.01114
1739.64522	0.01122
1738.35945	0.01140
1737.07369	0.01164
1735.78792	0.01185
1734.50215	0.01199
1733.21638	0.01206
1731.93061	0.01205
1730.64484	0.01192
1729.35907	0.01175
1728.07330	0.01167
1726.78753	0.01171
1725.50177	0.01184
1724.21600	0.01203
1722.93023	0.01230
1721.64446	0.01264
1720.35869	0.01304
1719.07292	0.01339
1717.78715	0.01362
1716.50138	0.01373
1715.21561	0.01375
1713.92985	0.01374
1712.64408	0.01377
1711.35831	0.01384
1710.07254	0.01393
1708.78677	0.01403
1707.50100	0.01418
1706.21523	0.01439
1704.92946	0.01473
1703.64370	0.01521
1702.35793	0.01578
1701.07216	0.01637
1699.78639	0.01693
1698.50062	0.01735
1697.21485	0.01753
1695.92908	0.01755
1694.64331	0.01756
1693.35754	0.01758
1692.07178	0.01760
1690.78601	0.01768
1689.50024	0.01793
1688.21447	0.01835
1686.92870	0.01885
1685.64293	0.01934
1684.35716	0.01975
1683.07139	0.02005
1681.78563	0.02020
1680.49986	0.02025
1679.21409	0.02041
1677.92832	0.02075
1676.64255	0.02121
1675.35678	0.02167
1674.07101	0.02207
1672.78524	0.02238
1671.49947	0.02261
1670.21371	0.02279
1668.92794	0.02294
1667.64217	0.02305
1666.35640	0.02313
1665.07063	0.02326
1663.78486	0.02346
1662.49909	0.02372
1661.21332	0.02395
1659.92756	0.02413
1658.64179	0.02435
1657.35602	0.02474
1656.07025	0.02528
1654.78448	0.02575
1653.49871	0.02602
1652.21294	0.02609
1650.92717	0.02605
1649.64140	0.02601
1648.35564	0.02605
1647.06987	0.02619
1645.78410	0.02631
1644.49833	0.02629
1643.21256	0.02616
1641.92679	0.02602
1640.64102	0.02602
1639.35525	0.02617
1638.06949	0.02638
1636.78372	0.02654
1635.49795	0.02658
1634.21218	0.02654
1632.92641	0.02647
1631.64064	0.02642
1630.35487	0.02645
1629.06910	0.02654
1627.78333	0.02664
1626.49757	0.02672
1625.21180	0.02674
1623.92603	0.02670
1622.64026	0.02665
1621.35449	0.02664
1620.06872	0.02672
1618.78295	0.02688
1617.49718	0.02708
1616.21142	0.02721
1614.92565	0.02723
1613.63988	0.02714
1612.35411	0.02704
1611.06834	0.02703
1609.78257	0.02710
1608.49680	0.02719
1607.21103	0.02727
1605.92526	0.02737
1604.63950	0.02748
1603.35373	0.02762
1602.06796	0.02777
1600.78219	0.02790
1599.49642	0.02799
1598.21065	0.02804
1596.92488	0.02809
1595.63911	0.02820
1594.35335	0.02836
1593.06758	0.02854
1591.78181	0.02870
1590.49604	0.02884
1589.21027	0.02895
1587.92450	0.02905
1586.63873	0.02913
1585.35296	0.02921
1584.06719	0.02931
1582.78143	0.02946
1581.49566	0.02966
1580.20989	0.02993
1578.92412	0.03021
1577.63835	0.03045
1576.35258	0.03062
1575.06681	0.03076
1573.78104	0.03088
1572.49528	0.03097
1571.20951	0.03106
1569.92374	0.03120
1568.63797	0.03136
1567.35220	0.03150
1566.06643	0.03161
1564.78066	0.03174
1563.49489	0.03197
1562.20912	0.03231
1560.92336	0.03267
1559.63759	0.03299
1558.35182	0.03323
1557.06605	0.03331
1555.78028	0.03321
1554.49451	0.03303
1553.20874	0.03295
1551.92297	0.03301
1550.63721	0.03317
1549.35144	0.03337
1548.06567	0.03357
1546.77990	0.03373
1545.49413	0.03386
1544.20836	0.03402
1542.92259	0.03419
1541.63682	0.03428
1540.35105	0.03424
1539.06529	0.03410
1537.77952	0.03393
1536.49375	0.03376
1535.20798	0.03365
1533.92221	0.03367
1532.63644	0.03384
1531.35067	0.03407
1530.06490	0.03431
1528.77914	0.03460
1527.49337	0.03499
1526.20760	0.03549
1524.92183	0.03610
1523.63606	0.03673
1522.35029	0.03733
1521.06452	0.03791
1519.77875	0.03849
1518.49298	0.03907
1517.20722	0.03968
1515.92145	0.04036
1514.63568	0.04113
1513.34991	0.04195
1512.06414	0.04285
1510.77837	0.04390
1509.49260	0.04508
1508.20683	0.04627
1506.92107	0.04733
1505.63530	0.04821
1504.34953	0.04888
1503.06376	0.04940
1501.77799	0.04992
1500.49222	0.05055
1499.20645	0.05128
1497.92068	0.05199
1496.63491	0.05258
1495.34915	0.05306
1494.06338	0.05350
1492.77761	0.05396
1491.49184	0.05447
1490.20607	0.05506
1488.92030	0.05571
1487.63453	0.05640
1486.34876	0.05714
1485.06299	0.05794
1483.77723	0.05878
1482.49146	0.05961
1481.20569	0.06041
1479.91992	0.06119
1478.63415	0.06199
1477.34838	0.06283
1476.06261	0.06367
1474.77684	0.06443
1473.49108	0.06504
1472.20531	0.06550
1470.91954	0.06586
1469.63377	0.06612
1468.34800	0.06634
1467.06223	0.06653
1465.77646	0.06670
1464.49069	0.06683
1463.20492	0.06694
1461.91916	0.06713
1460.63339	0.06750
1459.34762	0.06804
1458.06185	0.06863
1456.77608	0.06915
1455.49031	0.06954
1454.20454	0.06980
1452.91877	0.07004
1451.63301	0.07032
1450.34724	0.07061
1449.06147	0.07083
1447.77570	0.07093
1446.48993	0.07093
1445.20416	0.07083
1443.91839	0.07060
1442.63262	0.07026
1441.34685	0.06988
1440.06109	0.06959
1438.77532	0.06943
1437.48955	0.06937
1436.20378	0.06940
1434.91801	0.06949
1433.63224	0.06967
1432.34647	0.06999
1431.06070	0.07051
1429.77494	0.07123
1428.48917	0.07211
1427.20340	0.07312
1425.91763	0.07421
1424.63186	0.07533
1423.34609	0.07644
1422.06032	0.07751
1420.77455	0.07852
1419.48878	0.07943
1418.20302	0.08022
1416.91725	0.08081
1415.63148	0.08115
1414.34571	0.08124
1413.05994	0.08113
1411.77417	0.08087
1410.48840	0.08051
1409.20263	0.08005
1407.91687	0.07946
1406.63110	0.07868
1405.34533	0.07771
1404.05956	0.07657
1402.77379	0.07532
1401.48802	0.07396
1400.20225	0.07250
1398.91648	0.07097
1397.63071	0.06940
1396.34495	0.06780
1395.05918	0.06617
1393.77341	0.06453
1392.48764	0.06292
1391.20187	0.06131
1389.91610	0.05970
1388.63033	0.05808
1387.34456	0.05645
1386.05880	0.05481
1384.77303	0.05320
1383.48726	0.05163
1382.20149	0.05011
1380.91572	0.04862
1379.62995	0.04711
1378.34418	0.04558
1377.05841	0.04407
1375.77264	0.04256
1374.48688	0.04106
1373.20111	0.03961
1371.91534	0.03822
1370.62957	0.03689
1369.34380	0.03563
1368.05803	0.03445
1366.77226	0.03336
1365.48649	0.03233
1364.20073	0.03136
1362.91496	0.03044
1361.62919	0.02955
1360.34342	0.02868
1359.05765	0.02783
1357.77188	0.02702
1356.48611	0.02630
1355.20034	0.02569
1353.91457	0.02512
1352.62881	0.02456
1351.34304	0.02398
1350.05727	0.02339
1348.77150	0.02284
1347.48573	0.02235
1346.19996	0.02193
1344.91419	0.02155
1343.62842	0.02122
1342.34266	0.02091
1341.05689	0.02061
1339.77112	0.02032
1338.48535	0.02006
1337.19958	0.01981
1335.91381	0.01956
1334.62804	0.01933
1333.34227	0.01912
1332.05650	0.01892
1330.77074	0.01872
1329.48497	0.01851
1328.19920	0.01829
1326.91343	0.01810
1325.62766	0.01795
1324.34189	0.01785
1323.05612	0.01776
1321.77035	0.01764
1320.48459	0.01747
1319.19882	0.01728
1317.91305	0.01709
1316.62728	0.01691
1315.34151	0.01674
1314.05574	0.01659
1312.76997	0.01648
1311.48420	0.01637
1310.19843	0.01625
1308.91267	0.01614
1307.62690	0.01604
1306.34113	0.01597
1305.05536	0.01589
1303.76959	0.01579
1302.48382	0.01568
1301.19805	0.01560
1299.91228	0.01556
1298.62652	0.01555
1297.34075	0.01551
1296.05498	0.01540
1294.76921	0.01524
1293.48344	0.01510
1292.19767	0.01502
1290.91190	0.01501
1289.62613	0.01500
1288.34036	0.01494
1287.05460	0.01479
1285.76883	0.01460
1284.48306	0.01444
1283.19729	0.01436
1281.91152	0.01434
1280.62575	0.01434
1279.33998	0.01430
1278.05421	0.01420
1276.76845	0.01407
1275.48268	0.01397
1274.19691	0.01389
1272.91114	0.01383
1271.62537	0.01377
1270.33960	0.01369
1269.05383	0.01359
1267.76806	0.01349
1266.48229	0.01345
1265.19653	0.01347
1263.91076	0.01352
1262.62499	0.01354
1261.33922	0.01352
1260.05345	0.01348
1258.76768	0.01342
1257.48191	0.01334
1256.19614	0.01325
1254.91037	0.01317
1253.62461	0.01310
1252.33884	0.01303
1251.05307	0.01296
1249.76730	0.01291
1248.48153	0.01289
1247.19576	0.01290
1245.90999	0.01294
1244.62422	0.01298
1243.33846	0.01298
1242.05269	0.01294
1240.76692	0.01287
1239.48115	0.01279
1238.19538	0.01273
1236.90961	0.01269
1235.62384	0.01268
1234.33807	0.01268
1233.05230	0.01266
1231.76654	0.01260
1230.48077	0.01251
1229.19500	0.01242
1227.90923	0.01237
1226.62346	0.01235
1225.33769	0.01236
1224.05192	0.01236
1222.76615	0.01234
1221.48039	0.01232
1220.19462	0.01230
1218.90885	0.01224
1217.62308	0.01215
1216.33731	0.01206
1215.05154	0.01202
1213.76577	0.01204
1212.48000	0.01209
1211.19423	0.01212
1209.90847	0.01215
1208.62270	0.01219
1207.33693	0.01226
1206.05116	0.01235
1204.76539	0.01245
1203.47962	0.01257
1202.19385	0.01267
1200.90808	0.01260
1199.62232	0.01233
1198.33655	0.01228
1197.05078	0.01231
1195.76501	0.01238
1194.47924	0.01243
1193.19347	0.01241
1191.90770	0.01237
1190.62193	0.01235
1189.33616	0.01241
1188.05040	0.01250
1186.76463	0.01259
1185.47886	0.01263
1184.19309	0.01266
1182.90732	0.01268
1181.62155	0.01274
1180.33578	0.01282
1179.05001	0.01290
1177.76425	0.01295
1176.47848	0.01296
1175.19271	0.01297
1173.90694	0.01304
1172.62117	0.01316
1171.33540	0.01328
1170.04963	0.01339
1168.76386	0.01351
1167.47809	0.01371
1166.19233	0.01399
1164.90656	0.01429
1163.62079	0.01459
1162.33502	0.01483
1161.04925	0.01501
1159.76348	0.01519
1158.47771	0.01540
1157.19194	0.01567
1155.90618	0.01598
1154.62041	0.01630
1153.33464	0.01663
1152.04887	0.01701
1150.76310	0.01748
1149.47733	0.01804
1148.19156	0.01866
1146.90579	0.01932
1145.62002	0.02000
1144.33426	0.02071
1143.04849	0.02147
1141.76272	0.02233
1140.47695	0.02330
1139.19118	0.02439
1137.90541	0.02556
1136.61964	0.02677
1135.33387	0.02805
1134.04811	0.02945
1132.76234	0.03100
1131.47657	0.03274
1130.19080	0.03467
1128.90503	0.03682
1127.61926	0.03917
1126.33349	0.04169
1125.04772	0.04435
1123.76195	0.04717
1122.47619	0.05019
1121.19042	0.05339
1119.90465	0.05663
1118.61888	0.05981
1117.33311	0.06290
1116.04734	0.06600
1114.76157	0.06918
1113.47580	0.07244
1112.19004	0.07567
1110.90427	0.07877
1109.61850	0.08170
1108.33273	0.08449
1107.04696	0.08723
1105.76119	0.08994
1104.47542	0.09263
1103.18965	0.09527
1101.90388	0.09789
1100.61812	0.10049
1099.33235	0.10305
1098.04658	0.10553
1096.76081	0.10792
1095.47504	0.11022
1094.18927	0.11239
1092.90350	0.11444
1091.61773	0.11640
1090.33197	0.11834
1089.04620	0.12024
1087.76043	0.12206
1086.47466	0.12378
1085.18889	0.12551
1083.90312	0.12738
1082.61735	0.12951
1081.33158	0.13186
1080.04581	0.13426
1078.76005	0.13662
1077.47428	0.13898
1076.18851	0.14144
1074.90274	0.14402
1073.61697	0.14670
1072.33120	0.14951
1071.04543	0.15250
1069.75966	0.15566
1068.47390	0.15893
1067.18813	0.16225
1065.90236	0.16562
1064.61659	0.16903
1063.33082	0.17249
1062.04505	0.17595
1060.75928	0.17935
1059.47351	0.18266
1058.18774	0.18581
1056.90198	0.18884
1055.61621	0.19179
1054.33044	0.19473
1053.04467	0.19769
1051.75890	0.20075
1050.47313	0.20393
1049.18736	0.20726
1047.90159	0.21068
1046.61583	0.21412
1045.33006	0.21757
1044.04429	0.22101
1042.75852	0.22447
1041.47275	0.22799
1040.18698	0.23159
1038.90121	0.23522
1037.61544	0.23881
1036.32967	0.24231
1035.04391	0.24570
1033.75814	0.24891
1032.47237	0.25186
1031.18660	0.25445
1029.90083	0.25661
1028.61506	0.25829
1027.32929	0.25953
1026.04352	0.26040
1024.75775	0.26094
1023.47199	0.26112
1022.18622	0.26085
1020.90045	0.26006
1019.61468	0.25870
1018.32891	0.25682
1017.04314	0.25443
1015.75737	0.25150
1014.47160	0.24800
1013.18584	0.24396
1011.90007	0.23942
1010.61430	0.23440
1009.32853	0.22889
1008.04276	0.22286
1006.75699	0.21635
1005.47122	0.20948
1004.18545	0.20234
1002.89968	0.19497
1001.61392	0.18736
1000.32815	0.17955
999.04238	0.17166
997.75661	0.16380
996.47084	0.15606
995.18507	0.14846
993.89930	0.14101
992.61353	0.13378
991.32777	0.12681
990.04200	0.12019
988.75623	0.11398
987.47046	0.10819
986.18469	0.10278
984.89892	0.09772
983.61315	0.09301
982.32738	0.08870
981.04161	0.08481
979.75585	0.08131
978.47008	0.07813
977.18431	0.07526
975.89854	0.07272
974.61277	0.07058
973.32700	0.06893
972.04123	0.06780
970.75546	0.06718
969.46970	0.06703
968.18393	0.06731
966.89816	0.06797
965.61239	0.06890
964.32662	0.06997
963.04085	0.07097
961.75508	0.07166
960.46931	0.07185
959.18354	0.07139
957.89778	0.07030
956.61201	0.06869
955.32624	0.06673
954.04047	0.06459
952.75470	0.06238
951.46893	0.06014
950.18316	0.05795
948.89739	0.05586
947.61163	0.05394
946.32586	0.05216
945.04009	0.05048
943.75432	0.04883
942.46855	0.04721
941.18278	0.04563
939.89701	0.04412
938.61124	0.04273
937.32547	0.04147
936.03971	0.04037
934.75394	0.03943
933.46817	0.03863
932.18240	0.03794
930.89663	0.03731
929.61086	0.03668
928.32509	0.03604
927.03932	0.03538
925.75356	0.03477
924.46779	0.03423
923.18202	0.03379
921.89625	0.03342
920.61048	0.03309
919.32471	0.03276
918.03894	0.03239
916.75317	0.03197
915.46740	0.03157
914.18164	0.03123
912.89587	0.03097
911.61010	0.03077
910.32433	0.03063
909.03856	0.03051
907.75279	0.03039
906.46702	0.03022
905.18125	0.02999
903.89549	0.02975
902.60972	0.02951
901.32395	0.02928
900.03818	0.02908
898.75241	0.02894
897.46664	0.02892
896.18087	0.02897
894.89510	0.02900
893.60933	0.02899
892.32357	0.02899
891.03780	0.02909
889.75203	0.02937
888.46626	0.02987
887.18049	0.03062
885.89472	0.03173
884.60895	0.03338
883.32318	0.03563
882.03742	0.03827
880.75165	0.04084
879.46588	0.04290
878.18011	0.04431
876.89434	0.04528
875.60857	0.04616
874.32280	0.04709
873.03703	0.04792
871.75126	0.04832
870.46550	0.04803
869.17973	0.04699
867.89396	0.04536
866.60819	0.04341
865.32242	0.04137
864.03665	0.03939
862.75088	0.03754
861.46511	0.03587
860.17935	0.03441
858.89358	0.03319
857.60781	0.03220
856.32204	0.03140
855.03627	0.03076
853.75050	0.03022
852.46473	0.02977
851.17896	0.02935
849.89319	0.02892
848.60743	0.02851
847.32166	0.02815
846.03589	0.02790
844.75012	0.02774
843.46435	0.02761
842.17858	0.02746
840.89281	0.02727
839.60704	0.02703
838.32128	0.02678
837.03551	0.02653
835.74974	0.02633
834.46397	0.02621
833.17820	0.02616
831.89243	0.02612
830.60666	0.02606
829.32089	0.02602
828.03512	0.02603
826.74936	0.02609
825.46359	0.02614
824.17782	0.02613
822.89205	0.02608
821.60628	0.02603
820.32051	0.02600
819.03474	0.02594
817.74897	0.02583
816.46321	0.02567
815.17744	0.02554
813.89167	0.02549
812.60590	0.02552
811.32013	0.02558
810.03436	0.02559
808.74859	0.02551
807.46282	0.02535
806.17705	0.02516
804.89129	0.02502
803.60552	0.02500
802.31975	0.02511
801.03398	0.02524
799.74821	0.02532
798.46244	0.02529
797.17667	0.02519
795.89090	0.02505
794.60513	0.02494
793.31937	0.02489
792.03360	0.02491
790.74783	0.02501
789.46206	0.02512
788.17629	0.02522
786.89052	0.02529
785.60475	0.02532
784.31898	0.02527
783.03322	0.02514
781.74745	0.02503
780.46168	0.02502
779.17591	0.02511
777.89014	0.02523
776.60437	0.02531
775.31860	0.02533
774.03283	0.02530
772.74706	0.02523
771.46130	0.02512
770.17553	0.02503
768.88976	0.02501
767.60399	0.02509
766.31822	0.02520
765.03245	0.02528
763.74668	0.02529
762.46091	0.02526
761.17515	0.02524
759.88938	0.02528
758.60361	0.02541
757.31784	0.02558
756.03207	0.02569
754.74630	0.02570
753.46053	0.02562
752.17476	0.02554
750.88899	0.02550
749.60323	0.02551
748.31746	0.02553
747.03169	0.02554
745.74592	0.02549
744.46015	0.02533
743.17438	0.02510
741.88861	0.02490
740.60284	0.02485
739.31708	0.02499
738.03131	0.02523
736.74554	0.02545
735.45977	0.02558
734.17400	0.02567
732.88823	0.02573
731.60246	0.02572
730.31669	0.02561
729.03092	0.02549
727.74516	0.02542
726.45939	0.02541
725.17362	0.02535
723.88785	0.02521
722.60208	0.02513
721.31631	0.02518
720.03054	0.02533
718.74477	0.02554
717.45901	0.02574
716.17324	0.02591
714.88747	0.02603
713.60170	0.02608
712.31593	0.02606
711.03016	0.02600
709.74439	0.02593
708.45862	0.02587
707.17285	0.02585
705.88709	0.02587
704.60132	0.02592
703.31555	0.02596
702.02978	0.02598
700.74401	0.02597
699.45824	0.02595
698.17247	0.02594
696.88670	0.02596
695.60094	0.02601
694.31517	0.02610
693.02940	0.02623
691.74363	0.02635
690.45786	0.02639
689.17209	0.02633
687.88632	0.02622
686.60055	0.02613
685.31478	0.02610
684.02902	0.02606
682.74325	0.02598
681.45748	0.02588
680.17171	0.02581
678.88594	0.02581
677.60017	0.02582
676.31440	0.02581
675.02863	0.02581
673.74287	0.02584
672.45710	0.02592
671.17133	0.02604
669.88556	0.02618
668.59979	0.02636
667.31402	0.02655
666.02825	0.02652
664.74248	0.02639
663.45671	0.02622
662.17095	0.02608
660.88518	0.02600
659.59941	0.02598
658.31364	0.02599
657.02787	0.02600
655.74210	0.02601
654.45633	0.02604
653.17056	0.02611
651.88480	0.02623
650.59903	0.02636
649.31326	0.02648
648.02749	0.02660
646.74172	0.02675
645.45595	0.02691
644.17018	0.02708
642.88441	0.02726
641.59864	0.02747
640.31288	0.02775
639.02711	0.02809
637.74134	0.02846
636.45557	0.02886
635.16980	0.02930
633.88403	0.02978
632.59826	0.03028
631.31249	0.03096
630.02673	0.03273
628.74096	0.03519
627.45519	0.03489
626.16942	0.03756
624.88365	0.04221
623.59788	0.04690
622.31211	0.05125
621.02634	0.05497
619.74057	0.05750
618.45481	0.05861
617.16904	0.05876
615.88327	0.05872
614.59750	0.05942
613.31173	0.06175
612.02596	0.06602
610.74019	0.07160
609.45442	0.07744
608.16866	0.08297
606.88289	0.08810
605.59712	0.09246
604.31135	0.09536
603.02558	0.09643
601.73981	0.09590
600.45404	0.09425
599.16827	0.09190
597.88250	0.08918
596.59674	0.08634
595.31097	0.08346
594.02520	0.08065
592.73943	0.07813
591.45366	0.07628
590.16789	0.07544
588.88212	0.07566
587.59635	0.07668
586.31059	0.07818
585.02482	0.07995
583.73905	0.08192
582.45328	0.08411
581.16751	0.08651
579.88174	0.08911
578.59597	0.09185
577.31020	0.09463
576.02443	0.09730
574.73867	0.09984
573.45290	0.10240
572.16713	0.10522
570.88136	0.10840
569.59559	0.11187
568.30982	0.11542
567.02405	0.11886
565.73828	0.12201
564.45251	0.12458
563.16675	0.12617
561.88098	0.12638
560.59521	0.12491
559.30944	0.12171
558.02367	0.11692
556.73790	0.11096
555.45213	0.10436
554.16636	0.09761
552.88060	0.09107
551.59483	0.08494
550.30906	0.07934
549.02329	0.07433
547.73752	0.06991
546.45175	0.06600
545.16598	0.06251
543.88021	0.05941
542.59444	0.05667
541.30868	0.05427
540.02291	0.05213
538.73714	0.05020
537.45137	0.04846
536.16560	0.04687
534.87983	0.04538
533.59406	0.04396
532.30829	0.04262
531.02253	0.04139
529.73676	0.04023
528.45099	0.03912
527.16522	0.03806
525.87945	0.03713
524.59368	0.03635
523.30791	0.03570
522.02214	0.03507
520.73637	0.03436
519.45061	0.03357
518.16484	0.03272
516.87907	0.03191
515.59330	0.03118
514.30753	0.03056
513.02176	0.03002
511.73599	0.02958
510.45022	0.02922
509.16446	0.02885
507.87869	0.02839
506.59292	0.02780
505.30715	0.02723
504.02138	0.02683
502.73561	0.02668
501.44984	0.02665
500.16407	0.02656
498.87830	0.02632
497.59254	0.02603
496.30677	0.02577
495.02100	0.02555
493.73523	0.02534
492.44946	0.02516
491.16369	0.02507
489.87792	0.02509
488.59215	0.02516
487.30639	0.02520
486.02062	0.02515
484.73485	0.02506
483.44908	0.02495
482.16331	0.02481
480.87754	0.02468
479.59177	0.02461
478.30600	0.02465
477.02023	0.02483
475.73447	0.02509
474.44870	0.02541
473.16293	0.02576
471.87716	0.02611
470.59139	0.02638
469.30562	0.02649
468.01985	0.02641
466.73408	0.02614
465.44832	0.02579
464.16255	0.02542
462.87678	0.02508
461.59101	0.02476
460.30524	0.02448
459.01947	0.02422
457.73370	0.02402
456.44793	0.02384
455.16216	0.02364
453.87640	0.02341
452.59063	0.02313
451.30486	0.02285
450.01909	0.02260
448.73332	0.02242
447.44755	0.02231
446.16178	0.02224
444.87601	0.02218
443.59025	0.02211
442.30448	0.02201
441.01871	0.02186
439.73294	0.02170
438.44717	0.02160
437.16140	0.02158
435.87563	0.02164
434.58986	0.02171
433.30409	0.02174
432.01833	0.02172
430.73256	0.02167
429.44679	0.02160
428.16102	0.02155
426.87525	0.02153
425.58948	0.02153
424.30371	0.02153
423.01794	0.02152
421.73218	0.02146
420.44641	0.02137
419.16064	0.02128
417.87487	0.02125
416.58910	0.02123
415.30333	0.02118
414.01756	0.02111
412.73179	0.02107
411.44602	0.02107
410.16026	0.02111
408.87449	0.02115
407.58872	0.02121
406.30295	0.02129
405.01718	0.02141
403.73141	0.02157
402.44564	0.02174
401.15987	0.02192
399.87411	0.02209
