3997.45528	0.03965
3996.16951	0.03944
3994.88374	0.03955
3993.59798	0.04009
3992.31221	0.04064
3991.02644	0.04073
3989.74067	0.04042
3988.45490	0.04020
3987.16913	0.04049
3985.88336	0.04123
3984.59759	0.04206
3983.31183	0.04261
3982.02606	0.04267
3980.74029	0.04233
3979.45452	0.04190
3978.16875	0.04176
3976.88298	0.04197
3975.59721	0.04221
3974.31144	0.04209
3973.02567	0.04159
3971.73991	0.04098
3970.45414	0.04062
3969.16837	0.04059
3967.88260	0.04072
3966.59683	0.04078
3965.31106	0.04067
3964.02529	0.04043
3962.73952	0.04014
3961.45376	0.03998
3960.16799	0.04007
3958.88222	0.04036
3957.59645	0.04065
3956.31068	0.04078
3955.02491	0.04071
3953.73914	0.04051
3952.45337	0.04030
3951.16760	0.04026
3949.88184	0.04051
3948.59607	0.04097
3947.31030	0.04145
3946.02453	0.04184
3944.73876	0.04216
3943.45299	0.04235
3942.16722	0.04222
3940.88145	0.04168
3939.59569	0.04082
3938.30992	0.03984
3937.02415	0.03900
3935.73838	0.03851
3934.45261	0.03847
3933.16684	0.03869
3931.88107	0.03884
3930.59530	0.03873
3929.30953	0.03843
3928.02377	0.03812
3926.73800	0.03782
3925.45223	0.03750
3924.16646	0.03725
3922.88069	0.03734
3921.59492	0.03797
3920.30915	0.03898
3919.02338	0.03985
3917.73762	0.04011
3916.45185	0.03972
3915.16608	0.03917
3913.88031	0.03906
3912.59454	0.03957
3911.30877	0.04032
3910.02300	0.04073
3908.73723	0.04047
3907.45146	0.03970
3906.16570	0.03886
3904.87993	0.03830
3903.59416	0.03816
3902.30839	0.03856
3901.02262	0.03951
3899.73685	0.04069
3898.45108	0.04148
3897.16531	0.04152
3895.87955	0.04102
3894.59378	0.04053
3893.30801	0.04041
3892.02224	0.04057
3890.73647	0.04061
3889.45070	0.04036
3888.16493	0.04001
3886.87916	0.03973
3885.59339	0.03940
3884.30763	0.03892
3883.02186	0.03846
3881.73609	0.03836
3880.45032	0.03862
3879.16455	0.03894
3877.87878	0.03907
3876.59301	0.03905
3875.30724	0.03911
3874.02148	0.03935
3872.73571	0.03975
3871.44994	0.04014
3870.16417	0.04031
3868.87840	0.04030
3867.59263	0.04045
3866.30686	0.04092
3865.02109	0.04139
3863.73532	0.04154
3862.44956	0.04142
3861.16379	0.04120
3859.87802	0.04073
3858.59225	0.03976
3857.30648	0.03848
3856.02071	0.03759
3854.73494	0.03753
3853.44917	0.03794
3852.16341	0.03816
3850.87764	0.03794
3849.59187	0.03749
3848.30610	0.03707
3847.02033	0.03680
3845.73456	0.03670
3844.44879	0.03684
3843.16302	0.03715
3841.87725	0.03738
3840.59149	0.03730
3839.30572	0.03700
3838.01995	0.03675
3836.73418	0.03673
3835.44841	0.03694
3834.16264	0.03728
3832.87687	0.03760
3831.59110	0.03780
3830.30534	0.03797
3829.01957	0.03830
3827.73380	0.03886
3826.44803	0.03938
3825.16226	0.03948
3823.87649	0.03907
3822.59072	0.03841
3821.30495	0.03783
3820.01918	0.03750
3818.73342	0.03750
3817.44765	0.03778
3816.16188	0.03807
3814.87611	0.03815
3813.59034	0.03801
3812.30457	0.03772
3811.01880	0.03735
3809.73303	0.03714
3808.44726	0.03729
3807.16150	0.03750
3805.87573	0.03736
3804.58996	0.03698
3803.30419	0.03692
3802.01842	0.03728
3800.73265	0.03757
3799.44688	0.03740
3798.16111	0.03689
3796.87535	0.03636
3795.58958	0.03602
3794.30381	0.03606
3793.01804	0.03655
3791.73227	0.03727
3790.44650	0.03768
3789.16073	0.03740
3787.87496	0.03665
3786.58919	0.03603
3785.30343	0.03589
3784.01766	0.03595
3782.73189	0.03572
3781.44612	0.03518
3780.16035	0.03467
3778.87458	0.03450
3777.58881	0.03470
3776.30304	0.03525
3775.01728	0.03608
3773.73151	0.03701
3772.44574	0.03767
3771.15997	0.03766
3769.87420	0.03690
3768.58843	0.03579
3767.30266	0.03497
3766.01689	0.03471
3764.73112	0.03467
3763.44536	0.03451
3762.15959	0.03435
3760.87382	0.03457
3759.58805	0.03521
3758.30228	0.03581
3757.01651	0.03585
3755.73074	0.03542
3754.44497	0.03509
3753.15921	0.03533
3751.87344	0.03594
3750.58767	0.03634
3749.30190	0.03609
3748.01613	0.03543
3746.73036	0.03505
3745.44459	0.03527
3744.15882	0.03561
3742.87305	0.03558
3741.58729	0.03525
3740.30152	0.03495
3739.01575	0.03489
3737.72998	0.03514
3736.44421	0.03562
3735.15844	0.03608
3733.87267	0.03632
3732.58690	0.03627
3731.30114	0.03596
3730.01537	0.03560
3728.72960	0.03535
3727.44383	0.03520
3726.15806	0.03508
3724.87229	0.03504
3723.58652	0.03508
3722.30075	0.03508
3721.01498	0.03503
3719.72922	0.03523
3718.44345	0.03586
3717.15768	0.03664
3715.87191	0.03704
3714.58614	0.03684
3713.30037	0.03633
3712.01460	0.03596
3710.72883	0.03598
3709.44307	0.03629
3708.15730	0.03650
3706.87153	0.03625
3705.58576	0.03562
3704.29999	0.03507
3703.01422	0.03497
3701.72845	0.03515
3700.44268	0.03509
3699.15691	0.03461
3697.87115	0.03406
3696.58538	0.03385
3695.29961	0.03391
3694.01384	0.03383
3692.72807	0.03345
3691.44230	0.03313
3690.15653	0.03328
3688.87076	0.03387
3687.58500	0.03448
3686.29923	0.03492
3685.01346	0.03531
3683.72769	0.03567
3682.44192	0.03586
3681.15615	0.03581
3679.87038	0.03565
3678.58461	0.03563
3677.29884	0.03595
3676.01308	0.03644
3674.72731	0.03678
3673.44154	0.03698
3672.15577	0.03730
3670.87000	0.03774
3669.58423	0.03801
3668.29846	0.03786
3667.01269	0.03732
3665.72693	0.03654
3664.44116	0.03582
3663.15539	0.03548
3661.86962	0.03551
3660.58385	0.03556
3659.29808	0.03530
3658.01231	0.03490
3656.72654	0.03470
3655.44077	0.03482
3654.15501	0.03506
3652.86924	0.03533
3651.58347	0.03561
3650.29770	0.03583
3649.01193	0.03582
3647.72616	0.03557
3646.44039	0.03528
3645.15462	0.03527
3643.86886	0.03571
3642.58309	0.03667
3641.29732	0.03807
3640.01155	0.03961
3638.72578	0.04079
3637.44001	0.04120
3636.15424	0.04075
3634.86847	0.03974
3633.58270	0.03858
3632.29694	0.03768
3631.01117	0.03736
3629.72540	0.03750
3628.43963	0.03764
3627.15386	0.03747
3625.86809	0.03718
3624.58232	0.03708
3623.29655	0.03719
3622.01079	0.03728
3620.72502	0.03728
3619.43925	0.03733
3618.15348	0.03761
3616.86771	0.03813
3615.58194	0.03883
3614.29617	0.03951
3613.01040	0.03996
3611.72463	0.04011
3610.43887	0.04006
3609.15310	0.04000
3607.86733	0.04005
3606.58156	0.04026
3605.29579	0.04058
3604.01002	0.04086
3602.72425	0.04093
3601.43848	0.04082
3600.15272	0.04076
3598.86695	0.04094
3597.58118	0.04143
3596.29541	0.04204
3595.00964	0.04247
3593.72387	0.04252
3592.43810	0.04225
3591.15233	0.04194
3589.86656	0.04183
3588.58080	0.04190
3587.29503	0.04191
3586.00926	0.04167
3584.72349	0.04124
3583.43772	0.04097
3582.15195	0.04125
3580.86618	0.04213
3579.58041	0.04326
3578.29464	0.04412
3577.00888	0.04459
3575.72311	0.04499
3574.43734	0.04560
3573.15157	0.04625
3571.86580	0.04661
3570.58003	0.04662
3569.29426	0.04655
3568.00849	0.04664
3566.72273	0.04689
3565.43696	0.04716
3564.15119	0.04728
3562.86542	0.04709
3561.57965	0.04658
3560.29388	0.04594
3559.00811	0.04546
3557.72234	0.04533
3556.43657	0.04557
3555.15081	0.04608
3553.86504	0.04673
3552.57927	0.04732
3551.29350	0.04757
3550.00773	0.04738
3548.72196	0.04701
3547.43619	0.04685
3546.15042	0.04706
3544.86466	0.04743
3543.57889	0.04779
3542.29312	0.04825
3541.00735	0.04897
3539.72158	0.04977
3538.43581	0.05027
3537.15004	0.05033
3535.86427	0.05015
3534.57850	0.04993
3533.29274	0.04963
3532.00697	0.04918
3530.72120	0.04879
3529.43543	0.04881
3528.14966	0.04936
3526.86389	0.05018
3525.57812	0.05089
3524.29235	0.05123
3523.00659	0.05109
3521.72082	0.05059
3520.43505	0.05011
3519.14928	0.05002
3517.86351	0.05040
3516.57774	0.05093
3515.29197	0.05123
3514.00620	0.05129
3512.72043	0.05136
3511.43467	0.05161
3510.14890	0.05197
3508.86313	0.05229
3507.57736	0.05253
3506.29159	0.05281
3505.00582	0.05323
3503.72005	0.05376
3502.43428	0.05419
3501.14852	0.05425
3499.86275	0.05396
3498.57698	0.05363
3497.29121	0.05357
3496.00544	0.05377
3494.71967	0.05397
3493.43390	0.05399
3492.14813	0.05391
3490.86236	0.05384
3489.57660	0.05384
3488.29083	0.05384
3487.00506	0.05380
3485.71929	0.05371
3484.43352	0.05371
3483.14775	0.05394
3481.86198	0.05445
3480.57621	0.05507
3479.29045	0.05555
3478.00468	0.05579
3476.71891	0.05589
3475.43314	0.05602
3474.14737	0.05617
3472.86160	0.05617
3471.57583	0.05588
3470.29006	0.05546
3469.00429	0.05515
3467.71853	0.05510
3466.43276	0.05525
3465.14699	0.05553
3463.86122	0.05591
3462.57545	0.05639
3461.28968	0.05685
3460.00391	0.05714
3458.71814	0.05713
3457.43238	0.05692
3456.14661	0.05681
3454.86084	0.05712
3453.57507	0.05783
3452.28930	0.05854
3451.00353	0.05884
3449.71776	0.05867
3448.43199	0.05833
3447.14622	0.05812
3445.86046	0.05799
3444.57469	0.05767
3443.28892	0.05704
3442.00315	0.05637
3440.71738	0.05611
3439.43161	0.05648
3438.14584	0.05729
3436.86007	0.05811
3435.57431	0.05860
3434.28854	0.05874
3433.00277	0.05872
3431.71700	0.05879
3430.43123	0.05900
3429.14546	0.05925
3427.85969	0.05935
3426.57392	0.05919
3425.28815	0.05881
3424.00239	0.05841
3422.71662	0.05824
3421.43085	0.05839
3420.14508	0.05877
3418.85931	0.05921
3417.57354	0.05955
3416.28777	0.05964
3415.00200	0.05947
3413.71624	0.05929
3412.43047	0.05944
3411.14470	0.06000
3409.85893	0.06070
3408.57316	0.06119
3407.28739	0.06135
3406.00162	0.06131
3404.71585	0.06126
3403.43008	0.06126
3402.14432	0.06126
3400.85855	0.06121
3399.57278	0.06119
3398.28701	0.06128
3397.00124	0.06143
3395.71547	0.06167
3394.42970	0.06198
3393.14393	0.06226
3391.85817	0.06244
3390.57240	0.06253
3389.28663	0.06259
3388.00086	0.06260
3386.71509	0.06250
3385.42932	0.06226
3384.14355	0.06198
3382.85778	0.06179
3381.57201	0.06180
3380.28625	0.06200
3379.00048	0.06236
3377.71471	0.06274
3376.42894	0.06298
3375.14317	0.06302
3373.85740	0.06291
3372.57163	0.06274
3371.28586	0.06260
3370.00010	0.06251
3368.71433	0.06251
3367.42856	0.06262
3366.14279	0.06287
3364.85702	0.06317
3363.57125	0.06338
3362.28548	0.06339
3360.99971	0.06327
3359.71394	0.06321
3358.42818	0.06334
3357.14241	0.06357
3355.85664	0.06371
3354.57087	0.06367
3353.28510	0.06355
3351.99933	0.06348
3350.71356	0.06342
3349.42779	0.06327
3348.14202	0.06298
3346.85626	0.06265
3345.57049	0.06246
3344.28472	0.06251
3342.99895	0.06278
3341.71318	0.06317
3340.42741	0.06347
3339.14164	0.06353
3337.85587	0.06333
3336.57011	0.06307
3335.28434	0.06292
3333.99857	0.06301
3332.71280	0.06334
3331.42703	0.06382
3330.14126	0.06420
3328.85549	0.06420
3327.56972	0.06376
3326.28395	0.06316
3324.99819	0.06283
3323.71242	0.06292
3322.42665	0.06328
3321.14088	0.06365
3319.85511	0.06383
3318.56934	0.06382
3317.28357	0.06370
3315.99780	0.06360
3314.71204	0.06354
3313.42627	0.06349
3312.14050	0.06343
3310.85473	0.06345
3309.56896	0.06359
3308.28319	0.06382
3306.99742	0.06413
3305.71165	0.06456
3304.42588	0.06504
3303.14012	0.06530
3301.85435	0.06506
3300.56858	0.06435
3299.28281	0.06352
3297.99704	0.06295
3296.71127	0.06282
3295.42550	0.06301
3294.13973	0.06336
3292.85397	0.06370
3291.56820	0.06397
3290.28243	0.06409
3288.99666	0.06408
3287.71089	0.06399
3286.42512	0.06389
3285.13935	0.06386
3283.85358	0.06396
3282.56781	0.06419
3281.28205	0.06448
3279.99628	0.06465
3278.71051	0.06460
3277.42474	0.06436
3276.13897	0.06413
3274.85320	0.06403
3273.56743	0.06402
3272.28166	0.06388
3270.99590	0.06349
3269.71013	0.06292
3268.42436	0.06241
3267.13859	0.06210
3265.85282	0.06205
3264.56705	0.06230
3263.28128	0.06277
3261.99551	0.06328
3260.70974	0.06355
3259.42398	0.06349
3258.13821	0.06315
3256.85244	0.06266
3255.56667	0.06215
3254.28090	0.06173
3252.99513	0.06151
3251.70936	0.06147
3250.42359	0.06149
3249.13783	0.06141
3247.85206	0.06118
3246.56629	0.06090
3245.28052	0.06069
3243.99475	0.06066
3242.70898	0.06079
3241.42321	0.06099
3240.13744	0.06113
3238.85167	0.06120
3237.56591	0.06128
3236.28014	0.06141
3234.99437	0.06142
3233.70860	0.06112
3232.42283	0.06057
3231.13706	0.06007
3229.85129	0.05985
3228.56552	0.05993
3227.27976	0.06014
3225.99399	0.06045
3224.70822	0.06084
3223.42245	0.06121
3222.13668	0.06129
3220.85091	0.06100
3219.56514	0.06059
3218.27937	0.06040
3216.99360	0.06051
3215.70784	0.06068
3214.42207	0.06068
3213.13630	0.06047
3211.85053	0.06017
3210.56476	0.05990
3209.27899	0.05971
3207.99322	0.05961
3206.70745	0.05961
3205.42169	0.05964
3204.13592	0.05959
3202.85015	0.05934
3201.56438	0.05894
3200.27861	0.05863
3198.99284	0.05863
3197.70707	0.05895
3196.42130	0.05930
3195.13553	0.05935
3193.84977	0.05903
3192.56400	0.05865
3191.27823	0.05852
3189.99246	0.05866
3188.70669	0.05882
3187.42092	0.05885
3186.13515	0.05879
3184.84938	0.05873
3183.56362	0.05859
3182.27785	0.05832
3180.99208	0.05792
3179.70631	0.05750
3178.42054	0.05717
3177.13477	0.05708
3175.84900	0.05733
3174.56323	0.05783
3173.27746	0.05832
3171.99170	0.05852
3170.70593	0.05840
3169.42016	0.05812
3168.13439	0.05790
3166.84862	0.05778
3165.56285	0.05758
3164.27708	0.05710
3162.99131	0.05635
3161.70555	0.05561
3160.41978	0.05519
3159.13401	0.05521
3157.84824	0.05545
3156.56247	0.05566
3155.27670	0.05577
3153.99093	0.05592
3152.70516	0.05622
3151.41939	0.05656
3150.13363	0.05679
3148.84786	0.05688
3147.56209	0.05693
3146.27632	0.05690
3144.99055	0.05672
3143.70478	0.05645
3142.41901	0.05622
3141.13324	0.05614
3139.84748	0.05613
3138.56171	0.05607
3137.27594	0.05596
3135.99017	0.05584
3134.70440	0.05573
3133.41863	0.05560
3132.13286	0.05545
3130.84709	0.05530
3129.56132	0.05523
3128.27556	0.05516
3126.98979	0.05498
3125.70402	0.05471
3124.41825	0.05449
3123.13248	0.05443
3121.84671	0.05444
3120.56094	0.05440
3119.27517	0.05432
3117.98940	0.05434
3116.70364	0.05445
3115.41787	0.05451
3114.13210	0.05434
3112.84633	0.05391
3111.56056	0.05339
3110.27479	0.05302
3108.98902	0.05294
3107.70325	0.05308
3106.41749	0.05321
3105.13172	0.05327
3103.84595	0.05335
3102.56018	0.05356
3101.27441	0.05385
3099.98864	0.05400
3098.70287	0.05387
3097.41710	0.05354
3096.13133	0.05324
3094.84557	0.05318
3093.55980	0.05341
3092.27403	0.05381
3090.98826	0.05417
3089.70249	0.05432
3088.41672	0.05425
3087.13095	0.05412
3085.84518	0.05400
3084.55942	0.05382
3083.27365	0.05350
3081.98788	0.05315
3080.70211	0.05303
3079.41634	0.05325
3078.13057	0.05361
3076.84480	0.05376
3075.55903	0.05349
3074.27326	0.05291
3072.98750	0.05234
3071.70173	0.05208
3070.41596	0.05226
3069.13019	0.05285
3067.84442	0.05359
3066.55865	0.05409
3065.27288	0.05401
3063.98711	0.05343
3062.70135	0.05275
3061.41558	0.05235
3060.12981	0.05224
3058.84404	0.05218
3057.55827	0.05203
3056.27250	0.05187
3054.98673	0.05188
3053.70096	0.05206
3052.41519	0.05221
3051.12943	0.05217
3049.84366	0.05196
3048.55789	0.05167
3047.27212	0.05142
3045.98635	0.05123
3044.70058	0.05110
3043.41481	0.05100
3042.12904	0.05094
3040.84328	0.05092
3039.55751	0.05093
3038.27174	0.05099
3036.98597	0.05115
3035.70020	0.05135
3034.41443	0.05146
3033.12866	0.05137
3031.84289	0.05109
3030.55712	0.05075
3029.27136	0.05048
3027.98559	0.05032
3026.69982	0.05021
3025.41405	0.05006
3024.12828	0.04979
3022.84251	0.04938
3021.55674	0.04892
3020.27097	0.04858
3018.98521	0.04854
3017.69944	0.04881
3016.41367	0.04921
3015.12790	0.04944
3013.84213	0.04930
3012.55636	0.04882
3011.27059	0.04827
3009.98482	0.04797
3008.69905	0.04802
3007.41329	0.04828
3006.12752	0.04852
3004.84175	0.04867
3003.55598	0.04875
3002.27021	0.04873
3000.98444	0.04850
2999.69867	0.04812
2998.41290	0.04766
2997.12714	0.04744
2995.84137	0.04753
2994.55560	0.04778
2993.26983	0.04798
2991.98406	0.04807
2990.69829	0.04812
2989.41252	0.04820
2988.12675	0.04830
2986.84098	0.04846
2985.55522	0.04873
2984.26945	0.04905
2982.98368	0.04931
2981.69791	0.04949
2980.41214	0.04973
2979.12637	0.05010
2977.84060	0.05046
2976.55483	0.05066
2975.26907	0.05074
2973.98330	0.05096
2972.69753	0.05152
2971.41176	0.05237
2970.12599	0.05324
2968.84022	0.05395
2967.55445	0.05458
2966.26868	0.05525
2964.98291	0.05594
2963.69715	0.05652
2962.41138	0.05700
2961.12561	0.05752
2959.83984	0.05815
2958.55407	0.05874
2957.26830	0.05913
2955.98253	0.05942
2954.69676	0.05983
2953.41100	0.06035
2952.12523	0.06080
2950.83946	0.06103
2949.55369	0.06109
2948.26792	0.06111
2946.98215	0.06119
2945.69638	0.06133
2944.41061	0.06139
2943.12484	0.06124
2941.83908	0.06090
2940.55331	0.06060
2939.26754	0.06057
2937.98177	0.06088
2936.69600	0.06139
2935.41023	0.06191
2934.12446	0.06231
2932.83869	0.06256
2931.55293	0.06275
2930.26716	0.06305
2928.98139	0.06354
2927.69562	0.06417
2926.40985	0.06478
2925.12408	0.06520
2923.83831	0.06543
2922.55254	0.06565
2921.26677	0.06588
2919.98101	0.06593
2918.69524	0.06556
2917.40947	0.06482
2916.12370	0.06401
2914.83793	0.06339
2913.55216	0.06300
2912.26639	0.06269
2910.98062	0.06230
2909.69486	0.06175
2908.40909	0.06112
2907.12332	0.06058
2905.83755	0.06017
2904.55178	0.05988
2903.26601	0.05961
2901.98024	0.05932
2900.69447	0.05896
2899.40870	0.05852
2898.12294	0.05801
2896.83717	0.05747
2895.55140	0.05692
2894.26563	0.05643
2892.97986	0.05601
2891.69409	0.05564
2890.40832	0.05529
2889.12255	0.05496
2887.83678	0.05464
2886.55102	0.05427
2885.26525	0.05386
2883.97948	0.05345
2882.69371	0.05306
2881.40794	0.05279
2880.12217	0.05275
2878.83640	0.05301
2877.55063	0.05349
2876.26487	0.05399
2874.97910	0.05439
2873.69333	0.05469
2872.40756	0.05493
2871.12179	0.05517
2869.83602	0.05541
2868.55025	0.05559
2867.26448	0.05563
2865.97871	0.05553
2864.69295	0.05539
2863.40718	0.05524
2862.12141	0.05499
2860.83564	0.05461
2859.54987	0.05423
2858.26410	0.05403
2856.97833	0.05407
2855.69256	0.05427
2854.40680	0.05452
2853.12103	0.05474
2851.83526	0.05491
2850.54949	0.05498
2849.26372	0.05489
2847.97795	0.05459
2846.69218	0.05407
2845.40641	0.05343
2844.12064	0.05275
2842.83488	0.05205
2841.54911	0.05126
2840.26334	0.05043
2838.97757	0.04967
2837.69180	0.04912
2836.40603	0.04880
2835.12026	0.04858
2833.83449	0.04826
2832.54873	0.04770
2831.26296	0.04694
2829.97719	0.04619
2828.69142	0.04564
2827.40565	0.04537
2826.11988	0.04532
2824.83411	0.04537
2823.54834	0.04537
2822.26257	0.04527
2820.97681	0.04508
2819.69104	0.04483
2818.40527	0.04456
2817.11950	0.04431
2815.83373	0.04412
2814.54796	0.04401
2813.26219	0.04392
2811.97642	0.04377
2810.69066	0.04352
2809.40489	0.04323
2808.11912	0.04299
2806.83335	0.04286
2805.54758	0.04279
2804.26181	0.04274
2802.97604	0.04276
2801.69027	0.04289
2800.40450	0.04307
2799.11874	0.04311
2797.83297	0.04289
2796.54720	0.04252
2795.26143	0.04222
2793.97566	0.04207
2792.68989	0.04202
2791.40412	0.04199
2790.11835	0.04191
2788.83259	0.04173
2787.54682	0.04149
2786.26105	0.04136
2784.97528	0.04141
2783.68951	0.04154
2782.40374	0.04150
2781.11797	0.04121
2779.83220	0.04081
2778.54643	0.04055
2777.26067	0.04051
2775.97490	0.04061
2774.68913	0.04078
2773.40336	0.04095
2772.11759	0.04107
2770.83182	0.04110
2769.54605	0.04102
2768.26028	0.04084
2766.97452	0.04062
2765.68875	0.04039
2764.40298	0.04021
2763.11721	0.04017
2761.83144	0.04024
2760.54567	0.04029
2759.25990	0.04019
2757.97413	0.03993
2756.68836	0.03962
2755.40260	0.03935
2754.11683	0.03916
2752.83106	0.03906
2751.54529	0.03909
2750.25952	0.03923
2748.97375	0.03943
2747.68798	0.03961
2746.40221	0.03969
2745.11645	0.03968
2743.83068	0.03961
2742.54491	0.03957
2741.25914	0.03963
2739.97337	0.03980
2738.68760	0.03997
2737.40183	0.04000
2736.11606	0.03983
2734.83029	0.03959
2733.54453	0.03945
2732.25876	0.03949
2730.97299	0.03961
2729.68722	0.03960
2728.40145	0.03934
2727.11568	0.03885
2725.82991	0.03828
2724.54414	0.03783
2723.25838	0.03767
2721.97261	0.03776
2720.68684	0.03795
2719.40107	0.03809
2718.11530	0.03818
2716.82953	0.03830
2715.54376	0.03845
2714.25799	0.03857
2712.97222	0.03862
2711.68646	0.03858
2710.40069	0.03844
2709.11492	0.03821
2707.82915	0.03794
2706.54338	0.03767
2705.25761	0.03747
2703.97184	0.03739
2702.68607	0.03742
2701.40031	0.03752
2700.11454	0.03767
2698.82877	0.03786
2697.54300	0.03802
2696.25723	0.03802
2694.97146	0.03780
2693.68569	0.03745
2692.39992	0.03713
2691.11415	0.03695
2689.82839	0.03690
2688.54262	0.03691
2687.25685	0.03691
2685.97108	0.03693
2684.68531	0.03701
2683.39954	0.03708
2682.11377	0.03703
2680.82800	0.03688
2679.54224	0.03672
2678.25647	0.03663
2676.97070	0.03664
2675.68493	0.03669
2674.39916	0.03672
2673.11339	0.03662
2671.82762	0.03638
2670.54185	0.03613
2669.25608	0.03599
2667.97032	0.03606
2666.68455	0.03626
2665.39878	0.03644
2664.11301	0.03650
2662.82724	0.03642
2661.54147	0.03626
2660.25570	0.03604
2658.96993	0.03575
2657.68417	0.03546
2656.39840	0.03530
2655.11263	0.03537
2653.82686	0.03559
2652.54109	0.03574
2651.25532	0.03569
2649.96955	0.03550
2648.68378	0.03528
2647.39801	0.03507
2646.11225	0.03482
2644.82648	0.03456
2643.54071	0.03438
2642.25494	0.03435
2640.96917	0.03440
2639.68340	0.03440
2638.39763	0.03423
2637.11186	0.03396
2635.82609	0.03374
2634.54033	0.03365
2633.25456	0.03361
2631.96879	0.03345
2630.68302	0.03306
2629.39725	0.03258
2628.11148	0.03228
2626.82571	0.03235
2625.53994	0.03274
2624.25418	0.03316
2622.96841	0.03332
2621.68264	0.03319
2620.39687	0.03291
2619.11110	0.03264
2617.82533	0.03243
2616.53956	0.03220
2615.25379	0.03190
2613.96802	0.03153
2612.68226	0.03114
2611.39649	0.03082
2610.11072	0.03073
2608.82495	0.03093
2607.53918	0.03134
2606.25341	0.03170
2604.96764	0.03187
2603.68187	0.03184
2602.39611	0.03163
2601.11034	0.03118
2599.82457	0.03053
2598.53880	0.02986
2597.25303	0.02944
2595.96726	0.02939
2594.68149	0.02957
2593.39572	0.02979
2592.10995	0.02989
2590.82419	0.02988
2589.53842	0.02986
2588.25265	0.02997
2586.96688	0.03022
2585.68111	0.03051
2584.39534	0.03072
2583.10957	0.03080
2581.82380	0.03071
2580.53804	0.03050
2579.25227	0.03033
2577.96650	0.03040
2576.68073	0.03067
2575.39496	0.03085
2574.10919	0.03064
2572.82342	0.03004
2571.53765	0.02921
2570.25188	0.02840
2568.96612	0.02783
2567.68035	0.02763
2566.39458	0.02778
2565.10881	0.02817
2563.82304	0.02861
2562.53727	0.02899
2561.25150	0.02924
2559.96573	0.02933
2558.67997	0.02933
2557.39420	0.02933
2556.10843	0.02932
2554.82266	0.02920
2553.53689	0.02897
2552.25112	0.02880
2550.96535	0.02885
2549.67958	0.02905
2548.39381	0.02914
2547.10805	0.02896
2545.82228	0.02862
2544.53651	0.02839
2543.25074	0.02843
2541.96497	0.02861
2540.67920	0.02874
2539.39343	0.02869
2538.10766	0.02851
2536.82190	0.02832
2535.53613	0.02820
2534.25036	0.02807
2532.96459	0.02781
2531.67882	0.02739
2530.39305	0.02695
2529.10728	0.02664
2527.82151	0.02653
2526.53574	0.02657
2525.24998	0.02669
2523.96421	0.02688
2522.67844	0.02707
2521.39267	0.02718
2520.10690	0.02713
2518.82113	0.02696
2517.53536	0.02678
2516.24959	0.02666
2514.96383	0.02663
2513.67806	0.02668
2512.39229	0.02681
2511.10652	0.02691
2509.82075	0.02690
2508.53498	0.02682
2507.24921	0.02681
2505.96344	0.02696
2504.67767	0.02726
2503.39191	0.02764
2502.10614	0.02804
2500.82037	0.02830
2499.53460	0.02823
2498.24883	0.02786
2496.96306	0.02744
2495.67729	0.02726
2494.39152	0.02735
2493.10576	0.02741
2491.81999	0.02716
2490.53422	0.02662
2489.24845	0.02615
2487.96268	0.02612
2486.67691	0.02654
2485.39114	0.02706
2484.10537	0.02729
2482.81960	0.02714
2481.53384	0.02681
2480.24807	0.02651
2478.96230	0.02631
2477.67653	0.02615
2476.39076	0.02598
2475.10499	0.02585
2473.81922	0.02585
2472.53345	0.02595
2471.24769	0.02598
2469.96192	0.02588
2468.67615	0.02580
2467.39038	0.02586
2466.10461	0.02605
2464.81884	0.02631
2463.53307	0.02665
2462.24730	0.02715
2460.96153	0.02775
2459.67577	0.02818
2458.39000	0.02819
2457.10423	0.02770
2455.81846	0.02695
2454.53269	0.02627
2453.24692	0.02587
2451.96115	0.02573
2450.67538	0.02573
2449.38962	0.02574
2448.10385	0.02569
2446.81808	0.02565
2445.53231	0.02572
2444.24654	0.02587
2442.96077	0.02597
2441.67500	0.02597
2440.38923	0.02588
2439.10346	0.02571
2437.81770	0.02547
2436.53193	0.02530
2435.24616	0.02539
2433.96039	0.02572
2432.67462	0.02607
2431.38885	0.02617
2430.10308	0.02601
2428.81731	0.02575
2427.53155	0.02552
2426.24578	0.02533
2424.96001	0.02513
2423.67424	0.02490
2422.38847	0.02465
2421.10270	0.02447
2419.81693	0.02445
2418.53116	0.02467
2417.24539	0.02511
2415.95963	0.02554
2414.67386	0.02570
2413.38809	0.02556
2412.10232	0.02533
2410.81655	0.02522
2409.53078	0.02526
2408.24501	0.02531
2406.95924	0.02521
2405.67347	0.02497
2404.38771	0.02468
2403.10194	0.02444
2401.81617	0.02428
2400.53040	0.02426
2399.24463	0.02420
2397.95886	0.02452
2396.67309	0.02486
2395.38732	0.02507
2394.10156	0.02525
2392.81579	0.02547
2391.53002	0.02568
2390.24425	0.02577
2388.95848	0.02568
2387.67271	0.02550
2386.38694	0.02535
2385.10117	0.02530
2383.81540	0.02535
2382.52964	0.02544
2381.24387	0.02550
2379.95810	0.02552
2378.67233	0.02559
2377.38656	0.02575
2376.10079	0.02594
2374.81502	0.02606
2373.52925	0.02607
2372.24349	0.02600
2370.95772	0.02594
2369.67195	0.02586
2368.38618	0.02578
2367.10041	0.02577
2365.81464	0.02591
2364.52887	0.02610
2363.24310	0.02625
2361.95733	0.02627
2360.67157	0.02618
2359.38580	0.02598
2358.10003	0.02582
2356.81426	0.02577
2355.52849	0.02580
2354.24272	0.02585
2352.95695	0.02587
2351.67118	0.02593
2350.38542	0.02608
2349.09965	0.02620
2347.81388	0.02616
2346.52811	0.02609
2345.24234	0.02604
2343.95657	0.02600
2342.67080	0.02593
2341.38503	0.02598
2340.09926	0.02616
2338.81350	0.02617
2337.52773	0.02597
2336.24196	0.02587
2334.95619	0.02588
2333.67042	0.02576
2332.38465	0.02551
2331.09888	0.02545
2329.81311	0.02526
2328.52735	0.02467
2327.24158	0.02443
2325.95581	0.02460
2324.67004	0.02475
2323.38427	0.02512
2322.09850	0.02556
2320.81273	0.02556
2319.52696	0.02554
2318.24119	0.02553
2316.95543	0.02534
2315.66966	0.02529
2314.38389	0.02533
2313.09812	0.02529
2311.81235	0.02527
2310.52658	0.02512
2309.24081	0.02488
2307.95504	0.02459
2306.66928	0.02412
2305.38351	0.02356
2304.09774	0.02301
2302.81197	0.02263
2301.52620	0.02253
2300.24043	0.02266
2298.95466	0.02295
2297.66889	0.02321
2296.38312	0.02320
2295.09736	0.02283
2293.81159	0.02220
2292.52582	0.02161
2291.24005	0.02134
2289.95428	0.02149
2288.66851	0.02195
2287.38274	0.02245
2286.09697	0.02269
2284.81121	0.02251
2283.52544	0.02202
2282.23967	0.02154
2280.95390	0.02126
2279.66813	0.02115
2278.38236	0.02106
2277.09659	0.02093
2275.81082	0.02084
2274.52505	0.02086
2273.23929	0.02090
2271.95352	0.02080
2270.66775	0.02048
2269.38198	0.02002
2268.09621	0.01959
2266.81044	0.01941
2265.52467	0.01957
2264.23890	0.01996
2262.95314	0.02024
2261.66737	0.02016
2260.38160	0.01974
2259.09583	0.01919
2257.81006	0.01872
2256.52429	0.01841
2255.23852	0.01832
2253.95275	0.01845
2252.66698	0.01872
2251.38122	0.01892
2250.09545	0.01893
2248.80968	0.01865
2247.52391	0.01811
2246.23814	0.01797
2244.95237	0.01818
2243.66660	0.01825
2242.38083	0.01777
2241.09507	0.01683
2239.80930	0.01601
2238.52353	0.01581
2237.23776	0.01624
2235.95199	0.01686
2234.66622	0.01724
2233.38045	0.01724
2232.09468	0.01693
2230.80891	0.01646
2229.52315	0.01606
2228.23738	0.01585
2226.95161	0.01574
2225.66584	0.01567
2224.38007	0.01586
2223.09430	0.01649
2221.80853	0.01726
2220.52276	0.01773
2219.23700	0.01785
2217.95123	0.01782
2216.66546	0.01763
2215.37969	0.01703
2214.09392	0.01602
2212.80815	0.01499
2211.52238	0.01435
2210.23661	0.01410
2208.95084	0.01401
2207.66508	0.01397
2206.37931	0.01409
2205.09354	0.01438
2203.80777	0.01466
2202.52200	0.01478
2201.23623	0.01485
2199.95046	0.01503
2198.66469	0.01530
2197.37893	0.01557
2196.09316	0.01588
2194.80739	0.01620
2193.52162	0.01630
2192.23585	0.01592
2190.95008	0.01517
2189.66431	0.01453
2188.37854	0.01443
2187.09277	0.01492
2185.80701	0.01563
2184.52124	0.01584
2183.23547	0.01491
2181.94970	0.01301
2180.66393	0.01125
2179.37816	0.01072
2178.09239	0.01146
2176.80662	0.01241
2175.52085	0.01251
2174.23509	0.01163
2172.94932	0.01041
2171.66355	0.00934
2170.37778	0.00854
2169.09201	0.00804
2167.80624	0.00815
2166.52047	0.00919
2165.23470	0.01098
2163.94894	0.01265
2162.66317	0.01313
2161.37740	0.01192
2160.09163	0.00961
2158.80586	0.00767
2157.52009	0.00720
2156.23432	0.00813
2154.94855	0.00966
2153.66278	0.01112
2152.37702	0.01203
2151.09125	0.01212
2149.80548	0.01157
2148.51971	0.01105
2147.23394	0.01099
2145.94817	0.01114
2144.66240	0.01108
2143.37663	0.01086
2142.09087	0.01079
2140.80510	0.01104
2139.51933	0.01153
2138.23356	0.01219
2136.94779	0.01289
2135.66202	0.01349
2134.37625	0.01383
2133.09048	0.01384
2131.80471	0.01349
2130.51895	0.01295
2129.23318	0.01256
2127.94741	0.01269
2126.66164	0.01345
2125.37587	0.01454
2124.09010	0.01547
2122.80433	0.01590
2121.51856	0.01580
2120.23280	0.01536
2118.94703	0.01482
2117.66126	0.01444
2116.37549	0.01436
2115.08972	0.01451
2113.80395	0.01465
2112.51818	0.01470
2111.23241	0.01470
2109.94664	0.01456
2108.66088	0.01410
2107.37511	0.01337
2106.08934	0.01282
2104.80357	0.01290
2103.51780	0.01353
2102.23203	0.01420
2100.94626	0.01437
2099.66049	0.01334
2098.37473	0.01235
2097.08896	0.01186
2095.80319	0.01185
2094.51742	0.01215
2093.23165	0.01255
2091.94588	0.01293
2090.66011	0.01326
2089.37434	0.01358
2088.08857	0.01383
2086.80281	0.01375
2085.51704	0.01320
2084.23127	0.01237
2082.94550	0.01174
2081.65973	0.01165
2080.37396	0.01202
2079.08819	0.01253
2077.80242	0.01287
2076.51666	0.01286
2075.23089	0.01253
2073.94512	0.01209
2072.65935	0.01175
2071.37358	0.01153
2070.08781	0.01125
2068.80204	0.01078
2067.51627	0.01015
2066.23050	0.00953
2064.94474	0.00912
2063.65897	0.00910
2062.37320	0.00961
2061.08743	0.01061
2059.80166	0.01169
2058.51589	0.01219
2057.23012	0.01174
2055.94435	0.01068
2054.65859	0.00963
2053.37282	0.00879
2052.08705	0.00787
2050.80128	0.00668
2049.51551	0.00556
2048.22974	0.00485
2046.94397	0.00437
2045.65820	0.00368
2044.37243	0.00270
2043.08667	0.00182
2041.80090	0.00143
2040.51513	0.00153
2039.22936	0.00192
2037.94359	0.00252
2036.65782	0.00339
2035.37205	0.00442
2034.08628	0.00522
2032.80052	0.00545
2031.51475	0.00519
2030.22898	0.00498
2028.94321	0.00519
2027.65744	0.00558
2026.37167	0.00555
2025.08590	0.00493
2023.80013	0.00426
2022.51436	0.00412
2021.22860	0.00436
2019.94283	0.00437
2018.65706	0.00406
2017.37129	0.00406
2016.08552	0.00485
2014.79975	0.00602
2013.51398	0.00669
2012.22821	0.00633
2010.94245	0.00519
2009.65668	0.00402
2008.37091	0.00368
2007.08514	0.00451
2005.79937	0.00607
2004.51360	0.00754
2003.22783	0.00848
2001.94206	0.00898
2000.65629	0.00932
1999.37053	0.00966
1998.08476	0.01011
1996.79899	0.01067
1995.51322	0.01113
1994.22745	0.01121
1992.94168	0.01102
1991.65591	0.01106
1990.37014	0.01154
1989.08438	0.01203
1987.79861	0.01184
1986.51284	0.01082
1985.22707	0.00960
1983.94130	0.00887
1982.65553	0.00865
1981.36976	0.00837
1980.08399	0.00765
1978.79822	0.00679
1977.51246	0.00644
1976.22669	0.00686
1974.94092	0.00772
1973.65515	0.00841
1972.36938	0.00849
1971.08361	0.00802
1969.79784	0.00758
1968.51207	0.00770
1967.22631	0.00825
1965.94054	0.00859
1964.65477	0.00836
1963.36900	0.00794
1962.08323	0.00804
1960.79746	0.00893
1959.51169	0.01018
1958.22592	0.01113
1956.94015	0.01140
1955.65439	0.01105
1954.36862	0.01038
1953.08285	0.00974
1951.79708	0.00942
1950.51131	0.00956
1949.22554	0.01006
1947.93977	0.01063
1946.65400	0.01098
1945.36823	0.01107
1944.08247	0.01107
1942.79670	0.01124
1941.51093	0.01172
1940.22516	0.01236
1938.93939	0.01286
1937.65362	0.01299
1936.36785	0.01277
1935.08208	0.01244
1933.79632	0.01225
1932.51055	0.01224
1931.22478	0.01229
1929.93901	0.01224
1928.65324	0.01203
1927.36747	0.01180
1926.08170	0.01175
1924.79593	0.01196
1923.51016	0.01233
1922.22440	0.01266
1920.93863	0.01286
1919.65286	0.01299
1918.36709	0.01305
1917.08132	0.01301
1915.79555	0.01289
1914.50978	0.01281
1913.22401	0.01290
1911.93825	0.01318
1910.65248	0.01350
1909.36671	0.01369
1908.08094	0.01365
1906.79517	0.01337
1905.50940	0.01302
1904.22363	0.01281
1902.93786	0.01286
1901.65209	0.01303
1900.36633	0.01309
1899.08056	0.01291
1897.79479	0.01264
1896.50902	0.01250
1895.22325	0.01259
1893.93748	0.01281
1892.65171	0.01309
1891.36594	0.01338
1890.08018	0.01364
1888.79441	0.01374
1887.50864	0.01361
1886.22287	0.01329
1884.93710	0.01289
1883.65133	0.01250
1882.36556	0.01226
1881.07979	0.01229
1879.79402	0.01264
1878.50826	0.01318
1877.22249	0.01366
1875.93672	0.01392
1874.65095	0.01390
1873.36518	0.01371
1872.07941	0.01348
1870.79364	0.01335
1869.50787	0.01335
1868.22211	0.01344
1866.93634	0.01358
1865.65057	0.01366
1864.36480	0.01362
1863.07903	0.01344
1861.79326	0.01324
1860.50749	0.01317
1859.22172	0.01329
1857.93595	0.01351
1856.65019	0.01371
1855.36442	0.01382
1854.07865	0.01381
1852.79288	0.01371
1851.50711	0.01355
1850.22134	0.01336
1848.93557	0.01318
1847.64980	0.01308
1846.36404	0.01314
1845.07827	0.01333
1843.79250	0.01352
1842.50673	0.01364
1841.22096	0.01371
1839.93519	0.01381
1838.64942	0.01392
1837.36365	0.01400
1836.07788	0.01402
1834.79212	0.01402
1833.50635	0.01399
1832.22058	0.01392
1830.93481	0.01381
1829.64904	0.01374
1828.36327	0.01380
1827.07750	0.01401
1825.79173	0.01422
1824.50597	0.01425
1823.22020	0.01403
1821.93443	0.01368
1820.64866	0.01340
1819.36289	0.01332
1818.07712	0.01343
1816.79135	0.01366
1815.50558	0.01394
1814.21981	0.01422
1812.93405	0.01441
1811.64828	0.01451
1810.36251	0.01454
1809.07674	0.01459
1807.79097	0.01467
1806.50520	0.01474
1805.21943	0.01472
1803.93366	0.01463
1802.64790	0.01454
1801.36213	0.01451
1800.07636	0.01456
1798.79059	0.01462
1797.50482	0.01463
1796.21905	0.01455
1794.93328	0.01441
1793.64751	0.01425
1792.36174	0.01412
1791.07598	0.01405
1789.79021	0.01407
1788.50444	0.01417
1787.21867	0.01426
1785.93290	0.01430
1784.64713	0.01428
1783.36136	0.01428
1782.07559	0.01434
1780.78983	0.01442
1779.50406	0.01444
1778.21829	0.01439
1776.93252	0.01431
1775.64675	0.01426
1774.36098	0.01431
1773.07521	0.01443
1771.78944	0.01453
1770.50367	0.01460
1769.21791	0.01467
1767.93214	0.01473
1766.64637	0.01474
1765.36060	0.01473
1764.07483	0.01477
1762.78906	0.01485
1761.50329	0.01493
1760.21752	0.01495
1758.93176	0.01493
1757.64599	0.01491
1756.36022	0.01489
1755.07445	0.01487
1753.78868	0.01486
1752.50291	0.01487
1751.21714	0.01490
1749.93137	0.01496
1748.64560	0.01507
1747.35984	0.01522
1746.07407	0.01540
1744.78830	0.01558
1743.50253	0.01574
1742.21676	0.01587
1740.93099	0.01597
1739.64522	0.01602
1738.35945	0.01598
1737.07369	0.01590
1735.78792	0.01590
1734.50215	0.01603
1733.21638	0.01624
1731.93061	0.01648
1730.64484	0.01674
1729.35907	0.01695
1728.07330	0.01705
1726.78753	0.01704
1725.50177	0.01699
1724.21600	0.01696
1722.93023	0.01697
1721.64446	0.01703
1720.35869	0.01719
1719.07292	0.01745
1717.78715	0.01774
1716.50138	0.01802
1715.21561	0.01831
1713.92985	0.01866
1712.64408	0.01906
1711.35831	0.01943
1710.07254	0.01974
1708.78677	0.02004
1707.50100	0.02040
1706.21523	0.02079
1704.92946	0.02113
1703.64370	0.02141
1702.35793	0.02178
1701.07216	0.02234
1699.78639	0.02297
1698.50062	0.02366
1697.21485	0.02446
1695.92908	0.02533
1694.64331	0.02610
1693.35754	0.02674
1692.07178	0.02733
1690.78601	0.02788
1689.50024	0.02835
1688.21447	0.02877
1686.92870	0.02927
1685.64293	0.02993
1684.35716	0.03068
1683.07139	0.03140
1681.78563	0.03207
1680.49986	0.03271
1679.21409	0.03329
1677.92832	0.03389
1676.64255	0.03456
1675.35678	0.03526
1674.07101	0.03588
1672.78524	0.03640
1671.49947	0.03694
1670.21371	0.03756
1668.92794	0.03825
1667.64217	0.03896
1666.35640	0.03966
1665.07063	0.04038
1663.78486	0.04107
1662.49909	0.04168
1661.21332	0.04218
1659.92756	0.04257
1658.64179	0.04286
1657.35602	0.04304
1656.07025	0.04322
1654.78448	0.04354
1653.49871	0.04398
1652.21294	0.04437
1650.92717	0.04463
1649.64140	0.04484
1648.35564	0.04511
1647.06987	0.04541
1645.78410	0.04564
1644.49833	0.04571
1643.21256	0.04564
1641.92679	0.04546
1640.64102	0.04522
1639.35525	0.04496
1638.06949	0.04471
1636.78372	0.04446
1635.49795	0.04413
1634.21218	0.04370
1632.92641	0.04323
1631.64064	0.04279
1630.35487	0.04235
1629.06910	0.04183
1627.78333	0.04122
1626.49757	0.04058
1625.21180	0.03997
1623.92603	0.03940
1622.64026	0.03879
1621.35449	0.03812
1620.06872	0.03745
1618.78295	0.03688
1617.49718	0.03639
1616.21142	0.03588
1614.92565	0.03531
1613.63988	0.03478
1612.35411	0.03436
1611.06834	0.03402
1609.78257	0.03371
1608.49680	0.03341
1607.21103	0.03312
1605.92526	0.03285
1604.63950	0.03264
1603.35373	0.03247
1602.06796	0.03235
1600.78219	0.03225
1599.49642	0.03214
1598.21065	0.03203
1596.92488	0.03195
1595.63911	0.03192
1594.35335	0.03197
1593.06758	0.03210
1591.78181	0.03227
1590.49604	0.03247
1589.21027	0.03269
1587.92450	0.03294
1586.63873	0.03324
1585.35296	0.03355
1584.06719	0.03383
1582.78143	0.03407
1581.49566	0.03427
1580.20989	0.03445
1578.92412	0.03469
1577.63835	0.03504
1576.35258	0.03547
1575.06681	0.03588
1573.78104	0.03629
1572.49528	0.03677
1571.20951	0.03730
1569.92374	0.03782
1568.63797	0.03827
1567.35220	0.03868
1566.06643	0.03908
1564.78066	0.03941
1563.49489	0.03965
1562.20912	0.03986
1560.92336	0.04017
1559.63759	0.04060
1558.35182	0.04105
1557.06605	0.04148
1555.78028	0.04194
1554.49451	0.04242
1553.20874	0.04287
1551.92297	0.04325
1550.63721	0.04357
1549.35144	0.04375
1548.06567	0.04376
1546.77990	0.04367
1545.49413	0.04354
1544.20836	0.04339
1542.92259	0.04326
1541.63682	0.04324
1540.35105	0.04335
1539.06529	0.04348
1537.77952	0.04357
1536.49375	0.04362
1535.20798	0.04369
1533.92221	0.04380
1532.63644	0.04391
1531.35067	0.04404
1530.06490	0.04423
1528.77914	0.04450
1527.49337	0.04481
1526.20760	0.04515
1524.92183	0.04550
1523.63606	0.04593
1522.35029	0.04641
1521.06452	0.04688
1519.77875	0.04729
1518.49298	0.04775
1517.20722	0.04834
1515.92145	0.04901
1514.63568	0.04973
1513.34991	0.05046
1512.06414	0.05117
1510.77837	0.05184
1509.49260	0.05255
1508.20683	0.05335
1506.92107	0.05422
1505.63530	0.05502
1504.34953	0.05574
1503.06376	0.05642
1501.77799	0.05710
1500.49222	0.05772
1499.20645	0.05826
1497.92068	0.05875
1496.63491	0.05920
1495.34915	0.05961
1494.06338	0.06002
1492.77761	0.06048
1491.49184	0.06100
1490.20607	0.06156
1488.92030	0.06213
1487.63453	0.06274
1486.34876	0.06345
1485.06299	0.06428
1483.77723	0.06523
1482.49146	0.06624
1481.20569	0.06725
1479.91992	0.06823
1478.63415	0.06917
1477.34838	0.07008
1476.06261	0.07095
1474.77684	0.07182
1473.49108	0.07271
1472.20531	0.07357
1470.91954	0.07430
1469.63377	0.07487
1468.34800	0.07529
1467.06223	0.07565
1465.77646	0.07598
1464.49069	0.07628
1463.20492	0.07655
1461.91916	0.07680
1460.63339	0.07706
1459.34762	0.07742
1458.06185	0.07789
1456.77608	0.07843
1455.49031	0.07897
1454.20454	0.07950
1452.91877	0.08001
1451.63301	0.08043
1450.34724	0.08071
1449.06147	0.08088
1447.77570	0.08096
1446.48993	0.08096
1445.20416	0.08083
1443.91839	0.08054
1442.63262	0.08012
1441.34685	0.07963
1440.06109	0.07917
1438.77532	0.07882
1437.48955	0.07858
1436.20378	0.07843
1434.91801	0.07837
1433.63224	0.07849
1432.34647	0.07886
1431.06070	0.07944
1429.77494	0.08016
1428.48917	0.08098
1427.20340	0.08186
1425.91763	0.08283
1424.63186	0.08389
1423.34609	0.08500
1422.06032	0.08613
1420.77455	0.08727
1419.48878	0.08839
1418.20302	0.08940
1416.91725	0.09024
1415.63148	0.09088
1414.34571	0.09133
1413.05994	0.09162
1411.77417	0.09180
1410.48840	0.09186
1409.20263	0.09176
1407.91687	0.09146
1406.63110	0.09103
1405.34533	0.09048
1404.05956	0.08981
1402.77379	0.08897
1401.48802	0.08791
1400.20225	0.08667
1398.91648	0.08529
1397.63071	0.08387
1396.34495	0.08249
1395.05918	0.08114
1393.77341	0.07975
1392.48764	0.07826
1391.20187	0.07668
1389.91610	0.07511
1388.63033	0.07359
1387.34456	0.07214
1386.05880	0.07069
1384.77303	0.06922
1383.48726	0.06772
1382.20149	0.06622
1380.91572	0.06473
1379.62995	0.06325
1378.34418	0.06177
1377.05841	0.06027
1375.77264	0.05876
1374.48688	0.05723
1373.20111	0.05566
1371.91534	0.05402
1370.62957	0.05232
1369.34380	0.05063
1368.05803	0.04902
1366.77226	0.04756
1365.48649	0.04627
1364.20073	0.04512
1362.91496	0.04404
1361.62919	0.04299
1360.34342	0.04197
1359.05765	0.04101
1357.77188	0.04013
1356.48611	0.03932
1355.20034	0.03855
1353.91457	0.03784
1352.62881	0.03718
1351.34304	0.03658
1350.05727	0.03600
1348.77150	0.03544
1347.48573	0.03490
1346.19996	0.03438
1344.91419	0.03391
1343.62842	0.03347
1342.34266	0.03308
1341.05689	0.03273
1339.77112	0.03243
1338.48535	0.03217
1337.19958	0.03189
1335.91381	0.03156
1334.62804	0.03119
1333.34227	0.03080
1332.05650	0.03043
1330.77074	0.03007
1329.48497	0.02973
1328.19920	0.02942
1326.91343	0.02917
1325.62766	0.02900
1324.34189	0.02887
1323.05612	0.02872
1321.77035	0.02851
1320.48459	0.02823
1319.19882	0.02793
1317.91305	0.02766
1316.62728	0.02741
1315.34151	0.02715
1314.05574	0.02688
1312.76997	0.02663
1311.48420	0.02641
1310.19843	0.02621
1308.91267	0.02601
1307.62690	0.02581
1306.34113	0.02566
1305.05536	0.02554
1303.76959	0.02540
1302.48382	0.02519
1301.19805	0.02495
1299.91228	0.02472
1298.62652	0.02456
1297.34075	0.02445
1296.05498	0.02437
1294.76921	0.02430
1293.48344	0.02422
1292.19767	0.02413
1290.91190	0.02401
1289.62613	0.02388
1288.34036	0.02373
1287.05460	0.02356
1285.76883	0.02340
1284.48306	0.02328
1283.19729	0.02321
1281.91152	0.02315
1280.62575	0.02308
1279.33998	0.02298
1278.05421	0.02287
1276.76845	0.02280
1275.48268	0.02279
1274.19691	0.02279
1272.91114	0.02274
1271.62537	0.02260
1270.33960	0.02241
1269.05383	0.02225
1267.76806	0.02215
1266.48229	0.02212
1265.19653	0.02213
1263.91076	0.02214
1262.62499	0.02214
1261.33922	0.02215
1260.05345	0.02217
1258.76768	0.02222
1257.48191	0.02226
1256.19614	0.02227
1254.91037	0.02225
1253.62461	0.02222
1252.33884	0.02220
1251.05307	0.02219
1249.76730	0.02215
1248.48153	0.02209
1247.19576	0.02203
1245.90999	0.02200
1244.62422	0.02200
1243.33846	0.02199
1242.05269	0.02194
1240.76692	0.02185
1239.48115	0.02175
1238.19538	0.02163
1236.90961	0.02149
1235.62384	0.02136
1234.33807	0.02126
1233.05230	0.02117
1231.76654	0.02106
1230.48077	0.02091
1229.19500	0.02070
1227.90923	0.02043
1226.62346	0.02015
1225.33769	0.01987
1224.05192	0.01964
1222.76615	0.01945
1221.48039	0.01931
1220.19462	0.01919
1218.90885	0.01905
1217.62308	0.01886
1216.33731	0.01864
1215.05154	0.01844
1213.76577	0.01827
1212.48000	0.01815
1211.19423	0.01804
1209.90847	0.01795
1208.62270	0.01787
1207.33693	0.01778
1206.05116	0.01767
1204.76539	0.01754
1203.47962	0.01744
1202.19385	0.01741
1200.90808	0.01746
1199.62232	0.01751
1198.33655	0.01743
1197.05078	0.01729
1195.76501	0.01712
1194.47924	0.01694
1193.19347	0.01678
1191.90770	0.01666
1190.62193	0.01656
1189.33616	0.01646
1188.05040	0.01632
1186.76463	0.01616
1185.47886	0.01604
1184.19309	0.01600
1182.90732	0.01600
1181.62155	0.01598
1180.33578	0.01590
1179.05001	0.01580
1177.76425	0.01573
1176.47848	0.01571
1175.19271	0.01573
1173.90694	0.01576
1172.62117	0.01580
1171.33540	0.01582
1170.04963	0.01582
1168.76386	0.01583
1167.47809	0.01589
1166.19233	0.01600
1164.90656	0.01609
1163.62079	0.01614
1162.33502	0.01616
1161.04925	0.01620
1159.76348	0.01625
1158.47771	0.01633
1157.19194	0.01644
1155.90618	0.01657
1154.62041	0.01669
1153.33464	0.01677
1152.04887	0.01678
1150.76310	0.01678
1149.47733	0.01681
1148.19156	0.01689
1146.90579	0.01709
1145.62002	0.01744
1144.33426	0.01793
1143.04849	0.01850
1141.76272	0.01905
1140.47695	0.01955
1139.19118	0.02009
1137.90541	0.02075
1136.61964	0.02156
1135.33387	0.02248
1134.04811	0.02350
1132.76234	0.02467
1131.47657	0.02603
1130.19080	0.02761
1128.90503	0.02939
1127.61926	0.03132
1126.33349	0.03340
1125.04772	0.03561
1123.76195	0.03796
1122.47619	0.04041
1121.19042	0.04293
1119.90465	0.04548
1118.61888	0.04804
1117.33311	0.05062
1116.04734	0.05323
1114.76157	0.05588
1113.47580	0.05856
1112.19004	0.06120
1110.90427	0.06373
1109.61850	0.06616
1108.33273	0.06859
1107.04696	0.07106
1105.76119	0.07355
1104.47542	0.07596
1103.18965	0.07826
1101.90388	0.08048
1100.61812	0.08266
1099.33235	0.08478
1098.04658	0.08678
1096.76081	0.08861
1095.47504	0.09034
1094.18927	0.09203
1092.90350	0.09369
1091.61773	0.09528
1090.33197	0.09677
1089.04620	0.09814
1087.76043	0.09940
1086.47466	0.10058
1085.18889	0.10174
1083.90312	0.10299
1082.61735	0.10441
1081.33158	0.10599
1080.04581	0.10771
1078.76005	0.10957
1077.47428	0.11158
1076.18851	0.11372
1074.90274	0.11597
1073.61697	0.11830
1072.33120	0.12072
1071.04543	0.12324
1069.75966	0.12580
1068.47390	0.12834
1067.18813	0.13087
1065.90236	0.13347
1064.61659	0.13619
1063.33082	0.13899
1062.04505	0.14179
1060.75928	0.14453
1059.47351	0.14715
1058.18774	0.14964
1056.90198	0.15203
1055.61621	0.15442
1054.33044	0.15685
1053.04467	0.15934
1051.75890	0.16184
1050.47313	0.16433
1049.18736	0.16682
1047.90159	0.16933
1046.61583	0.17188
1045.33006	0.17447
1044.04429	0.17709
1042.75852	0.17975
1041.47275	0.18241
1040.18698	0.18501
1038.90121	0.18753
1037.61544	0.19000
1036.32967	0.19248
1035.04391	0.19495
1033.75814	0.19735
1032.47237	0.19958
1031.18660	0.20160
1029.90083	0.20339
1028.61506	0.20499
1027.32929	0.20639
1026.04352	0.20757
1024.75775	0.20851
1023.47199	0.20918
1022.18622	0.20958
1020.90045	0.20967
1019.61468	0.20939
1018.32891	0.20870
1017.04314	0.20758
1015.75737	0.20608
1014.47160	0.20426
1013.18584	0.20217
1011.90007	0.19978
1010.61430	0.19706
1009.32853	0.19396
1008.04276	0.19051
1006.75699	0.18678
1005.47122	0.18282
1004.18545	0.17861
1002.89968	0.17417
1001.61392	0.16955
1000.32815	0.16483
999.04238	0.16006
997.75661	0.15525
996.47084	0.15041
995.18507	0.14561
993.89930	0.14088
992.61353	0.13622
991.32777	0.13161
990.04200	0.12707
988.75623	0.12266
987.47046	0.11844
986.18469	0.11444
984.89892	0.11067
983.61315	0.10712
982.32738	0.10374
981.04161	0.10049
979.75585	0.09735
978.47008	0.09436
977.18431	0.09157
975.89854	0.08904
974.61277	0.08684
973.32700	0.08508
972.04123	0.08376
970.75546	0.08282
969.46970	0.08221
968.18393	0.08195
966.89816	0.08209
965.61239	0.08262
964.32662	0.08338
963.04085	0.08416
961.75508	0.08471
960.46931	0.08489
959.18354	0.08461
957.89778	0.08383
956.61201	0.08257
955.32624	0.08091
954.04047	0.07901
952.75470	0.07703
951.46893	0.07508
950.18316	0.07319
948.89739	0.07138
947.61163	0.06964
946.32586	0.06798
945.04009	0.06641
943.75432	0.06487
942.46855	0.06333
941.18278	0.06181
939.89701	0.06034
938.61124	0.05900
937.32547	0.05777
936.03971	0.05663
934.75394	0.05554
933.46817	0.05453
932.18240	0.05360
930.89663	0.05272
929.61086	0.05187
928.32509	0.05105
927.03932	0.05026
925.75356	0.04956
924.46779	0.04895
923.18202	0.04840
921.89625	0.04788
920.61048	0.04734
919.32471	0.04676
918.03894	0.04611
916.75317	0.04539
915.46740	0.04469
914.18164	0.04410
912.89587	0.04361
911.61010	0.04315
910.32433	0.04268
909.03856	0.04225
907.75279	0.04191
906.46702	0.04163
905.18125	0.04135
903.89549	0.04102
902.60972	0.04063
901.32395	0.04020
900.03818	0.03979
898.75241	0.03941
897.46664	0.03906
896.18087	0.03874
894.89510	0.03845
893.60933	0.03819
892.32357	0.03797
891.03780	0.03778
889.75203	0.03770
888.46626	0.03778
887.18049	0.03813
885.89472	0.03892
884.60895	0.04031
883.32318	0.04234
882.03742	0.04480
880.75165	0.04728
879.46588	0.04933
878.18011	0.05083
876.89434	0.05199
875.60857	0.05320
874.32280	0.05460
873.03703	0.05588
871.75126	0.05662
870.46550	0.05660
869.17973	0.05588
867.89396	0.05466
866.60819	0.05310
865.32242	0.05128
864.03665	0.04933
862.75088	0.04736
861.46511	0.04551
860.17935	0.04386
858.89358	0.04244
857.60781	0.04124
856.32204	0.04023
855.03627	0.03936
853.75050	0.03858
852.46473	0.03792
851.17896	0.03740
849.89319	0.03699
848.60743	0.03665
847.32166	0.03632
846.03589	0.03602
844.75012	0.03573
843.46435	0.03545
842.17858	0.03515
840.89281	0.03483
839.60704	0.03449
838.32128	0.03416
837.03551	0.03384
835.74974	0.03356
834.46397	0.03333
833.17820	0.03312
831.89243	0.03291
830.60666	0.03265
829.32089	0.03239
828.03512	0.03218
826.74936	0.03203
825.46359	0.03194
824.17782	0.03187
822.89205	0.03178
821.60628	0.03160
820.32051	0.03139
819.03474	0.03125
817.74897	0.03127
816.46321	0.03140
815.17744	0.03146
813.89167	0.03136
812.60590	0.03116
811.32013	0.03098
810.03436	0.03086
808.74859	0.03082
807.46282	0.03083
806.17705	0.03084
804.89129	0.03078
803.60552	0.03061
802.31975	0.03039
801.03398	0.03018
799.74821	0.03002
798.46244	0.02992
797.17667	0.02991
795.89090	0.02995
794.60513	0.03000
793.31937	0.03000
792.03360	0.02998
790.74783	0.02999
789.46206	0.03000
788.17629	0.02996
786.89052	0.02981
785.60475	0.02961
784.31898	0.02944
783.03322	0.02936
781.74745	0.02938
780.46168	0.02946
779.17591	0.02950
777.89014	0.02944
776.60437	0.02933
775.31860	0.02926
774.03283	0.02926
772.74706	0.02925
771.46130	0.02915
770.17553	0.02895
768.88976	0.02872
767.60399	0.02854
766.31822	0.02845
765.03245	0.02845
763.74668	0.02856
762.46091	0.02874
761.17515	0.02891
759.88938	0.02897
758.60361	0.02889
757.31784	0.02875
756.03207	0.02867
754.74630	0.02873
753.46053	0.02892
752.17476	0.02916
750.88899	0.02934
749.60323	0.02932
748.31746	0.02909
747.03169	0.02875
745.74592	0.02848
744.46015	0.02842
743.17438	0.02852
741.88861	0.02863
740.60284	0.02861
739.31708	0.02848
738.03131	0.02837
736.74554	0.02832
735.45977	0.02828
734.17400	0.02821
732.88823	0.02819
731.60246	0.02829
730.31669	0.02849
729.03092	0.02868
727.74516	0.02880
726.45939	0.02883
725.17362	0.02879
723.88785	0.02859
722.60208	0.02868
721.31631	0.02888
720.03054	0.02902
718.74477	0.02907
717.45901	0.02904
716.17324	0.02897
714.88747	0.02885
713.60170	0.02870
712.31593	0.02852
711.03016	0.02838
709.74439	0.02830
708.45862	0.02826
707.17285	0.02819
705.88709	0.02808
704.60132	0.02794
703.31555	0.02785
702.02978	0.02782
700.74401	0.02783
699.45824	0.02787
698.17247	0.02793
696.88670	0.02801
695.60094	0.02814
694.31517	0.02827
693.02940	0.02836
691.74363	0.02838
690.45786	0.02832
689.17209	0.02822
687.88632	0.02810
686.60055	0.02799
685.31478	0.02788
684.02902	0.02776
682.74325	0.02760
681.45748	0.02744
680.17171	0.02730
678.88594	0.02722
677.60017	0.02717
676.31440	0.02714
675.02863	0.02711
673.74287	0.02709
672.45710	0.02711
671.17133	0.02720
669.88556	0.02734
668.59979	0.02742
667.31402	0.02749
666.02825	0.02757
664.74248	0.02745
663.45671	0.02726
662.17095	0.02706
660.88518	0.02688
659.59941	0.02673
658.31364	0.02661
657.02787	0.02651
655.74210	0.02645
654.45633	0.02644
653.17056	0.02647
651.88480	0.02652
650.59903	0.02656
649.31326	0.02654
648.02749	0.02648
646.74172	0.02640
645.45595	0.02637
644.17018	0.02641
642.88441	0.02651
641.59864	0.02661
640.31288	0.02666
639.02711	0.02669
637.74134	0.02675
636.45557	0.02686
635.16980	0.02699
633.88403	0.02707
632.59826	0.02707
631.31249	0.02703
630.02673	0.02671
628.74096	0.02601
627.45519	0.02638
626.16942	0.02583
624.88365	0.02494
623.59788	0.02473
622.31211	0.02556
621.02634	0.02746
619.74057	0.03042
618.45481	0.03433
617.16904	0.03874
615.88327	0.04278
614.59750	0.04583
613.31173	0.04822
612.02596	0.05115
610.74019	0.05545
609.45442	0.06058
608.16866	0.06520
606.88289	0.06875
605.59712	0.07165
604.31135	0.07434
603.02558	0.07664
601.73981	0.07802
600.45404	0.07811
599.16827	0.07702
597.88250	0.07515
596.59674	0.07301
595.31097	0.07093
594.02520	0.06910
592.73943	0.06754
591.45366	0.06626
590.16789	0.06529
588.88212	0.06474
587.59635	0.06472
586.31059	0.06529
585.02482	0.06642
583.73905	0.06803
582.45328	0.07000
581.16751	0.07216
579.88174	0.07439
578.59597	0.07660
577.31020	0.07876
576.02443	0.08081
574.73867	0.08274
573.45290	0.08462
572.16713	0.08658
570.88136	0.08872
569.59559	0.09108
568.30982	0.09373
567.02405	0.09662
565.73828	0.09956
564.45251	0.10220
563.16675	0.10410
561.88098	0.10488
560.59521	0.10432
559.30944	0.10237
558.02367	0.09927
556.73790	0.09533
555.45213	0.09088
554.16636	0.08618
552.88060	0.08148
551.59483	0.07704
550.30906	0.07300
549.02329	0.06941
547.73752	0.06623
546.45175	0.06337
545.16598	0.06073
543.88021	0.05824
542.59444	0.05590
541.30868	0.05380
540.02291	0.05206
538.73714	0.05063
537.45137	0.04934
536.16560	0.04801
534.87983	0.04662
533.59406	0.04527
532.30829	0.04404
531.02253	0.04294
529.73676	0.04190
528.45099	0.04092
527.16522	0.04006
525.87945	0.03932
524.59368	0.03860
523.30791	0.03780
522.02214	0.03693
520.73637	0.03609
519.45061	0.03534
518.16484	0.03472
516.87907	0.03421
515.59330	0.03376
514.30753	0.03333
513.02176	0.03286
511.73599	0.03233
510.45022	0.03179
509.16446	0.03135
507.87869	0.03106
506.59292	0.03089
505.30715	0.03073
504.02138	0.03046
502.73561	0.03004
501.44984	0.02951
500.16407	0.02898
498.87830	0.02852
497.59254	0.02810
496.30677	0.02768
495.02100	0.02722
493.73523	0.02677
492.44946	0.02640
491.16369	0.02616
489.87792	0.02604
488.59215	0.02596
487.30639	0.02584
486.02062	0.02565
484.73485	0.02549
483.44908	0.02543
482.16331	0.02549
480.87754	0.02563
479.59177	0.02581
478.30600	0.02599
477.02023	0.02616
475.73447	0.02633
474.44870	0.02651
473.16293	0.02668
471.87716	0.02682
470.59139	0.02684
469.30562	0.02670
468.01985	0.02642
466.73408	0.02608
465.44832	0.02577
464.16255	0.02550
462.87678	0.02523
461.59101	0.02489
460.30524	0.02451
459.01947	0.02414
457.73370	0.02381
456.44793	0.02348
455.16216	0.02314
453.87640	0.02279
452.59063	0.02249
451.30486	0.02227
450.01909	0.02212
448.73332	0.02198
447.44755	0.02181
446.16178	0.02160
444.87601	0.02141
443.59025	0.02126
442.30448	0.02113
441.01871	0.02100
439.73294	0.02088
438.44717	0.02079
437.16140	0.02070
435.87563	0.02060
434.58986	0.02045
433.30409	0.02028
432.01833	0.02011
430.73256	0.01996
429.44679	0.01982
428.16102	0.01967
426.87525	0.01950
425.58948	0.01933
424.30371	0.01917
423.01794	0.01903
421.73218	0.01888
420.44641	0.01870
419.16064	0.01850
417.87487	0.01830
416.58910	0.01812
415.30333	0.01799
414.01756	0.01792
412.73179	0.01790
411.44602	0.01791
410.16026	0.01791
408.87449	0.01789
407.58872	0.01785
406.30295	0.01778
405.01718	0.01771
403.73141	0.01771
402.44564	0.01782
401.15987	0.01800
399.87411	0.01820
