3997.45528	0.03780
3996.16951	0.03768
3994.88374	0.03724
3993.59798	0.03670
3992.31221	0.03625
3991.02644	0.03576
3989.74067	0.03513
3988.45490	0.03461
3987.16913	0.03467
3985.88336	0.03542
3984.59759	0.03656
3983.31183	0.03765
3982.02606	0.03833
3980.74029	0.03846
3979.45452	0.03808
3978.16875	0.03737
3976.88298	0.03657
3975.59721	0.03590
3974.31144	0.03556
3973.02567	0.03570
3971.73991	0.03628
3970.45414	0.03698
3969.16837	0.03732
3967.88260	0.03710
3966.59683	0.03663
3965.31106	0.03641
3964.02529	0.03656
3962.73952	0.03676
3961.45376	0.03666
3960.16799	0.03632
3958.88222	0.03612
3957.59645	0.03626
3956.31068	0.03667
3955.02491	0.03706
3953.73914	0.03713
3952.45337	0.03673
3951.16760	0.03598
3949.88184	0.03530
3948.59607	0.03502
3947.31030	0.03509
3946.02453	0.03524
3944.73876	0.03533
3943.45299	0.03549
3942.16722	0.03585
3940.88145	0.03647
3939.59569	0.03730
3938.30992	0.03808
3937.02415	0.03840
3935.73838	0.03806
3934.45261	0.03730
3933.16684	0.03666
3931.88107	0.03649
3930.59530	0.03665
3929.30953	0.03675
3928.02377	0.03665
3926.73800	0.03656
3925.45223	0.03661
3924.16646	0.03656
3922.88069	0.03620
3921.59492	0.03563
3920.30915	0.03520
3919.02338	0.03530
3917.73762	0.03590
3916.45185	0.03653
3915.16608	0.03670
3913.88031	0.03638
3912.59454	0.03589
3911.30877	0.03552
3910.02300	0.03540
3908.73723	0.03546
3907.45146	0.03558
3906.16570	0.03564
3904.87993	0.03548
3903.59416	0.03510
3902.30839	0.03470
3901.02262	0.03453
3899.73685	0.03447
3898.45108	0.03441
3897.16531	0.03448
3895.87955	0.03489
3894.59378	0.03555
3893.30801	0.03620
3892.02224	0.03653
3890.73647	0.03625
3889.45070	0.03563
3888.16493	0.03541
3886.87916	0.03554
3885.59339	0.03514
3884.30763	0.03399
3883.02186	0.03298
3881.73609	0.03275
3880.45032	0.03288
3879.16455	0.03285
3877.87878	0.03286
3876.59301	0.03321
3875.30724	0.03379
3874.02148	0.03436
3872.73571	0.03506
3871.44994	0.03582
3870.16417	0.03587
3868.87840	0.03493
3867.59263	0.03419
3866.30686	0.03465
3865.02109	0.03563
3863.73532	0.03604
3862.44956	0.03582
3861.16379	0.03553
3859.87802	0.03551
3858.59225	0.03584
3857.30648	0.03663
3856.02071	0.03761
3854.73494	0.03779
3853.44917	0.03626
3852.16341	0.03392
3850.87764	0.03277
3849.59187	0.03345
3848.30610	0.03486
3847.02033	0.03596
3845.73456	0.03659
3844.44879	0.03693
3843.16302	0.03694
3841.87725	0.03657
3840.59149	0.03610
3839.30572	0.03562
3838.01995	0.03484
3836.73418	0.03384
3835.44841	0.03340
3834.16264	0.03397
3832.87687	0.03489
3831.59110	0.03520
3830.30534	0.03482
3829.01957	0.03441
3827.73380	0.03436
3826.44803	0.03446
3825.16226	0.03453
3823.87649	0.03484
3822.59072	0.03529
3821.30495	0.03517
3820.01918	0.03449
3818.73342	0.03436
3817.44765	0.03508
3816.16188	0.03524
3814.87611	0.03389
3813.59034	0.03226
3812.30457	0.03184
3811.01880	0.03269
3809.73303	0.03432
3808.44726	0.03624
3807.16150	0.03757
3805.87573	0.03776
3804.58996	0.03756
3803.30419	0.03786
3802.01842	0.03805
3800.73265	0.03705
3799.44688	0.03541
3798.16111	0.03457
3796.87535	0.03470
3795.58958	0.03496
3794.30381	0.03496
3793.01804	0.03480
3791.73227	0.03458
3790.44650	0.03443
3789.16073	0.03447
3787.87496	0.03464
3786.58919	0.03469
3785.30343	0.03447
3784.01766	0.03417
3782.73189	0.03407
3781.44612	0.03421
3780.16035	0.03419
3778.87458	0.03360
3777.58881	0.03257
3776.30304	0.03163
3775.01728	0.03113
3773.73151	0.03121
3772.44574	0.03188
3771.15997	0.03271
3769.87420	0.03296
3768.58843	0.03238
3767.30266	0.03153
3766.01689	0.03100
3764.73112	0.03090
3763.44536	0.03122
3762.15959	0.03194
3760.87382	0.03262
3759.58805	0.03269
3758.30228	0.03217
3757.01651	0.03156
3755.73074	0.03161
3754.44497	0.03275
3753.15921	0.03446
3751.87344	0.03558
3750.58767	0.03541
3749.30190	0.03427
3748.01613	0.03340
3746.73036	0.03403
3745.44459	0.03537
3744.15882	0.03527
3742.87305	0.03351
3741.58729	0.03215
3740.30152	0.03244
3739.01575	0.03371
3737.72998	0.03482
3736.44421	0.03505
3735.15844	0.03429
3733.87267	0.03346
3732.58690	0.03297
3731.30114	0.03247
3730.01537	0.03184
3728.72960	0.03152
3727.44383	0.03188
3726.15806	0.03240
3724.87229	0.03248
3723.58652	0.03209
3722.30075	0.03119
3721.01498	0.03011
3719.72922	0.02958
3718.44345	0.02975
3717.15768	0.03028
3715.87191	0.03087
3714.58614	0.03164
3713.30037	0.03244
3712.01460	0.03243
3710.72883	0.03174
3709.44307	0.03135
3708.15730	0.03138
3706.87153	0.03154
3705.58576	0.03165
3704.29999	0.03179
3703.01422	0.03203
3701.72845	0.03206
3700.44268	0.03176
3699.15691	0.03141
3697.87115	0.03127
3696.58538	0.03138
3695.29961	0.03163
3694.01384	0.03205
3692.72807	0.03215
3691.44230	0.03205
3690.15653	0.03224
3688.87076	0.03258
3687.58500	0.03269
3686.29923	0.03278
3685.01346	0.03304
3683.72769	0.03329
3682.44192	0.03331
3681.15615	0.03326
3679.87038	0.03335
3678.58461	0.03360
3677.29884	0.03365
3676.01308	0.03287
3674.72731	0.03125
3673.44154	0.03009
3672.15577	0.03049
3670.87000	0.03162
3669.58423	0.03199
3668.29846	0.03177
3667.01269	0.03196
3665.72693	0.03264
3664.44116	0.03309
3663.15539	0.03307
3661.86962	0.03284
3660.58385	0.03267
3659.29808	0.03267
3658.01231	0.03270
3656.72654	0.03243
3655.44077	0.03178
3654.15501	0.03139
3652.86924	0.03193
3651.58347	0.03293
3650.29770	0.03319
3649.01193	0.03223
3647.72616	0.03080
3646.44039	0.02998
3645.15462	0.03011
3643.86886	0.03073
3642.58309	0.03131
3641.29732	0.03175
3640.01155	0.03229
3638.72578	0.03311
3637.44001	0.03419
3636.15424	0.03533
3634.86847	0.03614
3633.58270	0.03612
3632.29694	0.03558
3631.01117	0.03530
3629.72540	0.03519
3628.43963	0.03480
3627.15386	0.03451
3625.86809	0.03518
3624.58232	0.03648
3623.29655	0.03744
3622.01079	0.03755
3620.72502	0.03719
3619.43925	0.03667
3618.15348	0.03638
3616.86771	0.03666
3615.58194	0.03737
3614.29617	0.03805
3613.01040	0.03846
3611.72463	0.03878
3610.43887	0.03886
3609.15310	0.03834
3607.86733	0.03710
3606.58156	0.03572
3605.29579	0.03484
3604.01002	0.03466
3602.72425	0.03523
3601.43848	0.03625
3600.15272	0.03744
3598.86695	0.03862
3597.58118	0.03960
3596.29541	0.03982
3595.00964	0.03946
3593.72387	0.03897
3592.43810	0.03853
3591.15233	0.03873
3589.86656	0.03973
3588.58080	0.04074
3587.29503	0.04115
3586.00926	0.04084
3584.72349	0.04027
3583.43772	0.03997
3582.15195	0.04001
3580.86618	0.04009
3579.58041	0.04009
3578.29464	0.04021
3577.00888	0.04072
3575.72311	0.04165
3574.43734	0.04259
3573.15157	0.04309
3571.86580	0.04320
3570.58003	0.04330
3569.29426	0.04363
3568.00849	0.04396
3566.72273	0.04386
3565.43696	0.04325
3564.15119	0.04238
3562.86542	0.04140
3561.57965	0.04047
3560.29388	0.03983
3559.00811	0.03965
3557.72234	0.03986
3556.43657	0.04026
3555.15081	0.04066
3553.86504	0.04094
3552.57927	0.04107
3551.29350	0.04111
3550.00773	0.04127
3548.72196	0.04175
3547.43619	0.04253
3546.15042	0.04330
3544.86466	0.04373
3543.57889	0.04377
3542.29312	0.04370
3541.00735	0.04386
3539.72158	0.04436
3538.43581	0.04501
3537.15004	0.04546
3535.86427	0.04545
3534.57850	0.04508
3533.29274	0.04471
3532.00697	0.04472
3530.72120	0.04518
3529.43543	0.04583
3528.14966	0.04632
3526.86389	0.04646
3525.57812	0.04640
3524.29235	0.04643
3523.00659	0.04678
3521.72082	0.04745
3520.43505	0.04823
3519.14928	0.04891
3517.86351	0.04943
3516.57774	0.04984
3515.29197	0.05016
3514.00620	0.05028
3512.72043	0.05021
3511.43467	0.05013
3510.14890	0.05025
3508.86313	0.05057
3507.57736	0.05095
3506.29159	0.05117
3505.00582	0.05113
3503.72005	0.05085
3502.43428	0.05046
3501.14852	0.05014
3499.86275	0.04998
3498.57698	0.05004
3497.29121	0.05026
3496.00544	0.05048
3494.71967	0.05057
3493.43390	0.05046
3492.14813	0.05025
3490.86236	0.05026
3489.57660	0.05077
3488.29083	0.05180
3487.00506	0.05296
3485.71929	0.05379
3484.43352	0.05399
3483.14775	0.05353
3481.86198	0.05268
3480.57621	0.05186
3479.29045	0.05145
3478.00468	0.05151
3476.71891	0.05180
3475.43314	0.05211
3474.14737	0.05244
3472.86160	0.05285
3471.57583	0.05324
3470.29006	0.05342
3469.00429	0.05338
3467.71853	0.05330
3466.43276	0.05336
3465.14699	0.05360
3463.86122	0.05391
3462.57545	0.05419
3461.28968	0.05444
3460.00391	0.05474
3458.71814	0.05514
3457.43238	0.05555
3456.14661	0.05574
3454.86084	0.05558
3453.57507	0.05521
3452.28930	0.05505
3451.00353	0.05534
3449.71776	0.05589
3448.43199	0.05629
3447.14622	0.05635
3445.86046	0.05621
3444.57469	0.05613
3443.28892	0.05608
3442.00315	0.05590
3440.71738	0.05562
3439.43161	0.05545
3438.14584	0.05546
3436.86007	0.05556
3435.57431	0.05559
3434.28854	0.05558
3433.00277	0.05564
3431.71700	0.05589
3430.43123	0.05624
3429.14546	0.05648
3427.85969	0.05636
3426.57392	0.05597
3425.28815	0.05567
3424.00239	0.05578
3422.71662	0.05629
3421.43085	0.05696
3420.14508	0.05749
3418.85931	0.05775
3417.57354	0.05768
3416.28777	0.05740
3415.00200	0.05713
3413.71624	0.05713
3412.43047	0.05747
3411.14470	0.05795
3409.85893	0.05837
3408.57316	0.05858
3407.28739	0.05852
3406.00162	0.05819
3404.71585	0.05766
3403.43008	0.05713
3402.14432	0.05687
3400.85855	0.05704
3399.57278	0.05769
3398.28701	0.05849
3397.00124	0.05900
3395.71547	0.05915
3394.42970	0.05915
3393.14393	0.05915
3391.85817	0.05909
3390.57240	0.05893
3389.28663	0.05880
3388.00086	0.05891
3386.71509	0.05923
3385.42932	0.05949
3384.14355	0.05945
3382.85778	0.05920
3381.57201	0.05904
3380.28625	0.05917
3379.00048	0.05948
3377.71471	0.05969
3376.42894	0.05965
3375.14317	0.05949
3373.85740	0.05944
3372.57163	0.05956
3371.28586	0.05980
3370.00010	0.06005
3368.71433	0.06026
3367.42856	0.06038
3366.14279	0.06038
3364.85702	0.06029
3363.57125	0.06022
3362.28548	0.06034
3360.99971	0.06066
3359.71394	0.06099
3358.42818	0.06107
3357.14241	0.06088
3355.85664	0.06063
3354.57087	0.06053
3353.28510	0.06060
3351.99933	0.06076
3350.71356	0.06095
3349.42779	0.06113
3348.14202	0.06123
3346.85626	0.06120
3345.57049	0.06108
3344.28472	0.06097
3342.99895	0.06095
3341.71318	0.06099
3340.42741	0.06092
3339.14164	0.06068
3337.85587	0.06039
3336.57011	0.06025
3335.28434	0.06033
3333.99857	0.06056
3332.71280	0.06081
3331.42703	0.06102
3330.14126	0.06115
3328.85549	0.06117
3327.56972	0.06104
3326.28395	0.06081
3324.99819	0.06065
3323.71242	0.06069
3322.42665	0.06097
3321.14088	0.06135
3319.85511	0.06163
3318.56934	0.06170
3317.28357	0.06157
3315.99780	0.06140
3314.71204	0.06129
3313.42627	0.06124
3312.14050	0.06118
3310.85473	0.06104
3309.56896	0.06088
3308.28319	0.06080
3306.99742	0.06083
3305.71165	0.06088
3304.42588	0.06087
3303.14012	0.06081
3301.85435	0.06078
3300.56858	0.06078
3299.28281	0.06080
3297.99704	0.06083
3296.71127	0.06087
3295.42550	0.06083
3294.13973	0.06069
3292.85397	0.06050
3291.56820	0.06033
3290.28243	0.06019
3288.99666	0.06000
3287.71089	0.05976
3286.42512	0.05948
3285.13935	0.05931
3283.85358	0.05941
3282.56781	0.05989
3281.28205	0.06060
3279.99628	0.06119
3278.71051	0.06141
3277.42474	0.06123
3276.13897	0.06082
3274.85320	0.06035
3273.56743	0.05996
3272.28166	0.05970
3270.99590	0.05959
3269.71013	0.05964
3268.42436	0.05986
3267.13859	0.06017
3265.85282	0.06038
3264.56705	0.06024
3263.28128	0.05974
3261.99551	0.05916
3260.70974	0.05888
3259.42398	0.05901
3258.13821	0.05934
3256.85244	0.05955
3255.56667	0.05955
3254.28090	0.05947
3252.99513	0.05941
3251.70936	0.05933
3250.42359	0.05915
3249.13783	0.05891
3247.85206	0.05879
3246.56629	0.05889
3245.28052	0.05912
3243.99475	0.05930
3242.70898	0.05938
3241.42321	0.05946
3240.13744	0.05967
3238.85167	0.06002
3237.56591	0.06045
3236.28014	0.06081
3234.99437	0.06089
3233.70860	0.06049
3232.42283	0.05964
3231.13706	0.05862
3229.85129	0.05780
3228.56552	0.05738
3227.27976	0.05730
3225.99399	0.05741
3224.70822	0.05770
3223.42245	0.05815
3222.13668	0.05860
3220.85091	0.05878
3219.56514	0.05859
3218.27937	0.05814
3216.99360	0.05772
3215.70784	0.05749
3214.42207	0.05741
3213.13630	0.05731
3211.85053	0.05712
3210.56476	0.05693
3209.27899	0.05691
3207.99322	0.05713
3206.70745	0.05754
3205.42169	0.05794
3204.13592	0.05808
3202.85015	0.05782
3201.56438	0.05725
3200.27861	0.05662
3198.99284	0.05616
3197.70707	0.05593
3196.42130	0.05586
3195.13553	0.05590
3193.84977	0.05614
3192.56400	0.05662
3191.27823	0.05721
3189.99246	0.05760
3188.70669	0.05763
3187.42092	0.05747
3186.13515	0.05737
3184.84938	0.05740
3183.56362	0.05741
3182.27785	0.05730
3180.99208	0.05706
3179.70631	0.05674
3178.42054	0.05638
3177.13477	0.05606
3175.84900	0.05597
3174.56323	0.05616
3173.27746	0.05645
3171.99170	0.05654
3170.70593	0.05632
3169.42016	0.05596
3168.13439	0.05571
3166.84862	0.05567
3165.56285	0.05577
3164.27708	0.05588
3162.99131	0.05598
3161.70555	0.05603
3160.41978	0.05595
3159.13401	0.05564
3157.84824	0.05513
3156.56247	0.05461
3155.27670	0.05429
3153.99093	0.05422
3152.70516	0.05422
3151.41939	0.05412
3150.13363	0.05393
3148.84786	0.05386
3147.56209	0.05406
3146.27632	0.05449
3144.99055	0.05492
3143.70478	0.05509
3142.41901	0.05483
3141.13324	0.05425
3139.84748	0.05364
3138.56171	0.05333
3137.27594	0.05341
3135.99017	0.05371
3134.70440	0.05389
3133.41863	0.05375
3132.13286	0.05333
3130.84709	0.05289
3129.56132	0.05265
3128.27556	0.05265
3126.98979	0.05277
3125.70402	0.05292
3124.41825	0.05313
3123.13248	0.05342
3121.84671	0.05369
3120.56094	0.05376
3119.27517	0.05358
3117.98940	0.05327
3116.70364	0.05302
3115.41787	0.05293
3114.13210	0.05291
3112.84633	0.05283
3111.56056	0.05267
3110.27479	0.05253
3108.98902	0.05247
3107.70325	0.05249
3106.41749	0.05253
3105.13172	0.05252
3103.84595	0.05242
3102.56018	0.05227
3101.27441	0.05217
3099.98864	0.05216
3098.70287	0.05218
3097.41710	0.05211
3096.13133	0.05194
3094.84557	0.05178
3093.55980	0.05178
3092.27403	0.05191
3090.98826	0.05204
3089.70249	0.05210
3088.41672	0.05212
3087.13095	0.05215
3085.84518	0.05210
3084.55942	0.05188
3083.27365	0.05158
3081.98788	0.05138
3080.70211	0.05138
3079.41634	0.05143
3078.13057	0.05137
3076.84480	0.05116
3075.55903	0.05089
3074.27326	0.05072
3072.98750	0.05073
3071.70173	0.05088
3070.41596	0.05103
3069.13019	0.05109
3067.84442	0.05102
3066.55865	0.05085
3065.27288	0.05061
3063.98711	0.05044
3062.70135	0.05045
3061.41558	0.05065
3060.12981	0.05082
3058.84404	0.05074
3057.55827	0.05042
3056.27250	0.05007
3054.98673	0.04995
3053.70096	0.05007
3052.41519	0.05014
3051.12943	0.04990
3049.84366	0.04934
3048.55789	0.04876
3047.27212	0.04849
3045.98635	0.04862
3044.70058	0.04901
3043.41481	0.04944
3042.12904	0.04971
3040.84328	0.04972
3039.55751	0.04940
3038.27174	0.04886
3036.98597	0.04830
3035.70020	0.04796
3034.41443	0.04795
3033.12866	0.04817
3031.84289	0.04842
3030.55712	0.04852
3029.27136	0.04844
3027.98559	0.04833
3026.69982	0.04834
3025.41405	0.04847
3024.12828	0.04859
3022.84251	0.04855
3021.55674	0.04830
3020.27097	0.04794
3018.98521	0.04762
3017.69944	0.04742
3016.41367	0.04730
3015.12790	0.04719
3013.84213	0.04702
3012.55636	0.04678
3011.27059	0.04650
3009.98482	0.04624
3008.69905	0.04609
3007.41329	0.04607
3006.12752	0.04613
3004.84175	0.04618
3003.55598	0.04619
3002.27021	0.04615
3000.98444	0.04605
2999.69867	0.04602
2998.41290	0.04594
2997.12714	0.04592
2995.84137	0.04593
2994.55560	0.04592
2993.26983	0.04588
2991.98406	0.04581
2990.69829	0.04566
2989.41252	0.04545
2988.12675	0.04537
2986.84098	0.04560
2985.55522	0.04610
2984.26945	0.04656
2982.98368	0.04673
2981.69791	0.04670
2980.41214	0.04681
2979.12637	0.04719
2977.84060	0.04766
2976.55483	0.04799
2975.26907	0.04823
2973.98330	0.04862
2972.69753	0.04929
2971.41176	0.05019
2970.12599	0.05114
2968.84022	0.05207
2967.55445	0.05297
2966.26868	0.05385
2964.98291	0.05468
2963.69715	0.05537
2962.41138	0.05584
2961.12561	0.05600
2959.83984	0.05575
2958.55407	0.05514
2957.26830	0.05439
2955.98253	0.05379
2954.69676	0.05343
2953.41100	0.05321
2952.12523	0.05296
2950.83946	0.05261
2949.55369	0.05225
2948.26792	0.05201
2946.98215	0.05190
2945.69638	0.05185
2944.41061	0.05175
2943.12484	0.05159
2941.83908	0.05143
2940.55331	0.05128
2939.26754	0.05105
2937.98177	0.05080
2936.69600	0.05068
2935.41023	0.05075
2934.12446	0.05094
2932.83869	0.05109
2931.55293	0.05120
2930.26716	0.05138
2928.98139	0.05168
2927.69562	0.05202
2926.40985	0.05226
2925.12408	0.05226
2923.83831	0.05198
2922.55254	0.05153
2921.26677	0.05109
2919.98101	0.05077
2918.69524	0.05050
2917.40947	0.05015
2916.12370	0.04973
2914.83793	0.04946
2913.55216	0.04950
2912.26639	0.04978
2910.98062	0.05006
2909.69486	0.05014
2908.40909	0.04998
2907.12332	0.04971
2905.83755	0.04945
2904.55178	0.04921
2903.26601	0.04895
2901.98024	0.04864
2900.69447	0.04829
2899.40870	0.04799
2898.12294	0.04779
2896.83717	0.04767
2895.55140	0.04752
2894.26563	0.04728
2892.97986	0.04694
2891.69409	0.04653
2890.40832	0.04610
2889.12255	0.04572
2887.83678	0.04550
2886.55102	0.04547
2885.26525	0.04553
2883.97948	0.04551
2882.69371	0.04535
2881.40794	0.04516
2880.12217	0.04502
2878.83640	0.04495
2877.55063	0.04495
2876.26487	0.04505
2874.97910	0.04520
2873.69333	0.04532
2872.40756	0.04538
2871.12179	0.04550
2869.83602	0.04575
2868.55025	0.04603
2867.26448	0.04614
2865.97871	0.04596
2864.69295	0.04556
2863.40718	0.04511
2862.12141	0.04476
2860.83564	0.04459
2859.54987	0.04455
2858.26410	0.04460
2856.97833	0.04472
2855.69256	0.04484
2854.40680	0.04488
2853.12103	0.04479
2851.83526	0.04461
2850.54949	0.04437
2849.26372	0.04411
2847.97795	0.04385
2846.69218	0.04365
2845.40641	0.04352
2844.12064	0.04334
2842.83488	0.04305
2841.54911	0.04269
2840.26334	0.04239
2838.97757	0.04218
2837.69180	0.04199
2836.40603	0.04176
2835.12026	0.04146
2833.83449	0.04111
2832.54873	0.04084
2831.26296	0.04073
2829.97719	0.04076
2828.69142	0.04071
2827.40565	0.04046
2826.11988	0.04011
2824.83411	0.03987
2823.54834	0.03976
2822.26257	0.03966
2820.97681	0.03949
2819.69104	0.03931
2818.40527	0.03925
2817.11950	0.03930
2815.83373	0.03935
2814.54796	0.03932
2813.26219	0.03924
2811.97642	0.03924
2810.69066	0.03939
2809.40489	0.03957
2808.11912	0.03959
2806.83335	0.03935
2805.54758	0.03901
2804.26181	0.03883
2802.97604	0.03884
2801.69027	0.03885
2800.40450	0.03866
2799.11874	0.03831
2797.83297	0.03796
2796.54720	0.03770
2795.26143	0.03751
2793.97566	0.03738
2792.68989	0.03739
2791.40412	0.03758
2790.11835	0.03786
2788.83259	0.03801
2787.54682	0.03788
2786.26105	0.03752
2784.97528	0.03712
2783.68951	0.03691
2782.40374	0.03692
2781.11797	0.03703
2779.83220	0.03710
2778.54643	0.03706
2777.26067	0.03687
2775.97490	0.03653
2774.68913	0.03616
2773.40336	0.03592
2772.11759	0.03590
2770.83182	0.03603
2769.54605	0.03616
2768.26028	0.03621
2766.97452	0.03622
2765.68875	0.03631
2764.40298	0.03648
2763.11721	0.03664
2761.83144	0.03668
2760.54567	0.03656
2759.25990	0.03635
2757.97413	0.03609
2756.68836	0.03584
2755.40260	0.03563
2754.11683	0.03548
2752.83106	0.03544
2751.54529	0.03546
2750.25952	0.03548
2748.97375	0.03546
2747.68798	0.03540
2746.40221	0.03534
2745.11645	0.03527
2743.83068	0.03515
2742.54491	0.03494
2741.25914	0.03473
2739.97337	0.03467
2738.68760	0.03484
2737.40183	0.03515
2736.11606	0.03541
2734.83029	0.03550
2733.54453	0.03548
2732.25876	0.03543
2730.97299	0.03532
2729.68722	0.03509
2728.40145	0.03481
2727.11568	0.03463
2725.82991	0.03460
2724.54414	0.03466
2723.25838	0.03474
2721.97261	0.03478
2720.68684	0.03480
2719.40107	0.03478
2718.11530	0.03477
2716.82953	0.03478
2715.54376	0.03475
2714.25799	0.03463
2712.97222	0.03443
2711.68646	0.03425
2710.40069	0.03416
2709.11492	0.03413
2707.82915	0.03413
2706.54338	0.03411
2705.25761	0.03407
2703.97184	0.03402
2702.68607	0.03399
2701.40031	0.03396
2700.11454	0.03389
2698.82877	0.03372
2697.54300	0.03352
2696.25723	0.03345
2694.97146	0.03355
2693.68569	0.03370
2692.39992	0.03375
2691.11415	0.03366
2689.82839	0.03354
2688.54262	0.03349
2687.25685	0.03349
2685.97108	0.03346
2684.68531	0.03333
2683.39954	0.03310
2682.11377	0.03288
2680.82800	0.03276
2679.54224	0.03274
2678.25647	0.03271
2676.97070	0.03257
2675.68493	0.03235
2674.39916	0.03218
2673.11339	0.03219
2671.82762	0.03235
2670.54185	0.03254
2669.25608	0.03266
2667.97032	0.03270
2666.68455	0.03273
2665.39878	0.03276
2664.11301	0.03278
2662.82724	0.03279
2661.54147	0.03279
2660.25570	0.03280
2658.96993	0.03279
2657.68417	0.03272
2656.39840	0.03261
2655.11263	0.03251
2653.82686	0.03246
2652.54109	0.03244
2651.25532	0.03238
2649.96955	0.03226
2648.68378	0.03211
2647.39801	0.03198
2646.11225	0.03184
2644.82648	0.03164
2643.54071	0.03136
2642.25494	0.03104
2640.96917	0.03074
2639.68340	0.03049
2638.39763	0.03034
2637.11186	0.03031
2635.82609	0.03042
2634.54033	0.03062
2633.25456	0.03076
2631.96879	0.03072
2630.68302	0.03046
2629.39725	0.03004
2628.11148	0.02958
2626.82571	0.02918
2625.53994	0.02891
2624.25418	0.02879
2622.96841	0.02880
2621.68264	0.02886
2620.39687	0.02890
2619.11110	0.02890
2617.82533	0.02894
2616.53956	0.02899
2615.25379	0.02895
2613.96802	0.02878
2612.68226	0.02857
2611.39649	0.02846
2610.11072	0.02848
2608.82495	0.02856
2607.53918	0.02860
2606.25341	0.02849
2604.96764	0.02815
2603.68187	0.02762
2602.39611	0.02701
2601.11034	0.02646
2599.82457	0.02614
2598.53880	0.02622
2597.25303	0.02671
2595.96726	0.02733
2594.68149	0.02769
2593.39572	0.02762
2592.10995	0.02728
2590.82419	0.02700
2589.53842	0.02689
2588.25265	0.02683
2586.96688	0.02671
2585.68111	0.02660
2584.39534	0.02662
2583.10957	0.02678
2581.82380	0.02703
2580.53804	0.02731
2579.25227	0.02753
2577.96650	0.02750
2576.68073	0.02710
2575.39496	0.02643
2574.10919	0.02581
2572.82342	0.02554
2571.53765	0.02565
2570.25188	0.02591
2568.96612	0.02612
2567.68035	0.02619
2566.39458	0.02611
2565.10881	0.02590
2563.82304	0.02565
2562.53727	0.02550
2561.25150	0.02542
2559.96573	0.02526
2558.67997	0.02498
2557.39420	0.02478
2556.10843	0.02488
2554.82266	0.02517
2553.53689	0.02539
2552.25112	0.02541
2550.96535	0.02537
2549.67958	0.02542
2548.39381	0.02548
2547.10805	0.02540
2545.82228	0.02520
2544.53651	0.02505
2543.25074	0.02500
2541.96497	0.02496
2540.67920	0.02483
2539.39343	0.02466
2538.10766	0.02446
2536.82190	0.02425
2535.53613	0.02402
2534.25036	0.02390
2532.96459	0.02392
2531.67882	0.02403
2530.39305	0.02413
2529.10728	0.02423
2527.82151	0.02435
2526.53574	0.02450
2525.24998	0.02463
2523.96421	0.02464
2522.67844	0.02447
2521.39267	0.02410
2520.10690	0.02368
2518.82113	0.02342
2517.53536	0.02341
2516.24959	0.02354
2514.96383	0.02367
2513.67806	0.02373
2512.39229	0.02373
2511.10652	0.02371
2509.82075	0.02372
2508.53498	0.02379
2507.24921	0.02385
2505.96344	0.02375
2504.67767	0.02343
2503.39191	0.02308
2502.10614	0.02290
2500.82037	0.02292
2499.53460	0.02304
2498.24883	0.02314
2496.96306	0.02316
2495.67729	0.02303
2494.39152	0.02276
2493.10576	0.02251
2491.81999	0.02251
2490.53422	0.02281
2489.24845	0.02322
2487.96268	0.02350
2486.67691	0.02356
2485.39114	0.02338
2484.10537	0.02304
2482.81960	0.02273
2481.53384	0.02266
2480.24807	0.02281
2478.96230	0.02301
2477.67653	0.02311
2476.39076	0.02307
2475.10499	0.02287
2473.81922	0.02250
2472.53345	0.02209
2471.24769	0.02187
2469.96192	0.02200
2468.67615	0.02242
2467.39038	0.02295
2466.10461	0.02334
2464.81884	0.02347
2463.53307	0.02342
2462.24730	0.02344
2460.96153	0.02369
2459.67577	0.02403
2458.39000	0.02411
2457.10423	0.02379
2455.81846	0.02326
2454.53269	0.02284
2453.24692	0.02272
2451.96115	0.02282
2450.67538	0.02289
2449.38962	0.02281
2448.10385	0.02264
2446.81808	0.02250
2445.53231	0.02244
2444.24654	0.02243
2442.96077	0.02248
2441.67500	0.02264
2440.38923	0.02288
2439.10346	0.02296
2437.81770	0.02278
2436.53193	0.02248
2435.24616	0.02233
2433.96039	0.02242
2432.67462	0.02255
2431.38885	0.02253
2430.10308	0.02234
2428.81731	0.02213
2427.53155	0.02204
2426.24578	0.02215
2424.96001	0.02239
2423.67424	0.02257
2422.38847	0.02253
2421.10270	0.02233
2419.81693	0.02221
2418.53116	0.02225
2417.24539	0.02233
2415.95963	0.02236
2414.67386	0.02238
2413.38809	0.02243
2412.10232	0.02235
2410.81655	0.02204
2409.53078	0.02164
2408.24501	0.02141
2406.95924	0.02145
2405.67347	0.02161
2404.38771	0.02169
2403.10194	0.02172
2401.81617	0.02189
2400.53040	0.02225
2399.24463	0.02240
2397.95886	0.02241
2396.67309	0.02226
2395.38732	0.02203
2394.10156	0.02185
2392.81579	0.02176
2391.53002	0.02171
2390.24425	0.02169
2388.95848	0.02168
2387.67271	0.02166
2386.38694	0.02168
2385.10117	0.02188
2383.81540	0.02236
2382.52964	0.02308
2381.24387	0.02381
2379.95810	0.02456
2378.67233	0.02519
2377.38656	0.02556
2376.10079	0.02634
2374.81502	0.02730
2373.52925	0.02751
2372.24349	0.02677
2370.95772	0.02513
2369.67195	0.02402
2368.38618	0.02316
2367.10041	0.02085
2365.81464	0.01818
2364.52887	0.01795
2363.24310	0.01917
2361.95733	0.01900
2360.67157	0.01747
2359.38580	0.01688
2358.10003	0.01684
2356.81426	0.01655
2355.52849	0.01631
2354.24272	0.01593
2352.95695	0.01564
2351.67118	0.01418
2350.38542	0.01085
2349.09965	0.01086
2347.81388	0.01834
2346.52811	0.02728
2345.24234	0.02961
2343.95657	0.02600
2342.67080	0.02227
2341.38503	0.02011
2340.09926	0.01849
2338.81350	0.01756
2337.52773	0.01700
2336.24196	0.01731
2334.95619	0.01765
2333.67042	0.01754
2332.38465	0.01821
2331.09888	0.01880
2329.81311	0.01868
2328.52735	0.01905
2327.24158	0.01917
2325.95581	0.01901
2324.67004	0.01978
2323.38427	0.02054
2322.09850	0.02088
2320.81273	0.02144
2319.52696	0.02130
2318.24119	0.02021
2316.95543	0.01945
2315.66966	0.01959
2314.38389	0.02020
2313.09812	0.02053
2311.81235	0.02066
2310.52658	0.02073
2309.24081	0.02073
2307.95504	0.02084
2306.66928	0.02102
2305.38351	0.02098
2304.09774	0.02078
2302.81197	0.02071
2301.52620	0.02078
2300.24043	0.02074
2298.95466	0.02064
2297.66889	0.02057
2296.38312	0.02062
2295.09736	0.02087
2293.81159	0.02126
2292.52582	0.02168
2291.24005	0.02197
2289.95428	0.02201
2288.66851	0.02184
2287.38274	0.02169
2286.09697	0.02170
2284.81121	0.02173
2283.52544	0.02155
2282.23967	0.02102
2280.95390	0.02015
2279.66813	0.01926
2278.38236	0.01869
2277.09659	0.01856
2275.81082	0.01870
2274.52505	0.01887
2273.23929	0.01900
2271.95352	0.01904
2270.66775	0.01884
2269.38198	0.01831
2268.09621	0.01754
2266.81044	0.01677
2265.52467	0.01634
2264.23890	0.01648
2262.95314	0.01715
2261.66737	0.01812
2260.38160	0.01897
2259.09583	0.01930
2257.81006	0.01905
2256.52429	0.01842
2255.23852	0.01768
2253.95275	0.01709
2252.66698	0.01691
2251.38122	0.01724
2250.09545	0.01774
2248.80968	0.01775
2247.52391	0.01723
2246.23814	0.01651
2244.95237	0.01618
2243.66660	0.01630
2242.38083	0.01647
2241.09507	0.01640
2239.80930	0.01622
2238.52353	0.01612
2237.23776	0.01611
2235.95199	0.01611
2234.66622	0.01609
2233.38045	0.01595
2232.09468	0.01555
2230.80891	0.01488
2229.52315	0.01413
2228.23738	0.01365
2226.95161	0.01375
2225.66584	0.01441
2224.38007	0.01526
2223.09430	0.01581
2221.80853	0.01596
2220.52276	0.01595
2219.23700	0.01593
2217.95123	0.01575
2216.66546	0.01538
2215.37969	0.01503
2214.09392	0.01491
2212.80815	0.01494
2211.52238	0.01489
2210.23661	0.01463
2208.95084	0.01426
2207.66508	0.01394
2206.37931	0.01377
2205.09354	0.01373
2203.80777	0.01369
2202.52200	0.01360
2201.23623	0.01355
2199.95046	0.01358
2198.66469	0.01346
2197.37893	0.01283
2196.09316	0.01156
2194.80739	0.01002
2193.52162	0.00892
2192.23585	0.00887
2190.95008	0.00986
2189.66431	0.01138
2188.37854	0.01274
2187.09277	0.01348
2185.80701	0.01346
2184.52124	0.01282
2183.23547	0.01203
2181.94970	0.01161
2180.66393	0.01163
2179.37816	0.01158
2178.09239	0.01095
2176.80662	0.01004
2175.52085	0.00981
2174.23509	0.01082
2172.94932	0.01243
2171.66355	0.01335
2170.37778	0.01289
2169.09201	0.01146
2167.80624	0.00990
2166.52047	0.00861
2165.23470	0.00759
2163.94894	0.00682
2162.66317	0.00627
2161.37740	0.00551
2160.09163	0.00406
2158.80586	0.00235
2157.52009	0.00147
2156.23432	0.00187
2154.94855	0.00293
2153.66278	0.00395
2152.37702	0.00489
2151.09125	0.00592
2149.80548	0.00685
2148.51971	0.00738
2147.23394	0.00747
2145.94817	0.00726
2144.66240	0.00686
2143.37663	0.00631
2142.09087	0.00581
2140.80510	0.00563
2139.51933	0.00583
2138.23356	0.00639
2136.94779	0.00718
2135.66202	0.00810
2134.37625	0.00908
2133.09048	0.01018
2131.80471	0.01134
2130.51895	0.01225
2129.23318	0.01262
2127.94741	0.01251
2126.66164	0.01224
2125.37587	0.01195
2124.09010	0.01163
2122.80433	0.01132
2121.51856	0.01113
2120.23280	0.01110
2118.94703	0.01114
2117.66126	0.01126
2116.37549	0.01150
2115.08972	0.01179
2113.80395	0.01206
2112.51818	0.01234
2111.23241	0.01267
2109.94664	0.01284
2108.66088	0.01264
2107.37511	0.01219
2106.08934	0.01189
2104.80357	0.01191
2103.51780	0.01206
2102.23203	0.01207
2100.94626	0.01192
2099.66049	0.01218
2098.37473	0.01226
2097.08896	0.01207
2095.80319	0.01155
2094.51742	0.01082
2093.23165	0.01030
2091.94588	0.01033
2090.66011	0.01079
2089.37434	0.01133
2088.08857	0.01161
2086.80281	0.01160
2085.51704	0.01145
2084.23127	0.01144
2082.94550	0.01175
2081.65973	0.01229
2080.37396	0.01260
2079.08819	0.01224
2077.80242	0.01126
2076.51666	0.01026
2075.23089	0.00983
2073.94512	0.01005
2072.65935	0.01046
2071.37358	0.01056
2070.08781	0.01028
2068.80204	0.00991
2067.51627	0.00974
2066.23050	0.00967
2064.94474	0.00934
2063.65897	0.00860
2062.37320	0.00784
2061.08743	0.00766
2059.80166	0.00821
2058.51589	0.00912
2057.23012	0.00980
2055.94435	0.01003
2054.65859	0.00996
2053.37282	0.00991
2052.08705	0.00999
2050.80128	0.01000
2049.51551	0.00971
2048.22974	0.00907
2046.94397	0.00824
2045.65820	0.00733
2044.37243	0.00633
2043.08667	0.00529
2041.80090	0.00434
2040.51513	0.00364
2039.22936	0.00331
2037.94359	0.00341
2036.65782	0.00380
2035.37205	0.00402
2034.08628	0.00381
2032.80052	0.00341
2031.51475	0.00341
2030.22898	0.00395
2028.94321	0.00455
2027.65744	0.00464
2026.37167	0.00414
2025.08590	0.00349
2023.80013	0.00313
2022.51436	0.00322
2021.22860	0.00370
2019.94283	0.00440
2018.65706	0.00513
2017.37129	0.00580
2016.08552	0.00653
2014.79975	0.00746
2013.51398	0.00848
2012.22821	0.00913
2010.94245	0.00907
2009.65668	0.00849
2008.37091	0.00789
2007.08514	0.00751
2005.79937	0.00716
2004.51360	0.00662
2003.22783	0.00606
2001.94206	0.00594
2000.65629	0.00653
1999.37053	0.00770
1998.08476	0.00891
1996.79899	0.00963
1995.51322	0.00966
1994.22745	0.00920
1992.94168	0.00858
1991.65591	0.00804
1990.37014	0.00781
1989.08438	0.00806
1987.79861	0.00875
1986.51284	0.00941
1985.22707	0.00956
1983.94130	0.00917
1982.65553	0.00865
1981.36976	0.00837
1980.08399	0.00831
1978.79822	0.00820
1977.51246	0.00788
1976.22669	0.00747
1974.94092	0.00720
1973.65515	0.00729
1972.36938	0.00775
1971.08361	0.00824
1969.79784	0.00825
1968.51207	0.00760
1967.22631	0.00676
1965.94054	0.00648
1964.65477	0.00709
1963.36900	0.00819
1962.08323	0.00905
1960.79746	0.00925
1959.51169	0.00906
1958.22592	0.00903
1956.94015	0.00950
1955.65439	0.01022
1954.36862	0.01068
1953.08285	0.01061
1951.79708	0.01021
1950.51131	0.00990
1949.22554	0.00993
1947.93977	0.01027
1946.65400	0.01065
1945.36823	0.01084
1944.08247	0.01074
1942.79670	0.01045
1941.51093	0.01018
1940.22516	0.01023
1938.93939	0.01075
1937.65362	0.01155
1936.36785	0.01224
1935.08208	0.01248
1933.79632	0.01233
1932.51055	0.01212
1931.22478	0.01214
1929.93901	0.01230
1928.65324	0.01238
1927.36747	0.01229
1926.08170	0.01217
1924.79593	0.01224
1923.51016	0.01254
1922.22440	0.01290
1920.93863	0.01312
1919.65286	0.01312
1918.36709	0.01290
1917.08132	0.01253
1915.79555	0.01212
1914.50978	0.01180
1913.22401	0.01152
1911.93825	0.01126
1910.65248	0.01107
1909.36671	0.01103
1908.08094	0.01123
1906.79517	0.01164
1905.50940	0.01211
1904.22363	0.01243
1902.93786	0.01250
1901.65209	0.01243
1900.36633	0.01237
1899.08056	0.01242
1897.79479	0.01259
1896.50902	0.01277
1895.22325	0.01278
1893.93748	0.01252
1892.65171	0.01214
1891.36594	0.01187
1890.08018	0.01178
1888.79441	0.01174
1887.50864	0.01170
1886.22287	0.01171
1884.93710	0.01183
1883.65133	0.01201
1882.36556	0.01222
1881.07979	0.01245
1879.79402	0.01270
1878.50826	0.01292
1877.22249	0.01307
1875.93672	0.01312
1874.65095	0.01308
1873.36518	0.01302
1872.07941	0.01300
1870.79364	0.01306
1869.50787	0.01308
1868.22211	0.01294
1866.93634	0.01274
1865.65057	0.01267
1864.36480	0.01280
1863.07903	0.01301
1861.79326	0.01308
1860.50749	0.01297
1859.22172	0.01275
1857.93595	0.01260
1856.65019	0.01260
1855.36442	0.01273
1854.07865	0.01291
1852.79288	0.01309
1851.50711	0.01325
1850.22134	0.01332
1848.93557	0.01325
1847.64980	0.01314
1846.36404	0.01314
1845.07827	0.01321
1843.79250	0.01310
1842.50673	0.01279
1841.22096	0.01257
1839.93519	0.01262
1838.64942	0.01284
1837.36365	0.01307
1836.07788	0.01328
1834.79212	0.01345
1833.50635	0.01358
1832.22058	0.01374
1830.93481	0.01392
1829.64904	0.01395
1828.36327	0.01376
1827.07750	0.01354
1825.79173	0.01342
1824.50597	0.01330
1823.22020	0.01309
1821.93443	0.01289
1820.64866	0.01276
1819.36289	0.01270
1818.07712	0.01269
1816.79135	0.01273
1815.50558	0.01286
1814.21981	0.01311
1812.93405	0.01339
1811.64828	0.01358
1810.36251	0.01359
1809.07674	0.01352
1807.79097	0.01345
1806.50520	0.01337
1805.21943	0.01329
1803.93366	0.01326
1802.64790	0.01332
1801.36213	0.01341
1800.07636	0.01342
1798.79059	0.01335
1797.50482	0.01330
1796.21905	0.01334
1794.93328	0.01357
1793.64751	0.01391
1792.36174	0.01408
1791.07598	0.01392
1789.79021	0.01366
1788.50444	0.01359
1787.21867	0.01376
1785.93290	0.01400
1784.64713	0.01410
1783.36136	0.01409
1782.07559	0.01413
1780.78983	0.01423
1779.50406	0.01429
1778.21829	0.01427
1776.93252	0.01424
1775.64675	0.01434
1774.36098	0.01462
1773.07521	0.01487
1771.78944	0.01483
1770.50367	0.01462
1769.21791	0.01453
1767.93214	0.01454
1766.64637	0.01443
1765.36060	0.01430
1764.07483	0.01438
1762.78906	0.01459
1761.50329	0.01468
1760.21752	0.01460
1758.93176	0.01456
1757.64599	0.01461
1756.36022	0.01459
1755.07445	0.01451
1753.78868	0.01462
1752.50291	0.01497
1751.21714	0.01525
1749.93137	0.01528
1748.64560	0.01522
1747.35984	0.01525
1746.07407	0.01532
1744.78830	0.01532
1743.50253	0.01525
1742.21676	0.01525
1740.93099	0.01537
1739.64522	0.01544
1738.35945	0.01538
1737.07369	0.01557
1735.78792	0.01621
1734.50215	0.01672
1733.21638	0.01651
1731.93061	0.01586
1730.64484	0.01555
1729.35907	0.01572
1728.07330	0.01598
1726.78753	0.01611
1725.50177	0.01617
1724.21600	0.01623
1722.93023	0.01630
1721.64446	0.01647
1720.35869	0.01693
1719.07292	0.01763
1717.78715	0.01810
1716.50138	0.01804
1715.21561	0.01770
1713.92985	0.01752
1712.64408	0.01765
1711.35831	0.01797
1710.07254	0.01832
1708.78677	0.01863
1707.50100	0.01893
1706.21523	0.01920
1704.92946	0.01939
1703.64370	0.01972
1702.35793	0.02053
1701.07216	0.02143
1699.78639	0.02171
1698.50062	0.02158
1697.21485	0.02175
1695.92908	0.02209
1694.64331	0.02196
1693.35754	0.02161
1692.07178	0.02170
1690.78601	0.02221
1689.50024	0.02268
1688.21447	0.02308
1686.92870	0.02377
1685.64293	0.02465
1684.35716	0.02504
1683.07139	0.02475
1681.78563	0.02445
1680.49986	0.02467
1679.21409	0.02523
1677.92832	0.02586
1676.64255	0.02645
1675.35678	0.02681
1674.07101	0.02684
1672.78524	0.02690
1671.49947	0.02729
1670.21371	0.02782
1668.92794	0.02811
1667.64217	0.02815
1666.35640	0.02830
1665.07063	0.02878
1663.78486	0.02942
1662.49909	0.02990
1661.21332	0.03017
1659.92756	0.03035
1658.64179	0.03053
1657.35602	0.03072
1656.07025	0.03122
1654.78448	0.03215
1653.49871	0.03277
1652.21294	0.03233
1650.92717	0.03131
1649.64140	0.03092
1648.35564	0.03146
1647.06987	0.03213
1645.78410	0.03225
1644.49833	0.03199
1643.21256	0.03187
1641.92679	0.03205
1640.64102	0.03230
1639.35525	0.03248
1638.06949	0.03274
1636.78372	0.03303
1635.49795	0.03301
1634.21218	0.03256
1632.92641	0.03209
1631.64064	0.03203
1630.35487	0.03228
1629.06910	0.03250
1627.78333	0.03252
1626.49757	0.03247
1625.21180	0.03252
1623.92603	0.03264
1622.64026	0.03257
1621.35449	0.03232
1620.06872	0.03224
1618.78295	0.03258
1617.49718	0.03303
1616.21142	0.03306
1614.92565	0.03268
1613.63988	0.03240
1612.35411	0.03252
1611.06834	0.03280
1609.78257	0.03305
1608.49680	0.03323
1607.21103	0.03335
1605.92526	0.03341
1604.63950	0.03343
1603.35373	0.03346
1602.06796	0.03354
1600.78219	0.03367
1599.49642	0.03384
1598.21065	0.03405
1596.92488	0.03431
1595.63911	0.03458
1594.35335	0.03481
1593.06758	0.03499
1591.78181	0.03516
1590.49604	0.03535
1589.21027	0.03558
1587.92450	0.03584
1586.63873	0.03609
1585.35296	0.03632
1584.06719	0.03652
1582.78143	0.03666
1581.49566	0.03675
1580.20989	0.03689
1578.92412	0.03729
1577.63835	0.03798
1576.35258	0.03850
1575.06681	0.03845
1573.78104	0.03818
1572.49528	0.03832
1571.20951	0.03888
1569.92374	0.03939
1568.63797	0.03957
1567.35220	0.03959
1566.06643	0.03970
1564.78066	0.03984
1563.49489	0.03997
1562.20912	0.04040
1560.92336	0.04126
1559.63759	0.04200
1558.35182	0.04194
1557.06605	0.04134
1555.78028	0.04100
1554.49451	0.04110
1553.20874	0.04124
1551.92297	0.04129
1550.63721	0.04137
1549.35144	0.04145
1548.06567	0.04148
1546.77990	0.04148
1545.49413	0.04144
1544.20836	0.04132
1542.92259	0.04121
1541.63682	0.04125
1540.35105	0.04120
1539.06529	0.04068
1537.77952	0.03984
1536.49375	0.03931
1535.20798	0.03940
1533.92221	0.03964
1532.63644	0.03953
1531.35067	0.03919
1530.06490	0.03900
1528.77914	0.03912
1527.49337	0.03939
1526.20760	0.03961
1524.92183	0.03979
1523.63606	0.04015
1522.35029	0.04070
1521.06452	0.04112
1519.77875	0.04130
1518.49298	0.04160
1517.20722	0.04214
1515.92145	0.04273
1514.63568	0.04327
1513.34991	0.04387
1512.06414	0.04452
1510.77837	0.04522
1509.49260	0.04615
1508.20683	0.04736
1506.92107	0.04843
1505.63530	0.04887
1504.34953	0.04888
1503.06376	0.04908
1501.77799	0.04971
1500.49222	0.05053
1499.20645	0.05132
1497.92068	0.05203
1496.63491	0.05255
1495.34915	0.05278
1494.06338	0.05295
1492.77761	0.05338
1491.49184	0.05408
1490.20607	0.05476
1488.92030	0.05527
1487.63453	0.05568
1486.34876	0.05610
1485.06299	0.05658
1483.77723	0.05718
1482.49146	0.05789
1481.20569	0.05864
1479.91992	0.05938
1478.63415	0.06010
1477.34838	0.06079
1476.06261	0.06146
1474.77684	0.06217
1473.49108	0.06287
1472.20531	0.06333
1470.91954	0.06347
1469.63377	0.06353
1468.34800	0.06377
1467.06223	0.06418
1465.77646	0.06457
1464.49069	0.06478
1463.20492	0.06485
1461.91916	0.06498
1460.63339	0.06536
1459.34762	0.06605
1458.06185	0.06677
1456.77608	0.06706
1455.49031	0.06679
1454.20454	0.06648
1452.91877	0.06654
1451.63301	0.06687
1450.34724	0.06719
1449.06147	0.06738
1447.77570	0.06743
1446.48993	0.06734
1445.20416	0.06725
1443.91839	0.06721
1442.63262	0.06713
1441.34685	0.06693
1440.06109	0.06675
1438.77532	0.06682
1437.48955	0.06710
1436.20378	0.06729
1434.91801	0.06738
1433.63224	0.06767
1432.34647	0.06833
1431.06070	0.06922
1429.77494	0.07012
1428.48917	0.07100
1427.20340	0.07194
1425.91763	0.07297
1424.63186	0.07402
1423.34609	0.07502
1422.06032	0.07611
1420.77455	0.07734
1419.48878	0.07843
1418.20302	0.07912
1416.91725	0.07955
1415.63148	0.07999
1414.34571	0.08045
1413.05994	0.08076
1411.77417	0.08081
1410.48840	0.08065
1409.20263	0.08033
1407.91687	0.07993
1406.63110	0.07943
1405.34533	0.07875
1404.05956	0.07783
1402.77379	0.07675
1401.48802	0.07567
1400.20225	0.07460
1398.91648	0.07343
1397.63071	0.07211
1396.34495	0.07074
1395.05918	0.06933
1393.77341	0.06777
1392.48764	0.06609
1391.20187	0.06450
1389.91610	0.06309
1388.63033	0.06178
1387.34456	0.06039
1386.05880	0.05886
1384.77303	0.05735
1383.48726	0.05598
1382.20149	0.05471
1380.91572	0.05342
1379.62995	0.05208
1378.34418	0.05072
1377.05841	0.04938
1375.77264	0.04809
1374.48688	0.04680
1373.20111	0.04545
1371.91534	0.04409
1370.62957	0.04283
1369.34380	0.04167
1368.05803	0.04057
1366.77226	0.03950
1365.48649	0.03850
1364.20073	0.03760
1362.91496	0.03674
1361.62919	0.03584
1360.34342	0.03495
1359.05765	0.03412
1357.77188	0.03339
1356.48611	0.03275
1355.20034	0.03216
1353.91457	0.03161
1352.62881	0.03108
1351.34304	0.03057
1350.05727	0.03007
1348.77150	0.02959
1347.48573	0.02910
1346.19996	0.02863
1344.91419	0.02817
1343.62842	0.02775
1342.34266	0.02736
1341.05689	0.02702
1339.77112	0.02672
1338.48535	0.02645
1337.19958	0.02617
1335.91381	0.02589
1334.62804	0.02558
1333.34227	0.02528
1332.05650	0.02501
1330.77074	0.02479
1329.48497	0.02459
1328.19920	0.02439
1326.91343	0.02417
1325.62766	0.02394
1324.34189	0.02373
1323.05612	0.02352
1321.77035	0.02332
1320.48459	0.02312
1319.19882	0.02294
1317.91305	0.02279
1316.62728	0.02268
1315.34151	0.02258
1314.05574	0.02243
1312.76997	0.02223
1311.48420	0.02202
1310.19843	0.02186
1308.91267	0.02174
1307.62690	0.02165
1306.34113	0.02153
1305.05536	0.02137
1303.76959	0.02119
1302.48382	0.02097
1301.19805	0.02073
1299.91228	0.02052
1298.62652	0.02037
1297.34075	0.02028
1296.05498	0.02021
1294.76921	0.02018
1293.48344	0.02015
1292.19767	0.02012
1290.91190	0.02003
1289.62613	0.01988
1288.34036	0.01971
1287.05460	0.01955
1285.76883	0.01946
1284.48306	0.01943
1283.19729	0.01944
1281.91152	0.01946
1280.62575	0.01946
1279.33998	0.01943
1278.05421	0.01942
1276.76845	0.01949
1275.48268	0.01966
1274.19691	0.01993
1272.91114	0.02038
1271.62537	0.02113
1270.33960	0.02235
1269.05383	0.02412
1267.76806	0.02649
1266.48229	0.02938
1265.19653	0.03256
1263.91076	0.03562
1262.62499	0.03807
1261.33922	0.03944
1260.05345	0.03952
1258.76768	0.03834
1257.48191	0.03621
1256.19614	0.03354
1254.91037	0.03072
1253.62461	0.02808
1252.33884	0.02581
1251.05307	0.02396
1249.76730	0.02253
1248.48153	0.02146
1247.19576	0.02065
1245.90999	0.02001
1244.62422	0.01949
1243.33846	0.01906
1242.05269	0.01870
1240.76692	0.01840
1239.48115	0.01815
1238.19538	0.01793
1236.90961	0.01774
1235.62384	0.01757
1234.33807	0.01739
1233.05230	0.01719
1231.76654	0.01701
1230.48077	0.01687
1229.19500	0.01675
1227.90923	0.01662
1226.62346	0.01646
1225.33769	0.01627
1224.05192	0.01610
1222.76615	0.01597
1221.48039	0.01589
1220.19462	0.01583
1218.90885	0.01577
1217.62308	0.01572
1216.33731	0.01566
1215.05154	0.01560
1213.76577	0.01552
1212.48000	0.01542
1211.19423	0.01529
1209.90847	0.01515
1208.62270	0.01502
1207.33693	0.01493
1206.05116	0.01491
1204.76539	0.01494
1203.47962	0.01499
1202.19385	0.01502
1200.90808	0.01497
1199.62232	0.01478
1198.33655	0.01465
1197.05078	0.01457
1195.76501	0.01458
1194.47924	0.01464
1193.19347	0.01468
1191.90770	0.01465
1190.62193	0.01457
1189.33616	0.01448
1188.05040	0.01443
1186.76463	0.01442
1185.47886	0.01445
1184.19309	0.01449
1182.90732	0.01448
1181.62155	0.01442
1180.33578	0.01432
1179.05001	0.01426
1177.76425	0.01428
1176.47848	0.01437
1175.19271	0.01449
1173.90694	0.01461
1172.62117	0.01473
1171.33540	0.01489
1170.04963	0.01507
1168.76386	0.01524
1167.47809	0.01537
1166.19233	0.01547
1164.90656	0.01559
1163.62079	0.01573
1162.33502	0.01592
1161.04925	0.01618
1159.76348	0.01648
1158.47771	0.01674
1157.19194	0.01693
1155.90618	0.01707
1154.62041	0.01726
1153.33464	0.01754
1152.04887	0.01786
1150.76310	0.01821
1149.47733	0.01862
1148.19156	0.01914
1146.90579	0.01978
1145.62002	0.02045
1144.33426	0.02111
1143.04849	0.02176
1141.76272	0.02244
1140.47695	0.02319
1139.19118	0.02404
1137.90541	0.02501
1136.61964	0.02609
1135.33387	0.02728
1134.04811	0.02856
1132.76234	0.02995
1131.47657	0.03144
1130.19080	0.03307
1128.90503	0.03490
1127.61926	0.03701
1126.33349	0.03939
1125.04772	0.04195
1123.76195	0.04464
1122.47619	0.04741
1121.19042	0.05032
1119.90465	0.05337
1118.61888	0.05653
1117.33311	0.05973
1116.04734	0.06288
1114.76157	0.06596
1113.47580	0.06898
1112.19004	0.07198
1110.90427	0.07503
1109.61850	0.07816
1108.33273	0.08135
1107.04696	0.08454
1105.76119	0.08767
1104.47542	0.09077
1103.18965	0.09383
1101.90388	0.09681
1100.61812	0.09961
1099.33235	0.10219
1098.04658	0.10457
1096.76081	0.10680
1095.47504	0.10889
1094.18927	0.11084
1092.90350	0.11264
1091.61773	0.11432
1090.33197	0.11589
1089.04620	0.11735
1087.76043	0.11872
1086.47466	0.12007
1085.18889	0.12145
1083.90312	0.12292
1082.61735	0.12449
1081.33158	0.12615
1080.04581	0.12793
1078.76005	0.12987
1077.47428	0.13198
1076.18851	0.13423
1074.90274	0.13657
1073.61697	0.13898
1072.33120	0.14150
1071.04543	0.14410
1069.75966	0.14673
1068.47390	0.14936
1067.18813	0.15196
1065.90236	0.15460
1064.61659	0.15733
1063.33082	0.16010
1062.04505	0.16285
1060.75928	0.16553
1059.47351	0.16815
1058.18774	0.17076
1056.90198	0.17336
1055.61621	0.17595
1054.33044	0.17857
1053.04467	0.18127
1051.75890	0.18406
1050.47313	0.18694
1049.18736	0.18986
1047.90159	0.19282
1046.61583	0.19581
1045.33006	0.19885
1044.04429	0.20198
1042.75852	0.20526
1041.47275	0.20869
1040.18698	0.21224
1038.90121	0.21578
1037.61544	0.21922
1036.32967	0.22250
1035.04391	0.22558
1033.75814	0.22839
1032.47237	0.23092
1031.18660	0.23325
1029.90083	0.23544
1028.61506	0.23749
1027.32929	0.23927
1026.04352	0.24071
1024.75775	0.24179
1023.47199	0.24255
1022.18622	0.24303
1020.90045	0.24324
1019.61468	0.24310
1018.32891	0.24250
1017.04314	0.24138
1015.75737	0.23978
1014.47160	0.23776
1013.18584	0.23534
1011.90007	0.23244
1010.61430	0.22903
1009.32853	0.22511
1008.04276	0.22072
1006.75699	0.21587
1005.47122	0.21059
1004.18545	0.20490
1002.89968	0.19886
1001.61392	0.19255
1000.32815	0.18610
999.04238	0.17957
997.75661	0.17293
996.47084	0.16621
995.18507	0.15946
993.89930	0.15279
992.61353	0.14629
991.32777	0.13995
990.04200	0.13378
988.75623	0.12787
987.47046	0.12230
986.18469	0.11712
984.89892	0.11229
983.61315	0.10774
982.32738	0.10346
981.04161	0.09941
979.75585	0.09561
978.47008	0.09207
977.18431	0.08886
975.89854	0.08600
974.61277	0.08351
973.32700	0.08139
972.04123	0.07973
970.75546	0.07863
969.46970	0.07812
968.18393	0.07811
966.89816	0.07842
965.61239	0.07883
964.32662	0.07922
963.04085	0.07950
961.75508	0.07957
960.46931	0.07925
959.18354	0.07842
957.89778	0.07703
956.61201	0.07521
955.32624	0.07318
954.04047	0.07114
952.75470	0.06920
951.46893	0.06737
950.18316	0.06558
948.89739	0.06380
947.61163	0.06199
946.32586	0.06019
945.04009	0.05844
943.75432	0.05681
942.46855	0.05532
941.18278	0.05397
939.89701	0.05273
938.61124	0.05159
937.32547	0.05056
936.03971	0.04959
934.75394	0.04861
933.46817	0.04760
932.18240	0.04661
930.89663	0.04575
929.61086	0.04507
928.32509	0.04452
927.03932	0.04402
925.75356	0.04349
924.46779	0.04294
923.18202	0.04240
921.89625	0.04192
920.61048	0.04151
919.32471	0.04117
918.03894	0.04087
916.75317	0.04055
915.46740	0.04013
914.18164	0.03965
912.89587	0.03920
911.61010	0.03888
910.32433	0.03866
909.03856	0.03845
907.75279	0.03815
906.46702	0.03777
905.18125	0.03741
903.89549	0.03715
902.60972	0.03695
901.32395	0.03674
900.03818	0.03649
898.75241	0.03625
897.46664	0.03603
896.18087	0.03586
894.89510	0.03572
893.60933	0.03566
892.32357	0.03565
891.03780	0.03570
889.75203	0.03586
888.46626	0.03622
887.18049	0.03690
885.89472	0.03796
884.60895	0.03945
883.32318	0.04135
882.03742	0.04346
880.75165	0.04542
879.46588	0.04691
878.18011	0.04797
876.89434	0.04893
875.60857	0.05010
874.32280	0.05147
873.03703	0.05266
871.75126	0.05335
870.46550	0.05342
869.17973	0.05293
867.89396	0.05201
866.60819	0.05081
865.32242	0.04947
864.03665	0.04808
862.75088	0.04667
861.46511	0.04529
860.17935	0.04402
858.89358	0.04291
857.60781	0.04197
856.32204	0.04112
855.03627	0.04032
853.75050	0.03958
852.46473	0.03896
851.17896	0.03851
849.89319	0.03821
848.60743	0.03800
847.32166	0.03784
846.03589	0.03769
844.75012	0.03755
843.46435	0.03738
842.17858	0.03717
840.89281	0.03694
839.60704	0.03677
838.32128	0.03666
837.03551	0.03660
835.74974	0.03659
834.46397	0.03668
833.17820	0.03696
831.89243	0.03739
830.60666	0.03790
829.32089	0.03849
828.03512	0.03931
826.74936	0.04048
825.46359	0.04197
824.17782	0.04364
822.89205	0.04536
821.60628	0.04702
820.32051	0.04852
819.03474	0.04979
817.74897	0.05083
816.46321	0.05170
815.17744	0.05249
813.89167	0.05329
812.60590	0.05422
811.32013	0.05540
810.03436	0.05685
808.74859	0.05847
807.46282	0.06005
806.17705	0.06147
804.89129	0.06266
803.60552	0.06361
802.31975	0.06425
801.03398	0.06460
799.74821	0.06465
798.46244	0.06443
797.17667	0.06388
795.89090	0.06299
794.60513	0.06177
793.31937	0.06031
792.03360	0.05868
790.74783	0.05692
789.46206	0.05497
788.17629	0.05288
786.89052	0.05075
785.60475	0.04875
784.31898	0.04694
783.03322	0.04533
781.74745	0.04389
780.46168	0.04261
779.17591	0.04151
777.89014	0.04062
776.60437	0.03993
775.31860	0.03938
774.03283	0.03886
772.74706	0.03836
771.46130	0.03790
770.17553	0.03754
768.88976	0.03730
767.60399	0.03715
766.31822	0.03701
765.03245	0.03680
763.74668	0.03652
762.46091	0.03619
761.17515	0.03590
759.88938	0.03572
758.60361	0.03567
757.31784	0.03569
756.03207	0.03571
754.74630	0.03573
753.46053	0.03572
752.17476	0.03566
750.88899	0.03550
749.60323	0.03527
748.31746	0.03508
747.03169	0.03500
745.74592	0.03498
744.46015	0.03490
743.17438	0.03470
741.88861	0.03442
740.60284	0.03419
739.31708	0.03413
738.03131	0.03421
736.74554	0.03428
735.45977	0.03423
734.17400	0.03406
732.88823	0.03391
731.60246	0.03385
730.31669	0.03383
729.03092	0.03377
727.74516	0.03367
726.45939	0.03358
725.17362	0.03352
723.88785	0.03337
722.60208	0.03331
721.31631	0.03352
720.03054	0.03366
718.74477	0.03356
717.45901	0.03359
716.17324	0.03371
714.88747	0.03375
713.60170	0.03375
712.31593	0.03379
711.03016	0.03390
709.74439	0.03409
708.45862	0.03430
707.17285	0.03448
705.88709	0.03459
704.60132	0.03464
703.31555	0.03468
702.02978	0.03470
700.74401	0.03467
699.45824	0.03453
698.17247	0.03431
696.88670	0.03406
695.60094	0.03383
694.31517	0.03362
693.02940	0.03344
691.74363	0.03328
690.45786	0.03310
689.17209	0.03290
687.88632	0.03269
686.60055	0.03247
685.31478	0.03227
684.02902	0.03208
682.74325	0.03190
681.45748	0.03176
680.17171	0.03168
678.88594	0.03169
677.60017	0.03179
676.31440	0.03195
675.02863	0.03201
673.74287	0.03155
672.45710	0.03015
671.17133	0.02879
669.88556	0.03037
668.59979	0.03456
667.31402	0.03372
666.02825	0.02962
664.74248	0.02909
663.45671	0.03071
662.17095	0.03170
660.88518	0.03173
659.59941	0.03135
658.31364	0.03092
657.02787	0.03059
655.74210	0.03035
654.45633	0.03011
653.17056	0.02990
651.88480	0.02971
650.59903	0.02961
649.31326	0.02961
648.02749	0.02962
646.74172	0.02968
645.45595	0.02986
644.17018	0.03013
642.88441	0.03048
641.59864	0.03087
640.31288	0.03126
639.02711	0.03158
637.74134	0.03184
636.45557	0.03206
635.16980	0.03231
633.88403	0.03268
632.59826	0.03326
631.31249	0.03417
630.02673	0.03537
628.74096	0.03613
627.45519	0.03591
626.16942	0.03676
624.88365	0.03870
623.59788	0.04130
622.31211	0.04396
621.02634	0.04578
619.74057	0.04666
618.45481	0.04779
617.16904	0.05035
615.88327	0.05434
614.59750	0.05892
613.31173	0.06336
612.02596	0.06769
610.74019	0.07252
609.45442	0.07812
608.16866	0.08369
606.88289	0.08814
605.59712	0.09118
604.31135	0.09320
603.02558	0.09433
601.73981	0.09419
600.45404	0.09251
599.16827	0.08968
597.88250	0.08647
596.59674	0.08354
595.31097	0.08105
594.02520	0.07891
592.73943	0.07706
591.45366	0.07562
590.16789	0.07474
588.88212	0.07447
587.59635	0.07473
586.31059	0.07541
585.02482	0.07652
583.73905	0.07808
582.45328	0.08006
581.16751	0.08235
579.88174	0.08485
578.59597	0.08744
577.31020	0.08995
576.02443	0.09226
574.73867	0.09441
573.45290	0.09657
572.16713	0.09888
570.88136	0.10139
569.59559	0.10419
568.30982	0.10741
567.02405	0.11101
565.73828	0.11461
564.45251	0.11761
563.16675	0.11943
561.88098	0.11972
560.59521	0.11843
559.30944	0.11565
558.02367	0.11158
556.73790	0.10652
555.45213	0.10087
554.16636	0.09509
552.88060	0.08961
551.59483	0.08462
550.30906	0.08010
549.02329	0.07589
547.73752	0.07190
546.45175	0.06818
545.16598	0.06481
543.88021	0.06188
542.59444	0.05946
541.30868	0.05751
540.02291	0.05585
538.73714	0.05428
537.45137	0.05265
536.16560	0.05103
534.87983	0.04953
533.59406	0.04823
532.30829	0.04709
531.02253	0.04604
529.73676	0.04506
528.45099	0.04411
527.16522	0.04315
525.87945	0.04215
524.59368	0.04116
523.30791	0.04026
522.02214	0.03950
520.73637	0.03888
519.45061	0.03833
518.16484	0.03775
516.87907	0.03709
515.59330	0.03637
514.30753	0.03573
513.02176	0.03521
511.73599	0.03471
510.45022	0.03416
509.16446	0.03355
507.87869	0.03297
506.59292	0.03248
505.30715	0.03207
504.02138	0.03170
502.73561	0.03134
501.44984	0.03100
500.16407	0.03076
498.87830	0.03068
497.59254	0.03068
496.30677	0.03061
495.02100	0.03036
493.73523	0.02998
492.44946	0.02960
491.16369	0.02934
489.87792	0.02919
488.59215	0.02902
487.30639	0.02879
486.02062	0.02855
484.73485	0.02841
483.44908	0.02841
482.16331	0.02850
480.87754	0.02860
479.59177	0.02862
478.30600	0.02859
477.02023	0.02859
475.73447	0.02867
474.44870	0.02884
473.16293	0.02903
471.87716	0.02916
470.59139	0.02916
469.30562	0.02906
468.01985	0.02887
466.73408	0.02865
465.44832	0.02838
464.16255	0.02804
462.87678	0.02767
461.59101	0.02737
460.30524	0.02719
459.01947	0.02706
457.73370	0.02681
456.44793	0.02641
455.16216	0.02602
453.87640	0.02578
452.59063	0.02566
451.30486	0.02554
450.01909	0.02538
448.73332	0.02519
447.44755	0.02500
446.16178	0.02483
444.87601	0.02471
443.59025	0.02464
442.30448	0.02457
441.01871	0.02447
439.73294	0.02433
438.44717	0.02421
437.16140	0.02409
435.87563	0.02398
434.58986	0.02387
433.30409	0.02380
432.01833	0.02380
430.73256	0.02386
429.44679	0.02390
428.16102	0.02387
426.87525	0.02375
425.58948	0.02361
424.30371	0.02347
423.01794	0.02337
421.73218	0.02336
420.44641	0.02348
419.16064	0.02365
417.87487	0.02377
416.58910	0.02385
415.30333	0.02395
414.01756	0.02413
412.73179	0.02437
411.44602	0.02468
410.16026	0.02504
408.87449	0.02544
407.58872	0.02586
406.30295	0.02624
405.01718	0.02652
403.73141	0.02671
402.44564	0.02688
401.15987	0.02709
399.87411	0.02733
