3997.45528	0.01463
3996.16951	0.01458
3994.88374	0.01478
3993.59798	0.01523
3992.31221	0.01567
3991.02644	0.01591
3989.74067	0.01594
3988.45490	0.01591
3987.16913	0.01591
3985.88336	0.01594
3984.59759	0.01606
3983.31183	0.01639
3982.02606	0.01695
3980.74029	0.01749
3979.45452	0.01770
3978.16875	0.01751
3976.88298	0.01703
3975.59721	0.01638
3974.31144	0.01572
3973.02567	0.01533
3971.73991	0.01550
3970.45414	0.01610
3969.16837	0.01662
3967.88260	0.01660
3966.59683	0.01604
3965.31106	0.01526
3964.02529	0.01461
3962.73952	0.01434
3961.45376	0.01458
3960.16799	0.01525
3958.88222	0.01590
3957.59645	0.01608
3956.31068	0.01579
3955.02491	0.01550
3953.73914	0.01560
3952.45337	0.01604
3951.16760	0.01651
3949.88184	0.01691
3948.59607	0.01729
3947.31030	0.01763
3946.02453	0.01771
3944.73876	0.01749
3943.45299	0.01715
3942.16722	0.01693
3940.88145	0.01683
3939.59569	0.01665
3938.30992	0.01632
3937.02415	0.01604
3935.73838	0.01606
3934.45261	0.01638
3933.16684	0.01670
3931.88107	0.01679
3930.59530	0.01671
3929.30953	0.01667
3928.02377	0.01677
3926.73800	0.01697
3925.45223	0.01725
3924.16646	0.01764
3922.88069	0.01809
3921.59492	0.01829
3920.30915	0.01804
3919.02338	0.01751
3917.73762	0.01714
3916.45185	0.01723
3915.16608	0.01767
3913.88031	0.01820
3912.59454	0.01860
3911.30877	0.01878
3910.02300	0.01873
3908.73723	0.01842
3907.45146	0.01797
3906.16570	0.01760
3904.87993	0.01749
3903.59416	0.01763
3902.30839	0.01787
3901.02262	0.01807
3899.73685	0.01811
3898.45108	0.01798
3897.16531	0.01780
3895.87955	0.01772
3894.59378	0.01770
3893.30801	0.01759
3892.02224	0.01729
3890.73647	0.01686
3889.45070	0.01659
3888.16493	0.01661
3886.87916	0.01665
3885.59339	0.01636
3884.30763	0.01601
3883.02186	0.01620
3881.73609	0.01700
3880.45032	0.01781
3879.16455	0.01815
3877.87878	0.01817
3876.59301	0.01831
3875.30724	0.01871
3874.02148	0.01926
3872.73571	0.01987
3871.44994	0.02046
3870.16417	0.02073
3868.87840	0.02055
3867.59263	0.02030
3866.30686	0.02033
3865.02109	0.02049
3863.73532	0.02048
3862.44956	0.02026
3861.16379	0.01989
3859.87802	0.01936
3858.59225	0.01876
3857.30648	0.01844
3856.02071	0.01868
3854.73494	0.01924
3853.44917	0.01946
3852.16341	0.01918
3850.87764	0.01889
3849.59187	0.01894
3848.30610	0.01912
3847.02033	0.01906
3845.73456	0.01866
3844.44879	0.01809
3843.16302	0.01752
3841.87725	0.01711
3840.59149	0.01709
3839.30572	0.01744
3838.01995	0.01769
3836.73418	0.01738
3835.44841	0.01677
3834.16264	0.01654
3832.87687	0.01702
3831.59110	0.01794
3830.30534	0.01886
3829.01957	0.01957
3827.73380	0.01994
3826.44803	0.01978
3825.16226	0.01907
3823.87649	0.01829
3822.59072	0.01786
3821.30495	0.01773
3820.01918	0.01773
3818.73342	0.01798
3817.44765	0.01847
3816.16188	0.01869
3814.87611	0.01833
3813.59034	0.01790
3812.30457	0.01794
3811.01880	0.01837
3809.73303	0.01884
3808.44726	0.01916
3807.16150	0.01908
3805.87573	0.01852
3804.58996	0.01784
3803.30419	0.01752
3802.01842	0.01747
3800.73265	0.01734
3799.44688	0.01727
3798.16111	0.01771
3796.87535	0.01862
3795.58958	0.01949
3794.30381	0.01994
3793.01804	0.01996
3791.73227	0.01984
3790.44650	0.01988
3789.16073	0.02013
3787.87496	0.02032
3786.58919	0.02018
3785.30343	0.01966
3784.01766	0.01903
3782.73189	0.01865
3781.44612	0.01867
3780.16035	0.01893
3778.87458	0.01912
3777.58881	0.01920
3776.30304	0.01933
3775.01728	0.01959
3773.73151	0.01985
3772.44574	0.02002
3771.15997	0.01998
3769.87420	0.01955
3768.58843	0.01868
3767.30266	0.01760
3766.01689	0.01662
3764.73112	0.01601
3763.44536	0.01606
3762.15959	0.01686
3760.87382	0.01799
3759.58805	0.01869
3758.30228	0.01856
3757.01651	0.01783
3755.73074	0.01709
3754.44497	0.01678
3753.15921	0.01665
3751.87344	0.01619
3750.58767	0.01532
3749.30190	0.01453
3748.01613	0.01440
3746.73036	0.01524
3745.44459	0.01654
3744.15882	0.01726
3742.87305	0.01720
3741.58729	0.01709
3740.30152	0.01718
3739.01575	0.01703
3737.72998	0.01640
3736.44421	0.01563
3735.15844	0.01536
3733.87267	0.01594
3732.58690	0.01700
3731.30114	0.01776
3730.01537	0.01785
3728.72960	0.01764
3727.44383	0.01766
3726.15806	0.01807
3724.87229	0.01873
3723.58652	0.01936
3722.30075	0.01962
3721.01498	0.01938
3719.72922	0.01882
3718.44345	0.01828
3717.15768	0.01795
3715.87191	0.01785
3714.58614	0.01798
3713.30037	0.01821
3712.01460	0.01826
3710.72883	0.01793
3709.44307	0.01741
3708.15730	0.01704
3706.87153	0.01695
3705.58576	0.01704
3704.29999	0.01714
3703.01422	0.01716
3701.72845	0.01705
3700.44268	0.01682
3699.15691	0.01651
3697.87115	0.01625
3696.58538	0.01611
3695.29961	0.01617
3694.01384	0.01646
3692.72807	0.01696
3691.44230	0.01755
3690.15653	0.01820
3688.87076	0.01883
3687.58500	0.01927
3686.29923	0.01936
3685.01346	0.01898
3683.72769	0.01803
3682.44192	0.01679
3681.15615	0.01597
3679.87038	0.01602
3678.58461	0.01685
3677.29884	0.01788
3676.01308	0.01832
3674.72731	0.01778
3673.44154	0.01683
3672.15577	0.01644
3670.87000	0.01679
3669.58423	0.01725
3668.29846	0.01752
3667.01269	0.01784
3665.72693	0.01845
3664.44116	0.01917
3663.15539	0.01955
3661.86962	0.01934
3660.58385	0.01887
3659.29808	0.01862
3658.01231	0.01876
3656.72654	0.01887
3655.44077	0.01853
3654.15501	0.01793
3652.86924	0.01770
3651.58347	0.01822
3650.29770	0.01926
3649.01193	0.02021
3647.72616	0.02049
3646.44039	0.01995
3645.15462	0.01892
3643.86886	0.01807
3642.58309	0.01787
3641.29732	0.01837
3640.01155	0.01925
3638.72578	0.02004
3637.44001	0.02046
3636.15424	0.02055
3634.86847	0.02054
3633.58270	0.02060
3632.29694	0.02085
3631.01117	0.02134
3629.72540	0.02183
3628.43963	0.02201
3627.15386	0.02197
3625.86809	0.02206
3624.58232	0.02240
3623.29655	0.02273
3622.01079	0.02290
3620.72502	0.02297
3619.43925	0.02300
3618.15348	0.02296
3616.86771	0.02286
3615.58194	0.02274
3614.29617	0.02267
3613.01040	0.02274
3611.72463	0.02306
3610.43887	0.02362
3609.15310	0.02418
3607.86733	0.02453
3606.58156	0.02468
3605.29579	0.02464
3604.01002	0.02431
3602.72425	0.02368
3601.43848	0.02312
3600.15272	0.02311
3598.86695	0.02374
3597.58118	0.02467
3596.29541	0.02539
3595.00964	0.02569
3593.72387	0.02572
3592.43810	0.02583
3591.15233	0.02629
3589.86656	0.02703
3588.58080	0.02768
3587.29503	0.02789
3586.00926	0.02772
3584.72349	0.02746
3583.43772	0.02731
3582.15195	0.02720
3580.86618	0.02699
3579.58041	0.02667
3578.29464	0.02647
3577.00888	0.02664
3575.72311	0.02730
3574.43734	0.02825
3573.15157	0.02905
3571.86580	0.02945
3570.58003	0.02959
3569.29426	0.02981
3568.00849	0.03020
3566.72273	0.03051
3565.43696	0.03051
3564.15119	0.03031
3562.86542	0.03009
3561.57965	0.02990
3560.29388	0.02976
3559.00811	0.02972
3557.72234	0.02990
3556.43657	0.03031
3555.15081	0.03085
3553.86504	0.03133
3552.57927	0.03154
3551.29350	0.03141
3550.00773	0.03115
3548.72196	0.03110
3547.43619	0.03142
3546.15042	0.03199
3544.86466	0.03260
3543.57889	0.03306
3542.29312	0.03322
3541.00735	0.03311
3539.72158	0.03291
3538.43581	0.03291
3537.15004	0.03325
3535.86427	0.03379
3534.57850	0.03422
3533.29274	0.03434
3532.00697	0.03423
3530.72120	0.03416
3529.43543	0.03430
3528.14966	0.03460
3526.86389	0.03491
3525.57812	0.03513
3524.29235	0.03526
3523.00659	0.03529
3521.72082	0.03526
3520.43505	0.03535
3519.14928	0.03570
3517.86351	0.03626
3516.57774	0.03684
3515.29197	0.03736
3514.00620	0.03782
3512.72043	0.03819
3511.43467	0.03834
3510.14890	0.03821
3508.86313	0.03789
3507.57736	0.03752
3506.29159	0.03717
3505.00582	0.03684
3503.72005	0.03667
3502.43428	0.03692
3501.14852	0.03775
3499.86275	0.03894
3498.57698	0.03991
3497.29121	0.04015
3496.00544	0.03962
3494.71967	0.03878
3493.43390	0.03823
3492.14813	0.03828
3490.86236	0.03882
3489.57660	0.03954
3488.29083	0.04018
3487.00506	0.04059
3485.71929	0.04068
3484.43352	0.04045
3483.14775	0.04009
3481.86198	0.03987
3480.57621	0.03987
3479.29045	0.03999
3478.00468	0.04010
3476.71891	0.04013
3475.43314	0.04002
3474.14737	0.03970
3472.86160	0.03933
3471.57583	0.03918
3470.29006	0.03946
3469.00429	0.04005
3467.71853	0.04067
3466.43276	0.04110
3465.14699	0.04131
3463.86122	0.04142
3462.57545	0.04165
3461.28968	0.04208
3460.00391	0.04264
3458.71814	0.04314
3457.43238	0.04348
3456.14661	0.04364
3454.86084	0.04366
3453.57507	0.04355
3452.28930	0.04334
3451.00353	0.04320
3449.71776	0.04325
3448.43199	0.04345
3447.14622	0.04358
3445.86046	0.04346
3444.57469	0.04313
3443.28892	0.04279
3442.00315	0.04258
3440.71738	0.04254
3439.43161	0.04262
3438.14584	0.04281
3436.86007	0.04302
3435.57431	0.04317
3434.28854	0.04333
3433.00277	0.04365
3431.71700	0.04418
3430.43123	0.04477
3429.14546	0.04519
3427.85969	0.04539
3426.57392	0.04547
3425.28815	0.04557
3424.00239	0.04573
3422.71662	0.04584
3421.43085	0.04575
3420.14508	0.04546
3418.85931	0.04514
3417.57354	0.04495
3416.28777	0.04483
3415.00200	0.04467
3413.71624	0.04445
3412.43047	0.04434
3411.14470	0.04452
3409.85893	0.04499
3408.57316	0.04555
3407.28739	0.04594
3406.00162	0.04600
3404.71585	0.04585
3403.43008	0.04571
3402.14432	0.04570
3400.85855	0.04579
3399.57278	0.04594
3398.28701	0.04618
3397.00124	0.04647
3395.71547	0.04664
3394.42970	0.04656
3393.14393	0.04636
3391.85817	0.04631
3390.57240	0.04656
3389.28663	0.04705
3388.00086	0.04756
3386.71509	0.04791
3385.42932	0.04807
3384.14355	0.04818
3382.85778	0.04837
3381.57201	0.04860
3380.28625	0.04866
3379.00048	0.04845
3377.71471	0.04815
3376.42894	0.04803
3375.14317	0.04816
3373.85740	0.04834
3372.57163	0.04839
3371.28586	0.04828
3370.00010	0.04815
3368.71433	0.04811
3367.42856	0.04821
3366.14279	0.04837
3364.85702	0.04854
3363.57125	0.04866
3362.28548	0.04872
3360.99971	0.04872
3359.71394	0.04875
3358.42818	0.04892
3357.14241	0.04927
3355.85664	0.04966
3354.57087	0.04992
3353.28510	0.05002
3351.99933	0.05011
3350.71356	0.05025
3349.42779	0.05036
3348.14202	0.05028
3346.85626	0.04995
3345.57049	0.04948
3344.28472	0.04902
3342.99895	0.04864
3341.71318	0.04844
3340.42741	0.04849
3339.14164	0.04875
3337.85587	0.04896
3336.57011	0.04888
3335.28434	0.04855
3333.99857	0.04822
3332.71280	0.04812
3331.42703	0.04834
3330.14126	0.04880
3328.85549	0.04926
3327.56972	0.04954
3326.28395	0.04959
3324.99819	0.04952
3323.71242	0.04939
3322.42665	0.04923
3321.14088	0.04910
3319.85511	0.04910
3318.56934	0.04928
3317.28357	0.04955
3315.99780	0.04982
3314.71204	0.05006
3313.42627	0.05033
3312.14050	0.05068
3310.85473	0.05108
3309.56896	0.05141
3308.28319	0.05149
3306.99742	0.05126
3305.71165	0.05082
3304.42588	0.05032
3303.14012	0.04981
3301.85435	0.04928
3300.56858	0.04881
3299.28281	0.04861
3297.99704	0.04885
3296.71127	0.04945
3295.42550	0.05007
3294.13973	0.05045
3292.85397	0.05053
3291.56820	0.05050
3290.28243	0.05048
3288.99666	0.05041
3287.71089	0.05005
3286.42512	0.04928
3285.13935	0.04830
3283.85358	0.04754
3282.56781	0.04735
3281.28205	0.04782
3279.99628	0.04868
3278.71051	0.04947
3277.42474	0.04982
3276.13897	0.04966
3274.85320	0.04918
3273.56743	0.04871
3272.28166	0.04847
3270.99590	0.04856
3269.71013	0.04891
3268.42436	0.04930
3267.13859	0.04947
3265.85282	0.04928
3264.56705	0.04884
3263.28128	0.04845
3261.99551	0.04833
3260.70974	0.04849
3259.42398	0.04878
3258.13821	0.04901
3256.85244	0.04912
3255.56667	0.04915
3254.28090	0.04919
3252.99513	0.04926
3251.70936	0.04933
3250.42359	0.04934
3249.13783	0.04927
3247.85206	0.04909
3246.56629	0.04879
3245.28052	0.04846
3243.99475	0.04831
3242.70898	0.04843
3241.42321	0.04872
3240.13744	0.04892
3238.85167	0.04889
3237.56591	0.04867
3236.28014	0.04841
3234.99437	0.04826
3233.70860	0.04827
3232.42283	0.04830
3231.13706	0.04819
3229.85129	0.04795
3228.56552	0.04779
3227.27976	0.04787
3225.99399	0.04807
3224.70822	0.04819
3223.42245	0.04818
3222.13668	0.04810
3220.85091	0.04797
3219.56514	0.04773
3218.27937	0.04736
3216.99360	0.04694
3215.70784	0.04653
3214.42207	0.04622
3213.13630	0.04607
3211.85053	0.04615
3210.56476	0.04642
3209.27899	0.04679
3207.99322	0.04714
3206.70745	0.04740
3205.42169	0.04755
3204.13592	0.04761
3202.85015	0.04759
3201.56438	0.04749
3200.27861	0.04730
3198.99284	0.04704
3197.70707	0.04671
3196.42130	0.04640
3195.13553	0.04618
3193.84977	0.04603
3192.56400	0.04582
3191.27823	0.04550
3189.99246	0.04520
3188.70669	0.04510
3187.42092	0.04525
3186.13515	0.04554
3184.84938	0.04583
3183.56362	0.04606
3182.27785	0.04618
3180.99208	0.04616
3179.70631	0.04598
3178.42054	0.04571
3177.13477	0.04545
3175.84900	0.04529
3174.56323	0.04528
3173.27746	0.04533
3171.99170	0.04530
3170.70593	0.04514
3169.42016	0.04492
3168.13439	0.04480
3166.84862	0.04484
3165.56285	0.04497
3164.27708	0.04507
3162.99131	0.04514
3161.70555	0.04521
3160.41978	0.04525
3159.13401	0.04514
3157.84824	0.04478
3156.56247	0.04428
3155.27670	0.04385
3153.99093	0.04369
3152.70516	0.04379
3151.41939	0.04403
3150.13363	0.04425
3148.84786	0.04436
3147.56209	0.04438
3146.27632	0.04441
3144.99055	0.04451
3143.70478	0.04461
3142.41901	0.04449
3141.13324	0.04406
3139.84748	0.04347
3138.56171	0.04304
3137.27594	0.04298
3135.99017	0.04321
3134.70440	0.04349
3133.41863	0.04358
3132.13286	0.04338
3130.84709	0.04299
3129.56132	0.04268
3128.27556	0.04268
3126.98979	0.04296
3125.70402	0.04328
3124.41825	0.04340
3123.13248	0.04325
3121.84671	0.04293
3120.56094	0.04259
3119.27517	0.04244
3117.98940	0.04260
3116.70364	0.04299
3115.41787	0.04339
3114.13210	0.04353
3112.84633	0.04331
3111.56056	0.04288
3110.27479	0.04251
3108.98902	0.04228
3107.70325	0.04216
3106.41749	0.04215
3105.13172	0.04234
3103.84595	0.04276
3102.56018	0.04321
3101.27441	0.04344
3099.98864	0.04339
3098.70287	0.04315
3097.41710	0.04286
3096.13133	0.04264
3094.84557	0.04253
3093.55980	0.04253
3092.27403	0.04259
3090.98826	0.04258
3089.70249	0.04246
3088.41672	0.04225
3087.13095	0.04200
3085.84518	0.04174
3084.55942	0.04146
3083.27365	0.04127
3081.98788	0.04129
3080.70211	0.04156
3079.41634	0.04191
3078.13057	0.04216
3076.84480	0.04223
3075.55903	0.04218
3074.27326	0.04208
3072.98750	0.04197
3071.70173	0.04186
3070.41596	0.04173
3069.13019	0.04160
3067.84442	0.04151
3066.55865	0.04147
3065.27288	0.04152
3063.98711	0.04163
3062.70135	0.04174
3061.41558	0.04181
3060.12981	0.04178
3058.84404	0.04164
3057.55827	0.04142
3056.27250	0.04115
3054.98673	0.04091
3053.70096	0.04075
3052.41519	0.04073
3051.12943	0.04084
3049.84366	0.04095
3048.55789	0.04093
3047.27212	0.04071
3045.98635	0.04036
3044.70058	0.03997
3043.41481	0.03963
3042.12904	0.03933
3040.84328	0.03910
3039.55751	0.03903
3038.27174	0.03916
3036.98597	0.03942
3035.70020	0.03962
3034.41443	0.03964
3033.12866	0.03950
3031.84289	0.03928
3030.55712	0.03906
3029.27136	0.03892
3027.98559	0.03892
3026.69982	0.03902
3025.41405	0.03912
3024.12828	0.03913
3022.84251	0.03903
3021.55674	0.03889
3020.27097	0.03882
3018.98521	0.03888
3017.69944	0.03906
3016.41367	0.03930
3015.12790	0.03947
3013.84213	0.03945
3012.55636	0.03919
3011.27059	0.03877
3009.98482	0.03839
3008.69905	0.03824
3007.41329	0.03833
3006.12752	0.03851
3004.84175	0.03864
3003.55598	0.03869
3002.27021	0.03870
3000.98444	0.03867
2999.69867	0.03855
2998.41290	0.03838
2997.12714	0.03821
2995.84137	0.03810
2994.55560	0.03800
2993.26983	0.03784
2991.98406	0.03763
2990.69829	0.03745
2989.41252	0.03732
2988.12675	0.03717
2986.84098	0.03696
2985.55522	0.03683
2984.26945	0.03698
2982.98368	0.03750
2981.69791	0.03823
2980.41214	0.03888
2979.12637	0.03928
2977.84060	0.03939
2976.55483	0.03929
2975.26907	0.03909
2973.98330	0.03896
2972.69753	0.03899
2971.41176	0.03915
2970.12599	0.03927
2968.84022	0.03924
2967.55445	0.03915
2966.26868	0.03920
2964.98291	0.03948
2963.69715	0.03989
2962.41138	0.04030
2961.12561	0.04072
2959.83984	0.04116
2958.55407	0.04154
2957.26830	0.04179
2955.98253	0.04191
2954.69676	0.04207
2953.41100	0.04238
2952.12523	0.04282
2950.83946	0.04321
2949.55369	0.04337
2948.26792	0.04328
2946.98215	0.04302
2945.69638	0.04267
2944.41061	0.04229
2943.12484	0.04200
2941.83908	0.04195
2940.55331	0.04218
2939.26754	0.04257
2937.98177	0.04288
2936.69600	0.04297
2935.41023	0.04292
2934.12446	0.04293
2932.83869	0.04317
2931.55293	0.04359
2930.26716	0.04395
2928.98139	0.04403
2927.69562	0.04379
2926.40985	0.04333
2925.12408	0.04284
2923.83831	0.04239
2922.55254	0.04199
2921.26677	0.04163
2919.98101	0.04140
2918.69524	0.04133
2917.40947	0.04138
2916.12370	0.04145
2914.83793	0.04143
2913.55216	0.04136
2912.26639	0.04132
2910.98062	0.04135
2909.69486	0.04146
2908.40909	0.04155
2907.12332	0.04154
2905.83755	0.04133
2904.55178	0.04095
2903.26601	0.04058
2901.98024	0.04039
2900.69447	0.04038
2899.40870	0.04035
2898.12294	0.04015
2896.83717	0.03985
2895.55140	0.03963
2894.26563	0.03951
2892.97986	0.03935
2891.69409	0.03905
2890.40832	0.03874
2889.12255	0.03865
2887.83678	0.03884
2886.55102	0.03914
2885.26525	0.03931
2883.97948	0.03924
2882.69371	0.03900
2881.40794	0.03875
2880.12217	0.03858
2878.83640	0.03853
2877.55063	0.03858
2876.26487	0.03869
2874.97910	0.03876
2873.69333	0.03872
2872.40756	0.03865
2871.12179	0.03871
2869.83602	0.03897
2868.55025	0.03929
2867.26448	0.03943
2865.97871	0.03934
2864.69295	0.03913
2863.40718	0.03894
2862.12141	0.03880
2860.83564	0.03861
2859.54987	0.03835
2858.26410	0.03802
2856.97833	0.03767
2855.69256	0.03729
2854.40680	0.03686
2853.12103	0.03642
2851.83526	0.03602
2850.54949	0.03577
2849.26372	0.03577
2847.97795	0.03598
2846.69218	0.03621
2845.40641	0.03625
2844.12064	0.03611
2842.83488	0.03599
2841.54911	0.03601
2840.26334	0.03611
2838.97757	0.03615
2837.69180	0.03610
2836.40603	0.03595
2835.12026	0.03570
2833.83449	0.03534
2832.54873	0.03496
2831.26296	0.03471
2829.97719	0.03464
2828.69142	0.03467
2827.40565	0.03467
2826.11988	0.03461
2824.83411	0.03453
2823.54834	0.03437
2822.26257	0.03405
2820.97681	0.03362
2819.69104	0.03322
2818.40527	0.03298
2817.11950	0.03290
2815.83373	0.03292
2814.54796	0.03298
2813.26219	0.03305
2811.97642	0.03313
2810.69066	0.03322
2809.40489	0.03331
2808.11912	0.03335
2806.83335	0.03329
2805.54758	0.03314
2804.26181	0.03296
2802.97604	0.03280
2801.69027	0.03270
2800.40450	0.03260
2799.11874	0.03251
2797.83297	0.03245
2796.54720	0.03248
2795.26143	0.03267
2793.97566	0.03293
2792.68989	0.03307
2791.40412	0.03296
2790.11835	0.03265
2788.83259	0.03233
2787.54682	0.03218
2786.26105	0.03219
2784.97528	0.03224
2783.68951	0.03223
2782.40374	0.03217
2781.11797	0.03210
2779.83220	0.03197
2778.54643	0.03171
2777.26067	0.03141
2775.97490	0.03123
2774.68913	0.03125
2773.40336	0.03140
2772.11759	0.03158
2770.83182	0.03170
2769.54605	0.03169
2768.26028	0.03152
2766.97452	0.03126
2765.68875	0.03112
2764.40298	0.03118
2763.11721	0.03134
2761.83144	0.03140
2760.54567	0.03128
2759.25990	0.03107
2757.97413	0.03093
2756.68836	0.03094
2755.40260	0.03106
2754.11683	0.03118
2752.83106	0.03123
2751.54529	0.03121
2750.25952	0.03117
2748.97375	0.03114
2747.68798	0.03111
2746.40221	0.03102
2745.11645	0.03085
2743.83068	0.03066
2742.54491	0.03051
2741.25914	0.03045
2739.97337	0.03042
2738.68760	0.03041
2737.40183	0.03046
2736.11606	0.03057
2734.83029	0.03072
2733.54453	0.03080
2732.25876	0.03078
2730.97299	0.03072
2729.68722	0.03071
2728.40145	0.03073
2727.11568	0.03069
2725.82991	0.03051
2724.54414	0.03023
2723.25838	0.02993
2721.97261	0.02975
2720.68684	0.02970
2719.40107	0.02971
2718.11530	0.02964
2716.82953	0.02949
2715.54376	0.02935
2714.25799	0.02932
2712.97222	0.02940
2711.68646	0.02954
2710.40069	0.02969
2709.11492	0.02984
2707.82915	0.02991
2706.54338	0.02984
2705.25761	0.02964
2703.97184	0.02941
2702.68607	0.02927
2701.40031	0.02925
2700.11454	0.02927
2698.82877	0.02926
2697.54300	0.02921
2696.25723	0.02914
2694.97146	0.02906
2693.68569	0.02893
2692.39992	0.02879
2691.11415	0.02869
2689.82839	0.02872
2688.54262	0.02882
2687.25685	0.02890
2685.97108	0.02889
2684.68531	0.02884
2683.39954	0.02879
2682.11377	0.02872
2680.82800	0.02862
2679.54224	0.02845
2678.25647	0.02823
2676.97070	0.02800
2675.68493	0.02787
2674.39916	0.02790
2673.11339	0.02805
2671.82762	0.02822
2670.54185	0.02833
2669.25608	0.02839
2667.97032	0.02842
2666.68455	0.02844
2665.39878	0.02845
2664.11301	0.02851
2662.82724	0.02854
2661.54147	0.02845
2660.25570	0.02821
2658.96993	0.02795
2657.68417	0.02787
2656.39840	0.02795
2655.11263	0.02802
2653.82686	0.02794
2652.54109	0.02773
2651.25532	0.02751
2649.96955	0.02743
2648.68378	0.02753
2647.39801	0.02775
2646.11225	0.02793
2644.82648	0.02791
2643.54071	0.02762
2642.25494	0.02721
2640.96917	0.02695
2639.68340	0.02695
2638.39763	0.02711
2637.11186	0.02715
2635.82609	0.02692
2634.54033	0.02651
2633.25456	0.02615
2631.96879	0.02598
2630.68302	0.02596
2629.39725	0.02588
2628.11148	0.02564
2626.82571	0.02531
2625.53994	0.02507
2624.25418	0.02500
2622.96841	0.02507
2621.68264	0.02519
2620.39687	0.02525
2619.11110	0.02524
2617.82533	0.02523
2616.53956	0.02525
2615.25379	0.02525
2613.96802	0.02508
2612.68226	0.02479
2611.39649	0.02459
2610.11072	0.02466
2608.82495	0.02491
2607.53918	0.02507
2606.25341	0.02500
2604.96764	0.02476
2603.68187	0.02446
2602.39611	0.02406
2601.11034	0.02359
2599.82457	0.02327
2598.53880	0.02330
2597.25303	0.02361
2595.96726	0.02390
2594.68149	0.02398
2593.39572	0.02389
2592.10995	0.02379
2590.82419	0.02381
2589.53842	0.02392
2588.25265	0.02396
2586.96688	0.02378
2585.68111	0.02339
2584.39534	0.02288
2583.10957	0.02226
2581.82380	0.02157
2580.53804	0.02106
2579.25227	0.02106
2577.96650	0.02170
2576.68073	0.02269
2575.39496	0.02352
2574.10919	0.02379
2572.82342	0.02351
2571.53765	0.02300
2570.25188	0.02260
2568.96612	0.02240
2567.68035	0.02226
2566.39458	0.02196
2565.10881	0.02146
2563.82304	0.02101
2562.53727	0.02089
2561.25150	0.02112
2559.96573	0.02140
2558.67997	0.02146
2557.39420	0.02131
2556.10843	0.02121
2554.82266	0.02133
2553.53689	0.02168
2552.25112	0.02213
2550.96535	0.02250
2549.67958	0.02273
2548.39381	0.02281
2547.10805	0.02280
2545.82228	0.02279
2544.53651	0.02278
2543.25074	0.02274
2541.96497	0.02263
2540.67920	0.02246
2539.39343	0.02227
2538.10766	0.02209
2536.82190	0.02190
2535.53613	0.02171
2534.25036	0.02154
2532.96459	0.02135
2531.67882	0.02110
2530.39305	0.02073
2529.10728	0.02030
2527.82151	0.01998
2526.53574	0.01997
2525.24998	0.02032
2523.96421	0.02086
2522.67844	0.02131
2521.39267	0.02145
2520.10690	0.02129
2518.82113	0.02099
2517.53536	0.02076
2516.24959	0.02068
2514.96383	0.02081
2513.67806	0.02116
2512.39229	0.02163
2511.10652	0.02196
2509.82075	0.02188
2508.53498	0.02142
2507.24921	0.02087
2505.96344	0.02050
2504.67767	0.02036
2503.39191	0.02040
2502.10614	0.02055
2500.82037	0.02072
2499.53460	0.02074
2498.24883	0.02044
2496.96306	0.01986
2495.67729	0.01924
2494.39152	0.01892
2493.10576	0.01909
2491.81999	0.01964
2490.53422	0.02023
2489.24845	0.02061
2487.96268	0.02071
2486.67691	0.02070
2485.39114	0.02076
2484.10537	0.02093
2482.81960	0.02112
2481.53384	0.02118
2480.24807	0.02097
2478.96230	0.02055
2477.67653	0.02016
2476.39076	0.02001
2475.10499	0.02008
2473.81922	0.02019
2472.53345	0.02020
2471.24769	0.02018
2469.96192	0.02021
2468.67615	0.02028
2467.39038	0.02034
2466.10461	0.02032
2464.81884	0.02025
2463.53307	0.02013
2462.24730	0.02007
2460.96153	0.02019
2459.67577	0.02053
2458.39000	0.02087
2457.10423	0.02089
2455.81846	0.02048
2454.53269	0.01990
2453.24692	0.01954
2451.96115	0.01960
2450.67538	0.01999
2449.38962	0.02056
2448.10385	0.02115
2446.81808	0.02152
2445.53231	0.02146
2444.24654	0.02100
2442.96077	0.02047
2441.67500	0.02011
2440.38923	0.01986
2439.10346	0.01960
2437.81770	0.01942
2436.53193	0.01950
2435.24616	0.01986
2433.96039	0.02027
2432.67462	0.02058
2431.38885	0.02077
2430.10308	0.02082
2428.81731	0.02072
2427.53155	0.02049
2426.24578	0.02027
2424.96001	0.02014
2423.67424	0.02012
2422.38847	0.02018
2421.10270	0.02032
2419.81693	0.02046
2418.53116	0.02044
2417.24539	0.02018
2415.95963	0.01975
2414.67386	0.01928
2413.38809	0.01890
2412.10232	0.01872
2410.81655	0.01880
2409.53078	0.01907
2408.24501	0.01938
2406.95924	0.01956
2405.67347	0.01962
2404.38771	0.01961
2403.10194	0.01959
2401.81617	0.01959
2400.53040	0.01957
2399.24463	0.01897
2397.95886	0.01880
2396.67309	0.01894
2395.38732	0.01911
2394.10156	0.01927
2392.81579	0.01941
2391.53002	0.01951
2390.24425	0.01954
2388.95848	0.01956
2387.67271	0.01962
2386.38694	0.01975
2385.10117	0.01988
2383.81540	0.01990
2382.52964	0.01976
2381.24387	0.01958
2379.95810	0.01953
2378.67233	0.01967
2377.38656	0.01991
2376.10079	0.02006
2374.81502	0.02003
2373.52925	0.01989
2372.24349	0.01968
2370.95772	0.01942
2369.67195	0.01904
2368.38618	0.01859
2367.10041	0.01818
2365.81464	0.01788
2364.52887	0.01770
2363.24310	0.01773
2361.95733	0.01798
2360.67157	0.01840
2359.38580	0.01876
2358.10003	0.01897
2356.81426	0.01913
2355.52849	0.01930
2354.24272	0.01946
2352.95695	0.01961
2351.67118	0.01985
2350.38542	0.02010
2349.09965	0.02018
2347.81388	0.02016
2346.52811	0.02040
2345.24234	0.02081
2343.95657	0.02094
2342.67080	0.02071
2341.38503	0.02068
2340.09926	0.02082
2338.81350	0.02027
2337.52773	0.01919
2336.24196	0.01870
2334.95619	0.01851
2333.67042	0.01732
2332.38465	0.01541
2331.09888	0.01410
2329.81311	0.01288
2328.52735	0.01140
2327.24158	0.01131
2325.95581	0.01278
2324.67004	0.01484
2323.38427	0.01765
2322.09850	0.02075
2320.81273	0.02288
2319.52696	0.02434
2318.24119	0.02515
2316.95543	0.02515
2315.66966	0.02506
2314.38389	0.02501
2313.09812	0.02473
2311.81235	0.02435
2310.52658	0.02359
2309.24081	0.02254
2307.95504	0.02147
2306.66928	0.02044
2305.38351	0.01968
2304.09774	0.01917
2302.81197	0.01878
2301.52620	0.01841
2300.24043	0.01788
2298.95466	0.01718
2297.66889	0.01637
2296.38312	0.01571
2295.09736	0.01542
2293.81159	0.01552
2292.52582	0.01582
2291.24005	0.01609
2289.95428	0.01626
2288.66851	0.01648
2287.38274	0.01694
2286.09697	0.01773
2284.81121	0.01873
2283.52544	0.01968
2282.23967	0.02032
2280.95390	0.02053
2279.66813	0.02040
2278.38236	0.02005
2277.09659	0.01954
2275.81082	0.01891
2274.52505	0.01836
2273.23929	0.01815
2271.95352	0.01840
2270.66775	0.01885
2269.38198	0.01902
2268.09621	0.01864
2266.81044	0.01782
2265.52467	0.01690
2264.23890	0.01611
2262.95314	0.01553
2261.66737	0.01519
2260.38160	0.01509
2259.09583	0.01518
2257.81006	0.01535
2256.52429	0.01538
2255.23852	0.01503
2253.95275	0.01420
2252.66698	0.01286
2251.38122	0.01137
2250.09545	0.01106
2248.80968	0.01274
2247.52391	0.01295
2246.23814	0.01363
2244.95237	0.01435
2243.66660	0.01467
2242.38083	0.01464
2241.09507	0.01454
2239.80930	0.01458
2238.52353	0.01472
2237.23776	0.01468
2235.95199	0.01416
2234.66622	0.01325
2233.38045	0.01235
2232.09468	0.01176
2230.80891	0.01149
2229.52315	0.01152
2228.23738	0.01198
2226.95161	0.01281
2225.66584	0.01355
2224.38007	0.01361
2223.09430	0.01293
2221.80853	0.01199
2220.52276	0.01138
2219.23700	0.01126
2217.95123	0.01138
2216.66546	0.01140
2215.37969	0.01129
2214.09392	0.01133
2212.80815	0.01173
2211.52238	0.01220
2210.23661	0.01218
2208.95084	0.01152
2207.66508	0.01076
2206.37931	0.01054
2205.09354	0.01091
2203.80777	0.01134
2202.52200	0.01124
2201.23623	0.01055
2199.95046	0.00974
2198.66469	0.00944
2197.37893	0.00981
2196.09316	0.01039
2194.80739	0.01062
2193.52162	0.01042
2192.23585	0.01009
2190.95008	0.00991
2189.66431	0.00981
2188.37854	0.00968
2187.09277	0.00968
2185.80701	0.01002
2184.52124	0.01052
2183.23547	0.01081
2181.94970	0.01076
2180.66393	0.01063
2179.37816	0.01057
2178.09239	0.01034
2176.80662	0.00968
2175.52085	0.00875
2174.23509	0.00789
2172.94932	0.00732
2171.66355	0.00696
2170.37778	0.00660
2169.09201	0.00606
2167.80624	0.00543
2166.52047	0.00510
2165.23470	0.00544
2163.94894	0.00623
2162.66317	0.00664
2161.37740	0.00592
2160.09163	0.00400
2158.80586	0.00170
2157.52009	0.00018
2156.23432	0.00012
2154.94855	0.00131
2153.66278	0.00302
2152.37702	0.00454
2151.09125	0.00551
2149.80548	0.00599
2148.51971	0.00632
2147.23394	0.00679
2145.94817	0.00732
2144.66240	0.00766
2143.37663	0.00781
2142.09087	0.00799
2140.80510	0.00819
2139.51933	0.00806
2138.23356	0.00743
2136.94779	0.00658
2135.66202	0.00607
2134.37625	0.00615
2133.09048	0.00670
2131.80471	0.00742
2130.51895	0.00809
2129.23318	0.00858
2127.94741	0.00881
2126.66164	0.00882
2125.37587	0.00877
2124.09010	0.00886
2122.80433	0.00914
2121.51856	0.00958
2120.23280	0.01008
2118.94703	0.01054
2117.66126	0.01088
2116.37549	0.01110
2115.08972	0.01123
2113.80395	0.01120
2112.51818	0.01100
2111.23241	0.01076
2109.94664	0.01071
2108.66088	0.01084
2107.37511	0.01091
2106.08934	0.01074
2104.80357	0.01040
2103.51780	0.00999
2102.23203	0.00955
2100.94626	0.00933
2099.66049	0.01199
2098.37473	0.01360
2097.08896	0.01380
2095.80319	0.01319
2094.51742	0.01218
2093.23165	0.01128
2091.94588	0.01081
2090.66011	0.01058
2089.37434	0.01017
2088.08857	0.00946
2086.80281	0.00868
2085.51704	0.00816
2084.23127	0.00807
2082.94550	0.00834
2081.65973	0.00879
2080.37396	0.00932
2079.08819	0.00987
2077.80242	0.01042
2076.51666	0.01095
2075.23089	0.01138
2073.94512	0.01161
2072.65935	0.01166
2071.37358	0.01160
2070.08781	0.01151
2068.80204	0.01136
2067.51627	0.01110
2066.23050	0.01069
2064.94474	0.01000
2063.65897	0.00898
2062.37320	0.00773
2061.08743	0.00656
2059.80166	0.00572
2058.51589	0.00526
2057.23012	0.00511
2055.94435	0.00523
2054.65859	0.00567
2053.37282	0.00652
2052.08705	0.00776
2050.80128	0.00916
2049.51551	0.01026
2048.22974	0.01068
2046.94397	0.01037
2045.65820	0.00958
2044.37243	0.00848
2043.08667	0.00711
2041.80090	0.00562
2040.51513	0.00450
2039.22936	0.00430
2037.94359	0.00509
2036.65782	0.00635
2035.37205	0.00740
2034.08628	0.00790
2032.80052	0.00791
2031.51475	0.00772
2030.22898	0.00751
2028.94321	0.00720
2027.65744	0.00666
2026.37167	0.00599
2025.08590	0.00556
2023.80013	0.00566
2022.51436	0.00616
2021.22860	0.00665
2019.94283	0.00679
2018.65706	0.00663
2017.37129	0.00645
2016.08552	0.00638
2014.79975	0.00638
2013.51398	0.00641
2012.22821	0.00668
2010.94245	0.00752
2009.65668	0.00899
2008.37091	0.01066
2007.08514	0.01186
2005.79937	0.01220
2004.51360	0.01179
2003.22783	0.01106
2001.94206	0.01022
2000.65629	0.00919
1999.37053	0.00786
1998.08476	0.00642
1996.79899	0.00533
1995.51322	0.00495
1994.22745	0.00519
1992.94168	0.00565
1991.65591	0.00599
1990.37014	0.00622
1989.08438	0.00653
1987.79861	0.00710
1986.51284	0.00792
1985.22707	0.00884
1983.94130	0.00973
1982.65553	0.01072
1981.36976	0.01213
1980.08399	0.01403
1978.79822	0.01579
1977.51246	0.01641
1976.22669	0.01551
1974.94092	0.01371
1973.65515	0.01206
1972.36938	0.01120
1971.08361	0.01105
1969.79784	0.01106
1968.51207	0.01084
1967.22631	0.01052
1965.94054	0.01051
1964.65477	0.01096
1963.36900	0.01157
1962.08323	0.01193
1960.79746	0.01190
1959.51169	0.01153
1958.22592	0.01093
1956.94015	0.01027
1955.65439	0.00987
1954.36862	0.00998
1953.08285	0.01046
1951.79708	0.01078
1950.51131	0.01065
1949.22554	0.01032
1947.93977	0.01036
1946.65400	0.01098
1945.36823	0.01191
1944.08247	0.01275
1942.79670	0.01325
1941.51093	0.01337
1940.22516	0.01319
1938.93939	0.01281
1937.65362	0.01234
1936.36785	0.01200
1935.08208	0.01198
1933.79632	0.01231
1932.51055	0.01276
1931.22478	0.01301
1929.93901	0.01286
1928.65324	0.01244
1927.36747	0.01199
1926.08170	0.01177
1924.79593	0.01188
1923.51016	0.01227
1922.22440	0.01274
1920.93863	0.01306
1919.65286	0.01306
1918.36709	0.01280
1917.08132	0.01249
1915.79555	0.01235
1914.50978	0.01240
1913.22401	0.01256
1911.93825	0.01269
1910.65248	0.01272
1909.36671	0.01265
1908.08094	0.01255
1906.79517	0.01249
1905.50940	0.01250
1904.22363	0.01258
1902.93786	0.01268
1901.65209	0.01280
1900.36633	0.01297
1899.08056	0.01322
1897.79479	0.01349
1896.50902	0.01365
1895.22325	0.01363
1893.93748	0.01344
1892.65171	0.01318
1891.36594	0.01293
1890.08018	0.01270
1888.79441	0.01248
1887.50864	0.01229
1886.22287	0.01225
1884.93710	0.01243
1883.65133	0.01279
1882.36556	0.01324
1881.07979	0.01367
1879.79402	0.01399
1878.50826	0.01407
1877.22249	0.01384
1875.93672	0.01334
1874.65095	0.01274
1873.36518	0.01233
1872.07941	0.01229
1870.79364	0.01258
1869.50787	0.01294
1868.22211	0.01311
1866.93634	0.01307
1865.65057	0.01299
1864.36480	0.01300
1863.07903	0.01308
1861.79326	0.01310
1860.50749	0.01303
1859.22172	0.01294
1857.93595	0.01292
1856.65019	0.01298
1855.36442	0.01308
1854.07865	0.01318
1852.79288	0.01328
1851.50711	0.01342
1850.22134	0.01355
1848.93557	0.01361
1847.64980	0.01360
1846.36404	0.01358
1845.07827	0.01360
1843.79250	0.01355
1842.50673	0.01335
1841.22096	0.01307
1839.93519	0.01285
1838.64942	0.01274
1837.36365	0.01270
1836.07788	0.01268
1834.79212	0.01269
1833.50635	0.01280
1832.22058	0.01301
1830.93481	0.01323
1829.64904	0.01335
1828.36327	0.01337
1827.07750	0.01343
1825.79173	0.01361
1824.50597	0.01387
1823.22020	0.01418
1821.93443	0.01451
1820.64866	0.01477
1819.36289	0.01479
1818.07712	0.01447
1816.79135	0.01392
1815.50558	0.01337
1814.21981	0.01300
1812.93405	0.01282
1811.64828	0.01271
1810.36251	0.01259
1809.07674	0.01246
1807.79097	0.01238
1806.50520	0.01238
1805.21943	0.01246
1803.93366	0.01258
1802.64790	0.01269
1801.36213	0.01276
1800.07636	0.01283
1798.79059	0.01298
1797.50482	0.01322
1796.21905	0.01345
1794.93328	0.01360
1793.64751	0.01368
1792.36174	0.01368
1791.07598	0.01363
1789.79021	0.01359
1788.50444	0.01362
1787.21867	0.01372
1785.93290	0.01381
1784.64713	0.01381
1783.36136	0.01375
1782.07559	0.01374
1780.78983	0.01381
1779.50406	0.01387
1778.21829	0.01385
1776.93252	0.01373
1775.64675	0.01359
1774.36098	0.01352
1773.07521	0.01349
1771.78944	0.01338
1770.50367	0.01321
1769.21791	0.01311
1767.93214	0.01310
1766.64637	0.01311
1765.36060	0.01317
1764.07483	0.01332
1762.78906	0.01348
1761.50329	0.01354
1760.21752	0.01352
1758.93176	0.01354
1757.64599	0.01358
1756.36022	0.01352
1755.07445	0.01333
1753.78868	0.01317
1752.50291	0.01315
1751.21714	0.01320
1749.93137	0.01319
1748.64560	0.01317
1747.35984	0.01320
1746.07407	0.01330
1744.78830	0.01339
1743.50253	0.01347
1742.21676	0.01354
1740.93099	0.01363
1739.64522	0.01369
1738.35945	0.01370
1737.07369	0.01381
1735.78792	0.01412
1734.50215	0.01442
1733.21638	0.01443
1731.93061	0.01422
1730.64484	0.01405
1729.35907	0.01402
1728.07330	0.01402
1726.78753	0.01396
1725.50177	0.01389
1724.21600	0.01388
1722.93023	0.01396
1721.64446	0.01416
1720.35869	0.01455
1719.07292	0.01509
1717.78715	0.01552
1716.50138	0.01567
1715.21561	0.01562
1713.92985	0.01560
1712.64408	0.01570
1711.35831	0.01591
1710.07254	0.01619
1708.78677	0.01649
1707.50100	0.01679
1706.21523	0.01705
1704.92946	0.01726
1703.64370	0.01758
1702.35793	0.01817
1701.07216	0.01887
1699.78639	0.01936
1698.50062	0.01971
1697.21485	0.02021
1695.92908	0.02079
1694.64331	0.02116
1693.35754	0.02136
1692.07178	0.02167
1690.78601	0.02212
1689.50024	0.02259
1688.21447	0.02312
1686.92870	0.02388
1685.64293	0.02480
1684.35716	0.02553
1683.07139	0.02585
1681.78563	0.02600
1680.49986	0.02627
1679.21409	0.02671
1677.92832	0.02733
1676.64255	0.02807
1675.35678	0.02874
1674.07101	0.02921
1672.78524	0.02963
1671.49947	0.03019
1670.21371	0.03086
1668.92794	0.03146
1667.64217	0.03190
1666.35640	0.03230
1665.07063	0.03280
1663.78486	0.03335
1662.49909	0.03382
1661.21332	0.03417
1659.92756	0.03444
1658.64179	0.03469
1657.35602	0.03497
1656.07025	0.03550
1654.78448	0.03631
1653.49871	0.03703
1652.21294	0.03717
1650.92717	0.03682
1649.64140	0.03657
1648.35564	0.03674
1647.06987	0.03710
1645.78410	0.03732
1644.49833	0.03731
1643.21256	0.03720
1641.92679	0.03707
1640.64102	0.03692
1639.35525	0.03679
1638.06949	0.03679
1636.78372	0.03689
1635.49795	0.03685
1634.21218	0.03652
1632.92641	0.03606
1631.64064	0.03571
1630.35487	0.03551
1629.06910	0.03536
1627.78333	0.03516
1626.49757	0.03489
1625.21180	0.03460
1623.92603	0.03426
1622.64026	0.03378
1621.35449	0.03320
1620.06872	0.03273
1618.78295	0.03252
1617.49718	0.03244
1616.21142	0.03222
1614.92565	0.03182
1613.63988	0.03144
1612.35411	0.03120
1611.06834	0.03109
1609.78257	0.03103
1608.49680	0.03100
1607.21103	0.03095
1605.92526	0.03085
1604.63950	0.03071
1603.35373	0.03059
1602.06796	0.03053
1600.78219	0.03054
1599.49642	0.03057
1598.21065	0.03062
1596.92488	0.03069
1595.63911	0.03080
1594.35335	0.03090
1593.06758	0.03096
1591.78181	0.03099
1590.49604	0.03104
1589.21027	0.03112
1587.92450	0.03124
1586.63873	0.03137
1585.35296	0.03149
1584.06719	0.03158
1582.78143	0.03166
1581.49566	0.03174
1580.20989	0.03189
1578.92412	0.03218
1577.63835	0.03263
1576.35258	0.03298
1575.06681	0.03307
1573.78104	0.03301
1572.49528	0.03308
1571.20951	0.03333
1569.92374	0.03359
1568.63797	0.03374
1567.35220	0.03384
1566.06643	0.03399
1564.78066	0.03415
1563.49489	0.03435
1562.20912	0.03473
1560.92336	0.03535
1559.63759	0.03590
1558.35182	0.03604
1557.06605	0.03585
1555.78028	0.03570
1554.49451	0.03574
1553.20874	0.03584
1551.92297	0.03591
1550.63721	0.03601
1549.35144	0.03613
1548.06567	0.03626
1546.77990	0.03638
1545.49413	0.03646
1544.20836	0.03649
1542.92259	0.03656
1541.63682	0.03674
1540.35105	0.03691
1539.06529	0.03686
1537.77952	0.03659
1536.49375	0.03639
1535.20798	0.03645
1533.92221	0.03664
1532.63644	0.03677
1531.35067	0.03683
1530.06490	0.03692
1528.77914	0.03712
1527.49337	0.03738
1526.20760	0.03765
1524.92183	0.03795
1523.63606	0.03840
1522.35029	0.03896
1521.06452	0.03947
1519.77875	0.03983
1518.49298	0.04020
1517.20722	0.04069
1515.92145	0.04122
1514.63568	0.04174
1513.34991	0.04226
1512.06414	0.04280
1510.77837	0.04343
1509.49260	0.04429
1508.20683	0.04540
1506.92107	0.04651
1505.63530	0.04727
1504.34953	0.04769
1503.06376	0.04806
1501.77799	0.04856
1500.49222	0.04918
1499.20645	0.04982
1497.92068	0.05044
1496.63491	0.05094
1495.34915	0.05128
1494.06338	0.05155
1492.77761	0.05191
1491.49184	0.05241
1490.20607	0.05296
1488.92030	0.05349
1487.63453	0.05401
1486.34876	0.05457
1485.06299	0.05521
1483.77723	0.05595
1482.49146	0.05678
1481.20569	0.05764
1479.91992	0.05849
1478.63415	0.05930
1477.34838	0.06011
1476.06261	0.06092
1474.77684	0.06174
1473.49108	0.06254
1472.20531	0.06317
1470.91954	0.06361
1469.63377	0.06396
1468.34800	0.06432
1467.06223	0.06472
1465.77646	0.06508
1464.49069	0.06533
1463.20492	0.06550
1461.91916	0.06571
1460.63339	0.06611
1459.34762	0.06678
1458.06185	0.06760
1456.77608	0.06829
1455.49031	0.06868
1454.20454	0.06890
1452.91877	0.06915
1451.63301	0.06945
1450.34724	0.06975
1449.06147	0.06999
1447.77570	0.07009
1446.48993	0.06999
1445.20416	0.06972
1443.91839	0.06932
1442.63262	0.06882
1441.34685	0.06824
1440.06109	0.06770
1438.77532	0.06734
1437.48955	0.06713
1436.20378	0.06693
1434.91801	0.06674
1433.63224	0.06669
1432.34647	0.06693
1431.06070	0.06741
1429.77494	0.06803
1428.48917	0.06874
1427.20340	0.06955
1425.91763	0.07053
1424.63186	0.07165
1423.34609	0.07280
1422.06032	0.07395
1420.77455	0.07508
1419.48878	0.07607
1418.20302	0.07684
1416.91725	0.07745
1415.63148	0.07798
1414.34571	0.07841
1413.05994	0.07870
1411.77417	0.07883
1410.48840	0.07882
1409.20263	0.07861
1407.91687	0.07820
1406.63110	0.07760
1405.34533	0.07687
1404.05956	0.07603
1402.77379	0.07510
1401.48802	0.07409
1400.20225	0.07296
1398.91648	0.07170
1397.63071	0.07032
1396.34495	0.06890
1395.05918	0.06745
1393.77341	0.06596
1392.48764	0.06446
1391.20187	0.06304
1389.91610	0.06175
1388.63033	0.06054
1387.34456	0.05930
1386.05880	0.05796
1384.77303	0.05656
1383.48726	0.05516
1382.20149	0.05378
1380.91572	0.05245
1379.62995	0.05114
1378.34418	0.04979
1377.05841	0.04839
1375.77264	0.04698
1374.48688	0.04559
1373.20111	0.04423
1371.91534	0.04288
1370.62957	0.04154
1369.34380	0.04026
1368.05803	0.03907
1366.77226	0.03798
1365.48649	0.03698
1364.20073	0.03604
1362.91496	0.03512
1361.62919	0.03423
1360.34342	0.03337
1359.05765	0.03255
1357.77188	0.03177
1356.48611	0.03106
1355.20034	0.03041
1353.91457	0.02982
1352.62881	0.02931
1351.34304	0.02887
1350.05727	0.02847
1348.77150	0.02807
1347.48573	0.02766
1346.19996	0.02726
1344.91419	0.02690
1343.62842	0.02657
1342.34266	0.02627
1341.05689	0.02600
1339.77112	0.02576
1338.48535	0.02554
1337.19958	0.02534
1335.91381	0.02513
1334.62804	0.02490
1333.34227	0.02467
1332.05650	0.02445
1330.77074	0.02420
1329.48497	0.02393
1328.19920	0.02365
1326.91343	0.02340
1325.62766	0.02319
1324.34189	0.02300
1323.05612	0.02281
1321.77035	0.02261
1320.48459	0.02239
1319.19882	0.02216
1317.91305	0.02196
1316.62728	0.02178
1315.34151	0.02163
1314.05574	0.02148
1312.76997	0.02131
1311.48420	0.02112
1310.19843	0.02097
1308.91267	0.02087
1307.62690	0.02078
1306.34113	0.02067
1305.05536	0.02053
1303.76959	0.02038
1302.48382	0.02024
1301.19805	0.02008
1299.91228	0.01990
1298.62652	0.01972
1297.34075	0.01958
1296.05498	0.01950
1294.76921	0.01946
1293.48344	0.01939
1292.19767	0.01927
1290.91190	0.01913
1289.62613	0.01901
1288.34036	0.01894
1287.05460	0.01888
1285.76883	0.01883
1284.48306	0.01877
1283.19729	0.01874
1281.91152	0.01870
1280.62575	0.01864
1279.33998	0.01854
1278.05421	0.01842
1276.76845	0.01832
1275.48268	0.01822
1274.19691	0.01812
1272.91114	0.01802
1271.62537	0.01792
1270.33960	0.01782
1269.05383	0.01775
1267.76806	0.01771
1266.48229	0.01768
1265.19653	0.01764
1263.91076	0.01759
1262.62499	0.01752
1261.33922	0.01744
1260.05345	0.01738
1258.76768	0.01734
1257.48191	0.01731
1256.19614	0.01728
1254.91037	0.01726
1253.62461	0.01724
1252.33884	0.01724
1251.05307	0.01726
1249.76730	0.01728
1248.48153	0.01727
1247.19576	0.01721
1245.90999	0.01711
1244.62422	0.01699
1243.33846	0.01687
1242.05269	0.01678
1240.76692	0.01674
1239.48115	0.01675
1238.19538	0.01676
1236.90961	0.01673
1235.62384	0.01665
1234.33807	0.01653
1233.05230	0.01640
1231.76654	0.01628
1230.48077	0.01617
1229.19500	0.01605
1227.90923	0.01593
1226.62346	0.01581
1225.33769	0.01567
1224.05192	0.01551
1222.76615	0.01532
1221.48039	0.01514
1220.19462	0.01498
1218.90885	0.01482
1217.62308	0.01463
1216.33731	0.01444
1215.05154	0.01428
1213.76577	0.01419
1212.48000	0.01416
1211.19423	0.01414
1209.90847	0.01414
1208.62270	0.01418
1207.33693	0.01428
1206.05116	0.01440
1204.76539	0.01450
1203.47962	0.01455
1202.19385	0.01456
1200.90808	0.01440
1199.62232	0.01400
1198.33655	0.01393
1197.05078	0.01384
1195.76501	0.01374
1194.47924	0.01367
1193.19347	0.01364
1191.90770	0.01360
1190.62193	0.01354
1189.33616	0.01346
1188.05040	0.01337
1186.76463	0.01329
1185.47886	0.01323
1184.19309	0.01319
1182.90732	0.01318
1181.62155	0.01318
1180.33578	0.01320
1179.05001	0.01320
1177.76425	0.01320
1176.47848	0.01318
1175.19271	0.01317
1173.90694	0.01318
1172.62117	0.01323
1171.33540	0.01329
1170.04963	0.01336
1168.76386	0.01344
1167.47809	0.01355
1166.19233	0.01371
1164.90656	0.01388
1163.62079	0.01403
1162.33502	0.01416
1161.04925	0.01427
1159.76348	0.01437
1158.47771	0.01449
1157.19194	0.01463
1155.90618	0.01479
1154.62041	0.01494
1153.33464	0.01508
1152.04887	0.01521
1150.76310	0.01538
1149.47733	0.01560
1148.19156	0.01592
1146.90579	0.01630
1145.62002	0.01673
1144.33426	0.01718
1143.04849	0.01764
1141.76272	0.01811
1140.47695	0.01865
1139.19118	0.01929
1137.90541	0.02008
1136.61964	0.02102
1135.33387	0.02212
1134.04811	0.02336
1132.76234	0.02473
1131.47657	0.02620
1130.19080	0.02777
1128.90503	0.02942
1127.61926	0.03116
1126.33349	0.03303
1125.04772	0.03510
1123.76195	0.03737
1122.47619	0.03981
1121.19042	0.04236
1119.90465	0.04496
1118.61888	0.04755
1117.33311	0.05015
1116.04734	0.05284
1114.76157	0.05564
1113.47580	0.05847
1112.19004	0.06124
1110.90427	0.06392
1109.61850	0.06649
1108.33273	0.06896
1107.04696	0.07136
1105.76119	0.07373
1104.47542	0.07611
1103.18965	0.07847
1101.90388	0.08075
1100.61812	0.08290
1099.33235	0.08493
1098.04658	0.08685
1096.76081	0.08869
1095.47504	0.09048
1094.18927	0.09224
1092.90350	0.09400
1091.61773	0.09571
1090.33197	0.09734
1089.04620	0.09885
1087.76043	0.10025
1086.47466	0.10161
1085.18889	0.10298
1083.90312	0.10437
1082.61735	0.10581
1081.33158	0.10734
1080.04581	0.10901
1078.76005	0.11082
1077.47428	0.11279
1076.18851	0.11490
1074.90274	0.11716
1073.61697	0.11951
1072.33120	0.12192
1071.04543	0.12437
1069.75966	0.12687
1068.47390	0.12949
1067.18813	0.13225
1065.90236	0.13512
1064.61659	0.13804
1063.33082	0.14096
1062.04505	0.14381
1060.75928	0.14657
1059.47351	0.14920
1058.18774	0.15177
1056.90198	0.15441
1055.61621	0.15714
1054.33044	0.15990
1053.04467	0.16260
1051.75890	0.16525
1050.47313	0.16793
1049.18736	0.17071
1047.90159	0.17359
1046.61583	0.17648
1045.33006	0.17936
1044.04429	0.18226
1042.75852	0.18520
1041.47275	0.18817
1040.18698	0.19112
1038.90121	0.19408
1037.61544	0.19708
1036.32967	0.20019
1035.04391	0.20335
1033.75814	0.20645
1032.47237	0.20930
1031.18660	0.21181
1029.90083	0.21398
1028.61506	0.21590
1027.32929	0.21765
1026.04352	0.21924
1024.75775	0.22060
1023.47199	0.22163
1022.18622	0.22232
1020.90045	0.22265
1019.61468	0.22259
1018.32891	0.22208
1017.04314	0.22113
1015.75737	0.21979
1014.47160	0.21810
1013.18584	0.21602
1011.90007	0.21350
1010.61430	0.21055
1009.32853	0.20721
1008.04276	0.20348
1006.75699	0.19940
1005.47122	0.19499
1004.18545	0.19025
1002.89968	0.18512
1001.61392	0.17965
1000.32815	0.17393
999.04238	0.16814
997.75661	0.16239
996.47084	0.15666
995.18507	0.15088
993.89930	0.14505
992.61353	0.13924
991.32777	0.13361
990.04200	0.12825
988.75623	0.12315
987.47046	0.11826
986.18469	0.11356
984.89892	0.10907
983.61315	0.10487
982.32738	0.10095
981.04161	0.09728
979.75585	0.09383
978.47008	0.09061
977.18431	0.08763
975.89854	0.08490
974.61277	0.08248
973.32700	0.08045
972.04123	0.07890
970.75546	0.07783
969.46970	0.07722
968.18393	0.07703
966.89816	0.07727
965.61239	0.07794
964.32662	0.07893
963.04085	0.07998
961.75508	0.08081
960.46931	0.08119
959.18354	0.08101
957.89778	0.08023
956.61201	0.07893
955.32624	0.07721
954.04047	0.07520
952.75470	0.07309
951.46893	0.07100
950.18316	0.06898
948.89739	0.06703
947.61163	0.06513
946.32586	0.06328
945.04009	0.06156
943.75432	0.05999
942.46855	0.05851
941.18278	0.05705
939.89701	0.05557
938.61124	0.05414
937.32547	0.05284
936.03971	0.05165
934.75394	0.05058
933.46817	0.04961
932.18240	0.04873
930.89663	0.04791
929.61086	0.04708
928.32509	0.04626
927.03932	0.04549
925.75356	0.04478
924.46779	0.04411
923.18202	0.04349
921.89625	0.04293
920.61048	0.04242
919.32471	0.04197
918.03894	0.04151
916.75317	0.04100
915.46740	0.04042
914.18164	0.03982
912.89587	0.03931
911.61010	0.03892
910.32433	0.03860
909.03856	0.03828
907.75279	0.03792
906.46702	0.03753
905.18125	0.03717
903.89549	0.03688
902.60972	0.03666
901.32395	0.03640
900.03818	0.03608
898.75241	0.03573
897.46664	0.03541
896.18087	0.03514
894.89510	0.03492
893.60933	0.03478
892.32357	0.03475
891.03780	0.03476
889.75203	0.03481
888.46626	0.03493
887.18049	0.03523
885.89472	0.03587
884.60895	0.03699
883.32318	0.03871
882.03742	0.04095
880.75165	0.04334
879.46588	0.04541
878.18011	0.04688
876.89434	0.04789
875.60857	0.04882
874.32280	0.04986
873.03703	0.05087
871.75126	0.05154
870.46550	0.05166
869.17973	0.05114
867.89396	0.05001
866.60819	0.04839
865.32242	0.04647
864.03665	0.04446
862.75088	0.04258
861.46511	0.04094
860.17935	0.03960
858.89358	0.03854
857.60781	0.03769
856.32204	0.03697
855.03627	0.03628
853.75050	0.03559
852.46473	0.03494
851.17896	0.03438
849.89319	0.03394
848.60743	0.03359
847.32166	0.03326
846.03589	0.03291
844.75012	0.03255
843.46435	0.03226
842.17858	0.03205
840.89281	0.03189
839.60704	0.03172
838.32128	0.03149
837.03551	0.03118
835.74974	0.03084
834.46397	0.03056
833.17820	0.03041
831.89243	0.03037
830.60666	0.03032
829.32089	0.03019
828.03512	0.02998
826.74936	0.02978
825.46359	0.02964
824.17782	0.02956
822.89205	0.02952
821.60628	0.02950
820.32051	0.02947
819.03474	0.02939
817.74897	0.02924
816.46321	0.02909
815.17744	0.02906
813.89167	0.02915
812.60590	0.02925
811.32013	0.02924
810.03436	0.02907
808.74859	0.02881
807.46282	0.02857
806.17705	0.02844
804.89129	0.02842
803.60552	0.02848
802.31975	0.02852
801.03398	0.02850
799.74821	0.02841
798.46244	0.02831
797.17667	0.02821
795.89090	0.02812
794.60513	0.02800
793.31937	0.02788
792.03360	0.02779
790.74783	0.02781
789.46206	0.02792
788.17629	0.02804
786.89052	0.02806
785.60475	0.02795
784.31898	0.02775
783.03322	0.02752
781.74745	0.02732
780.46168	0.02724
779.17591	0.02730
777.89014	0.02745
776.60437	0.02757
775.31860	0.02762
774.03283	0.02763
772.74706	0.02760
771.46130	0.02755
770.17553	0.02749
768.88976	0.02742
767.60399	0.02737
766.31822	0.02738
765.03245	0.02745
763.74668	0.02755
762.46091	0.02764
761.17515	0.02776
759.88938	0.02795
758.60361	0.02814
757.31784	0.02822
756.03207	0.02815
754.74630	0.02798
753.46053	0.02784
752.17476	0.02780
750.88899	0.02785
749.60323	0.02792
748.31746	0.02792
747.03169	0.02780
745.74592	0.02759
744.46015	0.02732
743.17438	0.02703
741.88861	0.02680
740.60284	0.02667
739.31708	0.02665
738.03131	0.02675
736.74554	0.02693
735.45977	0.02711
734.17400	0.02716
732.88823	0.02703
731.60246	0.02684
730.31669	0.02676
729.03092	0.02684
727.74516	0.02696
726.45939	0.02702
725.17362	0.02701
723.88785	0.02633
722.60208	0.02702
721.31631	0.02831
720.03054	0.02937
718.74477	0.03005
717.45901	0.03037
716.17324	0.03030
714.88747	0.02988
713.60170	0.02922
712.31593	0.02850
711.03016	0.02789
709.74439	0.02749
708.45862	0.02729
707.17285	0.02720
705.88709	0.02711
704.60132	0.02702
703.31555	0.02697
702.02978	0.02700
700.74401	0.02715
699.45824	0.02740
698.17247	0.02775
696.88670	0.02816
695.60094	0.02856
694.31517	0.02889
693.02940	0.02908
691.74363	0.02915
690.45786	0.02912
689.17209	0.02903
687.88632	0.02887
686.60055	0.02861
685.31478	0.02826
684.02902	0.02786
682.74325	0.02750
681.45748	0.02722
680.17171	0.02703
678.88594	0.02689
677.60017	0.02680
676.31440	0.02674
675.02863	0.02673
673.74287	0.02677
672.45710	0.02688
671.17133	0.02706
669.88556	0.02728
668.59979	0.02741
667.31402	0.02741
666.02825	0.02736
664.74248	0.02718
663.45671	0.02696
662.17095	0.02677
660.88518	0.02665
659.59941	0.02663
658.31364	0.02669
657.02787	0.02678
655.74210	0.02687
654.45633	0.02696
653.17056	0.02704
651.88480	0.02713
650.59903	0.02723
649.31326	0.02734
648.02749	0.02744
646.74172	0.02752
645.45595	0.02761
644.17018	0.02774
642.88441	0.02791
641.59864	0.02809
640.31288	0.02820
639.02711	0.02819
637.74134	0.02810
636.45557	0.02803
635.16980	0.02812
633.88403	0.02831
632.59826	0.02845
631.31249	0.02889
630.02673	0.03112
628.74096	0.03450
627.45519	0.03326
626.16942	0.03729
624.88365	0.04478
623.59788	0.05178
622.31211	0.05693
621.02634	0.06013
619.74057	0.06164
618.45481	0.06173
617.16904	0.06073
615.88327	0.05908
614.59750	0.05755
613.31173	0.05732
612.02596	0.05975
610.74019	0.06560
609.45442	0.07390
608.16866	0.08223
606.88289	0.08848
605.59712	0.09213
604.31135	0.09386
603.02558	0.09445
601.73981	0.09411
600.45404	0.09258
599.16827	0.08974
597.88250	0.08600
596.59674	0.08204
595.31097	0.07850
594.02520	0.07570
592.73943	0.07368
591.45366	0.07228
590.16789	0.07134
588.88212	0.07081
587.59635	0.07073
586.31059	0.07114
585.02482	0.07207
583.73905	0.07346
582.45328	0.07524
581.16751	0.07737
579.88174	0.07984
578.59597	0.08258
577.31020	0.08542
576.02443	0.08821
574.73867	0.09092
573.45290	0.09357
572.16713	0.09624
570.88136	0.09908
569.59559	0.10222
568.30982	0.10573
567.02405	0.10942
565.73828	0.11288
564.45251	0.11564
563.16675	0.11735
561.88098	0.11781
560.59521	0.11695
559.30944	0.11480
558.02367	0.11141
556.73790	0.10700
555.45213	0.10188
554.16636	0.09645
552.88060	0.09104
551.59483	0.08587
550.30906	0.08103
549.02329	0.07655
547.73752	0.07245
546.45175	0.06871
545.16598	0.06531
543.88021	0.06223
542.59444	0.05949
541.30868	0.05711
540.02291	0.05506
538.73714	0.05326
537.45137	0.05161
536.16560	0.05007
534.87983	0.04863
533.59406	0.04725
532.30829	0.04592
531.02253	0.04463
529.73676	0.04341
528.45099	0.04231
527.16522	0.04132
525.87945	0.04041
524.59368	0.03952
523.30791	0.03865
522.02214	0.03779
520.73637	0.03697
519.45061	0.03622
518.16484	0.03556
516.87907	0.03498
515.59330	0.03442
514.30753	0.03385
513.02176	0.03323
511.73599	0.03260
510.45022	0.03202
509.16446	0.03153
507.87869	0.03110
506.59292	0.03066
505.30715	0.03017
504.02138	0.02967
502.73561	0.02925
501.44984	0.02891
500.16407	0.02857
498.87830	0.02816
497.59254	0.02771
496.30677	0.02728
495.02100	0.02693
493.73523	0.02668
492.44946	0.02654
491.16369	0.02647
489.87792	0.02641
488.59215	0.02629
487.30639	0.02610
486.02062	0.02591
484.73485	0.02574
483.44908	0.02565
482.16331	0.02561
480.87754	0.02560
479.59177	0.02561
478.30600	0.02564
477.02023	0.02573
475.73447	0.02592
474.44870	0.02619
473.16293	0.02647
471.87716	0.02667
470.59139	0.02675
469.30562	0.02670
468.01985	0.02653
466.73408	0.02627
465.44832	0.02595
464.16255	0.02559
462.87678	0.02525
461.59101	0.02493
460.30524	0.02468
459.01947	0.02449
457.73370	0.02428
456.44793	0.02402
455.16216	0.02369
453.87640	0.02332
452.59063	0.02293
451.30486	0.02256
450.01909	0.02224
448.73332	0.02199
447.44755	0.02181
446.16178	0.02167
444.87601	0.02154
443.59025	0.02137
442.30448	0.02116
441.01871	0.02096
439.73294	0.02082
438.44717	0.02077
437.16140	0.02079
435.87563	0.02079
434.58986	0.02069
433.30409	0.02051
432.01833	0.02034
430.73256	0.02028
429.44679	0.02034
428.16102	0.02043
426.87525	0.02043
425.58948	0.02029
424.30371	0.02006
423.01794	0.01982
421.73218	0.01964
420.44641	0.01952
419.16064	0.01939
417.87487	0.01921
416.58910	0.01902
415.30333	0.01889
414.01756	0.01880
412.73179	0.01872
411.44602	0.01868
410.16026	0.01868
408.87449	0.01875
407.58872	0.01883
406.30295	0.01888
405.01718	0.01889
403.73141	0.01888
402.44564	0.01889
401.15987	0.01894
399.87411	0.01902
