3997.45528	0.02325
3996.16951	0.02294
3994.88374	0.02289
3993.59798	0.02330
3992.31221	0.02387
3991.02644	0.02391
3989.74067	0.02316
3988.45490	0.02219
3987.16913	0.02189
3985.88336	0.02263
3984.59759	0.02392
3983.31183	0.02496
3982.02606	0.02530
3980.74029	0.02499
3979.45452	0.02421
3978.16875	0.02310
3976.88298	0.02190
3975.59721	0.02106
3974.31144	0.02102
3973.02567	0.02184
3971.73991	0.02307
3970.45414	0.02397
3969.16837	0.02411
3967.88260	0.02370
3966.59683	0.02327
3965.31106	0.02304
3964.02529	0.02283
3962.73952	0.02250
3961.45376	0.02227
3960.16799	0.02240
3958.88222	0.02285
3957.59645	0.02342
3956.31068	0.02393
3955.02491	0.02436
3953.73914	0.02472
3952.45337	0.02499
3951.16760	0.02502
3949.88184	0.02460
3948.59607	0.02370
3947.31030	0.02255
3946.02453	0.02151
3944.73876	0.02092
3943.45299	0.02096
3942.16722	0.02158
3940.88145	0.02236
3939.59569	0.02294
3938.30992	0.02334
3937.02415	0.02375
3935.73838	0.02417
3934.45261	0.02436
3933.16684	0.02427
3931.88107	0.02411
3930.59530	0.02409
3929.30953	0.02425
3928.02377	0.02440
3926.73800	0.02435
3925.45223	0.02410
3924.16646	0.02387
3922.88069	0.02380
3921.59492	0.02380
3920.30915	0.02368
3919.02338	0.02339
3917.73762	0.02309
3916.45185	0.02300
3915.16608	0.02307
3913.88031	0.02302
3912.59454	0.02275
3911.30877	0.02245
3910.02300	0.02240
3908.73723	0.02263
3907.45146	0.02288
3906.16570	0.02295
3904.87993	0.02297
3903.59416	0.02325
3902.30839	0.02371
3901.02262	0.02400
3899.73685	0.02396
3898.45108	0.02384
3897.16531	0.02391
3895.87955	0.02406
3894.59378	0.02395
3893.30801	0.02334
3892.02224	0.02246
3890.73647	0.02185
3889.45070	0.02172
3888.16493	0.02177
3886.87916	0.02177
3885.59339	0.02189
3884.30763	0.02219
3883.02186	0.02225
3881.73609	0.02174
3880.45032	0.02103
3879.16455	0.02073
3877.87878	0.02099
3876.59301	0.02152
3875.30724	0.02209
3874.02148	0.02262
3872.73571	0.02283
3871.44994	0.02245
3870.16417	0.02175
3868.87840	0.02137
3867.59263	0.02144
3866.30686	0.02176
3865.02109	0.02237
3863.73532	0.02325
3862.44956	0.02406
3861.16379	0.02448
3859.87802	0.02474
3858.59225	0.02535
3857.30648	0.02620
3856.02071	0.02645
3854.73494	0.02549
3853.44917	0.02390
3852.16341	0.02282
3850.87764	0.02270
3849.59187	0.02325
3848.30610	0.02393
3847.02033	0.02433
3845.73456	0.02428
3844.44879	0.02401
3843.16302	0.02387
3841.87725	0.02394
3840.59149	0.02388
3839.30572	0.02343
3838.01995	0.02288
3836.73418	0.02277
3835.44841	0.02311
3834.16264	0.02339
3832.87687	0.02321
3831.59110	0.02269
3830.30534	0.02220
3829.01957	0.02188
3827.73380	0.02170
3826.44803	0.02173
3825.16226	0.02205
3823.87649	0.02244
3822.59072	0.02272
3821.30495	0.02323
3820.01918	0.02413
3818.73342	0.02469
3817.44765	0.02410
3816.16188	0.02274
3814.87611	0.02169
3813.59034	0.02144
3812.30457	0.02192
3811.01880	0.02294
3809.73303	0.02406
3808.44726	0.02486
3807.16150	0.02553
3805.87573	0.02652
3804.58996	0.02744
3803.30419	0.02737
3802.01842	0.02621
3800.73265	0.02484
3799.44688	0.02392
3798.16111	0.02334
3796.87535	0.02294
3795.58958	0.02279
3794.30381	0.02283
3793.01804	0.02291
3791.73227	0.02298
3790.44650	0.02309
3789.16073	0.02316
3787.87496	0.02295
3786.58919	0.02239
3785.30343	0.02176
3784.01766	0.02156
3782.73189	0.02192
3781.44612	0.02241
3780.16035	0.02260
3778.87458	0.02242
3777.58881	0.02204
3776.30304	0.02165
3775.01728	0.02142
3773.73151	0.02150
3772.44574	0.02180
3771.15997	0.02209
3769.87420	0.02222
3768.58843	0.02211
3767.30266	0.02172
3766.01689	0.02127
3764.73112	0.02114
3763.44536	0.02143
3762.15959	0.02188
3760.87382	0.02212
3759.58805	0.02205
3758.30228	0.02185
3757.01651	0.02196
3755.73074	0.02257
3754.44497	0.02342
3753.15921	0.02408
3751.87344	0.02441
3750.58767	0.02457
3749.30190	0.02494
3748.01613	0.02545
3746.73036	0.02532
3745.44459	0.02420
3744.15882	0.02282
3742.87305	0.02200
3741.58729	0.02178
3740.30152	0.02203
3739.01575	0.02264
3737.72998	0.02322
3736.44421	0.02326
3735.15844	0.02271
3733.87267	0.02181
3732.58690	0.02111
3731.30114	0.02094
3730.01537	0.02109
3728.72960	0.02120
3727.44383	0.02120
3726.15806	0.02137
3724.87229	0.02175
3723.58652	0.02205
3722.30075	0.02208
3721.01498	0.02178
3719.72922	0.02123
3718.44345	0.02091
3717.15768	0.02134
3715.87191	0.02242
3714.58614	0.02333
3713.30037	0.02348
3712.01460	0.02316
3710.72883	0.02290
3709.44307	0.02274
3708.15730	0.02259
3706.87153	0.02229
3705.58576	0.02187
3704.29999	0.02143
3703.01422	0.02117
3701.72845	0.02123
3700.44268	0.02156
3699.15691	0.02192
3697.87115	0.02214
3696.58538	0.02215
3695.29961	0.02195
3694.01384	0.02153
3692.72807	0.02114
3691.44230	0.02082
3690.15653	0.02046
3688.87076	0.02025
3687.58500	0.02054
3686.29923	0.02126
3685.01346	0.02204
3683.72769	0.02271
3682.44192	0.02343
3681.15615	0.02426
3679.87038	0.02489
3678.58461	0.02472
3677.29884	0.02353
3676.01308	0.02212
3674.72731	0.02153
3673.44154	0.02171
3672.15577	0.02169
3670.87000	0.02119
3669.58423	0.02097
3668.29846	0.02155
3667.01269	0.02258
3665.72693	0.02344
3664.44116	0.02378
3663.15539	0.02361
3661.86962	0.02328
3660.58385	0.02318
3659.29808	0.02340
3658.01231	0.02376
3656.72654	0.02414
3655.44077	0.02456
3654.15501	0.02488
3652.86924	0.02464
3651.58347	0.02368
3650.29770	0.02238
3649.01193	0.02138
3647.72616	0.02105
3646.44039	0.02137
3645.15462	0.02189
3643.86886	0.02211
3642.58309	0.02178
3641.29732	0.02116
3640.01155	0.02083
3638.72578	0.02124
3637.44001	0.02238
3636.15424	0.02383
3634.86847	0.02513
3633.58270	0.02607
3632.29694	0.02641
3631.01117	0.02593
3629.72540	0.02497
3628.43963	0.02421
3627.15386	0.02397
3625.86809	0.02404
3624.58232	0.02428
3623.29655	0.02451
3622.01079	0.02444
3620.72502	0.02384
3619.43925	0.02312
3618.15348	0.02294
3616.86771	0.02349
3615.58194	0.02449
3614.29617	0.02548
3613.01040	0.02616
3611.72463	0.02628
3610.43887	0.02582
3609.15310	0.02489
3607.86733	0.02377
3606.58156	0.02282
3605.29579	0.02245
3604.01002	0.02277
3602.72425	0.02346
3601.43848	0.02424
3600.15272	0.02505
3598.86695	0.02579
3597.58118	0.02610
3596.29541	0.02578
3595.00964	0.02501
3593.72387	0.02441
3592.43810	0.02464
3591.15233	0.02554
3589.86656	0.02654
3588.58080	0.02717
3587.29503	0.02729
3586.00926	0.02714
3584.72349	0.02706
3583.43772	0.02725
3582.15195	0.02756
3580.86618	0.02768
3579.58041	0.02733
3578.29464	0.02660
3577.00888	0.02598
3575.72311	0.02589
3574.43734	0.02642
3573.15157	0.02728
3571.86580	0.02816
3570.58003	0.02881
3569.29426	0.02906
3568.00849	0.02898
3566.72273	0.02884
3565.43696	0.02890
3564.15119	0.02910
3562.86542	0.02929
3561.57965	0.02934
3560.29388	0.02925
3559.00811	0.02907
3557.72234	0.02887
3556.43657	0.02867
3555.15081	0.02847
3553.86504	0.02830
3552.57927	0.02820
3551.29350	0.02822
3550.00773	0.02836
3548.72196	0.02864
3547.43619	0.02919
3546.15042	0.03009
3544.86466	0.03112
3543.57889	0.03186
3542.29312	0.03200
3541.00735	0.03161
3539.72158	0.03112
3538.43581	0.03093
3537.15004	0.03113
3535.86427	0.03151
3534.57850	0.03182
3533.29274	0.03202
3532.00697	0.03217
3530.72120	0.03224
3529.43543	0.03210
3528.14966	0.03168
3526.86389	0.03116
3525.57812	0.03082
3524.29235	0.03085
3523.00659	0.03128
3521.72082	0.03198
3520.43505	0.03271
3519.14928	0.03323
3517.86351	0.03342
3516.57774	0.03327
3515.29197	0.03295
3514.00620	0.03268
3512.72043	0.03265
3511.43467	0.03289
3510.14890	0.03333
3508.86313	0.03380
3507.57736	0.03418
3506.29159	0.03438
3505.00582	0.03439
3503.72005	0.03429
3502.43428	0.03422
3501.14852	0.03423
3499.86275	0.03429
3498.57698	0.03431
3497.29121	0.03430
3496.00544	0.03425
3494.71967	0.03413
3493.43390	0.03391
3492.14813	0.03368
3490.86236	0.03363
3489.57660	0.03386
3488.29083	0.03436
3487.00506	0.03501
3485.71929	0.03568
3484.43352	0.03624
3483.14775	0.03659
3481.86198	0.03666
3480.57621	0.03644
3479.29045	0.03601
3478.00468	0.03556
3476.71891	0.03528
3475.43314	0.03524
3474.14737	0.03537
3472.86160	0.03554
3471.57583	0.03562
3470.29006	0.03561
3469.00429	0.03563
3467.71853	0.03581
3466.43276	0.03608
3465.14699	0.03620
3463.86122	0.03599
3462.57545	0.03552
3461.28968	0.03507
3460.00391	0.03490
3458.71814	0.03507
3457.43238	0.03543
3456.14661	0.03576
3454.86084	0.03597
3453.57507	0.03614
3452.28930	0.03638
3451.00353	0.03668
3449.71776	0.03692
3448.43199	0.03699
3447.14622	0.03700
3445.86046	0.03715
3444.57469	0.03753
3443.28892	0.03795
3442.00315	0.03808
3440.71738	0.03779
3439.43161	0.03726
3438.14584	0.03682
3436.86007	0.03671
3435.57431	0.03686
3434.28854	0.03706
3433.00277	0.03715
3431.71700	0.03714
3430.43123	0.03719
3429.14546	0.03732
3427.85969	0.03741
3426.57392	0.03734
3425.28815	0.03725
3424.00239	0.03741
3422.71662	0.03790
3421.43085	0.03861
3420.14508	0.03934
3418.85931	0.03989
3417.57354	0.04009
3416.28777	0.03983
3415.00200	0.03926
3413.71624	0.03873
3412.43047	0.03851
3411.14470	0.03864
3409.85893	0.03896
3408.57316	0.03926
3407.28739	0.03942
3406.00162	0.03941
3404.71585	0.03932
3403.43008	0.03923
3402.14432	0.03916
3400.85855	0.03906
3399.57278	0.03908
3398.28701	0.03932
3397.00124	0.03973
3395.71547	0.04012
3394.42970	0.04028
3393.14393	0.04012
3391.85817	0.03978
3390.57240	0.03948
3389.28663	0.03941
3388.00086	0.03960
3386.71509	0.03981
3385.42932	0.03979
3384.14355	0.03953
3382.85778	0.03930
3381.57201	0.03936
3380.28625	0.03978
3379.00048	0.04032
3377.71471	0.04062
3376.42894	0.04050
3375.14317	0.04010
3373.85740	0.03980
3372.57163	0.03986
3371.28586	0.04020
3370.00010	0.04049
3368.71433	0.04053
3367.42856	0.04034
3366.14279	0.04009
3364.85702	0.03992
3363.57125	0.03986
3362.28548	0.03994
3360.99971	0.04017
3359.71394	0.04045
3358.42818	0.04070
3357.14241	0.04095
3355.85664	0.04134
3354.57087	0.04189
3353.28510	0.04248
3351.99933	0.04291
3350.71356	0.04308
3349.42779	0.04298
3348.14202	0.04265
3346.85626	0.04225
3345.57049	0.04203
3344.28472	0.04210
3342.99895	0.04231
3341.71318	0.04237
3340.42741	0.04218
3339.14164	0.04185
3337.85587	0.04158
3336.57011	0.04149
3335.28434	0.04157
3333.99857	0.04176
3332.71280	0.04193
3331.42703	0.04202
3330.14126	0.04208
3328.85549	0.04217
3327.56972	0.04226
3326.28395	0.04230
3324.99819	0.04229
3323.71242	0.04232
3322.42665	0.04240
3321.14088	0.04248
3319.85511	0.04250
3318.56934	0.04253
3317.28357	0.04267
3315.99780	0.04288
3314.71204	0.04293
3313.42627	0.04262
3312.14050	0.04209
3310.85473	0.04164
3309.56896	0.04149
3308.28319	0.04164
3306.99742	0.04192
3305.71165	0.04220
3304.42588	0.04246
3303.14012	0.04267
3301.85435	0.04270
3300.56858	0.04242
3299.28281	0.04195
3297.99704	0.04169
3296.71127	0.04192
3295.42550	0.04244
3294.13973	0.04274
3292.85397	0.04251
3291.56820	0.04191
3290.28243	0.04128
3288.99666	0.04082
3287.71089	0.04055
3286.42512	0.04043
3285.13935	0.04049
3283.85358	0.04074
3282.56781	0.04117
3281.28205	0.04169
3279.99628	0.04216
3278.71051	0.04247
3277.42474	0.04257
3276.13897	0.04250
3274.85320	0.04227
3273.56743	0.04196
3272.28166	0.04165
3270.99590	0.04146
3269.71013	0.04141
3268.42436	0.04145
3267.13859	0.04148
3265.85282	0.04144
3264.56705	0.04133
3263.28128	0.04125
3261.99551	0.04134
3260.70974	0.04161
3259.42398	0.04187
3258.13821	0.04194
3256.85244	0.04183
3255.56667	0.04174
3254.28090	0.04186
3252.99513	0.04211
3251.70936	0.04219
3250.42359	0.04186
3249.13783	0.04120
3247.85206	0.04066
3246.56629	0.04064
3245.28052	0.04110
3243.99475	0.04164
3242.70898	0.04189
3241.42321	0.04183
3240.13744	0.04165
3238.85167	0.04149
3237.56591	0.04143
3236.28014	0.04149
3234.99437	0.04163
3233.70860	0.04170
3232.42283	0.04153
3231.13706	0.04115
3229.85129	0.04079
3228.56552	0.04055
3227.27976	0.04039
3225.99399	0.04024
3224.70822	0.04021
3223.42245	0.04040
3222.13668	0.04073
3220.85091	0.04099
3219.56514	0.04103
3218.27937	0.04083
3216.99360	0.04048
3215.70784	0.04013
3214.42207	0.03995
3213.13630	0.04001
3211.85053	0.04024
3210.56476	0.04050
3209.27899	0.04065
3207.99322	0.04070
3206.70745	0.04076
3205.42169	0.04097
3204.13592	0.04133
3202.85015	0.04162
3201.56438	0.04157
3200.27861	0.04108
3198.99284	0.04040
3197.70707	0.03987
3196.42130	0.03965
3195.13553	0.03968
3193.84977	0.03987
3192.56400	0.04017
3191.27823	0.04050
3189.99246	0.04074
3188.70669	0.04082
3187.42092	0.04081
3186.13515	0.04081
3184.84938	0.04083
3183.56362	0.04078
3182.27785	0.04056
3180.99208	0.04016
3179.70631	0.03971
3178.42054	0.03941
3177.13477	0.03943
3175.84900	0.03972
3174.56323	0.04008
3173.27746	0.04035
3171.99170	0.04056
3170.70593	0.04081
3169.42016	0.04105
3168.13439	0.04113
3166.84862	0.04089
3165.56285	0.04040
3164.27708	0.03994
3162.99131	0.03976
3161.70555	0.03987
3160.41978	0.03998
3159.13401	0.03979
3157.84824	0.03928
3156.56247	0.03872
3155.27670	0.03840
3153.99093	0.03836
3152.70516	0.03848
3151.41939	0.03858
3150.13363	0.03857
3148.84786	0.03854
3147.56209	0.03861
3146.27632	0.03882
3144.99055	0.03901
3143.70478	0.03896
3142.41901	0.03867
3141.13324	0.03833
3139.84748	0.03812
3138.56171	0.03800
3137.27594	0.03788
3135.99017	0.03773
3134.70440	0.03765
3133.41863	0.03765
3132.13286	0.03767
3130.84709	0.03760
3129.56132	0.03742
3128.27556	0.03717
3126.98979	0.03693
3125.70402	0.03685
3124.41825	0.03702
3123.13248	0.03740
3121.84671	0.03786
3120.56094	0.03827
3119.27517	0.03860
3117.98940	0.03879
3116.70364	0.03875
3115.41787	0.03849
3114.13210	0.03812
3112.84633	0.03783
3111.56056	0.03771
3110.27479	0.03770
3108.98902	0.03768
3107.70325	0.03763
3106.41749	0.03760
3105.13172	0.03759
3103.84595	0.03753
3102.56018	0.03737
3101.27441	0.03723
3099.98864	0.03719
3098.70287	0.03720
3097.41710	0.03717
3096.13133	0.03719
3094.84557	0.03739
3093.55980	0.03771
3092.27403	0.03789
3090.98826	0.03777
3089.70249	0.03749
3088.41672	0.03728
3087.13095	0.03720
3085.84518	0.03709
3084.55942	0.03685
3083.27365	0.03652
3081.98788	0.03629
3080.70211	0.03624
3079.41634	0.03636
3078.13057	0.03650
3076.84480	0.03646
3075.55903	0.03616
3074.27326	0.03575
3072.98750	0.03549
3071.70173	0.03553
3070.41596	0.03578
3069.13019	0.03605
3067.84442	0.03630
3066.55865	0.03655
3065.27288	0.03679
3063.98711	0.03689
3062.70135	0.03677
3061.41558	0.03645
3060.12981	0.03600
3058.84404	0.03557
3057.55827	0.03530
3056.27250	0.03533
3054.98673	0.03555
3053.70096	0.03576
3052.41519	0.03580
3051.12943	0.03572
3049.84366	0.03566
3048.55789	0.03563
3047.27212	0.03558
3045.98635	0.03551
3044.70058	0.03556
3043.41481	0.03572
3042.12904	0.03583
3040.84328	0.03571
3039.55751	0.03543
3038.27174	0.03514
3036.98597	0.03495
3035.70020	0.03484
3034.41443	0.03484
3033.12866	0.03501
3031.84289	0.03530
3030.55712	0.03552
3029.27136	0.03551
3027.98559	0.03533
3026.69982	0.03516
3025.41405	0.03510
3024.12828	0.03507
3022.84251	0.03496
3021.55674	0.03478
3020.27097	0.03459
3018.98521	0.03449
3017.69944	0.03456
3016.41367	0.03479
3015.12790	0.03507
3013.84213	0.03521
3012.55636	0.03508
3011.27059	0.03475
3009.98482	0.03444
3008.69905	0.03430
3007.41329	0.03427
3006.12752	0.03421
3004.84175	0.03405
3003.55598	0.03386
3002.27021	0.03371
3000.98444	0.03359
2999.69867	0.03357
2998.41290	0.03356
2997.12714	0.03368
2995.84137	0.03389
2994.55560	0.03403
2993.26983	0.03407
2991.98406	0.03403
2990.69829	0.03393
2989.41252	0.03372
2988.12675	0.03345
2986.84098	0.03332
2985.55522	0.03349
2984.26945	0.03391
2982.98368	0.03435
2981.69791	0.03462
2980.41214	0.03477
2979.12637	0.03496
2977.84060	0.03525
2976.55483	0.03559
2975.26907	0.03590
2973.98330	0.03626
2972.69753	0.03679
2971.41176	0.03758
2970.12599	0.03852
2968.84022	0.03941
2967.55445	0.04018
2966.26868	0.04084
2964.98291	0.04146
2963.69715	0.04205
2962.41138	0.04256
2961.12561	0.04289
2959.83984	0.04302
2958.55407	0.04302
2957.26830	0.04308
2955.98253	0.04334
2954.69676	0.04377
2953.41100	0.04417
2952.12523	0.04435
2950.83946	0.04424
2949.55369	0.04394
2948.26792	0.04364
2946.98215	0.04348
2945.69638	0.04351
2944.41061	0.04363
2943.12484	0.04373
2941.83908	0.04373
2940.55331	0.04371
2939.26754	0.04375
2937.98177	0.04390
2936.69600	0.04417
2935.41023	0.04451
2934.12446	0.04484
2932.83869	0.04510
2931.55293	0.04531
2930.26716	0.04560
2928.98139	0.04606
2927.69562	0.04659
2926.40985	0.04700
2925.12408	0.04715
2923.83831	0.04711
2922.55254	0.04700
2921.26677	0.04687
2919.98101	0.04664
2918.69524	0.04628
2917.40947	0.04587
2916.12370	0.04555
2914.83793	0.04540
2913.55216	0.04534
2912.26639	0.04519
2910.98062	0.04487
2909.69486	0.04442
2908.40909	0.04404
2907.12332	0.04381
2905.83755	0.04369
2904.55178	0.04355
2903.26601	0.04336
2901.98024	0.04315
2900.69447	0.04298
2899.40870	0.04275
2898.12294	0.04235
2896.83717	0.04178
2895.55140	0.04119
2894.26563	0.04070
2892.97986	0.04032
2891.69409	0.04001
2890.40832	0.03970
2889.12255	0.03935
2887.83678	0.03902
2886.55102	0.03878
2885.26525	0.03865
2883.97948	0.03860
2882.69371	0.03856
2881.40794	0.03853
2880.12217	0.03848
2878.83640	0.03840
2877.55063	0.03837
2876.26487	0.03846
2874.97910	0.03863
2873.69333	0.03873
2872.40756	0.03869
2871.12179	0.03868
2869.83602	0.03887
2868.55025	0.03921
2867.26448	0.03951
2865.97871	0.03962
2864.69295	0.03958
2863.40718	0.03954
2862.12141	0.03956
2860.83564	0.03957
2859.54987	0.03955
2858.26410	0.03960
2856.97833	0.03978
2855.69256	0.04001
2854.40680	0.04010
2853.12103	0.03998
2851.83526	0.03977
2850.54949	0.03956
2849.26372	0.03935
2847.97795	0.03913
2846.69218	0.03884
2845.40641	0.03844
2844.12064	0.03789
2842.83488	0.03723
2841.54911	0.03657
2840.26334	0.03605
2838.97757	0.03570
2837.69180	0.03548
2836.40603	0.03524
2835.12026	0.03489
2833.83449	0.03442
2832.54873	0.03395
2831.26296	0.03354
2829.97719	0.03318
2828.69142	0.03282
2827.40565	0.03248
2826.11988	0.03222
2824.83411	0.03201
2823.54834	0.03180
2822.26257	0.03157
2820.97681	0.03139
2819.69104	0.03133
2818.40527	0.03138
2817.11950	0.03145
2815.83373	0.03146
2814.54796	0.03141
2813.26219	0.03134
2811.97642	0.03134
2810.69066	0.03143
2809.40489	0.03158
2808.11912	0.03168
2806.83335	0.03160
2805.54758	0.03137
2804.26181	0.03108
2802.97604	0.03078
2801.69027	0.03048
2800.40450	0.03020
2799.11874	0.03000
2797.83297	0.02989
2796.54720	0.02979
2795.26143	0.02961
2793.97566	0.02942
2792.68989	0.02933
2791.40412	0.02940
2790.11835	0.02950
2788.83259	0.02946
2787.54682	0.02928
2786.26105	0.02911
2784.97528	0.02906
2783.68951	0.02911
2782.40374	0.02913
2781.11797	0.02902
2779.83220	0.02889
2778.54643	0.02885
2777.26067	0.02884
2775.97490	0.02873
2774.68913	0.02852
2773.40336	0.02838
2772.11759	0.02840
2770.83182	0.02853
2769.54605	0.02864
2768.26028	0.02870
2766.97452	0.02874
2765.68875	0.02879
2764.40298	0.02881
2763.11721	0.02876
2761.83144	0.02863
2760.54567	0.02849
2759.25990	0.02842
2757.97413	0.02840
2756.68836	0.02835
2755.40260	0.02822
2754.11683	0.02803
2752.83106	0.02784
2751.54529	0.02767
2750.25952	0.02752
2748.97375	0.02740
2747.68798	0.02729
2746.40221	0.02721
2745.11645	0.02715
2743.83068	0.02711
2742.54491	0.02707
2741.25914	0.02705
2739.97337	0.02707
2738.68760	0.02713
2737.40183	0.02719
2736.11606	0.02721
2734.83029	0.02721
2733.54453	0.02727
2732.25876	0.02741
2730.97299	0.02756
2729.68722	0.02763
2728.40145	0.02758
2727.11568	0.02749
2725.82991	0.02740
2724.54414	0.02732
2723.25838	0.02722
2721.97261	0.02706
2720.68684	0.02682
2719.40107	0.02654
2718.11530	0.02634
2716.82953	0.02634
2715.54376	0.02646
2714.25799	0.02654
2712.97222	0.02650
2711.68646	0.02641
2710.40069	0.02639
2709.11492	0.02642
2707.82915	0.02644
2706.54338	0.02641
2705.25761	0.02638
2703.97184	0.02635
2702.68607	0.02627
2701.40031	0.02605
2700.11454	0.02575
2698.82877	0.02554
2697.54300	0.02559
2696.25723	0.02590
2694.97146	0.02627
2693.68569	0.02645
2692.39992	0.02632
2691.11415	0.02596
2689.82839	0.02557
2688.54262	0.02533
2687.25685	0.02536
2685.97108	0.02560
2684.68531	0.02587
2683.39954	0.02598
2682.11377	0.02592
2680.82800	0.02580
2679.54224	0.02572
2678.25647	0.02564
2676.97070	0.02545
2675.68493	0.02516
2674.39916	0.02491
2673.11339	0.02487
2671.82762	0.02504
2670.54185	0.02529
2669.25608	0.02547
2667.97032	0.02552
2666.68455	0.02547
2665.39878	0.02539
2664.11301	0.02532
2662.82724	0.02529
2661.54147	0.02530
2660.25570	0.02536
2658.96993	0.02546
2657.68417	0.02553
2656.39840	0.02556
2655.11263	0.02556
2653.82686	0.02558
2652.54109	0.02562
2651.25532	0.02565
2649.96955	0.02566
2648.68378	0.02565
2647.39801	0.02561
2646.11225	0.02546
2644.82648	0.02518
2643.54071	0.02485
2642.25494	0.02462
2640.96917	0.02456
2639.68340	0.02457
2638.39763	0.02457
2637.11186	0.02458
2635.82609	0.02462
2634.54033	0.02462
2633.25456	0.02446
2631.96879	0.02421
2630.68302	0.02398
2629.39725	0.02378
2628.11148	0.02358
2626.82571	0.02336
2625.53994	0.02320
2624.25418	0.02314
2622.96841	0.02314
2621.68264	0.02311
2620.39687	0.02303
2619.11110	0.02298
2617.82533	0.02301
2616.53956	0.02307
2615.25379	0.02305
2613.96802	0.02296
2612.68226	0.02293
2611.39649	0.02307
2610.11072	0.02331
2608.82495	0.02351
2607.53918	0.02359
2606.25341	0.02355
2604.96764	0.02339
2603.68187	0.02311
2602.39611	0.02271
2601.11034	0.02230
2599.82457	0.02199
2598.53880	0.02179
2597.25303	0.02173
2595.96726	0.02181
2594.68149	0.02199
2593.39572	0.02212
2592.10995	0.02207
2590.82419	0.02184
2589.53842	0.02149
2588.25265	0.02110
2586.96688	0.02077
2585.68111	0.02069
2584.39534	0.02095
2583.10957	0.02141
2581.82380	0.02183
2580.53804	0.02211
2579.25227	0.02227
2577.96650	0.02228
2576.68073	0.02204
2575.39496	0.02159
2574.10919	0.02121
2572.82342	0.02115
2571.53765	0.02138
2570.25188	0.02165
2568.96612	0.02181
2567.68035	0.02185
2566.39458	0.02172
2565.10881	0.02133
2563.82304	0.02078
2562.53727	0.02035
2561.25150	0.02025
2559.96573	0.02039
2558.67997	0.02057
2557.39420	0.02072
2556.10843	0.02088
2554.82266	0.02103
2553.53689	0.02103
2552.25112	0.02084
2550.96535	0.02065
2549.67958	0.02060
2548.39381	0.02063
2547.10805	0.02052
2545.82228	0.02023
2544.53651	0.01996
2543.25074	0.01988
2541.96497	0.01999
2540.67920	0.02016
2539.39343	0.02032
2538.10766	0.02034
2536.82190	0.02007
2535.53613	0.01957
2534.25036	0.01915
2532.96459	0.01906
2531.67882	0.01926
2530.39305	0.01946
2529.10728	0.01947
2527.82151	0.01932
2526.53574	0.01911
2525.24998	0.01904
2523.96421	0.01924
2522.67844	0.01972
2521.39267	0.02029
2520.10690	0.02068
2518.82113	0.02074
2517.53536	0.02049
2516.24959	0.02004
2514.96383	0.01953
2513.67806	0.01914
2512.39229	0.01899
2511.10652	0.01908
2509.82075	0.01934
2508.53498	0.01959
2507.24921	0.01964
2505.96344	0.01939
2504.67767	0.01893
2503.39191	0.01851
2502.10614	0.01831
2500.82037	0.01835
2499.53460	0.01851
2498.24883	0.01865
2496.96306	0.01866
2495.67729	0.01846
2494.39152	0.01813
2493.10576	0.01790
2491.81999	0.01794
2490.53422	0.01823
2489.24845	0.01854
2487.96268	0.01874
2486.67691	0.01887
2485.39114	0.01896
2484.10537	0.01897
2482.81960	0.01892
2481.53384	0.01894
2480.24807	0.01912
2478.96230	0.01929
2477.67653	0.01919
2476.39076	0.01877
2475.10499	0.01832
2473.81922	0.01811
2472.53345	0.01810
2471.24769	0.01806
2469.96192	0.01796
2468.67615	0.01796
2467.39038	0.01825
2466.10461	0.01873
2464.81884	0.01915
2463.53307	0.01930
2462.24730	0.01929
2460.96153	0.01932
2459.67577	0.01941
2458.39000	0.01941
2457.10423	0.01915
2455.81846	0.01871
2454.53269	0.01834
2453.24692	0.01824
2451.96115	0.01831
2450.67538	0.01835
2449.38962	0.01825
2448.10385	0.01811
2446.81808	0.01810
2445.53231	0.01816
2444.24654	0.01815
2442.96077	0.01805
2441.67500	0.01797
2440.38923	0.01799
2439.10346	0.01806
2437.81770	0.01809
2436.53193	0.01811
2435.24616	0.01817
2433.96039	0.01829
2432.67462	0.01849
2431.38885	0.01868
2430.10308	0.01873
2428.81731	0.01849
2427.53155	0.01802
2426.24578	0.01761
2424.96001	0.01752
2423.67424	0.01771
2422.38847	0.01792
2421.10270	0.01796
2419.81693	0.01788
2418.53116	0.01780
2417.24539	0.01771
2415.95963	0.01756
2414.67386	0.01744
2413.38809	0.01739
2412.10232	0.01738
2410.81655	0.01733
2409.53078	0.01730
2408.24501	0.01742
2406.95924	0.01771
2405.67347	0.01805
2404.38771	0.01825
2403.10194	0.01824
2401.81617	0.01815
2400.53040	0.01807
2399.24463	0.01786
2397.95886	0.01762
2396.67309	0.01738
2395.38732	0.01720
2394.10156	0.01716
2392.81579	0.01723
2391.53002	0.01734
2390.24425	0.01747
2388.95848	0.01763
2387.67271	0.01785
2386.38694	0.01819
2385.10117	0.01868
2383.81540	0.01930
2382.52964	0.01997
2381.24387	0.02070
2379.95810	0.02146
2378.67233	0.02230
2377.38656	0.02324
2376.10079	0.02394
2374.81502	0.02420
2373.52925	0.02392
2372.24349	0.02296
2370.95772	0.02146
2369.67195	0.01943
2368.38618	0.01742
2367.10041	0.01638
2365.81464	0.01640
2364.52887	0.01667
2363.24310	0.01680
2361.95733	0.01656
2360.67157	0.01548
2359.38580	0.01333
2358.10003	0.01099
2356.81426	0.00908
2355.52849	0.00752
2354.24272	0.00657
2352.95695	0.00679
2351.67118	0.00913
2350.38542	0.01379
2349.09965	0.01864
2347.81388	0.02122
2346.52811	0.02163
2345.24234	0.02113
2343.95657	0.02001
2342.67080	0.01818
2341.38503	0.01652
2340.09926	0.01575
2338.81350	0.01560
2337.52773	0.01569
2336.24196	0.01540
2334.95619	0.01484
2333.67042	0.01440
2332.38465	0.01402
2331.09888	0.01400
2329.81311	0.01442
2328.52735	0.01484
2327.24158	0.01548
2325.95581	0.01635
2324.67004	0.01693
2323.38427	0.01714
2322.09850	0.01694
2320.81273	0.01632
2319.52696	0.01582
2318.24119	0.01576
2316.95543	0.01590
2315.66966	0.01604
2314.38389	0.01612
2313.09812	0.01616
2311.81235	0.01612
2310.52658	0.01605
2309.24081	0.01612
2307.95504	0.01631
2306.66928	0.01654
2305.38351	0.01678
2304.09774	0.01691
2302.81197	0.01687
2301.52620	0.01678
2300.24043	0.01680
2298.95466	0.01692
2297.66889	0.01702
2296.38312	0.01704
2295.09736	0.01709
2293.81159	0.01735
2292.52582	0.01783
2291.24005	0.01831
2289.95428	0.01859
2288.66851	0.01864
2287.38274	0.01862
2286.09697	0.01866
2284.81121	0.01871
2283.52544	0.01855
2282.23967	0.01802
2280.95390	0.01722
2279.66813	0.01643
2278.38236	0.01592
2277.09659	0.01573
2275.81082	0.01571
2274.52505	0.01575
2273.23929	0.01580
2271.95352	0.01585
2270.66775	0.01576
2269.38198	0.01534
2268.09621	0.01465
2266.81044	0.01406
2265.52467	0.01393
2264.23890	0.01437
2262.95314	0.01513
2261.66737	0.01583
2260.38160	0.01621
2259.09583	0.01628
2257.81006	0.01622
2256.52429	0.01613
2255.23852	0.01598
2253.95275	0.01569
2252.66698	0.01535
2251.38122	0.01520
2250.09545	0.01534
2248.80968	0.01557
2247.52391	0.01592
2246.23814	0.01624
2244.95237	0.01639
2243.66660	0.01612
2242.38083	0.01532
2241.09507	0.01418
2239.80930	0.01321
2238.52353	0.01278
2237.23776	0.01280
2235.95199	0.01275
2234.66622	0.01220
2233.38045	0.01127
2232.09468	0.01049
2230.80891	0.01023
2229.52315	0.01039
2228.23738	0.01070
2226.95161	0.01118
2225.66584	0.01197
2224.38007	0.01291
2223.09430	0.01358
2221.80853	0.01383
2220.52276	0.01389
2219.23700	0.01396
2217.95123	0.01393
2216.66546	0.01381
2215.37969	0.01384
2214.09392	0.01413
2212.80815	0.01443
2211.52238	0.01436
2210.23661	0.01382
2208.95084	0.01290
2207.66508	0.01181
2206.37931	0.01088
2205.09354	0.01045
2203.80777	0.01066
2202.52200	0.01125
2201.23623	0.01173
2199.95046	0.01170
2198.66469	0.01106
2197.37893	0.01000
2196.09316	0.00895
2194.80739	0.00833
2193.52162	0.00844
2192.23585	0.00933
2190.95008	0.01071
2189.66431	0.01205
2188.37854	0.01276
2187.09277	0.01251
2185.80701	0.01143
2184.52124	0.01004
2183.23547	0.00880
2181.94970	0.00787
2180.66393	0.00726
2179.37816	0.00702
2178.09239	0.00717
2176.80662	0.00770
2175.52085	0.00869
2174.23509	0.01020
2172.94932	0.01188
2171.66355	0.01307
2170.37778	0.01330
2169.09201	0.01258
2167.80624	0.01117
2166.52047	0.00935
2165.23470	0.00736
2163.94894	0.00559
2162.66317	0.00429
2161.37740	0.00328
2160.09163	0.00225
2158.80586	0.00134
2157.52009	0.00110
2156.23432	0.00163
2154.94855	0.00248
2153.66278	0.00340
2152.37702	0.00448
2151.09125	0.00561
2149.80548	0.00629
2148.51971	0.00630
2147.23394	0.00598
2145.94817	0.00564
2144.66240	0.00539
2143.37663	0.00529
2142.09087	0.00542
2140.80510	0.00555
2139.51933	0.00537
2138.23356	0.00499
2136.94779	0.00492
2135.66202	0.00545
2134.37625	0.00649
2133.09048	0.00766
2131.80471	0.00856
2130.51895	0.00894
2129.23318	0.00886
2127.94741	0.00874
2126.66164	0.00894
2125.37587	0.00946
2124.09010	0.01001
2122.80433	0.01041
2121.51856	0.01070
2120.23280	0.01092
2118.94703	0.01103
2117.66126	0.01098
2116.37549	0.01085
2115.08972	0.01071
2113.80395	0.01054
2112.51818	0.01036
2111.23241	0.01027
2109.94664	0.01032
2108.66088	0.01038
2107.37511	0.01031
2106.08934	0.01021
2104.80357	0.01027
2103.51780	0.01057
2102.23203	0.01096
2100.94626	0.01139
2099.66049	0.01217
2098.37473	0.01256
2097.08896	0.01227
2095.80319	0.01130
2094.51742	0.01007
2093.23165	0.00934
2091.94588	0.00954
2090.66011	0.01040
2089.37434	0.01121
2088.08857	0.01140
2086.80281	0.01098
2085.51704	0.01039
2084.23127	0.01011
2082.94550	0.01035
2081.65973	0.01097
2080.37396	0.01151
2079.08819	0.01149
2077.80242	0.01077
2076.51666	0.00977
2075.23089	0.00915
2073.94512	0.00921
2072.65935	0.00959
2071.37358	0.00969
2070.08781	0.00926
2068.80204	0.00858
2067.51627	0.00810
2066.23050	0.00794
2064.94474	0.00789
2063.65897	0.00783
2062.37320	0.00791
2061.08743	0.00830
2059.80166	0.00886
2058.51589	0.00917
2057.23012	0.00908
2055.94435	0.00881
2054.65859	0.00875
2053.37282	0.00901
2052.08705	0.00923
2050.80128	0.00892
2049.51551	0.00799
2048.22974	0.00690
2046.94397	0.00616
2045.65820	0.00582
2044.37243	0.00553
2043.08667	0.00513
2041.80090	0.00475
2040.51513	0.00466
2039.22936	0.00502
2037.94359	0.00578
2036.65782	0.00658
2035.37205	0.00690
2034.08628	0.00659
2032.80052	0.00610
2031.51475	0.00603
2030.22898	0.00643
2028.94321	0.00678
2027.65744	0.00659
2026.37167	0.00581
2025.08590	0.00468
2023.80013	0.00350
2022.51436	0.00262
2021.22860	0.00238
2019.94283	0.00298
2018.65706	0.00419
2017.37129	0.00542
2016.08552	0.00620
2014.79975	0.00662
2013.51398	0.00704
2012.22821	0.00756
2010.94245	0.00784
2009.65668	0.00766
2008.37091	0.00719
2007.08514	0.00669
2005.79937	0.00627
2004.51360	0.00602
2003.22783	0.00613
2001.94206	0.00671
2000.65629	0.00744
1999.37053	0.00791
1998.08476	0.00801
1996.79899	0.00796
1995.51322	0.00795
1994.22745	0.00799
1992.94168	0.00806
1991.65591	0.00822
1990.37014	0.00843
1989.08438	0.00855
1987.79861	0.00858
1986.51284	0.00870
1985.22707	0.00903
1983.94130	0.00934
1982.65553	0.00929
1981.36976	0.00879
1980.08399	0.00800
1978.79822	0.00720
1977.51246	0.00672
1976.22669	0.00662
1974.94092	0.00660
1973.65515	0.00634
1972.36938	0.00592
1971.08361	0.00573
1969.79784	0.00596
1968.51207	0.00645
1967.22631	0.00689
1965.94054	0.00720
1964.65477	0.00738
1963.36900	0.00744
1962.08323	0.00745
1960.79746	0.00764
1959.51169	0.00813
1958.22592	0.00876
1956.94015	0.00925
1955.65439	0.00943
1954.36862	0.00943
1953.08285	0.00939
1951.79708	0.00930
1950.51131	0.00911
1949.22554	0.00887
1947.93977	0.00876
1946.65400	0.00881
1945.36823	0.00882
1944.08247	0.00860
1942.79670	0.00826
1941.51093	0.00809
1940.22516	0.00824
1938.93939	0.00861
1937.65362	0.00904
1936.36785	0.00948
1935.08208	0.00984
1933.79632	0.01003
1932.51055	0.01012
1931.22478	0.01028
1929.93901	0.01056
1928.65324	0.01082
1927.36747	0.01088
1926.08170	0.01070
1924.79593	0.01040
1923.51016	0.01018
1922.22440	0.01015
1920.93863	0.01031
1919.65286	0.01061
1918.36709	0.01093
1917.08132	0.01111
1915.79555	0.01098
1914.50978	0.01050
1913.22401	0.00991
1911.93825	0.00949
1910.65248	0.00939
1909.36671	0.00949
1908.08094	0.00961
1906.79517	0.00967
1905.50940	0.00976
1904.22363	0.00993
1902.93786	0.01009
1901.65209	0.01012
1900.36633	0.01000
1899.08056	0.00982
1897.79479	0.00973
1896.50902	0.00979
1895.22325	0.00998
1893.93748	0.01015
1892.65171	0.01006
1891.36594	0.00959
1890.08018	0.00897
1888.79441	0.00859
1887.50864	0.00865
1886.22287	0.00903
1884.93710	0.00948
1883.65133	0.00981
1882.36556	0.00995
1881.07979	0.00994
1879.79402	0.00991
1878.50826	0.00997
1877.22249	0.01011
1875.93672	0.01020
1874.65095	0.01018
1873.36518	0.01008
1872.07941	0.00993
1870.79364	0.00975
1869.50787	0.00963
1868.22211	0.00961
1866.93634	0.00968
1865.65057	0.00975
1864.36480	0.00975
1863.07903	0.00968
1861.79326	0.00959
1860.50749	0.00953
1859.22172	0.00957
1857.93595	0.00969
1856.65019	0.00980
1855.36442	0.00987
1854.07865	0.00995
1852.79288	0.01015
1851.50711	0.01044
1850.22134	0.01068
1848.93557	0.01077
1847.64980	0.01071
1846.36404	0.01054
1845.07827	0.01032
1843.79250	0.01018
1842.50673	0.01019
1841.22096	0.01032
1839.93519	0.01049
1838.64942	0.01063
1837.36365	0.01067
1836.07788	0.01065
1834.79212	0.01068
1833.50635	0.01081
1832.22058	0.01094
1830.93481	0.01097
1829.64904	0.01093
1828.36327	0.01090
1827.07750	0.01086
1825.79173	0.01082
1824.50597	0.01081
1823.22020	0.01080
1821.93443	0.01072
1820.64866	0.01052
1819.36289	0.01025
1818.07712	0.01004
1816.79135	0.01000
1815.50558	0.01011
1814.21981	0.01028
1812.93405	0.01036
1811.64828	0.01037
1810.36251	0.01035
1809.07674	0.01035
1807.79097	0.01037
1806.50520	0.01040
1805.21943	0.01047
1803.93366	0.01058
1802.64790	0.01067
1801.36213	0.01070
1800.07636	0.01071
1798.79059	0.01078
1797.50482	0.01097
1796.21905	0.01123
1794.93328	0.01138
1793.64751	0.01131
1792.36174	0.01107
1791.07598	0.01088
1789.79021	0.01086
1788.50444	0.01102
1787.21867	0.01123
1785.93290	0.01138
1784.64713	0.01144
1783.36136	0.01146
1782.07559	0.01145
1780.78983	0.01143
1779.50406	0.01141
1778.21829	0.01142
1776.93252	0.01148
1775.64675	0.01155
1774.36098	0.01155
1773.07521	0.01146
1771.78944	0.01142
1770.50367	0.01142
1769.21791	0.01139
1767.93214	0.01135
1766.64637	0.01138
1765.36060	0.01144
1764.07483	0.01139
1762.78906	0.01123
1761.50329	0.01113
1760.21752	0.01116
1758.93176	0.01121
1757.64599	0.01123
1756.36022	0.01129
1755.07445	0.01142
1753.78868	0.01153
1752.50291	0.01155
1751.21714	0.01155
1749.93137	0.01160
1748.64560	0.01167
1747.35984	0.01171
1746.07407	0.01174
1744.78830	0.01180
1743.50253	0.01186
1742.21676	0.01187
1740.93099	0.01183
1739.64522	0.01190
1738.35945	0.01221
1737.07369	0.01257
1735.78792	0.01270
1734.50215	0.01260
1733.21638	0.01249
1731.93061	0.01245
1730.64484	0.01238
1729.35907	0.01229
1728.07330	0.01231
1726.78753	0.01240
1725.50177	0.01246
1724.21600	0.01248
1722.93023	0.01258
1721.64446	0.01282
1720.35869	0.01305
1719.07292	0.01313
1717.78715	0.01312
1716.50138	0.01316
1715.21561	0.01324
1713.92985	0.01333
1712.64408	0.01344
1711.35831	0.01362
1710.07254	0.01383
1708.78677	0.01400
1707.50100	0.01409
1706.21523	0.01424
1704.92946	0.01465
1703.64370	0.01526
1702.35793	0.01569
1701.07216	0.01587
1699.78639	0.01605
1698.50062	0.01624
1697.21485	0.01619
1695.92908	0.01597
1694.64331	0.01594
1693.35754	0.01609
1692.07178	0.01620
1690.78601	0.01632
1689.50024	0.01664
1688.21447	0.01715
1686.92870	0.01749
1685.64293	0.01744
1684.35716	0.01726
1683.07139	0.01726
1681.78563	0.01747
1680.49986	0.01777
1679.21409	0.01816
1677.92832	0.01856
1676.64255	0.01882
1675.35678	0.01900
1674.07101	0.01926
1672.78524	0.01956
1671.49947	0.01975
1670.21371	0.01982
1668.92794	0.01992
1667.64217	0.02017
1666.35640	0.02054
1665.07063	0.02087
1663.78486	0.02110
1662.49909	0.02126
1661.21332	0.02142
1659.92756	0.02161
1658.64179	0.02197
1657.35602	0.02251
1656.07025	0.02294
1654.78448	0.02291
1653.49871	0.02255
1652.21294	0.02237
1650.92717	0.02256
1649.64140	0.02277
1648.35564	0.02272
1647.06987	0.02250
1645.78410	0.02235
1644.49833	0.02232
1643.21256	0.02234
1641.92679	0.02237
1640.64102	0.02249
1639.35525	0.02269
1638.06949	0.02277
1636.78372	0.02258
1635.49795	0.02230
1634.21218	0.02219
1632.92641	0.02229
1631.64064	0.02242
1630.35487	0.02248
1629.06910	0.02246
1627.78333	0.02242
1626.49757	0.02234
1625.21180	0.02221
1623.92603	0.02206
1622.64026	0.02203
1621.35449	0.02216
1620.06872	0.02230
1618.78295	0.02227
1617.49718	0.02210
1616.21142	0.02202
1614.92565	0.02211
1613.63988	0.02225
1612.35411	0.02232
1611.06834	0.02236
1609.78257	0.02242
1608.49680	0.02251
1607.21103	0.02263
1605.92526	0.02273
1604.63950	0.02281
1603.35373	0.02286
1602.06796	0.02290
1600.78219	0.02297
1599.49642	0.02307
1598.21065	0.02322
1596.92488	0.02343
1595.63911	0.02367
1594.35335	0.02391
1593.06758	0.02411
1591.78181	0.02427
1590.49604	0.02444
1589.21027	0.02469
1587.92450	0.02502
1586.63873	0.02538
1585.35296	0.02570
1584.06719	0.02596
1582.78143	0.02619
1581.49566	0.02649
1580.20989	0.02691
1578.92412	0.02729
1577.63835	0.02748
1576.35258	0.02760
1575.06681	0.02791
1573.78104	0.02844
1572.49528	0.02893
1571.20951	0.02928
1569.92374	0.02957
1568.63797	0.02992
1567.35220	0.03030
1566.06643	0.03068
1564.78066	0.03116
1563.49489	0.03179
1562.20912	0.03237
1560.92336	0.03266
1559.63759	0.03270
1558.35182	0.03279
1557.06605	0.03299
1555.78028	0.03310
1554.49451	0.03311
1553.20874	0.03319
1551.92297	0.03335
1550.63721	0.03351
1549.35144	0.03367
1548.06567	0.03387
1546.77990	0.03409
1545.49413	0.03432
1544.20836	0.03453
1542.92259	0.03456
1541.63682	0.03424
1540.35105	0.03364
1539.06529	0.03312
1537.77952	0.03288
1536.49375	0.03276
1535.20798	0.03254
1533.92221	0.03225
1532.63644	0.03205
1531.35067	0.03198
1530.06490	0.03195
1528.77914	0.03194
1527.49337	0.03198
1526.20760	0.03214
1524.92183	0.03242
1523.63606	0.03266
1522.35029	0.03282
1521.06452	0.03305
1519.77875	0.03345
1518.49298	0.03392
1517.20722	0.03433
1515.92145	0.03474
1514.63568	0.03520
1513.34991	0.03571
1512.06414	0.03632
1510.77837	0.03707
1509.49260	0.03778
1508.20683	0.03828
1506.92107	0.03862
1505.63530	0.03906
1504.34953	0.03964
1503.06376	0.04023
1501.77799	0.04075
1500.49222	0.04126
1499.20645	0.04176
1497.92068	0.04218
1496.63491	0.04250
1495.34915	0.04285
1494.06338	0.04324
1492.77761	0.04361
1491.49184	0.04391
1490.20607	0.04424
1488.92030	0.04462
1487.63453	0.04504
1486.34876	0.04547
1485.06299	0.04594
1483.77723	0.04645
1482.49146	0.04700
1481.20569	0.04760
1479.91992	0.04823
1478.63415	0.04883
1477.34838	0.04940
1476.06261	0.04991
1474.77684	0.05034
1473.49108	0.05068
1472.20531	0.05105
1470.91954	0.05153
1469.63377	0.05207
1468.34800	0.05254
1467.06223	0.05288
1465.77646	0.05312
1464.49069	0.05339
1463.20492	0.05380
1461.91916	0.05438
1460.63339	0.05496
1459.34762	0.05533
1458.06185	0.05544
1456.77608	0.05550
1455.49031	0.05571
1454.20454	0.05602
1452.91877	0.05629
1451.63301	0.05650
1450.34724	0.05667
1449.06147	0.05674
1447.77570	0.05672
1446.48993	0.05665
1445.20416	0.05659
1443.91839	0.05654
1442.63262	0.05653
1441.34685	0.05657
1440.06109	0.05659
1438.77532	0.05652
1437.48955	0.05641
1436.20378	0.05644
1434.91801	0.05668
1433.63224	0.05700
1432.34647	0.05730
1431.06070	0.05763
1429.77494	0.05811
1428.48917	0.05876
1427.20340	0.05951
1425.91763	0.06027
1424.63186	0.06106
1423.34609	0.06195
1422.06032	0.06284
1420.77455	0.06356
1419.48878	0.06411
1418.20302	0.06460
1416.91725	0.06508
1415.63148	0.06550
1414.34571	0.06580
1413.05994	0.06597
1411.77417	0.06603
1410.48840	0.06603
1409.20263	0.06600
1407.91687	0.06585
1406.63110	0.06550
1405.34533	0.06496
1404.05956	0.06432
1402.77379	0.06364
1401.48802	0.06287
1400.20225	0.06197
1398.91648	0.06097
1397.63071	0.05991
1396.34495	0.05875
1395.05918	0.05750
1393.77341	0.05624
1392.48764	0.05503
1391.20187	0.05386
1389.91610	0.05269
1388.63033	0.05150
1387.34456	0.05029
1386.05880	0.04913
1384.77303	0.04803
1383.48726	0.04698
1382.20149	0.04598
1380.91572	0.04500
1379.62995	0.04405
1378.34418	0.04311
1377.05841	0.04216
1375.77264	0.04113
1374.48688	0.04001
1373.20111	0.03882
1371.91534	0.03759
1370.62957	0.03637
1369.34380	0.03521
1368.05803	0.03417
1366.77226	0.03326
1365.48649	0.03242
1364.20073	0.03158
1362.91496	0.03069
1361.62919	0.02977
1360.34342	0.02888
1359.05765	0.02807
1357.77188	0.02739
1356.48611	0.02683
1355.20034	0.02634
1353.91457	0.02587
1352.62881	0.02540
1351.34304	0.02491
1350.05727	0.02443
1348.77150	0.02399
1347.48573	0.02363
1346.19996	0.02333
1344.91419	0.02308
1343.62842	0.02283
1342.34266	0.02253
1341.05689	0.02217
1339.77112	0.02182
1338.48535	0.02151
1337.19958	0.02124
1335.91381	0.02095
1334.62804	0.02063
1333.34227	0.02030
1332.05650	0.02002
1330.77074	0.01982
1329.48497	0.01968
1328.19920	0.01955
1326.91343	0.01939
1325.62766	0.01923
1324.34189	0.01909
1323.05612	0.01900
1321.77035	0.01893
1320.48459	0.01884
1319.19882	0.01874
1317.91305	0.01862
1316.62728	0.01850
1315.34151	0.01837
1314.05574	0.01821
1312.76997	0.01801
1311.48420	0.01780
1310.19843	0.01766
1308.91267	0.01759
1307.62690	0.01754
1306.34113	0.01744
1305.05536	0.01725
1303.76959	0.01698
1302.48382	0.01669
1301.19805	0.01643
1299.91228	0.01627
1298.62652	0.01619
1297.34075	0.01616
1296.05498	0.01612
1294.76921	0.01607
1293.48344	0.01603
1292.19767	0.01599
1290.91190	0.01595
1289.62613	0.01589
1288.34036	0.01581
1287.05460	0.01570
1285.76883	0.01559
1284.48306	0.01549
1283.19729	0.01545
1281.91152	0.01545
1280.62575	0.01547
1279.33998	0.01545
1278.05421	0.01539
1276.76845	0.01529
1275.48268	0.01522
1274.19691	0.01522
1272.91114	0.01536
1271.62537	0.01570
1270.33960	0.01628
1269.05383	0.01714
1267.76806	0.01828
1266.48229	0.01965
1265.19653	0.02113
1263.91076	0.02252
1262.62499	0.02360
1261.33922	0.02415
1260.05345	0.02408
1258.76768	0.02344
1257.48191	0.02237
1256.19614	0.02107
1254.91037	0.01971
1253.62461	0.01845
1252.33884	0.01740
1251.05307	0.01658
1249.76730	0.01595
1248.48153	0.01544
1247.19576	0.01500
1245.90999	0.01461
1244.62422	0.01426
1243.33846	0.01396
1242.05269	0.01370
1240.76692	0.01348
1239.48115	0.01333
1238.19538	0.01326
1236.90961	0.01325
1235.62384	0.01325
1234.33807	0.01319
1233.05230	0.01305
1231.76654	0.01285
1230.48077	0.01264
1229.19500	0.01245
1227.90923	0.01228
1226.62346	0.01213
1225.33769	0.01201
1224.05192	0.01191
1222.76615	0.01181
1221.48039	0.01171
1220.19462	0.01164
1218.90885	0.01163
1217.62308	0.01166
1216.33731	0.01168
1215.05154	0.01164
1213.76577	0.01154
1212.48000	0.01139
1211.19423	0.01125
1209.90847	0.01115
1208.62270	0.01112
1207.33693	0.01118
1206.05116	0.01127
1204.76539	0.01136
1203.47962	0.01140
1202.19385	0.01137
1200.90808	0.01125
1199.62232	0.01100
1198.33655	0.01081
1197.05078	0.01069
1195.76501	0.01067
1194.47924	0.01074
1193.19347	0.01083
1191.90770	0.01084
1190.62193	0.01076
1189.33616	0.01065
1188.05040	0.01057
1186.76463	0.01053
1185.47886	0.01054
1184.19309	0.01059
1182.90732	0.01065
1181.62155	0.01066
1180.33578	0.01061
1179.05001	0.01054
1177.76425	0.01050
1176.47848	0.01047
1175.19271	0.01044
1173.90694	0.01038
1172.62117	0.01035
1171.33540	0.01041
1170.04963	0.01057
1168.76386	0.01074
1167.47809	0.01087
1166.19233	0.01096
1164.90656	0.01105
1163.62079	0.01117
1162.33502	0.01133
1161.04925	0.01151
1159.76348	0.01170
1158.47771	0.01185
1157.19194	0.01192
1155.90618	0.01193
1154.62041	0.01195
1153.33464	0.01203
1152.04887	0.01216
1150.76310	0.01237
1149.47733	0.01264
1148.19156	0.01298
1146.90579	0.01335
1145.62002	0.01375
1144.33426	0.01419
1143.04849	0.01468
1141.76272	0.01518
1140.47695	0.01568
1139.19118	0.01619
1137.90541	0.01675
1136.61964	0.01742
1135.33387	0.01820
1134.04811	0.01911
1132.76234	0.02011
1131.47657	0.02119
1130.19080	0.02235
1128.90503	0.02364
1127.61926	0.02515
1126.33349	0.02685
1125.04772	0.02868
1123.76195	0.03056
1122.47619	0.03252
1121.19042	0.03459
1119.90465	0.03676
1118.61888	0.03896
1117.33311	0.04112
1116.04734	0.04321
1114.76157	0.04530
1113.47580	0.04741
1112.19004	0.04954
1110.90427	0.05165
1109.61850	0.05373
1108.33273	0.05578
1107.04696	0.05783
1105.76119	0.05986
1104.47542	0.06183
1103.18965	0.06370
1101.90388	0.06546
1100.61812	0.06708
1099.33235	0.06859
1098.04658	0.06998
1096.76081	0.07131
1095.47504	0.07256
1094.18927	0.07374
1092.90350	0.07479
1091.61773	0.07569
1090.33197	0.07646
1089.04620	0.07716
1087.76043	0.07785
1086.47466	0.07855
1085.18889	0.07928
1083.90312	0.08003
1082.61735	0.08078
1081.33158	0.08161
1080.04581	0.08261
1078.76005	0.08384
1077.47428	0.08525
1076.18851	0.08670
1074.90274	0.08813
1073.61697	0.08954
1072.33120	0.09097
1071.04543	0.09244
1069.75966	0.09394
1068.47390	0.09547
1067.18813	0.09706
1065.90236	0.09869
1064.61659	0.10035
1063.33082	0.10200
1062.04505	0.10360
1060.75928	0.10513
1059.47351	0.10659
1058.18774	0.10804
1056.90198	0.10954
1055.61621	0.11108
1054.33044	0.11262
1053.04467	0.11419
1051.75890	0.11584
1050.47313	0.11755
1049.18736	0.11929
1047.90159	0.12101
1046.61583	0.12270
1045.33006	0.12441
1044.04429	0.12616
1042.75852	0.12803
1041.47275	0.13002
1040.18698	0.13208
1038.90121	0.13413
1037.61544	0.13608
1036.32967	0.13793
1035.04391	0.13965
1033.75814	0.14122
1032.47237	0.14262
1031.18660	0.14389
1029.90083	0.14506
1028.61506	0.14613
1027.32929	0.14705
1026.04352	0.14779
1024.75775	0.14834
1023.47199	0.14869
1022.18622	0.14886
1020.90045	0.14884
1019.61468	0.14863
1018.32891	0.14820
1017.04314	0.14753
1015.75737	0.14659
1014.47160	0.14542
1013.18584	0.14404
1011.90007	0.14246
1010.61430	0.14066
1009.32853	0.13863
1008.04276	0.13634
1006.75699	0.13381
1005.47122	0.13104
1004.18545	0.12808
1002.89968	0.12499
1001.61392	0.12185
1000.32815	0.11867
999.04238	0.11546
997.75661	0.11217
996.47084	0.10880
995.18507	0.10538
993.89930	0.10195
992.61353	0.09858
991.32777	0.09530
990.04200	0.09211
988.75623	0.08903
987.47046	0.08608
986.18469	0.08330
984.89892	0.08066
983.61315	0.07813
982.32738	0.07565
981.04161	0.07322
979.75585	0.07090
978.47008	0.06879
977.18431	0.06692
975.89854	0.06526
974.61277	0.06374
973.32700	0.06237
972.04123	0.06123
970.75546	0.06044
969.46970	0.06003
968.18393	0.05993
966.89816	0.06005
965.61239	0.06026
964.32662	0.06052
963.04085	0.06079
961.75508	0.06100
960.46931	0.06104
959.18354	0.06079
957.89778	0.06020
956.61201	0.05931
955.32624	0.05820
954.04047	0.05695
952.75470	0.05565
951.46893	0.05437
950.18316	0.05312
948.89739	0.05185
947.61163	0.05054
946.32586	0.04922
945.04009	0.04794
943.75432	0.04679
942.46855	0.04579
941.18278	0.04489
939.89701	0.04401
938.61124	0.04311
937.32547	0.04221
936.03971	0.04133
934.75394	0.04047
933.46817	0.03962
932.18240	0.03882
930.89663	0.03813
929.61086	0.03758
928.32509	0.03717
927.03932	0.03679
925.75356	0.03636
924.46779	0.03587
923.18202	0.03540
921.89625	0.03500
920.61048	0.03465
919.32471	0.03428
918.03894	0.03384
916.75317	0.03334
915.46740	0.03284
914.18164	0.03239
912.89587	0.03199
911.61010	0.03166
910.32433	0.03142
909.03856	0.03123
907.75279	0.03103
906.46702	0.03077
905.18125	0.03045
903.89549	0.03009
902.60972	0.02972
901.32395	0.02935
900.03818	0.02902
898.75241	0.02876
897.46664	0.02854
896.18087	0.02833
894.89510	0.02815
893.60933	0.02802
892.32357	0.02797
891.03780	0.02801
889.75203	0.02814
888.46626	0.02842
887.18049	0.02892
885.89472	0.02971
884.60895	0.03086
883.32318	0.03237
882.03742	0.03407
880.75165	0.03565
879.46588	0.03689
878.18011	0.03779
876.89434	0.03858
875.60857	0.03946
874.32280	0.04045
873.03703	0.04135
871.75126	0.04196
870.46550	0.04217
869.17973	0.04198
867.89396	0.04140
866.60819	0.04049
865.32242	0.03933
864.03665	0.03802
862.75088	0.03669
861.46511	0.03545
860.17935	0.03436
858.89358	0.03344
857.60781	0.03265
856.32204	0.03193
855.03627	0.03124
853.75050	0.03061
852.46473	0.03007
851.17896	0.02965
849.89319	0.02934
848.60743	0.02908
847.32166	0.02885
846.03589	0.02861
844.75012	0.02837
843.46435	0.02814
842.17858	0.02794
840.89281	0.02777
839.60704	0.02762
838.32128	0.02749
837.03551	0.02737
835.74974	0.02731
834.46397	0.02731
833.17820	0.02737
831.89243	0.02743
830.60666	0.02749
829.32089	0.02763
828.03512	0.02794
826.74936	0.02845
825.46359	0.02906
824.17782	0.02968
822.89205	0.03029
821.60628	0.03093
820.32051	0.03160
819.03474	0.03224
817.74897	0.03278
816.46321	0.03318
815.17744	0.03347
813.89167	0.03368
812.60590	0.03392
811.32013	0.03429
810.03436	0.03482
808.74859	0.03544
807.46282	0.03606
806.17705	0.03661
804.89129	0.03710
803.60552	0.03751
802.31975	0.03778
801.03398	0.03790
799.74821	0.03788
798.46244	0.03771
797.17667	0.03737
795.89090	0.03690
794.60513	0.03637
793.31937	0.03582
792.03360	0.03520
790.74783	0.03448
789.46206	0.03366
788.17629	0.03274
786.89052	0.03177
785.60475	0.03080
784.31898	0.02993
783.03322	0.02920
781.74745	0.02856
780.46168	0.02795
779.17591	0.02736
777.89014	0.02685
776.60437	0.02645
775.31860	0.02615
774.03283	0.02587
772.74706	0.02558
771.46130	0.02532
770.17553	0.02514
768.88976	0.02507
767.60399	0.02507
766.31822	0.02505
765.03245	0.02501
763.74668	0.02495
762.46091	0.02484
761.17515	0.02470
759.88938	0.02458
758.60361	0.02454
757.31784	0.02458
756.03207	0.02462
754.74630	0.02461
753.46053	0.02455
752.17476	0.02447
750.88899	0.02437
749.60323	0.02425
748.31746	0.02413
747.03169	0.02407
745.74592	0.02411
744.46015	0.02424
743.17438	0.02436
741.88861	0.02436
740.60284	0.02420
739.31708	0.02398
738.03131	0.02382
736.74554	0.02375
735.45977	0.02372
734.17400	0.02369
732.88823	0.02365
731.60246	0.02363
730.31669	0.02362
729.03092	0.02364
727.74516	0.02367
726.45939	0.02366
725.17362	0.02358
723.88785	0.02348
722.60208	0.02344
721.31631	0.02340
720.03054	0.02343
718.74477	0.02352
717.45901	0.02355
716.17324	0.02348
714.88747	0.02337
713.60170	0.02327
712.31593	0.02324
711.03016	0.02328
709.74439	0.02337
708.45862	0.02347
707.17285	0.02354
705.88709	0.02360
704.60132	0.02366
703.31555	0.02373
702.02978	0.02378
700.74401	0.02379
699.45824	0.02375
698.17247	0.02369
696.88670	0.02362
695.60094	0.02357
694.31517	0.02355
693.02940	0.02353
691.74363	0.02351
690.45786	0.02348
689.17209	0.02342
687.88632	0.02335
686.60055	0.02326
685.31478	0.02316
684.02902	0.02305
682.74325	0.02296
681.45748	0.02290
680.17171	0.02289
678.88594	0.02288
677.60017	0.02286
676.31440	0.02282
675.02863	0.02284
673.74287	0.02307
672.45710	0.02359
671.17133	0.02404
669.88556	0.02350
668.59979	0.02197
667.31402	0.02173
666.02825	0.02256
664.74248	0.02266
663.45671	0.02229
662.17095	0.02202
660.88518	0.02187
659.59941	0.02173
658.31364	0.02159
657.02787	0.02146
655.74210	0.02135
654.45633	0.02128
653.17056	0.02120
651.88480	0.02109
650.59903	0.02094
649.31326	0.02080
648.02749	0.02075
646.74172	0.02078
645.45595	0.02086
644.17018	0.02097
642.88441	0.02110
641.59864	0.02122
640.31288	0.02133
639.02711	0.02138
637.74134	0.02140
636.45557	0.02143
635.16980	0.02156
633.88403	0.02180
632.59826	0.02223
631.31249	0.02294
630.02673	0.02394
628.74096	0.02471
627.45519	0.02473
626.16942	0.02560
624.88365	0.02718
623.59788	0.02915
622.31211	0.03115
621.02634	0.03245
619.74057	0.03277
618.45481	0.03295
617.16904	0.03413
615.88327	0.03670
614.59750	0.04024
613.31173	0.04395
612.02596	0.04721
610.74019	0.04995
609.45442	0.05248
608.16866	0.05507
606.88289	0.05767
605.59712	0.06009
604.31135	0.06192
603.02558	0.06270
601.73981	0.06230
600.45404	0.06105
599.16827	0.05945
597.88250	0.05779
596.59674	0.05617
595.31097	0.05460
594.02520	0.05309
592.73943	0.05174
591.45366	0.05070
590.16789	0.05007
588.88212	0.04986
587.59635	0.04997
586.31059	0.05038
585.02482	0.05111
583.73905	0.05215
582.45328	0.05340
581.16751	0.05474
579.88174	0.05612
578.59597	0.05754
577.31020	0.05899
576.02443	0.06038
574.73867	0.06171
573.45290	0.06303
572.16713	0.06443
570.88136	0.06600
569.59559	0.06779
568.30982	0.06986
567.02405	0.07216
565.73828	0.07445
564.45251	0.07639
563.16675	0.07770
561.88098	0.07819
560.59521	0.07776
559.30944	0.07637
558.02367	0.07410
556.73790	0.07115
555.45213	0.06784
554.16636	0.06451
552.88060	0.06140
551.59483	0.05860
550.30906	0.05603
549.02329	0.05357
547.73752	0.05115
546.45175	0.04880
545.16598	0.04658
543.88021	0.04457
542.59444	0.04288
541.30868	0.04152
540.02291	0.04036
538.73714	0.03920
537.45137	0.03794
536.16560	0.03669
534.87983	0.03560
533.59406	0.03470
532.30829	0.03392
531.02253	0.03314
529.73676	0.03233
528.45099	0.03154
527.16522	0.03080
525.87945	0.03015
524.59368	0.02960
523.30791	0.02909
522.02214	0.02861
520.73637	0.02811
519.45061	0.02760
518.16484	0.02700
516.87907	0.02631
515.59330	0.02564
514.30753	0.02513
513.02176	0.02480
511.73599	0.02453
510.45022	0.02421
509.16446	0.02386
507.87869	0.02354
506.59292	0.02330
505.30715	0.02311
504.02138	0.02290
502.73561	0.02264
501.44984	0.02234
500.16407	0.02207
498.87830	0.02185
497.59254	0.02166
496.30677	0.02146
495.02100	0.02119
493.73523	0.02089
492.44946	0.02066
491.16369	0.02051
489.87792	0.02039
488.59215	0.02023
487.30639	0.02001
486.02062	0.01975
484.73485	0.01954
483.44908	0.01942
482.16331	0.01940
480.87754	0.01943
479.59177	0.01948
478.30600	0.01953
477.02023	0.01959
475.73447	0.01966
474.44870	0.01977
473.16293	0.01992
471.87716	0.02003
470.59139	0.02004
469.30562	0.01991
468.01985	0.01972
466.73408	0.01951
465.44832	0.01931
464.16255	0.01909
462.87678	0.01886
461.59101	0.01866
460.30524	0.01848
459.01947	0.01831
457.73370	0.01810
456.44793	0.01785
455.16216	0.01759
453.87640	0.01737
452.59063	0.01720
451.30486	0.01707
450.01909	0.01695
448.73332	0.01684
447.44755	0.01673
446.16178	0.01664
444.87601	0.01659
443.59025	0.01657
442.30448	0.01660
441.01871	0.01661
439.73294	0.01656
438.44717	0.01642
437.16140	0.01621
435.87563	0.01599
434.58986	0.01581
433.30409	0.01571
432.01833	0.01568
430.73256	0.01571
429.44679	0.01575
428.16102	0.01575
426.87525	0.01573
425.58948	0.01572
424.30371	0.01570
423.01794	0.01564
421.73218	0.01553
420.44641	0.01539
419.16064	0.01534
417.87487	0.01539
416.58910	0.01549
415.30333	0.01555
414.01756	0.01556
412.73179	0.01560
411.44602	0.01568
410.16026	0.01582
408.87449	0.01600
407.58872	0.01619
406.30295	0.01635
405.01718	0.01649
403.73141	0.01662
402.44564	0.01677
401.15987	0.01688
399.87411	0.01692
