3997.45528	0.02338
3996.16951	0.02340
3994.88374	0.02339
3993.59798	0.02339
3992.31221	0.02338
3991.02644	0.02325
3989.74067	0.02298
3988.45490	0.02273
3987.16913	0.02275
3985.88336	0.02310
3984.59759	0.02365
3983.31183	0.02420
3982.02606	0.02463
3980.74029	0.02483
3979.45452	0.02482
3978.16875	0.02473
3976.88298	0.02474
3975.59721	0.02479
3974.31144	0.02472
3973.02567	0.02444
3971.73991	0.02404
3970.45414	0.02373
3969.16837	0.02359
3967.88260	0.02351
3966.59683	0.02331
3965.31106	0.02292
3964.02529	0.02246
3962.73952	0.02228
3961.45376	0.02265
3960.16799	0.02353
3958.88222	0.02441
3957.59645	0.02471
3956.31068	0.02425
3955.02491	0.02335
3953.73914	0.02251
3952.45337	0.02206
3951.16760	0.02206
3949.88184	0.02239
3948.59607	0.02291
3947.31030	0.02344
3946.02453	0.02383
3944.73876	0.02404
3943.45299	0.02417
3942.16722	0.02437
3940.88145	0.02463
3939.59569	0.02469
3938.30992	0.02440
3937.02415	0.02392
3935.73838	0.02349
3934.45261	0.02325
3933.16684	0.02317
3931.88107	0.02324
3930.59530	0.02351
3929.30953	0.02391
3928.02377	0.02424
3926.73800	0.02437
3925.45223	0.02430
3924.16646	0.02414
3922.88069	0.02392
3921.59492	0.02366
3920.30915	0.02341
3919.02338	0.02329
3917.73762	0.02332
3916.45185	0.02345
3915.16608	0.02361
3913.88031	0.02385
3912.59454	0.02420
3911.30877	0.02453
3910.02300	0.02465
3908.73723	0.02448
3907.45146	0.02421
3906.16570	0.02410
3904.87993	0.02422
3903.59416	0.02437
3902.30839	0.02433
3901.02262	0.02409
3899.73685	0.02381
3898.45108	0.02366
3897.16531	0.02372
3895.87955	0.02395
3894.59378	0.02420
3893.30801	0.02427
3892.02224	0.02421
3890.73647	0.02432
3889.45070	0.02478
3888.16493	0.02525
3886.87916	0.02512
3885.59339	0.02421
3884.30763	0.02303
3883.02186	0.02225
3881.73609	0.02207
3880.45032	0.02219
3879.16455	0.02237
3877.87878	0.02268
3876.59301	0.02328
3875.30724	0.02416
3874.02148	0.02515
3872.73571	0.02601
3871.44994	0.02652
3870.16417	0.02661
3868.87840	0.02641
3867.59263	0.02619
3866.30686	0.02601
3865.02109	0.02572
3863.73532	0.02518
3862.44956	0.02449
3861.16379	0.02383
3859.87802	0.02324
3858.59225	0.02270
3857.30648	0.02241
3856.02071	0.02274
3854.73494	0.02387
3853.44917	0.02537
3852.16341	0.02643
3850.87764	0.02650
3849.59187	0.02568
3848.30610	0.02456
3847.02033	0.02375
3845.73456	0.02355
3844.44879	0.02390
3843.16302	0.02448
3841.87725	0.02485
3840.59149	0.02470
3839.30572	0.02404
3838.01995	0.02317
3836.73418	0.02247
3835.44841	0.02210
3834.16264	0.02210
3832.87687	0.02254
3831.59110	0.02338
3830.30534	0.02427
3829.01957	0.02474
3827.73380	0.02459
3826.44803	0.02407
3825.16226	0.02360
3823.87649	0.02350
3822.59072	0.02375
3821.30495	0.02406
3820.01918	0.02411
3818.73342	0.02380
3817.44765	0.02327
3816.16188	0.02276
3814.87611	0.02245
3813.59034	0.02242
3812.30457	0.02266
3811.01880	0.02303
3809.73303	0.02338
3808.44726	0.02365
3807.16150	0.02385
3805.87573	0.02388
3804.58996	0.02361
3803.30419	0.02307
3802.01842	0.02259
3800.73265	0.02252
3799.44688	0.02295
3798.16111	0.02372
3796.87535	0.02454
3795.58958	0.02510
3794.30381	0.02520
3793.01804	0.02491
3791.73227	0.02459
3790.44650	0.02456
3789.16073	0.02478
3787.87496	0.02495
3786.58919	0.02488
3785.30343	0.02456
3784.01766	0.02402
3782.73189	0.02333
3781.44612	0.02273
3780.16035	0.02244
3778.87458	0.02248
3777.58881	0.02258
3776.30304	0.02246
3775.01728	0.02213
3773.73151	0.02190
3772.44574	0.02208
3771.15997	0.02264
3769.87420	0.02326
3768.58843	0.02349
3767.30266	0.02313
3766.01689	0.02242
3764.73112	0.02188
3763.44536	0.02194
3762.15959	0.02257
3760.87382	0.02334
3759.58805	0.02375
3758.30228	0.02357
3757.01651	0.02295
3755.73074	0.02219
3754.44497	0.02147
3753.15921	0.02076
3751.87344	0.02000
3750.58767	0.01941
3749.30190	0.01936
3748.01613	0.01997
3746.73036	0.02097
3745.44459	0.02198
3744.15882	0.02273
3742.87305	0.02322
3741.58729	0.02349
3740.30152	0.02352
3739.01575	0.02312
3737.72998	0.02218
3736.44421	0.02097
3735.15844	0.02009
3733.87267	0.02003
3732.58690	0.02073
3731.30114	0.02175
3730.01537	0.02266
3728.72960	0.02332
3727.44383	0.02371
3726.15806	0.02387
3724.87229	0.02387
3723.58652	0.02381
3722.30075	0.02375
3721.01498	0.02364
3719.72922	0.02340
3718.44345	0.02303
3717.15768	0.02266
3715.87191	0.02246
3714.58614	0.02250
3713.30037	0.02265
3712.01460	0.02271
3710.72883	0.02261
3709.44307	0.02247
3708.15730	0.02243
3706.87153	0.02249
3705.58576	0.02257
3704.29999	0.02261
3703.01422	0.02258
3701.72845	0.02245
3700.44268	0.02217
3699.15691	0.02173
3697.87115	0.02112
3696.58538	0.02048
3695.29961	0.02002
3694.01384	0.01994
3692.72807	0.02016
3691.44230	0.02040
3690.15653	0.02051
3688.87076	0.02058
3687.58500	0.02080
3686.29923	0.02107
3685.01346	0.02114
3683.72769	0.02083
3682.44192	0.02030
3681.15615	0.02002
3679.87038	0.02041
3678.58461	0.02145
3677.29884	0.02258
3676.01308	0.02312
3674.72731	0.02287
3673.44154	0.02222
3672.15577	0.02175
3670.87000	0.02168
3669.58423	0.02178
3668.29846	0.02185
3667.01269	0.02200
3665.72693	0.02243
3664.44116	0.02305
3663.15539	0.02360
3661.86962	0.02393
3660.58385	0.02422
3659.29808	0.02457
3658.01231	0.02486
3656.72654	0.02489
3655.44077	0.02464
3654.15501	0.02421
3652.86924	0.02377
3651.58347	0.02356
3650.29770	0.02383
3649.01193	0.02449
3647.72616	0.02510
3646.44039	0.02531
3645.15462	0.02518
3643.86886	0.02506
3642.58309	0.02519
3641.29732	0.02550
3640.01155	0.02574
3638.72578	0.02576
3637.44001	0.02561
3636.15424	0.02539
3634.86847	0.02527
3633.58270	0.02540
3632.29694	0.02589
3631.01117	0.02666
3629.72540	0.02752
3628.43963	0.02824
3627.15386	0.02871
3625.86809	0.02902
3624.58232	0.02925
3623.29655	0.02947
3622.01079	0.02968
3620.72502	0.02993
3619.43925	0.03023
3618.15348	0.03054
3616.86771	0.03070
3615.58194	0.03063
3614.29617	0.03045
3613.01040	0.03038
3611.72463	0.03057
3610.43887	0.03094
3609.15310	0.03136
3607.86733	0.03170
3606.58156	0.03191
3605.29579	0.03194
3604.01002	0.03179
3602.72425	0.03170
3601.43848	0.03198
3600.15272	0.03275
3598.86695	0.03377
3597.58118	0.03462
3596.29541	0.03505
3595.00964	0.03500
3593.72387	0.03458
3592.43810	0.03406
3591.15233	0.03382
3589.86656	0.03410
3588.58080	0.03486
3587.29503	0.03571
3586.00926	0.03636
3584.72349	0.03670
3583.43772	0.03679
3582.15195	0.03662
3580.86618	0.03624
3579.58041	0.03584
3578.29464	0.03572
3577.00888	0.03600
3575.72311	0.03656
3574.43734	0.03712
3573.15157	0.03746
3571.86580	0.03752
3570.58003	0.03753
3569.29426	0.03780
3568.00849	0.03846
3566.72273	0.03928
3565.43696	0.03988
3564.15119	0.04005
3562.86542	0.03992
3561.57965	0.03982
3560.29388	0.04001
3559.00811	0.04041
3557.72234	0.04061
3556.43657	0.04032
3555.15081	0.03967
3553.86504	0.03911
3552.57927	0.03894
3551.29350	0.03914
3550.00773	0.03958
3548.72196	0.04030
3547.43619	0.04133
3546.15042	0.04253
3544.86466	0.04354
3543.57889	0.04407
3542.29312	0.04405
3541.00735	0.04366
3539.72158	0.04324
3538.43581	0.04300
3537.15004	0.04295
3535.86427	0.04292
3534.57850	0.04283
3533.29274	0.04282
3532.00697	0.04305
3530.72120	0.04354
3529.43543	0.04415
3528.14966	0.04477
3526.86389	0.04531
3525.57812	0.04573
3524.29235	0.04601
3523.00659	0.04614
3521.72082	0.04610
3520.43505	0.04593
3519.14928	0.04581
3517.86351	0.04595
3516.57774	0.04646
3515.29197	0.04720
3514.00620	0.04787
3512.72043	0.04823
3511.43467	0.04827
3510.14890	0.04819
3508.86313	0.04819
3507.57736	0.04842
3506.29159	0.04886
3505.00582	0.04940
3503.72005	0.04988
3502.43428	0.05026
3501.14852	0.05071
3499.86275	0.05131
3498.57698	0.05184
3497.29121	0.05196
3496.00544	0.05160
3494.71967	0.05112
3493.43390	0.05100
3492.14813	0.05135
3490.86236	0.05192
3489.57660	0.05237
3488.29083	0.05261
3487.00506	0.05268
3485.71929	0.05262
3484.43352	0.05239
3483.14775	0.05204
3481.86198	0.05179
3480.57621	0.05181
3479.29045	0.05208
3478.00468	0.05242
3476.71891	0.05271
3475.43314	0.05290
3474.14737	0.05304
3472.86160	0.05316
3471.57583	0.05330
3470.29006	0.05351
3469.00429	0.05384
3467.71853	0.05430
3466.43276	0.05468
3465.14699	0.05477
3463.86122	0.05469
3462.57545	0.05477
3461.28968	0.05524
3460.00391	0.05592
3458.71814	0.05655
3457.43238	0.05702
3456.14661	0.05734
3454.86084	0.05737
3453.57507	0.05692
3452.28930	0.05611
3451.00353	0.05542
3449.71776	0.05525
3448.43199	0.05562
3447.14622	0.05622
3445.86046	0.05669
3444.57469	0.05682
3443.28892	0.05660
3442.00315	0.05622
3440.71738	0.05597
3439.43161	0.05599
3438.14584	0.05627
3436.86007	0.05667
3435.57431	0.05706
3434.28854	0.05740
3433.00277	0.05769
3431.71700	0.05800
3430.43123	0.05838
3429.14546	0.05882
3427.85969	0.05923
3426.57392	0.05949
3425.28815	0.05949
3424.00239	0.05924
3422.71662	0.05884
3421.43085	0.05847
3420.14508	0.05827
3418.85931	0.05819
3417.57354	0.05808
3416.28777	0.05782
3415.00200	0.05752
3413.71624	0.05745
3412.43047	0.05775
3411.14470	0.05832
3409.85893	0.05901
3408.57316	0.05959
3407.28739	0.05990
3406.00162	0.05990
3404.71585	0.05986
3403.43008	0.06013
3402.14432	0.06084
3400.85855	0.06165
3399.57278	0.06204
3398.28701	0.06178
3397.00124	0.06105
3395.71547	0.06032
3394.42970	0.05993
3393.14393	0.05992
3391.85817	0.06008
3390.57240	0.06029
3389.28663	0.06051
3388.00086	0.06073
3386.71509	0.06095
3385.42932	0.06124
3384.14355	0.06171
3382.85778	0.06233
3381.57201	0.06291
3380.28625	0.06315
3379.00048	0.06296
3377.71471	0.06248
3376.42894	0.06201
3375.14317	0.06168
3373.85740	0.06139
3372.57163	0.06100
3371.28586	0.06055
3370.00010	0.06032
3368.71433	0.06049
3367.42856	0.06095
3366.14279	0.06143
3364.85702	0.06170
3363.57125	0.06175
3362.28548	0.06173
3360.99971	0.06184
3359.71394	0.06210
3358.42818	0.06226
3357.14241	0.06207
3355.85664	0.06160
3354.57087	0.06122
3353.28510	0.06130
3351.99933	0.06184
3350.71356	0.06257
3349.42779	0.06317
3348.14202	0.06349
3346.85626	0.06345
3345.57049	0.06308
3344.28472	0.06254
3342.99895	0.06204
3341.71318	0.06173
3340.42741	0.06160
3339.14164	0.06152
3337.85587	0.06133
3336.57011	0.06099
3335.28434	0.06061
3333.99857	0.06039
3332.71280	0.06054
3331.42703	0.06109
3330.14126	0.06185
3328.85549	0.06243
3327.56972	0.06247
3326.28395	0.06202
3324.99819	0.06146
3323.71242	0.06112
3322.42665	0.06106
3321.14088	0.06121
3319.85511	0.06150
3318.56934	0.06193
3317.28357	0.06244
3315.99780	0.06297
3314.71204	0.06349
3313.42627	0.06400
3312.14050	0.06440
3310.85473	0.06451
3309.56896	0.06414
3308.28319	0.06335
3306.99742	0.06244
3305.71165	0.06177
3304.42588	0.06152
3303.14012	0.06158
3301.85435	0.06169
3300.56858	0.06171
3299.28281	0.06172
3297.99704	0.06190
3296.71127	0.06227
3295.42550	0.06259
3294.13973	0.06257
3292.85397	0.06213
3291.56820	0.06151
3290.28243	0.06104
3288.99666	0.06082
3287.71089	0.06070
3286.42512	0.06049
3285.13935	0.06023
3283.85358	0.06011
3282.56781	0.06025
3281.28205	0.06058
3279.99628	0.06091
3278.71051	0.06105
3277.42474	0.06097
3276.13897	0.06080
3274.85320	0.06071
3273.56743	0.06076
3272.28166	0.06090
3270.99590	0.06102
3269.71013	0.06107
3268.42436	0.06100
3267.13859	0.06082
3265.85282	0.06066
3264.56705	0.06060
3263.28128	0.06064
3261.99551	0.06069
3260.70974	0.06073
3259.42398	0.06080
3258.13821	0.06093
3256.85244	0.06102
3255.56667	0.06096
3254.28090	0.06069
3252.99513	0.06033
3251.70936	0.06014
3250.42359	0.06025
3249.13783	0.06056
3247.85206	0.06079
3246.56629	0.06081
3245.28052	0.06067
3243.99475	0.06045
3242.70898	0.06018
3241.42321	0.05994
3240.13744	0.05989
3238.85167	0.06008
3237.56591	0.06032
3236.28014	0.06036
3234.99437	0.06016
3233.70860	0.05987
3232.42283	0.05969
3231.13706	0.05969
3229.85129	0.05982
3228.56552	0.05995
3227.27976	0.05999
3225.99399	0.05989
3224.70822	0.05973
3223.42245	0.05963
3222.13668	0.05966
3220.85091	0.05977
3219.56514	0.05982
3218.27937	0.05968
3216.99360	0.05932
3215.70784	0.05883
3214.42207	0.05837
3213.13630	0.05809
3211.85053	0.05800
3210.56476	0.05804
3209.27899	0.05810
3207.99322	0.05811
3206.70745	0.05805
3205.42169	0.05795
3204.13592	0.05792
3202.85015	0.05799
3201.56438	0.05809
3200.27861	0.05804
3198.99284	0.05772
3197.70707	0.05723
3196.42130	0.05685
3195.13553	0.05678
3193.84977	0.05696
3192.56400	0.05719
3191.27823	0.05730
3189.99246	0.05731
3188.70669	0.05729
3187.42092	0.05720
3186.13515	0.05700
3184.84938	0.05677
3183.56362	0.05662
3182.27785	0.05659
3180.99208	0.05657
3179.70631	0.05644
3178.42054	0.05622
3177.13477	0.05600
3175.84900	0.05581
3174.56323	0.05564
3173.27746	0.05557
3171.99170	0.05572
3170.70593	0.05612
3169.42016	0.05660
3168.13439	0.05692
3166.84862	0.05693
3165.56285	0.05663
3164.27708	0.05614
3162.99131	0.05566
3161.70555	0.05539
3160.41978	0.05544
3159.13401	0.05566
3157.84824	0.05574
3156.56247	0.05547
3155.27670	0.05494
3153.99093	0.05447
3152.70516	0.05427
3151.41939	0.05435
3150.13363	0.05451
3148.84786	0.05459
3147.56209	0.05453
3146.27632	0.05440
3144.99055	0.05427
3143.70478	0.05413
3142.41901	0.05393
3141.13324	0.05362
3139.84748	0.05329
3138.56171	0.05309
3137.27594	0.05306
3135.99017	0.05314
3134.70440	0.05320
3133.41863	0.05318
3132.13286	0.05306
3130.84709	0.05289
3129.56132	0.05273
3128.27556	0.05259
3126.98979	0.05242
3125.70402	0.05223
3124.41825	0.05212
3123.13248	0.05228
3121.84671	0.05270
3120.56094	0.05319
3119.27517	0.05351
3117.98940	0.05355
3116.70364	0.05335
3115.41787	0.05300
3114.13210	0.05261
3112.84633	0.05230
3111.56056	0.05216
3110.27479	0.05212
3108.98902	0.05201
3107.70325	0.05174
3106.41749	0.05145
3105.13172	0.05138
3103.84595	0.05160
3102.56018	0.05194
3101.27441	0.05216
3099.98864	0.05212
3098.70287	0.05180
3097.41710	0.05135
3096.13133	0.05098
3094.84557	0.05078
3093.55980	0.05073
3092.27403	0.05079
3090.98826	0.05094
3089.70249	0.05114
3088.41672	0.05127
3087.13095	0.05119
3085.84518	0.05088
3084.55942	0.05049
3083.27365	0.05026
3081.98788	0.05029
3080.70211	0.05049
3079.41634	0.05071
3078.13057	0.05082
3076.84480	0.05078
3075.55903	0.05062
3074.27326	0.05033
3072.98750	0.04996
3071.70173	0.04958
3070.41596	0.04931
3069.13019	0.04918
3067.84442	0.04911
3066.55865	0.04904
3065.27288	0.04899
3063.98711	0.04902
3062.70135	0.04910
3061.41558	0.04906
3060.12981	0.04883
3058.84404	0.04856
3057.55827	0.04843
3056.27250	0.04853
3054.98673	0.04868
3053.70096	0.04871
3052.41519	0.04860
3051.12943	0.04845
3049.84366	0.04833
3048.55789	0.04825
3047.27212	0.04826
3045.98635	0.04839
3044.70058	0.04857
3043.41481	0.04858
3042.12904	0.04824
3040.84328	0.04762
3039.55751	0.04700
3038.27174	0.04670
3036.98597	0.04680
3035.70020	0.04714
3034.41443	0.04740
3033.12866	0.04736
3031.84289	0.04696
3030.55712	0.04638
3029.27136	0.04586
3027.98559	0.04556
3026.69982	0.04551
3025.41405	0.04562
3024.12828	0.04579
3022.84251	0.04592
3021.55674	0.04590
3020.27097	0.04577
3018.98521	0.04564
3017.69944	0.04566
3016.41367	0.04586
3015.12790	0.04612
3013.84213	0.04633
3012.55636	0.04641
3011.27059	0.04628
3009.98482	0.04593
3008.69905	0.04549
3007.41329	0.04514
3006.12752	0.04500
3004.84175	0.04504
3003.55598	0.04515
3002.27021	0.04525
3000.98444	0.04527
2999.69867	0.04519
2998.41290	0.04508
2997.12714	0.04504
2995.84137	0.04508
2994.55560	0.04506
2993.26983	0.04489
2991.98406	0.04463
2990.69829	0.04449
2989.41252	0.04454
2988.12675	0.04471
2986.84098	0.04486
2985.55522	0.04490
2984.26945	0.04492
2982.98368	0.04507
2981.69791	0.04544
2980.41214	0.04586
2979.12637	0.04609
2977.84060	0.04606
2976.55483	0.04592
2975.26907	0.04588
2973.98330	0.04600
2972.69753	0.04623
2971.41176	0.04647
2970.12599	0.04661
2968.84022	0.04665
2967.55445	0.04665
2966.26868	0.04676
2964.98291	0.04701
2963.69715	0.04730
2962.41138	0.04750
2961.12561	0.04757
2959.83984	0.04760
2958.55407	0.04774
2957.26830	0.04802
2955.98253	0.04838
2954.69676	0.04874
2953.41100	0.04908
2952.12523	0.04934
2950.83946	0.04946
2949.55369	0.04941
2948.26792	0.04928
2946.98215	0.04919
2945.69638	0.04907
2944.41061	0.04881
2943.12484	0.04842
2941.83908	0.04810
2940.55331	0.04801
2939.26754	0.04811
2937.98177	0.04827
2936.69600	0.04839
2935.41023	0.04849
2934.12446	0.04861
2932.83869	0.04876
2931.55293	0.04893
2930.26716	0.04912
2928.98139	0.04928
2927.69562	0.04934
2926.40985	0.04923
2925.12408	0.04894
2923.83831	0.04854
2922.55254	0.04813
2921.26677	0.04774
2919.98101	0.04736
2918.69524	0.04707
2917.40947	0.04695
2916.12370	0.04701
2914.83793	0.04711
2913.55216	0.04715
2912.26639	0.04710
2910.98062	0.04698
2909.69486	0.04683
2908.40909	0.04668
2907.12332	0.04653
2905.83755	0.04639
2904.55178	0.04624
2903.26601	0.04610
2901.98024	0.04599
2900.69447	0.04589
2899.40870	0.04570
2898.12294	0.04536
2896.83717	0.04495
2895.55140	0.04456
2894.26563	0.04422
2892.97986	0.04388
2891.69409	0.04354
2890.40832	0.04330
2889.12255	0.04322
2887.83678	0.04327
2886.55102	0.04331
2885.26525	0.04326
2883.97948	0.04313
2882.69371	0.04300
2881.40794	0.04289
2880.12217	0.04280
2878.83640	0.04283
2877.55063	0.04300
2876.26487	0.04323
2874.97910	0.04334
2873.69333	0.04333
2872.40756	0.04334
2871.12179	0.04352
2869.83602	0.04383
2868.55025	0.04407
2867.26448	0.04411
2865.97871	0.04395
2864.69295	0.04368
2863.40718	0.04339
2862.12141	0.04314
2860.83564	0.04291
2859.54987	0.04267
2858.26410	0.04236
2856.97833	0.04196
2855.69256	0.04154
2854.40680	0.04124
2853.12103	0.04107
2851.83526	0.04089
2850.54949	0.04060
2849.26372	0.04030
2847.97795	0.04012
2846.69218	0.04001
2845.40641	0.03981
2844.12064	0.03950
2842.83488	0.03928
2841.54911	0.03931
2840.26334	0.03949
2838.97757	0.03948
2837.69180	0.03911
2836.40603	0.03847
2835.12026	0.03779
2833.83449	0.03725
2832.54873	0.03692
2831.26296	0.03678
2829.97719	0.03678
2828.69142	0.03679
2827.40565	0.03679
2826.11988	0.03680
2824.83411	0.03686
2823.54834	0.03689
2822.26257	0.03677
2820.97681	0.03646
2819.69104	0.03603
2818.40527	0.03561
2817.11950	0.03528
2815.83373	0.03505
2814.54796	0.03490
2813.26219	0.03484
2811.97642	0.03484
2810.69066	0.03483
2809.40489	0.03477
2808.11912	0.03461
2806.83335	0.03440
2805.54758	0.03423
2804.26181	0.03416
2802.97604	0.03421
2801.69027	0.03428
2800.40450	0.03429
2799.11874	0.03428
2797.83297	0.03427
2796.54720	0.03428
2795.26143	0.03429
2793.97566	0.03430
2792.68989	0.03430
2791.40412	0.03429
2790.11835	0.03420
2788.83259	0.03401
2787.54682	0.03374
2786.26105	0.03349
2784.97528	0.03333
2783.68951	0.03327
2782.40374	0.03328
2781.11797	0.03328
2779.83220	0.03321
2778.54643	0.03307
2777.26067	0.03295
2775.97490	0.03293
2774.68913	0.03300
2773.40336	0.03309
2772.11759	0.03315
2770.83182	0.03318
2769.54605	0.03312
2768.26028	0.03288
2766.97452	0.03252
2765.68875	0.03220
2764.40298	0.03209
2763.11721	0.03221
2761.83144	0.03241
2760.54567	0.03254
2759.25990	0.03251
2757.97413	0.03241
2756.68836	0.03233
2755.40260	0.03230
2754.11683	0.03226
2752.83106	0.03214
2751.54529	0.03191
2750.25952	0.03162
2748.97375	0.03139
2747.68798	0.03127
2746.40221	0.03123
2745.11645	0.03121
2743.83068	0.03117
2742.54491	0.03115
2741.25914	0.03114
2739.97337	0.03114
2738.68760	0.03117
2737.40183	0.03124
2736.11606	0.03136
2734.83029	0.03148
2733.54453	0.03153
2732.25876	0.03152
2730.97299	0.03150
2729.68722	0.03152
2728.40145	0.03155
2727.11568	0.03151
2725.82991	0.03131
2724.54414	0.03101
2723.25838	0.03075
2721.97261	0.03063
2720.68684	0.03062
2719.40107	0.03055
2718.11530	0.03038
2716.82953	0.03017
2715.54376	0.02999
2714.25799	0.02987
2712.97222	0.02978
2711.68646	0.02973
2710.40069	0.02975
2709.11492	0.02984
2707.82915	0.02992
2706.54338	0.02991
2705.25761	0.02986
2703.97184	0.02983
2702.68607	0.02983
2701.40031	0.02983
2700.11454	0.02982
2698.82877	0.02985
2697.54300	0.02994
2696.25723	0.03008
2694.97146	0.03016
2693.68569	0.03008
2692.39992	0.02982
2691.11415	0.02948
2689.82839	0.02921
2688.54262	0.02908
2687.25685	0.02907
2685.97108	0.02913
2684.68531	0.02921
2683.39954	0.02925
2682.11377	0.02923
2680.82800	0.02916
2679.54224	0.02906
2678.25647	0.02895
2676.97070	0.02883
2675.68493	0.02869
2674.39916	0.02854
2673.11339	0.02844
2671.82762	0.02844
2670.54185	0.02852
2669.25608	0.02858
2667.97032	0.02858
2666.68455	0.02857
2665.39878	0.02867
2664.11301	0.02894
2662.82724	0.02928
2661.54147	0.02944
2660.25570	0.02927
2658.96993	0.02891
2657.68417	0.02861
2656.39840	0.02852
2655.11263	0.02850
2653.82686	0.02843
2652.54109	0.02827
2651.25532	0.02809
2649.96955	0.02793
2648.68378	0.02782
2647.39801	0.02781
2646.11225	0.02786
2644.82648	0.02782
2643.54071	0.02763
2642.25494	0.02739
2640.96917	0.02730
2639.68340	0.02743
2638.39763	0.02760
2637.11186	0.02756
2635.82609	0.02725
2634.54033	0.02681
2633.25456	0.02642
2631.96879	0.02617
2630.68302	0.02605
2629.39725	0.02599
2628.11148	0.02595
2626.82571	0.02594
2625.53994	0.02594
2624.25418	0.02591
2622.96841	0.02583
2621.68264	0.02573
2620.39687	0.02568
2619.11110	0.02572
2617.82533	0.02583
2616.53956	0.02588
2615.25379	0.02566
2613.96802	0.02514
2612.68226	0.02455
2611.39649	0.02424
2610.11072	0.02431
2608.82495	0.02450
2607.53918	0.02447
2606.25341	0.02417
2604.96764	0.02389
2603.68187	0.02385
2602.39611	0.02401
2601.11034	0.02421
2599.82457	0.02436
2598.53880	0.02444
2597.25303	0.02445
2595.96726	0.02439
2594.68149	0.02435
2593.39572	0.02437
2592.10995	0.02441
2590.82419	0.02440
2589.53842	0.02422
2588.25265	0.02378
2586.96688	0.02321
2585.68111	0.02276
2584.39534	0.02259
2583.10957	0.02256
2581.82380	0.02247
2580.53804	0.02234
2579.25227	0.02233
2577.96650	0.02258
2576.68073	0.02300
2575.39496	0.02337
2574.10919	0.02349
2572.82342	0.02330
2571.53765	0.02296
2570.25188	0.02263
2568.96612	0.02240
2567.68035	0.02224
2566.39458	0.02207
2565.10881	0.02189
2563.82304	0.02179
2562.53727	0.02186
2561.25150	0.02203
2559.96573	0.02213
2558.67997	0.02205
2557.39420	0.02189
2556.10843	0.02178
2554.82266	0.02181
2553.53689	0.02198
2552.25112	0.02218
2550.96535	0.02232
2549.67958	0.02236
2548.39381	0.02236
2547.10805	0.02239
2545.82228	0.02244
2544.53651	0.02241
2543.25074	0.02224
2541.96497	0.02193
2540.67920	0.02158
2539.39343	0.02129
2538.10766	0.02107
2536.82190	0.02093
2535.53613	0.02091
2534.25036	0.02108
2532.96459	0.02140
2531.67882	0.02171
2530.39305	0.02184
2529.10728	0.02165
2527.82151	0.02116
2526.53574	0.02062
2525.24998	0.02037
2523.96421	0.02055
2522.67844	0.02092
2521.39267	0.02111
2520.10690	0.02098
2518.82113	0.02075
2517.53536	0.02072
2516.24959	0.02096
2514.96383	0.02125
2513.67806	0.02141
2512.39229	0.02140
2511.10652	0.02122
2509.82075	0.02086
2508.53498	0.02048
2507.24921	0.02033
2505.96344	0.02047
2504.67767	0.02075
2503.39191	0.02094
2502.10614	0.02099
2500.82037	0.02093
2499.53460	0.02077
2498.24883	0.02050
2496.96306	0.02016
2495.67729	0.01985
2494.39152	0.01970
2493.10576	0.01978
2491.81999	0.02006
2490.53422	0.02039
2489.24845	0.02058
2487.96268	0.02050
2486.67691	0.02021
2485.39114	0.01989
2484.10537	0.01972
2482.81960	0.01978
2481.53384	0.01993
2480.24807	0.02003
2478.96230	0.02003
2477.67653	0.02003
2476.39076	0.02009
2475.10499	0.02006
2473.81922	0.01978
2472.53345	0.01932
2471.24769	0.01893
2469.96192	0.01878
2468.67615	0.01887
2467.39038	0.01917
2466.10461	0.01955
2464.81884	0.01983
2463.53307	0.01986
2462.24730	0.01973
2460.96153	0.01974
2459.67577	0.01999
2458.39000	0.02031
2457.10423	0.02043
2455.81846	0.02030
2454.53269	0.02008
2453.24692	0.01990
2451.96115	0.01977
2450.67538	0.01965
2449.38962	0.01958
2448.10385	0.01966
2446.81808	0.01980
2445.53231	0.01982
2444.24654	0.01963
2442.96077	0.01933
2441.67500	0.01912
2440.38923	0.01903
2439.10346	0.01902
2437.81770	0.01906
2436.53193	0.01919
2435.24616	0.01936
2433.96039	0.01944
2432.67462	0.01935
2431.38885	0.01918
2430.10308	0.01907
2428.81731	0.01909
2427.53155	0.01916
2426.24578	0.01914
2424.96001	0.01894
2423.67424	0.01864
2422.38847	0.01848
2421.10270	0.01862
2419.81693	0.01895
2418.53116	0.01917
2417.24539	0.01917
2415.95963	0.01908
2414.67386	0.01901
2413.38809	0.01896
2412.10232	0.01897
2410.81655	0.01907
2409.53078	0.01923
2408.24501	0.01935
2406.95924	0.01940
2405.67347	0.01947
2404.38771	0.01958
2403.10194	0.01963
2401.81617	0.01950
2400.53040	0.01924
2399.24463	0.01893
2397.95886	0.01872
2396.67309	0.01865
2395.38732	0.01871
2394.10156	0.01884
2392.81579	0.01894
2391.53002	0.01897
2390.24425	0.01896
2388.95848	0.01899
2387.67271	0.01901
2386.38694	0.01894
2385.10117	0.01870
2383.81540	0.01835
2382.52964	0.01808
2381.24387	0.01805
2379.95810	0.01826
2378.67233	0.01858
2377.38656	0.01885
2376.10079	0.01896
2374.81502	0.01888
2373.52925	0.01865
2372.24349	0.01836
2370.95772	0.01808
2369.67195	0.01786
2368.38618	0.01770
2367.10041	0.01758
2365.81464	0.01746
2364.52887	0.01737
2363.24310	0.01738
2361.95733	0.01752
2360.67157	0.01772
2359.38580	0.01792
2358.10003	0.01815
2356.81426	0.01845
2355.52849	0.01880
2354.24272	0.01911
2352.95695	0.01931
2351.67118	0.01945
2350.38542	0.01953
2349.09965	0.01949
2347.81388	0.01930
2346.52811	0.01910
2345.24234	0.01906
2343.95657	0.01918
2342.67080	0.01931
2341.38503	0.01925
2340.09926	0.01894
2338.81350	0.01850
2337.52773	0.01818
2336.24196	0.01809
2334.95619	0.01821
2333.67042	0.01838
2332.38465	0.01852
2331.09888	0.01860
2329.81311	0.01868
2328.52735	0.01879
2327.24158	0.01901
2325.95581	0.01934
2324.67004	0.01970
2323.38427	0.01989
2322.09850	0.01987
2320.81273	0.01970
2319.52696	0.01952
2318.24119	0.01938
2316.95543	0.01927
2315.66966	0.01914
2314.38389	0.01899
2313.09812	0.01884
2311.81235	0.01871
2310.52658	0.01858
2309.24081	0.01837
2307.95504	0.01805
2306.66928	0.01772
2305.38351	0.01755
2304.09774	0.01760
2302.81197	0.01777
2301.52620	0.01794
2300.24043	0.01802
2298.95466	0.01799
2297.66889	0.01787
2296.38312	0.01771
2295.09736	0.01764
2293.81159	0.01778
2292.52582	0.01807
2291.24005	0.01832
2289.95428	0.01838
2288.66851	0.01820
2287.38274	0.01781
2286.09697	0.01731
2284.81121	0.01685
2283.52544	0.01655
2282.23967	0.01640
2280.95390	0.01627
2279.66813	0.01606
2278.38236	0.01579
2277.09659	0.01555
2275.81082	0.01544
2274.52505	0.01556
2273.23929	0.01589
2271.95352	0.01627
2270.66775	0.01645
2269.38198	0.01622
2268.09621	0.01560
2266.81044	0.01477
2265.52467	0.01402
2264.23890	0.01365
2262.95314	0.01387
2261.66737	0.01465
2260.38160	0.01564
2259.09583	0.01622
2257.81006	0.01595
2256.52429	0.01483
2255.23852	0.01345
2253.95275	0.01250
2252.66698	0.01232
2251.38122	0.01266
2250.09545	0.01304
2248.80968	0.01323
2247.52391	0.01317
2246.23814	0.01323
2244.95237	0.01340
2243.66660	0.01346
2242.38083	0.01325
2241.09507	0.01292
2239.80930	0.01273
2238.52353	0.01272
2237.23776	0.01260
2235.95199	0.01216
2234.66622	0.01162
2233.38045	0.01142
2232.09468	0.01163
2230.80891	0.01188
2229.52315	0.01198
2228.23738	0.01211
2226.95161	0.01240
2225.66584	0.01260
2224.38007	0.01239
2223.09430	0.01180
2221.80853	0.01119
2220.52276	0.01080
2219.23700	0.01070
2217.95123	0.01084
2216.66546	0.01110
2215.37969	0.01139
2214.09392	0.01164
2212.80815	0.01181
2211.52238	0.01169
2210.23661	0.01107
2208.95084	0.01012
2207.66508	0.00936
2206.37931	0.00929
2205.09354	0.00976
2203.80777	0.01014
2202.52200	0.00988
2201.23623	0.00905
2199.95046	0.00828
2198.66469	0.00821
2197.37893	0.00896
2196.09316	0.01010
2194.80739	0.01096
2193.52162	0.01106
2192.23585	0.01048
2190.95008	0.00970
2189.66431	0.00919
2188.37854	0.00912
2187.09277	0.00937
2185.80701	0.00967
2184.52124	0.00972
2183.23547	0.00938
2181.94970	0.00881
2180.66393	0.00840
2179.37816	0.00822
2178.09239	0.00796
2176.80662	0.00735
2175.52085	0.00658
2174.23509	0.00613
2172.94932	0.00604
2171.66355	0.00590
2170.37778	0.00541
2169.09201	0.00480
2167.80624	0.00455
2166.52047	0.00476
2165.23470	0.00514
2163.94894	0.00526
2162.66317	0.00477
2161.37740	0.00327
2160.09163	0.00075
2158.80586	-0.00185
2157.52009	-0.00291
2156.23432	-0.00163
2154.94855	0.00120
2153.66278	0.00396
2152.37702	0.00547
2151.09125	0.00558
2149.80548	0.00490
2148.51971	0.00420
2147.23394	0.00396
2145.94817	0.00425
2144.66240	0.00486
2143.37663	0.00556
2142.09087	0.00623
2140.80510	0.00679
2139.51933	0.00712
2138.23356	0.00701
2136.94779	0.00643
2135.66202	0.00575
2134.37625	0.00550
2133.09048	0.00586
2131.80471	0.00644
2130.51895	0.00674
2129.23318	0.00674
2127.94741	0.00684
2126.66164	0.00729
2125.37587	0.00788
2124.09010	0.00825
2122.80433	0.00831
2121.51856	0.00834
2120.23280	0.00864
2118.94703	0.00921
2117.66126	0.00976
2116.37549	0.01001
2115.08972	0.00993
2113.80395	0.00971
2112.51818	0.00953
2111.23241	0.00951
2109.94664	0.00964
2108.66088	0.00976
2107.37511	0.00959
2106.08934	0.00914
2104.80357	0.00863
2103.51780	0.00831
2102.23203	0.00817
2100.94626	0.00811
2099.66049	0.00959
2098.37473	0.01015
2097.08896	0.00985
2095.80319	0.00941
2094.51742	0.00914
2093.23165	0.00913
2091.94588	0.00932
2090.66011	0.00944
2089.37434	0.00921
2088.08857	0.00863
2086.80281	0.00799
2085.51704	0.00773
2084.23127	0.00805
2082.94550	0.00879
2081.65973	0.00958
2080.37396	0.00999
2079.08819	0.00980
2077.80242	0.00911
2076.51666	0.00829
2075.23089	0.00769
2073.94512	0.00750
2072.65935	0.00771
2071.37358	0.00812
2070.08781	0.00848
2068.80204	0.00858
2067.51627	0.00836
2066.23050	0.00782
2064.94474	0.00699
2063.65897	0.00600
2062.37320	0.00520
2061.08743	0.00491
2059.80166	0.00515
2058.51589	0.00551
2057.23012	0.00556
2055.94435	0.00524
2054.65859	0.00499
2053.37282	0.00535
2052.08705	0.00633
2050.80128	0.00731
2049.51551	0.00759
2048.22974	0.00697
2046.94397	0.00579
2045.65820	0.00455
2044.37243	0.00350
2043.08667	0.00264
2041.80090	0.00185
2040.51513	0.00111
2039.22936	0.00073
2037.94359	0.00110
2036.65782	0.00226
2035.37205	0.00383
2034.08628	0.00525
2032.80052	0.00619
2031.51475	0.00658
2030.22898	0.00650
2028.94321	0.00607
2027.65744	0.00540
2026.37167	0.00455
2025.08590	0.00365
2023.80013	0.00281
2022.51436	0.00222
2021.22860	0.00194
2019.94283	0.00198
2018.65706	0.00227
2017.37129	0.00276
2016.08552	0.00333
2014.79975	0.00391
2013.51398	0.00458
2012.22821	0.00556
2010.94245	0.00679
2009.65668	0.00792
2008.37091	0.00847
2007.08514	0.00829
2005.79937	0.00771
2004.51360	0.00722
2003.22783	0.00708
2001.94206	0.00712
2000.65629	0.00695
1999.37053	0.00642
1998.08476	0.00575
1996.79899	0.00535
1995.51322	0.00554
1994.22745	0.00625
1992.94168	0.00700
1991.65591	0.00731
1990.37014	0.00714
1989.08438	0.00684
1987.79861	0.00680
1986.51284	0.00712
1985.22707	0.00771
1983.94130	0.00852
1982.65553	0.00951
1981.36976	0.01061
1980.08399	0.01165
1978.79822	0.01239
1977.51246	0.01261
1976.22669	0.01212
1974.94092	0.01105
1973.65515	0.00988
1972.36938	0.00920
1971.08361	0.00922
1969.79784	0.00952
1968.51207	0.00947
1967.22631	0.00893
1965.94054	0.00827
1964.65477	0.00799
1963.36900	0.00826
1962.08323	0.00884
1960.79746	0.00935
1959.51169	0.00950
1958.22592	0.00922
1956.94015	0.00870
1955.65439	0.00833
1954.36862	0.00843
1953.08285	0.00893
1951.79708	0.00949
1950.51131	0.00978
1949.22554	0.00984
1947.93977	0.00990
1946.65400	0.01013
1945.36823	0.01046
1944.08247	0.01075
1942.79670	0.01086
1941.51093	0.01068
1940.22516	0.01021
1938.93939	0.00964
1937.65362	0.00926
1936.36785	0.00931
1935.08208	0.00983
1933.79632	0.01063
1932.51055	0.01137
1931.22478	0.01179
1929.93901	0.01175
1928.65324	0.01134
1927.36747	0.01084
1926.08170	0.01054
1924.79593	0.01062
1923.51016	0.01098
1922.22440	0.01133
1920.93863	0.01141
1919.65286	0.01124
1918.36709	0.01096
1917.08132	0.01068
1915.79555	0.01038
1914.50978	0.01009
1913.22401	0.00988
1911.93825	0.00986
1910.65248	0.00999
1909.36671	0.01023
1908.08094	0.01049
1906.79517	0.01068
1905.50940	0.01078
1904.22363	0.01085
1902.93786	0.01103
1901.65209	0.01133
1900.36633	0.01160
1899.08056	0.01164
1897.79479	0.01142
1896.50902	0.01112
1895.22325	0.01099
1893.93748	0.01105
1892.65171	0.01115
1891.36594	0.01115
1890.08018	0.01110
1888.79441	0.01108
1887.50864	0.01110
1886.22287	0.01109
1884.93710	0.01101
1883.65133	0.01094
1882.36556	0.01099
1881.07979	0.01125
1879.79402	0.01165
1878.50826	0.01197
1877.22249	0.01199
1875.93672	0.01165
1874.65095	0.01113
1873.36518	0.01071
1872.07941	0.01056
1870.79364	0.01072
1869.50787	0.01103
1868.22211	0.01133
1866.93634	0.01152
1865.65057	0.01158
1864.36480	0.01153
1863.07903	0.01137
1861.79326	0.01113
1860.50749	0.01089
1859.22172	0.01078
1857.93595	0.01086
1856.65019	0.01108
1855.36442	0.01130
1854.07865	0.01143
1852.79288	0.01145
1851.50711	0.01140
1850.22134	0.01134
1848.93557	0.01132
1847.64980	0.01134
1846.36404	0.01137
1845.07827	0.01139
1843.79250	0.01138
1842.50673	0.01138
1841.22096	0.01141
1839.93519	0.01143
1838.64942	0.01138
1837.36365	0.01127
1836.07788	0.01116
1834.79212	0.01115
1833.50635	0.01124
1832.22058	0.01138
1830.93481	0.01154
1829.64904	0.01168
1828.36327	0.01181
1827.07750	0.01195
1825.79173	0.01211
1824.50597	0.01229
1823.22020	0.01247
1821.93443	0.01260
1820.64866	0.01266
1819.36289	0.01259
1818.07712	0.01238
1816.79135	0.01206
1815.50558	0.01174
1814.21981	0.01154
1812.93405	0.01147
1811.64828	0.01147
1810.36251	0.01146
1809.07674	0.01144
1807.79097	0.01144
1806.50520	0.01146
1805.21943	0.01146
1803.93366	0.01145
1802.64790	0.01146
1801.36213	0.01155
1800.07636	0.01172
1798.79059	0.01196
1797.50482	0.01222
1796.21905	0.01240
1794.93328	0.01245
1793.64751	0.01238
1792.36174	0.01225
1791.07598	0.01218
1789.79021	0.01222
1788.50444	0.01234
1787.21867	0.01248
1785.93290	0.01257
1784.64713	0.01262
1783.36136	0.01269
1782.07559	0.01280
1780.78983	0.01293
1779.50406	0.01300
1778.21829	0.01299
1776.93252	0.01292
1775.64675	0.01286
1774.36098	0.01282
1773.07521	0.01280
1771.78944	0.01279
1770.50367	0.01279
1769.21791	0.01280
1767.93214	0.01284
1766.64637	0.01295
1765.36060	0.01313
1764.07483	0.01332
1762.78906	0.01346
1761.50329	0.01350
1760.21752	0.01349
1758.93176	0.01348
1757.64599	0.01351
1756.36022	0.01356
1755.07445	0.01359
1753.78868	0.01361
1752.50291	0.01365
1751.21714	0.01372
1749.93137	0.01379
1748.64560	0.01385
1747.35984	0.01390
1746.07407	0.01396
1744.78830	0.01407
1743.50253	0.01421
1742.21676	0.01434
1740.93099	0.01444
1739.64522	0.01452
1738.35945	0.01459
1737.07369	0.01467
1735.78792	0.01476
1734.50215	0.01485
1733.21638	0.01495
1731.93061	0.01508
1730.64484	0.01524
1729.35907	0.01542
1728.07330	0.01556
1726.78753	0.01563
1725.50177	0.01570
1724.21600	0.01581
1722.93023	0.01602
1721.64446	0.01630
1720.35869	0.01659
1719.07292	0.01687
1717.78715	0.01714
1716.50138	0.01737
1715.21561	0.01754
1713.92985	0.01769
1712.64408	0.01786
1711.35831	0.01808
1710.07254	0.01833
1708.78677	0.01857
1707.50100	0.01879
1706.21523	0.01903
1704.92946	0.01934
1703.64370	0.01974
1702.35793	0.02016
1701.07216	0.02052
1699.78639	0.02078
1698.50062	0.02098
1697.21485	0.02118
1695.92908	0.02142
1694.64331	0.02168
1693.35754	0.02196
1692.07178	0.02226
1690.78601	0.02260
1689.50024	0.02298
1688.21447	0.02339
1686.92870	0.02378
1685.64293	0.02411
1684.35716	0.02435
1683.07139	0.02454
1681.78563	0.02475
1680.49986	0.02504
1679.21409	0.02540
1677.92832	0.02580
1676.64255	0.02619
1675.35678	0.02654
1674.07101	0.02686
1672.78524	0.02719
1671.49947	0.02755
1670.21371	0.02792
1668.92794	0.02828
1667.64217	0.02862
1666.35640	0.02898
1665.07063	0.02934
1663.78486	0.02965
1662.49909	0.02991
1661.21332	0.03012
1659.92756	0.03031
1658.64179	0.03048
1657.35602	0.03065
1656.07025	0.03088
1654.78448	0.03118
1653.49871	0.03149
1652.21294	0.03173
1650.92717	0.03186
1649.64140	0.03196
1648.35564	0.03209
1647.06987	0.03228
1645.78410	0.03247
1644.49833	0.03263
1643.21256	0.03274
1641.92679	0.03283
1640.64102	0.03292
1639.35525	0.03303
1638.06949	0.03321
1636.78372	0.03343
1635.49795	0.03364
1634.21218	0.03379
1632.92641	0.03388
1631.64064	0.03398
1630.35487	0.03415
1629.06910	0.03437
1627.78333	0.03461
1626.49757	0.03483
1625.21180	0.03504
1623.92603	0.03520
1622.64026	0.03531
1621.35449	0.03538
1620.06872	0.03547
1618.78295	0.03565
1617.49718	0.03591
1616.21142	0.03621
1614.92565	0.03649
1613.63988	0.03677
1612.35411	0.03707
1611.06834	0.03738
1609.78257	0.03768
1608.49680	0.03795
1607.21103	0.03816
1605.92526	0.03836
1604.63950	0.03857
1603.35373	0.03884
1602.06796	0.03917
1600.78219	0.03952
1599.49642	0.03985
1598.21065	0.04015
1596.92488	0.04043
1595.63911	0.04070
1594.35335	0.04092
1593.06758	0.04109
1591.78181	0.04122
1590.49604	0.04134
1589.21027	0.04146
1587.92450	0.04159
1586.63873	0.04175
1585.35296	0.04189
1584.06719	0.04199
1582.78143	0.04205
1581.49566	0.04210
1580.20989	0.04218
1578.92412	0.04233
1577.63835	0.04250
1576.35258	0.04266
1575.06681	0.04278
1573.78104	0.04290
1572.49528	0.04300
1571.20951	0.04308
1569.92374	0.04312
1568.63797	0.04315
1567.35220	0.04319
1566.06643	0.04324
1564.78066	0.04330
1563.49489	0.04335
1562.20912	0.04343
1560.92336	0.04355
1559.63759	0.04370
1558.35182	0.04380
1557.06605	0.04383
1555.78028	0.04380
1554.49451	0.04376
1553.20874	0.04371
1551.92297	0.04368
1550.63721	0.04370
1549.35144	0.04377
1548.06567	0.04383
1546.77990	0.04382
1545.49413	0.04374
1544.20836	0.04361
1542.92259	0.04346
1541.63682	0.04331
1540.35105	0.04316
1539.06529	0.04304
1537.77952	0.04293
1536.49375	0.04286
1535.20798	0.04284
1533.92221	0.04289
1532.63644	0.04301
1531.35067	0.04318
1530.06490	0.04342
1528.77914	0.04374
1527.49337	0.04413
1526.20760	0.04456
1524.92183	0.04504
1523.63606	0.04558
1522.35029	0.04623
1521.06452	0.04695
1519.77875	0.04771
1518.49298	0.04849
1517.20722	0.04932
1515.92145	0.05024
1514.63568	0.05125
1513.34991	0.05228
1512.06414	0.05332
1510.77837	0.05436
1509.49260	0.05544
1508.20683	0.05658
1506.92107	0.05778
1505.63530	0.05896
1504.34953	0.06008
1503.06376	0.06111
1501.77799	0.06210
1500.49222	0.06306
1499.20645	0.06400
1497.92068	0.06487
1496.63491	0.06565
1495.34915	0.06634
1494.06338	0.06698
1492.77761	0.06760
1491.49184	0.06828
1490.20607	0.06904
1488.92030	0.06987
1487.63453	0.07075
1486.34876	0.07168
1485.06299	0.07264
1483.77723	0.07364
1482.49146	0.07467
1481.20569	0.07571
1479.91992	0.07676
1478.63415	0.07777
1477.34838	0.07874
1476.06261	0.07965
1474.77684	0.08052
1473.49108	0.08135
1472.20531	0.08210
1470.91954	0.08271
1469.63377	0.08315
1468.34800	0.08347
1467.06223	0.08369
1465.77646	0.08388
1464.49069	0.08411
1463.20492	0.08444
1461.91916	0.08487
1460.63339	0.08536
1459.34762	0.08587
1458.06185	0.08638
1456.77608	0.08689
1455.49031	0.08735
1454.20454	0.08773
1452.91877	0.08804
1451.63301	0.08830
1450.34724	0.08852
1449.06147	0.08868
1447.77570	0.08876
1446.48993	0.08873
1445.20416	0.08856
1443.91839	0.08830
1442.63262	0.08799
1441.34685	0.08770
1440.06109	0.08747
1438.77532	0.08737
1437.48955	0.08741
1436.20378	0.08761
1434.91801	0.08797
1433.63224	0.08848
1432.34647	0.08917
1431.06070	0.09003
1429.77494	0.09105
1428.48917	0.09220
1427.20340	0.09344
1425.91763	0.09475
1424.63186	0.09609
1423.34609	0.09742
1422.06032	0.09869
1420.77455	0.09987
1419.48878	0.10090
1418.20302	0.10175
1416.91725	0.10240
1415.63148	0.10286
1414.34571	0.10317
1413.05994	0.10332
1411.77417	0.10328
1410.48840	0.10297
1409.20263	0.10239
1407.91687	0.10157
1406.63110	0.10060
1405.34533	0.09951
1404.05956	0.09827
1402.77379	0.09683
1401.48802	0.09519
1400.20225	0.09340
1398.91648	0.09154
1397.63071	0.08964
1396.34495	0.08771
1395.05918	0.08571
1393.77341	0.08365
1392.48764	0.08158
1391.20187	0.07956
1389.91610	0.07765
1388.63033	0.07584
1387.34456	0.07408
1386.05880	0.07230
1384.77303	0.07046
1383.48726	0.06855
1382.20149	0.06661
1380.91572	0.06471
1379.62995	0.06286
1378.34418	0.06104
1377.05841	0.05922
1375.77264	0.05739
1374.48688	0.05555
1373.20111	0.05373
1371.91534	0.05195
1370.62957	0.05022
1369.34380	0.04858
1368.05803	0.04709
1366.77226	0.04577
1365.48649	0.04456
1364.20073	0.04341
1362.91496	0.04227
1361.62919	0.04114
1360.34342	0.04005
1359.05765	0.03901
1357.77188	0.03805
1356.48611	0.03720
1355.20034	0.03644
1353.91457	0.03572
1352.62881	0.03498
1351.34304	0.03421
1350.05727	0.03346
1348.77150	0.03277
1347.48573	0.03213
1346.19996	0.03155
1344.91419	0.03101
1343.62842	0.03050
1342.34266	0.03001
1341.05689	0.02954
1339.77112	0.02911
1338.48535	0.02873
1337.19958	0.02838
1335.91381	0.02804
1334.62804	0.02769
1333.34227	0.02733
1332.05650	0.02698
1330.77074	0.02662
1329.48497	0.02627
1328.19920	0.02594
1326.91343	0.02563
1325.62766	0.02535
1324.34189	0.02512
1323.05612	0.02496
1321.77035	0.02485
1320.48459	0.02474
1319.19882	0.02457
1317.91305	0.02432
1316.62728	0.02401
1315.34151	0.02369
1314.05574	0.02340
1312.76997	0.02315
1311.48420	0.02299
1310.19843	0.02289
1308.91267	0.02281
1307.62690	0.02269
1306.34113	0.02252
1305.05536	0.02234
1303.76959	0.02221
1302.48382	0.02210
1301.19805	0.02198
1299.91228	0.02178
1298.62652	0.02153
1297.34075	0.02128
1296.05498	0.02110
1294.76921	0.02100
1293.48344	0.02094
1292.19767	0.02089
1290.91190	0.02081
1289.62613	0.02072
1288.34036	0.02064
1287.05460	0.02056
1285.76883	0.02046
1284.48306	0.02033
1283.19729	0.02019
1281.91152	0.02006
1280.62575	0.01993
1279.33998	0.01979
1278.05421	0.01965
1276.76845	0.01950
1275.48268	0.01935
1274.19691	0.01921
1272.91114	0.01911
1271.62537	0.01904
1270.33960	0.01899
1269.05383	0.01895
1267.76806	0.01891
1266.48229	0.01887
1265.19653	0.01883
1263.91076	0.01878
1262.62499	0.01871
1261.33922	0.01862
1260.05345	0.01851
1258.76768	0.01838
1257.48191	0.01822
1256.19614	0.01808
1254.91037	0.01801
1253.62461	0.01802
1252.33884	0.01805
1251.05307	0.01804
1249.76730	0.01797
1248.48153	0.01785
1247.19576	0.01772
1245.90999	0.01759
1244.62422	0.01746
1243.33846	0.01733
1242.05269	0.01723
1240.76692	0.01719
1239.48115	0.01719
1238.19538	0.01721
1236.90961	0.01721
1235.62384	0.01717
1234.33807	0.01711
1233.05230	0.01703
1231.76654	0.01695
1230.48077	0.01686
1229.19500	0.01678
1227.90923	0.01670
1226.62346	0.01661
1225.33769	0.01653
1224.05192	0.01646
1222.76615	0.01639
1221.48039	0.01635
1220.19462	0.01632
1218.90885	0.01627
1217.62308	0.01619
1216.33731	0.01609
1215.05154	0.01602
1213.76577	0.01598
1212.48000	0.01597
1211.19423	0.01599
1209.90847	0.01606
1208.62270	0.01617
1207.33693	0.01629
1206.05116	0.01638
1204.76539	0.01639
1203.47962	0.01635
1202.19385	0.01629
1200.90808	0.01616
1199.62232	0.01595
1198.33655	0.01601
1197.05078	0.01609
1195.76501	0.01614
1194.47924	0.01616
1193.19347	0.01616
1191.90770	0.01614
1190.62193	0.01614
1189.33616	0.01617
1188.05040	0.01620
1186.76463	0.01621
1185.47886	0.01619
1184.19309	0.01616
1182.90732	0.01616
1181.62155	0.01620
1180.33578	0.01628
1179.05001	0.01635
1177.76425	0.01643
1176.47848	0.01651
1175.19271	0.01660
1173.90694	0.01671
1172.62117	0.01684
1171.33540	0.01701
1170.04963	0.01721
1168.76386	0.01742
1167.47809	0.01764
1166.19233	0.01789
1164.90656	0.01816
1163.62079	0.01842
1162.33502	0.01866
1161.04925	0.01887
1159.76348	0.01912
1158.47771	0.01946
1157.19194	0.01988
1155.90618	0.02031
1154.62041	0.02070
1153.33464	0.02105
1152.04887	0.02146
1150.76310	0.02196
1149.47733	0.02253
1148.19156	0.02311
1146.90579	0.02370
1145.62002	0.02432
1144.33426	0.02502
1143.04849	0.02580
1141.76272	0.02670
1140.47695	0.02774
1139.19118	0.02888
1137.90541	0.03006
1136.61964	0.03128
1135.33387	0.03265
1134.04811	0.03426
1132.76234	0.03612
1131.47657	0.03819
1130.19080	0.04043
1128.90503	0.04284
1127.61926	0.04542
1126.33349	0.04815
1125.04772	0.05106
1123.76195	0.05417
1122.47619	0.05745
1121.19042	0.06078
1119.90465	0.06410
1118.61888	0.06738
1117.33311	0.07069
1116.04734	0.07405
1114.76157	0.07744
1113.47580	0.08079
1112.19004	0.08405
1110.90427	0.08725
1109.61850	0.09040
1108.33273	0.09349
1107.04696	0.09653
1105.76119	0.09952
1104.47542	0.10248
1103.18965	0.10537
1101.90388	0.10814
1100.61812	0.11076
1099.33235	0.11324
1098.04658	0.11561
1096.76081	0.11793
1095.47504	0.12022
1094.18927	0.12247
1092.90350	0.12462
1091.61773	0.12663
1090.33197	0.12851
1089.04620	0.13031
1087.76043	0.13209
1086.47466	0.13391
1085.18889	0.13579
1083.90312	0.13778
1082.61735	0.13989
1081.33158	0.14215
1080.04581	0.14456
1078.76005	0.14711
1077.47428	0.14976
1076.18851	0.15249
1074.90274	0.15525
1073.61697	0.15807
1072.33120	0.16097
1071.04543	0.16400
1069.75966	0.16718
1068.47390	0.17051
1067.18813	0.17393
1065.90236	0.17744
1064.61659	0.18102
1063.33082	0.18463
1062.04505	0.18821
1060.75928	0.19171
1059.47351	0.19513
1058.18774	0.19848
1056.90198	0.20180
1055.61621	0.20511
1054.33044	0.20844
1053.04467	0.21180
1051.75890	0.21523
1050.47313	0.21875
1049.18736	0.22241
1047.90159	0.22621
1046.61583	0.23012
1045.33006	0.23406
1044.04429	0.23797
1042.75852	0.24183
1041.47275	0.24570
1040.18698	0.24969
1038.90121	0.25388
1037.61544	0.25823
1036.32967	0.26258
1035.04391	0.26677
1033.75814	0.27069
1032.47237	0.27431
1031.18660	0.27762
1029.90083	0.28057
1028.61506	0.28309
1027.32929	0.28518
1026.04352	0.28688
1024.75775	0.28817
1023.47199	0.28900
1022.18622	0.28931
1020.90045	0.28910
1019.61468	0.28839
1018.32891	0.28719
1017.04314	0.28544
1015.75737	0.28306
1014.47160	0.28002
1013.18584	0.27637
1011.90007	0.27219
1010.61430	0.26748
1009.32853	0.26223
1008.04276	0.25643
1006.75699	0.25016
1005.47122	0.24347
1004.18545	0.23642
1002.89968	0.22901
1001.61392	0.22122
1000.32815	0.21309
999.04238	0.20472
997.75661	0.19630
996.47084	0.18795
995.18507	0.17974
993.89930	0.17164
992.61353	0.16368
991.32777	0.15590
990.04200	0.14837
988.75623	0.14117
987.47046	0.13436
986.18469	0.12797
984.89892	0.12199
983.61315	0.11643
982.32738	0.11128
981.04161	0.10654
979.75585	0.10221
978.47008	0.09832
977.18431	0.09490
975.89854	0.09193
974.61277	0.08937
973.32700	0.08730
972.04123	0.08583
970.75546	0.08497
969.46970	0.08464
968.18393	0.08473
966.89816	0.08519
965.61239	0.08600
964.32662	0.08705
963.04085	0.08810
961.75508	0.08888
960.46931	0.08910
959.18354	0.08858
957.89778	0.08732
956.61201	0.08542
955.32624	0.08307
954.04047	0.08045
952.75470	0.07770
951.46893	0.07496
950.18316	0.07231
948.89739	0.06979
947.61163	0.06740
946.32586	0.06517
945.04009	0.06310
943.75432	0.06115
942.46855	0.05925
941.18278	0.05738
939.89701	0.05557
938.61124	0.05389
937.32547	0.05234
936.03971	0.05095
934.75394	0.04971
933.46817	0.04865
932.18240	0.04775
930.89663	0.04690
929.61086	0.04600
928.32509	0.04503
927.03932	0.04410
925.75356	0.04331
924.46779	0.04267
923.18202	0.04215
921.89625	0.04172
920.61048	0.04134
919.32471	0.04097
918.03894	0.04055
916.75317	0.04008
915.46740	0.03958
914.18164	0.03912
912.89587	0.03878
911.61010	0.03855
910.32433	0.03836
909.03856	0.03809
907.75279	0.03771
906.46702	0.03727
905.18125	0.03684
903.89549	0.03646
902.60972	0.03613
901.32395	0.03583
900.03818	0.03561
898.75241	0.03549
897.46664	0.03542
896.18087	0.03537
894.89510	0.03534
893.60933	0.03542
892.32357	0.03567
891.03780	0.03611
889.75203	0.03673
888.46626	0.03755
887.18049	0.03864
885.89472	0.04015
884.60895	0.04226
883.32318	0.04501
882.03742	0.04814
880.75165	0.05114
879.46588	0.05352
878.18011	0.05512
876.89434	0.05622
875.60857	0.05723
874.32280	0.05834
873.03703	0.05925
871.75126	0.05952
870.46550	0.05890
869.17973	0.05750
867.89396	0.05557
866.60819	0.05334
865.32242	0.05097
864.03665	0.04865
862.75088	0.04651
861.46511	0.04464
860.17935	0.04299
858.89358	0.04156
857.60781	0.04035
856.32204	0.03934
855.03627	0.03846
853.75050	0.03763
852.46473	0.03688
851.17896	0.03629
849.89319	0.03590
848.60743	0.03565
847.32166	0.03540
846.03589	0.03507
844.75012	0.03470
843.46435	0.03436
842.17858	0.03408
840.89281	0.03384
839.60704	0.03359
838.32128	0.03335
837.03551	0.03313
835.74974	0.03298
834.46397	0.03289
833.17820	0.03287
831.89243	0.03283
830.60666	0.03273
829.32089	0.03258
828.03512	0.03242
826.74936	0.03228
825.46359	0.03220
824.17782	0.03216
822.89205	0.03217
821.60628	0.03218
820.32051	0.03214
819.03474	0.03202
817.74897	0.03187
816.46321	0.03179
815.17744	0.03182
813.89167	0.03191
812.60590	0.03196
811.32013	0.03189
810.03436	0.03175
808.74859	0.03159
807.46282	0.03147
806.17705	0.03140
804.89129	0.03137
803.60552	0.03134
802.31975	0.03127
801.03398	0.03118
799.74821	0.03107
798.46244	0.03101
797.17667	0.03102
795.89090	0.03108
794.60513	0.03114
793.31937	0.03115
792.03360	0.03115
790.74783	0.03120
789.46206	0.03131
788.17629	0.03142
786.89052	0.03143
785.60475	0.03134
784.31898	0.03117
783.03322	0.03096
781.74745	0.03075
780.46168	0.03062
779.17591	0.03065
777.89014	0.03083
776.60437	0.03105
775.31860	0.03116
774.03283	0.03112
772.74706	0.03100
771.46130	0.03089
770.17553	0.03084
768.88976	0.03085
767.60399	0.03089
766.31822	0.03099
765.03245	0.03113
763.74668	0.03128
762.46091	0.03137
761.17515	0.03142
759.88938	0.03147
758.60361	0.03153
757.31784	0.03156
756.03207	0.03150
754.74630	0.03136
753.46053	0.03124
752.17476	0.03120
750.88899	0.03123
749.60323	0.03126
748.31746	0.03125
747.03169	0.03121
745.74592	0.03114
744.46015	0.03102
743.17438	0.03083
741.88861	0.03062
740.60284	0.03049
739.31708	0.03049
738.03131	0.03066
736.74554	0.03099
735.45977	0.03142
734.17400	0.03175
732.88823	0.03181
731.60246	0.03162
730.31669	0.03139
729.03092	0.03129
727.74516	0.03133
726.45939	0.03145
725.17362	0.03159
723.88785	0.03170
722.60208	0.03181
721.31631	0.03187
720.03054	0.03185
718.74477	0.03179
717.45901	0.03172
716.17324	0.03167
714.88747	0.03163
713.60170	0.03158
712.31593	0.03152
711.03016	0.03146
709.74439	0.03140
708.45862	0.03134
707.17285	0.03127
705.88709	0.03120
704.60132	0.03118
703.31555	0.03119
702.02978	0.03124
700.74401	0.03127
699.45824	0.03127
698.17247	0.03126
696.88670	0.03124
695.60094	0.03122
694.31517	0.03120
693.02940	0.03119
691.74363	0.03120
690.45786	0.03123
689.17209	0.03127
687.88632	0.03129
686.60055	0.03126
685.31478	0.03115
684.02902	0.03099
682.74325	0.03081
681.45748	0.03067
680.17171	0.03058
678.88594	0.03051
677.60017	0.03045
676.31440	0.03043
675.02863	0.03050
673.74287	0.03064
672.45710	0.03082
671.17133	0.03096
669.88556	0.03105
668.59979	0.03111
667.31402	0.03116
666.02825	0.03115
664.74248	0.03104
663.45671	0.03083
662.17095	0.03058
660.88518	0.03037
659.59941	0.03023
658.31364	0.03017
657.02787	0.03017
655.74210	0.03021
654.45633	0.03024
653.17056	0.03021
651.88480	0.03014
650.59903	0.03008
649.31326	0.03010
648.02749	0.03020
646.74172	0.03035
645.45595	0.03050
644.17018	0.03064
642.88441	0.03075
641.59864	0.03086
640.31288	0.03098
639.02711	0.03115
637.74134	0.03137
636.45557	0.03166
635.16980	0.03203
633.88403	0.03246
632.59826	0.03290
631.31249	0.03353
630.02673	0.03530
628.74096	0.03780
627.45519	0.03733
626.16942	0.04050
624.88365	0.04634
623.59788	0.05255
622.31211	0.05828
621.02634	0.06302
619.74057	0.06630
618.45481	0.06789
617.16904	0.06803
615.88327	0.06733
614.59750	0.06687
613.31173	0.06797
612.02596	0.07173
610.74019	0.07832
609.45442	0.08647
608.16866	0.09416
606.88289	0.09981
605.59712	0.10302
604.31135	0.10435
603.02558	0.10468
601.73981	0.10441
600.45404	0.10323
599.16827	0.10077
597.88250	0.09724
596.59674	0.09339
595.31097	0.09002
594.02520	0.08753
592.73943	0.08584
591.45366	0.08472
590.16789	0.08401
588.88212	0.08375
587.59635	0.08401
586.31059	0.08482
585.02482	0.08615
583.73905	0.08795
582.45328	0.09015
581.16751	0.09271
579.88174	0.09556
578.59597	0.09855
577.31020	0.10150
576.02443	0.10431
574.73867	0.10704
573.45290	0.10982
572.16713	0.11278
570.88136	0.11599
569.59559	0.11958
568.30982	0.12362
567.02405	0.12796
565.73828	0.13220
564.45251	0.13574
563.16675	0.13803
561.88098	0.13869
560.59521	0.13755
559.30944	0.13455
558.02367	0.12977
556.73790	0.12358
555.45213	0.11661
554.16636	0.10953
552.88060	0.10275
551.59483	0.09642
550.30906	0.09061
549.02329	0.08539
547.73752	0.08073
546.45175	0.07653
545.16598	0.07270
543.88021	0.06920
542.59444	0.06604
541.30868	0.06319
540.02291	0.06062
538.73714	0.05831
537.45137	0.05628
536.16560	0.05447
534.87983	0.05281
533.59406	0.05121
532.30829	0.04966
531.02253	0.04817
529.73676	0.04680
528.45099	0.04554
527.16522	0.04438
525.87945	0.04329
524.59368	0.04224
523.30791	0.04120
522.02214	0.04013
520.73637	0.03905
519.45061	0.03806
518.16484	0.03724
516.87907	0.03661
515.59330	0.03608
514.30753	0.03554
513.02176	0.03496
511.73599	0.03439
510.45022	0.03389
509.16446	0.03347
507.87869	0.03307
506.59292	0.03258
505.30715	0.03198
504.02138	0.03139
502.73561	0.03088
501.44984	0.03049
500.16407	0.03013
498.87830	0.02975
497.59254	0.02936
496.30677	0.02899
495.02100	0.02867
493.73523	0.02841
492.44946	0.02822
491.16369	0.02813
489.87792	0.02809
488.59215	0.02808
487.30639	0.02807
486.02062	0.02804
484.73485	0.02798
483.44908	0.02793
482.16331	0.02794
480.87754	0.02802
479.59177	0.02813
478.30600	0.02824
477.02023	0.02836
475.73447	0.02852
474.44870	0.02872
473.16293	0.02894
471.87716	0.02915
470.59139	0.02931
469.30562	0.02939
468.01985	0.02936
466.73408	0.02919
465.44832	0.02893
464.16255	0.02861
462.87678	0.02827
461.59101	0.02791
460.30524	0.02758
459.01947	0.02730
457.73370	0.02707
456.44793	0.02687
455.16216	0.02666
453.87640	0.02645
452.59063	0.02624
451.30486	0.02601
450.01909	0.02576
448.73332	0.02554
447.44755	0.02541
446.16178	0.02538
444.87601	0.02538
443.59025	0.02531
442.30448	0.02511
441.01871	0.02485
439.73294	0.02465
438.44717	0.02458
437.16140	0.02464
435.87563	0.02475
434.58986	0.02479
433.30409	0.02474
432.01833	0.02467
430.73256	0.02468
429.44679	0.02479
428.16102	0.02495
426.87525	0.02504
425.58948	0.02502
424.30371	0.02489
423.01794	0.02473
421.73218	0.02458
420.44641	0.02445
419.16064	0.02434
417.87487	0.02426
416.58910	0.02422
415.30333	0.02420
414.01756	0.02420
412.73179	0.02424
411.44602	0.02434
410.16026	0.02450
408.87449	0.02470
407.58872	0.02490
406.30295	0.02506
405.01718	0.02518
403.73141	0.02527
402.44564	0.02533
401.15987	0.02541
399.87411	0.02549
