3997.45528	-0.01265
3996.16951	-0.01219
3994.88374	-0.01160
3993.59798	-0.01116
3992.31221	-0.01115
3991.02644	-0.01152
3989.74067	-0.01193
3988.45490	-0.01198
3987.16913	-0.01165
3985.88336	-0.01127
3984.59759	-0.01116
3983.31183	-0.01129
3982.02606	-0.01132
3980.74029	-0.01103
3979.45452	-0.01054
3978.16875	-0.01007
3976.88298	-0.00971
3975.59721	-0.00945
3974.31144	-0.00927
3973.02567	-0.00908
3971.73991	-0.00885
3970.45414	-0.00863
3969.16837	-0.00855
3967.88260	-0.00875
3966.59683	-0.00918
3965.31106	-0.00965
3964.02529	-0.00993
3962.73952	-0.00987
3961.45376	-0.00946
3960.16799	-0.00885
3958.88222	-0.00820
3957.59645	-0.00759
3956.31068	-0.00694
3955.02491	-0.00623
3953.73914	-0.00554
3952.45337	-0.00509
3951.16760	-0.00498
3949.88184	-0.00508
3948.59607	-0.00527
3947.31030	-0.00563
3946.02453	-0.00630
3944.73876	-0.00716
3943.45299	-0.00778
3942.16722	-0.00782
3940.88145	-0.00734
3939.59569	-0.00671
3938.30992	-0.00615
3937.02415	-0.00572
3935.73838	-0.00548
3934.45261	-0.00554
3933.16684	-0.00592
3931.88107	-0.00648
3930.59530	-0.00695
3929.30953	-0.00707
3928.02377	-0.00663
3926.73800	-0.00569
3925.45223	-0.00463
3924.16646	-0.00389
3922.88069	-0.00370
3921.59492	-0.00400
3920.30915	-0.00453
3919.02338	-0.00505
3917.73762	-0.00536
3916.45185	-0.00525
3915.16608	-0.00471
3913.88031	-0.00401
3912.59454	-0.00350
3911.30877	-0.00339
3910.02300	-0.00369
3908.73723	-0.00431
3907.45146	-0.00507
3906.16570	-0.00578
3904.87993	-0.00617
3903.59416	-0.00603
3902.30839	-0.00551
3901.02262	-0.00503
3899.73685	-0.00482
3898.45108	-0.00473
3897.16531	-0.00458
3895.87955	-0.00434
3894.59378	-0.00411
3893.30801	-0.00395
3892.02224	-0.00371
3890.73647	-0.00312
3889.45070	-0.00231
3888.16493	-0.00177
3886.87916	-0.00161
3885.59339	-0.00134
3884.30763	-0.00079
3883.02186	-0.00037
3881.73609	-0.00046
3880.45032	-0.00085
3879.16455	-0.00126
3877.87878	-0.00172
3876.59301	-0.00234
3875.30724	-0.00285
3874.02148	-0.00296
3872.73571	-0.00286
3871.44994	-0.00286
3870.16417	-0.00281
3868.87840	-0.00234
3867.59263	-0.00162
3866.30686	-0.00105
3865.02109	-0.00074
3863.73532	-0.00072
3862.44956	-0.00104
3861.16379	-0.00141
3859.87802	-0.00136
3858.59225	-0.00086
3857.30648	-0.00044
3856.02071	-0.00061
3854.73494	-0.00107
3853.44917	-0.00101
3852.16341	-0.00023
3850.87764	0.00058
3849.59187	0.00092
3848.30610	0.00092
3847.02033	0.00089
3845.73456	0.00099
3844.44879	0.00130
3843.16302	0.00176
3841.87725	0.00203
3840.59149	0.00171
3839.30572	0.00088
3838.01995	0.00028
3836.73418	0.00045
3835.44841	0.00110
3834.16264	0.00151
3832.87687	0.00136
3831.59110	0.00079
3830.30534	0.00014
3829.01957	-0.00030
3827.73380	-0.00029
3826.44803	0.00020
3825.16226	0.00073
3823.87649	0.00075
3822.59072	0.00037
3821.30495	0.00046
3820.01918	0.00138
3818.73342	0.00235
3817.44765	0.00257
3816.16188	0.00236
3814.87611	0.00232
3813.59034	0.00218
3812.30457	0.00149
3811.01880	0.00034
3809.73303	-0.00091
3808.44726	-0.00190
3807.16150	-0.00201
3805.87573	-0.00094
3804.58996	0.00055
3803.30419	0.00140
3802.01842	0.00156
3800.73265	0.00175
3799.44688	0.00217
3798.16111	0.00237
3796.87535	0.00221
3795.58958	0.00193
3794.30381	0.00161
3793.01804	0.00125
3791.73227	0.00104
3790.44650	0.00113
3789.16073	0.00146
3787.87496	0.00181
3786.58919	0.00202
3785.30343	0.00207
3784.01766	0.00204
3782.73189	0.00200
3781.44612	0.00202
3780.16035	0.00210
3778.87458	0.00216
3777.58881	0.00191
3776.30304	0.00124
3775.01728	0.00056
3773.73151	0.00036
3772.44574	0.00065
3771.15997	0.00111
3769.87420	0.00145
3768.58843	0.00157
3767.30266	0.00147
3766.01689	0.00128
3764.73112	0.00116
3763.44536	0.00095
3762.15959	0.00041
3760.87382	-0.00028
3759.58805	-0.00060
3758.30228	-0.00031
3757.01651	0.00043
3755.73074	0.00117
3754.44497	0.00159
3753.15921	0.00178
3751.87344	0.00207
3750.58767	0.00254
3749.30190	0.00310
3748.01613	0.00346
3746.73036	0.00315
3745.44459	0.00225
3744.15882	0.00157
3742.87305	0.00133
3741.58729	0.00086
3740.30152	-0.00004
3739.01575	-0.00088
3737.72998	-0.00141
3736.44421	-0.00164
3735.15844	-0.00171
3733.87267	-0.00179
3732.58690	-0.00209
3731.30114	-0.00245
3730.01537	-0.00273
3728.72960	-0.00297
3727.44383	-0.00297
3726.15806	-0.00260
3724.87229	-0.00217
3723.58652	-0.00224
3722.30075	-0.00312
3721.01498	-0.00432
3719.72922	-0.00485
3718.44345	-0.00410
3717.15768	-0.00229
3715.87191	-0.00040
3714.58614	0.00069
3713.30037	0.00085
3712.01460	0.00040
3710.72883	-0.00015
3709.44307	-0.00049
3708.15730	-0.00083
3706.87153	-0.00132
3705.58576	-0.00204
3704.29999	-0.00285
3703.01422	-0.00331
3701.72845	-0.00310
3700.44268	-0.00234
3699.15691	-0.00147
3697.87115	-0.00089
3696.58538	-0.00056
3695.29961	-0.00028
3694.01384	0.00017
3692.72807	0.00069
3691.44230	0.00112
3690.15653	0.00128
3688.87076	0.00119
3687.58500	0.00122
3686.29923	0.00150
3685.01346	0.00178
3683.72769	0.00210
3682.44192	0.00281
3681.15615	0.00393
3679.87038	0.00503
3678.58461	0.00547
3677.29884	0.00515
3676.01308	0.00490
3674.72731	0.00550
3673.44154	0.00629
3672.15577	0.00609
3670.87000	0.00500
3669.58423	0.00417
3668.29846	0.00419
3667.01269	0.00475
3665.72693	0.00545
3664.44116	0.00605
3663.15539	0.00628
3661.86962	0.00596
3660.58385	0.00524
3659.29808	0.00460
3658.01231	0.00453
3656.72654	0.00529
3655.44077	0.00664
3654.15501	0.00781
3652.86924	0.00817
3651.58347	0.00795
3650.29770	0.00805
3649.01193	0.00893
3647.72616	0.01018
3646.44039	0.01101
3645.15462	0.01100
3643.86886	0.01035
3642.58309	0.00965
3641.29732	0.00939
3640.01155	0.00972
3638.72578	0.01044
3637.44001	0.01119
3636.15424	0.01168
3634.86847	0.01197
3633.58270	0.01233
3632.29694	0.01287
3631.01117	0.01345
3629.72540	0.01401
3628.43963	0.01470
3627.15386	0.01526
3625.86809	0.01518
3624.58232	0.01464
3623.29655	0.01447
3622.01079	0.01503
3620.72502	0.01598
3619.43925	0.01683
3618.15348	0.01747
3616.86771	0.01793
3615.58194	0.01824
3614.29617	0.01867
3613.01040	0.01965
3611.72463	0.02109
3610.43887	0.02218
3609.15310	0.02229
3607.86733	0.02160
3606.58156	0.02078
3605.29579	0.02022
3604.01002	0.02002
3602.72425	0.02027
3601.43848	0.02098
3600.15272	0.02205
3598.86695	0.02324
3597.58118	0.02431
3596.29541	0.02506
3595.00964	0.02564
3593.72387	0.02611
3592.43810	0.02618
3591.15233	0.02591
3589.86656	0.02558
3588.58080	0.02550
3587.29503	0.02594
3586.00926	0.02669
3584.72349	0.02729
3583.43772	0.02770
3582.15195	0.02817
3580.86618	0.02888
3579.58041	0.02970
3578.29464	0.03036
3577.00888	0.03080
3575.72311	0.03123
3574.43734	0.03175
3573.15157	0.03227
3571.86580	0.03261
3570.58003	0.03269
3569.29426	0.03258
3568.00849	0.03248
3566.72273	0.03260
3565.43696	0.03316
3564.15119	0.03430
3562.86542	0.03588
3561.57965	0.03746
3560.29388	0.03859
3559.00811	0.03903
3557.72234	0.03890
3556.43657	0.03856
3555.15081	0.03833
3553.86504	0.03828
3552.57927	0.03832
3551.29350	0.03835
3550.00773	0.03846
3548.72196	0.03878
3547.43619	0.03923
3546.15042	0.03951
3544.86466	0.03941
3543.57889	0.03902
3542.29312	0.03879
3541.00735	0.03907
3539.72158	0.03989
3538.43581	0.04098
3537.15004	0.04212
3535.86427	0.04320
3534.57850	0.04413
3533.29274	0.04470
3532.00697	0.04477
3530.72120	0.04447
3529.43543	0.04414
3528.14966	0.04409
3526.86389	0.04444
3525.57812	0.04506
3524.29235	0.04583
3523.00659	0.04662
3521.72082	0.04725
3520.43505	0.04751
3519.14928	0.04737
3517.86351	0.04719
3516.57774	0.04739
3515.29197	0.04814
3514.00620	0.04918
3512.72043	0.05008
3511.43467	0.05063
3510.14890	0.05092
3508.86313	0.05113
3507.57736	0.05128
3506.29159	0.05139
3505.00582	0.05162
3503.72005	0.05215
3502.43428	0.05303
3501.14852	0.05404
3499.86275	0.05484
3498.57698	0.05520
3497.29121	0.05517
3496.00544	0.05506
3494.71967	0.05522
3493.43390	0.05570
3492.14813	0.05632
3490.86236	0.05682
3489.57660	0.05704
3488.29083	0.05690
3487.00506	0.05652
3485.71929	0.05618
3484.43352	0.05618
3483.14775	0.05660
3481.86198	0.05723
3480.57621	0.05775
3479.29045	0.05805
3478.00468	0.05829
3476.71891	0.05854
3475.43314	0.05873
3474.14737	0.05881
3472.86160	0.05894
3471.57583	0.05930
3470.29006	0.05988
3469.00429	0.06052
3467.71853	0.06105
3466.43276	0.06133
3465.14699	0.06138
3463.86122	0.06135
3462.57545	0.06138
3461.28968	0.06138
3460.00391	0.06121
3458.71814	0.06095
3457.43238	0.06095
3456.14661	0.06144
3454.86084	0.06221
3453.57507	0.06283
3452.28930	0.06305
3451.00353	0.06304
3449.71776	0.06309
3448.43199	0.06333
3447.14622	0.06366
3445.86046	0.06391
3444.57469	0.06412
3443.28892	0.06446
3442.00315	0.06499
3440.71738	0.06558
3439.43161	0.06599
3438.14584	0.06604
3436.86007	0.06568
3435.57431	0.06508
3434.28854	0.06464
3433.00277	0.06474
3431.71700	0.06544
3430.43123	0.06644
3429.14546	0.06731
3427.85969	0.06790
3426.57392	0.06826
3425.28815	0.06849
3424.00239	0.06861
3422.71662	0.06860
3421.43085	0.06852
3420.14508	0.06855
3418.85931	0.06881
3417.57354	0.06926
3416.28777	0.06964
3415.00200	0.06975
3413.71624	0.06967
3412.43047	0.06969
3411.14470	0.06998
3409.85893	0.07037
3408.57316	0.07057
3407.28739	0.07055
3406.00162	0.07050
3404.71585	0.07061
3403.43008	0.07081
3402.14432	0.07095
3400.85855	0.07097
3399.57278	0.07094
3398.28701	0.07099
3397.00124	0.07105
3395.71547	0.07107
3394.42970	0.07120
3393.14393	0.07156
3391.85817	0.07209
3390.57240	0.07252
3389.28663	0.07268
3388.00086	0.07262
3386.71509	0.07251
3385.42932	0.07248
3384.14355	0.07254
3382.85778	0.07265
3381.57201	0.07277
3380.28625	0.07288
3379.00048	0.07300
3377.71471	0.07308
3376.42894	0.07313
3375.14317	0.07317
3373.85740	0.07329
3372.57163	0.07351
3371.28586	0.07374
3370.00010	0.07383
3368.71433	0.07371
3367.42856	0.07348
3366.14279	0.07323
3364.85702	0.07301
3363.57125	0.07283
3362.28548	0.07276
3360.99971	0.07285
3359.71394	0.07299
3358.42818	0.07298
3357.14241	0.07283
3355.85664	0.07277
3354.57087	0.07295
3353.28510	0.07332
3351.99933	0.07366
3350.71356	0.07382
3349.42779	0.07382
3348.14202	0.07376
3346.85626	0.07366
3345.57049	0.07351
3344.28472	0.07334
3342.99895	0.07326
3341.71318	0.07332
3340.42741	0.07339
3339.14164	0.07331
3337.85587	0.07307
3336.57011	0.07289
3335.28434	0.07296
3333.99857	0.07330
3332.71280	0.07376
3331.42703	0.07413
3330.14126	0.07415
3328.85549	0.07373
3327.56972	0.07312
3326.28395	0.07279
3324.99819	0.07303
3323.71242	0.07364
3322.42665	0.07415
3321.14088	0.07427
3319.85511	0.07410
3318.56934	0.07386
3317.28357	0.07367
3315.99780	0.07345
3314.71204	0.07312
3313.42627	0.07275
3312.14050	0.07256
3310.85473	0.07268
3309.56896	0.07297
3308.28319	0.07313
3306.99742	0.07296
3305.71165	0.07250
3304.42588	0.07194
3303.14012	0.07140
3301.85435	0.07097
3300.56858	0.07071
3299.28281	0.07066
3297.99704	0.07073
3296.71127	0.07082
3295.42550	0.07090
3294.13973	0.07105
3292.85397	0.07125
3291.56820	0.07142
3290.28243	0.07153
3288.99666	0.07154
3287.71089	0.07144
3286.42512	0.07129
3285.13935	0.07125
3283.85358	0.07141
3282.56781	0.07165
3281.28205	0.07168
3279.99628	0.07138
3278.71051	0.07098
3277.42474	0.07087
3276.13897	0.07121
3274.85320	0.07178
3273.56743	0.07221
3272.28166	0.07237
3270.99590	0.07238
3269.71013	0.07237
3268.42436	0.07237
3267.13859	0.07236
3265.85282	0.07232
3264.56705	0.07227
3263.28128	0.07214
3261.99551	0.07193
3260.70974	0.07171
3259.42398	0.07162
3258.13821	0.07175
3256.85244	0.07200
3255.56667	0.07213
3254.28090	0.07195
3252.99513	0.07142
3251.70936	0.07078
3250.42359	0.07030
3249.13783	0.07011
3247.85206	0.07011
3246.56629	0.07008
3245.28052	0.06997
3243.99475	0.06987
3242.70898	0.06992
3241.42321	0.07011
3240.13744	0.07033
3238.85167	0.07049
3237.56591	0.07057
3236.28014	0.07056
3234.99437	0.07049
3233.70860	0.07037
3232.42283	0.07026
3231.13706	0.07018
3229.85129	0.07006
3228.56552	0.06982
3227.27976	0.06940
3225.99399	0.06889
3224.70822	0.06845
3223.42245	0.06821
3222.13668	0.06812
3220.85091	0.06804
3219.56514	0.06792
3218.27937	0.06785
3216.99360	0.06794
3215.70784	0.06823
3214.42207	0.06864
3213.13630	0.06895
3211.85053	0.06899
3210.56476	0.06873
3209.27899	0.06824
3207.99322	0.06754
3206.70745	0.06674
3205.42169	0.06609
3204.13592	0.06583
3202.85015	0.06596
3201.56438	0.06621
3200.27861	0.06637
3198.99284	0.06651
3197.70707	0.06678
3196.42130	0.06713
3195.13553	0.06732
3193.84977	0.06722
3192.56400	0.06699
3191.27823	0.06685
3189.99246	0.06681
3188.70669	0.06673
3187.42092	0.06654
3186.13515	0.06631
3184.84938	0.06612
3183.56362	0.06604
3182.27785	0.06609
3180.99208	0.06629
3179.70631	0.06655
3178.42054	0.06667
3177.13477	0.06649
3175.84900	0.06603
3174.56323	0.06547
3173.27746	0.06509
3171.99170	0.06502
3170.70593	0.06513
3169.42016	0.06512
3168.13439	0.06484
3166.84862	0.06449
3165.56285	0.06435
3164.27708	0.06447
3162.99131	0.06460
3161.70555	0.06446
3160.41978	0.06406
3159.13401	0.06369
3157.84824	0.06359
3156.56247	0.06371
3155.27670	0.06377
3153.99093	0.06354
3152.70516	0.06308
3151.41939	0.06262
3150.13363	0.06237
3148.84786	0.06238
3147.56209	0.06254
3146.27632	0.06268
3144.99055	0.06268
3143.70478	0.06250
3142.41901	0.06221
3141.13324	0.06192
3139.84748	0.06177
3138.56171	0.06173
3137.27594	0.06165
3135.99017	0.06141
3134.70440	0.06106
3133.41863	0.06078
3132.13286	0.06065
3130.84709	0.06061
3129.56132	0.06055
3128.27556	0.06044
3126.98979	0.06032
3125.70402	0.06018
3124.41825	0.06005
3123.13248	0.05995
3121.84671	0.05983
3120.56094	0.05960
3119.27517	0.05923
3117.98940	0.05888
3116.70364	0.05880
3115.41787	0.05904
3114.13210	0.05943
3112.84633	0.05966
3111.56056	0.05959
3110.27479	0.05927
3108.98902	0.05888
3107.70325	0.05859
3106.41749	0.05844
3105.13172	0.05837
3103.84595	0.05834
3102.56018	0.05840
3101.27441	0.05865
3099.98864	0.05907
3098.70287	0.05944
3097.41710	0.05947
3096.13133	0.05909
3094.84557	0.05851
3093.55980	0.05803
3092.27403	0.05774
3090.98826	0.05756
3089.70249	0.05743
3088.41672	0.05740
3087.13095	0.05751
3085.84518	0.05774
3084.55942	0.05795
3083.27365	0.05802
3081.98788	0.05789
3080.70211	0.05761
3079.41634	0.05727
3078.13057	0.05697
3076.84480	0.05669
3075.55903	0.05641
3074.27326	0.05608
3072.98750	0.05573
3071.70173	0.05533
3070.41596	0.05494
3069.13019	0.05466
3067.84442	0.05460
3066.55865	0.05474
3065.27288	0.05487
3063.98711	0.05479
3062.70135	0.05454
3061.41558	0.05432
3060.12981	0.05429
3058.84404	0.05442
3057.55827	0.05451
3056.27250	0.05439
3054.98673	0.05411
3053.70096	0.05376
3052.41519	0.05344
3051.12943	0.05322
3049.84366	0.05318
3048.55789	0.05336
3047.27212	0.05369
3045.98635	0.05393
3044.70058	0.05391
3043.41481	0.05356
3042.12904	0.05306
3040.84328	0.05265
3039.55751	0.05251
3038.27174	0.05259
3036.98597	0.05266
3035.70020	0.05252
3034.41443	0.05217
3033.12866	0.05178
3031.84289	0.05159
3030.55712	0.05171
3029.27136	0.05204
3027.98559	0.05237
3026.69982	0.05249
3025.41405	0.05232
3024.12828	0.05192
3022.84251	0.05156
3021.55674	0.05149
3020.27097	0.05174
3018.98521	0.05210
3017.69944	0.05235
3016.41367	0.05243
3015.12790	0.05236
3013.84213	0.05218
3012.55636	0.05195
3011.27059	0.05174
3009.98482	0.05167
3008.69905	0.05176
3007.41329	0.05191
3006.12752	0.05190
3004.84175	0.05154
3003.55598	0.05085
3002.27021	0.05001
3000.98444	0.04933
2999.69867	0.04903
2998.41290	0.04923
2997.12714	0.04960
2995.84137	0.04985
2994.55560	0.04989
2993.26983	0.04989
2991.98406	0.05003
2990.69829	0.05023
2989.41252	0.05030
2988.12675	0.05019
2986.84098	0.05013
2985.55522	0.05026
2984.26945	0.05050
2982.98368	0.05060
2981.69791	0.05055
2980.41214	0.05055
2979.12637	0.05083
2977.84060	0.05145
2976.55483	0.05226
2975.26907	0.05301
2973.98330	0.05350
2972.69753	0.05375
2971.41176	0.05398
2970.12599	0.05436
2968.84022	0.05490
2967.55445	0.05551
2966.26868	0.05614
2964.98291	0.05677
2963.69715	0.05741
2962.41138	0.05809
2961.12561	0.05887
2959.83984	0.05970
2958.55407	0.06043
2957.26830	0.06085
2955.98253	0.06089
2954.69676	0.06067
2953.41100	0.06045
2952.12523	0.06036
2950.83946	0.06044
2949.55369	0.06057
2948.26792	0.06066
2946.98215	0.06064
2945.69638	0.06054
2944.41061	0.06040
2943.12484	0.06025
2941.83908	0.06009
2940.55331	0.05997
2939.26754	0.06001
2937.98177	0.06032
2936.69600	0.06089
2935.41023	0.06157
2934.12446	0.06219
2932.83869	0.06271
2931.55293	0.06319
2930.26716	0.06369
2928.98139	0.06419
2927.69562	0.06471
2926.40985	0.06524
2925.12408	0.06564
2923.83831	0.06571
2922.55254	0.06536
2921.26677	0.06474
2919.98101	0.06405
2918.69524	0.06336
2917.40947	0.06262
2916.12370	0.06184
2914.83793	0.06110
2913.55216	0.06048
2912.26639	0.05997
2910.98062	0.05950
2909.69486	0.05907
2908.40909	0.05871
2907.12332	0.05844
2905.83755	0.05814
2904.55178	0.05772
2903.26601	0.05723
2901.98024	0.05676
2900.69447	0.05631
2899.40870	0.05578
2898.12294	0.05517
2896.83717	0.05463
2895.55140	0.05431
2894.26563	0.05411
2892.97986	0.05376
2891.69409	0.05311
2890.40832	0.05238
2889.12255	0.05192
2887.83678	0.05181
2886.55102	0.05184
2885.26525	0.05171
2883.97948	0.05140
2882.69371	0.05106
2881.40794	0.05083
2880.12217	0.05080
2878.83640	0.05105
2877.55063	0.05154
2876.26487	0.05207
2874.97910	0.05241
2873.69333	0.05251
2872.40756	0.05247
2871.12179	0.05240
2869.83602	0.05232
2868.55025	0.05217
2867.26448	0.05199
2865.97871	0.05183
2864.69295	0.05180
2863.40718	0.05191
2862.12141	0.05209
2860.83564	0.05226
2859.54987	0.05231
2858.26410	0.05225
2856.97833	0.05204
2855.69256	0.05167
2854.40680	0.05115
2853.12103	0.05060
2851.83526	0.05017
2850.54949	0.04983
2849.26372	0.04943
2847.97795	0.04885
2846.69218	0.04812
2845.40641	0.04734
2844.12064	0.04654
2842.83488	0.04578
2841.54911	0.04512
2840.26334	0.04459
2838.97757	0.04414
2837.69180	0.04371
2836.40603	0.04334
2835.12026	0.04309
2833.83449	0.04292
2832.54873	0.04265
2831.26296	0.04218
2829.97719	0.04163
2828.69142	0.04119
2827.40565	0.04099
2826.11988	0.04092
2824.83411	0.04079
2823.54834	0.04052
2822.26257	0.04018
2820.97681	0.03988
2819.69104	0.03962
2818.40527	0.03936
2817.11950	0.03909
2815.83373	0.03890
2814.54796	0.03881
2813.26219	0.03875
2811.97642	0.03861
2810.69066	0.03840
2809.40489	0.03827
2808.11912	0.03833
2806.83335	0.03851
2805.54758	0.03863
2804.26181	0.03856
2802.97604	0.03829
2801.69027	0.03799
2800.40450	0.03780
2799.11874	0.03776
2797.83297	0.03776
2796.54720	0.03769
2795.26143	0.03751
2793.97566	0.03727
2792.68989	0.03709
2791.40412	0.03703
2790.11835	0.03713
2788.83259	0.03730
2787.54682	0.03741
2786.26105	0.03731
2784.97528	0.03696
2783.68951	0.03651
2782.40374	0.03615
2781.11797	0.03598
2779.83220	0.03593
2778.54643	0.03591
2777.26067	0.03587
2775.97490	0.03583
2774.68913	0.03582
2773.40336	0.03583
2772.11759	0.03580
2770.83182	0.03565
2769.54605	0.03537
2768.26028	0.03509
2766.97452	0.03499
2765.68875	0.03515
2764.40298	0.03541
2763.11721	0.03548
2761.83144	0.03521
2760.54567	0.03479
2759.25990	0.03455
2757.97413	0.03464
2756.68836	0.03492
2755.40260	0.03509
2754.11683	0.03499
2752.83106	0.03470
2751.54529	0.03443
2750.25952	0.03435
2748.97375	0.03448
2747.68798	0.03470
2746.40221	0.03485
2745.11645	0.03491
2743.83068	0.03489
2742.54491	0.03483
2741.25914	0.03469
2739.97337	0.03448
2738.68760	0.03428
2737.40183	0.03415
2736.11606	0.03404
2734.83029	0.03392
2733.54453	0.03384
2732.25876	0.03385
2730.97299	0.03390
2729.68722	0.03385
2728.40145	0.03368
2727.11568	0.03350
2725.82991	0.03344
2724.54414	0.03346
2723.25838	0.03345
2721.97261	0.03337
2720.68684	0.03334
2719.40107	0.03342
2718.11530	0.03359
2716.82953	0.03372
2715.54376	0.03376
2714.25799	0.03371
2712.97222	0.03357
2711.68646	0.03337
2710.40069	0.03316
2709.11492	0.03292
2707.82915	0.03266
2706.54338	0.03243
2705.25761	0.03235
2703.97184	0.03244
2702.68607	0.03258
2701.40031	0.03262
2700.11454	0.03248
2698.82877	0.03226
2697.54300	0.03208
2696.25723	0.03206
2694.97146	0.03219
2693.68569	0.03233
2692.39992	0.03238
2691.11415	0.03231
2689.82839	0.03218
2688.54262	0.03205
2687.25685	0.03194
2685.97108	0.03186
2684.68531	0.03181
2683.39954	0.03180
2682.11377	0.03179
2680.82800	0.03177
2679.54224	0.03176
2678.25647	0.03176
2676.97070	0.03173
2675.68493	0.03167
2674.39916	0.03156
2673.11339	0.03137
2671.82762	0.03116
2670.54185	0.03102
2669.25608	0.03102
2667.97032	0.03108
2666.68455	0.03110
2665.39878	0.03108
2664.11301	0.03108
2662.82724	0.03114
2661.54147	0.03126
2660.25570	0.03136
2658.96993	0.03140
2657.68417	0.03134
2656.39840	0.03121
2655.11263	0.03109
2653.82686	0.03099
2652.54109	0.03087
2651.25532	0.03069
2649.96955	0.03046
2648.68378	0.03023
2647.39801	0.03005
2646.11225	0.02991
2644.82648	0.02976
2643.54071	0.02947
2642.25494	0.02909
2640.96917	0.02880
2639.68340	0.02872
2638.39763	0.02878
2637.11186	0.02877
2635.82609	0.02857
2634.54033	0.02824
2633.25456	0.02799
2631.96879	0.02798
2630.68302	0.02817
2629.39725	0.02833
2628.11148	0.02822
2626.82571	0.02779
2625.53994	0.02721
2624.25418	0.02672
2622.96841	0.02644
2621.68264	0.02635
2620.39687	0.02635
2619.11110	0.02639
2617.82533	0.02641
2616.53956	0.02636
2615.25379	0.02624
2613.96802	0.02614
2612.68226	0.02613
2611.39649	0.02617
2610.11072	0.02616
2608.82495	0.02603
2607.53918	0.02575
2606.25341	0.02534
2604.96764	0.02489
2603.68187	0.02449
2602.39611	0.02417
2601.11034	0.02395
2599.82457	0.02383
2598.53880	0.02387
2597.25303	0.02411
2595.96726	0.02446
2594.68149	0.02480
2593.39572	0.02500
2592.10995	0.02497
2590.82419	0.02475
2589.53842	0.02444
2588.25265	0.02415
2586.96688	0.02390
2585.68111	0.02366
2584.39534	0.02349
2583.10957	0.02346
2581.82380	0.02360
2580.53804	0.02380
2579.25227	0.02394
2577.96650	0.02402
2576.68073	0.02412
2575.39496	0.02426
2574.10919	0.02433
2572.82342	0.02424
2571.53765	0.02387
2570.25188	0.02321
2568.96612	0.02240
2567.68035	0.02180
2566.39458	0.02171
2565.10881	0.02203
2563.82304	0.02240
2562.53727	0.02261
2561.25150	0.02272
2559.96573	0.02283
2558.67997	0.02283
2557.39420	0.02269
2556.10843	0.02258
2554.82266	0.02270
2553.53689	0.02299
2552.25112	0.02318
2550.96535	0.02310
2549.67958	0.02272
2548.39381	0.02218
2547.10805	0.02169
2545.82228	0.02143
2544.53651	0.02139
2543.25074	0.02139
2541.96497	0.02127
2540.67920	0.02104
2539.39343	0.02082
2538.10766	0.02083
2536.82190	0.02113
2535.53613	0.02157
2534.25036	0.02187
2532.96459	0.02194
2531.67882	0.02198
2530.39305	0.02215
2529.10728	0.02238
2527.82151	0.02244
2526.53574	0.02223
2525.24998	0.02190
2523.96421	0.02161
2522.67844	0.02141
2521.39267	0.02123
2520.10690	0.02099
2518.82113	0.02069
2517.53536	0.02043
2516.24959	0.02037
2514.96383	0.02051
2513.67806	0.02070
2512.39229	0.02082
2511.10652	0.02091
2509.82075	0.02110
2508.53498	0.02132
2507.24921	0.02132
2505.96344	0.02101
2504.67767	0.02069
2503.39191	0.02063
2502.10614	0.02080
2500.82037	0.02086
2499.53460	0.02064
2498.24883	0.02033
2496.96306	0.02019
2495.67729	0.02027
2494.39152	0.02048
2493.10576	0.02071
2491.81999	0.02090
2490.53422	0.02103
2489.24845	0.02109
2487.96268	0.02108
2486.67691	0.02102
2485.39114	0.02103
2484.10537	0.02119
2482.81960	0.02143
2481.53384	0.02160
2480.24807	0.02156
2478.96230	0.02136
2477.67653	0.02107
2476.39076	0.02075
2475.10499	0.02047
2473.81922	0.02034
2472.53345	0.02041
2471.24769	0.02063
2469.96192	0.02088
2468.67615	0.02112
2467.39038	0.02134
2466.10461	0.02147
2464.81884	0.02141
2463.53307	0.02110
2462.24730	0.02068
2460.96153	0.02034
2459.67577	0.02020
2458.39000	0.02024
2457.10423	0.02036
2455.81846	0.02049
2454.53269	0.02056
2453.24692	0.02063
2451.96115	0.02080
2450.67538	0.02104
2449.38962	0.02114
2448.10385	0.02090
2446.81808	0.02037
2445.53231	0.01982
2444.24654	0.01948
2442.96077	0.01940
2441.67500	0.01949
2440.38923	0.01966
2439.10346	0.01990
2437.81770	0.02008
2436.53193	0.02004
2435.24616	0.01975
2433.96039	0.01943
2432.67462	0.01933
2431.38885	0.01945
2430.10308	0.01959
2428.81731	0.01961
2427.53155	0.01957
2426.24578	0.01962
2424.96001	0.01982
2423.67424	0.02011
2422.38847	0.02042
2421.10270	0.02068
2419.81693	0.02084
2418.53116	0.02081
2417.24539	0.02051
2415.95963	0.02001
2414.67386	0.01954
2413.38809	0.01924
2412.10232	0.01911
2410.81655	0.01908
2409.53078	0.01912
2408.24501	0.01924
2406.95924	0.01935
2405.67347	0.01936
2404.38771	0.01926
2403.10194	0.01915
2401.81617	0.01916
2400.53040	0.01937
2399.24463	0.02045
2397.95886	0.02115
2396.67309	0.02112
2395.38732	0.02064
2394.10156	0.01998
2392.81579	0.01931
2391.53002	0.01872
2390.24425	0.01827
2388.95848	0.01799
2387.67271	0.01782
2386.38694	0.01770
2385.10117	0.01754
2383.81540	0.01732
2382.52964	0.01706
2381.24387	0.01683
2379.95810	0.01677
2378.67233	0.01680
2377.38656	0.01672
2376.10079	0.01670
2374.81502	0.01663
2373.52925	0.01612
2372.24349	0.01512
2370.95772	0.01366
2369.67195	0.01259
2368.38618	0.01206
2367.10041	0.01126
2365.81464	0.01029
2364.52887	0.00996
2363.24310	0.00985
2361.95733	0.00919
2360.67157	0.00864
2359.38580	0.00941
2358.10003	0.01088
2356.81426	0.01205
2355.52849	0.01270
2354.24272	0.01276
2352.95695	0.01240
2351.67118	0.01102
2350.38542	0.00837
2349.09965	0.00711
2347.81388	0.00964
2346.52811	0.01352
2345.24234	0.01502
2343.95657	0.01423
2342.67080	0.01362
2341.38503	0.01373
2340.09926	0.01384
2338.81350	0.01377
2337.52773	0.01324
2336.24196	0.01262
2334.95619	0.01206
2333.67042	0.01186
2332.38465	0.01273
2331.09888	0.01401
2329.81311	0.01507
2328.52735	0.01620
2327.24158	0.01683
2325.95581	0.01689
2324.67004	0.01712
2323.38427	0.01737
2322.09850	0.01753
2320.81273	0.01777
2319.52696	0.01752
2318.24119	0.01675
2316.95543	0.01628
2315.66966	0.01652
2314.38389	0.01719
2313.09812	0.01765
2311.81235	0.01784
2310.52658	0.01785
2309.24081	0.01777
2307.95504	0.01776
2306.66928	0.01779
2305.38351	0.01779
2304.09774	0.01784
2302.81197	0.01808
2301.52620	0.01839
2300.24043	0.01846
2298.95466	0.01827
2297.66889	0.01791
2296.38312	0.01757
2295.09736	0.01737
2293.81159	0.01726
2292.52582	0.01720
2291.24005	0.01710
2289.95428	0.01693
2288.66851	0.01677
2287.38274	0.01675
2286.09697	0.01693
2284.81121	0.01715
2283.52544	0.01729
2282.23967	0.01733
2280.95390	0.01728
2279.66813	0.01719
2278.38236	0.01702
2277.09659	0.01676
2275.81082	0.01646
2274.52505	0.01618
2273.23929	0.01594
2271.95352	0.01568
2270.66775	0.01537
2269.38198	0.01512
2268.09621	0.01500
2266.81044	0.01491
2265.52467	0.01469
2264.23890	0.01428
2262.95314	0.01384
2261.66737	0.01362
2260.38160	0.01372
2259.09583	0.01406
2257.81006	0.01442
2256.52429	0.01456
2255.23852	0.01437
2253.95275	0.01396
2252.66698	0.01354
2251.38122	0.01329
2250.09545	0.01335
2248.80968	0.01362
2247.52391	0.01334
2246.23814	0.01284
2244.95237	0.01229
2243.66660	0.01195
2242.38083	0.01203
2241.09507	0.01245
2239.80930	0.01286
2238.52353	0.01295
2237.23776	0.01270
2235.95199	0.01232
2234.66622	0.01198
2233.38045	0.01176
2232.09468	0.01179
2230.80891	0.01212
2229.52315	0.01257
2228.23738	0.01279
2226.95161	0.01256
2225.66584	0.01196
2224.38007	0.01122
2223.09430	0.01040
2221.80853	0.00947
2220.52276	0.00865
2219.23700	0.00847
2217.95123	0.00929
2216.66546	0.01076
2215.37969	0.01192
2214.09392	0.01196
2212.80815	0.01088
2211.52238	0.00941
2210.23661	0.00839
2208.95084	0.00812
2207.66508	0.00827
2206.37931	0.00835
2205.09354	0.00813
2203.80777	0.00764
2202.52200	0.00701
2201.23623	0.00640
2199.95046	0.00597
2198.66469	0.00580
2197.37893	0.00589
2196.09316	0.00627
2194.80739	0.00692
2193.52162	0.00765
2192.23585	0.00804
2190.95008	0.00777
2189.66431	0.00683
2188.37854	0.00563
2187.09277	0.00473
2185.80701	0.00436
2184.52124	0.00421
2183.23547	0.00409
2181.94970	0.00430
2180.66393	0.00523
2179.37816	0.00647
2178.09239	0.00703
2176.80662	0.00647
2175.52085	0.00534
2174.23509	0.00457
2172.94932	0.00442
2171.66355	0.00452
2170.37778	0.00446
2169.09201	0.00423
2167.80624	0.00399
2166.52047	0.00372
2165.23470	0.00331
2163.94894	0.00273
2162.66317	0.00193
2161.37740	0.00077
2160.09163	-0.00086
2158.80586	-0.00274
2157.52009	-0.00429
2156.23432	-0.00477
2154.94855	-0.00380
2153.66278	-0.00171
2152.37702	0.00057
2151.09125	0.00231
2149.80548	0.00356
2148.51971	0.00468
2147.23394	0.00555
2145.94817	0.00579
2144.66240	0.00547
2143.37663	0.00523
2142.09087	0.00560
2140.80510	0.00652
2139.51933	0.00747
2138.23356	0.00794
2136.94779	0.00770
2135.66202	0.00698
2134.37625	0.00627
2133.09048	0.00592
2131.80471	0.00591
2130.51895	0.00605
2129.23318	0.00624
2127.94741	0.00654
2126.66164	0.00699
2125.37587	0.00749
2124.09010	0.00783
2122.80433	0.00789
2121.51856	0.00787
2120.23280	0.00809
2118.94703	0.00865
2117.66126	0.00921
2116.37549	0.00942
2115.08972	0.00934
2113.80395	0.00924
2112.51818	0.00920
2111.23241	0.00904
2109.94664	0.00863
2108.66088	0.00809
2107.37511	0.00760
2106.08934	0.00734
2104.80357	0.00737
2103.51780	0.00769
2102.23203	0.00807
2100.94626	0.00822
2099.66049	0.00861
2098.37473	0.00829
2097.08896	0.00763
2095.80319	0.00732
2094.51742	0.00761
2093.23165	0.00832
2091.94588	0.00893
2090.66011	0.00900
2089.37434	0.00855
2088.08857	0.00801
2086.80281	0.00777
2085.51704	0.00785
2084.23127	0.00797
2082.94550	0.00797
2081.65973	0.00791
2080.37396	0.00790
2079.08819	0.00790
2077.80242	0.00779
2076.51666	0.00744
2075.23089	0.00683
2073.94512	0.00613
2072.65935	0.00566
2071.37358	0.00565
2070.08781	0.00600
2068.80204	0.00637
2067.51627	0.00652
2066.23050	0.00642
2064.94474	0.00619
2063.65897	0.00594
2062.37320	0.00569
2061.08743	0.00536
2059.80166	0.00490
2058.51589	0.00430
2057.23012	0.00358
2055.94435	0.00292
2054.65859	0.00266
2053.37282	0.00312
2052.08705	0.00427
2050.80128	0.00565
2049.51551	0.00666
2048.22974	0.00689
2046.94397	0.00629
2045.65820	0.00508
2044.37243	0.00376
2043.08667	0.00285
2041.80090	0.00262
2040.51513	0.00285
2039.22936	0.00307
2037.94359	0.00291
2036.65782	0.00243
2035.37205	0.00198
2034.08628	0.00180
2032.80052	0.00166
2031.51475	0.00112
2030.22898	0.00017
2028.94321	-0.00073
2027.65744	-0.00108
2026.37167	-0.00077
2025.08590	-0.00008
2023.80013	0.00066
2022.51436	0.00124
2021.22860	0.00161
2019.94283	0.00184
2018.65706	0.00198
2017.37129	0.00206
2016.08552	0.00202
2014.79975	0.00180
2013.51398	0.00148
2012.22821	0.00135
2010.94245	0.00161
2009.65668	0.00207
2008.37091	0.00241
2007.08514	0.00255
2005.79937	0.00269
2004.51360	0.00297
2003.22783	0.00331
2001.94206	0.00365
2000.65629	0.00405
1999.37053	0.00453
1998.08476	0.00509
1996.79899	0.00570
1995.51322	0.00624
1994.22745	0.00646
1992.94168	0.00625
1991.65591	0.00591
1990.37014	0.00591
1989.08438	0.00646
1987.79861	0.00732
1986.51284	0.00806
1985.22707	0.00838
1983.94130	0.00825
1982.65553	0.00789
1981.36976	0.00756
1980.08399	0.00748
1978.79822	0.00765
1977.51246	0.00783
1976.22669	0.00762
1974.94092	0.00687
1973.65515	0.00598
1972.36938	0.00561
1971.08361	0.00616
1969.79784	0.00736
1968.51207	0.00849
1967.22631	0.00904
1965.94054	0.00898
1964.65477	0.00864
1963.36900	0.00834
1962.08323	0.00825
1960.79746	0.00835
1959.51169	0.00842
1958.22592	0.00821
1956.94015	0.00775
1955.65439	0.00740
1954.36862	0.00755
1953.08285	0.00822
1951.79708	0.00902
1950.51131	0.00956
1949.22554	0.00961
1947.93977	0.00913
1946.65400	0.00822
1945.36823	0.00733
1944.08247	0.00709
1942.79670	0.00788
1941.51093	0.00937
1940.22516	0.01076
1938.93939	0.01145
1937.65362	0.01143
1936.36785	0.01111
1935.08208	0.01085
1933.79632	0.01076
1932.51055	0.01068
1931.22478	0.01049
1929.93901	0.01020
1928.65324	0.00994
1927.36747	0.00978
1926.08170	0.00966
1924.79593	0.00947
1923.51016	0.00923
1922.22440	0.00906
1920.93863	0.00902
1919.65286	0.00909
1918.36709	0.00934
1917.08132	0.00977
1915.79555	0.01022
1914.50978	0.01045
1913.22401	0.01040
1911.93825	0.01018
1910.65248	0.00992
1909.36671	0.00973
1908.08094	0.00967
1906.79517	0.00971
1905.50940	0.00978
1904.22363	0.00982
1902.93786	0.00993
1901.65209	0.01024
1900.36633	0.01072
1899.08056	0.01117
1897.79479	0.01141
1896.50902	0.01138
1895.22325	0.01118
1893.93748	0.01095
1892.65171	0.01077
1891.36594	0.01067
1890.08018	0.01067
1888.79441	0.01079
1887.50864	0.01104
1886.22287	0.01140
1884.93710	0.01178
1883.65133	0.01202
1882.36556	0.01203
1881.07979	0.01183
1879.79402	0.01155
1878.50826	0.01131
1877.22249	0.01118
1875.93672	0.01121
1874.65095	0.01140
1873.36518	0.01174
1872.07941	0.01213
1870.79364	0.01247
1869.50787	0.01267
1868.22211	0.01269
1866.93634	0.01251
1865.65057	0.01217
1864.36480	0.01185
1863.07903	0.01173
1861.79326	0.01179
1860.50749	0.01190
1859.22172	0.01193
1857.93595	0.01190
1856.65019	0.01188
1855.36442	0.01184
1854.07865	0.01169
1852.79288	0.01145
1851.50711	0.01127
1850.22134	0.01134
1848.93557	0.01175
1847.64980	0.01238
1846.36404	0.01290
1845.07827	0.01306
1843.79250	0.01287
1842.50673	0.01252
1841.22096	0.01219
1839.93519	0.01200
1838.64942	0.01202
1837.36365	0.01217
1836.07788	0.01228
1834.79212	0.01232
1833.50635	0.01233
1832.22058	0.01237
1830.93481	0.01245
1829.64904	0.01259
1828.36327	0.01274
1827.07750	0.01278
1825.79173	0.01271
1824.50597	0.01268
1823.22020	0.01280
1821.93443	0.01297
1820.64866	0.01300
1819.36289	0.01277
1818.07712	0.01235
1816.79135	0.01201
1815.50558	0.01198
1814.21981	0.01224
1812.93405	0.01258
1811.64828	0.01282
1810.36251	0.01288
1809.07674	0.01284
1807.79097	0.01278
1806.50520	0.01276
1805.21943	0.01280
1803.93366	0.01286
1802.64790	0.01293
1801.36213	0.01299
1800.07636	0.01303
1798.79059	0.01302
1797.50482	0.01301
1796.21905	0.01312
1794.93328	0.01337
1793.64751	0.01367
1792.36174	0.01394
1791.07598	0.01414
1789.79021	0.01424
1788.50444	0.01419
1787.21867	0.01405
1785.93290	0.01391
1784.64713	0.01386
1783.36136	0.01391
1782.07559	0.01402
1780.78983	0.01413
1779.50406	0.01425
1778.21829	0.01442
1776.93252	0.01468
1775.64675	0.01504
1774.36098	0.01536
1773.07521	0.01559
1771.78944	0.01577
1770.50367	0.01589
1769.21791	0.01588
1767.93214	0.01581
1766.64637	0.01582
1765.36060	0.01589
1764.07483	0.01594
1762.78906	0.01597
1761.50329	0.01609
1760.21752	0.01625
1758.93176	0.01631
1757.64599	0.01625
1756.36022	0.01624
1755.07445	0.01637
1753.78868	0.01653
1752.50291	0.01662
1751.21714	0.01664
1749.93137	0.01664
1748.64560	0.01662
1747.35984	0.01659
1746.07407	0.01661
1744.78830	0.01671
1743.50253	0.01688
1742.21676	0.01708
1740.93099	0.01729
1739.64522	0.01760
1738.35945	0.01808
1737.07369	0.01857
1735.78792	0.01887
1734.50215	0.01903
1733.21638	0.01919
1731.93061	0.01929
1730.64484	0.01919
1729.35907	0.01899
1728.07330	0.01889
1726.78753	0.01893
1725.50177	0.01903
1724.21600	0.01920
1722.93023	0.01951
1721.64446	0.02002
1720.35869	0.02063
1719.07292	0.02122
1717.78715	0.02176
1716.50138	0.02221
1715.21561	0.02249
1713.92985	0.02259
1712.64408	0.02262
1711.35831	0.02276
1710.07254	0.02308
1708.78677	0.02354
1707.50100	0.02407
1706.21523	0.02464
1704.92946	0.02536
1703.64370	0.02617
1702.35793	0.02686
1701.07216	0.02741
1699.78639	0.02803
1698.50062	0.02855
1697.21485	0.02865
1695.92908	0.02845
1694.64331	0.02834
1693.35754	0.02834
1692.07178	0.02829
1690.78601	0.02831
1689.50024	0.02867
1688.21447	0.02935
1686.92870	0.03008
1685.64293	0.03066
1684.35716	0.03110
1683.07139	0.03140
1681.78563	0.03145
1680.49986	0.03135
1679.21409	0.03144
1677.92832	0.03184
1676.64255	0.03236
1675.35678	0.03292
1674.07101	0.03353
1672.78524	0.03410
1671.49947	0.03451
1670.21371	0.03483
1668.92794	0.03514
1667.64217	0.03548
1666.35640	0.03579
1665.07063	0.03604
1663.78486	0.03627
1662.49909	0.03656
1661.21332	0.03689
1659.92756	0.03726
1658.64179	0.03781
1657.35602	0.03868
1656.07025	0.03970
1654.78448	0.04051
1653.49871	0.04099
1652.21294	0.04128
1650.92717	0.04144
1649.64140	0.04136
1648.35564	0.04115
1647.06987	0.04102
1645.78410	0.04104
1644.49833	0.04106
1643.21256	0.04105
1641.92679	0.04111
1640.64102	0.04142
1639.35525	0.04197
1638.06949	0.04257
1636.78372	0.04300
1635.49795	0.04328
1634.21218	0.04344
1632.92641	0.04350
1631.64064	0.04350
1630.35487	0.04357
1629.06910	0.04382
1627.78333	0.04423
1626.49757	0.04471
1625.21180	0.04515
1623.92603	0.04552
1622.64026	0.04588
1621.35449	0.04632
1620.06872	0.04680
1618.78295	0.04722
1617.49718	0.04762
1616.21142	0.04806
1614.92565	0.04848
1613.63988	0.04876
1612.35411	0.04895
1611.06834	0.04924
1609.78257	0.04969
1608.49680	0.05023
1607.21103	0.05078
1605.92526	0.05128
1604.63950	0.05170
1603.35373	0.05207
1602.06796	0.05239
1600.78219	0.05270
1599.49642	0.05300
1598.21065	0.05329
1596.92488	0.05356
1595.63911	0.05382
1594.35335	0.05409
1593.06758	0.05436
1591.78181	0.05462
1590.49604	0.05488
1589.21027	0.05515
1587.92450	0.05545
1586.63873	0.05574
1585.35296	0.05601
1584.06719	0.05623
1582.78143	0.05643
1581.49566	0.05671
1580.20989	0.05713
1578.92412	0.05761
1577.63835	0.05794
1576.35258	0.05814
1575.06681	0.05830
1573.78104	0.05839
1572.49528	0.05834
1571.20951	0.05821
1569.92374	0.05815
1568.63797	0.05816
1567.35220	0.05811
1566.06643	0.05796
1564.78066	0.05792
1563.49489	0.05821
1562.20912	0.05872
1560.92336	0.05917
1559.63759	0.05944
1558.35182	0.05953
1557.06605	0.05933
1555.78028	0.05871
1554.49451	0.05794
1553.20874	0.05733
1551.92297	0.05693
1550.63721	0.05661
1549.35144	0.05632
1548.06567	0.05611
1546.77990	0.05595
1545.49413	0.05589
1544.20836	0.05594
1542.92259	0.05602
1541.63682	0.05592
1540.35105	0.05555
1539.06529	0.05505
1537.77952	0.05454
1536.49375	0.05402
1535.20798	0.05351
1533.92221	0.05320
1532.63644	0.05318
1531.35067	0.05337
1530.06490	0.05366
1528.77914	0.05407
1527.49337	0.05464
1526.20760	0.05541
1524.92183	0.05634
1523.63606	0.05730
1522.35029	0.05827
1521.06452	0.05930
1519.77875	0.06038
1518.49298	0.06138
1517.20722	0.06232
1515.92145	0.06338
1514.63568	0.06461
1513.34991	0.06599
1512.06414	0.06759
1510.77837	0.06949
1509.49260	0.07156
1508.20683	0.07359
1506.92107	0.07542
1505.63530	0.07703
1504.34953	0.07832
1503.06376	0.07929
1501.77799	0.08018
1500.49222	0.08125
1499.20645	0.08246
1497.92068	0.08363
1496.63491	0.08465
1495.34915	0.08561
1494.06338	0.08656
1492.77761	0.08753
1491.49184	0.08856
1490.20607	0.08969
1488.92030	0.09086
1487.63453	0.09195
1486.34876	0.09302
1485.06299	0.09420
1483.77723	0.09556
1482.49146	0.09707
1481.20569	0.09868
1479.91992	0.10028
1478.63415	0.10180
1477.34838	0.10326
1476.06261	0.10470
1474.77684	0.10605
1473.49108	0.10719
1472.20531	0.10808
1470.91954	0.10871
1469.63377	0.10910
1468.34800	0.10930
1467.06223	0.10940
1465.77646	0.10946
1464.49069	0.10954
1463.20492	0.10971
1461.91916	0.11006
1460.63339	0.11062
1459.34762	0.11132
1458.06185	0.11201
1456.77608	0.11266
1455.49031	0.11324
1454.20454	0.11368
1452.91877	0.11402
1451.63301	0.11441
1450.34724	0.11490
1449.06147	0.11536
1447.77570	0.11565
1446.48993	0.11573
1445.20416	0.11563
1443.91839	0.11541
1442.63262	0.11516
1441.34685	0.11494
1440.06109	0.11472
1438.77532	0.11446
1437.48955	0.11422
1436.20378	0.11416
1434.91801	0.11435
1433.63224	0.11477
1432.34647	0.11544
1431.06070	0.11648
1429.77494	0.11789
1428.48917	0.11956
1427.20340	0.12137
1425.91763	0.12324
1424.63186	0.12519
1423.34609	0.12721
1422.06032	0.12919
1420.77455	0.13098
1419.48878	0.13257
1418.20302	0.13393
1416.91725	0.13493
1415.63148	0.13551
1414.34571	0.13577
1413.05994	0.13586
1411.77417	0.13582
1410.48840	0.13557
1409.20263	0.13506
1407.91687	0.13422
1406.63110	0.13305
1405.34533	0.13161
1404.05956	0.12997
1402.77379	0.12814
1401.48802	0.12609
1400.20225	0.12385
1398.91648	0.12155
1397.63071	0.11924
1396.34495	0.11687
1395.05918	0.11437
1393.77341	0.11179
1392.48764	0.10920
1391.20187	0.10663
1389.91610	0.10408
1388.63033	0.10157
1387.34456	0.09910
1386.05880	0.09666
1384.77303	0.09422
1383.48726	0.09177
1382.20149	0.08934
1380.91572	0.08695
1379.62995	0.08455
1378.34418	0.08210
1377.05841	0.07957
1375.77264	0.07694
1374.48688	0.07426
1373.20111	0.07158
1371.91534	0.06899
1370.62957	0.06652
1369.34380	0.06424
1368.05803	0.06217
1366.77226	0.06031
1365.48649	0.05856
1364.20073	0.05684
1362.91496	0.05515
1361.62919	0.05350
1360.34342	0.05192
1359.05765	0.05041
1357.77188	0.04899
1356.48611	0.04766
1355.20034	0.04641
1353.91457	0.04524
1352.62881	0.04414
1351.34304	0.04310
1350.05727	0.04210
1348.77150	0.04114
1347.48573	0.04022
1346.19996	0.03938
1344.91419	0.03861
1343.62842	0.03793
1342.34266	0.03731
1341.05689	0.03671
1339.77112	0.03610
1338.48535	0.03551
1337.19958	0.03496
1335.91381	0.03444
1334.62804	0.03395
1333.34227	0.03348
1332.05650	0.03304
1330.77074	0.03262
1329.48497	0.03221
1328.19920	0.03182
1326.91343	0.03146
1325.62766	0.03115
1324.34189	0.03089
1323.05612	0.03063
1321.77035	0.03036
1320.48459	0.03005
1319.19882	0.02971
1317.91305	0.02936
1316.62728	0.02901
1315.34151	0.02870
1314.05574	0.02844
1312.76997	0.02824
1311.48420	0.02808
1310.19843	0.02791
1308.91267	0.02770
1307.62690	0.02745
1306.34113	0.02716
1305.05536	0.02688
1303.76959	0.02662
1302.48382	0.02640
1301.19805	0.02620
1299.91228	0.02600
1298.62652	0.02579
1297.34075	0.02558
1296.05498	0.02541
1294.76921	0.02528
1293.48344	0.02517
1292.19767	0.02507
1290.91190	0.02494
1289.62613	0.02481
1288.34036	0.02470
1287.05460	0.02460
1285.76883	0.02450
1284.48306	0.02435
1283.19729	0.02417
1281.91152	0.02399
1280.62575	0.02383
1279.33998	0.02369
1278.05421	0.02358
1276.76845	0.02347
1275.48268	0.02336
1274.19691	0.02322
1272.91114	0.02308
1271.62537	0.02297
1270.33960	0.02290
1269.05383	0.02284
1267.76806	0.02275
1266.48229	0.02262
1265.19653	0.02247
1263.91076	0.02232
1262.62499	0.02220
1261.33922	0.02210
1260.05345	0.02201
1258.76768	0.02193
1257.48191	0.02183
1256.19614	0.02171
1254.91037	0.02161
1253.62461	0.02155
1252.33884	0.02153
1251.05307	0.02152
1249.76730	0.02149
1248.48153	0.02142
1247.19576	0.02130
1245.90999	0.02114
1244.62422	0.02098
1243.33846	0.02086
1242.05269	0.02080
1240.76692	0.02077
1239.48115	0.02072
1238.19538	0.02063
1236.90961	0.02054
1235.62384	0.02051
1234.33807	0.02050
1233.05230	0.02048
1231.76654	0.02041
1230.48077	0.02032
1229.19500	0.02025
1227.90923	0.02017
1226.62346	0.02011
1225.33769	0.02007
1224.05192	0.02007
1222.76615	0.02010
1221.48039	0.02011
1220.19462	0.02007
1218.90885	0.01997
1217.62308	0.01983
1216.33731	0.01970
1215.05154	0.01964
1213.76577	0.01965
1212.48000	0.01970
1211.19423	0.01974
1209.90847	0.01975
1208.62270	0.01973
1207.33693	0.01973
1206.05116	0.01973
1204.76539	0.01973
1203.47962	0.01971
1202.19385	0.01968
1200.90808	0.01961
1199.62232	0.01951
1198.33655	0.01953
1197.05078	0.01957
1195.76501	0.01959
1194.47924	0.01962
1193.19347	0.01965
1191.90770	0.01969
1190.62193	0.01972
1189.33616	0.01975
1188.05040	0.01977
1186.76463	0.01979
1185.47886	0.01979
1184.19309	0.01977
1182.90732	0.01975
1181.62155	0.01973
1180.33578	0.01973
1179.05001	0.01976
1177.76425	0.01981
1176.47848	0.01987
1175.19271	0.01993
1173.90694	0.01997
1172.62117	0.01998
1171.33540	0.01996
1170.04963	0.01995
1168.76386	0.02000
1167.47809	0.02018
1166.19233	0.02044
1164.90656	0.02074
1163.62079	0.02099
1162.33502	0.02118
1161.04925	0.02134
1159.76348	0.02152
1158.47771	0.02179
1157.19194	0.02212
1155.90618	0.02243
1154.62041	0.02265
1153.33464	0.02281
1152.04887	0.02303
1150.76310	0.02339
1149.47733	0.02388
1148.19156	0.02445
1146.90579	0.02508
1145.62002	0.02579
1144.33426	0.02657
1143.04849	0.02740
1141.76272	0.02825
1140.47695	0.02920
1139.19118	0.03032
1137.90541	0.03169
1136.61964	0.03328
1135.33387	0.03501
1134.04811	0.03685
1132.76234	0.03884
1131.47657	0.04106
1130.19080	0.04358
1128.90503	0.04637
1127.61926	0.04941
1126.33349	0.05270
1125.04772	0.05627
1123.76195	0.06012
1122.47619	0.06419
1121.19042	0.06839
1119.90465	0.07264
1118.61888	0.07691
1117.33311	0.08117
1116.04734	0.08541
1114.76157	0.08962
1113.47580	0.09376
1112.19004	0.09780
1110.90427	0.10171
1109.61850	0.10545
1108.33273	0.10902
1107.04696	0.11242
1105.76119	0.11569
1104.47542	0.11887
1103.18965	0.12202
1101.90388	0.12513
1100.61812	0.12820
1099.33235	0.13124
1098.04658	0.13424
1096.76081	0.13715
1095.47504	0.13994
1094.18927	0.14254
1092.90350	0.14495
1091.61773	0.14717
1090.33197	0.14928
1089.04620	0.15129
1087.76043	0.15321
1086.47466	0.15509
1085.18889	0.15700
1083.90312	0.15899
1082.61735	0.16111
1081.33158	0.16343
1080.04581	0.16603
1078.76005	0.16894
1077.47428	0.17210
1076.18851	0.17544
1074.90274	0.17891
1073.61697	0.18252
1072.33120	0.18630
1071.04543	0.19022
1069.75966	0.19422
1068.47390	0.19826
1067.18813	0.20233
1065.90236	0.20648
1064.61659	0.21076
1063.33082	0.21519
1062.04505	0.21974
1060.75928	0.22432
1059.47351	0.22886
1058.18774	0.23333
1056.90198	0.23773
1055.61621	0.24210
1054.33044	0.24644
1053.04467	0.25079
1051.75890	0.25517
1050.47313	0.25962
1049.18736	0.26418
1047.90159	0.26891
1046.61583	0.27385
1045.33006	0.27900
1044.04429	0.28425
1042.75852	0.28948
1041.47275	0.29465
1040.18698	0.29978
1038.90121	0.30498
1037.61544	0.31031
1036.32967	0.31576
1035.04391	0.32121
1033.75814	0.32653
1032.47237	0.33158
1031.18660	0.33625
1029.90083	0.34047
1028.61506	0.34418
1027.32929	0.34734
1026.04352	0.34996
1024.75775	0.35207
1023.47199	0.35366
1022.18622	0.35461
1020.90045	0.35482
1019.61468	0.35427
1018.32891	0.35302
1017.04314	0.35109
1015.75737	0.34839
1014.47160	0.34481
1013.18584	0.34031
1011.90007	0.33496
1010.61430	0.32880
1009.32853	0.32184
1008.04276	0.31411
1006.75699	0.30567
1005.47122	0.29657
1004.18545	0.28687
1002.89968	0.27667
1001.61392	0.26611
1000.32815	0.25535
999.04238	0.24449
997.75661	0.23356
996.47084	0.22260
995.18507	0.21168
993.89930	0.20096
992.61353	0.19063
991.32777	0.18083
990.04200	0.17155
988.75623	0.16272
987.47046	0.15431
986.18469	0.14638
984.89892	0.13899
983.61315	0.13220
982.32738	0.12601
981.04161	0.12040
979.75585	0.11529
978.47008	0.11066
977.18431	0.10650
975.89854	0.10290
974.61277	0.09999
973.32700	0.09785
972.04123	0.09643
970.75546	0.09569
969.46970	0.09562
968.18393	0.09627
966.89816	0.09759
965.61239	0.09938
964.32662	0.10127
963.04085	0.10291
961.75508	0.10402
960.46931	0.10437
959.18354	0.10373
957.89778	0.10202
956.61201	0.09938
955.32624	0.09615
954.04047	0.09271
952.75470	0.08934
951.46893	0.08613
950.18316	0.08307
948.89739	0.08009
947.61163	0.07718
946.32586	0.07437
945.04009	0.07166
943.75432	0.06906
942.46855	0.06658
941.18278	0.06431
939.89701	0.06229
938.61124	0.06050
937.32547	0.05885
936.03971	0.05728
934.75394	0.05584
933.46817	0.05458
932.18240	0.05346
930.89663	0.05239
929.61086	0.05133
928.32509	0.05034
927.03932	0.04947
925.75356	0.04872
924.46779	0.04803
923.18202	0.04737
921.89625	0.04672
920.61048	0.04609
919.32471	0.04554
918.03894	0.04510
916.75317	0.04472
915.46740	0.04432
914.18164	0.04384
912.89587	0.04332
911.61010	0.04283
910.32433	0.04242
909.03856	0.04208
907.75279	0.04175
906.46702	0.04144
905.18125	0.04116
903.89549	0.04090
902.60972	0.04067
901.32395	0.04047
900.03818	0.04033
898.75241	0.04025
897.46664	0.04021
896.18087	0.04018
894.89510	0.04011
893.60933	0.04001
892.32357	0.03994
891.03780	0.04004
889.75203	0.04045
888.46626	0.04120
887.18049	0.04236
885.89472	0.04408
884.60895	0.04661
883.32318	0.05008
882.03742	0.05421
880.75165	0.05827
879.46588	0.06156
878.18011	0.06387
876.89434	0.06572
875.60857	0.06775
874.32280	0.07010
873.03703	0.07219
871.75126	0.07328
870.46550	0.07298
869.17973	0.07137
867.89396	0.06870
866.60819	0.06523
865.32242	0.06133
864.03665	0.05747
862.75088	0.05406
861.46511	0.05126
860.17935	0.04901
858.89358	0.04713
857.60781	0.04556
856.32204	0.04431
855.03627	0.04337
853.75050	0.04270
852.46473	0.04219
851.17896	0.04176
849.89319	0.04134
848.60743	0.04091
847.32166	0.04050
846.03589	0.04015
844.75012	0.03992
843.46435	0.03976
842.17858	0.03958
840.89281	0.03934
839.60704	0.03906
838.32128	0.03885
837.03551	0.03874
835.74974	0.03866
834.46397	0.03853
833.17820	0.03836
831.89243	0.03819
830.60666	0.03807
829.32089	0.03804
828.03512	0.03805
826.74936	0.03805
825.46359	0.03799
824.17782	0.03790
822.89205	0.03780
821.60628	0.03776
820.32051	0.03777
819.03474	0.03778
817.74897	0.03772
816.46321	0.03758
815.17744	0.03745
813.89167	0.03740
812.60590	0.03743
811.32013	0.03744
810.03436	0.03739
808.74859	0.03731
807.46282	0.03729
806.17705	0.03736
804.89129	0.03747
803.60552	0.03756
802.31975	0.03759
801.03398	0.03759
799.74821	0.03755
798.46244	0.03750
797.17667	0.03745
795.89090	0.03742
794.60513	0.03743
793.31937	0.03746
792.03360	0.03750
790.74783	0.03750
789.46206	0.03747
788.17629	0.03741
786.89052	0.03740
785.60475	0.03743
784.31898	0.03746
783.03322	0.03745
781.74745	0.03742
780.46168	0.03737
779.17591	0.03728
777.89014	0.03712
776.60437	0.03697
775.31860	0.03690
774.03283	0.03695
772.74706	0.03705
771.46130	0.03715
770.17553	0.03723
768.88976	0.03729
767.60399	0.03732
766.31822	0.03733
765.03245	0.03734
763.74668	0.03736
762.46091	0.03743
761.17515	0.03755
759.88938	0.03768
758.60361	0.03780
757.31784	0.03790
756.03207	0.03797
754.74630	0.03796
753.46053	0.03788
752.17476	0.03776
750.88899	0.03771
749.60323	0.03777
748.31746	0.03788
747.03169	0.03787
745.74592	0.03768
744.46015	0.03744
743.17438	0.03726
741.88861	0.03718
740.60284	0.03716
739.31708	0.03719
738.03131	0.03727
736.74554	0.03739
735.45977	0.03749
734.17400	0.03758
732.88823	0.03766
731.60246	0.03776
730.31669	0.03785
729.03092	0.03787
727.74516	0.03780
726.45939	0.03772
725.17362	0.03766
723.88785	0.03747
722.60208	0.03755
721.31631	0.03793
720.03054	0.03825
718.74477	0.03832
717.45901	0.03839
716.17324	0.03845
714.88747	0.03844
713.60170	0.03836
712.31593	0.03824
711.03016	0.03810
709.74439	0.03794
708.45862	0.03777
707.17285	0.03762
705.88709	0.03755
704.60132	0.03754
703.31555	0.03756
702.02978	0.03757
700.74401	0.03756
699.45824	0.03757
698.17247	0.03760
696.88670	0.03764
695.60094	0.03767
694.31517	0.03765
693.02940	0.03760
691.74363	0.03753
690.45786	0.03745
689.17209	0.03736
687.88632	0.03726
686.60055	0.03714
685.31478	0.03701
684.02902	0.03688
682.74325	0.03676
681.45748	0.03667
680.17171	0.03661
678.88594	0.03658
677.60017	0.03660
676.31440	0.03666
675.02863	0.03673
673.74287	0.03671
672.45710	0.03651
671.17133	0.03662
669.88556	0.03814
668.59979	0.04050
667.31402	0.03996
666.02825	0.03760
664.74248	0.03681
663.45671	0.03704
662.17095	0.03712
660.88518	0.03694
659.59941	0.03670
658.31364	0.03652
657.02787	0.03644
655.74210	0.03644
654.45633	0.03648
653.17056	0.03654
651.88480	0.03665
650.59903	0.03679
649.31326	0.03695
648.02749	0.03705
646.74172	0.03711
645.45595	0.03720
644.17018	0.03735
642.88441	0.03759
641.59864	0.03790
640.31288	0.03824
639.02711	0.03854
637.74134	0.03881
636.45557	0.03908
635.16980	0.03939
633.88403	0.03977
632.59826	0.04027
631.31249	0.04109
630.02673	0.04242
628.74096	0.04364
627.45519	0.04385
626.16942	0.04595
624.88365	0.04903
623.59788	0.05197
622.31211	0.05486
621.02634	0.05799
619.74057	0.06100
618.45481	0.06366
617.16904	0.06652
615.88327	0.07020
614.59750	0.07450
613.31173	0.07872
612.02596	0.08264
610.74019	0.08681
609.45442	0.09195
608.16866	0.09811
606.88289	0.10476
605.59712	0.11134
604.31135	0.11737
603.02558	0.12215
601.73981	0.12488
600.45404	0.12496
599.16827	0.12253
597.88250	0.11849
596.59674	0.11396
595.31097	0.10972
594.02520	0.10606
592.73943	0.10296
591.45366	0.10046
590.16789	0.09868
588.88212	0.09778
587.59635	0.09779
586.31059	0.09862
585.02482	0.10019
583.73905	0.10244
582.45328	0.10525
581.16751	0.10839
579.88174	0.11163
578.59597	0.11484
577.31020	0.11801
576.02443	0.12117
574.73867	0.12433
573.45290	0.12750
572.16713	0.13075
570.88136	0.13430
569.59559	0.13842
568.30982	0.14328
567.02405	0.14878
565.73828	0.15445
564.45251	0.15953
563.16675	0.16316
561.88098	0.16472
560.59521	0.16387
559.30944	0.16056
558.02367	0.15505
556.73790	0.14787
555.45213	0.13962
554.16636	0.13090
552.88060	0.12224
551.59483	0.11405
550.30906	0.10662
549.02329	0.09998
547.73752	0.09408
546.45175	0.08879
545.16598	0.08403
543.88021	0.07974
542.59444	0.07588
541.30868	0.07245
540.02291	0.06948
538.73714	0.06696
537.45137	0.06482
536.16560	0.06296
534.87983	0.06126
533.59406	0.05965
532.30829	0.05807
531.02253	0.05647
529.73676	0.05487
528.45099	0.05336
527.16522	0.05209
525.87945	0.05108
524.59368	0.05024
523.30791	0.04939
522.02214	0.04846
520.73637	0.04753
519.45061	0.04667
518.16484	0.04591
516.87907	0.04517
515.59330	0.04441
514.30753	0.04367
513.02176	0.04300
511.73599	0.04242
510.45022	0.04186
509.16446	0.04125
507.87869	0.04065
506.59292	0.04013
505.30715	0.03966
504.02138	0.03917
502.73561	0.03860
501.44984	0.03797
500.16407	0.03740
498.87830	0.03696
497.59254	0.03668
496.30677	0.03649
495.02100	0.03632
493.73523	0.03609
492.44946	0.03583
491.16369	0.03558
489.87792	0.03536
488.59215	0.03513
487.30639	0.03485
486.02062	0.03456
484.73485	0.03432
483.44908	0.03420
482.16331	0.03424
480.87754	0.03442
479.59177	0.03466
478.30600	0.03489
477.02023	0.03510
475.73447	0.03536
474.44870	0.03573
473.16293	0.03611
471.87716	0.03635
470.59139	0.03634
469.30562	0.03615
468.01985	0.03593
466.73408	0.03576
465.44832	0.03558
464.16255	0.03532
462.87678	0.03496
461.59101	0.03452
460.30524	0.03407
459.01947	0.03367
457.73370	0.03337
456.44793	0.03315
455.16216	0.03290
453.87640	0.03254
452.59063	0.03209
451.30486	0.03162
450.01909	0.03123
448.73332	0.03095
447.44755	0.03075
446.16178	0.03056
444.87601	0.03034
443.59025	0.03010
442.30448	0.02985
441.01871	0.02961
439.73294	0.02936
438.44717	0.02914
437.16140	0.02899
435.87563	0.02893
434.58986	0.02892
433.30409	0.02889
432.01833	0.02886
430.73256	0.02882
429.44679	0.02877
428.16102	0.02863
426.87525	0.02841
425.58948	0.02817
424.30371	0.02798
423.01794	0.02786
421.73218	0.02776
420.44641	0.02762
419.16064	0.02746
417.87487	0.02733
416.58910	0.02721
415.30333	0.02707
414.01756	0.02690
412.73179	0.02670
411.44602	0.02648
410.16026	0.02629
408.87449	0.02622
407.58872	0.02626
406.30295	0.02637
405.01718	0.02649
403.73141	0.02660
402.44564	0.02671
401.15987	0.02683
399.87411	0.02695
