3997.45528	0.00878
3996.16951	0.00873
3994.88374	0.00866
3993.59798	0.00879
3992.31221	0.00930
3991.02644	0.01007
3989.74067	0.01076
3988.45490	0.01110
3987.16913	0.01106
3985.88336	0.01084
3984.59759	0.01075
3983.31183	0.01100
3982.02606	0.01151
3980.74029	0.01198
3979.45452	0.01218
3978.16875	0.01217
3976.88298	0.01217
3975.59721	0.01222
3974.31144	0.01224
3973.02567	0.01220
3971.73991	0.01213
3970.45414	0.01203
3969.16837	0.01178
3967.88260	0.01128
3966.59683	0.01062
3965.31106	0.01003
3964.02529	0.00982
3962.73952	0.01018
3961.45376	0.01111
3960.16799	0.01233
3958.88222	0.01324
3957.59645	0.01328
3956.31068	0.01235
3955.02491	0.01096
3953.73914	0.00983
3952.45337	0.00941
3951.16760	0.00963
3949.88184	0.01020
3948.59607	0.01083
3947.31030	0.01133
3946.02453	0.01155
3944.73876	0.01144
3943.45299	0.01111
3942.16722	0.01071
3940.88145	0.01038
3939.59569	0.01017
3938.30992	0.01019
3937.02415	0.01053
3935.73838	0.01113
3934.45261	0.01170
3933.16684	0.01191
3931.88107	0.01172
3930.59530	0.01138
3929.30953	0.01112
3928.02377	0.01097
3926.73800	0.01091
3925.45223	0.01103
3924.16646	0.01141
3922.88069	0.01183
3921.59492	0.01190
3920.30915	0.01145
3919.02338	0.01075
3917.73762	0.01027
3916.45185	0.01028
3915.16608	0.01075
3913.88031	0.01141
3912.59454	0.01198
3911.30877	0.01226
3910.02300	0.01220
3908.73723	0.01193
3907.45146	0.01175
3906.16570	0.01192
3904.87993	0.01245
3903.59416	0.01303
3902.30839	0.01325
3901.02262	0.01304
3899.73685	0.01264
3898.45108	0.01229
3897.16531	0.01202
3895.87955	0.01168
3894.59378	0.01120
3893.30801	0.01066
3892.02224	0.01030
3890.73647	0.01038
3889.45070	0.01090
3888.16493	0.01145
3886.87916	0.01148
3885.59339	0.01081
3884.30763	0.00974
3883.02186	0.00877
3881.73609	0.00827
3880.45032	0.00839
3879.16455	0.00912
3877.87878	0.01024
3876.59301	0.01139
3875.30724	0.01235
3874.02148	0.01315
3872.73571	0.01391
3871.44994	0.01458
3870.16417	0.01499
3868.87840	0.01502
3867.59263	0.01472
3866.30686	0.01418
3865.02109	0.01352
3863.73532	0.01295
3862.44956	0.01264
3861.16379	0.01261
3859.87802	0.01268
3858.59225	0.01268
3857.30648	0.01266
3856.02071	0.01277
3854.73494	0.01308
3853.44917	0.01340
3852.16341	0.01352
3850.87764	0.01336
3849.59187	0.01308
3848.30610	0.01292
3847.02033	0.01301
3845.73456	0.01326
3844.44879	0.01342
3843.16302	0.01325
3841.87725	0.01273
3840.59149	0.01208
3839.30572	0.01152
3838.01995	0.01114
3836.73418	0.01090
3835.44841	0.01083
3834.16264	0.01105
3832.87687	0.01168
3831.59110	0.01257
3830.30534	0.01337
3829.01957	0.01379
3827.73380	0.01383
3826.44803	0.01368
3825.16226	0.01344
3823.87649	0.01312
3822.59072	0.01273
3821.30495	0.01235
3820.01918	0.01201
3818.73342	0.01175
3817.44765	0.01156
3816.16188	0.01149
3814.87611	0.01155
3813.59034	0.01173
3812.30457	0.01196
3811.01880	0.01214
3809.73303	0.01219
3808.44726	0.01212
3807.16150	0.01205
3805.87573	0.01200
3804.58996	0.01182
3803.30419	0.01140
3802.01842	0.01102
3800.73265	0.01112
3799.44688	0.01186
3798.16111	0.01295
3796.87535	0.01387
3795.58958	0.01420
3794.30381	0.01380
3793.01804	0.01288
3791.73227	0.01186
3790.44650	0.01121
3789.16073	0.01109
3787.87496	0.01138
3786.58919	0.01180
3785.30343	0.01208
3784.01766	0.01203
3782.73189	0.01169
3781.44612	0.01135
3780.16035	0.01122
3778.87458	0.01128
3777.58881	0.01130
3776.30304	0.01113
3775.01728	0.01086
3773.73151	0.01070
3772.44574	0.01071
3771.15997	0.01083
3769.87420	0.01100
3768.58843	0.01117
3767.30266	0.01126
3766.01689	0.01112
3764.73112	0.01087
3763.44536	0.01094
3762.15959	0.01166
3760.87382	0.01278
3759.58805	0.01358
3758.30228	0.01356
3757.01651	0.01295
3755.73074	0.01238
3754.44497	0.01211
3753.15921	0.01180
3751.87344	0.01106
3750.58767	0.01003
3749.30190	0.00922
3748.01613	0.00892
3746.73036	0.00901
3745.44459	0.00934
3744.15882	0.00994
3742.87305	0.01075
3741.58729	0.01143
3740.30152	0.01159
3739.01575	0.01122
3737.72998	0.01060
3736.44421	0.01008
3735.15844	0.00980
3733.87267	0.00974
3732.58690	0.00983
3731.30114	0.01007
3730.01537	0.01044
3728.72960	0.01097
3727.44383	0.01165
3726.15806	0.01238
3724.87229	0.01286
3723.58652	0.01275
3722.30075	0.01203
3721.01498	0.01114
3719.72922	0.01061
3718.44345	0.01060
3717.15768	0.01087
3715.87191	0.01123
3714.58614	0.01159
3713.30037	0.01188
3712.01460	0.01181
3710.72883	0.01117
3709.44307	0.01023
3708.15730	0.00965
3706.87153	0.00986
3705.58576	0.01059
3704.29999	0.01116
3703.01422	0.01116
3701.72845	0.01074
3700.44268	0.01030
3699.15691	0.01002
3697.87115	0.00975
3696.58538	0.00932
3695.29961	0.00880
3694.01384	0.00843
3692.72807	0.00843
3691.44230	0.00885
3690.15653	0.00964
3688.87076	0.01062
3687.58500	0.01153
3686.29923	0.01203
3685.01346	0.01193
3683.72769	0.01133
3682.44192	0.01067
3681.15615	0.01045
3679.87038	0.01081
3678.58461	0.01144
3677.29884	0.01182
3676.01308	0.01168
3674.72731	0.01112
3673.44154	0.01047
3672.15577	0.01004
3670.87000	0.01003
3669.58423	0.01041
3668.29846	0.01099
3667.01269	0.01156
3665.72693	0.01199
3664.44116	0.01211
3663.15539	0.01186
3661.86962	0.01139
3660.58385	0.01103
3659.29808	0.01097
3658.01231	0.01115
3656.72654	0.01138
3655.44077	0.01154
3654.15501	0.01156
3652.86924	0.01141
3651.58347	0.01123
3650.29770	0.01127
3649.01193	0.01169
3647.72616	0.01234
3646.44039	0.01279
3645.15462	0.01276
3643.86886	0.01233
3642.58309	0.01187
3641.29732	0.01175
3640.01155	0.01207
3638.72578	0.01263
3637.44001	0.01314
3636.15424	0.01343
3634.86847	0.01358
3633.58270	0.01373
3632.29694	0.01397
3631.01117	0.01427
3629.72540	0.01459
3628.43963	0.01498
3627.15386	0.01541
3625.86809	0.01568
3624.58232	0.01545
3623.29655	0.01477
3622.01079	0.01415
3620.72502	0.01421
3619.43925	0.01500
3618.15348	0.01596
3616.86771	0.01646
3615.58194	0.01641
3614.29617	0.01613
3613.01040	0.01591
3611.72463	0.01574
3610.43887	0.01552
3609.15310	0.01531
3607.86733	0.01532
3606.58156	0.01556
3605.29579	0.01574
3604.01002	0.01549
3602.72425	0.01490
3601.43848	0.01450
3600.15272	0.01476
3598.86695	0.01560
3597.58118	0.01648
3596.29541	0.01701
3595.00964	0.01717
3593.72387	0.01721
3592.43810	0.01730
3591.15233	0.01745
3589.86656	0.01769
3588.58080	0.01802
3587.29503	0.01832
3586.00926	0.01839
3584.72349	0.01809
3583.43772	0.01754
3582.15195	0.01696
3580.86618	0.01656
3579.58041	0.01646
3578.29464	0.01675
3577.00888	0.01740
3575.72311	0.01826
3574.43734	0.01895
3573.15157	0.01917
3571.86580	0.01892
3570.58003	0.01859
3569.29426	0.01852
3568.00849	0.01871
3566.72273	0.01887
3565.43696	0.01874
3564.15119	0.01832
3562.86542	0.01782
3561.57965	0.01747
3560.29388	0.01745
3559.00811	0.01775
3557.72234	0.01817
3556.43657	0.01849
3555.15081	0.01875
3553.86504	0.01901
3552.57927	0.01912
3551.29350	0.01887
3550.00773	0.01841
3548.72196	0.01827
3547.43619	0.01879
3546.15042	0.01973
3544.86466	0.02065
3543.57889	0.02126
3542.29312	0.02153
3541.00735	0.02147
3539.72158	0.02116
3538.43581	0.02085
3537.15004	0.02082
3535.86427	0.02120
3534.57850	0.02183
3533.29274	0.02241
3532.00697	0.02276
3530.72120	0.02283
3529.43543	0.02273
3528.14966	0.02255
3526.86389	0.02239
3525.57812	0.02240
3524.29235	0.02271
3523.00659	0.02330
3521.72082	0.02389
3520.43505	0.02419
3519.14928	0.02412
3517.86351	0.02389
3516.57774	0.02377
3515.29197	0.02390
3514.00620	0.02414
3512.72043	0.02430
3511.43467	0.02425
3510.14890	0.02407
3508.86313	0.02393
3507.57736	0.02391
3506.29159	0.02397
3505.00582	0.02407
3503.72005	0.02424
3502.43428	0.02456
3501.14852	0.02510
3499.86275	0.02582
3498.57698	0.02645
3497.29121	0.02657
3496.00544	0.02601
3494.71967	0.02511
3493.43390	0.02454
3492.14813	0.02469
3490.86236	0.02536
3489.57660	0.02600
3488.29083	0.02622
3487.00506	0.02606
3485.71929	0.02574
3484.43352	0.02544
3483.14775	0.02524
3481.86198	0.02517
3480.57621	0.02530
3479.29045	0.02564
3478.00468	0.02611
3476.71891	0.02652
3475.43314	0.02669
3474.14737	0.02651
3472.86160	0.02608
3471.57583	0.02556
3470.29006	0.02516
3469.00429	0.02500
3467.71853	0.02511
3466.43276	0.02537
3465.14699	0.02561
3463.86122	0.02584
3462.57545	0.02623
3461.28968	0.02689
3460.00391	0.02770
3458.71814	0.02850
3457.43238	0.02921
3456.14661	0.02974
3454.86084	0.02980
3453.57507	0.02920
3452.28930	0.02820
3451.00353	0.02749
3449.71776	0.02759
3448.43199	0.02836
3447.14622	0.02912
3445.86046	0.02920
3444.57469	0.02852
3443.28892	0.02755
3442.00315	0.02687
3440.71738	0.02667
3439.43161	0.02673
3438.14584	0.02677
3436.86007	0.02675
3435.57431	0.02681
3434.28854	0.02714
3433.00277	0.02777
3431.71700	0.02859
3430.43123	0.02936
3429.14546	0.02981
3427.85969	0.02978
3426.57392	0.02938
3425.28815	0.02896
3424.00239	0.02880
3422.71662	0.02890
3421.43085	0.02907
3420.14508	0.02916
3418.85931	0.02915
3417.57354	0.02911
3416.28777	0.02914
3415.00200	0.02937
3413.71624	0.02979
3412.43047	0.03027
3411.14470	0.03066
3409.85893	0.03096
3408.57316	0.03124
3407.28739	0.03148
3406.00162	0.03149
3404.71585	0.03114
3403.43008	0.03057
3402.14432	0.03012
3400.85855	0.03007
3399.57278	0.03032
3398.28701	0.03056
3397.00124	0.03064
3395.71547	0.03070
3394.42970	0.03096
3393.14393	0.03133
3391.85817	0.03156
3390.57240	0.03150
3389.28663	0.03135
3388.00086	0.03136
3386.71509	0.03152
3385.42932	0.03159
3384.14355	0.03150
3382.85778	0.03145
3381.57201	0.03164
3380.28625	0.03202
3379.00048	0.03235
3377.71471	0.03251
3376.42894	0.03260
3375.14317	0.03274
3373.85740	0.03292
3372.57163	0.03307
3371.28586	0.03317
3370.00010	0.03328
3368.71433	0.03336
3367.42856	0.03330
3366.14279	0.03295
3364.85702	0.03241
3363.57125	0.03194
3362.28548	0.03177
3360.99971	0.03192
3359.71394	0.03221
3358.42818	0.03245
3357.14241	0.03261
3355.85664	0.03276
3354.57087	0.03298
3353.28510	0.03324
3351.99933	0.03348
3350.71356	0.03370
3349.42779	0.03388
3348.14202	0.03393
3346.85626	0.03368
3345.57049	0.03307
3344.28472	0.03233
3342.99895	0.03186
3341.71318	0.03196
3340.42741	0.03257
3339.14164	0.03327
3337.85587	0.03360
3336.57011	0.03342
3335.28434	0.03289
3333.99857	0.03230
3332.71280	0.03196
3331.42703	0.03209
3330.14126	0.03274
3328.85549	0.03354
3327.56972	0.03395
3326.28395	0.03376
3324.99819	0.03323
3323.71242	0.03284
3322.42665	0.03282
3321.14088	0.03301
3319.85511	0.03320
3318.56934	0.03334
3317.28357	0.03352
3315.99780	0.03385
3314.71204	0.03431
3313.42627	0.03481
3312.14050	0.03526
3310.85473	0.03564
3309.56896	0.03588
3308.28319	0.03582
3306.99742	0.03533
3305.71165	0.03455
3304.42588	0.03384
3303.14012	0.03350
3301.85435	0.03355
3300.56858	0.03382
3299.28281	0.03410
3297.99704	0.03429
3296.71127	0.03436
3295.42550	0.03436
3294.13973	0.03434
3292.85397	0.03426
3291.56820	0.03412
3290.28243	0.03395
3288.99666	0.03386
3287.71089	0.03385
3286.42512	0.03383
3285.13935	0.03377
3283.85358	0.03375
3282.56781	0.03383
3281.28205	0.03392
3279.99628	0.03385
3278.71051	0.03357
3277.42474	0.03319
3276.13897	0.03297
3274.85320	0.03305
3273.56743	0.03339
3272.28166	0.03375
3270.99590	0.03392
3269.71013	0.03383
3268.42436	0.03357
3267.13859	0.03331
3265.85282	0.03326
3264.56705	0.03353
3263.28128	0.03402
3261.99551	0.03448
3260.70974	0.03475
3259.42398	0.03481
3258.13821	0.03473
3256.85244	0.03451
3255.56667	0.03416
3254.28090	0.03380
3252.99513	0.03354
3251.70936	0.03348
3250.42359	0.03370
3249.13783	0.03418
3247.85206	0.03471
3246.56629	0.03495
3245.28052	0.03469
3243.99475	0.03408
3242.70898	0.03345
3241.42321	0.03310
3240.13744	0.03308
3238.85167	0.03321
3237.56591	0.03332
3236.28014	0.03330
3234.99437	0.03316
3233.70860	0.03301
3232.42283	0.03309
3231.13706	0.03352
3229.85129	0.03416
3228.56552	0.03467
3227.27976	0.03474
3225.99399	0.03437
3224.70822	0.03377
3223.42245	0.03322
3222.13668	0.03283
3220.85091	0.03258
3219.56514	0.03242
3218.27937	0.03235
3216.99360	0.03240
3215.70784	0.03251
3214.42207	0.03251
3213.13630	0.03235
3211.85053	0.03217
3210.56476	0.03218
3209.27899	0.03243
3207.99322	0.03278
3206.70745	0.03304
3205.42169	0.03318
3204.13592	0.03331
3202.85015	0.03343
3201.56438	0.03331
3200.27861	0.03279
3198.99284	0.03198
3197.70707	0.03124
3196.42130	0.03086
3195.13553	0.03085
3193.84977	0.03102
3192.56400	0.03121
3191.27823	0.03136
3189.99246	0.03153
3188.70669	0.03171
3187.42092	0.03182
3186.13515	0.03175
3184.84938	0.03150
3183.56362	0.03118
3182.27785	0.03090
3180.99208	0.03069
3179.70631	0.03053
3178.42054	0.03039
3177.13477	0.03022
3175.84900	0.02999
3174.56323	0.02967
3173.27746	0.02934
3171.99170	0.02916
3170.70593	0.02927
3169.42016	0.02958
3168.13439	0.02983
3166.84862	0.02982
3165.56285	0.02953
3164.27708	0.02913
3162.99131	0.02885
3161.70555	0.02887
3160.41978	0.02923
3159.13401	0.02970
3157.84824	0.02993
3156.56247	0.02972
3155.27670	0.02923
3153.99093	0.02888
3152.70516	0.02891
3151.41939	0.02922
3150.13363	0.02947
3148.84786	0.02942
3147.56209	0.02911
3146.27632	0.02880
3144.99055	0.02873
3143.70478	0.02882
3142.41901	0.02883
3141.13324	0.02861
3139.84748	0.02836
3138.56171	0.02841
3137.27594	0.02880
3135.99017	0.02929
3134.70440	0.02956
3133.41863	0.02950
3132.13286	0.02921
3130.84709	0.02886
3129.56132	0.02860
3128.27556	0.02855
3126.98979	0.02865
3125.70402	0.02875
3124.41825	0.02874
3123.13248	0.02872
3121.84671	0.02883
3120.56094	0.02912
3119.27517	0.02950
3117.98940	0.02984
3116.70364	0.03006
3115.41787	0.03006
3114.13210	0.02973
3112.84633	0.02912
3111.56056	0.02852
3110.27479	0.02819
3108.98902	0.02821
3107.70325	0.02842
3106.41749	0.02870
3105.13172	0.02901
3103.84595	0.02932
3102.56018	0.02957
3101.27441	0.02971
3099.98864	0.02971
3098.70287	0.02955
3097.41710	0.02916
3096.13133	0.02858
3094.84557	0.02798
3093.55980	0.02763
3092.27403	0.02768
3090.98826	0.02803
3089.70249	0.02841
3088.41672	0.02856
3087.13095	0.02842
3085.84518	0.02811
3084.55942	0.02783
3083.27365	0.02774
3081.98788	0.02792
3080.70211	0.02827
3079.41634	0.02858
3078.13057	0.02873
3076.84480	0.02875
3075.55903	0.02871
3074.27326	0.02863
3072.98750	0.02845
3071.70173	0.02822
3070.41596	0.02806
3069.13019	0.02804
3067.84442	0.02809
3066.55865	0.02806
3065.27288	0.02787
3063.98711	0.02757
3062.70135	0.02727
3061.41558	0.02713
3060.12981	0.02724
3058.84404	0.02755
3057.55827	0.02792
3056.27250	0.02817
3054.98673	0.02821
3053.70096	0.02802
3052.41519	0.02772
3051.12943	0.02747
3049.84366	0.02736
3048.55789	0.02735
3047.27212	0.02734
3045.98635	0.02729
3044.70058	0.02726
3043.41481	0.02721
3042.12904	0.02704
3040.84328	0.02670
3039.55751	0.02632
3038.27174	0.02608
3036.98597	0.02601
3035.70020	0.02600
3034.41443	0.02599
3033.12866	0.02598
3031.84289	0.02599
3030.55712	0.02599
3029.27136	0.02598
3027.98559	0.02603
3026.69982	0.02616
3025.41405	0.02626
3024.12828	0.02619
3022.84251	0.02599
3021.55674	0.02581
3020.27097	0.02578
3018.98521	0.02585
3017.69944	0.02593
3016.41367	0.02599
3015.12790	0.02605
3013.84213	0.02608
3012.55636	0.02602
3011.27059	0.02591
3009.98482	0.02586
3008.69905	0.02595
3007.41329	0.02619
3006.12752	0.02646
3004.84175	0.02665
3003.55598	0.02665
3002.27021	0.02647
3000.98444	0.02621
2999.69867	0.02593
2998.41290	0.02571
2997.12714	0.02543
2995.84137	0.02505
2994.55560	0.02463
2993.26983	0.02429
2991.98406	0.02419
2990.69829	0.02437
2989.41252	0.02480
2988.12675	0.02532
2986.84098	0.02570
2985.55522	0.02581
2984.26945	0.02570
2982.98368	0.02558
2981.69791	0.02563
2980.41214	0.02585
2979.12637	0.02610
2977.84060	0.02629
2976.55483	0.02639
2975.26907	0.02637
2973.98330	0.02621
2972.69753	0.02597
2971.41176	0.02573
2970.12599	0.02558
2968.84022	0.02550
2967.55445	0.02546
2966.26868	0.02547
2964.98291	0.02550
2963.69715	0.02554
2962.41138	0.02557
2961.12561	0.02558
2959.83984	0.02559
2958.55407	0.02569
2957.26830	0.02592
2955.98253	0.02624
2954.69676	0.02652
2953.41100	0.02671
2952.12523	0.02687
2950.83946	0.02706
2949.55369	0.02722
2948.26792	0.02727
2946.98215	0.02716
2945.69638	0.02694
2944.41061	0.02666
2943.12484	0.02637
2941.83908	0.02612
2940.55331	0.02591
2939.26754	0.02576
2937.98177	0.02566
2936.69600	0.02560
2935.41023	0.02557
2934.12446	0.02556
2932.83869	0.02555
2931.55293	0.02550
2930.26716	0.02539
2928.98139	0.02532
2927.69562	0.02535
2926.40985	0.02543
2925.12408	0.02545
2923.83831	0.02535
2922.55254	0.02517
2921.26677	0.02497
2919.98101	0.02479
2918.69524	0.02471
2917.40947	0.02478
2916.12370	0.02493
2914.83793	0.02504
2913.55216	0.02504
2912.26639	0.02498
2910.98062	0.02495
2909.69486	0.02500
2908.40909	0.02517
2907.12332	0.02541
2905.83755	0.02558
2904.55178	0.02554
2903.26601	0.02534
2901.98024	0.02516
2900.69447	0.02507
2899.40870	0.02499
2898.12294	0.02489
2896.83717	0.02485
2895.55140	0.02492
2894.26563	0.02504
2892.97986	0.02503
2891.69409	0.02485
2890.40832	0.02463
2889.12255	0.02453
2887.83678	0.02459
2886.55102	0.02477
2885.26525	0.02499
2883.97948	0.02519
2882.69371	0.02525
2881.40794	0.02509
2880.12217	0.02478
2878.83640	0.02455
2877.55063	0.02458
2876.26487	0.02476
2874.97910	0.02483
2873.69333	0.02462
2872.40756	0.02428
2871.12179	0.02411
2869.83602	0.02426
2868.55025	0.02454
2867.26448	0.02466
2865.97871	0.02455
2864.69295	0.02440
2863.40718	0.02441
2862.12141	0.02452
2860.83564	0.02449
2859.54987	0.02427
2858.26410	0.02398
2856.97833	0.02375
2855.69256	0.02353
2854.40680	0.02326
2853.12103	0.02295
2851.83526	0.02266
2850.54949	0.02246
2849.26372	0.02243
2847.97795	0.02257
2846.69218	0.02281
2845.40641	0.02304
2844.12064	0.02320
2842.83488	0.02335
2841.54911	0.02353
2840.26334	0.02372
2838.97757	0.02384
2837.69180	0.02384
2836.40603	0.02369
2835.12026	0.02343
2833.83449	0.02314
2832.54873	0.02294
2831.26296	0.02288
2829.97719	0.02293
2828.69142	0.02295
2827.40565	0.02287
2826.11988	0.02271
2824.83411	0.02259
2823.54834	0.02253
2822.26257	0.02243
2820.97681	0.02218
2819.69104	0.02183
2818.40527	0.02157
2817.11950	0.02150
2815.83373	0.02159
2814.54796	0.02176
2813.26219	0.02194
2811.97642	0.02207
2810.69066	0.02211
2809.40489	0.02206
2808.11912	0.02197
2806.83335	0.02188
2805.54758	0.02182
2804.26181	0.02176
2802.97604	0.02168
2801.69027	0.02157
2800.40450	0.02143
2799.11874	0.02129
2797.83297	0.02121
2796.54720	0.02126
2795.26143	0.02145
2793.97566	0.02168
2792.68989	0.02181
2791.40412	0.02172
2790.11835	0.02147
2788.83259	0.02123
2787.54682	0.02114
2786.26105	0.02115
2784.97528	0.02118
2783.68951	0.02125
2782.40374	0.02140
2781.11797	0.02160
2779.83220	0.02168
2778.54643	0.02152
2777.26067	0.02120
2775.97490	0.02094
2774.68913	0.02089
2773.40336	0.02104
2772.11759	0.02133
2770.83182	0.02160
2769.54605	0.02167
2768.26028	0.02142
2766.97452	0.02099
2765.68875	0.02070
2764.40298	0.02074
2763.11721	0.02099
2761.83144	0.02116
2760.54567	0.02106
2759.25990	0.02076
2757.97413	0.02045
2756.68836	0.02031
2755.40260	0.02033
2754.11683	0.02044
2752.83106	0.02051
2751.54529	0.02048
2750.25952	0.02035
2748.97375	0.02023
2747.68798	0.02022
2746.40221	0.02036
2745.11645	0.02054
2743.83068	0.02061
2742.54491	0.02050
2741.25914	0.02027
2739.97337	0.02009
2738.68760	0.02008
2737.40183	0.02028
2736.11606	0.02061
2734.83029	0.02092
2733.54453	0.02110
2732.25876	0.02108
2730.97299	0.02091
2729.68722	0.02069
2728.40145	0.02049
2727.11568	0.02029
2725.82991	0.02004
2724.54414	0.01978
2723.25838	0.01962
2721.97261	0.01958
2720.68684	0.01955
2719.40107	0.01944
2718.11530	0.01927
2716.82953	0.01920
2715.54376	0.01925
2714.25799	0.01936
2712.97222	0.01944
2711.68646	0.01947
2710.40069	0.01947
2709.11492	0.01943
2707.82915	0.01934
2706.54338	0.01919
2705.25761	0.01907
2703.97184	0.01910
2702.68607	0.01936
2701.40031	0.01977
2700.11454	0.02015
2698.82877	0.02038
2697.54300	0.02046
2696.25723	0.02046
2694.97146	0.02035
2693.68569	0.02010
2692.39992	0.01975
2691.11415	0.01945
2689.82839	0.01935
2688.54262	0.01940
2687.25685	0.01945
2685.97108	0.01944
2684.68531	0.01942
2683.39954	0.01947
2682.11377	0.01953
2680.82800	0.01953
2679.54224	0.01946
2678.25647	0.01937
2676.97070	0.01925
2675.68493	0.01909
2674.39916	0.01893
2673.11339	0.01886
2671.82762	0.01894
2670.54185	0.01911
2669.25608	0.01932
2667.97032	0.01949
2666.68455	0.01959
2665.39878	0.01959
2664.11301	0.01950
2662.82724	0.01940
2661.54147	0.01932
2660.25570	0.01928
2658.96993	0.01928
2657.68417	0.01931
2656.39840	0.01931
2655.11263	0.01924
2653.82686	0.01910
2652.54109	0.01893
2651.25532	0.01878
2649.96955	0.01869
2648.68378	0.01867
2647.39801	0.01869
2646.11225	0.01875
2644.82648	0.01877
2643.54071	0.01867
2642.25494	0.01844
2640.96917	0.01823
2639.68340	0.01817
2638.39763	0.01825
2637.11186	0.01830
2635.82609	0.01822
2634.54033	0.01802
2633.25456	0.01778
2631.96879	0.01759
2630.68302	0.01748
2629.39725	0.01744
2628.11148	0.01745
2626.82571	0.01751
2625.53994	0.01764
2624.25418	0.01778
2622.96841	0.01788
2621.68264	0.01789
2620.39687	0.01787
2619.11110	0.01786
2617.82533	0.01784
2616.53956	0.01777
2615.25379	0.01759
2613.96802	0.01734
2612.68226	0.01713
2611.39649	0.01708
2610.11072	0.01714
2608.82495	0.01713
2607.53918	0.01692
2606.25341	0.01657
2604.96764	0.01627
2603.68187	0.01612
2602.39611	0.01607
2601.11034	0.01606
2599.82457	0.01613
2598.53880	0.01628
2597.25303	0.01641
2595.96726	0.01643
2594.68149	0.01632
2593.39572	0.01612
2592.10995	0.01588
2590.82419	0.01567
2589.53842	0.01553
2588.25265	0.01547
2586.96688	0.01541
2585.68111	0.01528
2584.39534	0.01508
2583.10957	0.01483
2581.82380	0.01461
2580.53804	0.01456
2579.25227	0.01476
2577.96650	0.01513
2576.68073	0.01550
2575.39496	0.01572
2574.10919	0.01570
2572.82342	0.01543
2571.53765	0.01499
2570.25188	0.01461
2568.96612	0.01450
2567.68035	0.01468
2566.39458	0.01489
2565.10881	0.01492
2563.82304	0.01489
2562.53727	0.01500
2561.25150	0.01518
2559.96573	0.01519
2558.67997	0.01493
2557.39420	0.01465
2556.10843	0.01465
2554.82266	0.01501
2553.53689	0.01552
2552.25112	0.01583
2550.96535	0.01579
2549.67958	0.01554
2548.39381	0.01539
2547.10805	0.01548
2545.82228	0.01567
2544.53651	0.01574
2543.25074	0.01558
2541.96497	0.01524
2540.67920	0.01480
2539.39343	0.01439
2538.10766	0.01408
2536.82190	0.01385
2535.53613	0.01361
2534.25036	0.01339
2532.96459	0.01330
2531.67882	0.01345
2530.39305	0.01376
2529.10728	0.01403
2527.82151	0.01415
2526.53574	0.01424
2525.24998	0.01451
2523.96421	0.01498
2522.67844	0.01542
2521.39267	0.01559
2520.10690	0.01546
2518.82113	0.01517
2517.53536	0.01484
2516.24959	0.01448
2514.96383	0.01415
2513.67806	0.01396
2512.39229	0.01401
2511.10652	0.01417
2509.82075	0.01419
2508.53498	0.01400
2507.24921	0.01374
2505.96344	0.01357
2504.67767	0.01353
2503.39191	0.01355
2502.10614	0.01359
2500.82037	0.01370
2499.53460	0.01389
2498.24883	0.01409
2496.96306	0.01409
2495.67729	0.01379
2494.39152	0.01335
2493.10576	0.01304
2491.81999	0.01300
2490.53422	0.01311
2489.24845	0.01318
2487.96268	0.01315
2486.67691	0.01316
2485.39114	0.01332
2484.10537	0.01361
2482.81960	0.01392
2481.53384	0.01416
2480.24807	0.01431
2478.96230	0.01439
2477.67653	0.01437
2476.39076	0.01423
2475.10499	0.01403
2473.81922	0.01381
2472.53345	0.01364
2471.24769	0.01353
2469.96192	0.01350
2468.67615	0.01348
2467.39038	0.01340
2466.10461	0.01323
2464.81884	0.01301
2463.53307	0.01290
2462.24730	0.01305
2460.96153	0.01348
2459.67577	0.01405
2458.39000	0.01451
2457.10423	0.01465
2455.81846	0.01444
2454.53269	0.01408
2453.24692	0.01391
2451.96115	0.01409
2450.67538	0.01448
2449.38962	0.01481
2448.10385	0.01496
2446.81808	0.01495
2445.53231	0.01479
2444.24654	0.01444
2442.96077	0.01401
2441.67500	0.01366
2440.38923	0.01350
2439.10346	0.01341
2437.81770	0.01330
2436.53193	0.01321
2435.24616	0.01331
2433.96039	0.01362
2432.67462	0.01394
2431.38885	0.01408
2430.10308	0.01400
2428.81731	0.01383
2427.53155	0.01373
2426.24578	0.01376
2424.96001	0.01380
2423.67424	0.01372
2422.38847	0.01354
2421.10270	0.01339
2419.81693	0.01335
2418.53116	0.01336
2417.24539	0.01336
2415.95963	0.01335
2414.67386	0.01327
2413.38809	0.01313
2412.10232	0.01300
2410.81655	0.01300
2409.53078	0.01313
2408.24501	0.01325
2406.95924	0.01332
2405.67347	0.01337
2404.38771	0.01341
2403.10194	0.01337
2401.81617	0.01324
2400.53040	0.01311
2399.24463	0.01304
2397.95886	0.01316
2396.67309	0.01338
2395.38732	0.01356
2394.10156	0.01364
2392.81579	0.01368
2391.53002	0.01375
2390.24425	0.01386
2388.95848	0.01396
2387.67271	0.01405
2386.38694	0.01413
2385.10117	0.01414
2383.81540	0.01398
2382.52964	0.01368
2381.24387	0.01340
2379.95810	0.01325
2378.67233	0.01321
2377.38656	0.01319
2376.10079	0.01308
2374.81502	0.01290
2373.52925	0.01271
2372.24349	0.01262
2370.95772	0.01261
2369.67195	0.01258
2368.38618	0.01244
2367.10041	0.01219
2365.81464	0.01193
2364.52887	0.01173
2363.24310	0.01164
2361.95733	0.01165
2360.67157	0.01173
2359.38580	0.01187
2358.10003	0.01207
2356.81426	0.01238
2355.52849	0.01276
2354.24272	0.01313
2352.95695	0.01341
2351.67118	0.01363
2350.38542	0.01378
2349.09965	0.01381
2347.81388	0.01366
2346.52811	0.01341
2345.24234	0.01323
2343.95657	0.01323
2342.67080	0.01329
2341.38503	0.01324
2340.09926	0.01303
2338.81350	0.01278
2337.52773	0.01266
2336.24196	0.01272
2334.95619	0.01285
2333.67042	0.01296
2332.38465	0.01296
2331.09888	0.01287
2329.81311	0.01274
2328.52735	0.01270
2327.24158	0.01289
2325.95581	0.01331
2324.67004	0.01380
2323.38427	0.01415
2322.09850	0.01430
2320.81273	0.01432
2319.52696	0.01429
2318.24119	0.01422
2316.95543	0.01405
2315.66966	0.01378
2314.38389	0.01348
2313.09812	0.01327
2311.81235	0.01325
2310.52658	0.01334
2309.24081	0.01338
2307.95504	0.01322
2306.66928	0.01292
2305.38351	0.01268
2304.09774	0.01267
2302.81197	0.01288
2301.52620	0.01313
2300.24043	0.01322
2298.95466	0.01305
2297.66889	0.01269
2296.38312	0.01234
2295.09736	0.01221
2293.81159	0.01240
2292.52582	0.01277
2291.24005	0.01304
2289.95428	0.01306
2288.66851	0.01280
2287.38274	0.01242
2286.09697	0.01212
2284.81121	0.01204
2283.52544	0.01218
2282.23967	0.01239
2280.95390	0.01243
2279.66813	0.01223
2278.38236	0.01185
2277.09659	0.01140
2275.81082	0.01103
2274.52505	0.01092
2273.23929	0.01127
2271.95352	0.01202
2270.66775	0.01275
2269.38198	0.01290
2268.09621	0.01228
2266.81044	0.01124
2265.52467	0.01029
2264.23890	0.00972
2262.95314	0.00956
2261.66737	0.00991
2260.38160	0.01082
2259.09583	0.01210
2257.81006	0.01317
2256.52429	0.01349
2255.23852	0.01301
2253.95275	0.01210
2252.66698	0.01106
2251.38122	0.01004
2250.09545	0.00929
2248.80968	0.00919
2247.52391	0.00964
2246.23814	0.01055
2244.95237	0.01128
2243.66660	0.01140
2242.38083	0.01092
2241.09507	0.01021
2239.80930	0.00971
2238.52353	0.00963
2237.23776	0.00971
2235.95199	0.00955
2234.66622	0.00911
2233.38045	0.00878
2232.09468	0.00883
2230.80891	0.00912
2229.52315	0.00928
2228.23738	0.00918
2226.95161	0.00901
2225.66584	0.00901
2224.38007	0.00922
2223.09430	0.00941
2221.80853	0.00930
2220.52276	0.00892
2219.23700	0.00861
2217.95123	0.00864
2216.66546	0.00886
2215.37969	0.00902
2214.09392	0.00913
2212.80815	0.00927
2211.52238	0.00927
2210.23661	0.00881
2208.95084	0.00802
2207.66508	0.00747
2206.37931	0.00762
2205.09354	0.00831
2203.80777	0.00889
2202.52200	0.00883
2201.23623	0.00815
2199.95046	0.00731
2198.66469	0.00678
2197.37893	0.00655
2196.09316	0.00638
2194.80739	0.00630
2193.52162	0.00663
2192.23585	0.00736
2190.95008	0.00794
2189.66431	0.00799
2188.37854	0.00777
2187.09277	0.00786
2185.80701	0.00845
2184.52124	0.00919
2183.23547	0.00962
2181.94970	0.00958
2180.66393	0.00926
2179.37816	0.00887
2178.09239	0.00839
2176.80662	0.00775
2175.52085	0.00712
2174.23509	0.00687
2172.94932	0.00719
2171.66355	0.00780
2170.37778	0.00830
2169.09201	0.00848
2167.80624	0.00836
2166.52047	0.00796
2165.23470	0.00727
2163.94894	0.00623
2162.66317	0.00469
2161.37740	0.00254
2160.09163	0.00012
2158.80586	-0.00158
2157.52009	-0.00167
2156.23432	-0.00026
2154.94855	0.00170
2153.66278	0.00331
2152.37702	0.00426
2151.09125	0.00465
2149.80548	0.00466
2148.51971	0.00449
2147.23394	0.00434
2145.94817	0.00428
2144.66240	0.00426
2143.37663	0.00423
2142.09087	0.00424
2140.80510	0.00428
2139.51933	0.00423
2138.23356	0.00393
2136.94779	0.00350
2135.66202	0.00334
2134.37625	0.00372
2133.09048	0.00452
2131.80471	0.00530
2130.51895	0.00578
2129.23318	0.00608
2127.94741	0.00650
2126.66164	0.00709
2125.37587	0.00762
2124.09010	0.00781
2122.80433	0.00763
2121.51856	0.00726
2120.23280	0.00692
2118.94703	0.00675
2117.66126	0.00675
2116.37549	0.00689
2115.08972	0.00711
2113.80395	0.00729
2112.51818	0.00733
2111.23241	0.00734
2109.94664	0.00749
2108.66088	0.00770
2107.37511	0.00763
2106.08934	0.00715
2104.80357	0.00655
2103.51780	0.00622
2102.23203	0.00618
2100.94626	0.00627
2099.66049	0.00750
2098.37473	0.00793
2097.08896	0.00758
2095.80319	0.00704
2094.51742	0.00663
2093.23165	0.00653
2091.94588	0.00668
2090.66011	0.00688
2089.37434	0.00689
2088.08857	0.00666
2086.80281	0.00632
2085.51704	0.00603
2084.23127	0.00586
2082.94550	0.00585
2081.65973	0.00602
2080.37396	0.00641
2079.08819	0.00700
2077.80242	0.00773
2076.51666	0.00842
2075.23089	0.00887
2073.94512	0.00892
2072.65935	0.00865
2071.37358	0.00825
2070.08781	0.00790
2068.80204	0.00765
2067.51627	0.00749
2066.23050	0.00729
2064.94474	0.00698
2063.65897	0.00657
2062.37320	0.00623
2061.08743	0.00605
2059.80166	0.00600
2058.51589	0.00594
2057.23012	0.00575
2055.94435	0.00544
2054.65859	0.00518
2053.37282	0.00524
2052.08705	0.00579
2050.80128	0.00669
2049.51551	0.00747
2048.22974	0.00767
2046.94397	0.00713
2045.65820	0.00607
2044.37243	0.00493
2043.08667	0.00399
2041.80090	0.00326
2040.51513	0.00255
2039.22936	0.00185
2037.94359	0.00149
2036.65782	0.00185
2035.37205	0.00291
2034.08628	0.00417
2032.80052	0.00507
2031.51475	0.00550
2030.22898	0.00574
2028.94321	0.00596
2027.65744	0.00600
2026.37167	0.00551
2025.08590	0.00436
2023.80013	0.00292
2022.51436	0.00191
2021.22860	0.00186
2019.94283	0.00283
2018.65706	0.00430
2017.37129	0.00555
2016.08552	0.00607
2014.79975	0.00584
2013.51398	0.00527
2012.22821	0.00494
2010.94245	0.00515
2009.65668	0.00574
2008.37091	0.00621
2007.08514	0.00617
2005.79937	0.00563
2004.51360	0.00500
2003.22783	0.00474
2001.94206	0.00492
2000.65629	0.00522
1999.37053	0.00523
1998.08476	0.00489
1996.79899	0.00448
1995.51322	0.00434
1994.22745	0.00451
1992.94168	0.00476
1991.65591	0.00482
1990.37014	0.00461
1989.08438	0.00434
1987.79861	0.00432
1986.51284	0.00472
1985.22707	0.00548
1983.94130	0.00645
1982.65553	0.00759
1981.36976	0.00889
1980.08399	0.01013
1978.79822	0.01069
1977.51246	0.01001
1976.22669	0.00828
1974.94092	0.00647
1973.65515	0.00559
1972.36938	0.00585
1971.08361	0.00662
1969.79784	0.00714
1968.51207	0.00712
1967.22631	0.00674
1965.94054	0.00646
1964.65477	0.00660
1963.36900	0.00710
1962.08323	0.00760
1960.79746	0.00772
1959.51169	0.00746
1958.22592	0.00705
1956.94015	0.00669
1955.65439	0.00649
1954.36862	0.00650
1953.08285	0.00671
1951.79708	0.00708
1950.51131	0.00750
1949.22554	0.00792
1947.93977	0.00831
1946.65400	0.00860
1945.36823	0.00870
1944.08247	0.00855
1942.79670	0.00826
1941.51093	0.00797
1940.22516	0.00769
1938.93939	0.00729
1937.65362	0.00668
1936.36785	0.00611
1935.08208	0.00600
1933.79632	0.00659
1932.51055	0.00762
1931.22478	0.00853
1929.93901	0.00893
1928.65324	0.00883
1927.36747	0.00853
1926.08170	0.00834
1924.79593	0.00834
1923.51016	0.00841
1922.22440	0.00841
1920.93863	0.00828
1919.65286	0.00811
1918.36709	0.00801
1917.08132	0.00800
1915.79555	0.00805
1914.50978	0.00814
1913.22401	0.00830
1911.93825	0.00851
1910.65248	0.00869
1909.36671	0.00874
1908.08094	0.00870
1906.79517	0.00865
1905.50940	0.00863
1904.22363	0.00862
1902.93786	0.00859
1901.65209	0.00858
1900.36633	0.00861
1899.08056	0.00867
1897.79479	0.00870
1896.50902	0.00869
1895.22325	0.00866
1893.93748	0.00863
1892.65171	0.00854
1891.36594	0.00833
1890.08018	0.00799
1888.79441	0.00760
1887.50864	0.00732
1886.22287	0.00729
1884.93710	0.00752
1883.65133	0.00787
1882.36556	0.00819
1881.07979	0.00842
1879.79402	0.00858
1878.50826	0.00865
1877.22249	0.00861
1875.93672	0.00845
1874.65095	0.00820
1873.36518	0.00795
1872.07941	0.00781
1870.79364	0.00786
1869.50787	0.00807
1868.22211	0.00830
1866.93634	0.00841
1865.65057	0.00839
1864.36480	0.00832
1863.07903	0.00825
1861.79326	0.00817
1860.50749	0.00810
1859.22172	0.00808
1857.93595	0.00817
1856.65019	0.00832
1855.36442	0.00840
1854.07865	0.00834
1852.79288	0.00818
1851.50711	0.00803
1850.22134	0.00799
1848.93557	0.00803
1847.64980	0.00808
1846.36404	0.00806
1845.07827	0.00799
1843.79250	0.00795
1842.50673	0.00803
1841.22096	0.00818
1839.93519	0.00830
1838.64942	0.00829
1837.36365	0.00815
1836.07788	0.00798
1834.79212	0.00789
1833.50635	0.00788
1832.22058	0.00793
1830.93481	0.00803
1829.64904	0.00820
1828.36327	0.00841
1827.07750	0.00860
1825.79173	0.00871
1824.50597	0.00874
1823.22020	0.00875
1821.93443	0.00880
1820.64866	0.00886
1819.36289	0.00885
1818.07712	0.00871
1816.79135	0.00846
1815.50558	0.00821
1814.21981	0.00803
1812.93405	0.00794
1811.64828	0.00791
1810.36251	0.00796
1809.07674	0.00810
1807.79097	0.00823
1806.50520	0.00827
1805.21943	0.00817
1803.93366	0.00800
1802.64790	0.00788
1801.36213	0.00787
1800.07636	0.00795
1798.79059	0.00813
1797.50482	0.00835
1796.21905	0.00855
1794.93328	0.00863
1793.64751	0.00856
1792.36174	0.00846
1791.07598	0.00842
1789.79021	0.00848
1788.50444	0.00856
1787.21867	0.00860
1785.93290	0.00859
1784.64713	0.00860
1783.36136	0.00866
1782.07559	0.00877
1780.78983	0.00882
1779.50406	0.00874
1778.21829	0.00854
1776.93252	0.00830
1775.64675	0.00813
1774.36098	0.00804
1773.07521	0.00802
1771.78944	0.00801
1770.50367	0.00796
1769.21791	0.00787
1767.93214	0.00783
1766.64637	0.00788
1765.36060	0.00804
1764.07483	0.00823
1762.78906	0.00837
1761.50329	0.00840
1760.21752	0.00834
1758.93176	0.00824
1757.64599	0.00812
1756.36022	0.00800
1755.07445	0.00787
1753.78868	0.00775
1752.50291	0.00767
1751.21714	0.00767
1749.93137	0.00774
1748.64560	0.00786
1747.35984	0.00800
1746.07407	0.00811
1744.78830	0.00818
1743.50253	0.00820
1742.21676	0.00818
1740.93099	0.00813
1739.64522	0.00805
1738.35945	0.00796
1737.07369	0.00787
1735.78792	0.00783
1734.50215	0.00786
1733.21638	0.00797
1731.93061	0.00812
1730.64484	0.00827
1729.35907	0.00840
1728.07330	0.00848
1726.78753	0.00852
1725.50177	0.00848
1724.21600	0.00840
1722.93023	0.00831
1721.64446	0.00827
1720.35869	0.00830
1719.07292	0.00840
1717.78715	0.00854
1716.50138	0.00869
1715.21561	0.00881
1713.92985	0.00893
1712.64408	0.00906
1711.35831	0.00924
1710.07254	0.00947
1708.78677	0.00971
1707.50100	0.00997
1706.21523	0.01028
1704.92946	0.01065
1703.64370	0.01105
1702.35793	0.01144
1701.07216	0.01182
1699.78639	0.01218
1698.50062	0.01257
1697.21485	0.01302
1695.92908	0.01353
1694.64331	0.01411
1693.35754	0.01475
1692.07178	0.01542
1690.78601	0.01606
1689.50024	0.01666
1688.21447	0.01721
1686.92870	0.01773
1685.64293	0.01823
1684.35716	0.01872
1683.07139	0.01922
1681.78563	0.01975
1680.49986	0.02033
1679.21409	0.02095
1677.92832	0.02161
1676.64255	0.02228
1675.35678	0.02294
1674.07101	0.02357
1672.78524	0.02418
1671.49947	0.02478
1670.21371	0.02533
1668.92794	0.02582
1667.64217	0.02630
1666.35640	0.02685
1665.07063	0.02747
1663.78486	0.02808
1662.49909	0.02863
1661.21332	0.02911
1659.92756	0.02956
1658.64179	0.02996
1657.35602	0.03029
1656.07025	0.03058
1654.78448	0.03087
1653.49871	0.03119
1652.21294	0.03152
1650.92717	0.03182
1649.64140	0.03206
1648.35564	0.03227
1647.06987	0.03249
1645.78410	0.03274
1644.49833	0.03297
1643.21256	0.03314
1641.92679	0.03318
1640.64102	0.03310
1639.35525	0.03295
1638.06949	0.03280
1636.78372	0.03267
1635.49795	0.03253
1634.21218	0.03233
1632.92641	0.03206
1631.64064	0.03175
1630.35487	0.03144
1629.06910	0.03114
1627.78333	0.03082
1626.49757	0.03044
1625.21180	0.02993
1623.92603	0.02932
1622.64026	0.02865
1621.35449	0.02801
1620.06872	0.02743
1618.78295	0.02691
1617.49718	0.02641
1616.21142	0.02592
1614.92565	0.02546
1613.63988	0.02503
1612.35411	0.02464
1611.06834	0.02427
1609.78257	0.02389
1608.49680	0.02349
1607.21103	0.02307
1605.92526	0.02265
1604.63950	0.02227
1603.35373	0.02198
1602.06796	0.02177
1600.78219	0.02160
1599.49642	0.02141
1598.21065	0.02123
1596.92488	0.02108
1595.63911	0.02099
1594.35335	0.02098
1593.06758	0.02102
1591.78181	0.02104
1590.49604	0.02103
1589.21027	0.02097
1587.92450	0.02090
1586.63873	0.02086
1585.35296	0.02086
1584.06719	0.02091
1582.78143	0.02099
1581.49566	0.02108
1580.20989	0.02118
1578.92412	0.02131
1577.63835	0.02149
1576.35258	0.02172
1575.06681	0.02197
1573.78104	0.02221
1572.49528	0.02242
1571.20951	0.02259
1569.92374	0.02276
1568.63797	0.02296
1567.35220	0.02319
1566.06643	0.02341
1564.78066	0.02360
1563.49489	0.02375
1562.20912	0.02389
1560.92336	0.02405
1559.63759	0.02424
1558.35182	0.02449
1557.06605	0.02475
1555.78028	0.02501
1554.49451	0.02522
1553.20874	0.02537
1551.92297	0.02551
1550.63721	0.02570
1549.35144	0.02592
1548.06567	0.02613
1546.77990	0.02625
1545.49413	0.02625
1544.20836	0.02618
1542.92259	0.02611
1541.63682	0.02609
1540.35105	0.02614
1539.06529	0.02627
1537.77952	0.02640
1536.49375	0.02651
1535.20798	0.02655
1533.92221	0.02657
1532.63644	0.02659
1531.35067	0.02662
1530.06490	0.02667
1528.77914	0.02676
1527.49337	0.02686
1526.20760	0.02696
1524.92183	0.02703
1523.63606	0.02707
1522.35029	0.02711
1521.06452	0.02717
1519.77875	0.02726
1518.49298	0.02738
1517.20722	0.02750
1515.92145	0.02763
1514.63568	0.02778
1513.34991	0.02795
1512.06414	0.02812
1510.77837	0.02827
1509.49260	0.02840
1508.20683	0.02856
1506.92107	0.02876
1505.63530	0.02898
1504.34953	0.02917
1503.06376	0.02933
1501.77799	0.02946
1500.49222	0.02960
1499.20645	0.02975
1497.92068	0.02991
1496.63491	0.03002
1495.34915	0.03010
1494.06338	0.03015
1492.77761	0.03021
1491.49184	0.03029
1490.20607	0.03041
1488.92030	0.03056
1487.63453	0.03076
1486.34876	0.03101
1485.06299	0.03129
1483.77723	0.03162
1482.49146	0.03198
1481.20569	0.03239
1479.91992	0.03282
1478.63415	0.03324
1477.34838	0.03361
1476.06261	0.03394
1474.77684	0.03427
1473.49108	0.03461
1472.20531	0.03496
1470.91954	0.03529
1469.63377	0.03561
1468.34800	0.03591
1467.06223	0.03621
1465.77646	0.03648
1464.49069	0.03669
1463.20492	0.03689
1461.91916	0.03711
1460.63339	0.03737
1459.34762	0.03767
1458.06185	0.03801
1456.77608	0.03840
1455.49031	0.03884
1454.20454	0.03926
1452.91877	0.03960
1451.63301	0.03980
1450.34724	0.03988
1449.06147	0.03989
1447.77570	0.03988
1446.48993	0.03985
1445.20416	0.03980
1443.91839	0.03969
1442.63262	0.03950
1441.34685	0.03926
1440.06109	0.03899
1438.77532	0.03877
1437.48955	0.03862
1436.20378	0.03855
1434.91801	0.03851
1433.63224	0.03849
1432.34647	0.03851
1431.06070	0.03861
1429.77494	0.03882
1428.48917	0.03912
1427.20340	0.03947
1425.91763	0.03984
1424.63186	0.04024
1423.34609	0.04065
1422.06032	0.04108
1420.77455	0.04152
1419.48878	0.04193
1418.20302	0.04230
1416.91725	0.04263
1415.63148	0.04292
1414.34571	0.04317
1413.05994	0.04340
1411.77417	0.04356
1410.48840	0.04363
1409.20263	0.04358
1407.91687	0.04344
1406.63110	0.04324
1405.34533	0.04305
1404.05956	0.04282
1402.77379	0.04253
1401.48802	0.04211
1400.20225	0.04156
1398.91648	0.04092
1397.63071	0.04025
1396.34495	0.03959
1395.05918	0.03898
1393.77341	0.03840
1392.48764	0.03782
1391.20187	0.03723
1389.91610	0.03661
1388.63033	0.03597
1387.34456	0.03533
1386.05880	0.03468
1384.77303	0.03398
1383.48726	0.03324
1382.20149	0.03246
1380.91572	0.03170
1379.62995	0.03097
1378.34418	0.03026
1377.05841	0.02953
1375.77264	0.02882
1374.48688	0.02814
1373.20111	0.02750
1371.91534	0.02684
1370.62957	0.02615
1369.34380	0.02545
1368.05803	0.02480
1366.77226	0.02421
1365.48649	0.02367
1364.20073	0.02314
1362.91496	0.02263
1361.62919	0.02216
1360.34342	0.02173
1359.05765	0.02132
1357.77188	0.02094
1356.48611	0.02062
1355.20034	0.02037
1353.91457	0.02016
1352.62881	0.01994
1351.34304	0.01971
1350.05727	0.01946
1348.77150	0.01920
1347.48573	0.01895
1346.19996	0.01874
1344.91419	0.01860
1343.62842	0.01851
1342.34266	0.01842
1341.05689	0.01834
1339.77112	0.01826
1338.48535	0.01819
1337.19958	0.01814
1335.91381	0.01806
1334.62804	0.01797
1333.34227	0.01786
1332.05650	0.01771
1330.77074	0.01753
1329.48497	0.01733
1328.19920	0.01713
1326.91343	0.01696
1325.62766	0.01681
1324.34189	0.01672
1323.05612	0.01666
1321.77035	0.01664
1320.48459	0.01661
1319.19882	0.01654
1317.91305	0.01641
1316.62728	0.01625
1315.34151	0.01611
1314.05574	0.01598
1312.76997	0.01588
1311.48420	0.01580
1310.19843	0.01572
1308.91267	0.01562
1307.62690	0.01547
1306.34113	0.01528
1305.05536	0.01510
1303.76959	0.01498
1302.48382	0.01490
1301.19805	0.01481
1299.91228	0.01467
1298.62652	0.01449
1297.34075	0.01433
1296.05498	0.01421
1294.76921	0.01413
1293.48344	0.01408
1292.19767	0.01403
1290.91190	0.01398
1289.62613	0.01393
1288.34036	0.01391
1287.05460	0.01392
1285.76883	0.01395
1284.48306	0.01399
1283.19729	0.01401
1281.91152	0.01400
1280.62575	0.01396
1279.33998	0.01389
1278.05421	0.01382
1276.76845	0.01376
1275.48268	0.01371
1274.19691	0.01366
1272.91114	0.01362
1271.62537	0.01357
1270.33960	0.01354
1269.05383	0.01352
1267.76806	0.01352
1266.48229	0.01355
1265.19653	0.01358
1263.91076	0.01360
1262.62499	0.01357
1261.33922	0.01352
1260.05345	0.01347
1258.76768	0.01346
1257.48191	0.01348
1256.19614	0.01353
1254.91037	0.01359
1253.62461	0.01362
1252.33884	0.01363
1251.05307	0.01360
1249.76730	0.01354
1248.48153	0.01350
1247.19576	0.01347
1245.90999	0.01345
1244.62422	0.01344
1243.33846	0.01344
1242.05269	0.01344
1240.76692	0.01344
1239.48115	0.01344
1238.19538	0.01344
1236.90961	0.01343
1235.62384	0.01340
1234.33807	0.01333
1233.05230	0.01322
1231.76654	0.01309
1230.48077	0.01295
1229.19500	0.01283
1227.90923	0.01272
1226.62346	0.01261
1225.33769	0.01246
1224.05192	0.01227
1222.76615	0.01207
1221.48039	0.01188
1220.19462	0.01172
1218.90885	0.01160
1217.62308	0.01149
1216.33731	0.01138
1215.05154	0.01127
1213.76577	0.01117
1212.48000	0.01110
1211.19423	0.01108
1209.90847	0.01111
1208.62270	0.01119
1207.33693	0.01130
1206.05116	0.01139
1204.76539	0.01144
1203.47962	0.01147
1202.19385	0.01149
1200.90808	0.01144
1199.62232	0.01128
1198.33655	0.01127
1197.05078	0.01121
1195.76501	0.01113
1194.47924	0.01104
1193.19347	0.01097
1191.90770	0.01090
1190.62193	0.01083
1189.33616	0.01077
1188.05040	0.01072
1186.76463	0.01065
1185.47886	0.01054
1184.19309	0.01043
1182.90732	0.01037
1181.62155	0.01038
1180.33578	0.01043
1179.05001	0.01049
1177.76425	0.01051
1176.47848	0.01048
1175.19271	0.01044
1173.90694	0.01040
1172.62117	0.01038
1171.33540	0.01037
1170.04963	0.01039
1168.76386	0.01042
1167.47809	0.01049
1166.19233	0.01057
1164.90656	0.01063
1163.62079	0.01064
1162.33502	0.01065
1161.04925	0.01068
1159.76348	0.01078
1158.47771	0.01096
1157.19194	0.01115
1155.90618	0.01130
1154.62041	0.01136
1153.33464	0.01137
1152.04887	0.01140
1150.76310	0.01149
1149.47733	0.01163
1148.19156	0.01176
1146.90579	0.01187
1145.62002	0.01197
1144.33426	0.01213
1143.04849	0.01236
1141.76272	0.01263
1140.47695	0.01290
1139.19118	0.01320
1137.90541	0.01355
1136.61964	0.01400
1135.33387	0.01453
1134.04811	0.01517
1132.76234	0.01590
1131.47657	0.01671
1130.19080	0.01755
1128.90503	0.01838
1127.61926	0.01919
1126.33349	0.02000
1125.04772	0.02089
1123.76195	0.02191
1122.47619	0.02310
1121.19042	0.02442
1119.90465	0.02580
1118.61888	0.02715
1117.33311	0.02847
1116.04734	0.02981
1114.76157	0.03122
1113.47580	0.03267
1112.19004	0.03407
1110.90427	0.03539
1109.61850	0.03665
1108.33273	0.03792
1107.04696	0.03924
1105.76119	0.04056
1104.47542	0.04182
1103.18965	0.04299
1101.90388	0.04405
1100.61812	0.04501
1099.33235	0.04594
1098.04658	0.04687
1096.76081	0.04782
1095.47504	0.04878
1094.18927	0.04974
1092.90350	0.05067
1091.61773	0.05153
1090.33197	0.05225
1089.04620	0.05286
1087.76043	0.05346
1086.47466	0.05413
1085.18889	0.05487
1083.90312	0.05563
1082.61735	0.05641
1081.33158	0.05720
1080.04581	0.05801
1078.76005	0.05886
1077.47428	0.05977
1076.18851	0.06078
1074.90274	0.06187
1073.61697	0.06298
1072.33120	0.06407
1071.04543	0.06517
1069.75966	0.06631
1068.47390	0.06752
1067.18813	0.06882
1065.90236	0.07019
1064.61659	0.07161
1063.33082	0.07302
1062.04505	0.07437
1060.75928	0.07562
1059.47351	0.07676
1058.18774	0.07783
1056.90198	0.07889
1055.61621	0.07998
1054.33044	0.08111
1053.04467	0.08227
1051.75890	0.08340
1050.47313	0.08448
1049.18736	0.08556
1047.90159	0.08670
1046.61583	0.08792
1045.33006	0.08917
1044.04429	0.09042
1042.75852	0.09166
1041.47275	0.09289
1040.18698	0.09412
1038.90121	0.09537
1037.61544	0.09666
1036.32967	0.09799
1035.04391	0.09930
1033.75814	0.10049
1032.47237	0.10150
1031.18660	0.10234
1029.90083	0.10309
1028.61506	0.10379
1027.32929	0.10447
1026.04352	0.10511
1024.75775	0.10569
1023.47199	0.10617
1022.18622	0.10654
1020.90045	0.10678
1019.61468	0.10685
1018.32891	0.10675
1017.04314	0.10649
1015.75737	0.10609
1014.47160	0.10556
1013.18584	0.10489
1011.90007	0.10409
1010.61430	0.10318
1009.32853	0.10212
1008.04276	0.10091
1006.75699	0.09955
1005.47122	0.09810
1004.18545	0.09655
1002.89968	0.09487
1001.61392	0.09299
1000.32815	0.09092
999.04238	0.08876
997.75661	0.08660
996.47084	0.08448
995.18507	0.08241
993.89930	0.08036
992.61353	0.07828
991.32777	0.07617
990.04200	0.07408
988.75623	0.07205
987.47046	0.07009
986.18469	0.06811
984.89892	0.06605
983.61315	0.06396
982.32738	0.06195
981.04161	0.06008
979.75585	0.05837
978.47008	0.05680
977.18431	0.05534
975.89854	0.05399
974.61277	0.05274
973.32700	0.05161
972.04123	0.05061
970.75546	0.04976
969.46970	0.04907
968.18393	0.04858
966.89816	0.04829
965.61239	0.04821
964.32662	0.04832
963.04085	0.04858
961.75508	0.04888
960.46931	0.04911
959.18354	0.04914
957.89778	0.04891
956.61201	0.04843
955.32624	0.04774
954.04047	0.04688
952.75470	0.04595
951.46893	0.04500
950.18316	0.04405
948.89739	0.04308
947.61163	0.04208
946.32586	0.04108
945.04009	0.04013
943.75432	0.03924
942.46855	0.03839
941.18278	0.03757
939.89701	0.03678
938.61124	0.03604
937.32547	0.03535
936.03971	0.03470
934.75394	0.03407
933.46817	0.03350
932.18240	0.03304
930.89663	0.03262
929.61086	0.03217
928.32509	0.03166
927.03932	0.03112
925.75356	0.03059
924.46779	0.03014
923.18202	0.02982
921.89625	0.02960
920.61048	0.02941
919.32471	0.02913
918.03894	0.02874
916.75317	0.02825
915.46740	0.02774
914.18164	0.02729
912.89587	0.02695
911.61010	0.02672
910.32433	0.02652
909.03856	0.02631
907.75279	0.02606
906.46702	0.02577
905.18125	0.02547
903.89549	0.02520
902.60972	0.02499
901.32395	0.02480
900.03818	0.02460
898.75241	0.02437
897.46664	0.02411
896.18087	0.02382
894.89510	0.02355
893.60933	0.02338
892.32357	0.02335
891.03780	0.02340
889.75203	0.02344
888.46626	0.02343
887.18049	0.02344
885.89472	0.02362
884.60895	0.02415
883.32318	0.02510
882.03742	0.02636
880.75165	0.02766
879.46588	0.02871
878.18011	0.02941
876.89434	0.02983
875.60857	0.03018
874.32280	0.03054
873.03703	0.03092
871.75126	0.03117
870.46550	0.03121
869.17973	0.03098
867.89396	0.03052
866.60819	0.02986
865.32242	0.02904
864.03665	0.02815
862.75088	0.02728
861.46511	0.02652
860.17935	0.02589
858.89358	0.02536
857.60781	0.02491
856.32204	0.02449
855.03627	0.02408
853.75050	0.02367
852.46473	0.02330
851.17896	0.02299
849.89319	0.02278
848.60743	0.02262
847.32166	0.02247
846.03589	0.02227
844.75012	0.02206
843.46435	0.02187
842.17858	0.02172
840.89281	0.02155
839.60704	0.02135
838.32128	0.02113
837.03551	0.02091
835.74974	0.02071
834.46397	0.02057
833.17820	0.02050
831.89243	0.02048
830.60666	0.02047
829.32089	0.02040
828.03512	0.02028
826.74936	0.02015
825.46359	0.02007
824.17782	0.02007
822.89205	0.02009
821.60628	0.02008
820.32051	0.01997
819.03474	0.01976
817.74897	0.01955
816.46321	0.01948
815.17744	0.01960
813.89167	0.01978
812.60590	0.01987
811.32013	0.01981
810.03436	0.01969
808.74859	0.01957
807.46282	0.01945
806.17705	0.01933
804.89129	0.01923
803.60552	0.01918
802.31975	0.01915
801.03398	0.01913
799.74821	0.01911
798.46244	0.01911
797.17667	0.01913
795.89090	0.01914
794.60513	0.01912
793.31937	0.01907
792.03360	0.01901
790.74783	0.01899
789.46206	0.01902
788.17629	0.01908
786.89052	0.01914
785.60475	0.01915
784.31898	0.01906
783.03322	0.01887
781.74745	0.01866
780.46168	0.01853
779.17591	0.01855
777.89014	0.01869
776.60437	0.01885
775.31860	0.01898
774.03283	0.01903
772.74706	0.01896
771.46130	0.01882
770.17553	0.01868
768.88976	0.01859
767.60399	0.01854
766.31822	0.01853
765.03245	0.01858
763.74668	0.01869
762.46091	0.01883
761.17515	0.01894
759.88938	0.01900
758.60361	0.01899
757.31784	0.01894
756.03207	0.01890
754.74630	0.01890
753.46053	0.01896
752.17476	0.01905
750.88899	0.01912
749.60323	0.01914
748.31746	0.01913
747.03169	0.01909
745.74592	0.01902
744.46015	0.01893
743.17438	0.01878
741.88861	0.01859
740.60284	0.01845
739.31708	0.01844
738.03131	0.01856
736.74554	0.01874
735.45977	0.01894
734.17400	0.01911
732.88823	0.01916
731.60246	0.01907
730.31669	0.01894
729.03092	0.01889
727.74516	0.01896
726.45939	0.01907
725.17362	0.01915
723.88785	0.01909
722.60208	0.01915
721.31631	0.01927
720.03054	0.01937
718.74477	0.01940
717.45901	0.01935
716.17324	0.01926
714.88747	0.01921
713.60170	0.01922
712.31593	0.01927
711.03016	0.01933
709.74439	0.01937
708.45862	0.01936
707.17285	0.01931
705.88709	0.01922
704.60132	0.01912
703.31555	0.01909
702.02978	0.01915
700.74401	0.01927
699.45824	0.01939
698.17247	0.01946
696.88670	0.01948
695.60094	0.01947
694.31517	0.01945
693.02940	0.01942
691.74363	0.01942
690.45786	0.01943
689.17209	0.01944
687.88632	0.01942
686.60055	0.01937
685.31478	0.01930
684.02902	0.01923
682.74325	0.01915
681.45748	0.01906
680.17171	0.01898
678.88594	0.01889
677.60017	0.01881
676.31440	0.01876
675.02863	0.01877
673.74287	0.01883
672.45710	0.01891
671.17133	0.01896
669.88556	0.01896
668.59979	0.01895
667.31402	0.01896
666.02825	0.01901
664.74248	0.01906
663.45671	0.01906
662.17095	0.01900
660.88518	0.01893
659.59941	0.01889
658.31364	0.01889
657.02787	0.01892
655.74210	0.01893
654.45633	0.01893
653.17056	0.01887
651.88480	0.01877
650.59903	0.01866
649.31326	0.01861
648.02749	0.01863
646.74172	0.01868
645.45595	0.01870
644.17018	0.01868
642.88441	0.01868
641.59864	0.01874
640.31288	0.01886
639.02711	0.01898
637.74134	0.01904
636.45557	0.01905
635.16980	0.01907
633.88403	0.01911
632.59826	0.01914
631.31249	0.01929
630.02673	0.02028
628.74096	0.02180
627.45519	0.02105
626.16942	0.02290
624.88365	0.02652
623.59788	0.03002
622.31211	0.03270
621.02634	0.03446
619.74057	0.03544
618.45481	0.03570
617.16904	0.03506
615.88327	0.03353
614.59750	0.03163
613.31173	0.03035
612.02596	0.03077
610.74019	0.03356
609.45442	0.03833
608.16866	0.04357
606.88289	0.04776
605.59712	0.05039
604.31135	0.05176
603.02558	0.05232
601.73981	0.05222
600.45404	0.05143
599.16827	0.05001
597.88250	0.04816
596.59674	0.04619
595.31097	0.04444
594.02520	0.04310
592.73943	0.04225
591.45366	0.04178
590.16789	0.04156
588.88212	0.04152
587.59635	0.04161
586.31059	0.04181
585.02482	0.04212
583.73905	0.04260
582.45328	0.04334
581.16751	0.04439
579.88174	0.04567
578.59597	0.04706
577.31020	0.04844
576.02443	0.04978
574.73867	0.05107
573.45290	0.05234
572.16713	0.05359
570.88136	0.05479
569.59559	0.05598
568.30982	0.05725
567.02405	0.05865
565.73828	0.06012
564.45251	0.06153
563.16675	0.06272
561.88098	0.06346
560.59521	0.06352
559.30944	0.06279
558.02367	0.06134
556.73790	0.05945
555.45213	0.05740
554.16636	0.05542
552.88060	0.05353
551.59483	0.05164
550.30906	0.04967
549.02329	0.04769
547.73752	0.04587
546.45175	0.04428
545.16598	0.04288
543.88021	0.04158
542.59444	0.04035
541.30868	0.03923
540.02291	0.03822
538.73714	0.03727
537.45137	0.03633
536.16560	0.03539
534.87983	0.03447
533.59406	0.03364
532.30829	0.03295
531.02253	0.03238
529.73676	0.03188
528.45099	0.03135
527.16522	0.03075
525.87945	0.03010
524.59368	0.02942
523.30791	0.02874
522.02214	0.02809
520.73637	0.02753
519.45061	0.02709
518.16484	0.02677
516.87907	0.02648
515.59330	0.02617
514.30753	0.02578
513.02176	0.02536
511.73599	0.02494
510.45022	0.02460
509.16446	0.02433
507.87869	0.02410
506.59292	0.02385
505.30715	0.02354
504.02138	0.02318
502.73561	0.02281
501.44984	0.02243
500.16407	0.02206
498.87830	0.02172
497.59254	0.02148
496.30677	0.02133
495.02100	0.02121
493.73523	0.02103
492.44946	0.02081
491.16369	0.02061
489.87792	0.02048
488.59215	0.02042
487.30639	0.02037
486.02062	0.02028
484.73485	0.02013
483.44908	0.01996
482.16331	0.01986
480.87754	0.01982
479.59177	0.01978
478.30600	0.01968
477.02023	0.01953
475.73447	0.01942
474.44870	0.01941
473.16293	0.01950
471.87716	0.01965
470.59139	0.01982
469.30562	0.01997
468.01985	0.02008
466.73408	0.02008
465.44832	0.01993
464.16255	0.01964
462.87678	0.01928
461.59101	0.01896
460.30524	0.01873
459.01947	0.01860
457.73370	0.01850
456.44793	0.01838
455.16216	0.01818
453.87640	0.01791
452.59063	0.01758
451.30486	0.01725
450.01909	0.01696
448.73332	0.01676
447.44755	0.01668
446.16178	0.01669
444.87601	0.01669
443.59025	0.01660
442.30448	0.01640
441.01871	0.01616
439.73294	0.01595
438.44717	0.01581
437.16140	0.01573
435.87563	0.01566
434.58986	0.01559
433.30409	0.01549
432.01833	0.01539
430.73256	0.01531
429.44679	0.01528
428.16102	0.01527
426.87525	0.01524
425.58948	0.01516
424.30371	0.01502
423.01794	0.01484
421.73218	0.01464
420.44641	0.01442
419.16064	0.01421
417.87487	0.01403
416.58910	0.01390
415.30333	0.01381
414.01756	0.01374
412.73179	0.01367
411.44602	0.01363
410.16026	0.01362
408.87449	0.01364
407.58872	0.01369
406.30295	0.01373
405.01718	0.01371
403.73141	0.01361
402.44564	0.01348
401.15987	0.01339
399.87411	0.01335
