3997.45528	0.04192
3996.16951	0.04149
3994.88374	0.04114
3993.59798	0.04087
3992.31221	0.04068
3991.02644	0.04062
3989.74067	0.04064
3988.45490	0.04067
3987.16913	0.04079
3985.88336	0.04113
3984.59759	0.04179
3983.31183	0.04261
3982.02606	0.04331
3980.74029	0.04370
3979.45452	0.04378
3978.16875	0.04364
3976.88298	0.04336
3975.59721	0.04307
3974.31144	0.04298
3973.02567	0.04315
3971.73991	0.04339
3970.45414	0.04343
3969.16837	0.04326
3967.88260	0.04313
3966.59683	0.04328
3965.31106	0.04373
3964.02529	0.04432
3962.73952	0.04474
3961.45376	0.04476
3960.16799	0.04434
3958.88222	0.04370
3957.59645	0.04323
3956.31068	0.04318
3955.02491	0.04344
3953.73914	0.04359
3952.45337	0.04340
3951.16760	0.04306
3949.88184	0.04297
3948.59607	0.04324
3947.31030	0.04367
3946.02453	0.04394
3944.73876	0.04396
3943.45299	0.04383
3942.16722	0.04361
3940.88145	0.04320
3939.59569	0.04244
3938.30992	0.04144
3937.02415	0.04058
3935.73838	0.04018
3934.45261	0.04016
3933.16684	0.04018
3931.88107	0.04008
3930.59530	0.03999
3929.30953	0.04006
3928.02377	0.04021
3926.73800	0.04017
3925.45223	0.03973
3924.16646	0.03914
3922.88069	0.03886
3921.59492	0.03918
3920.30915	0.03995
3919.02338	0.04070
3917.73762	0.04110
3916.45185	0.04111
3915.16608	0.04088
3913.88031	0.04060
3912.59454	0.04043
3911.30877	0.04040
3910.02300	0.04052
3908.73723	0.04077
3907.45146	0.04114
3906.16570	0.04150
3904.87993	0.04155
3903.59416	0.04114
3902.30839	0.04048
3901.02262	0.04005
3899.73685	0.04014
3898.45108	0.04065
3897.16531	0.04135
3895.87955	0.04204
3894.59378	0.04245
3893.30801	0.04224
3892.02224	0.04136
3890.73647	0.04032
3889.45070	0.03981
3888.16493	0.04013
3886.87916	0.04100
3885.59339	0.04193
3884.30763	0.04260
3883.02186	0.04290
3881.73609	0.04286
3880.45032	0.04249
3879.16455	0.04182
3877.87878	0.04093
3876.59301	0.04004
3875.30724	0.03946
3874.02148	0.03936
3872.73571	0.03954
3871.44994	0.03971
3870.16417	0.03981
3868.87840	0.04005
3867.59263	0.04053
3866.30686	0.04105
3865.02109	0.04137
3863.73532	0.04142
3862.44956	0.04130
3861.16379	0.04109
3859.87802	0.04079
3858.59225	0.04048
3857.30648	0.04030
3856.02071	0.04032
3854.73494	0.04050
3853.44917	0.04061
3852.16341	0.04047
3850.87764	0.04008
3849.59187	0.03966
3848.30610	0.03941
3847.02033	0.03937
3845.73456	0.03948
3844.44879	0.03968
3843.16302	0.03987
3841.87725	0.03986
3840.59149	0.03956
3839.30572	0.03908
3838.01995	0.03866
3836.73418	0.03848
3835.44841	0.03860
3834.16264	0.03901
3832.87687	0.03960
3831.59110	0.04011
3830.30534	0.04025
3829.01957	0.03999
3827.73380	0.03959
3826.44803	0.03934
3825.16226	0.03927
3823.87649	0.03916
3822.59072	0.03891
3821.30495	0.03876
3820.01918	0.03905
3818.73342	0.03982
3817.44765	0.04071
3816.16188	0.04123
3814.87611	0.04111
3813.59034	0.04042
3812.30457	0.03952
3811.01880	0.03881
3809.73303	0.03852
3808.44726	0.03851
3807.16150	0.03851
3805.87573	0.03841
3804.58996	0.03845
3803.30419	0.03886
3802.01842	0.03946
3800.73265	0.03972
3799.44688	0.03932
3798.16111	0.03862
3796.87535	0.03824
3795.58958	0.03851
3794.30381	0.03927
3793.01804	0.04018
3791.73227	0.04093
3790.44650	0.04123
3789.16073	0.04095
3787.87496	0.04024
3786.58919	0.03941
3785.30343	0.03869
3784.01766	0.03805
3782.73189	0.03740
3781.44612	0.03685
3780.16035	0.03652
3778.87458	0.03647
3777.58881	0.03668
3776.30304	0.03713
3775.01728	0.03780
3773.73151	0.03849
3772.44574	0.03882
3771.15997	0.03856
3769.87420	0.03782
3768.58843	0.03693
3767.30266	0.03617
3766.01689	0.03563
3764.73112	0.03541
3763.44536	0.03569
3762.15959	0.03653
3760.87382	0.03770
3759.58805	0.03876
3758.30228	0.03929
3757.01651	0.03917
3755.73074	0.03867
3754.44497	0.03828
3753.15921	0.03839
3751.87344	0.03895
3750.58767	0.03948
3749.30190	0.03951
3748.01613	0.03904
3746.73036	0.03837
3745.44459	0.03768
3744.15882	0.03692
3742.87305	0.03612
3741.58729	0.03561
3740.30152	0.03571
3739.01575	0.03641
3737.72998	0.03735
3736.44421	0.03816
3735.15844	0.03860
3733.87267	0.03862
3732.58690	0.03828
3731.30114	0.03774
3730.01537	0.03721
3728.72960	0.03681
3727.44383	0.03661
3726.15806	0.03662
3724.87229	0.03687
3723.58652	0.03725
3722.30075	0.03765
3721.01498	0.03800
3719.72922	0.03836
3718.44345	0.03873
3717.15768	0.03898
3715.87191	0.03899
3714.58614	0.03888
3713.30037	0.03886
3712.01460	0.03898
3710.72883	0.03910
3709.44307	0.03904
3708.15730	0.03862
3706.87153	0.03779
3705.58576	0.03671
3704.29999	0.03586
3703.01422	0.03563
3701.72845	0.03595
3700.44268	0.03627
3699.15691	0.03610
3697.87115	0.03554
3696.58538	0.03511
3695.29961	0.03499
3694.01384	0.03495
3692.72807	0.03490
3691.44230	0.03502
3690.15653	0.03541
3688.87076	0.03589
3687.58500	0.03617
3686.29923	0.03614
3685.01346	0.03610
3683.72769	0.03621
3682.44192	0.03629
3681.15615	0.03623
3679.87038	0.03616
3678.58461	0.03634
3677.29884	0.03675
3676.01308	0.03715
3674.72731	0.03736
3673.44154	0.03749
3672.15577	0.03765
3670.87000	0.03781
3669.58423	0.03790
3668.29846	0.03800
3667.01269	0.03816
3665.72693	0.03825
3664.44116	0.03821
3663.15539	0.03815
3661.86962	0.03829
3660.58385	0.03864
3659.29808	0.03894
3658.01231	0.03887
3656.72654	0.03834
3655.44077	0.03758
3654.15501	0.03709
3652.86924	0.03733
3651.58347	0.03831
3650.29770	0.03946
3649.01193	0.04011
3647.72616	0.04007
3646.44039	0.03962
3645.15462	0.03920
3643.86886	0.03908
3642.58309	0.03931
3641.29732	0.03980
3640.01155	0.04042
3638.72578	0.04101
3637.44001	0.04140
3636.15424	0.04136
3634.86847	0.04080
3633.58270	0.03994
3632.29694	0.03933
3631.01117	0.03940
3629.72540	0.04011
3628.43963	0.04093
3627.15386	0.04141
3625.86809	0.04153
3624.58232	0.04155
3623.29655	0.04152
3622.01079	0.04117
3620.72502	0.04036
3619.43925	0.03935
3618.15348	0.03868
3616.86771	0.03870
3615.58194	0.03938
3614.29617	0.04041
3613.01040	0.04137
3611.72463	0.04197
3610.43887	0.04224
3609.15310	0.04240
3607.86733	0.04266
3606.58156	0.04306
3605.29579	0.04337
3604.01002	0.04330
3602.72425	0.04277
3601.43848	0.04214
3600.15272	0.04191
3598.86695	0.04220
3597.58118	0.04273
3596.29541	0.04322
3595.00964	0.04365
3593.72387	0.04403
3592.43810	0.04434
3591.15233	0.04456
3589.86656	0.04463
3588.58080	0.04452
3587.29503	0.04427
3586.00926	0.04388
3584.72349	0.04348
3583.43772	0.04333
3582.15195	0.04366
3580.86618	0.04440
3579.58041	0.04518
3578.29464	0.04559
3577.00888	0.04559
3575.72311	0.04556
3574.43734	0.04584
3573.15157	0.04641
3571.86580	0.04697
3570.58003	0.04736
3569.29426	0.04759
3568.00849	0.04775
3566.72273	0.04784
3565.43696	0.04784
3564.15119	0.04767
3562.86542	0.04722
3561.57965	0.04649
3560.29388	0.04571
3559.00811	0.04519
3557.72234	0.04512
3556.43657	0.04546
3555.15081	0.04604
3553.86504	0.04667
3552.57927	0.04726
3551.29350	0.04779
3550.00773	0.04830
3548.72196	0.04871
3547.43619	0.04887
3546.15042	0.04867
3544.86466	0.04816
3543.57889	0.04768
3542.29312	0.04770
3541.00735	0.04843
3539.72158	0.04950
3538.43581	0.05029
3537.15004	0.05049
3535.86427	0.05029
3534.57850	0.05001
3533.29274	0.04981
3532.00697	0.04972
3530.72120	0.04983
3529.43543	0.05021
3528.14966	0.05075
3526.86389	0.05118
3525.57812	0.05132
3524.29235	0.05119
3523.00659	0.05079
3521.72082	0.05012
3520.43505	0.04933
3519.14928	0.04877
3517.86351	0.04879
3516.57774	0.04938
3515.29197	0.05019
3514.00620	0.05085
3512.72043	0.05126
3511.43467	0.05148
3510.14890	0.05162
3508.86313	0.05172
3507.57736	0.05185
3506.29159	0.05211
3505.00582	0.05252
3503.72005	0.05292
3502.43428	0.05307
3501.14852	0.05284
3499.86275	0.05246
3498.57698	0.05234
3497.29121	0.05265
3496.00544	0.05318
3494.71967	0.05353
3493.43390	0.05356
3492.14813	0.05341
3490.86236	0.05328
3489.57660	0.05312
3488.29083	0.05279
3487.00506	0.05233
3485.71929	0.05199
3484.43352	0.05211
3483.14775	0.05278
3481.86198	0.05377
3480.57621	0.05469
3479.29045	0.05525
3478.00468	0.05538
3476.71891	0.05522
3475.43314	0.05498
3474.14737	0.05486
3472.86160	0.05486
3471.57583	0.05490
3470.29006	0.05494
3469.00429	0.05496
3467.71853	0.05489
3466.43276	0.05469
3465.14699	0.05442
3463.86122	0.05429
3462.57545	0.05436
3461.28968	0.05453
3460.00391	0.05462
3458.71814	0.05453
3457.43238	0.05440
3456.14661	0.05447
3454.86084	0.05497
3453.57507	0.05586
3452.28930	0.05684
3451.00353	0.05761
3449.71776	0.05808
3448.43199	0.05828
3447.14622	0.05818
3445.86046	0.05771
3444.57469	0.05691
3443.28892	0.05605
3442.00315	0.05546
3440.71738	0.05535
3439.43161	0.05578
3438.14584	0.05663
3436.86007	0.05762
3435.57431	0.05835
3434.28854	0.05864
3433.00277	0.05859
3431.71700	0.05850
3430.43123	0.05853
3429.14546	0.05873
3427.85969	0.05898
3426.57392	0.05906
3425.28815	0.05878
3424.00239	0.05819
3422.71662	0.05765
3421.43085	0.05750
3420.14508	0.05780
3418.85931	0.05827
3417.57354	0.05857
3416.28777	0.05847
3415.00200	0.05800
3413.71624	0.05747
3412.43047	0.05726
3411.14470	0.05748
3409.85893	0.05785
3408.57316	0.05807
3407.28739	0.05807
3406.00162	0.05804
3404.71585	0.05812
3403.43008	0.05826
3402.14432	0.05841
3400.85855	0.05855
3399.57278	0.05873
3398.28701	0.05901
3397.00124	0.05937
3395.71547	0.05975
3394.42970	0.06006
3393.14393	0.06023
3391.85817	0.06027
3390.57240	0.06023
3389.28663	0.06016
3388.00086	0.06007
3386.71509	0.05994
3385.42932	0.05979
3384.14355	0.05967
3382.85778	0.05964
3381.57201	0.05975
3380.28625	0.06007
3379.00048	0.06052
3377.71471	0.06081
3376.42894	0.06073
3375.14317	0.06035
3373.85740	0.06004
3372.57163	0.06006
3371.28586	0.06030
3370.00010	0.06048
3368.71433	0.06045
3367.42856	0.06029
3366.14279	0.06017
3364.85702	0.06018
3363.57125	0.06027
3362.28548	0.06033
3360.99971	0.06031
3359.71394	0.06029
3358.42818	0.06042
3357.14241	0.06077
3355.85664	0.06122
3354.57087	0.06153
3353.28510	0.06155
3351.99933	0.06125
3350.71356	0.06074
3349.42779	0.06019
3348.14202	0.05976
3346.85626	0.05951
3345.57049	0.05945
3344.28472	0.05953
3342.99895	0.05965
3341.71318	0.05981
3340.42741	0.06005
3339.14164	0.06043
3337.85587	0.06089
3336.57011	0.06128
3335.28434	0.06153
3333.99857	0.06168
3332.71280	0.06186
3331.42703	0.06210
3330.14126	0.06225
3328.85549	0.06214
3327.56972	0.06175
3326.28395	0.06130
3324.99819	0.06102
3323.71242	0.06099
3322.42665	0.06113
3321.14088	0.06130
3319.85511	0.06138
3318.56934	0.06121
3317.28357	0.06068
3315.99780	0.05994
3314.71204	0.05931
3313.42627	0.05909
3312.14050	0.05934
3310.85473	0.05987
3309.56896	0.06050
3308.28319	0.06114
3306.99742	0.06175
3305.71165	0.06220
3304.42588	0.06233
3303.14012	0.06214
3301.85435	0.06185
3300.56858	0.06168
3299.28281	0.06162
3297.99704	0.06146
3296.71127	0.06109
3295.42550	0.06064
3294.13973	0.06040
3292.85397	0.06053
3291.56820	0.06097
3290.28243	0.06151
3288.99666	0.06199
3287.71089	0.06227
3286.42512	0.06225
3285.13935	0.06184
3283.85358	0.06119
3282.56781	0.06062
3281.28205	0.06038
3279.99628	0.06045
3278.71051	0.06066
3277.42474	0.06087
3276.13897	0.06101
3274.85320	0.06111
3273.56743	0.06112
3272.28166	0.06100
3270.99590	0.06076
3269.71013	0.06045
3268.42436	0.06014
3267.13859	0.05993
3265.85282	0.05983
3264.56705	0.05978
3263.28128	0.05962
3261.99551	0.05935
3260.70974	0.05915
3259.42398	0.05926
3258.13821	0.05973
3256.85244	0.06030
3255.56667	0.06065
3254.28090	0.06072
3252.99513	0.06064
3251.70936	0.06056
3250.42359	0.06043
3249.13783	0.06016
3247.85206	0.05982
3246.56629	0.05961
3245.28052	0.05965
3243.99475	0.05989
3242.70898	0.06018
3241.42321	0.06038
3240.13744	0.06045
3238.85167	0.06041
3237.56591	0.06035
3236.28014	0.06032
3234.99437	0.06024
3233.70860	0.05992
3232.42283	0.05929
3231.13706	0.05859
3229.85129	0.05814
3228.56552	0.05813
3227.27976	0.05845
3225.99399	0.05888
3224.70822	0.05926
3223.42245	0.05948
3222.13668	0.05944
3220.85091	0.05916
3219.56514	0.05887
3218.27937	0.05889
3216.99360	0.05929
3215.70784	0.05981
3214.42207	0.06013
3213.13630	0.06004
3211.85053	0.05957
3210.56476	0.05896
3209.27899	0.05848
3207.99322	0.05832
3206.70745	0.05850
3205.42169	0.05887
3204.13592	0.05918
3202.85015	0.05921
3201.56438	0.05892
3200.27861	0.05848
3198.99284	0.05812
3197.70707	0.05796
3196.42130	0.05791
3195.13553	0.05783
3193.84977	0.05774
3192.56400	0.05780
3191.27823	0.05808
3189.99246	0.05843
3188.70669	0.05861
3187.42092	0.05852
3186.13515	0.05832
3184.84938	0.05817
3183.56362	0.05812
3182.27785	0.05800
3180.99208	0.05769
3179.70631	0.05719
3178.42054	0.05673
3177.13477	0.05654
3175.84900	0.05672
3174.56323	0.05711
3173.27746	0.05740
3171.99170	0.05743
3170.70593	0.05731
3169.42016	0.05729
3168.13439	0.05748
3166.84862	0.05772
3165.56285	0.05777
3164.27708	0.05747
3162.99131	0.05688
3161.70555	0.05632
3160.41978	0.05607
3159.13401	0.05623
3157.84824	0.05658
3156.56247	0.05692
3155.27670	0.05720
3153.99093	0.05746
3152.70516	0.05768
3151.41939	0.05768
3150.13363	0.05735
3148.84786	0.05679
3147.56209	0.05623
3146.27632	0.05576
3144.99055	0.05542
3143.70478	0.05522
3142.41901	0.05521
3141.13324	0.05537
3139.84748	0.05556
3138.56171	0.05564
3137.27594	0.05563
3135.99017	0.05564
3134.70440	0.05579
3133.41863	0.05603
3132.13286	0.05616
3130.84709	0.05612
3129.56132	0.05598
3128.27556	0.05582
3126.98979	0.05565
3125.70402	0.05543
3124.41825	0.05521
3123.13248	0.05503
3121.84671	0.05480
3120.56094	0.05450
3119.27517	0.05427
3117.98940	0.05426
3116.70364	0.05439
3115.41787	0.05444
3114.13210	0.05419
3112.84633	0.05371
3111.56056	0.05318
3110.27479	0.05282
3108.98902	0.05265
3107.70325	0.05257
3106.41749	0.05245
3105.13172	0.05232
3103.84595	0.05238
3102.56018	0.05274
3101.27441	0.05327
3099.98864	0.05371
3098.70287	0.05389
3097.41710	0.05385
3096.13133	0.05375
3094.84557	0.05369
3093.55980	0.05371
3092.27403	0.05381
3090.98826	0.05394
3089.70249	0.05402
3088.41672	0.05401
3087.13095	0.05401
3085.84518	0.05409
3084.55942	0.05418
3083.27365	0.05408
3081.98788	0.05370
3080.70211	0.05319
3079.41634	0.05282
3078.13057	0.05273
3076.84480	0.05280
3075.55903	0.05282
3074.27326	0.05262
3072.98750	0.05232
3071.70173	0.05216
3070.41596	0.05232
3069.13019	0.05278
3067.84442	0.05332
3066.55865	0.05366
3065.27288	0.05358
3063.98711	0.05303
3062.70135	0.05228
3061.41558	0.05171
3060.12981	0.05155
3058.84404	0.05172
3057.55827	0.05202
3056.27250	0.05230
3054.98673	0.05254
3053.70096	0.05270
3052.41519	0.05271
3051.12943	0.05256
3049.84366	0.05229
3048.55789	0.05201
3047.27212	0.05179
3045.98635	0.05156
3044.70058	0.05125
3043.41481	0.05088
3042.12904	0.05059
3040.84328	0.05056
3039.55751	0.05079
3038.27174	0.05108
3036.98597	0.05120
3035.70020	0.05112
3034.41443	0.05102
3033.12866	0.05108
3031.84289	0.05128
3030.55712	0.05145
3029.27136	0.05145
3027.98559	0.05134
3026.69982	0.05122
3025.41405	0.05117
3024.12828	0.05113
3022.84251	0.05102
3021.55674	0.05086
3020.27097	0.05074
3018.98521	0.05071
3017.69944	0.05073
3016.41367	0.05065
3015.12790	0.05037
3013.84213	0.04994
3012.55636	0.04950
3011.27059	0.04925
3009.98482	0.04926
3008.69905	0.04938
3007.41329	0.04939
3006.12752	0.04919
3004.84175	0.04885
3003.55598	0.04851
3002.27021	0.04825
3000.98444	0.04811
2999.69867	0.04809
2998.41290	0.04823
2997.12714	0.04847
2995.84137	0.04871
2994.55560	0.04887
2993.26983	0.04896
2991.98406	0.04901
2990.69829	0.04907
2989.41252	0.04919
2988.12675	0.04945
2986.84098	0.04983
2985.55522	0.05019
2984.26945	0.05036
2982.98368	0.05037
2981.69791	0.05045
2980.41214	0.05089
2979.12637	0.05179
2977.84060	0.05291
2976.55483	0.05390
2975.26907	0.05469
2973.98330	0.05551
2972.69753	0.05666
2971.41176	0.05818
2970.12599	0.05982
2968.84022	0.06127
2967.55445	0.06249
2966.26868	0.06368
2964.98291	0.06505
2963.69715	0.06661
2962.41138	0.06820
2961.12561	0.06971
2959.83984	0.07114
2958.55407	0.07247
2957.26830	0.07366
2955.98253	0.07470
2954.69676	0.07564
2953.41100	0.07653
2952.12523	0.07734
2950.83946	0.07800
2949.55369	0.07839
2948.26792	0.07846
2946.98215	0.07827
2945.69638	0.07793
2944.41061	0.07756
2943.12484	0.07727
2941.83908	0.07717
2940.55331	0.07736
2939.26754	0.07784
2937.98177	0.07862
2936.69600	0.07972
2935.41023	0.08113
2934.12446	0.08269
2932.83869	0.08422
2931.55293	0.08556
2930.26716	0.08666
2928.98139	0.08759
2927.69562	0.08846
2926.40985	0.08937
2925.12408	0.09029
2923.83831	0.09114
2922.55254	0.09184
2921.26677	0.09228
2919.98101	0.09228
2918.69524	0.09170
2917.40947	0.09065
2916.12370	0.08938
2914.83793	0.08812
2913.55216	0.08703
2912.26639	0.08613
2910.98062	0.08531
2909.69486	0.08443
2908.40909	0.08347
2907.12332	0.08252
2905.83755	0.08162
2904.55178	0.08070
2903.26601	0.07977
2901.98024	0.07894
2900.69447	0.07836
2899.40870	0.07798
2898.12294	0.07763
2896.83717	0.07709
2895.55140	0.07629
2894.26563	0.07536
2892.97986	0.07451
2891.69409	0.07374
2890.40832	0.07288
2889.12255	0.07180
2887.83678	0.07065
2886.55102	0.06970
2885.26525	0.06903
2883.97948	0.06848
2882.69371	0.06784
2881.40794	0.06712
2880.12217	0.06656
2878.83640	0.06641
2877.55063	0.06675
2876.26487	0.06749
2874.97910	0.06845
2873.69333	0.06947
2872.40756	0.07038
2871.12179	0.07112
2869.83602	0.07169
2868.55025	0.07210
2867.26448	0.07237
2865.97871	0.07260
2864.69295	0.07287
2863.40718	0.07312
2862.12141	0.07322
2860.83564	0.07316
2859.54987	0.07308
2858.26410	0.07314
2856.97833	0.07327
2855.69256	0.07336
2854.40680	0.07336
2853.12103	0.07327
2851.83526	0.07307
2850.54949	0.07267
2849.26372	0.07206
2847.97795	0.07126
2846.69218	0.07027
2845.40641	0.06911
2844.12064	0.06786
2842.83488	0.06666
2841.54911	0.06555
2840.26334	0.06447
2838.97757	0.06332
2837.69180	0.06210
2836.40603	0.06089
2835.12026	0.05977
2833.83449	0.05873
2832.54873	0.05769
2831.26296	0.05661
2829.97719	0.05557
2828.69142	0.05473
2827.40565	0.05418
2826.11988	0.05381
2824.83411	0.05344
2823.54834	0.05300
2822.26257	0.05254
2820.97681	0.05211
2819.69104	0.05163
2818.40527	0.05105
2817.11950	0.05045
2815.83373	0.04998
2814.54796	0.04971
2813.26219	0.04957
2811.97642	0.04937
2810.69066	0.04899
2809.40489	0.04848
2808.11912	0.04804
2806.83335	0.04782
2805.54758	0.04778
2804.26181	0.04773
2802.97604	0.04760
2801.69027	0.04742
2800.40450	0.04721
2799.11874	0.04698
2797.83297	0.04674
2796.54720	0.04652
2795.26143	0.04639
2793.97566	0.04630
2792.68989	0.04622
2791.40412	0.04618
2790.11835	0.04619
2788.83259	0.04618
2787.54682	0.04606
2786.26105	0.04584
2784.97528	0.04561
2783.68951	0.04544
2782.40374	0.04528
2781.11797	0.04511
2779.83220	0.04488
2778.54643	0.04464
2777.26067	0.04445
2775.97490	0.04440
2774.68913	0.04445
2773.40336	0.04449
2772.11759	0.04447
2770.83182	0.04437
2769.54605	0.04421
2768.26028	0.04399
2766.97452	0.04378
2765.68875	0.04367
2764.40298	0.04369
2763.11721	0.04376
2761.83144	0.04380
2760.54567	0.04371
2759.25990	0.04349
2757.97413	0.04322
2756.68836	0.04301
2755.40260	0.04292
2754.11683	0.04292
2752.83106	0.04290
2751.54529	0.04285
2750.25952	0.04279
2748.97375	0.04277
2747.68798	0.04274
2746.40221	0.04263
2745.11645	0.04243
2743.83068	0.04224
2742.54491	0.04214
2741.25914	0.04217
2739.97337	0.04227
2738.68760	0.04237
2737.40183	0.04236
2736.11606	0.04222
2734.83029	0.04205
2733.54453	0.04198
2732.25876	0.04207
2730.97299	0.04222
2729.68722	0.04228
2728.40145	0.04213
2727.11568	0.04182
2725.82991	0.04150
2724.54414	0.04128
2723.25838	0.04119
2721.97261	0.04116
2720.68684	0.04113
2719.40107	0.04109
2718.11530	0.04107
2716.82953	0.04106
2715.54376	0.04105
2714.25799	0.04103
2712.97222	0.04096
2711.68646	0.04078
2710.40069	0.04045
2709.11492	0.04010
2707.82915	0.03988
2706.54338	0.03983
2705.25761	0.03988
2703.97184	0.03994
2702.68607	0.04001
2701.40031	0.04014
2700.11454	0.04037
2698.82877	0.04063
2697.54300	0.04080
2696.25723	0.04075
2694.97146	0.04052
2693.68569	0.04024
2692.39992	0.04005
2691.11415	0.03993
2689.82839	0.03980
2688.54262	0.03965
2687.25685	0.03955
2685.97108	0.03956
2684.68531	0.03967
2683.39954	0.03973
2682.11377	0.03965
2680.82800	0.03952
2679.54224	0.03947
2678.25647	0.03957
2676.97070	0.03969
2675.68493	0.03969
2674.39916	0.03956
2673.11339	0.03941
2671.82762	0.03929
2670.54185	0.03922
2669.25608	0.03917
2667.97032	0.03911
2666.68455	0.03903
2665.39878	0.03887
2664.11301	0.03860
2662.82724	0.03826
2661.54147	0.03797
2660.25570	0.03781
2658.96993	0.03781
2657.68417	0.03795
2656.39840	0.03817
2655.11263	0.03836
2653.82686	0.03849
2652.54109	0.03854
2651.25532	0.03850
2649.96955	0.03838
2648.68378	0.03814
2647.39801	0.03786
2646.11225	0.03763
2644.82648	0.03749
2643.54071	0.03739
2642.25494	0.03723
2640.96917	0.03698
2639.68340	0.03671
2638.39763	0.03646
2637.11186	0.03626
2635.82609	0.03607
2634.54033	0.03591
2633.25456	0.03577
2631.96879	0.03564
2630.68302	0.03548
2629.39725	0.03532
2628.11148	0.03526
2626.82571	0.03538
2625.53994	0.03561
2624.25418	0.03575
2622.96841	0.03566
2621.68264	0.03537
2620.39687	0.03502
2619.11110	0.03475
2617.82533	0.03460
2616.53956	0.03454
2615.25379	0.03450
2613.96802	0.03445
2612.68226	0.03440
2611.39649	0.03440
2610.11072	0.03445
2608.82495	0.03455
2607.53918	0.03464
2606.25341	0.03466
2604.96764	0.03449
2603.68187	0.03410
2602.39611	0.03361
2601.11034	0.03323
2599.82457	0.03305
2598.53880	0.03301
2597.25303	0.03297
2595.96726	0.03298
2594.68149	0.03316
2593.39572	0.03351
2592.10995	0.03375
2590.82419	0.03360
2589.53842	0.03314
2588.25265	0.03273
2586.96688	0.03265
2585.68111	0.03281
2584.39534	0.03299
2583.10957	0.03304
2581.82380	0.03302
2580.53804	0.03303
2579.25227	0.03314
2577.96650	0.03333
2576.68073	0.03345
2575.39496	0.03335
2574.10919	0.03298
2572.82342	0.03244
2571.53765	0.03188
2570.25188	0.03142
2568.96612	0.03120
2567.68035	0.03123
2566.39458	0.03134
2565.10881	0.03135
2563.82304	0.03125
2562.53727	0.03118
2561.25150	0.03125
2559.96573	0.03144
2558.67997	0.03166
2557.39420	0.03179
2556.10843	0.03176
2554.82266	0.03154
2553.53689	0.03121
2552.25112	0.03089
2550.96535	0.03076
2549.67958	0.03099
2548.39381	0.03153
2547.10805	0.03212
2545.82228	0.03239
2544.53651	0.03214
2543.25074	0.03148
2541.96497	0.03071
2540.67920	0.03016
2539.39343	0.02999
2538.10766	0.03017
2536.82190	0.03053
2535.53613	0.03090
2534.25036	0.03114
2532.96459	0.03114
2531.67882	0.03090
2530.39305	0.03044
2529.10728	0.02985
2527.82151	0.02922
2526.53574	0.02869
2525.24998	0.02846
2523.96421	0.02863
2522.67844	0.02903
2521.39267	0.02936
2520.10690	0.02943
2518.82113	0.02938
2517.53536	0.02942
2516.24959	0.02949
2514.96383	0.02938
2513.67806	0.02908
2512.39229	0.02887
2511.10652	0.02898
2509.82075	0.02934
2508.53498	0.02964
2507.24921	0.02968
2505.96344	0.02951
2504.67767	0.02930
2503.39191	0.02921
2502.10614	0.02931
2500.82037	0.02956
2499.53460	0.02979
2498.24883	0.02987
2496.96306	0.02981
2495.67729	0.02970
2494.39152	0.02955
2493.10576	0.02927
2491.81999	0.02884
2490.53422	0.02838
2489.24845	0.02801
2487.96268	0.02787
2486.67691	0.02801
2485.39114	0.02838
2484.10537	0.02881
2482.81960	0.02912
2481.53384	0.02921
2480.24807	0.02911
2478.96230	0.02887
2477.67653	0.02851
2476.39076	0.02807
2475.10499	0.02770
2473.81922	0.02756
2472.53345	0.02770
2471.24769	0.02800
2469.96192	0.02826
2468.67615	0.02838
2467.39038	0.02833
2466.10461	0.02819
2464.81884	0.02817
2463.53307	0.02849
2462.24730	0.02912
2460.96153	0.02979
2459.67577	0.03022
2458.39000	0.03029
2457.10423	0.03003
2455.81846	0.02959
2454.53269	0.02920
2453.24692	0.02892
2451.96115	0.02869
2450.67538	0.02840
2449.38962	0.02808
2448.10385	0.02788
2446.81808	0.02792
2445.53231	0.02823
2444.24654	0.02861
2442.96077	0.02877
2441.67500	0.02856
2440.38923	0.02809
2439.10346	0.02758
2437.81770	0.02715
2436.53193	0.02685
2435.24616	0.02674
2433.96039	0.02684
2432.67462	0.02702
2431.38885	0.02713
2430.10308	0.02718
2428.81731	0.02730
2427.53155	0.02750
2426.24578	0.02766
2424.96001	0.02763
2423.67424	0.02742
2422.38847	0.02713
2421.10270	0.02690
2419.81693	0.02681
2418.53116	0.02692
2417.24539	0.02722
2415.95963	0.02753
2414.67386	0.02767
2413.38809	0.02760
2412.10232	0.02743
2410.81655	0.02732
2409.53078	0.02730
2408.24501	0.02737
2406.95924	0.02746
2405.67347	0.02749
2404.38771	0.02741
2403.10194	0.02727
2401.81617	0.02716
2400.53040	0.02717
2399.24463	0.02715
2397.95886	0.02727
2396.67309	0.02737
2395.38732	0.02735
2394.10156	0.02731
2392.81579	0.02733
2391.53002	0.02742
2390.24425	0.02748
2388.95848	0.02743
2387.67271	0.02724
2386.38694	0.02704
2385.10117	0.02701
2383.81540	0.02724
2382.52964	0.02767
2381.24387	0.02808
2379.95810	0.02830
2378.67233	0.02829
2377.38656	0.02814
2376.10079	0.02796
2374.81502	0.02776
2373.52925	0.02766
2372.24349	0.02770
2370.95772	0.02785
2369.67195	0.02787
2368.38618	0.02775
2367.10041	0.02765
2365.81464	0.02779
2364.52887	0.02795
2363.24310	0.02809
2361.95733	0.02825
2360.67157	0.02857
2359.38580	0.02869
2358.10003	0.02852
2356.81426	0.02819
2355.52849	0.02786
2354.24272	0.02760
2352.95695	0.02746
2351.67118	0.02765
2350.38542	0.02799
2349.09965	0.02808
2347.81388	0.02789
2346.52811	0.02805
2345.24234	0.02840
2343.95657	0.02818
2342.67080	0.02747
2341.38503	0.02760
2340.09926	0.02863
2338.81350	0.02874
2337.52773	0.02776
2336.24196	0.02785
2334.95619	0.02864
2333.67042	0.02785
2332.38465	0.02616
2331.09888	0.02615
2329.81311	0.02632
2328.52735	0.02510
2327.24158	0.02543
2325.95581	0.02689
2324.67004	0.02720
2323.38427	0.02780
2322.09850	0.02883
2320.81273	0.02849
2319.52696	0.02850
2318.24119	0.02898
2316.95543	0.02875
2315.66966	0.02875
2314.38389	0.02876
2313.09812	0.02832
2311.81235	0.02814
2310.52658	0.02780
2309.24081	0.02737
2307.95504	0.02715
2306.66928	0.02679
2305.38351	0.02655
2304.09774	0.02628
2302.81197	0.02596
2301.52620	0.02577
2300.24043	0.02563
2298.95466	0.02563
2297.66889	0.02563
2296.38312	0.02548
2295.09736	0.02510
2293.81159	0.02454
2292.52582	0.02408
2291.24005	0.02391
2289.95428	0.02413
2288.66851	0.02464
2287.38274	0.02528
2286.09697	0.02587
2284.81121	0.02622
2283.52544	0.02621
2282.23967	0.02582
2280.95390	0.02518
2279.66813	0.02453
2278.38236	0.02408
2277.09659	0.02389
2275.81082	0.02383
2274.52505	0.02369
2273.23929	0.02339
2271.95352	0.02302
2270.66775	0.02277
2269.38198	0.02269
2268.09621	0.02271
2266.81044	0.02283
2265.52467	0.02306
2264.23890	0.02332
2262.95314	0.02339
2261.66737	0.02311
2260.38160	0.02252
2259.09583	0.02191
2257.81006	0.02160
2256.52429	0.02156
2255.23852	0.02152
2253.95275	0.02128
2252.66698	0.02088
2251.38122	0.02055
2250.09545	0.02071
2248.80968	0.02139
2247.52391	0.02151
2246.23814	0.02162
2244.95237	0.02180
2243.66660	0.02189
2242.38083	0.02154
2241.09507	0.02069
2239.80930	0.01984
2238.52353	0.01966
2237.23776	0.02030
2235.95199	0.02120
2234.66622	0.02170
2233.38045	0.02156
2232.09468	0.02092
2230.80891	0.02001
2229.52315	0.01903
2228.23738	0.01814
2226.95161	0.01745
2225.66584	0.01699
2224.38007	0.01686
2223.09430	0.01712
2221.80853	0.01761
2220.52276	0.01799
2219.23700	0.01805
2217.95123	0.01790
2216.66546	0.01777
2215.37969	0.01771
2214.09392	0.01761
2212.80815	0.01738
2211.52238	0.01717
2210.23661	0.01718
2208.95084	0.01740
2207.66508	0.01763
2206.37931	0.01786
2205.09354	0.01821
2203.80777	0.01862
2202.52200	0.01865
2201.23623	0.01806
2199.95046	0.01712
2198.66469	0.01629
2197.37893	0.01566
2196.09316	0.01510
2194.80739	0.01460
2193.52162	0.01436
2192.23585	0.01438
2190.95008	0.01443
2189.66431	0.01426
2188.37854	0.01397
2187.09277	0.01395
2185.80701	0.01437
2184.52124	0.01489
2183.23547	0.01501
2181.94970	0.01475
2180.66393	0.01462
2179.37816	0.01490
2178.09239	0.01519
2176.80662	0.01484
2175.52085	0.01375
2174.23509	0.01246
2172.94932	0.01148
2171.66355	0.01083
2170.37778	0.01028
2169.09201	0.00991
2167.80624	0.01001
2166.52047	0.01071
2165.23470	0.01179
2163.94894	0.01285
2162.66317	0.01337
2161.37740	0.01271
2160.09163	0.01070
2158.80586	0.00828
2157.52009	0.00692
2156.23432	0.00719
2154.94855	0.00843
2153.66278	0.00967
2152.37702	0.01043
2151.09125	0.01060
2149.80548	0.01021
2148.51971	0.00940
2147.23394	0.00850
2145.94817	0.00794
2144.66240	0.00812
2143.37663	0.00912
2142.09087	0.01060
2140.80510	0.01204
2139.51933	0.01314
2138.23356	0.01406
2136.94779	0.01495
2135.66202	0.01566
2134.37625	0.01586
2133.09048	0.01547
2131.80471	0.01478
2130.51895	0.01419
2129.23318	0.01396
2127.94741	0.01418
2126.66164	0.01491
2125.37587	0.01595
2124.09010	0.01682
2122.80433	0.01711
2121.51856	0.01692
2120.23280	0.01669
2118.94703	0.01664
2117.66126	0.01654
2116.37549	0.01614
2115.08972	0.01558
2113.80395	0.01521
2112.51818	0.01519
2111.23241	0.01530
2109.94664	0.01520
2108.66088	0.01473
2107.37511	0.01415
2106.08934	0.01386
2104.80357	0.01407
2103.51780	0.01464
2102.23203	0.01526
2100.94626	0.01577
2099.66049	0.01662
2098.37473	0.01715
2097.08896	0.01726
2095.80319	0.01700
2094.51742	0.01652
2093.23165	0.01612
2091.94588	0.01596
2090.66011	0.01593
2089.37434	0.01579
2088.08857	0.01549
2086.80281	0.01506
2085.51704	0.01458
2084.23127	0.01414
2082.94550	0.01388
2081.65973	0.01394
2080.37396	0.01432
2079.08819	0.01492
2077.80242	0.01548
2076.51666	0.01572
2075.23089	0.01553
2073.94512	0.01510
2072.65935	0.01466
2071.37358	0.01428
2070.08781	0.01390
2068.80204	0.01349
2067.51627	0.01296
2066.23050	0.01222
2064.94474	0.01140
2063.65897	0.01094
2062.37320	0.01118
2061.08743	0.01198
2059.80166	0.01280
2058.51589	0.01311
2057.23012	0.01273
2055.94435	0.01190
2054.65859	0.01113
2053.37282	0.01087
2052.08705	0.01116
2050.80128	0.01162
2049.51551	0.01166
2048.22974	0.01090
2046.94397	0.00946
2045.65820	0.00793
2044.37243	0.00700
2043.08667	0.00696
2041.80090	0.00753
2040.51513	0.00813
2039.22936	0.00849
2037.94359	0.00879
2036.65782	0.00935
2035.37205	0.01013
2034.08628	0.01062
2032.80052	0.01027
2031.51475	0.00897
2030.22898	0.00725
2028.94321	0.00607
2027.65744	0.00600
2026.37167	0.00673
2025.08590	0.00755
2023.80013	0.00821
2022.51436	0.00890
2021.22860	0.00957
2019.94283	0.00975
2018.65706	0.00923
2017.37129	0.00848
2016.08552	0.00820
2014.79975	0.00848
2013.51398	0.00890
2012.22821	0.00904
2010.94245	0.00891
2009.65668	0.00877
2008.37091	0.00888
2007.08514	0.00935
2005.79937	0.01001
2004.51360	0.01064
2003.22783	0.01115
2001.94206	0.01161
2000.65629	0.01203
1999.37053	0.01237
1998.08476	0.01267
1996.79899	0.01299
1995.51322	0.01319
1994.22745	0.01299
1992.94168	0.01235
1991.65591	0.01161
1990.37014	0.01118
1989.08438	0.01122
1987.79861	0.01146
1986.51284	0.01162
1985.22707	0.01176
1983.94130	0.01220
1982.65553	0.01304
1981.36976	0.01391
1980.08399	0.01429
1978.79822	0.01399
1977.51246	0.01321
1976.22669	0.01228
1974.94092	0.01140
1973.65515	0.01061
1972.36938	0.00987
1971.08361	0.00915
1969.79784	0.00859
1968.51207	0.00836
1967.22631	0.00850
1965.94054	0.00886
1964.65477	0.00933
1963.36900	0.00983
1962.08323	0.01031
1960.79746	0.01073
1959.51169	0.01112
1958.22592	0.01152
1956.94015	0.01184
1955.65439	0.01189
1954.36862	0.01163
1953.08285	0.01127
1951.79708	0.01111
1950.51131	0.01126
1949.22554	0.01161
1947.93977	0.01206
1946.65400	0.01259
1945.36823	0.01317
1944.08247	0.01373
1942.79670	0.01424
1941.51093	0.01468
1940.22516	0.01494
1938.93939	0.01491
1937.65362	0.01465
1936.36785	0.01440
1935.08208	0.01431
1933.79632	0.01423
1932.51055	0.01398
1931.22478	0.01366
1929.93901	0.01359
1928.65324	0.01393
1927.36747	0.01449
1926.08170	0.01502
1924.79593	0.01546
1923.51016	0.01586
1922.22440	0.01613
1920.93863	0.01615
1919.65286	0.01592
1918.36709	0.01566
1917.08132	0.01555
1915.79555	0.01565
1914.50978	0.01589
1913.22401	0.01618
1911.93825	0.01643
1910.65248	0.01657
1909.36671	0.01654
1908.08094	0.01632
1906.79517	0.01603
1905.50940	0.01585
1904.22363	0.01595
1902.93786	0.01624
1901.65209	0.01648
1900.36633	0.01650
1899.08056	0.01631
1897.79479	0.01604
1896.50902	0.01579
1895.22325	0.01563
1893.93748	0.01564
1892.65171	0.01584
1891.36594	0.01614
1890.08018	0.01638
1888.79441	0.01643
1887.50864	0.01632
1886.22287	0.01616
1884.93710	0.01603
1883.65133	0.01588
1882.36556	0.01570
1881.07979	0.01556
1879.79402	0.01558
1878.50826	0.01581
1877.22249	0.01616
1875.93672	0.01643
1874.65095	0.01652
1873.36518	0.01640
1872.07941	0.01618
1870.79364	0.01600
1869.50787	0.01594
1868.22211	0.01602
1866.93634	0.01615
1865.65057	0.01621
1864.36480	0.01616
1863.07903	0.01604
1861.79326	0.01595
1860.50749	0.01596
1859.22172	0.01608
1857.93595	0.01627
1856.65019	0.01648
1855.36442	0.01663
1854.07865	0.01667
1852.79288	0.01658
1851.50711	0.01641
1850.22134	0.01628
1848.93557	0.01627
1847.64980	0.01638
1846.36404	0.01654
1845.07827	0.01666
1843.79250	0.01670
1842.50673	0.01667
1841.22096	0.01661
1839.93519	0.01654
1838.64942	0.01645
1837.36365	0.01632
1836.07788	0.01621
1834.79212	0.01621
1833.50635	0.01634
1832.22058	0.01653
1830.93481	0.01666
1829.64904	0.01671
1828.36327	0.01677
1827.07750	0.01693
1825.79173	0.01715
1824.50597	0.01731
1823.22020	0.01731
1821.93443	0.01717
1820.64866	0.01698
1819.36289	0.01684
1818.07712	0.01680
1816.79135	0.01686
1815.50558	0.01696
1814.21981	0.01702
1812.93405	0.01700
1811.64828	0.01691
1810.36251	0.01683
1809.07674	0.01680
1807.79097	0.01684
1806.50520	0.01688
1805.21943	0.01689
1803.93366	0.01686
1802.64790	0.01687
1801.36213	0.01696
1800.07636	0.01712
1798.79059	0.01726
1797.50482	0.01732
1796.21905	0.01733
1794.93328	0.01738
1793.64751	0.01747
1792.36174	0.01755
1791.07598	0.01757
1789.79021	0.01752
1788.50444	0.01740
1787.21867	0.01725
1785.93290	0.01709
1784.64713	0.01698
1783.36136	0.01700
1782.07559	0.01717
1780.78983	0.01738
1779.50406	0.01753
1778.21829	0.01758
1776.93252	0.01759
1775.64675	0.01762
1774.36098	0.01765
1773.07521	0.01767
1771.78944	0.01765
1770.50367	0.01761
1769.21791	0.01755
1767.93214	0.01749
1766.64637	0.01747
1765.36060	0.01755
1764.07483	0.01772
1762.78906	0.01791
1761.50329	0.01806
1760.21752	0.01813
1758.93176	0.01811
1757.64599	0.01804
1756.36022	0.01795
1755.07445	0.01791
1753.78868	0.01789
1752.50291	0.01785
1751.21714	0.01776
1749.93137	0.01765
1748.64560	0.01760
1747.35984	0.01765
1746.07407	0.01781
1744.78830	0.01801
1743.50253	0.01820
1742.21676	0.01835
1740.93099	0.01846
1739.64522	0.01856
1738.35945	0.01865
1737.07369	0.01873
1735.78792	0.01884
1734.50215	0.01898
1733.21638	0.01914
1731.93061	0.01923
1730.64484	0.01924
1729.35907	0.01919
1728.07330	0.01913
1726.78753	0.01910
1725.50177	0.01913
1724.21600	0.01922
1722.93023	0.01938
1721.64446	0.01958
1720.35869	0.01977
1719.07292	0.01994
1717.78715	0.02007
1716.50138	0.02019
1715.21561	0.02033
1713.92985	0.02049
1712.64408	0.02069
1711.35831	0.02094
1710.07254	0.02123
1708.78677	0.02154
1707.50100	0.02184
1706.21523	0.02206
1704.92946	0.02222
1703.64370	0.02236
1702.35793	0.02255
1701.07216	0.02280
1699.78639	0.02304
1698.50062	0.02326
1697.21485	0.02344
1695.92908	0.02362
1694.64331	0.02375
1693.35754	0.02382
1692.07178	0.02383
1690.78601	0.02382
1689.50024	0.02387
1688.21447	0.02400
1686.92870	0.02419
1685.64293	0.02439
1684.35716	0.02454
1683.07139	0.02461
1681.78563	0.02462
1680.49986	0.02463
1679.21409	0.02471
1677.92832	0.02484
1676.64255	0.02500
1675.35678	0.02517
1674.07101	0.02535
1672.78524	0.02554
1671.49947	0.02573
1670.21371	0.02593
1668.92794	0.02614
1667.64217	0.02635
1666.35640	0.02659
1665.07063	0.02681
1663.78486	0.02701
1662.49909	0.02713
1661.21332	0.02720
1659.92756	0.02727
1658.64179	0.02739
1657.35602	0.02759
1656.07025	0.02781
1654.78448	0.02797
1653.49871	0.02804
1652.21294	0.02804
1650.92717	0.02802
1649.64140	0.02803
1648.35564	0.02811
1647.06987	0.02822
1645.78410	0.02833
1644.49833	0.02841
1643.21256	0.02844
1641.92679	0.02845
1640.64102	0.02848
1639.35525	0.02856
1638.06949	0.02866
1636.78372	0.02871
1635.49795	0.02867
1634.21218	0.02857
1632.92641	0.02851
1631.64064	0.02856
1630.35487	0.02870
1629.06910	0.02886
1627.78333	0.02898
1626.49757	0.02906
1625.21180	0.02912
1623.92603	0.02917
1622.64026	0.02920
1621.35449	0.02922
1620.06872	0.02927
1618.78295	0.02939
1617.49718	0.02953
1616.21142	0.02965
1614.92565	0.02974
1613.63988	0.02983
1612.35411	0.02995
1611.06834	0.03008
1609.78257	0.03020
1608.49680	0.03028
1607.21103	0.03037
1605.92526	0.03049
1604.63950	0.03063
1603.35373	0.03077
1602.06796	0.03090
1600.78219	0.03102
1599.49642	0.03114
1598.21065	0.03126
1596.92488	0.03140
1595.63911	0.03154
1594.35335	0.03169
1593.06758	0.03187
1591.78181	0.03207
1590.49604	0.03229
1589.21027	0.03250
1587.92450	0.03267
1586.63873	0.03279
1585.35296	0.03291
1584.06719	0.03305
1582.78143	0.03326
1581.49566	0.03353
1580.20989	0.03384
1578.92412	0.03415
1577.63835	0.03441
1576.35258	0.03464
1575.06681	0.03489
1573.78104	0.03517
1572.49528	0.03549
1571.20951	0.03582
1569.92374	0.03613
1568.63797	0.03641
1567.35220	0.03670
1566.06643	0.03699
1564.78066	0.03729
1563.49489	0.03756
1562.20912	0.03783
1560.92336	0.03811
1559.63759	0.03841
1558.35182	0.03869
1557.06605	0.03891
1555.78028	0.03910
1554.49451	0.03930
1553.20874	0.03954
1551.92297	0.03978
1550.63721	0.03995
1549.35144	0.04007
1548.06567	0.04015
1546.77990	0.04025
1545.49413	0.04036
1544.20836	0.04043
1542.92259	0.04044
1541.63682	0.04038
1540.35105	0.04028
1539.06529	0.04013
1537.77952	0.03994
1536.49375	0.03977
1535.20798	0.03967
1533.92221	0.03966
1532.63644	0.03971
1531.35067	0.03977
1530.06490	0.03984
1528.77914	0.03994
1527.49337	0.04012
1526.20760	0.04039
1524.92183	0.04074
1523.63606	0.04115
1522.35029	0.04159
1521.06452	0.04201
1519.77875	0.04242
1518.49298	0.04283
1517.20722	0.04331
1515.92145	0.04386
1514.63568	0.04446
1513.34991	0.04511
1512.06414	0.04579
1510.77837	0.04654
1509.49260	0.04737
1508.20683	0.04826
1506.92107	0.04913
1505.63530	0.04993
1504.34953	0.05064
1503.06376	0.05130
1501.77799	0.05195
1500.49222	0.05259
1499.20645	0.05317
1497.92068	0.05366
1496.63491	0.05407
1495.34915	0.05446
1494.06338	0.05487
1492.77761	0.05533
1491.49184	0.05583
1490.20607	0.05634
1488.92030	0.05685
1487.63453	0.05737
1486.34876	0.05795
1485.06299	0.05863
1483.77723	0.05937
1482.49146	0.06014
1481.20569	0.06093
1479.91992	0.06174
1478.63415	0.06259
1477.34838	0.06348
1476.06261	0.06438
1474.77684	0.06526
1473.49108	0.06610
1472.20531	0.06692
1470.91954	0.06775
1469.63377	0.06860
1468.34800	0.06945
1467.06223	0.07029
1465.77646	0.07107
1464.49069	0.07176
1463.20492	0.07236
1461.91916	0.07293
1460.63339	0.07352
1459.34762	0.07418
1458.06185	0.07485
1456.77608	0.07545
1455.49031	0.07594
1454.20454	0.07634
1452.91877	0.07669
1451.63301	0.07698
1450.34724	0.07717
1449.06147	0.07724
1447.77570	0.07718
1446.48993	0.07704
1445.20416	0.07682
1443.91839	0.07654
1442.63262	0.07621
1441.34685	0.07586
1440.06109	0.07550
1438.77532	0.07520
1437.48955	0.07500
1436.20378	0.07491
1434.91801	0.07498
1433.63224	0.07521
1432.34647	0.07560
1431.06070	0.07614
1429.77494	0.07680
1428.48917	0.07755
1427.20340	0.07837
1425.91763	0.07923
1424.63186	0.08017
1423.34609	0.08115
1422.06032	0.08217
1420.77455	0.08317
1419.48878	0.08411
1418.20302	0.08497
1416.91725	0.08569
1415.63148	0.08620
1414.34571	0.08650
1413.05994	0.08663
1411.77417	0.08664
1410.48840	0.08655
1409.20263	0.08633
1407.91687	0.08595
1406.63110	0.08540
1405.34533	0.08468
1404.05956	0.08385
1402.77379	0.08292
1401.48802	0.08189
1400.20225	0.08072
1398.91648	0.07942
1397.63071	0.07806
1396.34495	0.07671
1395.05918	0.07537
1393.77341	0.07401
1392.48764	0.07258
1391.20187	0.07114
1389.91610	0.06973
1388.63033	0.06840
1387.34456	0.06715
1386.05880	0.06601
1384.77303	0.06496
1383.48726	0.06397
1382.20149	0.06302
1380.91572	0.06209
1379.62995	0.06115
1378.34418	0.06018
1377.05841	0.05913
1375.77264	0.05796
1374.48688	0.05662
1373.20111	0.05512
1371.91534	0.05349
1370.62957	0.05178
1369.34380	0.05012
1368.05803	0.04860
1366.77226	0.04728
1365.48649	0.04612
1364.20073	0.04503
1362.91496	0.04390
1361.62919	0.04270
1360.34342	0.04149
1359.05765	0.04039
1357.77188	0.03946
1356.48611	0.03868
1355.20034	0.03797
1353.91457	0.03729
1352.62881	0.03664
1351.34304	0.03603
1350.05727	0.03543
1348.77150	0.03485
1347.48573	0.03429
1346.19996	0.03376
1344.91419	0.03325
1343.62842	0.03276
1342.34266	0.03228
1341.05689	0.03185
1339.77112	0.03148
1338.48535	0.03115
1337.19958	0.03083
1335.91381	0.03052
1334.62804	0.03023
1333.34227	0.02997
1332.05650	0.02973
1330.77074	0.02949
1329.48497	0.02924
1328.19920	0.02902
1326.91343	0.02885
1325.62766	0.02874
1324.34189	0.02865
1323.05612	0.02852
1321.77035	0.02831
1320.48459	0.02805
1319.19882	0.02778
1317.91305	0.02753
1316.62728	0.02731
1315.34151	0.02711
1314.05574	0.02694
1312.76997	0.02680
1311.48420	0.02669
1310.19843	0.02659
1308.91267	0.02648
1307.62690	0.02635
1306.34113	0.02620
1305.05536	0.02603
1303.76959	0.02584
1302.48382	0.02564
1301.19805	0.02543
1299.91228	0.02523
1298.62652	0.02504
1297.34075	0.02487
1296.05498	0.02471
1294.76921	0.02457
1293.48344	0.02445
1292.19767	0.02433
1290.91190	0.02420
1289.62613	0.02407
1288.34036	0.02392
1287.05460	0.02374
1285.76883	0.02352
1284.48306	0.02328
1283.19729	0.02305
1281.91152	0.02286
1280.62575	0.02271
1279.33998	0.02262
1278.05421	0.02257
1276.76845	0.02253
1275.48268	0.02246
1274.19691	0.02235
1272.91114	0.02222
1271.62537	0.02207
1270.33960	0.02193
1269.05383	0.02179
1267.76806	0.02166
1266.48229	0.02156
1265.19653	0.02148
1263.91076	0.02140
1262.62499	0.02128
1261.33922	0.02112
1260.05345	0.02094
1258.76768	0.02077
1257.48191	0.02063
1256.19614	0.02053
1254.91037	0.02046
1253.62461	0.02042
1252.33884	0.02037
1251.05307	0.02029
1249.76730	0.02021
1248.48153	0.02015
1247.19576	0.02013
1245.90999	0.02012
1244.62422	0.02009
1243.33846	0.02000
1242.05269	0.01989
1240.76692	0.01977
1239.48115	0.01967
1238.19538	0.01957
1236.90961	0.01948
1235.62384	0.01939
1234.33807	0.01931
1233.05230	0.01924
1231.76654	0.01915
1230.48077	0.01904
1229.19500	0.01890
1227.90923	0.01875
1226.62346	0.01860
1225.33769	0.01845
1224.05192	0.01835
1222.76615	0.01832
1221.48039	0.01835
1220.19462	0.01837
1218.90885	0.01835
1217.62308	0.01829
1216.33731	0.01821
1215.05154	0.01815
1213.76577	0.01814
1212.48000	0.01813
1211.19423	0.01810
1209.90847	0.01801
1208.62270	0.01789
1207.33693	0.01777
1206.05116	0.01768
1204.76539	0.01761
1203.47962	0.01759
1202.19385	0.01761
1200.90808	0.01762
1199.62232	0.01757
1198.33655	0.01753
1197.05078	0.01746
1195.76501	0.01740
1194.47924	0.01736
1193.19347	0.01735
1191.90770	0.01736
1190.62193	0.01734
1189.33616	0.01725
1188.05040	0.01710
1186.76463	0.01696
1185.47886	0.01693
1184.19309	0.01700
1182.90732	0.01711
1181.62155	0.01716
1180.33578	0.01713
1179.05001	0.01708
1177.76425	0.01707
1176.47848	0.01708
1175.19271	0.01707
1173.90694	0.01704
1172.62117	0.01701
1171.33540	0.01703
1170.04963	0.01710
1168.76386	0.01721
1167.47809	0.01734
1166.19233	0.01747
1164.90656	0.01758
1163.62079	0.01768
1162.33502	0.01778
1161.04925	0.01789
1159.76348	0.01806
1158.47771	0.01828
1157.19194	0.01850
1155.90618	0.01868
1154.62041	0.01882
1153.33464	0.01892
1152.04887	0.01906
1150.76310	0.01926
1149.47733	0.01954
1148.19156	0.01986
1146.90579	0.02024
1145.62002	0.02071
1144.33426	0.02127
1143.04849	0.02187
1141.76272	0.02244
1140.47695	0.02296
1139.19118	0.02351
1137.90541	0.02416
1136.61964	0.02495
1135.33387	0.02586
1134.04811	0.02687
1132.76234	0.02799
1131.47657	0.02929
1130.19080	0.03079
1128.90503	0.03250
1127.61926	0.03438
1126.33349	0.03639
1125.04772	0.03854
1123.76195	0.04085
1122.47619	0.04328
1121.19042	0.04575
1119.90465	0.04822
1118.61888	0.05067
1117.33311	0.05312
1116.04734	0.05557
1114.76157	0.05800
1113.47580	0.06039
1112.19004	0.06270
1110.90427	0.06492
1109.61850	0.06706
1108.33273	0.06915
1107.04696	0.07116
1105.76119	0.07304
1104.47542	0.07476
1103.18965	0.07635
1101.90388	0.07792
1100.61812	0.07952
1099.33235	0.08110
1098.04658	0.08258
1096.76081	0.08384
1095.47504	0.08490
1094.18927	0.08586
1092.90350	0.08682
1091.61773	0.08778
1090.33197	0.08868
1089.04620	0.08948
1087.76043	0.09025
1086.47466	0.09108
1085.18889	0.09203
1083.90312	0.09307
1082.61735	0.09416
1081.33158	0.09529
1080.04581	0.09647
1078.76005	0.09773
1077.47428	0.09907
1076.18851	0.10053
1074.90274	0.10208
1073.61697	0.10369
1072.33120	0.10531
1071.04543	0.10691
1069.75966	0.10852
1068.47390	0.11016
1067.18813	0.11188
1065.90236	0.11370
1064.61659	0.11555
1063.33082	0.11741
1062.04505	0.11926
1060.75928	0.12111
1059.47351	0.12295
1058.18774	0.12477
1056.90198	0.12658
1055.61621	0.12841
1054.33044	0.13025
1053.04467	0.13208
1051.75890	0.13392
1050.47313	0.13578
1049.18736	0.13770
1047.90159	0.13965
1046.61583	0.14164
1045.33006	0.14370
1044.04429	0.14585
1042.75852	0.14812
1041.47275	0.15043
1040.18698	0.15269
1038.90121	0.15487
1037.61544	0.15705
1036.32967	0.15932
1035.04391	0.16164
1033.75814	0.16385
1032.47237	0.16580
1031.18660	0.16744
1029.90083	0.16887
1028.61506	0.17021
1027.32929	0.17150
1026.04352	0.17268
1024.75775	0.17370
1023.47199	0.17454
1022.18622	0.17517
1020.90045	0.17561
1019.61468	0.17581
1018.32891	0.17576
1017.04314	0.17547
1015.75737	0.17492
1014.47160	0.17415
1013.18584	0.17317
1011.90007	0.17199
1010.61430	0.17057
1009.32853	0.16886
1008.04276	0.16687
1006.75699	0.16462
1005.47122	0.16213
1004.18545	0.15943
1002.89968	0.15652
1001.61392	0.15345
1000.32815	0.15022
999.04238	0.14689
997.75661	0.14350
996.47084	0.14008
995.18507	0.13659
993.89930	0.13298
992.61353	0.12926
991.32777	0.12550
990.04200	0.12182
988.75623	0.11826
987.47046	0.11481
986.18469	0.11146
984.89892	0.10822
983.61315	0.10519
982.32738	0.10237
981.04161	0.09970
979.75585	0.09710
978.47008	0.09456
977.18431	0.09214
975.89854	0.08997
974.61277	0.08809
973.32700	0.08647
972.04123	0.08509
970.75546	0.08398
969.46970	0.08318
968.18393	0.08272
966.89816	0.08261
965.61239	0.08283
964.32662	0.08326
963.04085	0.08371
961.75508	0.08400
960.46931	0.08400
959.18354	0.08363
957.89778	0.08281
956.61201	0.08160
955.32624	0.08015
954.04047	0.07862
952.75470	0.07708
951.46893	0.07552
950.18316	0.07392
948.89739	0.07233
947.61163	0.07079
946.32586	0.06933
945.04009	0.06791
943.75432	0.06654
942.46855	0.06523
941.18278	0.06395
939.89701	0.06266
938.61124	0.06137
937.32547	0.06012
936.03971	0.05898
934.75394	0.05795
933.46817	0.05701
932.18240	0.05612
930.89663	0.05528
929.61086	0.05448
928.32509	0.05369
927.03932	0.05292
925.75356	0.05221
924.46779	0.05156
923.18202	0.05096
921.89625	0.05040
920.61048	0.04990
919.32471	0.04944
918.03894	0.04898
916.75317	0.04847
915.46740	0.04794
914.18164	0.04743
912.89587	0.04696
911.61010	0.04654
910.32433	0.04614
909.03856	0.04579
907.75279	0.04545
906.46702	0.04510
905.18125	0.04474
903.89549	0.04438
902.60972	0.04401
901.32395	0.04361
900.03818	0.04320
898.75241	0.04284
897.46664	0.04255
896.18087	0.04236
894.89510	0.04224
893.60933	0.04216
892.32357	0.04207
891.03780	0.04194
889.75203	0.04181
888.46626	0.04176
887.18049	0.04195
885.89472	0.04257
884.60895	0.04378
883.32318	0.04556
882.03742	0.04760
880.75165	0.04954
879.46588	0.05110
878.18011	0.05228
876.89434	0.05328
875.60857	0.05435
874.32280	0.05551
873.03703	0.05650
871.75126	0.05700
870.46550	0.05684
869.17973	0.05613
867.89396	0.05507
866.60819	0.05380
865.32242	0.05238
864.03665	0.05084
862.75088	0.04923
861.46511	0.04769
860.17935	0.04633
858.89358	0.04519
857.60781	0.04423
856.32204	0.04339
855.03627	0.04260
853.75050	0.04189
852.46473	0.04131
851.17896	0.04089
849.89319	0.04058
848.60743	0.04028
847.32166	0.03993
846.03589	0.03952
844.75012	0.03913
843.46435	0.03877
842.17858	0.03843
840.89281	0.03810
839.60704	0.03777
838.32128	0.03745
837.03551	0.03715
835.74974	0.03687
834.46397	0.03662
833.17820	0.03637
831.89243	0.03610
830.60666	0.03583
829.32089	0.03562
828.03512	0.03547
826.74936	0.03539
825.46359	0.03534
824.17782	0.03530
822.89205	0.03527
821.60628	0.03522
820.32051	0.03514
819.03474	0.03512
817.74897	0.03522
816.46321	0.03542
815.17744	0.03555
813.89167	0.03548
812.60590	0.03522
811.32013	0.03490
810.03436	0.03462
808.74859	0.03445
807.46282	0.03437
806.17705	0.03432
804.89129	0.03425
803.60552	0.03417
802.31975	0.03410
801.03398	0.03404
799.74821	0.03399
798.46244	0.03392
797.17667	0.03383
795.89090	0.03373
794.60513	0.03361
793.31937	0.03346
792.03360	0.03331
790.74783	0.03321
789.46206	0.03317
788.17629	0.03314
786.89052	0.03304
785.60475	0.03285
784.31898	0.03264
783.03322	0.03250
781.74745	0.03248
780.46168	0.03249
779.17591	0.03247
777.89014	0.03237
776.60437	0.03223
775.31860	0.03211
774.03283	0.03205
772.74706	0.03202
771.46130	0.03198
770.17553	0.03190
768.88976	0.03177
767.60399	0.03162
766.31822	0.03149
765.03245	0.03144
763.74668	0.03150
762.46091	0.03159
761.17515	0.03162
759.88938	0.03154
758.60361	0.03142
757.31784	0.03135
756.03207	0.03138
754.74630	0.03147
753.46053	0.03158
752.17476	0.03168
750.88899	0.03172
749.60323	0.03171
748.31746	0.03165
747.03169	0.03158
745.74592	0.03157
744.46015	0.03164
743.17438	0.03172
741.88861	0.03170
740.60284	0.03152
739.31708	0.03124
738.03131	0.03100
736.74554	0.03086
735.45977	0.03075
734.17400	0.03062
732.88823	0.03049
731.60246	0.03045
730.31669	0.03048
729.03092	0.03055
727.74516	0.03066
726.45939	0.03075
725.17362	0.03073
723.88785	0.03039
722.60208	0.03030
721.31631	0.03042
720.03054	0.03058
718.74477	0.03072
717.45901	0.03075
716.17324	0.03062
714.88747	0.03036
713.60170	0.03001
712.31593	0.02967
711.03016	0.02938
709.74439	0.02917
708.45862	0.02901
707.17285	0.02885
705.88709	0.02869
704.60132	0.02858
703.31555	0.02852
702.02978	0.02848
700.74401	0.02842
699.45824	0.02839
698.17247	0.02840
696.88670	0.02847
695.60094	0.02858
694.31517	0.02868
693.02940	0.02871
691.74363	0.02865
690.45786	0.02852
689.17209	0.02838
687.88632	0.02822
686.60055	0.02803
685.31478	0.02779
684.02902	0.02753
682.74325	0.02730
681.45748	0.02712
680.17171	0.02699
678.88594	0.02690
677.60017	0.02683
676.31440	0.02675
675.02863	0.02667
673.74287	0.02658
672.45710	0.02654
671.17133	0.02658
669.88556	0.02669
668.59979	0.02670
667.31402	0.02667
666.02825	0.02676
664.74248	0.02665
663.45671	0.02648
662.17095	0.02633
660.88518	0.02616
659.59941	0.02597
658.31364	0.02576
657.02787	0.02557
655.74210	0.02540
654.45633	0.02525
653.17056	0.02513
651.88480	0.02505
650.59903	0.02501
649.31326	0.02497
648.02749	0.02487
646.74172	0.02472
645.45595	0.02459
644.17018	0.02456
642.88441	0.02460
641.59864	0.02466
640.31288	0.02473
639.02711	0.02479
637.74134	0.02488
636.45557	0.02501
635.16980	0.02521
633.88403	0.02546
632.59826	0.02571
631.31249	0.02599
630.02673	0.02654
628.74096	0.02726
627.45519	0.02723
626.16942	0.02812
624.88365	0.02967
623.59788	0.03140
622.31211	0.03346
621.02634	0.03597
619.74057	0.03845
618.45481	0.04017
617.16904	0.04085
615.88327	0.04097
614.59750	0.04146
613.31173	0.04315
612.02596	0.04639
610.74019	0.05091
609.45442	0.05593
608.16866	0.06060
606.88289	0.06437
605.59712	0.06716
604.31135	0.06917
603.02558	0.07056
601.73981	0.07114
600.45404	0.07065
599.16827	0.06911
597.88250	0.06694
596.59674	0.06463
595.31097	0.06252
594.02520	0.06076
592.73943	0.05937
591.45366	0.05836
590.16789	0.05769
588.88212	0.05729
587.59635	0.05715
586.31059	0.05738
585.02482	0.05806
583.73905	0.05917
582.45328	0.06060
581.16751	0.06215
579.88174	0.06370
578.59597	0.06521
577.31020	0.06669
576.02443	0.06817
574.73867	0.06967
573.45290	0.07119
572.16713	0.07275
570.88136	0.07439
569.59559	0.07613
568.30982	0.07806
567.02405	0.08030
565.73828	0.08281
564.45251	0.08534
563.16675	0.08745
561.88098	0.08876
560.59521	0.08907
559.30944	0.08836
558.02367	0.08663
556.73790	0.08401
555.45213	0.08072
554.16636	0.07713
552.88060	0.07358
551.59483	0.07025
550.30906	0.06718
549.02329	0.06433
547.73752	0.06169
546.45175	0.05930
545.16598	0.05713
543.88021	0.05514
542.59444	0.05330
541.30868	0.05157
540.02291	0.04997
538.73714	0.04850
537.45137	0.04721
536.16560	0.04611
534.87983	0.04513
533.59406	0.04421
532.30829	0.04326
531.02253	0.04223
529.73676	0.04117
528.45099	0.04015
527.16522	0.03927
525.87945	0.03859
524.59368	0.03805
523.30791	0.03750
522.02214	0.03685
520.73637	0.03607
519.45061	0.03530
518.16484	0.03463
516.87907	0.03412
515.59330	0.03372
514.30753	0.03331
513.02176	0.03280
511.73599	0.03227
510.45022	0.03183
509.16446	0.03153
507.87869	0.03125
506.59292	0.03088
505.30715	0.03042
504.02138	0.02997
502.73561	0.02961
501.44984	0.02935
500.16407	0.02913
498.87830	0.02886
497.59254	0.02852
496.30677	0.02815
495.02100	0.02781
493.73523	0.02754
492.44946	0.02732
491.16369	0.02712
489.87792	0.02695
488.59215	0.02680
487.30639	0.02667
486.02062	0.02657
484.73485	0.02652
483.44908	0.02656
482.16331	0.02670
480.87754	0.02693
479.59177	0.02721
478.30600	0.02747
477.02023	0.02770
475.73447	0.02796
474.44870	0.02828
473.16293	0.02862
471.87716	0.02889
470.59139	0.02897
469.30562	0.02886
468.01985	0.02864
466.73408	0.02843
465.44832	0.02829
464.16255	0.02815
462.87678	0.02792
461.59101	0.02760
460.30524	0.02726
459.01947	0.02696
457.73370	0.02671
456.44793	0.02645
455.16216	0.02614
453.87640	0.02578
452.59063	0.02545
451.30486	0.02518
450.01909	0.02495
448.73332	0.02476
447.44755	0.02461
446.16178	0.02450
444.87601	0.02444
443.59025	0.02439
442.30448	0.02434
441.01871	0.02424
439.73294	0.02409
438.44717	0.02392
437.16140	0.02377
435.87563	0.02366
434.58986	0.02361
433.30409	0.02360
432.01833	0.02360
430.73256	0.02361
429.44679	0.02360
428.16102	0.02355
426.87525	0.02346
425.58948	0.02334
424.30371	0.02323
423.01794	0.02312
421.73218	0.02300
420.44641	0.02283
419.16064	0.02262
417.87487	0.02243
416.58910	0.02227
415.30333	0.02214
414.01756	0.02203
412.73179	0.02193
411.44602	0.02182
410.16026	0.02176
408.87449	0.02176
407.58872	0.02182
406.30295	0.02186
405.01718	0.02185
403.73141	0.02181
402.44564	0.02179
401.15987	0.02183
399.87411	0.02192
