3997.45528	0.02351
3996.16951	0.02356
3994.88374	0.02332
3993.59798	0.02286
3992.31221	0.02252
3991.02644	0.02252
3989.74067	0.02275
3988.45490	0.02297
3987.16913	0.02300
3985.88336	0.02293
3984.59759	0.02288
3983.31183	0.02282
3982.02606	0.02255
3980.74029	0.02209
3979.45452	0.02177
3978.16875	0.02190
3976.88298	0.02235
3975.59721	0.02272
3974.31144	0.02282
3973.02567	0.02279
3971.73991	0.02288
3970.45414	0.02308
3969.16837	0.02325
3967.88260	0.02327
3966.59683	0.02319
3965.31106	0.02306
3964.02529	0.02295
3962.73952	0.02295
3961.45376	0.02319
3960.16799	0.02371
3958.88222	0.02428
3957.59645	0.02458
3956.31068	0.02452
3955.02491	0.02424
3953.73914	0.02393
3952.45337	0.02367
3951.16760	0.02347
3949.88184	0.02338
3948.59607	0.02347
3947.31030	0.02368
3946.02453	0.02388
3944.73876	0.02396
3943.45299	0.02394
3942.16722	0.02400
3940.88145	0.02423
3939.59569	0.02449
3938.30992	0.02449
3937.02415	0.02414
3935.73838	0.02369
3934.45261	0.02342
3933.16684	0.02338
3931.88107	0.02341
3930.59530	0.02337
3929.30953	0.02329
3928.02377	0.02321
3926.73800	0.02323
3925.45223	0.02346
3924.16646	0.02394
3922.88069	0.02452
3921.59492	0.02492
3920.30915	0.02493
3919.02338	0.02458
3917.73762	0.02408
3916.45185	0.02370
3915.16608	0.02364
3913.88031	0.02397
3912.59454	0.02447
3911.30877	0.02483
3910.02300	0.02484
3908.73723	0.02451
3907.45146	0.02403
3906.16570	0.02365
3904.87993	0.02356
3903.59416	0.02379
3902.30839	0.02425
3901.02262	0.02471
3899.73685	0.02488
3898.45108	0.02461
3897.16531	0.02409
3895.87955	0.02376
3894.59378	0.02389
3893.30801	0.02428
3892.02224	0.02449
3890.73647	0.02425
3889.45070	0.02387
3888.16493	0.02379
3886.87916	0.02391
3885.59339	0.02381
3884.30763	0.02347
3883.02186	0.02339
3881.73609	0.02382
3880.45032	0.02438
3879.16455	0.02461
3877.87878	0.02454
3876.59301	0.02452
3875.30724	0.02481
3874.02148	0.02541
3872.73571	0.02623
3871.44994	0.02700
3870.16417	0.02731
3868.87840	0.02708
3867.59263	0.02677
3866.30686	0.02663
3865.02109	0.02634
3863.73532	0.02569
3862.44956	0.02496
3861.16379	0.02447
3859.87802	0.02418
3858.59225	0.02394
3857.30648	0.02390
3856.02071	0.02433
3854.73494	0.02510
3853.44917	0.02576
3852.16341	0.02606
3850.87764	0.02612
3849.59187	0.02594
3848.30610	0.02539
3847.02033	0.02455
3845.73456	0.02379
3844.44879	0.02342
3843.16302	0.02344
3841.87725	0.02363
3840.59149	0.02384
3839.30572	0.02399
3838.01995	0.02397
3836.73418	0.02380
3835.44841	0.02376
3834.16264	0.02406
3832.87687	0.02451
3831.59110	0.02467
3830.30534	0.02436
3829.01957	0.02384
3827.73380	0.02355
3826.44803	0.02363
3825.16226	0.02392
3823.87649	0.02432
3822.59072	0.02466
3821.30495	0.02470
3820.01918	0.02440
3818.73342	0.02410
3817.44765	0.02414
3816.16188	0.02428
3814.87611	0.02430
3813.59034	0.02436
3812.30457	0.02461
3811.01880	0.02489
3809.73303	0.02506
3808.44726	0.02508
3807.16150	0.02475
3805.87573	0.02398
3804.58996	0.02323
3803.30419	0.02301
3802.01842	0.02320
3800.73265	0.02339
3799.44688	0.02361
3798.16111	0.02419
3796.87535	0.02492
3795.58958	0.02520
3794.30381	0.02481
3793.01804	0.02413
3791.73227	0.02365
3790.44650	0.02362
3789.16073	0.02393
3787.87496	0.02435
3786.58919	0.02477
3785.30343	0.02512
3784.01766	0.02524
3782.73189	0.02507
3781.44612	0.02471
3780.16035	0.02430
3778.87458	0.02390
3777.58881	0.02352
3776.30304	0.02315
3775.01728	0.02276
3773.73151	0.02240
3772.44574	0.02234
3771.15997	0.02269
3769.87420	0.02317
3768.58843	0.02340
3767.30266	0.02323
3766.01689	0.02273
3764.73112	0.02225
3763.44536	0.02231
3762.15959	0.02306
3760.87382	0.02391
3759.58805	0.02414
3758.30228	0.02370
3757.01651	0.02308
3755.73074	0.02273
3754.44497	0.02271
3753.15921	0.02270
3751.87344	0.02239
3750.58767	0.02185
3749.30190	0.02142
3748.01613	0.02153
3746.73036	0.02235
3745.44459	0.02338
3744.15882	0.02373
3742.87305	0.02326
3741.58729	0.02275
3740.30152	0.02257
3739.01575	0.02239
3737.72998	0.02193
3736.44421	0.02127
3735.15844	0.02075
3733.87267	0.02061
3732.58690	0.02079
3731.30114	0.02101
3730.01537	0.02115
3728.72960	0.02144
3727.44383	0.02198
3726.15806	0.02263
3724.87229	0.02322
3723.58652	0.02365
3722.30075	0.02383
3721.01498	0.02371
3719.72922	0.02328
3718.44345	0.02265
3717.15768	0.02203
3715.87191	0.02169
3714.58614	0.02178
3713.30037	0.02205
3712.01460	0.02211
3710.72883	0.02189
3709.44307	0.02180
3708.15730	0.02224
3706.87153	0.02314
3705.58576	0.02405
3704.29999	0.02454
3703.01422	0.02450
3701.72845	0.02417
3700.44268	0.02374
3699.15691	0.02327
3697.87115	0.02282
3696.58538	0.02244
3695.29961	0.02217
3694.01384	0.02207
3692.72807	0.02224
3691.44230	0.02251
3690.15653	0.02261
3688.87076	0.02244
3687.58500	0.02211
3686.29923	0.02191
3685.01346	0.02202
3683.72769	0.02223
3682.44192	0.02226
3681.15615	0.02215
3679.87038	0.02215
3678.58461	0.02246
3677.29884	0.02301
3676.01308	0.02326
3674.72731	0.02282
3673.44154	0.02213
3672.15577	0.02194
3670.87000	0.02228
3669.58423	0.02258
3668.29846	0.02262
3667.01269	0.02276
3665.72693	0.02320
3664.44116	0.02371
3663.15539	0.02391
3661.86962	0.02370
3660.58385	0.02340
3659.29808	0.02341
3658.01231	0.02372
3656.72654	0.02385
3655.44077	0.02345
3654.15501	0.02278
3652.86924	0.02241
3651.58347	0.02262
3650.29770	0.02326
3649.01193	0.02397
3647.72616	0.02447
3646.44039	0.02461
3645.15462	0.02447
3643.86886	0.02423
3642.58309	0.02410
3641.29732	0.02418
3640.01155	0.02447
3638.72578	0.02478
3637.44001	0.02496
3636.15424	0.02502
3634.86847	0.02507
3633.58270	0.02520
3632.29694	0.02552
3631.01117	0.02618
3629.72540	0.02706
3628.43963	0.02785
3627.15386	0.02841
3625.86809	0.02878
3624.58232	0.02880
3623.29655	0.02836
3622.01079	0.02777
3620.72502	0.02761
3619.43925	0.02801
3618.15348	0.02864
3616.86771	0.02915
3615.58194	0.02955
3614.29617	0.02998
3613.01040	0.03043
3611.72463	0.03079
3610.43887	0.03099
3609.15310	0.03112
3607.86733	0.03137
3606.58156	0.03173
3605.29579	0.03190
3604.01002	0.03153
3602.72425	0.03074
3601.43848	0.03011
3600.15272	0.03012
3598.86695	0.03075
3597.58118	0.03171
3596.29541	0.03267
3595.00964	0.03329
3593.72387	0.03322
3592.43810	0.03260
3591.15233	0.03207
3589.86656	0.03220
3588.58080	0.03295
3587.29503	0.03389
3586.00926	0.03454
3584.72349	0.03472
3583.43772	0.03444
3582.15195	0.03384
3580.86618	0.03311
3579.58041	0.03260
3578.29464	0.03256
3577.00888	0.03298
3575.72311	0.03369
3574.43734	0.03443
3573.15157	0.03494
3571.86580	0.03517
3570.58003	0.03530
3569.29426	0.03556
3568.00849	0.03590
3566.72273	0.03608
3565.43696	0.03605
3564.15119	0.03600
3562.86542	0.03603
3561.57965	0.03611
3560.29388	0.03623
3559.00811	0.03646
3557.72234	0.03681
3556.43657	0.03713
3555.15081	0.03729
3553.86504	0.03734
3552.57927	0.03743
3551.29350	0.03766
3550.00773	0.03796
3548.72196	0.03827
3547.43619	0.03854
3546.15042	0.03885
3544.86466	0.03933
3543.57889	0.04004
3542.29312	0.04088
3541.00735	0.04158
3539.72158	0.04191
3538.43581	0.04186
3537.15004	0.04160
3535.86427	0.04134
3534.57850	0.04120
3533.29274	0.04127
3532.00697	0.04159
3530.72120	0.04210
3529.43543	0.04267
3528.14966	0.04313
3526.86389	0.04332
3525.57812	0.04325
3524.29235	0.04311
3523.00659	0.04314
3521.72082	0.04341
3520.43505	0.04377
3519.14928	0.04401
3517.86351	0.04407
3516.57774	0.04408
3515.29197	0.04417
3514.00620	0.04437
3512.72043	0.04463
3511.43467	0.04491
3510.14890	0.04515
3508.86313	0.04525
3507.57736	0.04525
3506.29159	0.04528
3505.00582	0.04547
3503.72005	0.04577
3502.43428	0.04605
3501.14852	0.04632
3499.86275	0.04669
3498.57698	0.04710
3497.29121	0.04734
3496.00544	0.04730
3494.71967	0.04716
3493.43390	0.04720
3492.14813	0.04751
3490.86236	0.04795
3489.57660	0.04827
3488.29083	0.04832
3487.00506	0.04810
3485.71929	0.04778
3484.43352	0.04758
3483.14775	0.04759
3481.86198	0.04774
3480.57621	0.04796
3479.29045	0.04825
3478.00468	0.04865
3476.71891	0.04915
3475.43314	0.04965
3474.14737	0.04999
3472.86160	0.05001
3471.57583	0.04976
3470.29006	0.04952
3469.00429	0.04959
3467.71853	0.05003
3466.43276	0.05052
3465.14699	0.05068
3463.86122	0.05048
3462.57545	0.05030
3461.28968	0.05050
3460.00391	0.05111
3458.71814	0.05191
3457.43238	0.05261
3456.14661	0.05298
3454.86084	0.05285
3453.57507	0.05227
3452.28930	0.05162
3451.00353	0.05138
3449.71776	0.05175
3448.43199	0.05249
3447.14622	0.05312
3445.86046	0.05326
3444.57469	0.05290
3443.28892	0.05234
3442.00315	0.05191
3440.71738	0.05177
3439.43161	0.05181
3438.14584	0.05183
3436.86007	0.05176
3435.57431	0.05170
3434.28854	0.05184
3433.00277	0.05229
3431.71700	0.05288
3430.43123	0.05331
3429.14546	0.05344
3427.85969	0.05342
3426.57392	0.05348
3425.28815	0.05361
3424.00239	0.05362
3422.71662	0.05347
3421.43085	0.05334
3420.14508	0.05345
3418.85931	0.05373
3417.57354	0.05395
3416.28777	0.05397
3415.00200	0.05385
3413.71624	0.05378
3412.43047	0.05387
3411.14470	0.05415
3409.85893	0.05460
3408.57316	0.05510
3407.28739	0.05550
3406.00162	0.05566
3404.71585	0.05563
3403.43008	0.05561
3402.14432	0.05577
3400.85855	0.05603
3399.57278	0.05619
3398.28701	0.05610
3397.00124	0.05589
3395.71547	0.05581
3394.42970	0.05605
3393.14393	0.05655
3391.85817	0.05706
3390.57240	0.05738
3389.28663	0.05751
3388.00086	0.05756
3386.71509	0.05759
3385.42932	0.05762
3384.14355	0.05764
3382.85778	0.05765
3381.57201	0.05760
3380.28625	0.05745
3379.00048	0.05724
3377.71471	0.05714
3376.42894	0.05729
3375.14317	0.05765
3373.85740	0.05804
3372.57163	0.05825
3371.28586	0.05827
3370.00010	0.05823
3368.71433	0.05829
3367.42856	0.05843
3366.14279	0.05854
3364.85702	0.05858
3363.57125	0.05860
3362.28548	0.05874
3360.99971	0.05904
3359.71394	0.05947
3358.42818	0.05988
3357.14241	0.06010
3355.85664	0.06009
3354.57087	0.06003
3353.28510	0.06008
3351.99933	0.06028
3350.71356	0.06046
3349.42779	0.06043
3348.14202	0.06011
3346.85626	0.05954
3345.57049	0.05886
3344.28472	0.05822
3342.99895	0.05774
3341.71318	0.05759
3340.42741	0.05785
3339.14164	0.05842
3337.85587	0.05894
3336.57011	0.05906
3335.28434	0.05876
3333.99857	0.05834
3332.71280	0.05816
3331.42703	0.05838
3330.14126	0.05887
3328.85549	0.05929
3327.56972	0.05942
3326.28395	0.05927
3324.99819	0.05903
3323.71242	0.05884
3322.42665	0.05871
3321.14088	0.05868
3319.85511	0.05883
3318.56934	0.05918
3317.28357	0.05958
3315.99780	0.05991
3314.71204	0.06020
3313.42627	0.06058
3312.14050	0.06101
3310.85473	0.06128
3309.56896	0.06117
3308.28319	0.06069
3306.99742	0.06004
3305.71165	0.05953
3304.42588	0.05933
3303.14012	0.05938
3301.85435	0.05942
3300.56858	0.05926
3299.28281	0.05899
3297.99704	0.05891
3296.71127	0.05915
3295.42550	0.05956
3294.13973	0.05988
3292.85397	0.06001
3291.56820	0.06001
3290.28243	0.05998
3288.99666	0.05995
3287.71089	0.05988
3286.42512	0.05981
3285.13935	0.05980
3283.85358	0.05982
3282.56781	0.05974
3281.28205	0.05945
3279.99628	0.05904
3278.71051	0.05874
3277.42474	0.05873
3276.13897	0.05894
3274.85320	0.05912
3273.56743	0.05908
3272.28166	0.05893
3270.99590	0.05894
3269.71013	0.05916
3268.42436	0.05938
3267.13859	0.05938
3265.85282	0.05921
3264.56705	0.05906
3263.28128	0.05907
3261.99551	0.05921
3260.70974	0.05942
3259.42398	0.05965
3258.13821	0.05978
3256.85244	0.05969
3255.56667	0.05943
3254.28090	0.05920
3252.99513	0.05924
3251.70936	0.05956
3250.42359	0.05997
3249.13783	0.06016
3247.85206	0.06002
3246.56629	0.05964
3245.28052	0.05918
3243.99475	0.05880
3242.70898	0.05857
3241.42321	0.05844
3240.13744	0.05830
3238.85167	0.05808
3237.56591	0.05782
3236.28014	0.05765
3234.99437	0.05759
3233.70860	0.05760
3232.42283	0.05759
3231.13706	0.05755
3229.85129	0.05753
3228.56552	0.05763
3227.27976	0.05788
3225.99399	0.05817
3224.70822	0.05832
3223.42245	0.05820
3222.13668	0.05782
3220.85091	0.05728
3219.56514	0.05680
3218.27937	0.05653
3216.99360	0.05649
3215.70784	0.05654
3214.42207	0.05657
3213.13630	0.05659
3211.85053	0.05662
3210.56476	0.05667
3209.27899	0.05675
3207.99322	0.05692
3206.70745	0.05718
3205.42169	0.05742
3204.13592	0.05759
3202.85015	0.05770
3201.56438	0.05777
3200.27861	0.05770
3198.99284	0.05736
3197.70707	0.05679
3196.42130	0.05619
3195.13553	0.05582
3193.84977	0.05576
3192.56400	0.05586
3191.27823	0.05590
3189.99246	0.05584
3188.70669	0.05578
3187.42092	0.05585
3186.13515	0.05600
3184.84938	0.05609
3183.56362	0.05601
3182.27785	0.05581
3180.99208	0.05556
3179.70631	0.05524
3178.42054	0.05478
3177.13477	0.05422
3175.84900	0.05371
3174.56323	0.05341
3173.27746	0.05339
3171.99170	0.05364
3170.70593	0.05407
3169.42016	0.05448
3168.13439	0.05469
3166.84862	0.05462
3165.56285	0.05437
3164.27708	0.05408
3162.99131	0.05388
3161.70555	0.05380
3160.41978	0.05384
3159.13401	0.05386
3157.84824	0.05377
3156.56247	0.05358
3155.27670	0.05348
3153.99093	0.05365
3152.70516	0.05409
3151.41939	0.05462
3150.13363	0.05498
3148.84786	0.05503
3147.56209	0.05477
3146.27632	0.05433
3144.99055	0.05387
3143.70478	0.05354
3142.41901	0.05334
3141.13324	0.05321
3139.84748	0.05311
3138.56171	0.05311
3137.27594	0.05323
3135.99017	0.05341
3134.70440	0.05350
3133.41863	0.05340
3132.13286	0.05314
3130.84709	0.05282
3129.56132	0.05256
3128.27556	0.05238
3126.98979	0.05219
3125.70402	0.05194
3124.41825	0.05170
3123.13248	0.05157
3121.84671	0.05158
3120.56094	0.05171
3119.27517	0.05198
3117.98940	0.05242
3116.70364	0.05298
3115.41787	0.05342
3114.13210	0.05347
3112.84633	0.05309
3111.56056	0.05257
3110.27479	0.05219
3108.98902	0.05199
3107.70325	0.05182
3106.41749	0.05170
3105.13172	0.05176
3103.84595	0.05203
3102.56018	0.05232
3101.27441	0.05242
3099.98864	0.05229
3098.70287	0.05207
3097.41710	0.05189
3096.13133	0.05176
3094.84557	0.05161
3093.55980	0.05137
3092.27403	0.05109
3090.98826	0.05090
3089.70249	0.05091
3088.41672	0.05108
3087.13095	0.05121
3085.84518	0.05109
3084.55942	0.05075
3083.27365	0.05044
3081.98788	0.05039
3080.70211	0.05056
3079.41634	0.05074
3078.13057	0.05077
3076.84480	0.05069
3075.55903	0.05052
3074.27326	0.05026
3072.98750	0.04996
3071.70173	0.04978
3070.41596	0.04981
3069.13019	0.05004
3067.84442	0.05033
3066.55865	0.05058
3065.27288	0.05077
3063.98711	0.05089
3062.70135	0.05089
3061.41558	0.05071
3060.12981	0.05041
3058.84404	0.05011
3057.55827	0.04997
3056.27250	0.04997
3054.98673	0.05001
3053.70096	0.04994
3052.41519	0.04972
3051.12943	0.04944
3049.84366	0.04919
3048.55789	0.04901
3047.27212	0.04891
3045.98635	0.04888
3044.70058	0.04884
3043.41481	0.04869
3042.12904	0.04839
3040.84328	0.04804
3039.55751	0.04782
3038.27174	0.04781
3036.98597	0.04798
3035.70020	0.04823
3034.41443	0.04851
3033.12866	0.04879
3031.84289	0.04898
3030.55712	0.04893
3029.27136	0.04860
3027.98559	0.04814
3026.69982	0.04778
3025.41405	0.04761
3024.12828	0.04756
3022.84251	0.04754
3021.55674	0.04753
3020.27097	0.04756
3018.98521	0.04759
3017.69944	0.04756
3016.41367	0.04747
3015.12790	0.04737
3013.84213	0.04735
3012.55636	0.04737
3011.27059	0.04731
3009.98482	0.04713
3008.69905	0.04690
3007.41329	0.04677
3006.12752	0.04679
3004.84175	0.04685
3003.55598	0.04677
3002.27021	0.04650
3000.98444	0.04619
2999.69867	0.04601
2998.41290	0.04607
2997.12714	0.04623
2995.84137	0.04633
2994.55560	0.04628
2993.26983	0.04610
2991.98406	0.04589
2990.69829	0.04579
2989.41252	0.04588
2988.12675	0.04602
2986.84098	0.04606
2985.55522	0.04597
2984.26945	0.04589
2982.98368	0.04599
2981.69791	0.04632
2980.41214	0.04676
2979.12637	0.04717
2977.84060	0.04745
2976.55483	0.04764
2975.26907	0.04778
2973.98330	0.04795
2972.69753	0.04817
2971.41176	0.04838
2970.12599	0.04846
2968.84022	0.04837
2967.55445	0.04820
2966.26868	0.04818
2964.98291	0.04846
2963.69715	0.04902
2962.41138	0.04968
2961.12561	0.05018
2959.83984	0.05041
2958.55407	0.05044
2957.26830	0.05042
2955.98253	0.05049
2954.69676	0.05072
2953.41100	0.05115
2952.12523	0.05172
2950.83946	0.05219
2949.55369	0.05232
2948.26792	0.05209
2946.98215	0.05172
2945.69638	0.05146
2944.41061	0.05137
2943.12484	0.05130
2941.83908	0.05111
2940.55331	0.05083
2939.26754	0.05061
2937.98177	0.05060
2936.69600	0.05091
2935.41023	0.05145
2934.12446	0.05203
2932.83869	0.05253
2931.55293	0.05291
2930.26716	0.05316
2928.98139	0.05325
2927.69562	0.05322
2926.40985	0.05312
2925.12408	0.05298
2923.83831	0.05277
2922.55254	0.05245
2921.26677	0.05207
2919.98101	0.05168
2918.69524	0.05131
2917.40947	0.05098
2916.12370	0.05074
2914.83793	0.05061
2913.55216	0.05055
2912.26639	0.05056
2910.98062	0.05059
2909.69486	0.05059
2908.40909	0.05049
2907.12332	0.05028
2905.83755	0.05003
2904.55178	0.04983
2903.26601	0.04970
2901.98024	0.04959
2900.69447	0.04943
2899.40870	0.04918
2898.12294	0.04881
2896.83717	0.04834
2895.55140	0.04790
2894.26563	0.04756
2892.97986	0.04734
2891.69409	0.04714
2890.40832	0.04694
2889.12255	0.04676
2887.83678	0.04668
2886.55102	0.04670
2885.26525	0.04675
2883.97948	0.04671
2882.69371	0.04650
2881.40794	0.04612
2880.12217	0.04568
2878.83640	0.04538
2877.55063	0.04536
2876.26487	0.04557
2874.97910	0.04582
2873.69333	0.04598
2872.40756	0.04610
2871.12179	0.04628
2869.83602	0.04655
2868.55025	0.04678
2867.26448	0.04683
2865.97871	0.04668
2864.69295	0.04642
2863.40718	0.04619
2862.12141	0.04601
2860.83564	0.04590
2859.54987	0.04585
2858.26410	0.04584
2856.97833	0.04575
2855.69256	0.04550
2854.40680	0.04516
2853.12103	0.04484
2851.83526	0.04456
2850.54949	0.04429
2849.26372	0.04407
2847.97795	0.04396
2846.69218	0.04394
2845.40641	0.04387
2844.12064	0.04370
2842.83488	0.04352
2841.54911	0.04347
2840.26334	0.04353
2838.97757	0.04356
2837.69180	0.04340
2836.40603	0.04299
2835.12026	0.04243
2833.83449	0.04186
2832.54873	0.04143
2831.26296	0.04121
2829.97719	0.04116
2828.69142	0.04116
2827.40565	0.04107
2826.11988	0.04089
2824.83411	0.04066
2823.54834	0.04039
2822.26257	0.04008
2820.97681	0.03975
2819.69104	0.03950
2818.40527	0.03938
2817.11950	0.03930
2815.83373	0.03914
2814.54796	0.03887
2813.26219	0.03861
2811.97642	0.03854
2810.69066	0.03872
2809.40489	0.03908
2808.11912	0.03936
2806.83335	0.03936
2805.54758	0.03904
2804.26181	0.03864
2802.97604	0.03841
2801.69027	0.03837
2800.40450	0.03838
2799.11874	0.03834
2797.83297	0.03833
2796.54720	0.03841
2795.26143	0.03855
2793.97566	0.03867
2792.68989	0.03866
2791.40412	0.03846
2790.11835	0.03810
2788.83259	0.03775
2787.54682	0.03761
2786.26105	0.03767
2784.97528	0.03779
2783.68951	0.03779
2782.40374	0.03764
2781.11797	0.03741
2779.83220	0.03718
2778.54643	0.03700
2777.26067	0.03689
2775.97490	0.03687
2774.68913	0.03695
2773.40336	0.03707
2772.11759	0.03719
2770.83182	0.03721
2769.54605	0.03708
2768.26028	0.03682
2766.97452	0.03656
2765.68875	0.03647
2764.40298	0.03663
2763.11721	0.03694
2761.83144	0.03723
2760.54567	0.03735
2759.25990	0.03722
2757.97413	0.03693
2756.68836	0.03660
2755.40260	0.03637
2754.11683	0.03624
2752.83106	0.03613
2751.54529	0.03591
2750.25952	0.03559
2748.97375	0.03530
2747.68798	0.03519
2746.40221	0.03525
2745.11645	0.03541
2743.83068	0.03560
2742.54491	0.03576
2741.25914	0.03584
2739.97337	0.03578
2738.68760	0.03560
2737.40183	0.03541
2736.11606	0.03533
2734.83029	0.03535
2733.54453	0.03539
2732.25876	0.03539
2730.97299	0.03535
2729.68722	0.03532
2728.40145	0.03530
2727.11568	0.03524
2725.82991	0.03511
2724.54414	0.03495
2723.25838	0.03483
2721.97261	0.03475
2720.68684	0.03459
2719.40107	0.03431
2718.11530	0.03399
2716.82953	0.03380
2715.54376	0.03383
2714.25799	0.03396
2712.97222	0.03403
2711.68646	0.03399
2710.40069	0.03393
2709.11492	0.03393
2707.82915	0.03401
2706.54338	0.03413
2705.25761	0.03421
2703.97184	0.03421
2702.68607	0.03418
2701.40031	0.03418
2700.11454	0.03422
2698.82877	0.03427
2697.54300	0.03429
2696.25723	0.03428
2694.97146	0.03425
2693.68569	0.03417
2692.39992	0.03402
2691.11415	0.03382
2689.82839	0.03363
2688.54262	0.03354
2687.25685	0.03354
2685.97108	0.03355
2684.68531	0.03353
2683.39954	0.03347
2682.11377	0.03338
2680.82800	0.03328
2679.54224	0.03317
2678.25647	0.03304
2676.97070	0.03294
2675.68493	0.03288
2674.39916	0.03286
2673.11339	0.03286
2671.82762	0.03286
2670.54185	0.03283
2669.25608	0.03280
2667.97032	0.03282
2666.68455	0.03294
2665.39878	0.03311
2664.11301	0.03322
2662.82724	0.03319
2661.54147	0.03305
2660.25570	0.03290
2658.96993	0.03282
2657.68417	0.03281
2656.39840	0.03277
2655.11263	0.03263
2653.82686	0.03243
2652.54109	0.03227
2651.25532	0.03218
2649.96955	0.03216
2648.68378	0.03219
2647.39801	0.03222
2646.11225	0.03217
2644.82648	0.03197
2643.54071	0.03166
2642.25494	0.03132
2640.96917	0.03111
2639.68340	0.03111
2638.39763	0.03129
2637.11186	0.03146
2635.82609	0.03140
2634.54033	0.03105
2633.25456	0.03056
2631.96879	0.03009
2630.68302	0.02976
2629.39725	0.02960
2628.11148	0.02961
2626.82571	0.02973
2625.53994	0.02988
2624.25418	0.02995
2622.96841	0.02986
2621.68264	0.02969
2620.39687	0.02957
2619.11110	0.02956
2617.82533	0.02960
2616.53956	0.02958
2615.25379	0.02948
2613.96802	0.02929
2612.68226	0.02904
2611.39649	0.02883
2610.11072	0.02875
2608.82495	0.02871
2607.53918	0.02849
2606.25341	0.02807
2604.96764	0.02767
2603.68187	0.02752
2602.39611	0.02763
2601.11034	0.02783
2599.82457	0.02796
2598.53880	0.02799
2597.25303	0.02788
2595.96726	0.02765
2594.68149	0.02737
2593.39572	0.02714
2592.10995	0.02706
2590.82419	0.02720
2589.53842	0.02742
2588.25265	0.02750
2586.96688	0.02740
2585.68111	0.02726
2584.39534	0.02713
2583.10957	0.02681
2581.82380	0.02618
2580.53804	0.02551
2579.25227	0.02522
2577.96650	0.02547
2576.68073	0.02597
2575.39496	0.02630
2574.10919	0.02630
2572.82342	0.02609
2571.53765	0.02592
2570.25188	0.02589
2568.96612	0.02595
2567.68035	0.02591
2566.39458	0.02565
2565.10881	0.02526
2563.82304	0.02508
2562.53727	0.02528
2561.25150	0.02557
2559.96573	0.02549
2558.67997	0.02503
2557.39420	0.02465
2556.10843	0.02471
2554.82266	0.02511
2553.53689	0.02549
2552.25112	0.02564
2550.96535	0.02560
2549.67958	0.02560
2548.39381	0.02580
2547.10805	0.02621
2545.82228	0.02661
2544.53651	0.02675
2543.25074	0.02658
2541.96497	0.02618
2540.67920	0.02572
2539.39343	0.02534
2538.10766	0.02512
2536.82190	0.02501
2535.53613	0.02488
2534.25036	0.02468
2532.96459	0.02456
2531.67882	0.02463
2530.39305	0.02472
2529.10728	0.02452
2527.82151	0.02402
2526.53574	0.02362
2525.24998	0.02370
2523.96421	0.02423
2522.67844	0.02481
2521.39267	0.02502
2520.10690	0.02477
2518.82113	0.02424
2517.53536	0.02373
2516.24959	0.02351
2514.96383	0.02365
2513.67806	0.02405
2512.39229	0.02446
2511.10652	0.02464
2509.82075	0.02447
2508.53498	0.02415
2507.24921	0.02399
2505.96344	0.02413
2504.67767	0.02442
2503.39191	0.02473
2502.10614	0.02499
2500.82037	0.02513
2499.53460	0.02500
2498.24883	0.02452
2496.96306	0.02387
2495.67729	0.02330
2494.39152	0.02296
2493.10576	0.02289
2491.81999	0.02306
2490.53422	0.02335
2489.24845	0.02365
2487.96268	0.02390
2486.67691	0.02410
2485.39114	0.02424
2484.10537	0.02429
2482.81960	0.02421
2481.53384	0.02401
2480.24807	0.02374
2478.96230	0.02353
2477.67653	0.02344
2476.39076	0.02341
2475.10499	0.02329
2473.81922	0.02302
2472.53345	0.02274
2471.24769	0.02264
2469.96192	0.02280
2468.67615	0.02311
2467.39038	0.02342
2466.10461	0.02364
2464.81884	0.02373
2463.53307	0.02365
2462.24730	0.02349
2460.96153	0.02348
2459.67577	0.02373
2458.39000	0.02408
2457.10423	0.02420
2455.81846	0.02399
2454.53269	0.02366
2453.24692	0.02348
2451.96115	0.02350
2450.67538	0.02355
2449.38962	0.02355
2448.10385	0.02350
2446.81808	0.02342
2445.53231	0.02332
2444.24654	0.02325
2442.96077	0.02326
2441.67500	0.02331
2440.38923	0.02317
2439.10346	0.02272
2437.81770	0.02213
2436.53193	0.02179
2435.24616	0.02191
2433.96039	0.02234
2432.67462	0.02275
2431.38885	0.02291
2430.10308	0.02284
2428.81731	0.02273
2427.53155	0.02273
2426.24578	0.02283
2424.96001	0.02296
2423.67424	0.02309
2422.38847	0.02324
2421.10270	0.02338
2419.81693	0.02335
2418.53116	0.02306
2417.24539	0.02258
2415.95963	0.02211
2414.67386	0.02181
2413.38809	0.02167
2412.10232	0.02165
2410.81655	0.02179
2409.53078	0.02208
2408.24501	0.02242
2406.95924	0.02258
2405.67347	0.02245
2404.38771	0.02217
2403.10194	0.02200
2401.81617	0.02212
2400.53040	0.02242
2399.24463	0.02269
2397.95886	0.02275
2396.67309	0.02260
2395.38732	0.02231
2394.10156	0.02203
2392.81579	0.02190
2391.53002	0.02202
2390.24425	0.02230
2388.95848	0.02254
2387.67271	0.02262
2386.38694	0.02255
2385.10117	0.02241
2383.81540	0.02226
2382.52964	0.02213
2381.24387	0.02206
2379.95810	0.02213
2378.67233	0.02232
2377.38656	0.02248
2376.10079	0.02247
2374.81502	0.02228
2373.52925	0.02224
2372.24349	0.02243
2370.95772	0.02262
2369.67195	0.02248
2368.38618	0.02208
2367.10041	0.02175
2365.81464	0.02155
2364.52887	0.02138
2363.24310	0.02128
2361.95733	0.02140
2360.67157	0.02196
2359.38580	0.02249
2358.10003	0.02260
2356.81426	0.02237
2355.52849	0.02202
2354.24272	0.02171
2352.95695	0.02165
2351.67118	0.02209
2350.38542	0.02261
2349.09965	0.02259
2347.81388	0.02228
2346.52811	0.02260
2345.24234	0.02316
2343.95657	0.02272
2342.67080	0.02152
2341.38503	0.02151
2340.09926	0.02254
2338.81350	0.02193
2337.52773	0.01992
2336.24196	0.02004
2334.95619	0.02173
2333.67042	0.02145
2332.38465	0.02010
2331.09888	0.02108
2329.81311	0.02221
2328.52735	0.02142
2327.24158	0.02207
2325.95581	0.02359
2324.67004	0.02338
2323.38427	0.02316
2322.09850	0.02362
2320.81273	0.02296
2319.52696	0.02276
2318.24119	0.02308
2316.95543	0.02268
2315.66966	0.02253
2314.38389	0.02248
2313.09812	0.02206
2311.81235	0.02201
2310.52658	0.02189
2309.24081	0.02165
2307.95504	0.02157
2306.66928	0.02143
2305.38351	0.02149
2304.09774	0.02159
2302.81197	0.02155
2301.52620	0.02149
2300.24043	0.02136
2298.95466	0.02118
2297.66889	0.02085
2296.38312	0.02048
2295.09736	0.02035
2293.81159	0.02058
2292.52582	0.02107
2291.24005	0.02146
2289.95428	0.02152
2288.66851	0.02122
2287.38274	0.02067
2286.09697	0.02012
2284.81121	0.01974
2283.52544	0.01961
2282.23967	0.01966
2280.95390	0.01970
2279.66813	0.01953
2278.38236	0.01915
2277.09659	0.01882
2275.81082	0.01886
2274.52505	0.01928
2273.23929	0.01986
2271.95352	0.02033
2270.66775	0.02053
2269.38198	0.02034
2268.09621	0.01975
2266.81044	0.01885
2265.52467	0.01781
2264.23890	0.01688
2262.95314	0.01647
2261.66737	0.01687
2260.38160	0.01789
2259.09583	0.01894
2257.81006	0.01938
2256.52429	0.01897
2255.23852	0.01795
2253.95275	0.01689
2252.66698	0.01606
2251.38122	0.01543
2250.09545	0.01496
2248.80968	0.01477
2247.52391	0.01486
2246.23814	0.01523
2244.95237	0.01570
2243.66660	0.01620
2242.38083	0.01667
2241.09507	0.01696
2239.80930	0.01696
2238.52353	0.01671
2237.23776	0.01623
2235.95199	0.01550
2234.66622	0.01469
2233.38045	0.01416
2232.09468	0.01411
2230.80891	0.01436
2229.52315	0.01462
2228.23738	0.01471
2226.95161	0.01459
2225.66584	0.01429
2224.38007	0.01389
2223.09430	0.01350
2221.80853	0.01319
2220.52276	0.01297
2219.23700	0.01296
2217.95123	0.01327
2216.66546	0.01379
2215.37969	0.01426
2214.09392	0.01448
2212.80815	0.01440
2211.52238	0.01399
2210.23661	0.01337
2208.95084	0.01293
2207.66508	0.01315
2206.37931	0.01402
2205.09354	0.01489
2203.80777	0.01495
2202.52200	0.01397
2201.23623	0.01236
2199.95046	0.01094
2198.66469	0.01040
2197.37893	0.01094
2196.09316	0.01205
2194.80739	0.01281
2193.52162	0.01270
2192.23585	0.01201
2190.95008	0.01140
2189.66431	0.01122
2188.37854	0.01141
2187.09277	0.01179
2185.80701	0.01225
2184.52124	0.01264
2183.23547	0.01279
2181.94970	0.01254
2180.66393	0.01188
2179.37816	0.01102
2178.09239	0.01030
2176.80662	0.01004
2175.52085	0.01031
2174.23509	0.01088
2172.94932	0.01131
2171.66355	0.01127
2170.37778	0.01073
2169.09201	0.00992
2167.80624	0.00907
2166.52047	0.00823
2165.23470	0.00735
2163.94894	0.00642
2162.66317	0.00535
2161.37740	0.00401
2160.09163	0.00256
2158.80586	0.00153
2157.52009	0.00147
2156.23432	0.00254
2154.94855	0.00452
2153.66278	0.00686
2152.37702	0.00882
2151.09125	0.00976
2149.80548	0.00962
2148.51971	0.00893
2147.23394	0.00829
2145.94817	0.00787
2144.66240	0.00765
2143.37663	0.00771
2142.09087	0.00813
2140.80510	0.00871
2139.51933	0.00904
2138.23356	0.00896
2136.94779	0.00863
2135.66202	0.00833
2134.37625	0.00828
2133.09048	0.00852
2131.80471	0.00896
2130.51895	0.00948
2129.23318	0.01006
2127.94741	0.01074
2126.66164	0.01147
2125.37587	0.01198
2124.09010	0.01203
2122.80433	0.01165
2121.51856	0.01113
2120.23280	0.01083
2118.94703	0.01091
2117.66126	0.01127
2116.37549	0.01172
2115.08972	0.01213
2113.80395	0.01244
2112.51818	0.01266
2111.23241	0.01292
2109.94664	0.01336
2108.66088	0.01387
2107.37511	0.01410
2106.08934	0.01374
2104.80357	0.01284
2103.51780	0.01175
2102.23203	0.01087
2100.94626	0.01042
2099.66049	0.01203
2098.37473	0.01282
2097.08896	0.01272
2095.80319	0.01236
2094.51742	0.01200
2093.23165	0.01182
2091.94588	0.01195
2090.66011	0.01225
2089.37434	0.01241
2088.08857	0.01220
2086.80281	0.01172
2085.51704	0.01133
2084.23127	0.01139
2082.94550	0.01192
2081.65973	0.01260
2080.37396	0.01299
2079.08819	0.01294
2077.80242	0.01266
2076.51666	0.01251
2075.23089	0.01260
2073.94512	0.01277
2072.65935	0.01284
2071.37358	0.01287
2070.08781	0.01306
2068.80204	0.01347
2067.51627	0.01380
2066.23050	0.01357
2064.94474	0.01261
2063.65897	0.01118
2062.37320	0.00980
2061.08743	0.00883
2059.80166	0.00831
2058.51589	0.00805
2057.23012	0.00781
2055.94435	0.00748
2054.65859	0.00724
2053.37282	0.00747
2052.08705	0.00847
2050.80128	0.01000
2049.51551	0.01127
2048.22974	0.01153
2046.94397	0.01070
2045.65820	0.00940
2044.37243	0.00829
2043.08667	0.00755
2041.80090	0.00692
2040.51513	0.00617
2039.22936	0.00541
2037.94359	0.00498
2036.65782	0.00511
2035.37205	0.00568
2034.08628	0.00637
2032.80052	0.00678
2031.51475	0.00671
2030.22898	0.00631
2028.94321	0.00601
2027.65744	0.00619
2026.37167	0.00672
2025.08590	0.00701
2023.80013	0.00668
2022.51436	0.00596
2021.22860	0.00557
2019.94283	0.00594
2018.65706	0.00686
2017.37129	0.00765
2016.08552	0.00772
2014.79975	0.00709
2013.51398	0.00639
2012.22821	0.00636
2010.94245	0.00717
2009.65668	0.00836
2008.37091	0.00933
2007.08514	0.00981
2005.79937	0.00982
2004.51360	0.00951
2003.22783	0.00901
2001.94206	0.00844
2000.65629	0.00790
1999.37053	0.00746
1998.08476	0.00716
1996.79899	0.00709
1995.51322	0.00737
1994.22745	0.00804
1992.94168	0.00885
1991.65591	0.00925
1990.37014	0.00886
1989.08438	0.00789
1987.79861	0.00708
1986.51284	0.00707
1985.22707	0.00794
1983.94130	0.00939
1982.65553	0.01119
1981.36976	0.01328
1980.08399	0.01536
1978.79822	0.01675
1977.51246	0.01688
1976.22669	0.01583
1974.94092	0.01433
1973.65515	0.01316
1972.36938	0.01265
1971.08361	0.01254
1969.79784	0.01231
1968.51207	0.01160
1967.22631	0.01057
1965.94054	0.00972
1964.65477	0.00946
1963.36900	0.00973
1962.08323	0.01016
1960.79746	0.01037
1959.51169	0.01032
1958.22592	0.01018
1956.94015	0.01020
1955.65439	0.01059
1954.36862	0.01145
1953.08285	0.01258
1951.79708	0.01345
1950.51131	0.01362
1949.22554	0.01317
1947.93977	0.01259
1946.65400	0.01232
1945.36823	0.01240
1944.08247	0.01261
1942.79670	0.01272
1941.51093	0.01268
1940.22516	0.01244
1938.93939	0.01194
1937.65362	0.01131
1936.36785	0.01090
1935.08208	0.01104
1933.79632	0.01161
1932.51055	0.01215
1931.22478	0.01231
1929.93901	0.01213
1928.65324	0.01191
1927.36747	0.01191
1926.08170	0.01216
1924.79593	0.01247
1923.51016	0.01268
1922.22440	0.01277
1920.93863	0.01289
1919.65286	0.01315
1918.36709	0.01347
1917.08132	0.01365
1915.79555	0.01363
1914.50978	0.01351
1913.22401	0.01346
1911.93825	0.01351
1910.65248	0.01356
1909.36671	0.01346
1908.08094	0.01325
1906.79517	0.01310
1905.50940	0.01312
1904.22363	0.01326
1902.93786	0.01342
1901.65209	0.01360
1900.36633	0.01387
1899.08056	0.01419
1897.79479	0.01440
1896.50902	0.01443
1895.22325	0.01432
1893.93748	0.01421
1892.65171	0.01417
1891.36594	0.01415
1890.08018	0.01408
1888.79441	0.01391
1887.50864	0.01370
1886.22287	0.01361
1884.93710	0.01376
1883.65133	0.01415
1882.36556	0.01460
1881.07979	0.01489
1879.79402	0.01489
1878.50826	0.01465
1877.22249	0.01432
1875.93672	0.01401
1874.65095	0.01373
1873.36518	0.01350
1872.07941	0.01335
1870.79364	0.01334
1869.50787	0.01339
1868.22211	0.01341
1866.93634	0.01342
1865.65057	0.01350
1864.36480	0.01369
1863.07903	0.01393
1861.79326	0.01411
1860.50749	0.01417
1859.22172	0.01414
1857.93595	0.01406
1856.65019	0.01395
1855.36442	0.01380
1854.07865	0.01368
1852.79288	0.01362
1851.50711	0.01365
1850.22134	0.01375
1848.93557	0.01390
1847.64980	0.01407
1846.36404	0.01428
1845.07827	0.01446
1843.79250	0.01445
1842.50673	0.01423
1841.22096	0.01392
1839.93519	0.01366
1838.64942	0.01346
1837.36365	0.01326
1836.07788	0.01307
1834.79212	0.01297
1833.50635	0.01305
1832.22058	0.01334
1830.93481	0.01373
1829.64904	0.01406
1828.36327	0.01426
1827.07750	0.01439
1825.79173	0.01453
1824.50597	0.01469
1823.22020	0.01487
1821.93443	0.01506
1820.64866	0.01518
1819.36289	0.01508
1818.07712	0.01472
1816.79135	0.01421
1815.50558	0.01375
1814.21981	0.01351
1812.93405	0.01353
1811.64828	0.01364
1810.36251	0.01370
1809.07674	0.01364
1807.79097	0.01355
1806.50520	0.01351
1805.21943	0.01353
1803.93366	0.01358
1802.64790	0.01365
1801.36213	0.01374
1800.07636	0.01388
1798.79059	0.01406
1797.50482	0.01426
1796.21905	0.01443
1794.93328	0.01457
1793.64751	0.01466
1792.36174	0.01468
1791.07598	0.01460
1789.79021	0.01450
1788.50444	0.01446
1787.21867	0.01448
1785.93290	0.01452
1784.64713	0.01451
1783.36136	0.01447
1782.07559	0.01449
1780.78983	0.01461
1779.50406	0.01473
1778.21829	0.01476
1776.93252	0.01466
1775.64675	0.01450
1774.36098	0.01436
1773.07521	0.01427
1771.78944	0.01417
1770.50367	0.01410
1769.21791	0.01413
1767.93214	0.01426
1766.64637	0.01442
1765.36060	0.01460
1764.07483	0.01480
1762.78906	0.01495
1761.50329	0.01496
1760.21752	0.01488
1758.93176	0.01479
1757.64599	0.01474
1756.36022	0.01464
1755.07445	0.01449
1753.78868	0.01442
1752.50291	0.01450
1751.21714	0.01462
1749.93137	0.01467
1748.64560	0.01467
1747.35984	0.01469
1746.07407	0.01475
1744.78830	0.01482
1743.50253	0.01485
1742.21676	0.01490
1740.93099	0.01495
1739.64522	0.01494
1738.35945	0.01484
1737.07369	0.01477
1735.78792	0.01490
1734.50215	0.01511
1733.21638	0.01519
1731.93061	0.01516
1730.64484	0.01518
1729.35907	0.01528
1728.07330	0.01535
1726.78753	0.01536
1725.50177	0.01540
1724.21600	0.01549
1722.93023	0.01563
1721.64446	0.01578
1720.35869	0.01600
1719.07292	0.01630
1717.78715	0.01656
1716.50138	0.01672
1715.21561	0.01683
1713.92985	0.01699
1712.64408	0.01720
1711.35831	0.01741
1710.07254	0.01764
1708.78677	0.01793
1707.50100	0.01831
1706.21523	0.01874
1704.92946	0.01914
1703.64370	0.01957
1702.35793	0.02015
1701.07216	0.02077
1699.78639	0.02119
1698.50062	0.02147
1697.21485	0.02188
1695.92908	0.02241
1694.64331	0.02281
1693.35754	0.02317
1692.07178	0.02369
1690.78601	0.02434
1689.50024	0.02492
1688.21447	0.02544
1686.92870	0.02607
1685.64293	0.02682
1684.35716	0.02745
1683.07139	0.02782
1681.78563	0.02815
1680.49986	0.02864
1679.21409	0.02926
1677.92832	0.02992
1676.64255	0.03057
1675.35678	0.03113
1674.07101	0.03156
1672.78524	0.03200
1671.49947	0.03260
1670.21371	0.03325
1668.92794	0.03381
1667.64217	0.03425
1666.35640	0.03471
1665.07063	0.03527
1663.78486	0.03586
1662.49909	0.03636
1661.21332	0.03673
1659.92756	0.03702
1658.64179	0.03721
1657.35602	0.03732
1656.07025	0.03754
1654.78448	0.03802
1653.49871	0.03859
1652.21294	0.03885
1650.92717	0.03877
1649.64140	0.03874
1648.35564	0.03896
1647.06987	0.03928
1645.78410	0.03945
1644.49833	0.03942
1643.21256	0.03931
1641.92679	0.03920
1640.64102	0.03907
1639.35525	0.03894
1638.06949	0.03888
1636.78372	0.03889
1635.49795	0.03879
1634.21218	0.03849
1632.92641	0.03810
1631.64064	0.03780
1630.35487	0.03762
1629.06910	0.03748
1627.78333	0.03732
1626.49757	0.03710
1625.21180	0.03683
1623.92603	0.03648
1622.64026	0.03598
1621.35449	0.03537
1620.06872	0.03485
1618.78295	0.03456
1617.49718	0.03444
1616.21142	0.03431
1614.92565	0.03409
1613.63988	0.03390
1612.35411	0.03378
1611.06834	0.03367
1609.78257	0.03353
1608.49680	0.03337
1607.21103	0.03321
1605.92526	0.03308
1604.63950	0.03298
1603.35373	0.03293
1602.06796	0.03292
1600.78219	0.03294
1599.49642	0.03296
1598.21065	0.03299
1596.92488	0.03303
1595.63911	0.03311
1594.35335	0.03321
1593.06758	0.03334
1591.78181	0.03348
1590.49604	0.03361
1589.21027	0.03375
1587.92450	0.03390
1586.63873	0.03406
1585.35296	0.03423
1584.06719	0.03439
1582.78143	0.03453
1581.49566	0.03465
1580.20989	0.03479
1578.92412	0.03507
1577.63835	0.03553
1576.35258	0.03601
1575.06681	0.03631
1573.78104	0.03650
1572.49528	0.03677
1571.20951	0.03716
1569.92374	0.03752
1568.63797	0.03777
1567.35220	0.03797
1566.06643	0.03819
1564.78066	0.03839
1563.49489	0.03855
1562.20912	0.03882
1560.92336	0.03932
1559.63759	0.03989
1558.35182	0.04027
1557.06605	0.04047
1555.78028	0.04072
1554.49451	0.04106
1553.20874	0.04134
1551.92297	0.04155
1550.63721	0.04179
1549.35144	0.04208
1548.06567	0.04234
1546.77990	0.04251
1545.49413	0.04255
1544.20836	0.04248
1542.92259	0.04240
1541.63682	0.04243
1540.35105	0.04254
1539.06529	0.04257
1537.77952	0.04251
1536.49375	0.04253
1535.20798	0.04270
1533.92221	0.04291
1532.63644	0.04303
1531.35067	0.04310
1530.06490	0.04323
1528.77914	0.04346
1527.49337	0.04370
1526.20760	0.04391
1524.92183	0.04413
1523.63606	0.04450
1522.35029	0.04503
1521.06452	0.04558
1519.77875	0.04607
1518.49298	0.04659
1517.20722	0.04722
1515.92145	0.04790
1514.63568	0.04857
1513.34991	0.04925
1512.06414	0.04992
1510.77837	0.05059
1509.49260	0.05137
1508.20683	0.05233
1506.92107	0.05332
1505.63530	0.05410
1504.34953	0.05467
1503.06376	0.05523
1501.77799	0.05590
1500.49222	0.05662
1499.20645	0.05731
1497.92068	0.05794
1496.63491	0.05849
1495.34915	0.05894
1494.06338	0.05935
1492.77761	0.05983
1491.49184	0.06041
1490.20607	0.06100
1488.92030	0.06160
1487.63453	0.06223
1486.34876	0.06293
1485.06299	0.06370
1483.77723	0.06454
1482.49146	0.06548
1481.20569	0.06648
1479.91992	0.06751
1478.63415	0.06850
1477.34838	0.06939
1476.06261	0.07018
1474.77684	0.07093
1473.49108	0.07168
1472.20531	0.07234
1470.91954	0.07289
1469.63377	0.07337
1468.34800	0.07387
1467.06223	0.07439
1465.77646	0.07490
1464.49069	0.07533
1463.20492	0.07570
1461.91916	0.07608
1460.63339	0.07652
1459.34762	0.07707
1458.06185	0.07769
1456.77608	0.07823
1455.49031	0.07860
1454.20454	0.07892
1452.91877	0.07927
1451.63301	0.07961
1450.34724	0.07986
1449.06147	0.07999
1447.77570	0.07999
1446.48993	0.07986
1445.20416	0.07961
1443.91839	0.07928
1442.63262	0.07889
1441.34685	0.07846
1440.06109	0.07807
1438.77532	0.07783
1437.48955	0.07776
1436.20378	0.07775
1434.91801	0.07780
1433.63224	0.07806
1432.34647	0.07859
1431.06070	0.07931
1429.77494	0.08011
1428.48917	0.08094
1427.20340	0.08187
1425.91763	0.08292
1424.63186	0.08407
1423.34609	0.08525
1422.06032	0.08643
1420.77455	0.08759
1419.48878	0.08867
1418.20302	0.08956
1416.91725	0.09029
1415.63148	0.09089
1414.34571	0.09136
1413.05994	0.09166
1411.77417	0.09177
1410.48840	0.09169
1409.20263	0.09138
1407.91687	0.09087
1406.63110	0.09018
1405.34533	0.08933
1404.05956	0.08832
1402.77379	0.08714
1401.48802	0.08585
1400.20225	0.08444
1398.91648	0.08289
1397.63071	0.08120
1396.34495	0.07940
1395.05918	0.07755
1393.77341	0.07566
1392.48764	0.07375
1391.20187	0.07191
1389.91610	0.07020
1388.63033	0.06858
1387.34456	0.06699
1386.05880	0.06535
1384.77303	0.06364
1383.48726	0.06191
1382.20149	0.06021
1380.91572	0.05858
1379.62995	0.05699
1378.34418	0.05537
1377.05841	0.05370
1375.77264	0.05199
1374.48688	0.05028
1373.20111	0.04862
1371.91534	0.04702
1370.62957	0.04549
1369.34380	0.04402
1368.05803	0.04261
1366.77226	0.04129
1365.48649	0.04007
1364.20073	0.03893
1362.91496	0.03786
1361.62919	0.03686
1360.34342	0.03592
1359.05765	0.03502
1357.77188	0.03417
1356.48611	0.03338
1355.20034	0.03266
1353.91457	0.03199
1352.62881	0.03137
1351.34304	0.03079
1350.05727	0.03028
1348.77150	0.02979
1347.48573	0.02932
1346.19996	0.02885
1344.91419	0.02842
1343.62842	0.02806
1342.34266	0.02776
1341.05689	0.02748
1339.77112	0.02720
1338.48535	0.02691
1337.19958	0.02661
1335.91381	0.02633
1334.62804	0.02608
1333.34227	0.02585
1332.05650	0.02563
1330.77074	0.02538
1329.48497	0.02508
1328.19920	0.02477
1326.91343	0.02446
1325.62766	0.02421
1324.34189	0.02403
1323.05612	0.02392
1321.77035	0.02383
1320.48459	0.02371
1319.19882	0.02355
1317.91305	0.02337
1316.62728	0.02315
1315.34151	0.02291
1314.05574	0.02264
1312.76997	0.02241
1311.48420	0.02225
1310.19843	0.02216
1308.91267	0.02209
1307.62690	0.02198
1306.34113	0.02185
1305.05536	0.02173
1303.76959	0.02163
1302.48382	0.02151
1301.19805	0.02132
1299.91228	0.02106
1298.62652	0.02079
1297.34075	0.02056
1296.05498	0.02040
1294.76921	0.02032
1293.48344	0.02029
1292.19767	0.02029
1290.91190	0.02028
1289.62613	0.02024
1288.34036	0.02017
1287.05460	0.02007
1285.76883	0.01997
1284.48306	0.01988
1283.19729	0.01980
1281.91152	0.01970
1280.62575	0.01959
1279.33998	0.01946
1278.05421	0.01933
1276.76845	0.01920
1275.48268	0.01907
1274.19691	0.01894
1272.91114	0.01882
1271.62537	0.01873
1270.33960	0.01866
1269.05383	0.01863
1267.76806	0.01865
1266.48229	0.01869
1265.19653	0.01870
1263.91076	0.01866
1262.62499	0.01858
1261.33922	0.01851
1260.05345	0.01846
1258.76768	0.01842
1257.48191	0.01836
1256.19614	0.01829
1254.91037	0.01823
1253.62461	0.01821
1252.33884	0.01821
1251.05307	0.01821
1249.76730	0.01820
1248.48153	0.01817
1247.19576	0.01812
1245.90999	0.01806
1244.62422	0.01796
1243.33846	0.01784
1242.05269	0.01771
1240.76692	0.01760
1239.48115	0.01752
1238.19538	0.01749
1236.90961	0.01746
1235.62384	0.01743
1234.33807	0.01736
1233.05230	0.01727
1231.76654	0.01717
1230.48077	0.01708
1229.19500	0.01697
1227.90923	0.01683
1226.62346	0.01667
1225.33769	0.01650
1224.05192	0.01635
1222.76615	0.01622
1221.48039	0.01612
1220.19462	0.01603
1218.90885	0.01591
1217.62308	0.01578
1216.33731	0.01565
1215.05154	0.01555
1213.76577	0.01548
1212.48000	0.01541
1211.19423	0.01535
1209.90847	0.01531
1208.62270	0.01531
1207.33693	0.01536
1206.05116	0.01543
1204.76539	0.01551
1203.47962	0.01560
1202.19385	0.01571
1200.90808	0.01570
1199.62232	0.01549
1198.33655	0.01548
1197.05078	0.01543
1195.76501	0.01535
1194.47924	0.01527
1193.19347	0.01517
1191.90770	0.01509
1190.62193	0.01505
1189.33616	0.01505
1188.05040	0.01502
1186.76463	0.01496
1185.47886	0.01491
1184.19309	0.01494
1182.90732	0.01503
1181.62155	0.01515
1180.33578	0.01524
1179.05001	0.01531
1177.76425	0.01540
1176.47848	0.01549
1175.19271	0.01556
1173.90694	0.01558
1172.62117	0.01558
1171.33540	0.01562
1170.04963	0.01576
1168.76386	0.01599
1167.47809	0.01628
1166.19233	0.01657
1164.90656	0.01683
1163.62079	0.01705
1162.33502	0.01725
1161.04925	0.01744
1159.76348	0.01765
1158.47771	0.01791
1157.19194	0.01825
1155.90618	0.01862
1154.62041	0.01898
1153.33464	0.01932
1152.04887	0.01970
1150.76310	0.02017
1149.47733	0.02069
1148.19156	0.02121
1146.90579	0.02172
1145.62002	0.02227
1144.33426	0.02292
1143.04849	0.02367
1141.76272	0.02449
1140.47695	0.02538
1139.19118	0.02635
1137.90541	0.02742
1136.61964	0.02859
1135.33387	0.02989
1134.04811	0.03137
1132.76234	0.03306
1131.47657	0.03493
1130.19080	0.03692
1128.90503	0.03898
1127.61926	0.04113
1126.33349	0.04340
1125.04772	0.04584
1123.76195	0.04845
1122.47619	0.05121
1121.19042	0.05406
1119.90465	0.05696
1118.61888	0.05990
1117.33311	0.06286
1116.04734	0.06585
1114.76157	0.06884
1113.47580	0.07181
1112.19004	0.07479
1110.90427	0.07779
1109.61850	0.08078
1108.33273	0.08370
1107.04696	0.08652
1105.76119	0.08925
1104.47542	0.09192
1103.18965	0.09452
1101.90388	0.09700
1100.61812	0.09937
1099.33235	0.10164
1098.04658	0.10384
1096.76081	0.10597
1095.47504	0.10803
1094.18927	0.11006
1092.90350	0.11211
1091.61773	0.11417
1090.33197	0.11619
1089.04620	0.11810
1087.76043	0.11991
1086.47466	0.12168
1085.18889	0.12349
1083.90312	0.12533
1082.61735	0.12722
1081.33158	0.12916
1080.04581	0.13119
1078.76005	0.13338
1077.47428	0.13574
1076.18851	0.13821
1074.90274	0.14074
1073.61697	0.14333
1072.33120	0.14601
1071.04543	0.14879
1069.75966	0.15166
1068.47390	0.15461
1067.18813	0.15766
1065.90236	0.16082
1064.61659	0.16406
1063.33082	0.16727
1062.04505	0.17038
1060.75928	0.17338
1059.47351	0.17631
1058.18774	0.17920
1056.90198	0.18210
1055.61621	0.18500
1054.33044	0.18789
1053.04467	0.19075
1051.75890	0.19358
1050.47313	0.19646
1049.18736	0.19946
1047.90159	0.20261
1046.61583	0.20586
1045.33006	0.20918
1044.04429	0.21254
1042.75852	0.21592
1041.47275	0.21928
1040.18698	0.22263
1038.90121	0.22605
1037.61544	0.22955
1036.32967	0.23309
1035.04391	0.23651
1033.75814	0.23970
1032.47237	0.24262
1031.18660	0.24533
1029.90083	0.24782
1028.61506	0.25008
1027.32929	0.25208
1026.04352	0.25381
1024.75775	0.25523
1023.47199	0.25632
1022.18622	0.25702
1020.90045	0.25736
1019.61468	0.25733
1018.32891	0.25695
1017.04314	0.25622
1015.75737	0.25513
1014.47160	0.25358
1013.18584	0.25150
1011.90007	0.24889
1010.61430	0.24584
1009.32853	0.24242
1008.04276	0.23869
1006.75699	0.23466
1005.47122	0.23036
1004.18545	0.22576
1002.89968	0.22079
1001.61392	0.21541
1000.32815	0.20963
999.04238	0.20356
997.75661	0.19729
996.47084	0.19092
995.18507	0.18449
993.89930	0.17803
992.61353	0.17159
991.32777	0.16523
990.04200	0.15897
988.75623	0.15284
987.47046	0.14683
986.18469	0.14098
984.89892	0.13535
983.61315	0.13004
982.32738	0.12507
981.04161	0.12040
979.75585	0.11599
978.47008	0.11185
977.18431	0.10804
975.89854	0.10458
974.61277	0.10150
973.32700	0.09888
972.04123	0.09680
970.75546	0.09530
969.46970	0.09436
968.18393	0.09394
966.89816	0.09399
965.61239	0.09441
964.32662	0.09508
963.04085	0.09581
961.75508	0.09642
960.46931	0.09664
959.18354	0.09627
957.89778	0.09522
956.61201	0.09359
955.32624	0.09156
954.04047	0.08927
952.75470	0.08684
951.46893	0.08437
950.18316	0.08195
948.89739	0.07962
947.61163	0.07740
946.32586	0.07525
945.04009	0.07317
943.75432	0.07114
942.46855	0.06914
941.18278	0.06717
939.89701	0.06522
938.61124	0.06336
937.32547	0.06164
936.03971	0.06011
934.75394	0.05878
933.46817	0.05763
932.18240	0.05657
930.89663	0.05550
929.61086	0.05438
928.32509	0.05327
927.03932	0.05231
925.75356	0.05154
924.46779	0.05087
923.18202	0.05021
921.89625	0.04953
920.61048	0.04887
919.32471	0.04823
918.03894	0.04759
916.75317	0.04690
915.46740	0.04621
914.18164	0.04558
912.89587	0.04510
911.61010	0.04474
910.32433	0.04440
909.03856	0.04399
907.75279	0.04351
906.46702	0.04302
905.18125	0.04254
903.89549	0.04215
902.60972	0.04188
901.32395	0.04169
900.03818	0.04144
898.75241	0.04104
897.46664	0.04058
896.18087	0.04024
894.89510	0.04010
893.60933	0.04014
892.32357	0.04022
891.03780	0.04025
889.75203	0.04024
888.46626	0.04035
887.18049	0.04073
885.89472	0.04157
884.60895	0.04306
883.32318	0.04527
882.03742	0.04803
880.75165	0.05086
879.46588	0.05325
878.18011	0.05493
876.89434	0.05610
875.60857	0.05714
874.32280	0.05825
873.03703	0.05924
871.75126	0.05974
870.46550	0.05951
869.17973	0.05858
867.89396	0.05715
866.60819	0.05541
865.32242	0.05350
864.03665	0.05153
862.75088	0.04958
861.46511	0.04777
860.17935	0.04615
858.89358	0.04478
857.60781	0.04363
856.32204	0.04263
855.03627	0.04171
853.75050	0.04084
852.46473	0.04007
851.17896	0.03946
849.89319	0.03900
848.60743	0.03861
847.32166	0.03819
846.03589	0.03772
844.75012	0.03725
843.46435	0.03686
842.17858	0.03657
840.89281	0.03633
839.60704	0.03611
838.32128	0.03586
837.03551	0.03556
835.74974	0.03521
834.46397	0.03488
833.17820	0.03464
831.89243	0.03449
830.60666	0.03437
829.32089	0.03422
828.03512	0.03404
826.74936	0.03389
825.46359	0.03377
824.17782	0.03366
822.89205	0.03354
821.60628	0.03342
820.32051	0.03335
819.03474	0.03330
817.74897	0.03327
816.46321	0.03326
815.17744	0.03328
813.89167	0.03333
812.60590	0.03334
811.32013	0.03328
810.03436	0.03316
808.74859	0.03302
807.46282	0.03291
806.17705	0.03284
804.89129	0.03283
803.60552	0.03282
802.31975	0.03276
801.03398	0.03266
799.74821	0.03253
798.46244	0.03244
797.17667	0.03237
795.89090	0.03231
794.60513	0.03224
793.31937	0.03218
792.03360	0.03218
790.74783	0.03227
789.46206	0.03239
788.17629	0.03242
786.89052	0.03230
785.60475	0.03208
784.31898	0.03185
783.03322	0.03166
781.74745	0.03157
780.46168	0.03161
779.17591	0.03176
777.89014	0.03197
776.60437	0.03212
775.31860	0.03214
774.03283	0.03207
772.74706	0.03197
771.46130	0.03189
770.17553	0.03183
768.88976	0.03180
767.60399	0.03179
766.31822	0.03182
765.03245	0.03186
763.74668	0.03190
762.46091	0.03193
761.17515	0.03199
759.88938	0.03209
758.60361	0.03219
757.31784	0.03220
756.03207	0.03210
754.74630	0.03195
753.46053	0.03185
752.17476	0.03190
750.88899	0.03206
749.60323	0.03224
748.31746	0.03232
747.03169	0.03226
745.74592	0.03213
744.46015	0.03199
743.17438	0.03190
741.88861	0.03184
740.60284	0.03176
739.31708	0.03163
738.03131	0.03154
736.74554	0.03159
735.45977	0.03175
734.17400	0.03184
732.88823	0.03168
731.60246	0.03131
730.31669	0.03091
729.03092	0.03071
727.74516	0.03075
726.45939	0.03098
725.17362	0.03125
723.88785	0.03142
722.60208	0.03156
721.31631	0.03163
720.03054	0.03163
718.74477	0.03159
717.45901	0.03154
716.17324	0.03150
714.88747	0.03149
713.60170	0.03150
712.31593	0.03151
711.03016	0.03151
709.74439	0.03148
708.45862	0.03141
707.17285	0.03132
705.88709	0.03123
704.60132	0.03116
703.31555	0.03116
702.02978	0.03120
700.74401	0.03127
699.45824	0.03133
698.17247	0.03134
696.88670	0.03131
695.60094	0.03125
694.31517	0.03120
693.02940	0.03117
691.74363	0.03118
690.45786	0.03125
689.17209	0.03136
687.88632	0.03146
686.60055	0.03148
685.31478	0.03138
684.02902	0.03117
682.74325	0.03095
681.45748	0.03076
680.17171	0.03062
678.88594	0.03052
677.60017	0.03046
676.31440	0.03045
675.02863	0.03049
673.74287	0.03059
672.45710	0.03077
671.17133	0.03100
669.88556	0.03123
668.59979	0.03129
667.31402	0.03112
666.02825	0.03097
664.74248	0.03075
663.45671	0.03051
662.17095	0.03030
660.88518	0.03013
659.59941	0.03002
658.31364	0.02997
657.02787	0.02998
655.74210	0.03002
654.45633	0.03003
653.17056	0.02999
651.88480	0.02991
650.59903	0.02984
649.31326	0.02982
648.02749	0.02989
646.74172	0.03001
645.45595	0.03012
644.17018	0.03018
642.88441	0.03021
641.59864	0.03029
640.31288	0.03047
639.02711	0.03070
637.74134	0.03097
636.45557	0.03129
635.16980	0.03165
633.88403	0.03204
632.59826	0.03236
631.31249	0.03289
630.02673	0.03472
628.74096	0.03742
627.45519	0.03688
626.16942	0.04016
624.88365	0.04605
623.59788	0.05172
622.31211	0.05596
621.02634	0.05827
619.74057	0.05906
618.45481	0.05947
617.16904	0.06041
615.88327	0.06178
614.59750	0.06301
613.31173	0.06428
612.02596	0.06697
610.74019	0.07247
609.45442	0.08029
608.16866	0.08801
606.88289	0.09352
605.59712	0.09671
604.31135	0.09875
603.02558	0.10042
601.73981	0.10138
600.45404	0.10086
599.16827	0.09864
597.88250	0.09529
596.59674	0.09163
595.31097	0.08828
594.02520	0.08558
592.73943	0.08359
591.45366	0.08228
590.16789	0.08157
588.88212	0.08144
587.59635	0.08190
586.31059	0.08287
585.02482	0.08420
583.73905	0.08574
582.45328	0.08749
581.16751	0.08954
579.88174	0.09196
578.59597	0.09472
577.31020	0.09764
576.02443	0.10054
574.73867	0.10333
573.45290	0.10601
572.16713	0.10869
570.88136	0.11145
569.59559	0.11440
568.30982	0.11763
567.02405	0.12113
565.73828	0.12472
564.45251	0.12797
563.16675	0.13040
561.88098	0.13154
560.59521	0.13112
559.30944	0.12903
558.02367	0.12542
556.73790	0.12063
555.45213	0.11507
554.16636	0.10920
552.88060	0.10338
551.59483	0.09780
550.30906	0.09249
549.02329	0.08744
547.73752	0.08272
546.45175	0.07848
545.16598	0.07481
543.88021	0.07166
542.59444	0.06887
541.30868	0.06629
540.02291	0.06385
538.73714	0.06153
537.45137	0.05936
536.16560	0.05740
534.87983	0.05571
533.59406	0.05423
532.30829	0.05281
531.02253	0.05135
529.73676	0.04986
528.45099	0.04843
527.16522	0.04714
525.87945	0.04601
524.59368	0.04497
523.30791	0.04395
522.02214	0.04291
520.73637	0.04188
519.45061	0.04096
518.16484	0.04019
516.87907	0.03950
515.59330	0.03879
514.30753	0.03801
513.02176	0.03725
511.73599	0.03660
510.45022	0.03609
509.16446	0.03564
507.87869	0.03514
506.59292	0.03454
505.30715	0.03387
504.02138	0.03325
502.73561	0.03277
501.44984	0.03238
500.16407	0.03202
498.87830	0.03163
497.59254	0.03122
496.30677	0.03085
495.02100	0.03056
493.73523	0.03039
492.44946	0.03033
491.16369	0.03032
489.87792	0.03032
488.59215	0.03028
487.30639	0.03015
486.02062	0.02990
484.73485	0.02957
483.44908	0.02926
482.16331	0.02907
480.87754	0.02906
479.59177	0.02921
478.30600	0.02946
477.02023	0.02975
475.73447	0.03002
474.44870	0.03023
473.16293	0.03036
471.87716	0.03039
470.59139	0.03032
469.30562	0.03017
468.01985	0.02998
466.73408	0.02978
465.44832	0.02958
464.16255	0.02937
462.87678	0.02911
461.59101	0.02880
460.30524	0.02849
459.01947	0.02823
457.73370	0.02804
456.44793	0.02787
455.16216	0.02764
453.87640	0.02736
452.59063	0.02702
451.30486	0.02668
450.01909	0.02638
448.73332	0.02617
447.44755	0.02607
446.16178	0.02605
444.87601	0.02601
443.59025	0.02591
442.30448	0.02573
441.01871	0.02552
439.73294	0.02532
438.44717	0.02518
437.16140	0.02510
435.87563	0.02509
434.58986	0.02511
433.30409	0.02513
432.01833	0.02513
430.73256	0.02516
429.44679	0.02522
428.16102	0.02528
426.87525	0.02526
425.58948	0.02512
424.30371	0.02488
423.01794	0.02462
421.73218	0.02441
420.44641	0.02427
419.16064	0.02416
417.87487	0.02406
416.58910	0.02397
415.30333	0.02389
414.01756	0.02377
412.73179	0.02363
411.44602	0.02351
410.16026	0.02348
408.87449	0.02357
407.58872	0.02376
406.30295	0.02398
405.01718	0.02414
403.73141	0.02421
402.44564	0.02423
401.15987	0.02428
399.87411	0.02439
