3997.45528	-0.02244
3996.16951	-0.02309
3994.88374	-0.02355
3993.59798	-0.02362
3992.31221	-0.02324
3991.02644	-0.02258
3989.74067	-0.02185
3988.45490	-0.02114
3987.16913	-0.02054
3985.88336	-0.02027
3984.59759	-0.02050
3983.31183	-0.02098
3982.02606	-0.02112
3980.74029	-0.02056
3979.45452	-0.01947
3978.16875	-0.01831
3976.88298	-0.01750
3975.59721	-0.01728
3974.31144	-0.01763
3973.02567	-0.01826
3971.73991	-0.01873
3970.45414	-0.01884
3969.16837	-0.01868
3967.88260	-0.01847
3966.59683	-0.01838
3965.31106	-0.01839
3964.02529	-0.01830
3962.73952	-0.01779
3961.45376	-0.01672
3960.16799	-0.01549
3958.88222	-0.01474
3957.59645	-0.01480
3956.31068	-0.01537
3955.02491	-0.01591
3953.73914	-0.01604
3952.45337	-0.01580
3951.16760	-0.01540
3949.88184	-0.01505
3948.59607	-0.01487
3947.31030	-0.01491
3946.02453	-0.01517
3944.73876	-0.01543
3943.45299	-0.01540
3942.16722	-0.01489
3940.88145	-0.01411
3939.59569	-0.01347
3938.30992	-0.01326
3937.02415	-0.01343
3935.73838	-0.01376
3934.45261	-0.01404
3933.16684	-0.01425
3931.88107	-0.01449
3930.59530	-0.01486
3929.30953	-0.01518
3928.02377	-0.01516
3926.73800	-0.01469
3925.45223	-0.01391
3924.16646	-0.01310
3922.88069	-0.01254
3921.59492	-0.01240
3920.30915	-0.01269
3919.02338	-0.01325
3917.73762	-0.01374
3916.45185	-0.01380
3915.16608	-0.01336
3913.88031	-0.01274
3912.59454	-0.01230
3911.30877	-0.01215
3910.02300	-0.01216
3908.73723	-0.01208
3907.45146	-0.01182
3906.16570	-0.01156
3904.87993	-0.01144
3903.59416	-0.01147
3902.30839	-0.01167
3901.02262	-0.01210
3899.73685	-0.01266
3898.45108	-0.01303
3897.16531	-0.01297
3895.87955	-0.01251
3894.59378	-0.01185
3893.30801	-0.01131
3892.02224	-0.01103
3890.73647	-0.01092
3889.45070	-0.01091
3888.16493	-0.01106
3886.87916	-0.01118
3885.59339	-0.01084
3884.30763	-0.01009
3883.02186	-0.00957
3881.73609	-0.00970
3880.45032	-0.01021
3879.16455	-0.01063
3877.87878	-0.01080
3876.59301	-0.01073
3875.30724	-0.01034
3874.02148	-0.00970
3872.73571	-0.00926
3871.44994	-0.00935
3870.16417	-0.00957
3868.87840	-0.00935
3867.59263	-0.00881
3866.30686	-0.00844
3865.02109	-0.00837
3863.73532	-0.00858
3862.44956	-0.00905
3861.16379	-0.00944
3859.87802	-0.00925
3858.59225	-0.00842
3857.30648	-0.00767
3856.02071	-0.00773
3854.73494	-0.00837
3853.44917	-0.00855
3852.16341	-0.00784
3850.87764	-0.00679
3849.59187	-0.00591
3848.30610	-0.00519
3847.02033	-0.00463
3845.73456	-0.00447
3844.44879	-0.00473
3843.16302	-0.00514
3841.87725	-0.00549
3840.59149	-0.00594
3839.30572	-0.00657
3838.01995	-0.00696
3836.73418	-0.00669
3835.44841	-0.00592
3834.16264	-0.00519
3832.87687	-0.00489
3831.59110	-0.00514
3830.30534	-0.00587
3829.01957	-0.00675
3827.73380	-0.00731
3826.44803	-0.00719
3825.16226	-0.00661
3823.87649	-0.00620
3822.59072	-0.00615
3821.30495	-0.00599
3820.01918	-0.00545
3818.73342	-0.00507
3817.44765	-0.00527
3816.16188	-0.00565
3814.87611	-0.00582
3813.59034	-0.00621
3812.30457	-0.00715
3811.01880	-0.00819
3809.73303	-0.00883
3808.44726	-0.00891
3807.16150	-0.00837
3805.87573	-0.00737
3804.58996	-0.00665
3803.30419	-0.00670
3802.01842	-0.00691
3800.73265	-0.00633
3799.44688	-0.00517
3798.16111	-0.00450
3796.87535	-0.00464
3795.58958	-0.00504
3794.30381	-0.00518
3793.01804	-0.00505
3791.73227	-0.00491
3790.44650	-0.00503
3789.16073	-0.00542
3787.87496	-0.00581
3786.58919	-0.00593
3785.30343	-0.00576
3784.01766	-0.00546
3782.73189	-0.00526
3781.44612	-0.00524
3780.16035	-0.00525
3778.87458	-0.00520
3777.58881	-0.00524
3776.30304	-0.00553
3775.01728	-0.00586
3773.73151	-0.00590
3772.44574	-0.00562
3771.15997	-0.00526
3769.87420	-0.00495
3768.58843	-0.00484
3767.30266	-0.00513
3766.01689	-0.00583
3764.73112	-0.00658
3763.44536	-0.00710
3762.15959	-0.00732
3760.87382	-0.00723
3759.58805	-0.00686
3758.30228	-0.00644
3757.01651	-0.00624
3755.73074	-0.00639
3754.44497	-0.00676
3753.15921	-0.00693
3751.87344	-0.00647
3750.58767	-0.00550
3749.30190	-0.00448
3748.01613	-0.00387
3746.73036	-0.00408
3745.44459	-0.00487
3744.15882	-0.00516
3742.87305	-0.00476
3741.58729	-0.00464
3740.30152	-0.00521
3739.01575	-0.00596
3737.72998	-0.00653
3736.44421	-0.00680
3735.15844	-0.00701
3733.87267	-0.00731
3732.58690	-0.00802
3731.30114	-0.00896
3730.01537	-0.00969
3728.72960	-0.01018
3727.44383	-0.01019
3726.15806	-0.00976
3724.87229	-0.00934
3723.58652	-0.00932
3722.30075	-0.01005
3721.01498	-0.01102
3719.72922	-0.01123
3718.44345	-0.01041
3717.15768	-0.00910
3715.87191	-0.00814
3714.58614	-0.00780
3713.30037	-0.00758
3712.01460	-0.00741
3710.72883	-0.00725
3709.44307	-0.00698
3708.15730	-0.00720
3706.87153	-0.00779
3705.58576	-0.00851
3704.29999	-0.00909
3703.01422	-0.00922
3701.72845	-0.00878
3700.44268	-0.00804
3699.15691	-0.00741
3697.87115	-0.00715
3696.58538	-0.00716
3695.29961	-0.00724
3694.01384	-0.00704
3692.72807	-0.00672
3691.44230	-0.00639
3690.15653	-0.00624
3688.87076	-0.00643
3687.58500	-0.00655
3686.29923	-0.00634
3685.01346	-0.00625
3683.72769	-0.00622
3682.44192	-0.00592
3681.15615	-0.00539
3679.87038	-0.00488
3678.58461	-0.00464
3677.29884	-0.00463
3676.01308	-0.00413
3674.72731	-0.00292
3673.44154	-0.00210
3672.15577	-0.00265
3670.87000	-0.00398
3669.58423	-0.00466
3668.29846	-0.00442
3667.01269	-0.00410
3665.72693	-0.00414
3664.44116	-0.00432
3663.15539	-0.00420
3661.86962	-0.00374
3660.58385	-0.00315
3659.29808	-0.00259
3658.01231	-0.00214
3656.72654	-0.00167
3655.44077	-0.00109
3654.15501	-0.00067
3652.86924	-0.00068
3651.58347	-0.00086
3650.29770	-0.00060
3649.01193	0.00023
3647.72616	0.00107
3646.44039	0.00134
3645.15462	0.00101
3643.86886	0.00040
3642.58309	-0.00013
3641.29732	-0.00046
3640.01155	-0.00072
3638.72578	-0.00098
3637.44001	-0.00120
3636.15424	-0.00133
3634.86847	-0.00113
3633.58270	-0.00048
3632.29694	0.00060
3631.01117	0.00176
3629.72540	0.00248
3628.43963	0.00281
3627.15386	0.00277
3625.86809	0.00249
3624.58232	0.00211
3623.29655	0.00217
3622.01079	0.00241
3620.72502	0.00251
3619.43925	0.00234
3618.15348	0.00231
3616.86771	0.00265
3615.58194	0.00309
3614.29617	0.00354
3613.01040	0.00423
3611.72463	0.00521
3610.43887	0.00579
3609.15310	0.00560
3607.86733	0.00499
3606.58156	0.00459
3605.29579	0.00446
3604.01002	0.00446
3602.72425	0.00486
3601.43848	0.00576
3600.15272	0.00698
3598.86695	0.00799
3597.58118	0.00847
3596.29541	0.00811
3595.00964	0.00758
3593.72387	0.00738
3592.43810	0.00726
3591.15233	0.00726
3589.86656	0.00745
3588.58080	0.00773
3587.29503	0.00839
3586.00926	0.00918
3584.72349	0.00960
3583.43772	0.00968
3582.15195	0.00983
3580.86618	0.01032
3579.58041	0.01109
3578.29464	0.01186
3577.00888	0.01246
3575.72311	0.01278
3574.43734	0.01282
3573.15157	0.01263
3571.86580	0.01242
3570.58003	0.01231
3569.29426	0.01222
3568.00849	0.01214
3566.72273	0.01219
3565.43696	0.01257
3564.15119	0.01343
3562.86542	0.01454
3561.57965	0.01555
3560.29388	0.01622
3559.00811	0.01654
3557.72234	0.01665
3556.43657	0.01669
3555.15081	0.01676
3553.86504	0.01696
3552.57927	0.01739
3551.29350	0.01796
3550.00773	0.01846
3548.72196	0.01875
3547.43619	0.01887
3546.15042	0.01883
3544.86466	0.01846
3543.57889	0.01767
3542.29312	0.01678
3541.00735	0.01634
3539.72158	0.01667
3538.43581	0.01759
3537.15004	0.01870
3535.86427	0.01967
3534.57850	0.02029
3533.29274	0.02046
3532.00697	0.02025
3530.72120	0.01998
3529.43543	0.02005
3528.14966	0.02051
3526.86389	0.02106
3525.57812	0.02140
3524.29235	0.02151
3523.00659	0.02160
3521.72082	0.02171
3520.43505	0.02173
3519.14928	0.02159
3517.86351	0.02144
3516.57774	0.02153
3515.29197	0.02197
3514.00620	0.02265
3512.72043	0.02335
3511.43467	0.02384
3510.14890	0.02395
3508.86313	0.02369
3507.57736	0.02328
3506.29159	0.02308
3505.00582	0.02333
3503.72005	0.02390
3502.43428	0.02439
3501.14852	0.02459
3499.86275	0.02469
3498.57698	0.02501
3497.29121	0.02567
3496.00544	0.02647
3494.71967	0.02716
3493.43390	0.02759
3492.14813	0.02777
3490.86236	0.02768
3489.57660	0.02733
3488.29083	0.02687
3487.00506	0.02660
3485.71929	0.02677
3484.43352	0.02736
3483.14775	0.02808
3481.86198	0.02857
3480.57621	0.02864
3479.29045	0.02840
3478.00468	0.02814
3476.71891	0.02808
3475.43314	0.02825
3474.14737	0.02860
3472.86160	0.02908
3471.57583	0.02953
3470.29006	0.02976
3469.00429	0.02970
3467.71853	0.02951
3466.43276	0.02937
3465.14699	0.02927
3463.86122	0.02908
3462.57545	0.02880
3461.28968	0.02858
3460.00391	0.02859
3458.71814	0.02885
3457.43238	0.02934
3456.14661	0.03004
3454.86084	0.03074
3453.57507	0.03119
3452.28930	0.03122
3451.00353	0.03092
3449.71776	0.03052
3448.43199	0.03027
3447.14622	0.03030
3445.86046	0.03061
3444.57469	0.03108
3443.28892	0.03168
3442.00315	0.03244
3440.71738	0.03331
3439.43161	0.03408
3438.14584	0.03450
3436.86007	0.03443
3435.57431	0.03400
3434.28854	0.03344
3433.00277	0.03303
3431.71700	0.03289
3430.43123	0.03303
3429.14546	0.03342
3427.85969	0.03396
3426.57392	0.03448
3425.28815	0.03485
3424.00239	0.03506
3422.71662	0.03517
3421.43085	0.03521
3420.14508	0.03527
3418.85931	0.03547
3417.57354	0.03581
3416.28777	0.03610
3415.00200	0.03611
3413.71624	0.03593
3412.43047	0.03589
3411.14470	0.03619
3409.85893	0.03667
3408.57316	0.03698
3407.28739	0.03705
3406.00162	0.03706
3404.71585	0.03712
3403.43008	0.03714
3402.14432	0.03700
3400.85855	0.03677
3399.57278	0.03664
3398.28701	0.03674
3397.00124	0.03698
3395.71547	0.03724
3394.42970	0.03750
3393.14393	0.03769
3391.85817	0.03773
3390.57240	0.03760
3389.28663	0.03740
3388.00086	0.03733
3386.71509	0.03742
3385.42932	0.03760
3384.14355	0.03774
3382.85778	0.03782
3381.57201	0.03785
3380.28625	0.03781
3379.00048	0.03771
3377.71471	0.03758
3376.42894	0.03750
3375.14317	0.03757
3373.85740	0.03784
3372.57163	0.03830
3371.28586	0.03883
3370.00010	0.03924
3368.71433	0.03938
3367.42856	0.03929
3366.14279	0.03910
3364.85702	0.03891
3363.57125	0.03874
3362.28548	0.03856
3360.99971	0.03840
3359.71394	0.03835
3358.42818	0.03842
3357.14241	0.03862
3355.85664	0.03892
3354.57087	0.03930
3353.28510	0.03965
3351.99933	0.03988
3350.71356	0.03994
3349.42779	0.03995
3348.14202	0.04004
3346.85626	0.04018
3345.57049	0.04021
3344.28472	0.04004
3342.99895	0.03980
3341.71318	0.03968
3340.42741	0.03979
3339.14164	0.04007
3337.85587	0.04044
3336.57011	0.04080
3335.28434	0.04111
3333.99857	0.04130
3332.71280	0.04129
3331.42703	0.04100
3330.14126	0.04043
3328.85549	0.03975
3327.56972	0.03927
3326.28395	0.03922
3324.99819	0.03968
3323.71242	0.04051
3322.42665	0.04140
3321.14088	0.04210
3319.85511	0.04239
3318.56934	0.04222
3317.28357	0.04173
3315.99780	0.04118
3314.71204	0.04080
3313.42627	0.04066
3312.14050	0.04068
3310.85473	0.04079
3309.56896	0.04089
3308.28319	0.04083
3306.99742	0.04049
3305.71165	0.03995
3304.42588	0.03950
3303.14012	0.03930
3301.85435	0.03934
3300.56858	0.03950
3299.28281	0.03968
3297.99704	0.03981
3296.71127	0.03986
3295.42550	0.03989
3294.13973	0.04003
3292.85397	0.04039
3291.56820	0.04091
3290.28243	0.04138
3288.99666	0.04149
3287.71089	0.04113
3286.42512	0.04051
3285.13935	0.04009
3283.85358	0.04019
3282.56781	0.04068
3281.28205	0.04109
3279.99628	0.04106
3278.71051	0.04056
3277.42474	0.03989
3276.13897	0.03941
3274.85320	0.03937
3273.56743	0.03977
3272.28166	0.04037
3270.99590	0.04088
3269.71013	0.04112
3268.42436	0.04112
3267.13859	0.04108
3265.85282	0.04117
3264.56705	0.04135
3263.28128	0.04136
3261.99551	0.04099
3260.70974	0.04037
3259.42398	0.03993
3258.13821	0.03999
3256.85244	0.04048
3255.56667	0.04097
3254.28090	0.04104
3252.99513	0.04061
3251.70936	0.03992
3250.42359	0.03927
3249.13783	0.03883
3247.85206	0.03860
3246.56629	0.03855
3245.28052	0.03868
3243.99475	0.03898
3242.70898	0.03934
3241.42321	0.03955
3240.13744	0.03948
3238.85167	0.03918
3237.56591	0.03892
3236.28014	0.03894
3234.99437	0.03928
3233.70860	0.03970
3232.42283	0.03990
3231.13706	0.03980
3229.85129	0.03955
3228.56552	0.03935
3227.27976	0.03925
3225.99399	0.03920
3224.70822	0.03911
3223.42245	0.03891
3222.13668	0.03858
3220.85091	0.03821
3219.56514	0.03798
3218.27937	0.03800
3216.99360	0.03827
3215.70784	0.03868
3214.42207	0.03906
3213.13630	0.03927
3211.85053	0.03925
3210.56476	0.03900
3209.27899	0.03864
3207.99322	0.03823
3206.70745	0.03785
3205.42169	0.03758
3204.13592	0.03753
3202.85015	0.03767
3201.56438	0.03793
3200.27861	0.03818
3198.99284	0.03838
3197.70707	0.03849
3196.42130	0.03850
3195.13553	0.03841
3193.84977	0.03832
3192.56400	0.03838
3191.27823	0.03869
3189.99246	0.03914
3188.70669	0.03945
3187.42092	0.03942
3186.13515	0.03908
3184.84938	0.03860
3183.56362	0.03818
3182.27785	0.03798
3180.99208	0.03808
3179.70631	0.03837
3178.42054	0.03857
3177.13477	0.03846
3175.84900	0.03805
3174.56323	0.03761
3173.27746	0.03734
3171.99170	0.03730
3170.70593	0.03736
3169.42016	0.03741
3168.13439	0.03745
3166.84862	0.03757
3165.56285	0.03781
3164.27708	0.03803
3162.99131	0.03808
3161.70555	0.03787
3160.41978	0.03748
3159.13401	0.03713
3157.84824	0.03699
3156.56247	0.03710
3155.27670	0.03730
3153.99093	0.03736
3152.70516	0.03722
3151.41939	0.03699
3150.13363	0.03683
3148.84786	0.03685
3147.56209	0.03699
3146.27632	0.03713
3144.99055	0.03718
3143.70478	0.03714
3142.41901	0.03702
3141.13324	0.03683
3139.84748	0.03663
3138.56171	0.03647
3137.27594	0.03633
3135.99017	0.03610
3134.70440	0.03578
3133.41863	0.03546
3132.13286	0.03525
3130.84709	0.03514
3129.56132	0.03512
3128.27556	0.03523
3126.98979	0.03548
3125.70402	0.03586
3124.41825	0.03629
3123.13248	0.03671
3121.84671	0.03697
3120.56094	0.03694
3119.27517	0.03658
3117.98940	0.03613
3116.70364	0.03593
3115.41787	0.03613
3114.13210	0.03652
3112.84633	0.03675
3111.56056	0.03664
3110.27479	0.03625
3108.98902	0.03580
3107.70325	0.03548
3106.41749	0.03536
3105.13172	0.03539
3103.84595	0.03549
3102.56018	0.03560
3101.27441	0.03575
3099.98864	0.03595
3098.70287	0.03608
3097.41710	0.03595
3096.13133	0.03557
3094.84557	0.03519
3093.55980	0.03504
3092.27403	0.03513
3090.98826	0.03529
3089.70249	0.03548
3088.41672	0.03573
3087.13095	0.03608
3085.84518	0.03646
3084.55942	0.03677
3083.27365	0.03691
3081.98788	0.03684
3080.70211	0.03659
3079.41634	0.03629
3078.13057	0.03601
3076.84480	0.03577
3075.55903	0.03552
3074.27326	0.03531
3072.98750	0.03521
3071.70173	0.03520
3070.41596	0.03516
3069.13019	0.03504
3067.84442	0.03491
3066.55865	0.03492
3065.27288	0.03513
3063.98711	0.03547
3062.70135	0.03575
3061.41558	0.03580
3060.12981	0.03558
3058.84404	0.03524
3057.55827	0.03497
3056.27250	0.03481
3054.98673	0.03468
3053.70096	0.03448
3052.41519	0.03422
3051.12943	0.03400
3049.84366	0.03391
3048.55789	0.03399
3047.27212	0.03417
3045.98635	0.03431
3044.70058	0.03423
3043.41481	0.03387
3042.12904	0.03335
3040.84328	0.03294
3039.55751	0.03286
3038.27174	0.03310
3036.98597	0.03341
3035.70020	0.03360
3034.41443	0.03367
3033.12866	0.03375
3031.84289	0.03390
3030.55712	0.03411
3029.27136	0.03431
3027.98559	0.03440
3026.69982	0.03435
3025.41405	0.03415
3024.12828	0.03384
3022.84251	0.03353
3021.55674	0.03342
3020.27097	0.03363
3018.98521	0.03406
3017.69944	0.03441
3016.41367	0.03444
3015.12790	0.03417
3013.84213	0.03384
3012.55636	0.03360
3011.27059	0.03349
3009.98482	0.03352
3008.69905	0.03369
3007.41329	0.03396
3006.12752	0.03415
3004.84175	0.03411
3003.55598	0.03382
3002.27021	0.03339
3000.98444	0.03294
2999.69867	0.03258
2998.41290	0.03247
2997.12714	0.03257
2995.84137	0.03275
2994.55560	0.03277
2993.26983	0.03259
2991.98406	0.03240
2990.69829	0.03245
2989.41252	0.03275
2988.12675	0.03307
2986.84098	0.03327
2985.55522	0.03347
2984.26945	0.03380
2982.98368	0.03418
2981.69791	0.03446
2980.41214	0.03464
2979.12637	0.03487
2977.84060	0.03527
2976.55483	0.03578
2975.26907	0.03629
2973.98330	0.03669
2972.69753	0.03696
2971.41176	0.03719
2970.12599	0.03749
2968.84022	0.03789
2967.55445	0.03840
2966.26868	0.03900
2964.98291	0.03963
2963.69715	0.04018
2962.41138	0.04061
2961.12561	0.04096
2959.83984	0.04128
2958.55407	0.04157
2957.26830	0.04184
2955.98253	0.04213
2954.69676	0.04241
2953.41100	0.04259
2952.12523	0.04263
2950.83946	0.04272
2949.55369	0.04302
2948.26792	0.04347
2946.98215	0.04381
2945.69638	0.04386
2944.41061	0.04362
2943.12484	0.04328
2941.83908	0.04304
2940.55331	0.04308
2939.26754	0.04348
2937.98177	0.04413
2936.69600	0.04481
2935.41023	0.04528
2934.12446	0.04550
2932.83869	0.04562
2931.55293	0.04585
2930.26716	0.04625
2928.98139	0.04674
2927.69562	0.04721
2926.40985	0.04756
2925.12408	0.04779
2923.83831	0.04787
2922.55254	0.04787
2921.26677	0.04790
2919.98101	0.04793
2918.69524	0.04779
2917.40947	0.04737
2916.12370	0.04673
2914.83793	0.04601
2913.55216	0.04532
2912.26639	0.04473
2910.98062	0.04437
2909.69486	0.04426
2908.40909	0.04430
2907.12332	0.04423
2905.83755	0.04392
2904.55178	0.04339
2903.26601	0.04284
2901.98024	0.04242
2900.69447	0.04212
2899.40870	0.04182
2898.12294	0.04146
2896.83717	0.04109
2895.55140	0.04076
2894.26563	0.04045
2892.97986	0.04006
2891.69409	0.03957
2890.40832	0.03907
2889.12255	0.03875
2887.83678	0.03872
2886.55102	0.03889
2885.26525	0.03903
2883.97948	0.03891
2882.69371	0.03852
2881.40794	0.03809
2880.12217	0.03795
2878.83640	0.03822
2877.55063	0.03875
2876.26487	0.03920
2874.97910	0.03935
2873.69333	0.03925
2872.40756	0.03915
2871.12179	0.03921
2869.83602	0.03939
2868.55025	0.03957
2867.26448	0.03966
2865.97871	0.03971
2864.69295	0.03977
2863.40718	0.03987
2862.12141	0.04000
2860.83564	0.04012
2859.54987	0.04024
2858.26410	0.04033
2856.97833	0.04034
2855.69256	0.04024
2854.40680	0.04003
2853.12103	0.03981
2851.83526	0.03961
2850.54949	0.03938
2849.26372	0.03903
2847.97795	0.03850
2846.69218	0.03785
2845.40641	0.03719
2844.12064	0.03662
2842.83488	0.03619
2841.54911	0.03591
2840.26334	0.03571
2838.97757	0.03547
2837.69180	0.03515
2836.40603	0.03479
2835.12026	0.03441
2833.83449	0.03402
2832.54873	0.03360
2831.26296	0.03321
2829.97719	0.03294
2828.69142	0.03282
2827.40565	0.03274
2826.11988	0.03257
2824.83411	0.03223
2823.54834	0.03183
2822.26257	0.03152
2820.97681	0.03135
2819.69104	0.03123
2818.40527	0.03106
2817.11950	0.03084
2815.83373	0.03065
2814.54796	0.03056
2813.26219	0.03060
2811.97642	0.03070
2810.69066	0.03079
2809.40489	0.03080
2808.11912	0.03073
2806.83335	0.03061
2805.54758	0.03046
2804.26181	0.03034
2802.97604	0.03026
2801.69027	0.03023
2800.40450	0.03022
2799.11874	0.03017
2797.83297	0.03006
2796.54720	0.02990
2795.26143	0.02971
2793.97566	0.02952
2792.68989	0.02933
2791.40412	0.02917
2790.11835	0.02910
2788.83259	0.02918
2787.54682	0.02935
2786.26105	0.02946
2784.97528	0.02943
2783.68951	0.02932
2782.40374	0.02922
2781.11797	0.02917
2779.83220	0.02912
2778.54643	0.02908
2777.26067	0.02902
2775.97490	0.02892
2774.68913	0.02876
2773.40336	0.02859
2772.11759	0.02848
2770.83182	0.02841
2769.54605	0.02832
2768.26028	0.02821
2766.97452	0.02820
2765.68875	0.02844
2764.40298	0.02887
2763.11721	0.02925
2761.83144	0.02930
2760.54567	0.02901
2759.25990	0.02863
2757.97413	0.02842
2756.68836	0.02845
2755.40260	0.02854
2754.11683	0.02846
2752.83106	0.02819
2751.54529	0.02783
2750.25952	0.02757
2748.97375	0.02750
2747.68798	0.02758
2746.40221	0.02771
2745.11645	0.02783
2743.83068	0.02796
2742.54491	0.02808
2741.25914	0.02811
2739.97337	0.02800
2738.68760	0.02787
2737.40183	0.02782
2736.11606	0.02785
2734.83029	0.02787
2733.54453	0.02787
2732.25876	0.02785
2730.97299	0.02778
2729.68722	0.02765
2728.40145	0.02753
2727.11568	0.02753
2725.82991	0.02759
2724.54414	0.02751
2723.25838	0.02724
2721.97261	0.02695
2720.68684	0.02687
2719.40107	0.02704
2718.11530	0.02730
2716.82953	0.02753
2715.54376	0.02770
2714.25799	0.02781
2712.97222	0.02781
2711.68646	0.02762
2710.40069	0.02731
2709.11492	0.02705
2707.82915	0.02693
2706.54338	0.02694
2705.25761	0.02700
2703.97184	0.02708
2702.68607	0.02714
2701.40031	0.02709
2700.11454	0.02691
2698.82877	0.02666
2697.54300	0.02648
2696.25723	0.02647
2694.97146	0.02660
2693.68569	0.02676
2692.39992	0.02690
2691.11415	0.02701
2689.82839	0.02704
2688.54262	0.02690
2687.25685	0.02659
2685.97108	0.02627
2684.68531	0.02609
2683.39954	0.02605
2682.11377	0.02608
2680.82800	0.02615
2679.54224	0.02626
2678.25647	0.02641
2676.97070	0.02649
2675.68493	0.02644
2674.39916	0.02628
2673.11339	0.02613
2671.82762	0.02608
2670.54185	0.02618
2669.25608	0.02635
2667.97032	0.02646
2666.68455	0.02641
2665.39878	0.02625
2664.11301	0.02614
2662.82724	0.02619
2661.54147	0.02634
2660.25570	0.02647
2658.96993	0.02644
2657.68417	0.02624
2656.39840	0.02597
2655.11263	0.02578
2653.82686	0.02572
2652.54109	0.02574
2651.25532	0.02577
2649.96955	0.02575
2648.68378	0.02566
2647.39801	0.02549
2646.11225	0.02531
2644.82648	0.02510
2643.54071	0.02480
2642.25494	0.02443
2640.96917	0.02413
2639.68340	0.02406
2638.39763	0.02416
2637.11186	0.02420
2635.82609	0.02401
2634.54033	0.02369
2633.25456	0.02346
2631.96879	0.02343
2630.68302	0.02351
2629.39725	0.02356
2628.11148	0.02353
2626.82571	0.02348
2625.53994	0.02346
2624.25418	0.02341
2622.96841	0.02319
2621.68264	0.02276
2620.39687	0.02228
2619.11110	0.02197
2617.82533	0.02197
2616.53956	0.02222
2615.25379	0.02257
2613.96802	0.02286
2612.68226	0.02292
2611.39649	0.02269
2610.11072	0.02231
2608.82495	0.02205
2607.53918	0.02207
2606.25341	0.02222
2604.96764	0.02224
2603.68187	0.02194
2602.39611	0.02140
2601.11034	0.02081
2599.82457	0.02044
2598.53880	0.02042
2597.25303	0.02067
2595.96726	0.02094
2594.68149	0.02108
2593.39572	0.02114
2592.10995	0.02119
2590.82419	0.02121
2589.53842	0.02112
2588.25265	0.02092
2586.96688	0.02073
2585.68111	0.02070
2584.39534	0.02085
2583.10957	0.02108
2581.82380	0.02120
2580.53804	0.02107
2579.25227	0.02072
2577.96650	0.02027
2576.68073	0.01992
2575.39496	0.01982
2574.10919	0.01991
2572.82342	0.01998
2571.53765	0.01979
2570.25188	0.01931
2568.96612	0.01874
2567.68035	0.01841
2566.39458	0.01850
2565.10881	0.01888
2563.82304	0.01934
2562.53727	0.01971
2561.25150	0.01992
2559.96573	0.01991
2558.67997	0.01971
2557.39420	0.01950
2556.10843	0.01947
2554.82266	0.01966
2553.53689	0.01994
2552.25112	0.02015
2550.96535	0.02017
2549.67958	0.01990
2548.39381	0.01941
2547.10805	0.01889
2545.82228	0.01853
2544.53651	0.01835
2543.25074	0.01827
2541.96497	0.01823
2540.67920	0.01824
2539.39343	0.01831
2538.10766	0.01835
2536.82190	0.01828
2535.53613	0.01814
2534.25036	0.01803
2532.96459	0.01803
2531.67882	0.01803
2530.39305	0.01789
2529.10728	0.01763
2527.82151	0.01746
2526.53574	0.01752
2525.24998	0.01776
2523.96421	0.01805
2522.67844	0.01831
2521.39267	0.01848
2520.10690	0.01853
2518.82113	0.01841
2517.53536	0.01820
2516.24959	0.01806
2514.96383	0.01806
2513.67806	0.01814
2512.39229	0.01817
2511.10652	0.01812
2509.82075	0.01805
2508.53498	0.01804
2507.24921	0.01812
2505.96344	0.01831
2504.67767	0.01865
2503.39191	0.01902
2502.10614	0.01912
2500.82037	0.01871
2499.53460	0.01794
2498.24883	0.01733
2496.96306	0.01724
2495.67729	0.01756
2494.39152	0.01794
2493.10576	0.01815
2491.81999	0.01824
2490.53422	0.01832
2489.24845	0.01844
2487.96268	0.01858
2486.67691	0.01864
2485.39114	0.01856
2484.10537	0.01832
2482.81960	0.01805
2481.53384	0.01788
2480.24807	0.01786
2478.96230	0.01786
2477.67653	0.01769
2476.39076	0.01730
2475.10499	0.01685
2473.81922	0.01659
2472.53345	0.01662
2471.24769	0.01683
2469.96192	0.01707
2468.67615	0.01728
2467.39038	0.01751
2466.10461	0.01782
2464.81884	0.01809
2463.53307	0.01815
2462.24730	0.01797
2460.96153	0.01775
2459.67577	0.01770
2458.39000	0.01785
2457.10423	0.01809
2455.81846	0.01827
2454.53269	0.01835
2453.24692	0.01842
2451.96115	0.01853
2450.67538	0.01862
2449.38962	0.01850
2448.10385	0.01816
2446.81808	0.01775
2445.53231	0.01751
2444.24654	0.01748
2442.96077	0.01753
2441.67500	0.01749
2440.38923	0.01730
2439.10346	0.01707
2437.81770	0.01690
2436.53193	0.01678
2435.24616	0.01668
2433.96039	0.01669
2432.67462	0.01689
2431.38885	0.01716
2430.10308	0.01727
2428.81731	0.01713
2427.53155	0.01690
2426.24578	0.01679
2424.96001	0.01686
2423.67424	0.01705
2422.38847	0.01722
2421.10270	0.01730
2419.81693	0.01733
2418.53116	0.01735
2417.24539	0.01734
2415.95963	0.01720
2414.67386	0.01694
2413.38809	0.01673
2412.10232	0.01683
2410.81655	0.01726
2409.53078	0.01774
2408.24501	0.01794
2406.95924	0.01778
2405.67347	0.01739
2404.38771	0.01695
2403.10194	0.01657
2401.81617	0.01640
2400.53040	0.01662
2399.24463	0.01797
2397.95886	0.01910
2396.67309	0.01951
2395.38732	0.01936
2394.10156	0.01886
2392.81579	0.01813
2391.53002	0.01731
2390.24425	0.01656
2388.95848	0.01602
2387.67271	0.01566
2386.38694	0.01538
2385.10117	0.01504
2383.81540	0.01462
2382.52964	0.01421
2381.24387	0.01386
2379.95810	0.01382
2378.67233	0.01394
2377.38656	0.01382
2376.10079	0.01398
2374.81502	0.01432
2373.52925	0.01409
2372.24349	0.01351
2370.95772	0.01226
2369.67195	0.01185
2368.38618	0.01190
2367.10041	0.01055
2365.81464	0.00829
2364.52887	0.00758
2363.24310	0.00736
2361.95733	0.00579
2360.67157	0.00378
2359.38580	0.00422
2358.10003	0.00609
2356.81426	0.00785
2355.52849	0.00935
2354.24272	0.00988
2352.95695	0.00966
2351.67118	0.00754
2350.38542	0.00234
2349.09965	-0.00093
2347.81388	0.00324
2346.52811	0.01012
2345.24234	0.01276
2343.95657	0.01126
2342.67080	0.01022
2341.38503	0.01031
2340.09926	0.01005
2338.81350	0.00951
2337.52773	0.00855
2336.24196	0.00853
2334.95619	0.00871
2333.67042	0.00821
2332.38465	0.00871
2331.09888	0.00940
2329.81311	0.00922
2328.52735	0.00985
2327.24158	0.01056
2325.95581	0.01107
2324.67004	0.01256
2323.38427	0.01415
2322.09850	0.01510
2320.81273	0.01623
2319.52696	0.01610
2318.24119	0.01474
2316.95543	0.01399
2315.66966	0.01418
2314.38389	0.01499
2313.09812	0.01563
2311.81235	0.01569
2310.52658	0.01574
2309.24081	0.01560
2307.95504	0.01534
2306.66928	0.01539
2305.38351	0.01505
2304.09774	0.01468
2302.81197	0.01467
2301.52620	0.01481
2300.24043	0.01489
2298.95466	0.01463
2297.66889	0.01427
2296.38312	0.01393
2295.09736	0.01377
2293.81159	0.01377
2292.52582	0.01380
2291.24005	0.01391
2289.95428	0.01401
2288.66851	0.01414
2287.38274	0.01430
2286.09697	0.01450
2284.81121	0.01470
2283.52544	0.01493
2282.23967	0.01517
2280.95390	0.01523
2279.66813	0.01506
2278.38236	0.01473
2277.09659	0.01449
2275.81082	0.01443
2274.52505	0.01441
2273.23929	0.01428
2271.95352	0.01390
2270.66775	0.01342
2269.38198	0.01308
2268.09621	0.01307
2266.81044	0.01323
2265.52467	0.01320
2264.23890	0.01267
2262.95314	0.01172
2261.66737	0.01088
2260.38160	0.01059
2259.09583	0.01081
2257.81006	0.01130
2256.52429	0.01161
2255.23852	0.01152
2253.95275	0.01107
2252.66698	0.01057
2251.38122	0.01032
2250.09545	0.01044
2248.80968	0.01082
2247.52391	0.01069
2246.23814	0.01046
2244.95237	0.01032
2243.66660	0.01043
2242.38083	0.01083
2241.09507	0.01137
2239.80930	0.01176
2238.52353	0.01191
2237.23776	0.01191
2235.95199	0.01181
2234.66622	0.01146
2233.38045	0.01070
2232.09468	0.00981
2230.80891	0.00929
2229.52315	0.00941
2228.23738	0.00990
2226.95161	0.01027
2225.66584	0.01028
2224.38007	0.00997
2223.09430	0.00946
2221.80853	0.00882
2220.52276	0.00814
2219.23700	0.00773
2217.95123	0.00793
2216.66546	0.00868
2215.37969	0.00940
2214.09392	0.00948
2212.80815	0.00884
2211.52238	0.00794
2210.23661	0.00726
2208.95084	0.00694
2207.66508	0.00697
2206.37931	0.00735
2205.09354	0.00800
2203.80777	0.00856
2202.52200	0.00861
2201.23623	0.00810
2199.95046	0.00748
2198.66469	0.00719
2197.37893	0.00739
2196.09316	0.00794
2194.80739	0.00866
2193.52162	0.00926
2192.23585	0.00942
2190.95008	0.00883
2189.66431	0.00741
2188.37854	0.00547
2187.09277	0.00370
2185.80701	0.00275
2184.52124	0.00274
2183.23547	0.00329
2181.94970	0.00410
2180.66393	0.00504
2179.37816	0.00593
2178.09239	0.00634
2176.80662	0.00594
2175.52085	0.00480
2174.23509	0.00352
2172.94932	0.00283
2171.66355	0.00306
2170.37778	0.00390
2169.09201	0.00470
2167.80624	0.00513
2166.52047	0.00518
2165.23470	0.00492
2163.94894	0.00435
2162.66317	0.00341
2161.37740	0.00199
2160.09163	0.00004
2158.80586	-0.00208
2157.52009	-0.00357
2156.23432	-0.00388
2154.94855	-0.00304
2153.66278	-0.00133
2152.37702	0.00098
2151.09125	0.00351
2149.80548	0.00560
2148.51971	0.00671
2147.23394	0.00683
2145.94817	0.00645
2144.66240	0.00603
2143.37663	0.00576
2142.09087	0.00566
2140.80510	0.00579
2139.51933	0.00616
2138.23356	0.00660
2136.94779	0.00687
2135.66202	0.00687
2134.37625	0.00676
2133.09048	0.00672
2131.80471	0.00680
2130.51895	0.00688
2129.23318	0.00681
2127.94741	0.00656
2126.66164	0.00630
2125.37587	0.00624
2124.09010	0.00645
2122.80433	0.00689
2121.51856	0.00755
2120.23280	0.00840
2118.94703	0.00923
2117.66126	0.00973
2116.37549	0.00975
2115.08972	0.00951
2113.80395	0.00929
2112.51818	0.00913
2111.23241	0.00881
2109.94664	0.00832
2108.66088	0.00792
2107.37511	0.00775
2106.08934	0.00773
2104.80357	0.00773
2103.51780	0.00781
2102.23203	0.00807
2100.94626	0.00845
2099.66049	0.00924
2098.37473	0.00928
2097.08896	0.00867
2095.80319	0.00809
2094.51742	0.00807
2093.23165	0.00861
2091.94588	0.00922
2090.66011	0.00929
2089.37434	0.00869
2088.08857	0.00781
2086.80281	0.00721
2085.51704	0.00708
2084.23127	0.00725
2082.94550	0.00747
2081.65973	0.00765
2080.37396	0.00782
2079.08819	0.00795
2077.80242	0.00796
2076.51666	0.00783
2075.23089	0.00762
2073.94512	0.00742
2072.65935	0.00728
2071.37358	0.00726
2070.08781	0.00737
2068.80204	0.00751
2067.51627	0.00746
2066.23050	0.00708
2064.94474	0.00656
2063.65897	0.00621
2062.37320	0.00621
2061.08743	0.00639
2059.80166	0.00641
2058.51589	0.00604
2057.23012	0.00539
2055.94435	0.00480
2054.65859	0.00470
2053.37282	0.00541
2052.08705	0.00683
2050.80128	0.00840
2049.51551	0.00942
2048.22974	0.00946
2046.94397	0.00859
2045.65820	0.00714
2044.37243	0.00561
2043.08667	0.00451
2041.80090	0.00420
2040.51513	0.00467
2039.22936	0.00543
2037.94359	0.00587
2036.65782	0.00581
2035.37205	0.00558
2034.08628	0.00558
2032.80052	0.00572
2031.51475	0.00541
2030.22898	0.00435
2028.94321	0.00300
2027.65744	0.00211
2026.37167	0.00196
2025.08590	0.00219
2023.80013	0.00238
2022.51436	0.00242
2021.22860	0.00249
2019.94283	0.00266
2018.65706	0.00290
2017.37129	0.00325
2016.08552	0.00377
2014.79975	0.00431
2013.51398	0.00459
2012.22821	0.00458
2010.94245	0.00451
2009.65668	0.00451
2008.37091	0.00432
2007.08514	0.00368
2005.79937	0.00287
2004.51360	0.00251
2003.22783	0.00283
2001.94206	0.00346
2000.65629	0.00378
1999.37053	0.00364
1998.08476	0.00345
1996.79899	0.00371
1995.51322	0.00449
1994.22745	0.00539
1992.94168	0.00598
1991.65591	0.00612
1990.37014	0.00607
1989.08438	0.00617
1987.79861	0.00664
1986.51284	0.00741
1985.22707	0.00821
1983.94130	0.00880
1982.65553	0.00907
1981.36976	0.00910
1980.08399	0.00898
1978.79822	0.00876
1977.51246	0.00845
1976.22669	0.00807
1974.94092	0.00768
1973.65515	0.00736
1972.36938	0.00716
1971.08361	0.00712
1969.79784	0.00720
1968.51207	0.00734
1967.22631	0.00751
1965.94054	0.00769
1964.65477	0.00773
1963.36900	0.00749
1962.08323	0.00704
1960.79746	0.00670
1959.51169	0.00667
1958.22592	0.00690
1956.94015	0.00725
1955.65439	0.00776
1954.36862	0.00842
1953.08285	0.00896
1951.79708	0.00905
1950.51131	0.00874
1949.22554	0.00835
1947.93977	0.00812
1946.65400	0.00798
1945.36823	0.00785
1944.08247	0.00786
1942.79670	0.00829
1941.51093	0.00911
1940.22516	0.00993
1938.93939	0.01037
1937.65362	0.01040
1936.36785	0.01029
1935.08208	0.01025
1933.79632	0.01026
1932.51055	0.01026
1931.22478	0.01013
1929.93901	0.00983
1928.65324	0.00943
1927.36747	0.00908
1926.08170	0.00891
1924.79593	0.00890
1923.51016	0.00900
1922.22440	0.00916
1920.93863	0.00936
1919.65286	0.00953
1918.36709	0.00956
1917.08132	0.00944
1915.79555	0.00930
1914.50978	0.00936
1913.22401	0.00972
1911.93825	0.01010
1910.65248	0.01017
1909.36671	0.00987
1908.08094	0.00951
1906.79517	0.00939
1905.50940	0.00952
1904.22363	0.00973
1902.93786	0.00993
1901.65209	0.01019
1900.36633	0.01053
1899.08056	0.01085
1897.79479	0.01100
1896.50902	0.01091
1895.22325	0.01066
1893.93748	0.01044
1892.65171	0.01037
1891.36594	0.01047
1890.08018	0.01069
1888.79441	0.01095
1887.50864	0.01117
1886.22287	0.01132
1884.93710	0.01139
1883.65133	0.01132
1882.36556	0.01110
1881.07979	0.01077
1879.79402	0.01041
1878.50826	0.01015
1877.22249	0.01008
1875.93672	0.01019
1874.65095	0.01041
1873.36518	0.01068
1872.07941	0.01095
1870.79364	0.01113
1869.50787	0.01117
1868.22211	0.01104
1866.93634	0.01082
1865.65057	0.01060
1864.36480	0.01052
1863.07903	0.01067
1861.79326	0.01096
1860.50749	0.01122
1859.22172	0.01134
1857.93595	0.01133
1856.65019	0.01127
1855.36442	0.01123
1854.07865	0.01115
1852.79288	0.01101
1851.50711	0.01086
1850.22134	0.01081
1848.93557	0.01095
1847.64980	0.01122
1846.36404	0.01143
1845.07827	0.01149
1843.79250	0.01149
1842.50673	0.01153
1841.22096	0.01153
1839.93519	0.01138
1838.64942	0.01115
1837.36365	0.01095
1836.07788	0.01088
1834.79212	0.01094
1833.50635	0.01107
1832.22058	0.01118
1830.93481	0.01128
1829.64904	0.01140
1828.36327	0.01150
1827.07750	0.01148
1825.79173	0.01138
1824.50597	0.01133
1823.22020	0.01137
1821.93443	0.01142
1820.64866	0.01135
1819.36289	0.01117
1818.07712	0.01092
1816.79135	0.01075
1815.50558	0.01077
1814.21981	0.01098
1812.93405	0.01123
1811.64828	0.01136
1810.36251	0.01131
1809.07674	0.01114
1807.79097	0.01095
1806.50520	0.01088
1805.21943	0.01096
1803.93366	0.01114
1802.64790	0.01133
1801.36213	0.01148
1800.07636	0.01155
1798.79059	0.01154
1797.50482	0.01153
1796.21905	0.01163
1794.93328	0.01182
1793.64751	0.01203
1792.36174	0.01219
1791.07598	0.01229
1789.79021	0.01227
1788.50444	0.01212
1787.21867	0.01192
1785.93290	0.01179
1784.64713	0.01180
1783.36136	0.01190
1782.07559	0.01198
1780.78983	0.01202
1779.50406	0.01207
1778.21829	0.01219
1776.93252	0.01242
1775.64675	0.01273
1774.36098	0.01298
1773.07521	0.01310
1771.78944	0.01314
1770.50367	0.01309
1769.21791	0.01297
1767.93214	0.01284
1766.64637	0.01284
1765.36060	0.01289
1764.07483	0.01287
1762.78906	0.01282
1761.50329	0.01285
1760.21752	0.01297
1758.93176	0.01304
1757.64599	0.01299
1756.36022	0.01295
1755.07445	0.01303
1753.78868	0.01315
1752.50291	0.01325
1751.21714	0.01331
1749.93137	0.01337
1748.64560	0.01337
1747.35984	0.01330
1746.07407	0.01322
1744.78830	0.01319
1743.50253	0.01324
1742.21676	0.01331
1740.93099	0.01339
1739.64522	0.01353
1738.35945	0.01384
1737.07369	0.01418
1735.78792	0.01439
1734.50215	0.01452
1733.21638	0.01471
1731.93061	0.01482
1730.64484	0.01467
1729.35907	0.01438
1728.07330	0.01419
1726.78753	0.01415
1725.50177	0.01417
1724.21600	0.01422
1722.93023	0.01443
1721.64446	0.01485
1720.35869	0.01538
1719.07292	0.01585
1717.78715	0.01622
1716.50138	0.01649
1715.21561	0.01662
1713.92985	0.01659
1712.64408	0.01651
1711.35831	0.01652
1710.07254	0.01671
1708.78677	0.01703
1707.50100	0.01740
1706.21523	0.01780
1704.92946	0.01832
1703.64370	0.01897
1702.35793	0.01956
1701.07216	0.02010
1699.78639	0.02076
1698.50062	0.02135
1697.21485	0.02151
1695.92908	0.02136
1694.64331	0.02130
1693.35754	0.02135
1692.07178	0.02137
1690.78601	0.02147
1689.50024	0.02189
1688.21447	0.02259
1686.92870	0.02328
1685.64293	0.02374
1684.35716	0.02405
1683.07139	0.02426
1681.78563	0.02430
1680.49986	0.02424
1679.21409	0.02437
1677.92832	0.02476
1676.64255	0.02526
1675.35678	0.02579
1674.07101	0.02639
1672.78524	0.02693
1671.49947	0.02730
1670.21371	0.02753
1668.92794	0.02777
1667.64217	0.02806
1666.35640	0.02836
1665.07063	0.02862
1663.78486	0.02885
1662.49909	0.02910
1661.21332	0.02936
1659.92756	0.02965
1658.64179	0.03009
1657.35602	0.03081
1656.07025	0.03162
1654.78448	0.03216
1653.49871	0.03241
1652.21294	0.03263
1650.92717	0.03283
1649.64140	0.03281
1648.35564	0.03258
1647.06987	0.03234
1645.78410	0.03220
1644.49833	0.03206
1643.21256	0.03185
1641.92679	0.03166
1640.64102	0.03167
1639.35525	0.03188
1638.06949	0.03212
1636.78372	0.03218
1635.49795	0.03209
1634.21218	0.03192
1632.92641	0.03168
1631.64064	0.03140
1630.35487	0.03116
1629.06910	0.03104
1627.78333	0.03105
1626.49757	0.03108
1625.21180	0.03104
1623.92603	0.03090
1622.64026	0.03075
1621.35449	0.03071
1620.06872	0.03073
1618.78295	0.03070
1617.49718	0.03062
1616.21142	0.03057
1614.92565	0.03051
1613.63988	0.03034
1612.35411	0.03014
1611.06834	0.03005
1609.78257	0.03013
1608.49680	0.03024
1607.21103	0.03031
1605.92526	0.03031
1604.63950	0.03030
1603.35373	0.03030
1602.06796	0.03035
1600.78219	0.03043
1599.49642	0.03051
1598.21065	0.03058
1596.92488	0.03065
1595.63911	0.03071
1594.35335	0.03080
1593.06758	0.03090
1591.78181	0.03101
1590.49604	0.03112
1589.21027	0.03126
1587.92450	0.03144
1586.63873	0.03167
1585.35296	0.03190
1584.06719	0.03210
1582.78143	0.03231
1581.49566	0.03261
1580.20989	0.03306
1578.92412	0.03353
1577.63835	0.03385
1576.35258	0.03404
1575.06681	0.03428
1573.78104	0.03456
1572.49528	0.03474
1571.20951	0.03487
1569.92374	0.03504
1568.63797	0.03526
1567.35220	0.03541
1566.06643	0.03549
1564.78066	0.03574
1563.49489	0.03635
1562.20912	0.03715
1560.92336	0.03784
1559.63759	0.03829
1558.35182	0.03854
1557.06605	0.03854
1555.78028	0.03820
1554.49451	0.03773
1553.20874	0.03740
1551.92297	0.03723
1550.63721	0.03710
1549.35144	0.03702
1548.06567	0.03706
1546.77990	0.03720
1545.49413	0.03743
1544.20836	0.03774
1542.92259	0.03801
1541.63682	0.03803
1540.35105	0.03776
1539.06529	0.03735
1537.77952	0.03697
1536.49375	0.03657
1535.20798	0.03612
1533.92221	0.03576
1532.63644	0.03558
1531.35067	0.03552
1530.06490	0.03551
1528.77914	0.03557
1527.49337	0.03578
1526.20760	0.03617
1524.92183	0.03669
1523.63606	0.03723
1522.35029	0.03769
1521.06452	0.03812
1519.77875	0.03849
1518.49298	0.03872
1517.20722	0.03887
1515.92145	0.03915
1514.63568	0.03963
1513.34991	0.04024
1512.06414	0.04100
1510.77837	0.04195
1509.49260	0.04296
1508.20683	0.04384
1506.92107	0.04452
1505.63530	0.04508
1504.34953	0.04552
1503.06376	0.04585
1501.77799	0.04618
1500.49222	0.04669
1499.20645	0.04732
1497.92068	0.04789
1496.63491	0.04830
1495.34915	0.04863
1494.06338	0.04898
1492.77761	0.04933
1491.49184	0.04975
1490.20607	0.05029
1488.92030	0.05089
1487.63453	0.05147
1486.34876	0.05202
1485.06299	0.05262
1483.77723	0.05331
1482.49146	0.05411
1481.20569	0.05502
1479.91992	0.05600
1478.63415	0.05698
1477.34838	0.05792
1476.06261	0.05884
1474.77684	0.05968
1473.49108	0.06039
1472.20531	0.06098
1470.91954	0.06146
1469.63377	0.06182
1468.34800	0.06205
1467.06223	0.06221
1465.77646	0.06233
1464.49069	0.06249
1463.20492	0.06275
1461.91916	0.06316
1460.63339	0.06374
1459.34762	0.06437
1458.06185	0.06493
1456.77608	0.06544
1455.49031	0.06588
1454.20454	0.06615
1452.91877	0.06625
1451.63301	0.06632
1450.34724	0.06644
1449.06147	0.06656
1447.77570	0.06658
1446.48993	0.06648
1445.20416	0.06625
1443.91839	0.06591
1442.63262	0.06558
1441.34685	0.06536
1440.06109	0.06525
1438.77532	0.06513
1437.48955	0.06498
1436.20378	0.06488
1434.91801	0.06489
1433.63224	0.06497
1432.34647	0.06515
1431.06070	0.06553
1429.77494	0.06614
1428.48917	0.06688
1427.20340	0.06769
1425.91763	0.06854
1424.63186	0.06949
1423.34609	0.07053
1422.06032	0.07154
1420.77455	0.07242
1419.48878	0.07320
1418.20302	0.07393
1416.91725	0.07453
1415.63148	0.07488
1414.34571	0.07504
1413.05994	0.07510
1411.77417	0.07513
1410.48840	0.07509
1409.20263	0.07493
1407.91687	0.07457
1406.63110	0.07399
1405.34533	0.07326
1404.05956	0.07248
1402.77379	0.07165
1401.48802	0.07069
1400.20225	0.06957
1398.91648	0.06837
1397.63071	0.06716
1396.34495	0.06590
1395.05918	0.06458
1393.77341	0.06323
1392.48764	0.06186
1391.20187	0.06047
1389.91610	0.05908
1388.63033	0.05774
1387.34456	0.05648
1386.05880	0.05529
1384.77303	0.05413
1383.48726	0.05297
1382.20149	0.05183
1380.91572	0.05070
1379.62995	0.04956
1378.34418	0.04840
1377.05841	0.04721
1375.77264	0.04599
1374.48688	0.04471
1373.20111	0.04341
1371.91534	0.04208
1370.62957	0.04074
1369.34380	0.03945
1368.05803	0.03832
1366.77226	0.03735
1365.48649	0.03648
1364.20073	0.03562
1362.91496	0.03474
1361.62919	0.03385
1360.34342	0.03297
1359.05765	0.03210
1357.77188	0.03128
1356.48611	0.03054
1355.20034	0.02991
1353.91457	0.02938
1352.62881	0.02890
1351.34304	0.02844
1350.05727	0.02798
1348.77150	0.02754
1347.48573	0.02712
1346.19996	0.02671
1344.91419	0.02633
1343.62842	0.02596
1342.34266	0.02560
1341.05689	0.02527
1339.77112	0.02498
1338.48535	0.02475
1337.19958	0.02454
1335.91381	0.02429
1334.62804	0.02401
1333.34227	0.02372
1332.05650	0.02345
1330.77074	0.02322
1329.48497	0.02300
1328.19920	0.02278
1326.91343	0.02256
1325.62766	0.02236
1324.34189	0.02219
1323.05612	0.02204
1321.77035	0.02191
1320.48459	0.02177
1319.19882	0.02161
1317.91305	0.02141
1316.62728	0.02120
1315.34151	0.02101
1314.05574	0.02085
1312.76997	0.02073
1311.48420	0.02062
1310.19843	0.02051
1308.91267	0.02041
1307.62690	0.02030
1306.34113	0.02017
1305.05536	0.02004
1303.76959	0.01992
1302.48382	0.01982
1301.19805	0.01973
1299.91228	0.01962
1298.62652	0.01949
1297.34075	0.01936
1296.05498	0.01924
1294.76921	0.01911
1293.48344	0.01900
1292.19767	0.01891
1290.91190	0.01884
1289.62613	0.01878
1288.34036	0.01874
1287.05460	0.01872
1285.76883	0.01871
1284.48306	0.01868
1283.19729	0.01860
1281.91152	0.01850
1280.62575	0.01839
1279.33998	0.01827
1278.05421	0.01815
1276.76845	0.01805
1275.48268	0.01797
1274.19691	0.01792
1272.91114	0.01789
1271.62537	0.01790
1270.33960	0.01789
1269.05383	0.01783
1267.76806	0.01770
1266.48229	0.01754
1265.19653	0.01742
1263.91076	0.01736
1262.62499	0.01735
1261.33922	0.01733
1260.05345	0.01728
1258.76768	0.01720
1257.48191	0.01711
1256.19614	0.01705
1254.91037	0.01705
1253.62461	0.01710
1252.33884	0.01714
1251.05307	0.01715
1249.76730	0.01711
1248.48153	0.01704
1247.19576	0.01696
1245.90999	0.01687
1244.62422	0.01678
1243.33846	0.01668
1242.05269	0.01661
1240.76692	0.01656
1239.48115	0.01648
1238.19538	0.01636
1236.90961	0.01624
1235.62384	0.01616
1234.33807	0.01613
1233.05230	0.01612
1231.76654	0.01608
1230.48077	0.01600
1229.19500	0.01589
1227.90923	0.01578
1226.62346	0.01566
1225.33769	0.01555
1224.05192	0.01545
1222.76615	0.01538
1221.48039	0.01533
1220.19462	0.01529
1218.90885	0.01524
1217.62308	0.01517
1216.33731	0.01507
1215.05154	0.01498
1213.76577	0.01492
1212.48000	0.01493
1211.19423	0.01499
1209.90847	0.01510
1208.62270	0.01521
1207.33693	0.01528
1206.05116	0.01530
1204.76539	0.01526
1203.47962	0.01517
1202.19385	0.01508
1200.90808	0.01498
1199.62232	0.01488
1198.33655	0.01493
1197.05078	0.01502
1195.76501	0.01510
1194.47924	0.01514
1193.19347	0.01515
1191.90770	0.01511
1190.62193	0.01502
1189.33616	0.01491
1188.05040	0.01485
1186.76463	0.01485
1185.47886	0.01488
1184.19309	0.01491
1182.90732	0.01491
1181.62155	0.01488
1180.33578	0.01487
1179.05001	0.01488
1177.76425	0.01493
1176.47848	0.01499
1175.19271	0.01503
1173.90694	0.01506
1172.62117	0.01509
1171.33540	0.01514
1170.04963	0.01523
1168.76386	0.01535
1167.47809	0.01548
1166.19233	0.01562
1164.90656	0.01575
1163.62079	0.01588
1162.33502	0.01596
1161.04925	0.01601
1159.76348	0.01605
1158.47771	0.01616
1157.19194	0.01632
1155.90618	0.01650
1154.62041	0.01665
1153.33464	0.01678
1152.04887	0.01693
1150.76310	0.01711
1149.47733	0.01733
1148.19156	0.01756
1146.90579	0.01780
1145.62002	0.01805
1144.33426	0.01832
1143.04849	0.01867
1141.76272	0.01912
1140.47695	0.01968
1139.19118	0.02036
1137.90541	0.02115
1136.61964	0.02204
1135.33387	0.02303
1134.04811	0.02406
1132.76234	0.02512
1131.47657	0.02626
1130.19080	0.02756
1128.90503	0.02910
1127.61926	0.03085
1126.33349	0.03276
1125.04772	0.03481
1123.76195	0.03701
1122.47619	0.03936
1121.19042	0.04185
1119.90465	0.04439
1118.61888	0.04690
1117.33311	0.04937
1116.04734	0.05186
1114.76157	0.05441
1113.47580	0.05697
1112.19004	0.05946
1110.90427	0.06184
1109.61850	0.06412
1108.33273	0.06634
1107.04696	0.06851
1105.76119	0.07059
1104.47542	0.07252
1103.18965	0.07432
1101.90388	0.07607
1100.61812	0.07781
1099.33235	0.07955
1098.04658	0.08120
1096.76081	0.08273
1095.47504	0.08415
1094.18927	0.08551
1092.90350	0.08683
1091.61773	0.08809
1090.33197	0.08926
1089.04620	0.09034
1087.76043	0.09134
1086.47466	0.09233
1085.18889	0.09338
1083.90312	0.09448
1082.61735	0.09564
1081.33158	0.09684
1080.04581	0.09814
1078.76005	0.09957
1077.47428	0.10115
1076.18851	0.10285
1074.90274	0.10465
1073.61697	0.10655
1072.33120	0.10856
1071.04543	0.11066
1069.75966	0.11280
1068.47390	0.11493
1067.18813	0.11704
1065.90236	0.11918
1064.61659	0.12136
1063.33082	0.12354
1062.04505	0.12568
1060.75928	0.12782
1059.47351	0.12999
1058.18774	0.13222
1056.90198	0.13446
1055.61621	0.13665
1054.33044	0.13874
1053.04467	0.14076
1051.75890	0.14279
1050.47313	0.14486
1049.18736	0.14699
1047.90159	0.14918
1046.61583	0.15147
1045.33006	0.15382
1044.04429	0.15616
1042.75852	0.15843
1041.47275	0.16061
1040.18698	0.16277
1038.90121	0.16500
1037.61544	0.16727
1036.32967	0.16955
1035.04391	0.17174
1033.75814	0.17377
1032.47237	0.17557
1031.18660	0.17713
1029.90083	0.17844
1028.61506	0.17954
1027.32929	0.18040
1026.04352	0.18100
1024.75775	0.18134
1023.47199	0.18143
1022.18622	0.18130
1020.90045	0.18093
1019.61468	0.18030
1018.32891	0.17935
1017.04314	0.17804
1015.75737	0.17636
1014.47160	0.17436
1013.18584	0.17204
1011.90007	0.16941
1010.61430	0.16643
1009.32853	0.16315
1008.04276	0.15959
1006.75699	0.15577
1005.47122	0.15171
1004.18545	0.14749
1002.89968	0.14324
1001.61392	0.13899
1000.32815	0.13465
999.04238	0.13017
997.75661	0.12557
996.47084	0.12093
995.18507	0.11634
993.89930	0.11187
992.61353	0.10757
991.32777	0.10351
990.04200	0.09967
988.75623	0.09603
987.47046	0.09252
986.18469	0.08911
984.89892	0.08577
983.61315	0.08254
982.32738	0.07952
981.04161	0.07678
979.75585	0.07431
978.47008	0.07205
977.18431	0.06992
975.89854	0.06797
974.61277	0.06632
973.32700	0.06501
972.04123	0.06399
970.75546	0.06324
969.46970	0.06283
968.18393	0.06287
966.89816	0.06336
965.61239	0.06416
964.32662	0.06503
963.04085	0.06580
961.75508	0.06633
960.46931	0.06651
959.18354	0.06622
957.89778	0.06539
956.61201	0.06411
955.32624	0.06252
954.04047	0.06080
952.75470	0.05910
951.46893	0.05749
950.18316	0.05602
948.89739	0.05465
947.61163	0.05333
946.32586	0.05199
945.04009	0.05060
943.75432	0.04913
942.46855	0.04767
941.18278	0.04634
939.89701	0.04520
938.61124	0.04423
937.32547	0.04334
936.03971	0.04249
934.75394	0.04169
933.46817	0.04094
932.18240	0.04020
930.89663	0.03944
929.61086	0.03867
928.32509	0.03797
927.03932	0.03740
925.75356	0.03698
924.46779	0.03661
923.18202	0.03617
921.89625	0.03561
920.61048	0.03502
919.32471	0.03451
918.03894	0.03413
916.75317	0.03381
915.46740	0.03349
914.18164	0.03312
912.89587	0.03272
911.61010	0.03231
910.32433	0.03189
909.03856	0.03150
907.75279	0.03116
906.46702	0.03092
905.18125	0.03078
903.89549	0.03067
902.60972	0.03051
901.32395	0.03032
900.03818	0.03009
898.75241	0.02987
897.46664	0.02965
896.18087	0.02946
894.89510	0.02931
893.60933	0.02921
892.32357	0.02916
891.03780	0.02917
889.75203	0.02929
888.46626	0.02952
887.18049	0.02993
885.89472	0.03066
884.60895	0.03186
883.32318	0.03354
882.03742	0.03551
880.75165	0.03745
879.46588	0.03906
878.18011	0.04024
876.89434	0.04118
875.60857	0.04216
874.32280	0.04331
873.03703	0.04439
871.75126	0.04499
870.46550	0.04489
869.17973	0.04412
867.89396	0.04287
866.60819	0.04127
865.32242	0.03942
864.03665	0.03749
862.75088	0.03568
861.46511	0.03416
860.17935	0.03294
858.89358	0.03197
857.60781	0.03118
856.32204	0.03053
855.03627	0.02997
853.75050	0.02946
852.46473	0.02899
851.17896	0.02862
849.89319	0.02835
848.60743	0.02815
847.32166	0.02793
846.03589	0.02769
844.75012	0.02747
843.46435	0.02728
842.17858	0.02709
840.89281	0.02686
839.60704	0.02661
838.32128	0.02641
837.03551	0.02624
835.74974	0.02606
834.46397	0.02587
833.17820	0.02572
831.89243	0.02563
830.60666	0.02561
829.32089	0.02561
828.03512	0.02564
826.74936	0.02568
825.46359	0.02567
824.17782	0.02557
822.89205	0.02540
821.60628	0.02525
820.32051	0.02519
819.03474	0.02523
817.74897	0.02531
816.46321	0.02533
815.17744	0.02525
813.89167	0.02509
812.60590	0.02494
811.32013	0.02488
810.03436	0.02493
808.74859	0.02505
807.46282	0.02514
806.17705	0.02518
804.89129	0.02518
803.60552	0.02518
802.31975	0.02521
801.03398	0.02527
799.74821	0.02529
798.46244	0.02521
797.17667	0.02506
795.89090	0.02491
794.60513	0.02487
793.31937	0.02495
792.03360	0.02507
790.74783	0.02513
789.46206	0.02509
788.17629	0.02501
786.89052	0.02493
785.60475	0.02482
784.31898	0.02464
783.03322	0.02443
781.74745	0.02427
780.46168	0.02420
779.17591	0.02418
777.89014	0.02418
776.60437	0.02420
775.31860	0.02428
774.03283	0.02441
772.74706	0.02454
771.46130	0.02460
770.17553	0.02460
768.88976	0.02460
767.60399	0.02459
766.31822	0.02456
765.03245	0.02448
763.74668	0.02443
762.46091	0.02444
761.17515	0.02453
759.88938	0.02465
758.60361	0.02475
757.31784	0.02480
756.03207	0.02482
754.74630	0.02479
753.46053	0.02468
752.17476	0.02450
750.88899	0.02434
749.60323	0.02429
748.31746	0.02436
747.03169	0.02446
745.74592	0.02450
744.46015	0.02443
743.17438	0.02424
741.88861	0.02394
740.60284	0.02365
739.31708	0.02350
738.03131	0.02359
736.74554	0.02386
735.45977	0.02413
734.17400	0.02423
732.88823	0.02418
731.60246	0.02413
730.31669	0.02418
729.03092	0.02429
727.74516	0.02437
726.45939	0.02438
725.17362	0.02433
723.88785	0.02402
722.60208	0.02395
721.31631	0.02430
720.03054	0.02462
718.74477	0.02460
717.45901	0.02464
716.17324	0.02468
714.88747	0.02457
713.60170	0.02439
712.31593	0.02420
711.03016	0.02404
709.74439	0.02390
708.45862	0.02378
707.17285	0.02369
705.88709	0.02362
704.60132	0.02355
703.31555	0.02347
702.02978	0.02337
700.74401	0.02327
699.45824	0.02319
698.17247	0.02313
696.88670	0.02308
695.60094	0.02302
694.31517	0.02293
693.02940	0.02282
691.74363	0.02271
690.45786	0.02258
689.17209	0.02243
687.88632	0.02228
686.60055	0.02212
685.31478	0.02195
684.02902	0.02179
682.74325	0.02165
681.45748	0.02153
680.17171	0.02143
678.88594	0.02139
677.60017	0.02144
676.31440	0.02158
675.02863	0.02173
673.74287	0.02158
672.45710	0.02077
671.17133	0.01997
669.88556	0.02170
668.59979	0.02596
667.31402	0.02501
666.02825	0.02089
664.74248	0.02035
663.45671	0.02149
662.17095	0.02209
660.88518	0.02210
659.59941	0.02197
658.31364	0.02191
657.02787	0.02200
655.74210	0.02215
654.45633	0.02222
653.17056	0.02219
651.88480	0.02208
650.59903	0.02203
649.31326	0.02213
648.02749	0.02224
646.74172	0.02240
645.45595	0.02260
644.17018	0.02277
642.88441	0.02291
641.59864	0.02306
640.31288	0.02326
639.02711	0.02348
637.74134	0.02370
636.45557	0.02389
635.16980	0.02407
633.88403	0.02425
632.59826	0.02450
631.31249	0.02503
630.02673	0.02600
628.74096	0.02693
627.45519	0.02717
626.16942	0.02943
624.88365	0.03286
623.59788	0.03601
622.31211	0.03842
621.02634	0.04024
619.74057	0.04149
618.45481	0.04217
617.16904	0.04273
615.88327	0.04387
614.59750	0.04580
613.31173	0.04821
612.02596	0.05090
610.74019	0.05411
609.45442	0.05801
608.16866	0.06205
606.88289	0.06548
605.59712	0.06808
604.31135	0.07011
603.02558	0.07172
601.73981	0.07269
600.45404	0.07264
599.16827	0.07139
597.88250	0.06923
596.59674	0.06674
595.31097	0.06444
594.02520	0.06259
592.73943	0.06109
591.45366	0.05978
590.16789	0.05863
588.88212	0.05787
587.59635	0.05769
586.31059	0.05819
585.02482	0.05927
583.73905	0.06077
582.45328	0.06249
581.16751	0.06426
579.88174	0.06601
578.59597	0.06776
577.31020	0.06955
576.02443	0.07134
574.73867	0.07306
573.45290	0.07470
572.16713	0.07633
570.88136	0.07812
569.59559	0.08017
568.30982	0.08253
567.02405	0.08512
565.73828	0.08768
564.45251	0.08985
563.16675	0.09123
561.88098	0.09152
560.59521	0.09058
559.30944	0.08845
558.02367	0.08536
556.73790	0.08162
555.45213	0.07749
554.16636	0.07313
552.88060	0.06876
551.59483	0.06464
550.30906	0.06097
549.02329	0.05777
547.73752	0.05498
546.45175	0.05247
545.16598	0.05013
543.88021	0.04794
542.59444	0.04593
541.30868	0.04419
540.02291	0.04276
538.73714	0.04157
537.45137	0.04050
536.16560	0.03949
534.87983	0.03854
533.59406	0.03767
532.30829	0.03689
531.02253	0.03617
529.73676	0.03547
528.45099	0.03477
527.16522	0.03405
525.87945	0.03334
524.59368	0.03269
523.30791	0.03209
522.02214	0.03151
520.73637	0.03095
519.45061	0.03043
518.16484	0.03000
516.87907	0.02967
515.59330	0.02938
514.30753	0.02906
513.02176	0.02866
511.73599	0.02820
510.45022	0.02773
509.16446	0.02728
507.87869	0.02688
506.59292	0.02657
505.30715	0.02633
504.02138	0.02609
502.73561	0.02579
501.44984	0.02542
500.16407	0.02504
498.87830	0.02475
497.59254	0.02457
496.30677	0.02448
495.02100	0.02439
493.73523	0.02427
492.44946	0.02417
491.16369	0.02408
489.87792	0.02394
488.59215	0.02369
487.30639	0.02337
486.02062	0.02311
484.73485	0.02298
483.44908	0.02301
482.16331	0.02316
480.87754	0.02338
479.59177	0.02359
478.30600	0.02372
477.02023	0.02379
475.73447	0.02387
474.44870	0.02403
473.16293	0.02425
471.87716	0.02443
470.59139	0.02450
469.30562	0.02447
468.01985	0.02440
466.73408	0.02430
465.44832	0.02413
464.16255	0.02387
462.87678	0.02355
461.59101	0.02321
460.30524	0.02293
459.01947	0.02273
457.73370	0.02261
456.44793	0.02251
455.16216	0.02236
453.87640	0.02214
452.59063	0.02190
451.30486	0.02167
450.01909	0.02145
448.73332	0.02122
447.44755	0.02096
446.16178	0.02070
444.87601	0.02049
443.59025	0.02033
442.30448	0.02023
441.01871	0.02013
439.73294	0.02001
438.44717	0.01985
437.16140	0.01965
435.87563	0.01946
434.58986	0.01928
433.30409	0.01912
432.01833	0.01901
430.73256	0.01896
429.44679	0.01895
428.16102	0.01894
426.87525	0.01891
425.58948	0.01885
424.30371	0.01878
423.01794	0.01870
421.73218	0.01858
420.44641	0.01843
419.16064	0.01831
417.87487	0.01827
416.58910	0.01822
415.30333	0.01809
414.01756	0.01786
412.73179	0.01764
411.44602	0.01748
410.16026	0.01741
408.87449	0.01741
407.58872	0.01746
406.30295	0.01755
405.01718	0.01764
403.73141	0.01773
402.44564	0.01777
401.15987	0.01780
399.87411	0.01783
