3997.45528	-0.00036
3996.16951	-0.00122
3994.88374	-0.00187
3993.59798	-0.00213
3992.31221	-0.00205
3991.02644	-0.00190
3989.74067	-0.00184
3988.45490	-0.00175
3987.16913	-0.00142
3985.88336	-0.00084
3984.59759	-0.00022
3983.31183	0.00027
3982.02606	0.00061
3980.74029	0.00087
3979.45452	0.00112
3978.16875	0.00141
3976.88298	0.00177
3975.59721	0.00220
3974.31144	0.00262
3973.02567	0.00293
3971.73991	0.00310
3970.45414	0.00312
3969.16837	0.00309
3967.88260	0.00309
3966.59683	0.00310
3965.31106	0.00307
3964.02529	0.00300
3962.73952	0.00301
3961.45376	0.00317
3960.16799	0.00346
3958.88222	0.00379
3957.59645	0.00407
3956.31068	0.00421
3955.02491	0.00414
3953.73914	0.00404
3952.45337	0.00419
3951.16760	0.00465
3949.88184	0.00508
3948.59607	0.00501
3947.31030	0.00433
3946.02453	0.00334
3944.73876	0.00257
3943.45299	0.00238
3942.16722	0.00281
3940.88145	0.00353
3939.59569	0.00424
3938.30992	0.00484
3937.02415	0.00536
3935.73838	0.00566
3934.45261	0.00555
3933.16684	0.00507
3931.88107	0.00448
3930.59530	0.00403
3929.30953	0.00388
3928.02377	0.00411
3926.73800	0.00469
3925.45223	0.00553
3924.16646	0.00646
3922.88069	0.00718
3921.59492	0.00723
3920.30915	0.00643
3919.02338	0.00508
3917.73762	0.00394
3916.45185	0.00372
3915.16608	0.00440
3913.88031	0.00537
3912.59454	0.00608
3911.30877	0.00640
3910.02300	0.00645
3908.73723	0.00631
3907.45146	0.00591
3906.16570	0.00519
3904.87993	0.00432
3903.59416	0.00362
3902.30839	0.00331
3901.02262	0.00340
3899.73685	0.00374
3898.45108	0.00411
3897.16531	0.00418
3895.87955	0.00387
3894.59378	0.00341
3893.30801	0.00321
3892.02224	0.00351
3890.73647	0.00428
3889.45070	0.00502
3888.16493	0.00508
3886.87916	0.00460
3885.59339	0.00444
3884.30763	0.00500
3883.02186	0.00586
3881.73609	0.00649
3880.45032	0.00686
3879.16455	0.00696
3877.87878	0.00654
3876.59301	0.00561
3875.30724	0.00472
3874.02148	0.00449
3872.73571	0.00488
3871.44994	0.00545
3870.16417	0.00611
3868.87840	0.00694
3867.59263	0.00757
3866.30686	0.00758
3865.02109	0.00715
3863.73532	0.00663
3862.44956	0.00620
3861.16379	0.00603
3859.87802	0.00639
3858.59225	0.00721
3857.30648	0.00784
3856.02071	0.00768
3854.73494	0.00703
3853.44917	0.00694
3852.16341	0.00787
3850.87764	0.00912
3849.59187	0.00993
3848.30610	0.01018
3847.02033	0.01005
3845.73456	0.00971
3844.44879	0.00934
3843.16302	0.00894
3841.87725	0.00831
3840.59149	0.00719
3839.30572	0.00587
3838.01995	0.00517
3836.73418	0.00556
3835.44841	0.00663
3834.16264	0.00759
3832.87687	0.00796
3831.59110	0.00774
3830.30534	0.00723
3829.01957	0.00687
3827.73380	0.00696
3826.44803	0.00749
3825.16226	0.00800
3823.87649	0.00803
3822.59072	0.00780
3821.30495	0.00807
3820.01918	0.00897
3818.73342	0.00963
3817.44765	0.00949
3816.16188	0.00921
3814.87611	0.00939
3813.59034	0.00950
3812.30457	0.00883
3811.01880	0.00750
3809.73303	0.00606
3808.44726	0.00500
3807.16150	0.00484
3805.87573	0.00563
3804.58996	0.00652
3803.30419	0.00676
3802.01842	0.00685
3800.73265	0.00775
3799.44688	0.00931
3798.16111	0.01043
3796.87535	0.01061
3795.58958	0.01011
3794.30381	0.00921
3793.01804	0.00817
3791.73227	0.00735
3790.44650	0.00701
3789.16073	0.00714
3787.87496	0.00749
3786.58919	0.00779
3785.30343	0.00788
3784.01766	0.00779
3782.73189	0.00776
3781.44612	0.00805
3780.16035	0.00875
3778.87458	0.00957
3777.58881	0.00996
3776.30304	0.00972
3775.01728	0.00920
3773.73151	0.00883
3772.44574	0.00861
3771.15997	0.00834
3769.87420	0.00809
3768.58843	0.00797
3767.30266	0.00792
3766.01689	0.00790
3764.73112	0.00789
3763.44536	0.00771
3762.15959	0.00718
3760.87382	0.00656
3759.58805	0.00639
3758.30228	0.00683
3757.01651	0.00753
3755.73074	0.00790
3754.44497	0.00765
3753.15921	0.00713
3751.87344	0.00704
3750.58767	0.00753
3749.30190	0.00817
3748.01613	0.00837
3746.73036	0.00761
3745.44459	0.00619
3744.15882	0.00572
3742.87305	0.00672
3741.58729	0.00776
3740.30152	0.00793
3739.01575	0.00760
3737.72998	0.00731
3736.44421	0.00754
3735.15844	0.00772
3733.87267	0.00801
3732.58690	0.00792
3731.30114	0.00757
3730.01537	0.00763
3728.72960	0.00746
3727.44383	0.00718
3726.15806	0.00671
3724.87229	0.00599
3723.58652	0.00560
3722.30075	0.00507
3721.01498	0.00432
3719.72922	0.00431
3718.44345	0.00492
3717.15768	0.00570
3715.87191	0.00615
3714.58614	0.00638
3713.30037	0.00719
3712.01460	0.00763
3710.72883	0.00732
3709.44307	0.00722
3708.15730	0.00682
3706.87153	0.00667
3705.58576	0.00648
3704.29999	0.00614
3703.01422	0.00595
3701.72845	0.00585
3700.44268	0.00561
3699.15691	0.00587
3697.87115	0.00667
3696.58538	0.00729
3695.29961	0.00774
3694.01384	0.00902
3692.72807	0.00930
3691.44230	0.00874
3690.15653	0.00882
3688.87076	0.00885
3687.58500	0.00860
3686.29923	0.00921
3685.01346	0.00946
3683.72769	0.00952
3682.44192	0.01049
3681.15615	0.01138
3679.87038	0.01176
3678.58461	0.01187
3677.29884	0.01128
3676.01308	0.01117
3674.72731	0.01195
3673.44154	0.01228
3672.15577	0.01140
3670.87000	0.00979
3669.58423	0.00907
3668.29846	0.00962
3667.01269	0.01036
3665.72693	0.01080
3664.44116	0.01085
3663.15539	0.01098
3661.86962	0.01118
3660.58385	0.01143
3659.29808	0.01184
3658.01231	0.01244
3656.72654	0.01324
3655.44077	0.01415
3654.15501	0.01481
3652.86924	0.01486
3651.58347	0.01457
3650.29770	0.01466
3649.01193	0.01556
3647.72616	0.01697
3646.44039	0.01821
3645.15462	0.01877
3643.86886	0.01838
3642.58309	0.01753
3641.29732	0.01702
3640.01155	0.01724
3638.72578	0.01799
3637.44001	0.01870
3636.15424	0.01890
3634.86847	0.01879
3633.58270	0.01849
3632.29694	0.01818
3631.01117	0.01811
3629.72540	0.01793
3628.43963	0.01838
3627.15386	0.01931
3625.86809	0.02054
3624.58232	0.02102
3623.29655	0.02152
3622.01079	0.02190
3620.72502	0.02255
3619.43925	0.02290
3618.15348	0.02326
3616.86771	0.02374
3615.58194	0.02398
3614.29617	0.02398
3613.01040	0.02421
3611.72463	0.02496
3610.43887	0.02513
3609.15310	0.02439
3607.86733	0.02368
3606.58156	0.02409
3605.29579	0.02528
3604.01002	0.02650
3602.72425	0.02800
3601.43848	0.02940
3600.15272	0.03014
3598.86695	0.03014
3597.58118	0.03033
3596.29541	0.03013
3595.00964	0.03019
3593.72387	0.03106
3592.43810	0.03150
3591.15233	0.03116
3589.86656	0.03078
3588.58080	0.03052
3587.29503	0.03086
3586.00926	0.03173
3584.72349	0.03299
3583.43772	0.03386
3582.15195	0.03436
3580.86618	0.03497
3579.58041	0.03550
3578.29464	0.03572
3577.00888	0.03594
3575.72311	0.03591
3574.43734	0.03598
3573.15157	0.03647
3571.86580	0.03723
3570.58003	0.03819
3569.29426	0.03896
3568.00849	0.03936
3566.72273	0.03969
3565.43696	0.03999
3564.15119	0.04057
3562.86542	0.04127
3561.57965	0.04187
3560.29388	0.04223
3559.00811	0.04240
3557.72234	0.04260
3556.43657	0.04296
3555.15081	0.04343
3553.86504	0.04379
3552.57927	0.04391
3551.29350	0.04387
3550.00773	0.04387
3548.72196	0.04403
3547.43619	0.04424
3546.15042	0.04430
3544.86466	0.04415
3543.57889	0.04400
3542.29312	0.04423
3541.00735	0.04501
3539.72158	0.04613
3538.43581	0.04714
3537.15004	0.04782
3535.86427	0.04833
3534.57850	0.04887
3533.29274	0.04941
3532.00697	0.04983
3530.72120	0.05018
3529.43543	0.05064
3528.14966	0.05122
3526.86389	0.05170
3525.57812	0.05200
3524.29235	0.05233
3523.00659	0.05293
3521.72082	0.05365
3520.43505	0.05404
3519.14928	0.05387
3517.86351	0.05341
3516.57774	0.05317
3515.29197	0.05338
3514.00620	0.05386
3512.72043	0.05428
3511.43467	0.05453
3510.14890	0.05472
3508.86313	0.05498
3507.57736	0.05535
3506.29159	0.05584
3505.00582	0.05649
3503.72005	0.05723
3502.43428	0.05792
3501.14852	0.05844
3499.86275	0.05880
3498.57698	0.05896
3497.29121	0.05888
3496.00544	0.05868
3494.71967	0.05876
3493.43390	0.05932
3492.14813	0.06011
3490.86236	0.06059
3489.57660	0.06053
3488.29083	0.06024
3487.00506	0.06022
3485.71929	0.06067
3484.43352	0.06140
3483.14775	0.06207
3481.86198	0.06241
3480.57621	0.06227
3479.29045	0.06173
3478.00468	0.06109
3476.71891	0.06073
3475.43314	0.06087
3474.14737	0.06144
3472.86160	0.06223
3471.57583	0.06303
3470.29006	0.06364
3469.00429	0.06393
3467.71853	0.06382
3466.43276	0.06340
3465.14699	0.06289
3463.86122	0.06257
3462.57545	0.06264
3461.28968	0.06312
3460.00391	0.06379
3458.71814	0.06440
3457.43238	0.06485
3456.14661	0.06527
3454.86084	0.06579
3453.57507	0.06634
3452.28930	0.06681
3451.00353	0.06717
3449.71776	0.06743
3448.43199	0.06747
3447.14622	0.06721
3445.86046	0.06680
3444.57469	0.06659
3443.28892	0.06684
3442.00315	0.06744
3440.71738	0.06806
3439.43161	0.06840
3438.14584	0.06844
3436.86007	0.06838
3435.57431	0.06843
3434.28854	0.06874
3433.00277	0.06923
3431.71700	0.06969
3430.43123	0.06997
3429.14546	0.07017
3427.85969	0.07056
3426.57392	0.07132
3425.28815	0.07229
3424.00239	0.07305
3422.71662	0.07324
3421.43085	0.07286
3420.14508	0.07225
3418.85931	0.07184
3417.57354	0.07177
3416.28777	0.07187
3415.00200	0.07189
3413.71624	0.07187
3412.43047	0.07202
3411.14470	0.07246
3409.85893	0.07301
3408.57316	0.07341
3407.28739	0.07363
3406.00162	0.07390
3404.71585	0.07434
3403.43008	0.07475
3402.14432	0.07484
3400.85855	0.07451
3399.57278	0.07386
3398.28701	0.07318
3397.00124	0.07280
3395.71547	0.07301
3394.42970	0.07383
3393.14393	0.07486
3391.85817	0.07560
3390.57240	0.07590
3389.28663	0.07600
3388.00086	0.07617
3386.71509	0.07641
3385.42932	0.07647
3384.14355	0.07619
3382.85778	0.07563
3381.57201	0.07502
3380.28625	0.07462
3379.00048	0.07464
3377.71471	0.07504
3376.42894	0.07550
3375.14317	0.07568
3373.85740	0.07556
3372.57163	0.07539
3371.28586	0.07540
3370.00010	0.07555
3368.71433	0.07561
3367.42856	0.07542
3366.14279	0.07508
3364.85702	0.07479
3363.57125	0.07475
3362.28548	0.07495
3360.99971	0.07525
3359.71394	0.07552
3358.42818	0.07569
3357.14241	0.07579
3355.85664	0.07586
3354.57087	0.07593
3353.28510	0.07603
3351.99933	0.07621
3350.71356	0.07651
3349.42779	0.07688
3348.14202	0.07718
3346.85626	0.07723
3345.57049	0.07693
3344.28472	0.07643
3342.99895	0.07600
3341.71318	0.07581
3340.42741	0.07581
3339.14164	0.07585
3337.85587	0.07591
3336.57011	0.07607
3335.28434	0.07631
3333.99857	0.07644
3332.71280	0.07630
3331.42703	0.07593
3330.14126	0.07555
3328.85549	0.07536
3327.56972	0.07543
3326.28395	0.07574
3324.99819	0.07622
3323.71242	0.07679
3322.42665	0.07729
3321.14088	0.07757
3319.85511	0.07758
3318.56934	0.07733
3317.28357	0.07694
3315.99780	0.07656
3314.71204	0.07631
3313.42627	0.07625
3312.14050	0.07638
3310.85473	0.07659
3309.56896	0.07671
3308.28319	0.07653
3306.99742	0.07604
3305.71165	0.07544
3304.42588	0.07493
3303.14012	0.07455
3301.85435	0.07430
3300.56858	0.07417
3299.28281	0.07420
3297.99704	0.07429
3296.71127	0.07426
3295.42550	0.07404
3294.13973	0.07384
3292.85397	0.07392
3291.56820	0.07437
3290.28243	0.07501
3288.99666	0.07545
3287.71089	0.07543
3286.42512	0.07497
3285.13935	0.07437
3283.85358	0.07394
3282.56781	0.07373
3281.28205	0.07365
3279.99628	0.07362
3278.71051	0.07367
3277.42474	0.07383
3276.13897	0.07408
3274.85320	0.07433
3273.56743	0.07454
3272.28166	0.07472
3270.99590	0.07482
3269.71013	0.07469
3268.42436	0.07420
3267.13859	0.07351
3265.85282	0.07297
3264.56705	0.07283
3263.28128	0.07299
3261.99551	0.07320
3260.70974	0.07344
3259.42398	0.07385
3258.13821	0.07451
3256.85244	0.07522
3255.56667	0.07558
3254.28090	0.07532
3252.99513	0.07455
3251.70936	0.07370
3250.42359	0.07318
3249.13783	0.07304
3247.85206	0.07306
3246.56629	0.07301
3245.28052	0.07288
3243.99475	0.07279
3242.70898	0.07283
3241.42321	0.07294
3240.13744	0.07301
3238.85167	0.07298
3237.56591	0.07290
3236.28014	0.07287
3234.99437	0.07299
3233.70860	0.07324
3232.42283	0.07350
3231.13706	0.07356
3229.85129	0.07338
3228.56552	0.07307
3227.27976	0.07278
3225.99399	0.07252
3224.70822	0.07226
3223.42245	0.07201
3222.13668	0.07184
3220.85091	0.07182
3219.56514	0.07186
3218.27937	0.07180
3216.99360	0.07154
3215.70784	0.07120
3214.42207	0.07099
3213.13630	0.07094
3211.85053	0.07086
3210.56476	0.07058
3209.27899	0.07016
3207.99322	0.06987
3206.70745	0.06984
3205.42169	0.07001
3204.13592	0.07019
3202.85015	0.07023
3201.56438	0.07014
3200.27861	0.07005
3198.99284	0.07011
3197.70707	0.07034
3196.42130	0.07057
3195.13553	0.07056
3193.84977	0.07024
3192.56400	0.06974
3191.27823	0.06937
3189.99246	0.06933
3188.70669	0.06956
3187.42092	0.06976
3186.13515	0.06961
3184.84938	0.06901
3183.56362	0.06827
3182.27785	0.06782
3180.99208	0.06789
3179.70631	0.06829
3178.42054	0.06856
3177.13477	0.06843
3175.84900	0.06793
3174.56323	0.06738
3173.27746	0.06705
3171.99170	0.06703
3170.70593	0.06717
3169.42016	0.06737
3168.13439	0.06758
3166.84862	0.06785
3165.56285	0.06811
3164.27708	0.06817
3162.99131	0.06789
3161.70555	0.06734
3160.41978	0.06682
3159.13401	0.06666
3157.84824	0.06689
3156.56247	0.06724
3155.27670	0.06733
3153.99093	0.06704
3152.70516	0.06647
3151.41939	0.06586
3150.13363	0.06534
3148.84786	0.06506
3147.56209	0.06505
3146.27632	0.06522
3144.99055	0.06540
3143.70478	0.06541
3142.41901	0.06526
3141.13324	0.06504
3139.84748	0.06485
3138.56171	0.06478
3137.27594	0.06478
3135.99017	0.06475
3134.70440	0.06461
3133.41863	0.06435
3132.13286	0.06404
3130.84709	0.06372
3129.56132	0.06338
3128.27556	0.06305
3126.98979	0.06281
3125.70402	0.06276
3124.41825	0.06294
3123.13248	0.06326
3121.84671	0.06350
3120.56094	0.06344
3119.27517	0.06307
3117.98940	0.06261
3116.70364	0.06237
3115.41787	0.06247
3114.13210	0.06275
3112.84633	0.06290
3111.56056	0.06271
3110.27479	0.06229
3108.98902	0.06193
3107.70325	0.06180
3106.41749	0.06179
3105.13172	0.06174
3103.84595	0.06158
3102.56018	0.06135
3101.27441	0.06113
3099.98864	0.06099
3098.70287	0.06093
3097.41710	0.06087
3096.13133	0.06080
3094.84557	0.06075
3093.55980	0.06072
3092.27403	0.06066
3090.98826	0.06052
3089.70249	0.06040
3088.41672	0.06039
3087.13095	0.06051
3085.84518	0.06067
3084.55942	0.06081
3083.27365	0.06091
3081.98788	0.06090
3080.70211	0.06066
3079.41634	0.06022
3078.13057	0.05976
3076.84480	0.05945
3075.55903	0.05923
3074.27326	0.05887
3072.98750	0.05829
3071.70173	0.05765
3070.41596	0.05720
3069.13019	0.05708
3067.84442	0.05721
3066.55865	0.05738
3065.27288	0.05739
3063.98711	0.05720
3062.70135	0.05693
3061.41558	0.05675
3060.12981	0.05672
3058.84404	0.05677
3057.55827	0.05684
3056.27250	0.05695
3054.98673	0.05710
3053.70096	0.05726
3052.41519	0.05730
3051.12943	0.05720
3049.84366	0.05705
3048.55789	0.05686
3047.27212	0.05658
3045.98635	0.05613
3044.70058	0.05556
3043.41481	0.05501
3042.12904	0.05460
3040.84328	0.05439
3039.55751	0.05434
3038.27174	0.05433
3036.98597	0.05421
3035.70020	0.05396
3034.41443	0.05376
3033.12866	0.05379
3031.84289	0.05406
3030.55712	0.05439
3029.27136	0.05459
3027.98559	0.05458
3026.69982	0.05439
3025.41405	0.05404
3024.12828	0.05362
3022.84251	0.05325
3021.55674	0.05312
3020.27097	0.05332
3018.98521	0.05372
3017.69944	0.05406
3016.41367	0.05421
3015.12790	0.05415
3013.84213	0.05396
3012.55636	0.05369
3011.27059	0.05340
3009.98482	0.05321
3008.69905	0.05317
3007.41329	0.05328
3006.12752	0.05336
3004.84175	0.05324
3003.55598	0.05289
3002.27021	0.05240
3000.98444	0.05195
2999.69867	0.05165
2998.41290	0.05162
2997.12714	0.05182
2995.84137	0.05215
2994.55560	0.05239
2993.26983	0.05237
2991.98406	0.05213
2990.69829	0.05189
2989.41252	0.05179
2988.12675	0.05178
2986.84098	0.05180
2985.55522	0.05182
2984.26945	0.05185
2982.98368	0.05191
2981.69791	0.05207
2980.41214	0.05237
2979.12637	0.05277
2977.84060	0.05320
2976.55483	0.05363
2975.26907	0.05402
2973.98330	0.05430
2972.69753	0.05445
2971.41176	0.05456
2970.12599	0.05476
2968.84022	0.05505
2967.55445	0.05536
2966.26868	0.05565
2964.98291	0.05593
2963.69715	0.05629
2962.41138	0.05675
2961.12561	0.05722
2959.83984	0.05757
2958.55407	0.05778
2957.26830	0.05795
2955.98253	0.05815
2954.69676	0.05833
2953.41100	0.05843
2952.12523	0.05845
2950.83946	0.05851
2949.55369	0.05871
2948.26792	0.05901
2946.98215	0.05922
2945.69638	0.05917
2944.41061	0.05879
2943.12484	0.05817
2941.83908	0.05763
2940.55331	0.05750
2939.26754	0.05789
2937.98177	0.05852
2936.69600	0.05901
2935.41023	0.05914
2934.12446	0.05908
2932.83869	0.05913
2931.55293	0.05950
2930.26716	0.06006
2928.98139	0.06058
2927.69562	0.06096
2926.40985	0.06128
2925.12408	0.06156
2923.83831	0.06167
2922.55254	0.06152
2921.26677	0.06121
2919.98101	0.06092
2918.69524	0.06067
2917.40947	0.06033
2916.12370	0.05974
2914.83793	0.05892
2913.55216	0.05802
2912.26639	0.05728
2910.98062	0.05679
2909.69486	0.05653
2908.40909	0.05641
2907.12332	0.05633
2905.83755	0.05618
2904.55178	0.05588
2903.26601	0.05543
2901.98024	0.05494
2900.69447	0.05450
2899.40870	0.05406
2898.12294	0.05355
2896.83717	0.05302
2895.55140	0.05262
2894.26563	0.05241
2892.97986	0.05218
2891.69409	0.05171
2890.40832	0.05100
2889.12255	0.05029
2887.83678	0.04994
2886.55102	0.05007
2885.26525	0.05048
2883.97948	0.05079
2882.69371	0.05078
2881.40794	0.05054
2880.12217	0.05036
2878.83640	0.05047
2877.55063	0.05089
2876.26487	0.05140
2874.97910	0.05171
2873.69333	0.05168
2872.40756	0.05141
2871.12179	0.05115
2869.83602	0.05103
2868.55025	0.05097
2867.26448	0.05082
2865.97871	0.05059
2864.69295	0.05045
2863.40718	0.05049
2862.12141	0.05061
2860.83564	0.05068
2859.54987	0.05068
2858.26410	0.05068
2856.97833	0.05067
2855.69256	0.05056
2854.40680	0.05030
2853.12103	0.04991
2851.83526	0.04944
2850.54949	0.04888
2849.26372	0.04824
2847.97795	0.04759
2846.69218	0.04701
2845.40641	0.04652
2844.12064	0.04606
2842.83488	0.04566
2841.54911	0.04540
2840.26334	0.04530
2838.97757	0.04520
2837.69180	0.04492
2836.40603	0.04447
2835.12026	0.04404
2833.83449	0.04370
2832.54873	0.04335
2831.26296	0.04287
2829.97719	0.04233
2828.69142	0.04191
2827.40565	0.04174
2826.11988	0.04169
2824.83411	0.04157
2823.54834	0.04135
2822.26257	0.04114
2820.97681	0.04108
2819.69104	0.04111
2818.40527	0.04109
2817.11950	0.04092
2815.83373	0.04065
2814.54796	0.04035
2813.26219	0.04008
2811.97642	0.03991
2810.69066	0.03984
2809.40489	0.03983
2808.11912	0.03978
2806.83335	0.03969
2805.54758	0.03955
2804.26181	0.03936
2802.97604	0.03912
2801.69027	0.03888
2800.40450	0.03879
2799.11874	0.03892
2797.83297	0.03915
2796.54720	0.03926
2795.26143	0.03910
2793.97566	0.03876
2792.68989	0.03840
2791.40412	0.03816
2790.11835	0.03810
2788.83259	0.03819
2787.54682	0.03828
2786.26105	0.03820
2784.97528	0.03792
2783.68951	0.03758
2782.40374	0.03734
2781.11797	0.03723
2779.83220	0.03723
2778.54643	0.03724
2777.26067	0.03722
2775.97490	0.03713
2774.68913	0.03703
2773.40336	0.03698
2772.11759	0.03692
2770.83182	0.03678
2769.54605	0.03658
2768.26028	0.03644
2766.97452	0.03646
2765.68875	0.03662
2764.40298	0.03679
2763.11721	0.03684
2761.83144	0.03673
2760.54567	0.03654
2759.25990	0.03640
2757.97413	0.03639
2756.68836	0.03645
2755.40260	0.03639
2754.11683	0.03616
2752.83106	0.03585
2751.54529	0.03556
2750.25952	0.03538
2748.97375	0.03533
2747.68798	0.03537
2746.40221	0.03547
2745.11645	0.03558
2743.83068	0.03570
2742.54491	0.03579
2741.25914	0.03579
2739.97337	0.03567
2738.68760	0.03549
2737.40183	0.03529
2736.11606	0.03507
2734.83029	0.03478
2733.54453	0.03451
2732.25876	0.03434
2730.97299	0.03432
2729.68722	0.03442
2728.40145	0.03459
2727.11568	0.03476
2725.82991	0.03488
2724.54414	0.03486
2723.25838	0.03469
2721.97261	0.03448
2720.68684	0.03440
2719.40107	0.03448
2718.11530	0.03458
2716.82953	0.03455
2715.54376	0.03445
2714.25799	0.03439
2712.97222	0.03435
2711.68646	0.03424
2710.40069	0.03403
2709.11492	0.03376
2707.82915	0.03353
2706.54338	0.03339
2705.25761	0.03337
2703.97184	0.03342
2702.68607	0.03341
2701.40031	0.03327
2700.11454	0.03305
2698.82877	0.03290
2697.54300	0.03286
2696.25723	0.03291
2694.97146	0.03297
2693.68569	0.03298
2692.39992	0.03296
2691.11415	0.03298
2689.82839	0.03304
2688.54262	0.03304
2687.25685	0.03288
2685.97108	0.03260
2684.68531	0.03233
2683.39954	0.03219
2682.11377	0.03220
2680.82800	0.03233
2679.54224	0.03251
2678.25647	0.03264
2676.97070	0.03264
2675.68493	0.03249
2674.39916	0.03231
2673.11339	0.03221
2671.82762	0.03225
2670.54185	0.03240
2669.25608	0.03258
2667.97032	0.03263
2666.68455	0.03251
2665.39878	0.03227
2664.11301	0.03208
2662.82724	0.03203
2661.54147	0.03213
2660.25570	0.03232
2658.96993	0.03252
2657.68417	0.03266
2656.39840	0.03263
2655.11263	0.03240
2653.82686	0.03204
2652.54109	0.03168
2651.25532	0.03141
2649.96955	0.03124
2648.68378	0.03110
2647.39801	0.03100
2646.11225	0.03095
2644.82648	0.03089
2643.54071	0.03071
2642.25494	0.03040
2640.96917	0.03013
2639.68340	0.03008
2638.39763	0.03016
2637.11186	0.03011
2635.82609	0.02983
2634.54033	0.02947
2633.25456	0.02920
2631.96879	0.02905
2630.68302	0.02897
2629.39725	0.02891
2628.11148	0.02884
2626.82571	0.02877
2625.53994	0.02872
2624.25418	0.02866
2622.96841	0.02848
2621.68264	0.02813
2620.39687	0.02771
2619.11110	0.02739
2617.82533	0.02720
2616.53956	0.02708
2615.25379	0.02706
2613.96802	0.02722
2612.68226	0.02752
2611.39649	0.02777
2610.11072	0.02783
2608.82495	0.02771
2607.53918	0.02747
2606.25341	0.02718
2604.96764	0.02688
2603.68187	0.02657
2602.39611	0.02624
2601.11034	0.02594
2599.82457	0.02576
2598.53880	0.02581
2597.25303	0.02606
2595.96726	0.02634
2594.68149	0.02644
2593.39572	0.02632
2592.10995	0.02611
2590.82419	0.02595
2589.53842	0.02585
2588.25265	0.02576
2586.96688	0.02566
2585.68111	0.02558
2584.39534	0.02560
2583.10957	0.02560
2581.82380	0.02542
2580.53804	0.02503
2579.25227	0.02464
2577.96650	0.02452
2576.68073	0.02468
2575.39496	0.02490
2574.10919	0.02494
2572.82342	0.02472
2571.53765	0.02427
2570.25188	0.02372
2568.96612	0.02329
2567.68035	0.02318
2566.39458	0.02341
2565.10881	0.02382
2563.82304	0.02419
2562.53727	0.02437
2561.25150	0.02437
2559.96573	0.02424
2558.67997	0.02409
2557.39420	0.02400
2556.10843	0.02395
2554.82266	0.02390
2553.53689	0.02385
2552.25112	0.02389
2550.96535	0.02402
2549.67958	0.02406
2548.39381	0.02385
2547.10805	0.02340
2545.82228	0.02288
2544.53651	0.02246
2543.25074	0.02223
2541.96497	0.02214
2540.67920	0.02212
2539.39343	0.02212
2538.10766	0.02216
2536.82190	0.02226
2535.53613	0.02230
2534.25036	0.02216
2532.96459	0.02178
2531.67882	0.02135
2530.39305	0.02113
2529.10728	0.02136
2527.82151	0.02194
2526.53574	0.02255
2525.24998	0.02288
2523.96421	0.02290
2522.67844	0.02278
2521.39267	0.02258
2520.10690	0.02225
2518.82113	0.02180
2517.53536	0.02143
2516.24959	0.02138
2514.96383	0.02164
2513.67806	0.02196
2512.39229	0.02216
2511.10652	0.02228
2509.82075	0.02242
2508.53498	0.02257
2507.24921	0.02259
2505.96344	0.02243
2504.67767	0.02228
2503.39191	0.02230
2502.10614	0.02244
2500.82037	0.02245
2499.53460	0.02219
2498.24883	0.02182
2496.96306	0.02160
2495.67729	0.02160
2494.39152	0.02174
2493.10576	0.02190
2491.81999	0.02205
2490.53422	0.02217
2489.24845	0.02228
2487.96268	0.02239
2486.67691	0.02247
2485.39114	0.02240
2484.10537	0.02211
2482.81960	0.02173
2481.53384	0.02143
2480.24807	0.02131
2478.96230	0.02129
2477.67653	0.02129
2476.39076	0.02132
2475.10499	0.02139
2473.81922	0.02147
2472.53345	0.02161
2471.24769	0.02184
2469.96192	0.02208
2468.67615	0.02213
2467.39038	0.02194
2466.10461	0.02167
2464.81884	0.02155
2463.53307	0.02155
2462.24730	0.02152
2460.96153	0.02140
2459.67577	0.02127
2458.39000	0.02118
2457.10423	0.02116
2455.81846	0.02126
2454.53269	0.02145
2453.24692	0.02159
2451.96115	0.02159
2450.67538	0.02156
2449.38962	0.02162
2448.10385	0.02178
2446.81808	0.02192
2445.53231	0.02192
2444.24654	0.02170
2442.96077	0.02127
2441.67500	0.02077
2440.38923	0.02040
2439.10346	0.02029
2437.81770	0.02034
2436.53193	0.02039
2435.24616	0.02038
2433.96039	0.02041
2432.67462	0.02050
2431.38885	0.02059
2430.10308	0.02056
2428.81731	0.02037
2427.53155	0.02005
2426.24578	0.01968
2424.96001	0.01938
2423.67424	0.01931
2422.38847	0.01949
2421.10270	0.01978
2419.81693	0.01998
2418.53116	0.01999
2417.24539	0.01984
2415.95963	0.01961
2414.67386	0.01942
2413.38809	0.01940
2412.10232	0.01960
2410.81655	0.01996
2409.53078	0.02025
2408.24501	0.02034
2406.95924	0.02022
2405.67347	0.02003
2404.38771	0.01990
2403.10194	0.01988
2401.81617	0.02003
2400.53040	0.02039
2399.24463	0.02150
2397.95886	0.02218
2396.67309	0.02205
2395.38732	0.02138
2394.10156	0.02051
2392.81579	0.01972
2391.53002	0.01914
2390.24425	0.01877
2388.95848	0.01856
2387.67271	0.01831
2386.38694	0.01792
2385.10117	0.01748
2383.81540	0.01711
2382.52964	0.01694
2381.24387	0.01683
2379.95810	0.01709
2378.67233	0.01739
2377.38656	0.01702
2376.10079	0.01722
2374.81502	0.01812
2373.52925	0.01769
2372.24349	0.01679
2370.95772	0.01453
2369.67195	0.01494
2368.38618	0.01710
2367.10041	0.01688
2365.81464	0.01445
2364.52887	0.01495
2363.24310	0.01545
2361.95733	0.01253
2360.67157	0.00825
2359.38580	0.00958
2358.10003	0.01348
2356.81426	0.01627
2355.52849	0.01835
2354.24272	0.01865
2352.95695	0.01819
2351.67118	0.01443
2350.38542	0.00314
2349.09965	-0.00436
2347.81388	0.00514
2346.52811	0.01914
2345.24234	0.02360
2343.95657	0.01995
2342.67080	0.01827
2341.38503	0.01879
2340.09926	0.01764
2338.81350	0.01631
2337.52773	0.01508
2336.24196	0.01528
2334.95619	0.01469
2333.67042	0.01343
2332.38465	0.01547
2331.09888	0.01602
2329.81311	0.01425
2328.52735	0.01641
2327.24158	0.01593
2325.95581	0.01332
2324.67004	0.01589
2323.38427	0.01819
2322.09850	0.01722
2320.81273	0.02036
2319.52696	0.02012
2318.24119	0.01651
2316.95543	0.01664
2315.66966	0.01664
2314.38389	0.01670
2313.09812	0.01808
2311.81235	0.01726
2310.52658	0.01792
2309.24081	0.01847
2307.95504	0.01735
2306.66928	0.01817
2305.38351	0.01743
2304.09774	0.01680
2302.81197	0.01740
2301.52620	0.01769
2300.24043	0.01835
2298.95466	0.01805
2297.66889	0.01793
2296.38312	0.01793
2295.09736	0.01776
2293.81159	0.01776
2292.52582	0.01745
2291.24005	0.01756
2289.95428	0.01774
2288.66851	0.01795
2287.38274	0.01799
2286.09697	0.01778
2284.81121	0.01739
2283.52544	0.01705
2282.23967	0.01708
2280.95390	0.01723
2279.66813	0.01743
2278.38236	0.01746
2277.09659	0.01753
2275.81082	0.01756
2274.52505	0.01748
2273.23929	0.01729
2271.95352	0.01681
2270.66775	0.01601
2269.38198	0.01523
2268.09621	0.01500
2266.81044	0.01517
2265.52467	0.01540
2264.23890	0.01564
2262.95314	0.01582
2261.66737	0.01589
2260.38160	0.01599
2259.09583	0.01596
2257.81006	0.01571
2256.52429	0.01528
2255.23852	0.01503
2253.95275	0.01464
2252.66698	0.01430
2251.38122	0.01439
2250.09545	0.01472
2248.80968	0.01514
2247.52391	0.01483
2246.23814	0.01408
2244.95237	0.01344
2243.66660	0.01340
2242.38083	0.01388
2241.09507	0.01433
2239.80930	0.01427
2238.52353	0.01378
2237.23776	0.01331
2235.95199	0.01309
2234.66622	0.01292
2233.38045	0.01252
2232.09468	0.01201
2230.80891	0.01180
2229.52315	0.01201
2228.23738	0.01232
2226.95161	0.01242
2225.66584	0.01230
2224.38007	0.01200
2223.09430	0.01151
2221.80853	0.01087
2220.52276	0.01039
2219.23700	0.01047
2217.95123	0.01122
2216.66546	0.01231
2215.37969	0.01316
2214.09392	0.01323
2212.80815	0.01242
2211.52238	0.01113
2210.23661	0.00996
2208.95084	0.00927
2207.66508	0.00904
2206.37931	0.00915
2205.09354	0.00950
2203.80777	0.00991
2202.52200	0.01013
2201.23623	0.00998
2199.95046	0.00944
2198.66469	0.00859
2197.37893	0.00765
2196.09316	0.00698
2194.80739	0.00687
2193.52162	0.00723
2192.23585	0.00771
2190.95008	0.00796
2189.66431	0.00774
2188.37854	0.00695
2187.09277	0.00574
2185.80701	0.00450
2184.52124	0.00363
2183.23547	0.00339
2181.94970	0.00383
2180.66393	0.00465
2179.37816	0.00532
2178.09239	0.00560
2176.80662	0.00585
2175.52085	0.00647
2174.23509	0.00708
2172.94932	0.00691
2171.66355	0.00578
2170.37778	0.00435
2169.09201	0.00330
2167.80624	0.00274
2166.52047	0.00235
2165.23470	0.00198
2163.94894	0.00173
2162.66317	0.00152
2161.37740	0.00092
2160.09163	-0.00043
2158.80586	-0.00220
2157.52009	-0.00348
2156.23432	-0.00360
2154.94855	-0.00260
2153.66278	-0.00096
2152.37702	0.00075
2151.09125	0.00216
2149.80548	0.00320
2148.51971	0.00392
2147.23394	0.00436
2145.94817	0.00450
2144.66240	0.00453
2143.37663	0.00485
2142.09087	0.00574
2140.80510	0.00698
2139.51933	0.00793
2138.23356	0.00810
2136.94779	0.00756
2135.66202	0.00688
2134.37625	0.00654
2133.09048	0.00660
2131.80471	0.00682
2130.51895	0.00710
2129.23318	0.00739
2127.94741	0.00753
2126.66164	0.00736
2125.37587	0.00698
2124.09010	0.00670
2122.80433	0.00679
2121.51856	0.00735
2120.23280	0.00831
2118.94703	0.00934
2117.66126	0.00992
2116.37549	0.00979
2115.08972	0.00931
2113.80395	0.00911
2112.51818	0.00933
2111.23241	0.00949
2109.94664	0.00927
2108.66088	0.00888
2107.37511	0.00880
2106.08934	0.00916
2104.80357	0.00968
2103.51780	0.01005
2102.23203	0.01020
2100.94626	0.01010
2099.66049	0.00978
2098.37473	0.00903
2097.08896	0.00810
2095.80319	0.00750
2094.51742	0.00754
2093.23165	0.00812
2091.94588	0.00880
2090.66011	0.00914
2089.37434	0.00904
2088.08857	0.00870
2086.80281	0.00840
2085.51704	0.00823
2084.23127	0.00818
2082.94550	0.00825
2081.65973	0.00848
2080.37396	0.00882
2079.08819	0.00901
2077.80242	0.00883
2076.51666	0.00823
2075.23089	0.00752
2073.94512	0.00703
2072.65935	0.00690
2071.37358	0.00706
2070.08781	0.00735
2068.80204	0.00762
2067.51627	0.00767
2066.23050	0.00731
2064.94474	0.00665
2063.65897	0.00612
2062.37320	0.00616
2061.08743	0.00677
2059.80166	0.00751
2058.51589	0.00779
2057.23012	0.00735
2055.94435	0.00650
2054.65859	0.00587
2053.37282	0.00590
2052.08705	0.00641
2050.80128	0.00664
2049.51551	0.00597
2048.22974	0.00452
2046.94397	0.00306
2045.65820	0.00228
2044.37243	0.00223
2043.08667	0.00256
2041.80090	0.00291
2040.51513	0.00313
2039.22936	0.00321
2037.94359	0.00322
2036.65782	0.00336
2035.37205	0.00383
2034.08628	0.00446
2032.80052	0.00467
2031.51475	0.00393
2030.22898	0.00246
2028.94321	0.00112
2027.65744	0.00062
2026.37167	0.00091
2025.08590	0.00145
2023.80013	0.00191
2022.51436	0.00244
2021.22860	0.00331
2019.94283	0.00435
2018.65706	0.00502
2017.37129	0.00486
2016.08552	0.00394
2014.79975	0.00281
2013.51398	0.00208
2012.22821	0.00202
2010.94245	0.00237
2009.65668	0.00259
2008.37091	0.00243
2007.08514	0.00220
2005.79937	0.00242
2004.51360	0.00315
2003.22783	0.00392
2001.94206	0.00430
2000.65629	0.00427
1999.37053	0.00420
1998.08476	0.00443
1996.79899	0.00499
1995.51322	0.00557
1994.22745	0.00575
1992.94168	0.00539
1991.65591	0.00483
1990.37014	0.00459
1989.08438	0.00501
1987.79861	0.00600
1986.51284	0.00708
1985.22707	0.00774
1983.94130	0.00777
1982.65553	0.00730
1981.36976	0.00649
1980.08399	0.00550
1978.79822	0.00467
1977.51246	0.00436
1976.22669	0.00465
1974.94092	0.00516
1973.65515	0.00540
1972.36938	0.00523
1971.08361	0.00495
1969.79784	0.00492
1968.51207	0.00525
1967.22631	0.00576
1965.94054	0.00618
1964.65477	0.00632
1963.36900	0.00626
1962.08323	0.00626
1960.79746	0.00650
1959.51169	0.00685
1958.22592	0.00711
1956.94015	0.00730
1955.65439	0.00769
1954.36862	0.00835
1953.08285	0.00901
1951.79708	0.00925
1950.51131	0.00893
1949.22554	0.00826
1947.93977	0.00763
1946.65400	0.00737
1945.36823	0.00757
1944.08247	0.00814
1942.79670	0.00888
1941.51093	0.00951
1940.22516	0.00977
1938.93939	0.00966
1937.65362	0.00950
1936.36785	0.00952
1935.08208	0.00972
1933.79632	0.00988
1932.51055	0.00984
1931.22478	0.00960
1929.93901	0.00916
1928.65324	0.00856
1927.36747	0.00797
1926.08170	0.00761
1924.79593	0.00767
1923.51016	0.00814
1922.22440	0.00883
1920.93863	0.00941
1919.65286	0.00966
1918.36709	0.00961
1917.08132	0.00951
1915.79555	0.00954
1914.50978	0.00972
1913.22401	0.01000
1911.93825	0.01019
1910.65248	0.01014
1909.36671	0.00989
1908.08094	0.00970
1906.79517	0.00977
1905.50940	0.01008
1904.22363	0.01042
1902.93786	0.01066
1901.65209	0.01084
1900.36633	0.01107
1899.08056	0.01135
1897.79479	0.01153
1896.50902	0.01144
1895.22325	0.01115
1893.93748	0.01086
1892.65171	0.01075
1891.36594	0.01083
1890.08018	0.01104
1888.79441	0.01131
1887.50864	0.01161
1886.22287	0.01186
1884.93710	0.01196
1883.65133	0.01185
1882.36556	0.01158
1881.07979	0.01127
1879.79402	0.01102
1878.50826	0.01087
1877.22249	0.01082
1875.93672	0.01089
1874.65095	0.01108
1873.36518	0.01135
1872.07941	0.01163
1870.79364	0.01180
1869.50787	0.01181
1868.22211	0.01170
1866.93634	0.01154
1865.65057	0.01139
1864.36480	0.01129
1863.07903	0.01126
1861.79326	0.01129
1860.50749	0.01135
1859.22172	0.01144
1857.93595	0.01152
1856.65019	0.01156
1855.36442	0.01153
1854.07865	0.01145
1852.79288	0.01141
1851.50711	0.01146
1850.22134	0.01162
1848.93557	0.01191
1847.64980	0.01220
1846.36404	0.01229
1845.07827	0.01211
1843.79250	0.01184
1842.50673	0.01169
1841.22096	0.01163
1839.93519	0.01159
1838.64942	0.01154
1837.36365	0.01149
1836.07788	0.01144
1834.79212	0.01138
1833.50635	0.01137
1832.22058	0.01141
1830.93481	0.01156
1829.64904	0.01183
1828.36327	0.01209
1827.07750	0.01213
1825.79173	0.01194
1824.50597	0.01174
1823.22020	0.01171
1821.93443	0.01181
1820.64866	0.01191
1819.36289	0.01189
1818.07712	0.01175
1816.79135	0.01160
1815.50558	0.01158
1814.21981	0.01173
1812.93405	0.01194
1811.64828	0.01213
1810.36251	0.01226
1809.07674	0.01232
1807.79097	0.01234
1806.50520	0.01235
1805.21943	0.01236
1803.93366	0.01238
1802.64790	0.01242
1801.36213	0.01247
1800.07636	0.01254
1798.79059	0.01264
1797.50482	0.01282
1796.21905	0.01308
1794.93328	0.01334
1793.64751	0.01346
1792.36174	0.01345
1791.07598	0.01340
1789.79021	0.01334
1788.50444	0.01329
1787.21867	0.01326
1785.93290	0.01329
1784.64713	0.01339
1783.36136	0.01352
1782.07559	0.01365
1780.78983	0.01380
1779.50406	0.01398
1778.21829	0.01417
1776.93252	0.01436
1775.64675	0.01452
1774.36098	0.01459
1773.07521	0.01463
1771.78944	0.01475
1770.50367	0.01490
1769.21791	0.01494
1767.93214	0.01492
1766.64637	0.01498
1765.36060	0.01512
1764.07483	0.01521
1762.78906	0.01528
1761.50329	0.01544
1760.21752	0.01564
1758.93176	0.01573
1757.64599	0.01569
1756.36022	0.01569
1755.07445	0.01582
1753.78868	0.01593
1752.50291	0.01591
1751.21714	0.01585
1749.93137	0.01587
1748.64560	0.01595
1747.35984	0.01604
1746.07407	0.01612
1744.78830	0.01621
1743.50253	0.01630
1742.21676	0.01637
1740.93099	0.01642
1739.64522	0.01657
1738.35945	0.01686
1737.07369	0.01711
1735.78792	0.01715
1734.50215	0.01715
1733.21638	0.01736
1731.93061	0.01769
1730.64484	0.01786
1729.35907	0.01789
1728.07330	0.01796
1726.78753	0.01813
1725.50177	0.01830
1724.21600	0.01847
1722.93023	0.01870
1721.64446	0.01903
1720.35869	0.01935
1719.07292	0.01961
1717.78715	0.01992
1716.50138	0.02037
1715.21561	0.02084
1713.92985	0.02119
1712.64408	0.02142
1711.35831	0.02163
1710.07254	0.02187
1708.78677	0.02213
1707.50100	0.02240
1706.21523	0.02273
1704.92946	0.02324
1703.64370	0.02382
1702.35793	0.02420
1701.07216	0.02441
1699.78639	0.02478
1698.50062	0.02520
1697.21485	0.02533
1695.92908	0.02529
1694.64331	0.02549
1693.35754	0.02589
1692.07178	0.02618
1690.78601	0.02638
1689.50024	0.02671
1688.21447	0.02718
1686.92870	0.02755
1685.64293	0.02773
1684.35716	0.02796
1683.07139	0.02840
1681.78563	0.02881
1680.49986	0.02908
1679.21409	0.02932
1677.92832	0.02962
1676.64255	0.02994
1675.35678	0.03033
1674.07101	0.03087
1672.78524	0.03141
1671.49947	0.03180
1670.21371	0.03208
1668.92794	0.03242
1667.64217	0.03286
1666.35640	0.03326
1665.07063	0.03353
1663.78486	0.03375
1662.49909	0.03406
1661.21332	0.03444
1659.92756	0.03487
1658.64179	0.03537
1657.35602	0.03597
1656.07025	0.03644
1654.78448	0.03656
1653.49871	0.03658
1652.21294	0.03694
1650.92717	0.03756
1649.64140	0.03796
1648.35564	0.03799
1647.06987	0.03797
1645.78410	0.03812
1644.49833	0.03836
1643.21256	0.03851
1641.92679	0.03856
1640.64102	0.03867
1639.35525	0.03886
1638.06949	0.03903
1636.78372	0.03911
1635.49795	0.03927
1634.21218	0.03961
1632.92641	0.04001
1631.64064	0.04029
1630.35487	0.04047
1629.06910	0.04066
1627.78333	0.04091
1626.49757	0.04117
1625.21180	0.04136
1623.92603	0.04151
1622.64026	0.04177
1621.35449	0.04219
1620.06872	0.04259
1618.78295	0.04279
1617.49718	0.04290
1616.21142	0.04313
1614.92565	0.04348
1613.63988	0.04375
1612.35411	0.04387
1611.06834	0.04402
1609.78257	0.04432
1608.49680	0.04473
1607.21103	0.04513
1605.92526	0.04546
1604.63950	0.04574
1603.35373	0.04601
1602.06796	0.04628
1600.78219	0.04655
1599.49642	0.04685
1598.21065	0.04714
1596.92488	0.04743
1595.63911	0.04765
1594.35335	0.04783
1593.06758	0.04797
1591.78181	0.04813
1590.49604	0.04833
1589.21027	0.04860
1587.92450	0.04890
1586.63873	0.04920
1585.35296	0.04946
1584.06719	0.04967
1582.78143	0.04987
1581.49566	0.05013
1580.20989	0.05049
1578.92412	0.05078
1577.63835	0.05090
1576.35258	0.05097
1575.06681	0.05119
1573.78104	0.05148
1572.49528	0.05163
1571.20951	0.05164
1569.92374	0.05171
1568.63797	0.05192
1567.35220	0.05212
1566.06643	0.05219
1564.78066	0.05226
1563.49489	0.05248
1562.20912	0.05271
1560.92336	0.05283
1559.63759	0.05295
1558.35182	0.05327
1557.06605	0.05359
1555.78028	0.05357
1554.49451	0.05329
1553.20874	0.05305
1551.92297	0.05295
1550.63721	0.05288
1549.35144	0.05280
1548.06567	0.05272
1546.77990	0.05263
1545.49413	0.05257
1544.20836	0.05258
1542.92259	0.05255
1541.63682	0.05234
1540.35105	0.05203
1539.06529	0.05183
1537.77952	0.05180
1536.49375	0.05171
1535.20798	0.05143
1533.92221	0.05117
1532.63644	0.05118
1531.35067	0.05145
1530.06490	0.05183
1528.77914	0.05225
1527.49337	0.05275
1526.20760	0.05337
1524.92183	0.05407
1523.63606	0.05476
1522.35029	0.05545
1521.06452	0.05632
1519.77875	0.05739
1518.49298	0.05849
1517.20722	0.05955
1515.92145	0.06069
1514.63568	0.06196
1513.34991	0.06330
1512.06414	0.06474
1510.77837	0.06630
1509.49260	0.06788
1508.20683	0.06935
1506.92107	0.07079
1505.63530	0.07232
1504.34953	0.07384
1503.06376	0.07514
1501.77799	0.07628
1500.49222	0.07743
1499.20645	0.07863
1497.92068	0.07978
1496.63491	0.08087
1495.34915	0.08193
1494.06338	0.08293
1492.77761	0.08382
1491.49184	0.08464
1490.20607	0.08552
1488.92030	0.08646
1487.63453	0.08740
1486.34876	0.08838
1485.06299	0.08947
1483.77723	0.09066
1482.49146	0.09189
1481.20569	0.09315
1479.91992	0.09444
1478.63415	0.09574
1477.34838	0.09705
1476.06261	0.09834
1474.77684	0.09954
1473.49108	0.10060
1472.20531	0.10155
1470.91954	0.10237
1469.63377	0.10298
1468.34800	0.10334
1467.06223	0.10354
1465.77646	0.10372
1464.49069	0.10402
1463.20492	0.10449
1461.91916	0.10507
1460.63339	0.10564
1459.34762	0.10614
1458.06185	0.10662
1456.77608	0.10725
1455.49031	0.10803
1454.20454	0.10868
1452.91877	0.10907
1451.63301	0.10930
1450.34724	0.10952
1449.06147	0.10967
1447.77570	0.10968
1446.48993	0.10955
1445.20416	0.10932
1443.91839	0.10906
1442.63262	0.10881
1441.34685	0.10863
1440.06109	0.10848
1438.77532	0.10834
1437.48955	0.10832
1436.20378	0.10858
1434.91801	0.10912
1433.63224	0.10982
1432.34647	0.11060
1431.06070	0.11158
1429.77494	0.11279
1428.48917	0.11416
1427.20340	0.11560
1425.91763	0.11709
1424.63186	0.11869
1423.34609	0.12042
1422.06032	0.12211
1420.77455	0.12362
1419.48878	0.12497
1418.20302	0.12621
1416.91725	0.12720
1415.63148	0.12783
1414.34571	0.12813
1413.05994	0.12820
1411.77417	0.12807
1410.48840	0.12773
1409.20263	0.12713
1407.91687	0.12624
1406.63110	0.12505
1405.34533	0.12362
1404.05956	0.12200
1402.77379	0.12020
1401.48802	0.11818
1400.20225	0.11598
1398.91648	0.11372
1397.63071	0.11143
1396.34495	0.10908
1395.05918	0.10663
1393.77341	0.10415
1392.48764	0.10161
1391.20187	0.09897
1389.91610	0.09625
1388.63033	0.09356
1387.34456	0.09101
1386.05880	0.08860
1384.77303	0.08625
1383.48726	0.08391
1382.20149	0.08158
1380.91572	0.07924
1379.62995	0.07687
1378.34418	0.07445
1377.05841	0.07202
1375.77264	0.06959
1374.48688	0.06718
1373.20111	0.06486
1371.91534	0.06262
1370.62957	0.06047
1369.34380	0.05841
1368.05803	0.05650
1366.77226	0.05473
1365.48649	0.05306
1364.20073	0.05142
1362.91496	0.04982
1361.62919	0.04831
1360.34342	0.04690
1359.05765	0.04557
1357.77188	0.04431
1356.48611	0.04313
1355.20034	0.04204
1353.91457	0.04103
1352.62881	0.04010
1351.34304	0.03922
1350.05727	0.03838
1348.77150	0.03757
1347.48573	0.03679
1346.19996	0.03603
1344.91419	0.03530
1343.62842	0.03461
1342.34266	0.03397
1341.05689	0.03335
1339.77112	0.03275
1338.48535	0.03219
1337.19958	0.03170
1335.91381	0.03127
1334.62804	0.03085
1333.34227	0.03041
1332.05650	0.02993
1330.77074	0.02947
1329.48497	0.02907
1328.19920	0.02874
1326.91343	0.02842
1325.62766	0.02809
1324.34189	0.02776
1323.05612	0.02747
1321.77035	0.02724
1320.48459	0.02704
1319.19882	0.02683
1317.91305	0.02657
1316.62728	0.02627
1315.34151	0.02598
1314.05574	0.02575
1312.76997	0.02557
1311.48420	0.02539
1310.19843	0.02521
1308.91267	0.02502
1307.62690	0.02486
1306.34113	0.02471
1305.05536	0.02455
1303.76959	0.02435
1302.48382	0.02413
1301.19805	0.02391
1299.91228	0.02370
1298.62652	0.02352
1297.34075	0.02335
1296.05498	0.02320
1294.76921	0.02308
1293.48344	0.02299
1292.19767	0.02291
1290.91190	0.02280
1289.62613	0.02267
1288.34036	0.02253
1287.05460	0.02241
1285.76883	0.02230
1284.48306	0.02220
1283.19729	0.02209
1281.91152	0.02198
1280.62575	0.02187
1279.33998	0.02173
1278.05421	0.02156
1276.76845	0.02138
1275.48268	0.02119
1274.19691	0.02103
1272.91114	0.02091
1271.62537	0.02086
1270.33960	0.02087
1269.05383	0.02088
1267.76806	0.02084
1266.48229	0.02074
1265.19653	0.02060
1263.91076	0.02045
1262.62499	0.02033
1261.33922	0.02023
1260.05345	0.02014
1258.76768	0.02005
1257.48191	0.01996
1256.19614	0.01989
1254.91037	0.01986
1253.62461	0.01988
1252.33884	0.01990
1251.05307	0.01989
1249.76730	0.01982
1248.48153	0.01970
1247.19576	0.01956
1245.90999	0.01942
1244.62422	0.01928
1243.33846	0.01917
1242.05269	0.01911
1240.76692	0.01907
1239.48115	0.01903
1238.19538	0.01899
1236.90961	0.01897
1235.62384	0.01900
1234.33807	0.01904
1233.05230	0.01904
1231.76654	0.01900
1230.48077	0.01894
1229.19500	0.01893
1227.90923	0.01897
1226.62346	0.01905
1225.33769	0.01913
1224.05192	0.01918
1222.76615	0.01917
1221.48039	0.01911
1220.19462	0.01900
1218.90885	0.01889
1217.62308	0.01884
1216.33731	0.01887
1215.05154	0.01898
1213.76577	0.01912
1212.48000	0.01927
1211.19423	0.01938
1209.90847	0.01946
1208.62270	0.01952
1207.33693	0.01959
1206.05116	0.01965
1204.76539	0.01971
1203.47962	0.01973
1202.19385	0.01974
1200.90808	0.01974
1199.62232	0.01974
1198.33655	0.01979
1197.05078	0.01987
1195.76501	0.01997
1194.47924	0.02006
1193.19347	0.02015
1191.90770	0.02026
1190.62193	0.02037
1189.33616	0.02048
1188.05040	0.02058
1186.76463	0.02068
1185.47886	0.02078
1184.19309	0.02085
1182.90732	0.02090
1181.62155	0.02096
1180.33578	0.02105
1179.05001	0.02117
1177.76425	0.02130
1176.47848	0.02147
1175.19271	0.02167
1173.90694	0.02185
1172.62117	0.02199
1171.33540	0.02209
1170.04963	0.02220
1168.76386	0.02238
1167.47809	0.02263
1166.19233	0.02294
1164.90656	0.02327
1163.62079	0.02361
1162.33502	0.02392
1161.04925	0.02421
1159.76348	0.02453
1158.47771	0.02489
1157.19194	0.02528
1155.90618	0.02568
1154.62041	0.02607
1153.33464	0.02648
1152.04887	0.02696
1150.76310	0.02752
1149.47733	0.02814
1148.19156	0.02881
1146.90579	0.02953
1145.62002	0.03029
1144.33426	0.03110
1143.04849	0.03196
1141.76272	0.03295
1140.47695	0.03411
1139.19118	0.03546
1137.90541	0.03693
1136.61964	0.03848
1135.33387	0.04014
1134.04811	0.04192
1132.76234	0.04387
1131.47657	0.04602
1130.19080	0.04839
1128.90503	0.05099
1127.61926	0.05380
1126.33349	0.05682
1125.04772	0.06007
1123.76195	0.06358
1122.47619	0.06728
1121.19042	0.07108
1119.90465	0.07492
1118.61888	0.07878
1117.33311	0.08266
1116.04734	0.08660
1114.76157	0.09061
1113.47580	0.09466
1112.19004	0.09868
1110.90427	0.10263
1109.61850	0.10648
1108.33273	0.11025
1107.04696	0.11396
1105.76119	0.11761
1104.47542	0.12116
1103.18965	0.12460
1101.90388	0.12797
1100.61812	0.13130
1099.33235	0.13456
1098.04658	0.13770
1096.76081	0.14069
1095.47504	0.14355
1094.18927	0.14633
1092.90350	0.14907
1091.61773	0.15175
1090.33197	0.15432
1089.04620	0.15674
1087.76043	0.15901
1086.47466	0.16121
1085.18889	0.16346
1083.90312	0.16579
1082.61735	0.16821
1081.33158	0.17075
1080.04581	0.17346
1078.76005	0.17637
1077.47428	0.17948
1076.18851	0.18274
1074.90274	0.18617
1073.61697	0.18978
1072.33120	0.19359
1071.04543	0.19753
1069.75966	0.20151
1068.47390	0.20545
1067.18813	0.20940
1065.90236	0.21347
1064.61659	0.21772
1063.33082	0.22211
1062.04505	0.22650
1060.75928	0.23086
1059.47351	0.23521
1058.18774	0.23963
1056.90198	0.24409
1055.61621	0.24856
1054.33044	0.25300
1053.04467	0.25741
1051.75890	0.26178
1050.47313	0.26612
1049.18736	0.27047
1047.90159	0.27489
1046.61583	0.27948
1045.33006	0.28431
1044.04429	0.28931
1042.75852	0.29434
1041.47275	0.29933
1040.18698	0.30433
1038.90121	0.30945
1037.61544	0.31469
1036.32967	0.31995
1035.04391	0.32510
1033.75814	0.33006
1032.47237	0.33476
1031.18660	0.33911
1029.90083	0.34303
1028.61506	0.34650
1027.32929	0.34957
1026.04352	0.35223
1024.75775	0.35443
1023.47199	0.35607
1022.18622	0.35705
1020.90045	0.35733
1019.61468	0.35694
1018.32891	0.35590
1017.04314	0.35419
1015.75737	0.35177
1014.47160	0.34864
1013.18584	0.34482
1011.90007	0.34025
1010.61430	0.33488
1009.32853	0.32868
1008.04276	0.32169
1006.75699	0.31403
1005.47122	0.30588
1004.18545	0.29738
1002.89968	0.28860
1001.61392	0.27955
1000.32815	0.27024
999.04238	0.26073
997.75661	0.25108
996.47084	0.24134
995.18507	0.23155
993.89930	0.22186
992.61353	0.21243
991.32777	0.20340
990.04200	0.19474
988.75623	0.18637
987.47046	0.17825
986.18469	0.17044
984.89892	0.16303
983.61315	0.15607
982.32738	0.14953
981.04161	0.14340
979.75585	0.13771
978.47008	0.13248
977.18431	0.12770
975.89854	0.12333
974.61277	0.11944
973.32700	0.11614
972.04123	0.11359
970.75546	0.11182
969.46970	0.11084
968.18393	0.11065
966.89816	0.11120
965.61239	0.11234
964.32662	0.11378
963.04085	0.11514
961.75508	0.11604
960.46931	0.11617
959.18354	0.11537
957.89778	0.11367
956.61201	0.11121
955.32624	0.10818
954.04047	0.10480
952.75470	0.10130
951.46893	0.09787
950.18316	0.09461
948.89739	0.09152
947.61163	0.08858
946.32586	0.08574
945.04009	0.08296
943.75432	0.08021
942.46855	0.07752
941.18278	0.07503
939.89701	0.07280
938.61124	0.07080
937.32547	0.06893
936.03971	0.06714
934.75394	0.06543
933.46817	0.06383
932.18240	0.06235
930.89663	0.06099
929.61086	0.05973
928.32509	0.05854
927.03932	0.05740
925.75356	0.05630
924.46779	0.05529
923.18202	0.05438
921.89625	0.05353
920.61048	0.05271
919.32471	0.05194
918.03894	0.05129
916.75317	0.05075
915.46740	0.05026
914.18164	0.04975
912.89587	0.04919
911.61010	0.04859
910.32433	0.04797
909.03856	0.04734
907.75279	0.04678
906.46702	0.04636
905.18125	0.04607
903.89549	0.04581
902.60972	0.04545
901.32395	0.04499
900.03818	0.04454
898.75241	0.04425
897.46664	0.04416
896.18087	0.04418
894.89510	0.04418
893.60933	0.04413
892.32357	0.04409
891.03780	0.04425
889.75203	0.04476
888.46626	0.04567
887.18049	0.04701
885.89472	0.04888
884.60895	0.05146
883.32318	0.05477
882.03742	0.05857
880.75165	0.06232
879.46588	0.06548
878.18011	0.06785
876.89434	0.06974
875.60857	0.07158
874.32280	0.07345
873.03703	0.07493
871.75126	0.07545
870.46550	0.07476
869.17973	0.07298
867.89396	0.07043
866.60819	0.06737
865.32242	0.06405
864.03665	0.06074
862.75088	0.05772
861.46511	0.05519
860.17935	0.05315
858.89358	0.05147
857.60781	0.05000
856.32204	0.04867
855.03627	0.04748
853.75050	0.04644
852.46473	0.04557
851.17896	0.04486
849.89319	0.04431
848.60743	0.04386
847.32166	0.04346
846.03589	0.04304
844.75012	0.04263
843.46435	0.04227
842.17858	0.04194
840.89281	0.04162
839.60704	0.04133
838.32128	0.04108
837.03551	0.04084
835.74974	0.04058
834.46397	0.04031
833.17820	0.04003
831.89243	0.03982
830.60666	0.03972
829.32089	0.03969
828.03512	0.03964
826.74936	0.03952
825.46359	0.03938
824.17782	0.03928
822.89205	0.03923
821.60628	0.03918
820.32051	0.03909
819.03474	0.03896
817.74897	0.03881
816.46321	0.03866
815.17744	0.03856
813.89167	0.03851
812.60590	0.03849
811.32013	0.03848
810.03436	0.03843
808.74859	0.03833
807.46282	0.03824
806.17705	0.03825
804.89129	0.03838
803.60552	0.03854
802.31975	0.03859
801.03398	0.03852
799.74821	0.03841
798.46244	0.03829
797.17667	0.03817
795.89090	0.03802
794.60513	0.03788
793.31937	0.03782
792.03360	0.03786
790.74783	0.03797
789.46206	0.03807
788.17629	0.03815
786.89052	0.03823
785.60475	0.03830
784.31898	0.03836
783.03322	0.03837
781.74745	0.03833
780.46168	0.03824
779.17591	0.03812
777.89014	0.03795
776.60437	0.03776
775.31860	0.03762
774.03283	0.03759
772.74706	0.03769
771.46130	0.03784
770.17553	0.03796
768.88976	0.03801
767.60399	0.03800
766.31822	0.03798
765.03245	0.03799
763.74668	0.03803
762.46091	0.03811
761.17515	0.03821
759.88938	0.03835
758.60361	0.03849
757.31784	0.03858
756.03207	0.03860
754.74630	0.03856
753.46053	0.03847
752.17476	0.03838
750.88899	0.03832
749.60323	0.03836
748.31746	0.03848
747.03169	0.03858
745.74592	0.03860
744.46015	0.03852
743.17438	0.03840
741.88861	0.03828
740.60284	0.03817
739.31708	0.03811
738.03131	0.03816
736.74554	0.03829
735.45977	0.03850
734.17400	0.03871
732.88823	0.03889
731.60246	0.03896
730.31669	0.03893
729.03092	0.03888
727.74516	0.03890
726.45939	0.03900
725.17362	0.03908
723.88785	0.03876
722.60208	0.03858
721.31631	0.03903
720.03054	0.03943
718.74477	0.03922
717.45901	0.03932
716.17324	0.03949
714.88747	0.03944
713.60170	0.03927
712.31593	0.03910
711.03016	0.03896
709.74439	0.03881
708.45862	0.03862
707.17285	0.03840
705.88709	0.03816
704.60132	0.03793
703.31555	0.03776
702.02978	0.03764
700.74401	0.03755
699.45824	0.03744
698.17247	0.03728
696.88670	0.03712
695.60094	0.03696
694.31517	0.03675
693.02940	0.03648
691.74363	0.03616
690.45786	0.03580
689.17209	0.03545
687.88632	0.03513
686.60055	0.03484
685.31478	0.03452
684.02902	0.03421
682.74325	0.03395
681.45748	0.03378
680.17171	0.03371
678.88594	0.03374
677.60017	0.03392
676.31440	0.03424
675.02863	0.03455
673.74287	0.03414
672.45710	0.03199
671.17133	0.02922
669.88556	0.03145
668.59979	0.04019
667.31402	0.03891
666.02825	0.03129
664.74248	0.03147
663.45671	0.03453
662.17095	0.03590
660.88518	0.03580
659.59941	0.03522
658.31364	0.03472
657.02787	0.03445
655.74210	0.03440
654.45633	0.03435
653.17056	0.03440
651.88480	0.03447
650.59903	0.03469
649.31326	0.03512
648.02749	0.03543
646.74172	0.03575
645.45595	0.03616
644.17018	0.03658
642.88441	0.03704
641.59864	0.03755
640.31288	0.03808
639.02711	0.03859
637.74134	0.03905
636.45557	0.03945
635.16980	0.03980
633.88403	0.04013
632.59826	0.04054
631.31249	0.04115
630.02673	0.04205
628.74096	0.04306
627.45519	0.04397
626.16942	0.04531
624.88365	0.04671
623.59788	0.04812
622.31211	0.05029
621.02634	0.05377
619.74057	0.05780
618.45481	0.06111
617.16904	0.06358
615.88327	0.06609
614.59750	0.06927
613.31173	0.07317
612.02596	0.07799
610.74019	0.08444
609.45442	0.09272
608.16866	0.10165
606.88289	0.10960
605.59712	0.11584
604.31135	0.12026
603.02558	0.12283
601.73981	0.12362
600.45404	0.12298
599.16827	0.12129
597.88250	0.11875
596.59674	0.11555
595.31097	0.11196
594.02520	0.10834
592.73943	0.10503
591.45366	0.10232
590.16789	0.10046
588.88212	0.09971
587.59635	0.10014
586.31059	0.10153
585.02482	0.10358
583.73905	0.10606
582.45328	0.10891
581.16751	0.11213
579.88174	0.11568
578.59597	0.11940
577.31020	0.12311
576.02443	0.12667
574.73867	0.13002
573.45290	0.13317
572.16713	0.13619
570.88136	0.13935
569.59559	0.14298
568.30982	0.14732
567.02405	0.15235
565.73828	0.15761
564.45251	0.16228
563.16675	0.16550
561.88098	0.16667
560.59521	0.16563
559.30944	0.16251
558.02367	0.15763
556.73790	0.15137
555.45213	0.14413
554.16636	0.13631
552.88060	0.12839
551.59483	0.12082
550.30906	0.11388
549.02329	0.10765
547.73752	0.10208
546.45175	0.09708
545.16598	0.09254
543.88021	0.08833
542.59444	0.08439
541.30868	0.08077
540.02291	0.07754
538.73714	0.07473
537.45137	0.07223
536.16560	0.06995
534.87983	0.06787
533.59406	0.06595
532.30829	0.06415
531.02253	0.06245
529.73676	0.06078
528.45099	0.05910
527.16522	0.05740
525.87945	0.05578
524.59368	0.05439
523.30791	0.05328
522.02214	0.05233
520.73637	0.05142
519.45061	0.05048
518.16484	0.04954
516.87907	0.04861
515.59330	0.04768
514.30753	0.04678
513.02176	0.04591
511.73599	0.04513
510.45022	0.04441
509.16446	0.04375
507.87869	0.04316
506.59292	0.04266
505.30715	0.04219
504.02138	0.04169
502.73561	0.04109
501.44984	0.04044
500.16407	0.03981
498.87830	0.03925
497.59254	0.03874
496.30677	0.03823
495.02100	0.03774
493.73523	0.03737
492.44946	0.03719
491.16369	0.03713
489.87792	0.03706
488.59215	0.03692
487.30639	0.03669
486.02062	0.03646
484.73485	0.03628
483.44908	0.03624
482.16331	0.03633
480.87754	0.03652
479.59177	0.03671
478.30600	0.03687
477.02023	0.03704
475.73447	0.03726
474.44870	0.03752
473.16293	0.03773
471.87716	0.03783
470.59139	0.03779
469.30562	0.03770
468.01985	0.03760
466.73408	0.03749
465.44832	0.03732
464.16255	0.03704
462.87678	0.03666
461.59101	0.03621
460.30524	0.03573
459.01947	0.03527
457.73370	0.03489
456.44793	0.03459
455.16216	0.03427
453.87640	0.03391
452.59063	0.03352
451.30486	0.03316
450.01909	0.03283
448.73332	0.03253
447.44755	0.03224
446.16178	0.03194
444.87601	0.03163
443.59025	0.03136
442.30448	0.03115
441.01871	0.03102
439.73294	0.03093
438.44717	0.03082
437.16140	0.03070
435.87563	0.03055
434.58986	0.03040
433.30409	0.03026
432.01833	0.03015
430.73256	0.03006
429.44679	0.02997
428.16102	0.02988
426.87525	0.02979
425.58948	0.02972
424.30371	0.02965
423.01794	0.02958
421.73218	0.02946
420.44641	0.02931
419.16064	0.02916
417.87487	0.02903
416.58910	0.02889
415.30333	0.02872
414.01756	0.02857
412.73179	0.02848
411.44602	0.02849
410.16026	0.02858
408.87449	0.02871
407.58872	0.02884
406.30295	0.02891
405.01718	0.02894
403.73141	0.02894
402.44564	0.02897
401.15987	0.02904
399.87411	0.02913
