3997.45528	0.05063
3996.16951	0.04972
3994.88374	0.04907
3993.59798	0.04900
3992.31221	0.04960
3991.02644	0.05049
3989.74067	0.05119
3988.45490	0.05160
3987.16913	0.05199
3985.88336	0.05256
3984.59759	0.05309
3983.31183	0.05316
3982.02606	0.05269
3980.74029	0.05200
3979.45452	0.05143
3978.16875	0.05096
3976.88298	0.05041
3975.59721	0.04972
3974.31144	0.04905
3973.02567	0.04856
3971.73991	0.04833
3970.45414	0.04846
3969.16837	0.04913
3967.88260	0.05021
3966.59683	0.05115
3965.31106	0.05133
3964.02529	0.05070
3962.73952	0.04985
3961.45376	0.04944
3960.16799	0.04970
3958.88222	0.05030
3957.59645	0.05082
3956.31068	0.05099
3955.02491	0.05085
3953.73914	0.05066
3952.45337	0.05068
3951.16760	0.05088
3949.88184	0.05098
3948.59607	0.05087
3947.31030	0.05071
3946.02453	0.05077
3944.73876	0.05106
3943.45299	0.05146
3942.16722	0.05188
3940.88145	0.05224
3939.59569	0.05245
3938.30992	0.05236
3937.02415	0.05186
3935.73838	0.05104
3934.45261	0.05033
3933.16684	0.05016
3931.88107	0.05064
3930.59530	0.05142
3929.30953	0.05209
3928.02377	0.05235
3926.73800	0.05205
3925.45223	0.05127
3924.16646	0.05039
3922.88069	0.04987
3921.59492	0.04986
3920.30915	0.05019
3919.02338	0.05060
3917.73762	0.05097
3916.45185	0.05133
3915.16608	0.05155
3913.88031	0.05135
3912.59454	0.05054
3911.30877	0.04940
3910.02300	0.04845
3908.73723	0.04815
3907.45146	0.04849
3906.16570	0.04917
3904.87993	0.05000
3903.59416	0.05090
3902.30839	0.05166
3901.02262	0.05193
3899.73685	0.05164
3898.45108	0.05103
3897.16531	0.05048
3895.87955	0.05026
3894.59378	0.05047
3893.30801	0.05087
3892.02224	0.05118
3890.73647	0.05139
3889.45070	0.05153
3888.16493	0.05145
3886.87916	0.05122
3885.59339	0.05111
3884.30763	0.05111
3883.02186	0.05087
3881.73609	0.05025
3880.45032	0.04962
3879.16455	0.04922
3877.87878	0.04892
3876.59301	0.04860
3875.30724	0.04853
3874.02148	0.04893
3872.73571	0.04942
3871.44994	0.04953
3870.16417	0.04948
3868.87840	0.04978
3867.59263	0.05027
3866.30686	0.05044
3865.02109	0.05033
3863.73532	0.05028
3862.44956	0.05029
3861.16379	0.05004
3859.87802	0.04946
3858.59225	0.04894
3857.30648	0.04889
3856.02071	0.04936
3854.73494	0.05021
3853.44917	0.05125
3852.16341	0.05196
3850.87764	0.05175
3849.59187	0.05072
3848.30610	0.04959
3847.02033	0.04887
3845.73456	0.04853
3844.44879	0.04838
3843.16302	0.04840
3841.87725	0.04857
3840.59149	0.04876
3839.30572	0.04894
3838.01995	0.04931
3836.73418	0.05001
3835.44841	0.05064
3834.16264	0.05070
3832.87687	0.05013
3831.59110	0.04932
3830.30534	0.04851
3829.01957	0.04765
3827.73380	0.04675
3826.44803	0.04619
3825.16226	0.04630
3823.87649	0.04698
3822.59072	0.04789
3821.30495	0.04883
3820.01918	0.04943
3818.73342	0.04921
3817.44765	0.04834
3816.16188	0.04792
3814.87611	0.04856
3813.59034	0.04949
3812.30457	0.04980
3811.01880	0.04944
3809.73303	0.04873
3808.44726	0.04793
3807.16150	0.04747
3805.87573	0.04756
3804.58996	0.04763
3803.30419	0.04712
3802.01842	0.04643
3800.73265	0.04650
3799.44688	0.04724
3798.16111	0.04772
3796.87535	0.04752
3795.58958	0.04704
3794.30381	0.04681
3793.01804	0.04699
3791.73227	0.04743
3790.44650	0.04776
3789.16073	0.04769
3787.87496	0.04717
3786.58919	0.04644
3785.30343	0.04585
3784.01766	0.04571
3782.73189	0.04608
3781.44612	0.04664
3780.16035	0.04703
3778.87458	0.04707
3777.58881	0.04680
3776.30304	0.04643
3775.01728	0.04624
3773.73151	0.04632
3772.44574	0.04642
3771.15997	0.04632
3769.87420	0.04615
3768.58843	0.04608
3767.30266	0.04608
3766.01689	0.04609
3764.73112	0.04621
3763.44536	0.04653
3762.15959	0.04701
3760.87382	0.04755
3759.58805	0.04797
3758.30228	0.04804
3757.01651	0.04779
3755.73074	0.04750
3754.44497	0.04740
3753.15921	0.04755
3751.87344	0.04782
3750.58767	0.04795
3749.30190	0.04800
3748.01613	0.04818
3746.73036	0.04829
3745.44459	0.04814
3744.15882	0.04777
3742.87305	0.04704
3741.58729	0.04578
3740.30152	0.04447
3739.01575	0.04379
3737.72998	0.04390
3736.44421	0.04451
3735.15844	0.04531
3733.87267	0.04568
3732.58690	0.04544
3731.30114	0.04483
3730.01537	0.04418
3728.72960	0.04375
3727.44383	0.04356
3726.15806	0.04353
3724.87229	0.04336
3723.58652	0.04295
3722.30075	0.04293
3721.01498	0.04361
3719.72922	0.04447
3718.44345	0.04497
3717.15768	0.04510
3715.87191	0.04512
3714.58614	0.04501
3713.30037	0.04472
3712.01460	0.04468
3710.72883	0.04493
3709.44307	0.04493
3708.15730	0.04460
3706.87153	0.04411
3705.58576	0.04378
3704.29999	0.04378
3703.01422	0.04398
3701.72845	0.04420
3700.44268	0.04427
3699.15691	0.04419
3697.87115	0.04422
3696.58538	0.04467
3695.29961	0.04541
3694.01384	0.04600
3692.72807	0.04640
3691.44230	0.04657
3690.15653	0.04632
3688.87076	0.04576
3687.58500	0.04504
3686.29923	0.04425
3685.01346	0.04366
3683.72769	0.04346
3682.44192	0.04372
3681.15615	0.04432
3679.87038	0.04513
3678.58461	0.04586
3677.29884	0.04622
3676.01308	0.04626
3674.72731	0.04621
3673.44154	0.04593
3672.15577	0.04515
3670.87000	0.04426
3669.58423	0.04396
3668.29846	0.04433
3667.01269	0.04496
3665.72693	0.04558
3664.44116	0.04604
3663.15539	0.04619
3661.86962	0.04602
3660.58385	0.04569
3659.29808	0.04533
3658.01231	0.04509
3656.72654	0.04522
3655.44077	0.04578
3654.15501	0.04633
3652.86924	0.04627
3651.58347	0.04555
3650.29770	0.04471
3649.01193	0.04433
3647.72616	0.04454
3646.44039	0.04496
3645.15462	0.04514
3643.86886	0.04501
3642.58309	0.04477
3641.29732	0.04457
3640.01155	0.04445
3638.72578	0.04447
3637.44001	0.04477
3636.15424	0.04540
3634.86847	0.04622
3633.58270	0.04705
3632.29694	0.04746
3631.01117	0.04707
3629.72540	0.04615
3628.43963	0.04534
3627.15386	0.04492
3625.86809	0.04474
3624.58232	0.04490
3623.29655	0.04545
3622.01079	0.04618
3620.72502	0.04673
3619.43925	0.04716
3618.15348	0.04751
3616.86771	0.04760
3615.58194	0.04741
3614.29617	0.04717
3613.01040	0.04722
3611.72463	0.04761
3610.43887	0.04828
3609.15310	0.04906
3607.86733	0.04977
3606.58156	0.05017
3605.29579	0.05021
3604.01002	0.04996
3602.72425	0.04944
3601.43848	0.04893
3600.15272	0.04890
3598.86695	0.04950
3597.58118	0.05045
3596.29541	0.05142
3595.00964	0.05194
3593.72387	0.05190
3592.43810	0.05168
3591.15233	0.05123
3589.86656	0.05052
3588.58080	0.04988
3587.29503	0.04944
3586.00926	0.04922
3584.72349	0.04929
3583.43772	0.04961
3582.15195	0.05010
3580.86618	0.05060
3579.58041	0.05103
3578.29464	0.05146
3577.00888	0.05200
3575.72311	0.05256
3574.43734	0.05288
3573.15157	0.05281
3571.86580	0.05253
3570.58003	0.05248
3569.29426	0.05285
3568.00849	0.05342
3566.72273	0.05378
3565.43696	0.05367
3564.15119	0.05318
3562.86542	0.05277
3561.57965	0.05281
3560.29388	0.05336
3559.00811	0.05415
3557.72234	0.05485
3556.43657	0.05536
3555.15081	0.05574
3553.86504	0.05610
3552.57927	0.05651
3551.29350	0.05701
3550.00773	0.05755
3548.72196	0.05793
3547.43619	0.05798
3546.15042	0.05767
3544.86466	0.05711
3543.57889	0.05654
3542.29312	0.05627
3541.00735	0.05651
3539.72158	0.05716
3538.43581	0.05783
3537.15004	0.05815
3535.86427	0.05807
3534.57850	0.05784
3533.29274	0.05773
3532.00697	0.05790
3530.72120	0.05824
3529.43543	0.05850
3528.14966	0.05850
3526.86389	0.05832
3525.57812	0.05823
3524.29235	0.05843
3523.00659	0.05881
3521.72082	0.05913
3520.43505	0.05915
3519.14928	0.05890
3517.86351	0.05865
3516.57774	0.05863
3515.29197	0.05889
3514.00620	0.05933
3512.72043	0.05988
3511.43467	0.06053
3510.14890	0.06115
3508.86313	0.06151
3507.57736	0.06149
3506.29159	0.06118
3505.00582	0.06079
3503.72005	0.06048
3502.43428	0.06031
3501.14852	0.06026
3499.86275	0.06036
3498.57698	0.06056
3497.29121	0.06078
3496.00544	0.06095
3494.71967	0.06102
3493.43390	0.06104
3492.14813	0.06108
3490.86236	0.06114
3489.57660	0.06116
3488.29083	0.06113
3487.00506	0.06109
3485.71929	0.06106
3484.43352	0.06098
3483.14775	0.06082
3481.86198	0.06072
3480.57621	0.06086
3479.29045	0.06130
3478.00468	0.06192
3476.71891	0.06245
3475.43314	0.06272
3474.14737	0.06276
3472.86160	0.06276
3471.57583	0.06286
3470.29006	0.06306
3469.00429	0.06326
3467.71853	0.06343
3466.43276	0.06358
3465.14699	0.06364
3463.86122	0.06356
3462.57545	0.06341
3461.28968	0.06340
3460.00391	0.06361
3458.71814	0.06394
3457.43238	0.06416
3456.14661	0.06414
3454.86084	0.06391
3453.57507	0.06363
3452.28930	0.06347
3451.00353	0.06359
3449.71776	0.06398
3448.43199	0.06453
3447.14622	0.06511
3445.86046	0.06568
3444.57469	0.06621
3443.28892	0.06658
3442.00315	0.06664
3440.71738	0.06638
3439.43161	0.06589
3438.14584	0.06528
3436.86007	0.06464
3435.57431	0.06406
3434.28854	0.06373
3433.00277	0.06380
3431.71700	0.06427
3430.43123	0.06498
3429.14546	0.06575
3427.85969	0.06659
3426.57392	0.06747
3425.28815	0.06817
3424.00239	0.06832
3422.71662	0.06787
3421.43085	0.06721
3420.14508	0.06677
3418.85931	0.06662
3417.57354	0.06659
3416.28777	0.06656
3415.00200	0.06664
3413.71624	0.06700
3412.43047	0.06765
3411.14470	0.06841
3409.85893	0.06903
3408.57316	0.06940
3407.28739	0.06951
3406.00162	0.06936
3404.71585	0.06891
3403.43008	0.06828
3402.14432	0.06775
3400.85855	0.06762
3399.57278	0.06790
3398.28701	0.06836
3397.00124	0.06875
3395.71547	0.06896
3394.42970	0.06905
3393.14393	0.06910
3391.85817	0.06910
3390.57240	0.06896
3389.28663	0.06870
3388.00086	0.06840
3386.71509	0.06816
3385.42932	0.06805
3384.14355	0.06810
3382.85778	0.06833
3381.57201	0.06868
3380.28625	0.06905
3379.00048	0.06934
3377.71471	0.06952
3376.42894	0.06957
3375.14317	0.06947
3373.85740	0.06920
3372.57163	0.06877
3371.28586	0.06835
3370.00010	0.06812
3368.71433	0.06817
3367.42856	0.06836
3366.14279	0.06852
3364.85702	0.06863
3363.57125	0.06878
3362.28548	0.06900
3360.99971	0.06915
3359.71394	0.06916
3358.42818	0.06908
3357.14241	0.06900
3355.85664	0.06894
3354.57087	0.06893
3353.28510	0.06904
3351.99933	0.06931
3350.71356	0.06957
3349.42779	0.06954
3348.14202	0.06917
3346.85626	0.06867
3345.57049	0.06838
3344.28472	0.06839
3342.99895	0.06858
3341.71318	0.06883
3340.42741	0.06916
3339.14164	0.06958
3337.85587	0.07004
3336.57011	0.07036
3335.28434	0.07039
3333.99857	0.07016
3332.71280	0.06993
3331.42703	0.07000
3330.14126	0.07037
3328.85549	0.07075
3327.56972	0.07077
3326.28395	0.07038
3324.99819	0.06997
3323.71242	0.06989
3322.42665	0.07013
3321.14088	0.07039
3319.85511	0.07047
3318.56934	0.07036
3317.28357	0.07012
3315.99780	0.06975
3314.71204	0.06932
3313.42627	0.06898
3312.14050	0.06885
3310.85473	0.06893
3309.56896	0.06912
3308.28319	0.06926
3306.99742	0.06933
3305.71165	0.06936
3304.42588	0.06937
3303.14012	0.06929
3301.85435	0.06908
3300.56858	0.06886
3299.28281	0.06883
3297.99704	0.06907
3296.71127	0.06941
3295.42550	0.06957
3294.13973	0.06941
3292.85397	0.06907
3291.56820	0.06875
3290.28243	0.06852
3288.99666	0.06835
3287.71089	0.06835
3286.42512	0.06864
3285.13935	0.06905
3283.85358	0.06925
3282.56781	0.06907
3281.28205	0.06866
3279.99628	0.06831
3278.71051	0.06807
3277.42474	0.06781
3276.13897	0.06746
3274.85320	0.06719
3273.56743	0.06728
3272.28166	0.06781
3270.99590	0.06851
3269.71013	0.06902
3268.42436	0.06923
3267.13859	0.06928
3265.85282	0.06929
3264.56705	0.06925
3263.28128	0.06916
3261.99551	0.06909
3260.70974	0.06907
3259.42398	0.06905
3258.13821	0.06890
3256.85244	0.06854
3255.56667	0.06808
3254.28090	0.06779
3252.99513	0.06782
3251.70936	0.06800
3250.42359	0.06799
3249.13783	0.06766
3247.85206	0.06722
3246.56629	0.06700
3245.28052	0.06710
3243.99475	0.06740
3242.70898	0.06769
3241.42321	0.06788
3240.13744	0.06799
3238.85167	0.06809
3237.56591	0.06812
3236.28014	0.06800
3234.99437	0.06776
3233.70860	0.06754
3232.42283	0.06750
3231.13706	0.06760
3229.85129	0.06768
3228.56552	0.06757
3227.27976	0.06728
3225.99399	0.06695
3224.70822	0.06678
3223.42245	0.06680
3222.13668	0.06689
3220.85091	0.06690
3219.56514	0.06680
3218.27937	0.06670
3216.99360	0.06672
3215.70784	0.06694
3214.42207	0.06732
3213.13630	0.06771
3211.85053	0.06790
3210.56476	0.06777
3209.27899	0.06734
3207.99322	0.06682
3206.70745	0.06637
3205.42169	0.06605
3204.13592	0.06583
3202.85015	0.06572
3201.56438	0.06577
3200.27861	0.06590
3198.99284	0.06591
3197.70707	0.06567
3196.42130	0.06532
3195.13553	0.06517
3193.84977	0.06541
3192.56400	0.06596
3191.27823	0.06652
3189.99246	0.06676
3188.70669	0.06651
3187.42092	0.06593
3186.13515	0.06538
3184.84938	0.06508
3183.56362	0.06501
3182.27785	0.06495
3180.99208	0.06481
3179.70631	0.06466
3178.42054	0.06464
3177.13477	0.06477
3175.84900	0.06497
3174.56323	0.06512
3173.27746	0.06526
3171.99170	0.06544
3170.70593	0.06560
3169.42016	0.06555
3168.13439	0.06522
3166.84862	0.06473
3165.56285	0.06427
3164.27708	0.06393
3162.99131	0.06369
3161.70555	0.06350
3160.41978	0.06339
3159.13401	0.06345
3157.84824	0.06373
3156.56247	0.06412
3155.27670	0.06434
3153.99093	0.06419
3152.70516	0.06364
3151.41939	0.06294
3150.13363	0.06241
3148.84786	0.06226
3147.56209	0.06241
3146.27632	0.06263
3144.99055	0.06269
3143.70478	0.06258
3142.41901	0.06242
3141.13324	0.06229
3139.84748	0.06224
3138.56171	0.06223
3137.27594	0.06219
3135.99017	0.06213
3134.70440	0.06207
3133.41863	0.06201
3132.13286	0.06193
3130.84709	0.06178
3129.56132	0.06163
3128.27556	0.06159
3126.98979	0.06176
3125.70402	0.06214
3124.41825	0.06261
3123.13248	0.06295
3121.84671	0.06294
3120.56094	0.06261
3119.27517	0.06212
3117.98940	0.06166
3116.70364	0.06128
3115.41787	0.06092
3114.13210	0.06056
3112.84633	0.06026
3111.56056	0.06010
3110.27479	0.06006
3108.98902	0.06011
3107.70325	0.06022
3106.41749	0.06037
3105.13172	0.06055
3103.84595	0.06069
3102.56018	0.06075
3101.27441	0.06077
3099.98864	0.06090
3098.70287	0.06117
3097.41710	0.06141
3096.13133	0.06141
3094.84557	0.06108
3093.55980	0.06056
3092.27403	0.06010
3090.98826	0.05981
3089.70249	0.05967
3088.41672	0.05957
3087.13095	0.05949
3085.84518	0.05948
3084.55942	0.05960
3083.27365	0.05983
3081.98788	0.05997
3080.70211	0.05985
3079.41634	0.05947
3078.13057	0.05908
3076.84480	0.05892
3075.55903	0.05906
3074.27326	0.05931
3072.98750	0.05946
3071.70173	0.05938
3070.41596	0.05909
3069.13019	0.05874
3067.84442	0.05851
3066.55865	0.05852
3065.27288	0.05872
3063.98711	0.05899
3062.70135	0.05923
3061.41558	0.05939
3060.12981	0.05947
3058.84404	0.05942
3057.55827	0.05926
3056.27250	0.05911
3054.98673	0.05908
3053.70096	0.05906
3052.41519	0.05885
3051.12943	0.05833
3049.84366	0.05773
3048.55789	0.05743
3047.27212	0.05756
3045.98635	0.05787
3044.70058	0.05796
3043.41481	0.05767
3042.12904	0.05720
3040.84328	0.05687
3039.55751	0.05683
3038.27174	0.05701
3036.98597	0.05720
3035.70020	0.05725
3034.41443	0.05711
3033.12866	0.05688
3031.84289	0.05667
3030.55712	0.05654
3029.27136	0.05640
3027.98559	0.05621
3026.69982	0.05603
3025.41405	0.05599
3024.12828	0.05610
3022.84251	0.05622
3021.55674	0.05623
3020.27097	0.05610
3018.98521	0.05585
3017.69944	0.05551
3016.41367	0.05513
3015.12790	0.05478
3013.84213	0.05456
3012.55636	0.05453
3011.27059	0.05465
3009.98482	0.05489
3008.69905	0.05513
3007.41329	0.05526
3006.12752	0.05524
3004.84175	0.05511
3003.55598	0.05496
3002.27021	0.05481
3000.98444	0.05458
2999.69867	0.05424
2998.41290	0.05385
2997.12714	0.05355
2995.84137	0.05344
2994.55560	0.05355
2993.26983	0.05383
2991.98406	0.05411
2990.69829	0.05426
2989.41252	0.05431
2988.12675	0.05439
2986.84098	0.05459
2985.55522	0.05488
2984.26945	0.05513
2982.98368	0.05516
2981.69791	0.05498
2980.41214	0.05479
2979.12637	0.05491
2977.84060	0.05543
2976.55483	0.05618
2975.26907	0.05700
2973.98330	0.05784
2972.69753	0.05875
2971.41176	0.05973
2970.12599	0.06073
2968.84022	0.06176
2967.55445	0.06280
2966.26868	0.06371
2964.98291	0.06433
2963.69715	0.06467
2962.41138	0.06501
2961.12561	0.06568
2959.83984	0.06677
2958.55407	0.06805
2957.26830	0.06919
2955.98253	0.06998
2954.69676	0.07049
2953.41100	0.07089
2952.12523	0.07130
2950.83946	0.07165
2949.55369	0.07185
2948.26792	0.07183
2946.98215	0.07163
2945.69638	0.07140
2944.41061	0.07127
2943.12484	0.07117
2941.83908	0.07101
2940.55331	0.07082
2939.26754	0.07082
2937.98177	0.07109
2936.69600	0.07153
2935.41023	0.07197
2934.12446	0.07241
2932.83869	0.07292
2931.55293	0.07358
2930.26716	0.07434
2928.98139	0.07504
2927.69562	0.07555
2926.40985	0.07585
2925.12408	0.07599
2923.83831	0.07604
2922.55254	0.07608
2921.26677	0.07619
2919.98101	0.07636
2918.69524	0.07645
2917.40947	0.07622
2916.12370	0.07563
2914.83793	0.07486
2913.55216	0.07417
2912.26639	0.07374
2910.98062	0.07355
2909.69486	0.07350
2908.40909	0.07343
2907.12332	0.07316
2905.83755	0.07263
2904.55178	0.07192
2903.26601	0.07124
2901.98024	0.07078
2900.69447	0.07050
2899.40870	0.07015
2898.12294	0.06952
2896.83717	0.06870
2895.55140	0.06799
2894.26563	0.06765
2892.97986	0.06769
2891.69409	0.06791
2890.40832	0.06798
2889.12255	0.06763
2887.83678	0.06679
2886.55102	0.06567
2885.26525	0.06466
2883.97948	0.06408
2882.69371	0.06403
2881.40794	0.06437
2880.12217	0.06483
2878.83640	0.06517
2877.55063	0.06530
2876.26487	0.06532
2874.97910	0.06539
2873.69333	0.06555
2872.40756	0.06576
2871.12179	0.06600
2869.83602	0.06623
2868.55025	0.06636
2867.26448	0.06630
2865.97871	0.06608
2864.69295	0.06589
2863.40718	0.06591
2862.12141	0.06611
2860.83564	0.06632
2859.54987	0.06633
2858.26410	0.06611
2856.97833	0.06575
2855.69256	0.06533
2854.40680	0.06486
2853.12103	0.06435
2851.83526	0.06381
2850.54949	0.06328
2849.26372	0.06281
2847.97795	0.06245
2846.69218	0.06224
2845.40641	0.06216
2844.12064	0.06208
2842.83488	0.06187
2841.54911	0.06147
2840.26334	0.06090
2838.97757	0.06022
2837.69180	0.05948
2836.40603	0.05870
2835.12026	0.05792
2833.83449	0.05718
2832.54873	0.05656
2831.26296	0.05611
2829.97719	0.05575
2828.69142	0.05534
2827.40565	0.05480
2826.11988	0.05422
2824.83411	0.05378
2823.54834	0.05356
2822.26257	0.05351
2820.97681	0.05347
2819.69104	0.05338
2818.40527	0.05321
2817.11950	0.05301
2815.83373	0.05276
2814.54796	0.05246
2813.26219	0.05214
2811.97642	0.05186
2810.69066	0.05164
2809.40489	0.05145
2808.11912	0.05122
2806.83335	0.05096
2805.54758	0.05075
2804.26181	0.05068
2802.97604	0.05076
2801.69027	0.05090
2800.40450	0.05097
2799.11874	0.05080
2797.83297	0.05034
2796.54720	0.04972
2795.26143	0.04924
2793.97566	0.04911
2792.68989	0.04927
2791.40412	0.04944
2790.11835	0.04937
2788.83259	0.04907
2787.54682	0.04871
2786.26105	0.04844
2784.97528	0.04832
2783.68951	0.04828
2782.40374	0.04827
2781.11797	0.04825
2779.83220	0.04830
2778.54643	0.04847
2777.26067	0.04870
2775.97490	0.04884
2774.68913	0.04881
2773.40336	0.04866
2772.11759	0.04848
2770.83182	0.04834
2769.54605	0.04822
2768.26028	0.04809
2766.97452	0.04792
2765.68875	0.04769
2764.40298	0.04744
2763.11721	0.04718
2761.83144	0.04698
2760.54567	0.04687
2759.25990	0.04682
2757.97413	0.04676
2756.68836	0.04667
2755.40260	0.04663
2754.11683	0.04667
2752.83106	0.04672
2751.54529	0.04666
2750.25952	0.04651
2748.97375	0.04632
2747.68798	0.04616
2746.40221	0.04601
2745.11645	0.04585
2743.83068	0.04572
2742.54491	0.04570
2741.25914	0.04580
2739.97337	0.04592
2738.68760	0.04592
2737.40183	0.04575
2736.11606	0.04550
2734.83029	0.04537
2733.54453	0.04549
2732.25876	0.04581
2730.97299	0.04614
2729.68722	0.04626
2728.40145	0.04613
2727.11568	0.04591
2725.82991	0.04576
2724.54414	0.04574
2723.25838	0.04577
2721.97261	0.04572
2720.68684	0.04555
2719.40107	0.04536
2718.11530	0.04524
2716.82953	0.04519
2715.54376	0.04519
2714.25799	0.04523
2712.97222	0.04530
2711.68646	0.04540
2710.40069	0.04548
2709.11492	0.04548
2707.82915	0.04532
2706.54338	0.04502
2705.25761	0.04471
2703.97184	0.04453
2702.68607	0.04450
2701.40031	0.04455
2700.11454	0.04460
2698.82877	0.04464
2697.54300	0.04467
2696.25723	0.04468
2694.97146	0.04463
2693.68569	0.04443
2692.39992	0.04408
2691.11415	0.04366
2689.82839	0.04332
2688.54262	0.04318
2687.25685	0.04329
2685.97108	0.04355
2684.68531	0.04383
2683.39954	0.04398
2682.11377	0.04397
2680.82800	0.04386
2679.54224	0.04378
2678.25647	0.04378
2676.97070	0.04380
2675.68493	0.04368
2674.39916	0.04339
2673.11339	0.04305
2671.82762	0.04284
2670.54185	0.04276
2669.25608	0.04269
2667.97032	0.04257
2666.68455	0.04250
2665.39878	0.04252
2664.11301	0.04254
2662.82724	0.04248
2661.54147	0.04241
2660.25570	0.04249
2658.96993	0.04275
2657.68417	0.04307
2656.39840	0.04328
2655.11263	0.04329
2653.82686	0.04312
2652.54109	0.04291
2651.25532	0.04277
2649.96955	0.04267
2648.68378	0.04244
2647.39801	0.04196
2646.11225	0.04134
2644.82648	0.04083
2643.54071	0.04060
2642.25494	0.04059
2640.96917	0.04066
2639.68340	0.04075
2638.39763	0.04082
2637.11186	0.04086
2635.82609	0.04078
2634.54033	0.04056
2633.25456	0.04024
2631.96879	0.03995
2630.68302	0.03982
2629.39725	0.03977
2628.11148	0.03967
2626.82571	0.03941
2625.53994	0.03907
2624.25418	0.03886
2622.96841	0.03890
2621.68264	0.03912
2620.39687	0.03929
2619.11110	0.03921
2617.82533	0.03891
2616.53956	0.03859
2615.25379	0.03841
2613.96802	0.03836
2612.68226	0.03833
2611.39649	0.03821
2610.11072	0.03798
2608.82495	0.03767
2607.53918	0.03742
2606.25341	0.03730
2604.96764	0.03724
2603.68187	0.03713
2602.39611	0.03704
2601.11034	0.03708
2599.82457	0.03716
2598.53880	0.03700
2597.25303	0.03650
2595.96726	0.03589
2594.68149	0.03547
2593.39572	0.03529
2592.10995	0.03518
2590.82419	0.03509
2589.53842	0.03512
2588.25265	0.03537
2586.96688	0.03572
2585.68111	0.03601
2584.39534	0.03614
2583.10957	0.03613
2581.82380	0.03613
2580.53804	0.03625
2579.25227	0.03646
2577.96650	0.03657
2576.68073	0.03640
2575.39496	0.03597
2574.10919	0.03545
2572.82342	0.03496
2571.53765	0.03448
2570.25188	0.03405
2568.96612	0.03381
2567.68035	0.03391
2566.39458	0.03433
2565.10881	0.03485
2563.82304	0.03522
2562.53727	0.03532
2561.25150	0.03518
2559.96573	0.03496
2558.67997	0.03477
2557.39420	0.03461
2556.10843	0.03440
2554.82266	0.03412
2553.53689	0.03388
2552.25112	0.03381
2550.96535	0.03393
2549.67958	0.03412
2548.39381	0.03428
2547.10805	0.03437
2545.82228	0.03441
2544.53651	0.03437
2543.25074	0.03421
2541.96497	0.03392
2540.67920	0.03354
2539.39343	0.03321
2538.10766	0.03304
2536.82190	0.03307
2535.53613	0.03321
2534.25036	0.03337
2532.96459	0.03350
2531.67882	0.03362
2530.39305	0.03371
2529.10728	0.03375
2527.82151	0.03374
2526.53574	0.03370
2525.24998	0.03364
2523.96421	0.03357
2522.67844	0.03347
2521.39267	0.03333
2520.10690	0.03316
2518.82113	0.03295
2517.53536	0.03263
2516.24959	0.03219
2514.96383	0.03178
2513.67806	0.03168
2512.39229	0.03195
2511.10652	0.03233
2509.82075	0.03249
2508.53498	0.03239
2507.24921	0.03227
2505.96344	0.03237
2504.67767	0.03269
2503.39191	0.03294
2502.10614	0.03287
2500.82037	0.03247
2499.53460	0.03205
2498.24883	0.03181
2496.96306	0.03170
2495.67729	0.03159
2494.39152	0.03150
2493.10576	0.03149
2491.81999	0.03152
2490.53422	0.03151
2489.24845	0.03142
2487.96268	0.03129
2486.67691	0.03118
2485.39114	0.03118
2484.10537	0.03137
2482.81960	0.03171
2481.53384	0.03199
2480.24807	0.03199
2478.96230	0.03176
2477.67653	0.03163
2476.39076	0.03188
2475.10499	0.03246
2473.81922	0.03301
2472.53345	0.03325
2471.24769	0.03315
2469.96192	0.03283
2468.67615	0.03245
2467.39038	0.03216
2466.10461	0.03201
2464.81884	0.03194
2463.53307	0.03190
2462.24730	0.03189
2460.96153	0.03187
2459.67577	0.03181
2458.39000	0.03181
2457.10423	0.03202
2455.81846	0.03236
2454.53269	0.03253
2453.24692	0.03233
2451.96115	0.03191
2450.67538	0.03162
2449.38962	0.03158
2448.10385	0.03162
2446.81808	0.03159
2445.53231	0.03150
2444.24654	0.03152
2442.96077	0.03171
2441.67500	0.03187
2440.38923	0.03184
2439.10346	0.03158
2437.81770	0.03122
2436.53193	0.03090
2435.24616	0.03075
2433.96039	0.03081
2432.67462	0.03099
2431.38885	0.03109
2430.10308	0.03104
2428.81731	0.03087
2427.53155	0.03063
2426.24578	0.03037
2424.96001	0.03015
2423.67424	0.03004
2422.38847	0.03006
2421.10270	0.03019
2419.81693	0.03039
2418.53116	0.03067
2417.24539	0.03101
2415.95963	0.03130
2414.67386	0.03134
2413.38809	0.03103
2412.10232	0.03053
2410.81655	0.03017
2409.53078	0.03013
2408.24501	0.03031
2406.95924	0.03054
2405.67347	0.03073
2404.38771	0.03085
2403.10194	0.03087
2401.81617	0.03073
2400.53040	0.03047
2399.24463	0.03070
2397.95886	0.03089
2396.67309	0.03094
2395.38732	0.03090
2394.10156	0.03074
2392.81579	0.03035
2391.53002	0.02977
2390.24425	0.02916
2388.95848	0.02870
2387.67271	0.02850
2386.38694	0.02859
2385.10117	0.02885
2383.81540	0.02915
2382.52964	0.02937
2381.24387	0.02953
2379.95810	0.02952
2378.67233	0.02940
2377.38656	0.02931
2376.10079	0.02882
2374.81502	0.02799
2373.52925	0.02724
2372.24349	0.02657
2370.95772	0.02588
2369.67195	0.02437
2368.38618	0.02265
2367.10041	0.02251
2365.81464	0.02359
2364.52887	0.02387
2363.24310	0.02338
2361.95733	0.02349
2360.67157	0.02400
2359.38580	0.02372
2358.10003	0.02336
2356.81426	0.02339
2355.52849	0.02322
2354.24272	0.02302
2352.95695	0.02314
2351.67118	0.02500
2350.38542	0.02909
2349.09965	0.03118
2347.81388	0.02772
2346.52811	0.02245
2345.24234	0.02083
2343.95657	0.02270
2342.67080	0.02457
2341.38503	0.02552
2340.09926	0.02612
2338.81350	0.02617
2337.52773	0.02602
2336.24196	0.02548
2334.95619	0.02525
2333.67042	0.02567
2332.38465	0.02586
2331.09888	0.02629
2329.81311	0.02719
2328.52735	0.02756
2327.24158	0.02806
2325.95581	0.02879
2324.67004	0.02879
2323.38427	0.02851
2322.09850	0.02813
2320.81273	0.02728
2319.52696	0.02690
2318.24119	0.02737
2316.95543	0.02785
2315.66966	0.02795
2314.38389	0.02793
2313.09812	0.02820
2311.81235	0.02855
2310.52658	0.02885
2309.24081	0.02908
2307.95504	0.02909
2306.66928	0.02888
2305.38351	0.02862
2304.09774	0.02839
2302.81197	0.02813
2301.52620	0.02790
2300.24043	0.02785
2298.95466	0.02788
2297.66889	0.02792
2296.38312	0.02793
2295.09736	0.02788
2293.81159	0.02784
2292.52582	0.02775
2291.24005	0.02758
2289.95428	0.02733
2288.66851	0.02715
2287.38274	0.02712
2286.09697	0.02726
2284.81121	0.02752
2283.52544	0.02769
2282.23967	0.02769
2280.95390	0.02756
2279.66813	0.02739
2278.38236	0.02712
2277.09659	0.02667
2275.81082	0.02607
2274.52505	0.02551
2273.23929	0.02512
2271.95352	0.02503
2270.66775	0.02524
2269.38198	0.02556
2268.09621	0.02572
2266.81044	0.02557
2265.52467	0.02512
2264.23890	0.02448
2262.95314	0.02375
2261.66737	0.02300
2260.38160	0.02240
2259.09583	0.02226
2257.81006	0.02263
2256.52429	0.02330
2255.23852	0.02399
2253.95275	0.02454
2252.66698	0.02486
2251.38122	0.02486
2250.09545	0.02464
2248.80968	0.02436
2247.52391	0.02390
2246.23814	0.02363
2244.95237	0.02358
2243.66660	0.02354
2242.38083	0.02330
2241.09507	0.02292
2239.80930	0.02259
2238.52353	0.02245
2237.23776	0.02254
2235.95199	0.02296
2234.66622	0.02368
2233.38045	0.02438
2232.09468	0.02458
2230.80891	0.02405
2229.52315	0.02289
2228.23738	0.02138
2226.95161	0.01995
2225.66584	0.01904
2224.38007	0.01875
2223.09430	0.01877
2221.80853	0.01869
2220.52276	0.01838
2219.23700	0.01799
2217.95123	0.01782
2216.66546	0.01804
2215.37969	0.01851
2214.09392	0.01882
2212.80815	0.01872
2211.52238	0.01841
2210.23661	0.01827
2208.95084	0.01845
2207.66508	0.01878
2206.37931	0.01903
2205.09354	0.01921
2203.80777	0.01934
2202.52200	0.01927
2201.23623	0.01880
2199.95046	0.01810
2198.66469	0.01767
2197.37893	0.01773
2196.09316	0.01794
2194.80739	0.01769
2193.52162	0.01687
2192.23585	0.01593
2190.95008	0.01562
2189.66431	0.01627
2188.37854	0.01744
2187.09277	0.01826
2185.80701	0.01840
2184.52124	0.01833
2183.23547	0.01857
2181.94970	0.01905
2180.66393	0.01928
2179.37816	0.01890
2178.09239	0.01797
2176.80662	0.01677
2175.52085	0.01565
2174.23509	0.01499
2172.94932	0.01505
2171.66355	0.01580
2170.37778	0.01672
2169.09201	0.01703
2167.80624	0.01639
2166.52047	0.01512
2165.23470	0.01379
2163.94894	0.01272
2162.66317	0.01188
2161.37740	0.01118
2160.09163	0.01048
2158.80586	0.00976
2157.52009	0.00916
2156.23432	0.00886
2154.94855	0.00885
2153.66278	0.00901
2152.37702	0.00936
2151.09125	0.01003
2149.80548	0.01106
2148.51971	0.01224
2147.23394	0.01325
2145.94817	0.01386
2144.66240	0.01409
2143.37663	0.01407
2142.09087	0.01397
2140.80510	0.01396
2139.51933	0.01408
2138.23356	0.01421
2136.94779	0.01427
2135.66202	0.01441
2134.37625	0.01489
2133.09048	0.01566
2131.80471	0.01635
2130.51895	0.01672
2129.23318	0.01694
2127.94741	0.01735
2126.66164	0.01798
2125.37587	0.01853
2124.09010	0.01868
2122.80433	0.01847
2121.51856	0.01823
2120.23280	0.01819
2118.94703	0.01826
2117.66126	0.01822
2116.37549	0.01801
2115.08972	0.01785
2113.80395	0.01800
2112.51818	0.01848
2111.23241	0.01897
2109.94664	0.01909
2108.66088	0.01878
2107.37511	0.01830
2106.08934	0.01797
2104.80357	0.01783
2103.51780	0.01771
2102.23203	0.01742
2100.94626	0.01701
2099.66049	0.01716
2098.37473	0.01732
2097.08896	0.01757
2095.80319	0.01793
2094.51742	0.01824
2093.23165	0.01833
2091.94588	0.01814
2090.66011	0.01782
2089.37434	0.01764
2088.08857	0.01787
2086.80281	0.01845
2085.51704	0.01897
2084.23127	0.01897
2082.94550	0.01844
2081.65973	0.01790
2080.37396	0.01783
2079.08819	0.01818
2077.80242	0.01841
2076.51666	0.01816
2075.23089	0.01755
2073.94512	0.01695
2072.65935	0.01639
2071.37358	0.01564
2070.08781	0.01467
2068.80204	0.01382
2067.51627	0.01352
2066.23050	0.01383
2064.94474	0.01446
2063.65897	0.01506
2062.37320	0.01537
2061.08743	0.01528
2059.80166	0.01483
2058.51589	0.01423
2057.23012	0.01370
2055.94435	0.01333
2054.65859	0.01319
2053.37282	0.01322
2052.08705	0.01333
2050.80128	0.01344
2049.51551	0.01356
2048.22974	0.01366
2046.94397	0.01354
2045.65820	0.01295
2044.37243	0.01197
2043.08667	0.01101
2041.80090	0.01047
2040.51513	0.01031
2039.22936	0.01006
2037.94359	0.00933
2036.65782	0.00826
2035.37205	0.00735
2034.08628	0.00699
2032.80052	0.00717
2031.51475	0.00778
2030.22898	0.00880
2028.94321	0.01016
2027.65744	0.01148
2026.37167	0.01222
2025.08590	0.01205
2023.80013	0.01103
2022.51436	0.00952
2021.22860	0.00809
2019.94283	0.00727
2018.65706	0.00724
2017.37129	0.00769
2016.08552	0.00818
2014.79975	0.00856
2013.51398	0.00911
2012.22821	0.01013
2010.94245	0.01148
2009.65668	0.01262
2008.37091	0.01308
2007.08514	0.01281
2005.79937	0.01215
2004.51360	0.01153
2003.22783	0.01126
2001.94206	0.01149
2000.65629	0.01219
1999.37053	0.01307
1998.08476	0.01366
1996.79899	0.01365
1995.51322	0.01313
1994.22745	0.01248
1992.94168	0.01209
1991.65591	0.01219
1990.37014	0.01275
1989.08438	0.01343
1987.79861	0.01379
1986.51284	0.01369
1985.22707	0.01349
1983.94130	0.01361
1982.65553	0.01409
1981.36976	0.01458
1980.08399	0.01469
1978.79822	0.01429
1977.51246	0.01352
1976.22669	0.01272
1974.94092	0.01219
1973.65515	0.01201
1972.36938	0.01199
1971.08361	0.01193
1969.79784	0.01175
1968.51207	0.01144
1967.22631	0.01116
1965.94054	0.01112
1964.65477	0.01135
1963.36900	0.01158
1962.08323	0.01157
1960.79746	0.01147
1959.51169	0.01172
1958.22592	0.01252
1956.94015	0.01367
1955.65439	0.01477
1954.36862	0.01554
1953.08285	0.01590
1951.79708	0.01597
1950.51131	0.01594
1949.22554	0.01591
1947.93977	0.01578
1946.65400	0.01541
1945.36823	0.01490
1944.08247	0.01455
1942.79670	0.01458
1941.51093	0.01493
1940.22516	0.01529
1938.93939	0.01547
1937.65362	0.01560
1936.36785	0.01589
1935.08208	0.01632
1933.79632	0.01663
1932.51055	0.01654
1931.22478	0.01613
1929.93901	0.01574
1928.65324	0.01560
1927.36747	0.01562
1926.08170	0.01565
1924.79593	0.01570
1923.51016	0.01593
1922.22440	0.01637
1920.93863	0.01674
1919.65286	0.01676
1918.36709	0.01653
1917.08132	0.01643
1915.79555	0.01679
1914.50978	0.01749
1913.22401	0.01818
1911.93825	0.01850
1910.65248	0.01837
1909.36671	0.01800
1908.08094	0.01756
1906.79517	0.01713
1905.50940	0.01677
1904.22363	0.01664
1902.93786	0.01684
1901.65209	0.01732
1900.36633	0.01791
1899.08056	0.01843
1897.79479	0.01874
1896.50902	0.01878
1895.22325	0.01858
1893.93748	0.01829
1892.65171	0.01814
1891.36594	0.01825
1890.08018	0.01850
1888.79441	0.01860
1887.50864	0.01845
1886.22287	0.01824
1884.93710	0.01824
1883.65133	0.01848
1882.36556	0.01871
1881.07979	0.01869
1879.79402	0.01836
1878.50826	0.01794
1877.22249	0.01766
1875.93672	0.01761
1874.65095	0.01771
1873.36518	0.01778
1872.07941	0.01773
1870.79364	0.01760
1869.50787	0.01754
1868.22211	0.01764
1866.93634	0.01790
1865.65057	0.01820
1864.36480	0.01844
1863.07903	0.01859
1861.79326	0.01868
1860.50749	0.01870
1859.22172	0.01864
1857.93595	0.01847
1856.65019	0.01825
1855.36442	0.01807
1854.07865	0.01804
1852.79288	0.01817
1851.50711	0.01834
1850.22134	0.01841
1848.93557	0.01838
1847.64980	0.01837
1846.36404	0.01843
1845.07827	0.01855
1843.79250	0.01867
1842.50673	0.01871
1841.22096	0.01858
1839.93519	0.01837
1838.64942	0.01821
1837.36365	0.01813
1836.07788	0.01806
1834.79212	0.01799
1833.50635	0.01797
1832.22058	0.01806
1830.93481	0.01821
1829.64904	0.01842
1828.36327	0.01861
1827.07750	0.01867
1825.79173	0.01863
1824.50597	0.01863
1823.22020	0.01873
1821.93443	0.01883
1820.64866	0.01880
1819.36289	0.01862
1818.07712	0.01837
1816.79135	0.01818
1815.50558	0.01816
1814.21981	0.01825
1812.93405	0.01835
1811.64828	0.01840
1810.36251	0.01842
1809.07674	0.01845
1807.79097	0.01847
1806.50520	0.01849
1805.21943	0.01848
1803.93366	0.01845
1802.64790	0.01840
1801.36213	0.01838
1800.07636	0.01849
1798.79059	0.01872
1797.50482	0.01901
1796.21905	0.01926
1794.93328	0.01938
1793.64751	0.01933
1792.36174	0.01918
1791.07598	0.01907
1789.79021	0.01904
1788.50444	0.01905
1787.21867	0.01910
1785.93290	0.01914
1784.64713	0.01918
1783.36136	0.01919
1782.07559	0.01913
1780.78983	0.01904
1779.50406	0.01899
1778.21829	0.01901
1776.93252	0.01910
1775.64675	0.01915
1774.36098	0.01910
1773.07521	0.01901
1771.78944	0.01904
1770.50367	0.01916
1769.21791	0.01923
1767.93214	0.01924
1766.64637	0.01929
1765.36060	0.01938
1764.07483	0.01942
1762.78906	0.01941
1761.50329	0.01942
1760.21752	0.01946
1758.93176	0.01946
1757.64599	0.01940
1756.36022	0.01939
1755.07445	0.01946
1753.78868	0.01949
1752.50291	0.01945
1751.21714	0.01944
1749.93137	0.01949
1748.64560	0.01949
1747.35984	0.01941
1746.07407	0.01934
1744.78830	0.01936
1743.50253	0.01945
1742.21676	0.01953
1740.93099	0.01956
1739.64522	0.01965
1738.35945	0.01991
1737.07369	0.02020
1735.78792	0.02030
1734.50215	0.02030
1733.21638	0.02040
1731.93061	0.02054
1730.64484	0.02051
1729.35907	0.02036
1728.07330	0.02032
1726.78753	0.02041
1725.50177	0.02056
1724.21600	0.02073
1722.93023	0.02100
1721.64446	0.02135
1720.35869	0.02165
1719.07292	0.02183
1717.78715	0.02200
1716.50138	0.02225
1715.21561	0.02253
1713.92985	0.02272
1712.64408	0.02286
1711.35831	0.02303
1710.07254	0.02328
1708.78677	0.02362
1707.50100	0.02399
1706.21523	0.02442
1704.92946	0.02499
1703.64370	0.02560
1702.35793	0.02602
1701.07216	0.02632
1699.78639	0.02679
1698.50062	0.02732
1697.21485	0.02756
1695.92908	0.02760
1694.64331	0.02777
1693.35754	0.02808
1692.07178	0.02829
1690.78601	0.02851
1689.50024	0.02895
1688.21447	0.02959
1686.92870	0.03012
1685.64293	0.03042
1684.35716	0.03069
1683.07139	0.03108
1681.78563	0.03141
1680.49986	0.03162
1679.21409	0.03188
1677.92832	0.03225
1676.64255	0.03267
1675.35678	0.03315
1674.07101	0.03372
1672.78524	0.03428
1671.49947	0.03469
1670.21371	0.03501
1668.92794	0.03536
1667.64217	0.03577
1666.35640	0.03614
1665.07063	0.03639
1663.78486	0.03658
1662.49909	0.03683
1661.21332	0.03716
1659.92756	0.03755
1658.64179	0.03805
1657.35602	0.03870
1656.07025	0.03930
1654.78448	0.03964
1653.49871	0.03987
1652.21294	0.04029
1650.92717	0.04078
1649.64140	0.04097
1648.35564	0.04084
1647.06987	0.04069
1645.78410	0.04074
1644.49833	0.04089
1643.21256	0.04097
1641.92679	0.04099
1640.64102	0.04109
1639.35525	0.04124
1638.06949	0.04131
1636.78372	0.04122
1635.49795	0.04114
1634.21218	0.04115
1632.92641	0.04113
1631.64064	0.04093
1630.35487	0.04062
1629.06910	0.04035
1627.78333	0.04015
1626.49757	0.03996
1625.21180	0.03971
1623.92603	0.03946
1622.64026	0.03934
1621.35449	0.03939
1620.06872	0.03944
1618.78295	0.03933
1617.49718	0.03907
1616.21142	0.03888
1614.92565	0.03877
1613.63988	0.03860
1612.35411	0.03832
1611.06834	0.03808
1609.78257	0.03798
1608.49680	0.03800
1607.21103	0.03807
1605.92526	0.03812
1604.63950	0.03812
1603.35373	0.03812
1602.06796	0.03815
1600.78219	0.03825
1599.49642	0.03840
1598.21065	0.03856
1596.92488	0.03870
1595.63911	0.03885
1594.35335	0.03899
1593.06758	0.03914
1591.78181	0.03930
1590.49604	0.03946
1589.21027	0.03966
1587.92450	0.03991
1586.63873	0.04020
1585.35296	0.04052
1584.06719	0.04083
1582.78143	0.04114
1581.49566	0.04152
1580.20989	0.04199
1578.92412	0.04244
1577.63835	0.04278
1576.35258	0.04311
1575.06681	0.04360
1573.78104	0.04413
1572.49528	0.04449
1571.20951	0.04467
1569.92374	0.04487
1568.63797	0.04519
1567.35220	0.04555
1566.06643	0.04589
1564.78066	0.04629
1563.49489	0.04683
1562.20912	0.04736
1560.92336	0.04772
1559.63759	0.04802
1558.35182	0.04841
1557.06605	0.04875
1555.78028	0.04878
1554.49451	0.04859
1553.20874	0.04845
1551.92297	0.04844
1550.63721	0.04844
1549.35144	0.04846
1548.06567	0.04851
1546.77990	0.04858
1545.49413	0.04867
1544.20836	0.04880
1542.92259	0.04889
1541.63682	0.04876
1540.35105	0.04843
1539.06529	0.04812
1537.77952	0.04788
1536.49375	0.04759
1535.20798	0.04716
1533.92221	0.04678
1532.63644	0.04663
1531.35067	0.04667
1530.06490	0.04675
1528.77914	0.04684
1527.49337	0.04701
1526.20760	0.04730
1524.92183	0.04771
1523.63606	0.04812
1522.35029	0.04851
1521.06452	0.04901
1519.77875	0.04965
1518.49298	0.05028
1517.20722	0.05086
1515.92145	0.05151
1514.63568	0.05229
1513.34991	0.05317
1512.06414	0.05417
1510.77837	0.05531
1509.49260	0.05645
1508.20683	0.05749
1506.92107	0.05850
1505.63530	0.05958
1504.34953	0.06061
1503.06376	0.06139
1501.77799	0.06195
1500.49222	0.06251
1499.20645	0.06312
1497.92068	0.06371
1496.63491	0.06427
1495.34915	0.06484
1494.06338	0.06539
1492.77761	0.06586
1491.49184	0.06628
1490.20607	0.06683
1488.92030	0.06752
1487.63453	0.06828
1486.34876	0.06904
1485.06299	0.06983
1483.77723	0.07069
1482.49146	0.07163
1481.20569	0.07265
1479.91992	0.07372
1478.63415	0.07481
1477.34838	0.07588
1476.06261	0.07690
1474.77684	0.07779
1473.49108	0.07853
1472.20531	0.07920
1470.91954	0.07984
1469.63377	0.08041
1468.34800	0.08088
1467.06223	0.08128
1465.77646	0.08168
1464.49069	0.08213
1463.20492	0.08264
1461.91916	0.08321
1460.63339	0.08382
1459.34762	0.08445
1458.06185	0.08509
1456.77608	0.08578
1455.49031	0.08648
1454.20454	0.08701
1452.91877	0.08734
1451.63301	0.08761
1450.34724	0.08794
1449.06147	0.08829
1447.77570	0.08859
1446.48993	0.08883
1445.20416	0.08896
1443.91839	0.08896
1442.63262	0.08886
1441.34685	0.08873
1440.06109	0.08856
1438.77532	0.08830
1437.48955	0.08800
1436.20378	0.08782
1434.91801	0.08781
1433.63224	0.08794
1432.34647	0.08818
1431.06070	0.08861
1429.77494	0.08927
1428.48917	0.09009
1427.20340	0.09102
1425.91763	0.09208
1424.63186	0.09329
1423.34609	0.09460
1422.06032	0.09584
1420.77455	0.09685
1419.48878	0.09774
1418.20302	0.09863
1416.91725	0.09946
1415.63148	0.10009
1414.34571	0.10051
1413.05994	0.10081
1411.77417	0.10101
1410.48840	0.10104
1409.20263	0.10088
1407.91687	0.10050
1406.63110	0.09994
1405.34533	0.09927
1404.05956	0.09852
1402.77379	0.09765
1401.48802	0.09657
1400.20225	0.09527
1398.91648	0.09381
1397.63071	0.09227
1396.34495	0.09066
1395.05918	0.08905
1393.77341	0.08753
1392.48764	0.08607
1391.20187	0.08457
1389.91610	0.08298
1388.63033	0.08135
1387.34456	0.07981
1386.05880	0.07843
1384.77303	0.07714
1383.48726	0.07586
1382.20149	0.07457
1380.91572	0.07330
1379.62995	0.07205
1378.34418	0.07077
1377.05841	0.06940
1375.77264	0.06787
1374.48688	0.06618
1373.20111	0.06438
1371.91534	0.06253
1370.62957	0.06069
1369.34380	0.05892
1368.05803	0.05730
1366.77226	0.05585
1365.48649	0.05450
1364.20073	0.05317
1362.91496	0.05185
1361.62919	0.05056
1360.34342	0.04933
1359.05765	0.04817
1357.77188	0.04709
1356.48611	0.04613
1355.20034	0.04527
1353.91457	0.04449
1352.62881	0.04375
1351.34304	0.04306
1350.05727	0.04244
1348.77150	0.04185
1347.48573	0.04126
1346.19996	0.04068
1344.91419	0.04013
1343.62842	0.03964
1342.34266	0.03918
1341.05689	0.03873
1339.77112	0.03828
1338.48535	0.03785
1337.19958	0.03745
1335.91381	0.03707
1334.62804	0.03668
1333.34227	0.03627
1332.05650	0.03585
1330.77074	0.03545
1329.48497	0.03506
1328.19920	0.03469
1326.91343	0.03431
1325.62766	0.03394
1324.34189	0.03358
1323.05612	0.03328
1321.77035	0.03302
1320.48459	0.03280
1319.19882	0.03257
1317.91305	0.03232
1316.62728	0.03205
1315.34151	0.03180
1314.05574	0.03160
1312.76997	0.03142
1311.48420	0.03123
1310.19843	0.03100
1308.91267	0.03076
1307.62690	0.03054
1306.34113	0.03033
1305.05536	0.03011
1303.76959	0.02987
1302.48382	0.02964
1301.19805	0.02944
1299.91228	0.02926
1298.62652	0.02909
1297.34075	0.02892
1296.05498	0.02876
1294.76921	0.02861
1293.48344	0.02847
1292.19767	0.02831
1290.91190	0.02813
1289.62613	0.02795
1288.34036	0.02779
1287.05460	0.02766
1285.76883	0.02754
1284.48306	0.02742
1283.19729	0.02727
1281.91152	0.02713
1280.62575	0.02700
1279.33998	0.02688
1278.05421	0.02674
1276.76845	0.02655
1275.48268	0.02634
1274.19691	0.02614
1272.91114	0.02597
1271.62537	0.02583
1270.33960	0.02570
1269.05383	0.02557
1267.76806	0.02545
1266.48229	0.02537
1265.19653	0.02532
1263.91076	0.02527
1262.62499	0.02520
1261.33922	0.02509
1260.05345	0.02496
1258.76768	0.02484
1257.48191	0.02476
1256.19614	0.02473
1254.91037	0.02474
1253.62461	0.02475
1252.33884	0.02471
1251.05307	0.02461
1249.76730	0.02448
1248.48153	0.02435
1247.19576	0.02425
1245.90999	0.02420
1244.62422	0.02415
1243.33846	0.02409
1242.05269	0.02401
1240.76692	0.02392
1239.48115	0.02386
1238.19538	0.02381
1236.90961	0.02378
1235.62384	0.02374
1234.33807	0.02365
1233.05230	0.02353
1231.76654	0.02338
1230.48077	0.02320
1229.19500	0.02299
1227.90923	0.02273
1226.62346	0.02247
1225.33769	0.02224
1224.05192	0.02206
1222.76615	0.02191
1221.48039	0.02176
1220.19462	0.02164
1218.90885	0.02153
1217.62308	0.02146
1216.33731	0.02142
1215.05154	0.02139
1213.76577	0.02134
1212.48000	0.02124
1211.19423	0.02111
1209.90847	0.02099
1208.62270	0.02092
1207.33693	0.02088
1206.05116	0.02084
1204.76539	0.02078
1203.47962	0.02072
1202.19385	0.02069
1200.90808	0.02067
1199.62232	0.02060
1198.33655	0.02058
1197.05078	0.02053
1195.76501	0.02047
1194.47924	0.02037
1193.19347	0.02025
1191.90770	0.02012
1190.62193	0.02001
1189.33616	0.01992
1188.05040	0.01983
1186.76463	0.01973
1185.47886	0.01961
1184.19309	0.01950
1182.90732	0.01941
1181.62155	0.01934
1180.33578	0.01927
1179.05001	0.01917
1177.76425	0.01907
1176.47848	0.01900
1175.19271	0.01898
1173.90694	0.01899
1172.62117	0.01902
1171.33540	0.01904
1170.04963	0.01903
1168.76386	0.01903
1167.47809	0.01907
1166.19233	0.01916
1164.90656	0.01924
1163.62079	0.01929
1162.33502	0.01928
1161.04925	0.01926
1159.76348	0.01925
1158.47771	0.01929
1157.19194	0.01940
1155.90618	0.01955
1154.62041	0.01970
1153.33464	0.01982
1152.04887	0.01994
1150.76310	0.02011
1149.47733	0.02034
1148.19156	0.02059
1146.90579	0.02087
1145.62002	0.02119
1144.33426	0.02157
1143.04849	0.02199
1141.76272	0.02247
1140.47695	0.02301
1139.19118	0.02363
1137.90541	0.02438
1136.61964	0.02530
1135.33387	0.02637
1134.04811	0.02758
1132.76234	0.02894
1131.47657	0.03046
1130.19080	0.03215
1128.90503	0.03405
1127.61926	0.03618
1126.33349	0.03857
1125.04772	0.04123
1123.76195	0.04415
1122.47619	0.04727
1121.19042	0.05048
1119.90465	0.05368
1118.61888	0.05680
1117.33311	0.05988
1116.04734	0.06299
1114.76157	0.06615
1113.47580	0.06929
1112.19004	0.07227
1110.90427	0.07503
1109.61850	0.07759
1108.33273	0.08003
1107.04696	0.08243
1105.76119	0.08479
1104.47542	0.08707
1103.18965	0.08920
1101.90388	0.09112
1100.61812	0.09289
1099.33235	0.09457
1098.04658	0.09623
1096.76081	0.09789
1095.47504	0.09952
1094.18927	0.10107
1092.90350	0.10248
1091.61773	0.10371
1090.33197	0.10476
1089.04620	0.10567
1087.76043	0.10653
1086.47466	0.10743
1085.18889	0.10845
1083.90312	0.10965
1082.61735	0.11103
1081.33158	0.11257
1080.04581	0.11419
1078.76005	0.11587
1077.47428	0.11760
1076.18851	0.11942
1074.90274	0.12137
1073.61697	0.12345
1072.33120	0.12563
1071.04543	0.12789
1069.75966	0.13022
1068.47390	0.13264
1067.18813	0.13516
1065.90236	0.13776
1064.61659	0.14040
1063.33082	0.14299
1062.04505	0.14555
1060.75928	0.14807
1059.47351	0.15057
1058.18774	0.15305
1056.90198	0.15551
1055.61621	0.15798
1054.33044	0.16051
1053.04467	0.16313
1051.75890	0.16579
1050.47313	0.16846
1049.18736	0.17115
1047.90159	0.17394
1046.61583	0.17686
1045.33006	0.17989
1044.04429	0.18299
1042.75852	0.18618
1041.47275	0.18947
1040.18698	0.19280
1038.90121	0.19611
1037.61544	0.19939
1036.32967	0.20264
1035.04391	0.20590
1033.75814	0.20919
1032.47237	0.21240
1031.18660	0.21536
1029.90083	0.21790
1028.61506	0.22004
1027.32929	0.22195
1026.04352	0.22373
1024.75775	0.22529
1023.47199	0.22647
1022.18622	0.22719
1020.90045	0.22748
1019.61468	0.22742
1018.32891	0.22705
1017.04314	0.22633
1015.75737	0.22517
1014.47160	0.22358
1013.18584	0.22163
1011.90007	0.21936
1010.61430	0.21677
1009.32853	0.21377
1008.04276	0.21032
1006.75699	0.20644
1005.47122	0.20213
1004.18545	0.19746
1002.89968	0.19250
1001.61392	0.18733
1000.32815	0.18196
999.04238	0.17642
997.75661	0.17077
996.47084	0.16510
995.18507	0.15946
993.89930	0.15388
992.61353	0.14842
991.32777	0.14311
990.04200	0.13799
988.75623	0.13305
987.47046	0.12827
986.18469	0.12366
984.89892	0.11926
983.61315	0.11507
982.32738	0.11113
981.04161	0.10745
979.75585	0.10401
978.47008	0.10077
977.18431	0.09776
975.89854	0.09510
974.61277	0.09282
973.32700	0.09093
972.04123	0.08940
970.75546	0.08831
969.46970	0.08771
968.18393	0.08757
966.89816	0.08779
965.61239	0.08826
964.32662	0.08889
963.04085	0.08957
961.75508	0.09015
960.46931	0.09042
959.18354	0.09018
957.89778	0.08941
956.61201	0.08815
955.32624	0.08655
954.04047	0.08470
952.75470	0.08271
951.46893	0.08070
950.18316	0.07876
948.89739	0.07691
947.61163	0.07512
946.32586	0.07337
945.04009	0.07169
943.75432	0.07004
942.46855	0.06837
941.18278	0.06671
939.89701	0.06515
938.61124	0.06374
937.32547	0.06247
936.03971	0.06129
934.75394	0.06018
933.46817	0.05918
932.18240	0.05826
930.89663	0.05739
929.61086	0.05650
928.32509	0.05562
927.03932	0.05480
925.75356	0.05405
924.46779	0.05333
923.18202	0.05260
921.89625	0.05190
920.61048	0.05129
919.32471	0.05076
918.03894	0.05022
916.75317	0.04964
915.46740	0.04907
914.18164	0.04860
912.89587	0.04827
911.61010	0.04803
910.32433	0.04777
909.03856	0.04738
907.75279	0.04681
906.46702	0.04616
905.18125	0.04559
903.89549	0.04520
902.60972	0.04498
901.32395	0.04480
900.03818	0.04450
898.75241	0.04407
897.46664	0.04357
896.18087	0.04315
894.89510	0.04288
893.60933	0.04274
892.32357	0.04267
891.03780	0.04261
889.75203	0.04255
888.46626	0.04255
887.18049	0.04276
885.89472	0.04340
884.60895	0.04466
883.32318	0.04660
882.03742	0.04903
880.75165	0.05154
879.46588	0.05367
878.18011	0.05524
876.89434	0.05650
875.60857	0.05783
874.32280	0.05940
873.03703	0.06089
871.75126	0.06189
870.46550	0.06212
869.17973	0.06158
867.89396	0.06036
866.60819	0.05859
865.32242	0.05645
864.03665	0.05419
862.75088	0.05203
861.46511	0.05006
860.17935	0.04833
858.89358	0.04689
857.60781	0.04575
856.32204	0.04489
855.03627	0.04418
853.75050	0.04356
852.46473	0.04297
851.17896	0.04243
849.89319	0.04197
848.60743	0.04157
847.32166	0.04120
846.03589	0.04083
844.75012	0.04046
843.46435	0.04014
842.17858	0.03989
840.89281	0.03969
839.60704	0.03949
838.32128	0.03924
837.03551	0.03894
835.74974	0.03867
834.46397	0.03850
833.17820	0.03841
831.89243	0.03837
830.60666	0.03832
829.32089	0.03825
828.03512	0.03816
826.74936	0.03803
825.46359	0.03785
824.17782	0.03765
822.89205	0.03749
821.60628	0.03739
820.32051	0.03730
819.03474	0.03717
817.74897	0.03703
816.46321	0.03695
815.17744	0.03694
813.89167	0.03695
812.60590	0.03695
811.32013	0.03687
810.03436	0.03672
808.74859	0.03656
807.46282	0.03644
806.17705	0.03638
804.89129	0.03634
803.60552	0.03627
802.31975	0.03618
801.03398	0.03609
799.74821	0.03604
798.46244	0.03599
797.17667	0.03590
795.89090	0.03577
794.60513	0.03561
793.31937	0.03547
792.03360	0.03536
790.74783	0.03525
789.46206	0.03510
788.17629	0.03496
786.89052	0.03490
785.60475	0.03497
784.31898	0.03508
783.03322	0.03511
781.74745	0.03505
780.46168	0.03497
779.17591	0.03497
777.89014	0.03506
776.60437	0.03511
775.31860	0.03505
774.03283	0.03490
772.74706	0.03478
771.46130	0.03473
770.17553	0.03471
768.88976	0.03464
767.60399	0.03451
766.31822	0.03434
765.03245	0.03421
763.74668	0.03418
762.46091	0.03427
761.17515	0.03445
759.88938	0.03466
758.60361	0.03486
757.31784	0.03504
756.03207	0.03517
754.74630	0.03520
753.46053	0.03509
752.17476	0.03489
750.88899	0.03467
749.60323	0.03454
748.31746	0.03454
747.03169	0.03463
745.74592	0.03470
744.46015	0.03467
743.17438	0.03455
741.88861	0.03442
740.60284	0.03434
739.31708	0.03429
738.03131	0.03425
736.74554	0.03422
735.45977	0.03422
734.17400	0.03423
732.88823	0.03420
731.60246	0.03408
730.31669	0.03390
729.03092	0.03370
727.74516	0.03353
726.45939	0.03342
725.17362	0.03341
723.88785	0.03352
722.60208	0.03377
721.31631	0.03388
720.03054	0.03393
718.74477	0.03403
717.45901	0.03396
716.17324	0.03380
714.88747	0.03368
713.60170	0.03360
712.31593	0.03353
711.03016	0.03346
709.74439	0.03340
708.45862	0.03333
707.17285	0.03326
705.88709	0.03317
704.60132	0.03309
703.31555	0.03302
702.02978	0.03296
700.74401	0.03295
699.45824	0.03299
698.17247	0.03309
696.88670	0.03318
695.60094	0.03324
694.31517	0.03326
693.02940	0.03326
691.74363	0.03327
690.45786	0.03331
689.17209	0.03335
687.88632	0.03335
686.60055	0.03329
685.31478	0.03318
684.02902	0.03305
682.74325	0.03294
681.45748	0.03283
680.17171	0.03271
678.88594	0.03258
677.60017	0.03244
676.31440	0.03232
675.02863	0.03233
673.74287	0.03283
672.45710	0.03410
671.17133	0.03531
669.88556	0.03406
668.59979	0.03065
667.31402	0.03107
666.02825	0.03425
664.74248	0.03472
663.45671	0.03330
662.17095	0.03218
660.88518	0.03173
659.59941	0.03160
658.31364	0.03156
657.02787	0.03153
655.74210	0.03151
654.45633	0.03153
653.17056	0.03156
651.88480	0.03155
650.59903	0.03146
649.31326	0.03130
648.02749	0.03118
646.74172	0.03112
645.45595	0.03105
644.17018	0.03100
642.88441	0.03094
641.59864	0.03086
640.31288	0.03079
639.02711	0.03076
637.74134	0.03079
636.45557	0.03087
635.16980	0.03099
633.88403	0.03116
632.59826	0.03146
631.31249	0.03199
630.02673	0.03282
628.74096	0.03350
627.45519	0.03342
626.16942	0.03455
624.88365	0.03639
623.59788	0.03807
622.31211	0.03948
621.02634	0.04103
619.74057	0.04315
618.45481	0.04588
617.16904	0.04882
615.88327	0.05171
614.59750	0.05488
613.31173	0.05891
612.02596	0.06373
610.74019	0.06832
609.45442	0.07163
608.16866	0.07397
606.88289	0.07677
605.59712	0.08090
604.31135	0.08564
603.02558	0.08922
601.73981	0.09046
600.45404	0.08946
599.16827	0.08713
597.88250	0.08431
596.59674	0.08147
595.31097	0.07883
594.02520	0.07656
592.73943	0.07472
591.45366	0.07329
590.16789	0.07227
588.88212	0.07172
587.59635	0.07169
586.31059	0.07215
585.02482	0.07304
583.73905	0.07431
582.45328	0.07594
581.16751	0.07786
579.88174	0.07998
578.59597	0.08217
577.31020	0.08434
576.02443	0.08643
574.73867	0.08841
573.45290	0.09025
572.16713	0.09204
570.88136	0.09399
569.59559	0.09642
568.30982	0.09953
567.02405	0.10329
565.73828	0.10741
564.45251	0.11139
563.16675	0.11464
561.88098	0.11658
560.59521	0.11687
559.30944	0.11544
558.02367	0.11243
556.73790	0.10811
555.45213	0.10284
554.16636	0.09711
552.88060	0.09140
551.59483	0.08610
550.30906	0.08136
549.02329	0.07716
547.73752	0.07341
546.45175	0.07005
545.16598	0.06707
543.88021	0.06447
542.59444	0.06220
541.30868	0.06018
540.02291	0.05835
538.73714	0.05668
537.45137	0.05513
536.16560	0.05368
534.87983	0.05231
533.59406	0.05101
532.30829	0.04978
531.02253	0.04866
529.73676	0.04765
528.45099	0.04674
527.16522	0.04587
525.87945	0.04502
524.59368	0.04420
523.30791	0.04344
522.02214	0.04273
520.73637	0.04206
519.45061	0.04141
518.16484	0.04077
516.87907	0.04017
515.59330	0.03966
514.30753	0.03927
513.02176	0.03892
511.73599	0.03850
510.45022	0.03789
509.16446	0.03718
507.87869	0.03654
506.59292	0.03609
505.30715	0.03576
504.02138	0.03542
502.73561	0.03501
501.44984	0.03456
500.16407	0.03415
498.87830	0.03380
497.59254	0.03346
496.30677	0.03308
495.02100	0.03267
493.73523	0.03230
492.44946	0.03200
491.16369	0.03174
489.87792	0.03148
488.59215	0.03124
487.30639	0.03108
486.02062	0.03102
484.73485	0.03103
483.44908	0.03100
482.16331	0.03089
480.87754	0.03075
479.59177	0.03065
478.30600	0.03066
477.02023	0.03078
475.73447	0.03093
474.44870	0.03108
473.16293	0.03122
471.87716	0.03133
470.59139	0.03137
469.30562	0.03128
468.01985	0.03106
466.73408	0.03076
465.44832	0.03045
464.16255	0.03014
462.87678	0.02984
461.59101	0.02953
460.30524	0.02921
459.01947	0.02889
457.73370	0.02857
456.44793	0.02824
455.16216	0.02790
453.87640	0.02755
452.59063	0.02722
451.30486	0.02692
450.01909	0.02666
448.73332	0.02644
447.44755	0.02626
446.16178	0.02606
444.87601	0.02580
443.59025	0.02553
442.30448	0.02531
441.01871	0.02518
439.73294	0.02510
438.44717	0.02500
437.16140	0.02485
435.87563	0.02466
434.58986	0.02448
433.30409	0.02432
432.01833	0.02416
430.73256	0.02397
429.44679	0.02374
428.16102	0.02352
426.87525	0.02336
425.58948	0.02328
424.30371	0.02323
423.01794	0.02316
421.73218	0.02302
420.44641	0.02281
419.16064	0.02262
417.87487	0.02249
416.58910	0.02235
415.30333	0.02214
414.01756	0.02190
412.73179	0.02169
411.44602	0.02156
410.16026	0.02149
408.87449	0.02147
407.58872	0.02148
406.30295	0.02149
405.01718	0.02149
403.73141	0.02146
402.44564	0.02143
401.15987	0.02143
399.87411	0.02145
