3997.45528	0.06098
3996.16951	0.06090
3994.88374	0.06044
3993.59798	0.05966
3992.31221	0.05892
3991.02644	0.05847
3989.74067	0.05842
3988.45490	0.05882
3987.16913	0.05951
3985.88336	0.06005
3984.59759	0.06003
3983.31183	0.05936
3982.02606	0.05834
3980.74029	0.05742
3979.45452	0.05694
3978.16875	0.05694
3976.88298	0.05714
3975.59721	0.05727
3974.31144	0.05733
3973.02567	0.05752
3971.73991	0.05786
3970.45414	0.05824
3969.16837	0.05862
3967.88260	0.05906
3966.59683	0.05950
3965.31106	0.05966
3964.02529	0.05938
3962.73952	0.05873
3961.45376	0.05805
3960.16799	0.05761
3958.88222	0.05750
3957.59645	0.05761
3956.31068	0.05780
3955.02491	0.05804
3953.73914	0.05831
3952.45337	0.05855
3951.16760	0.05862
3949.88184	0.05856
3948.59607	0.05859
3947.31030	0.05890
3946.02453	0.05930
3944.73876	0.05935
3943.45299	0.05889
3942.16722	0.05817
3940.88145	0.05743
3939.59569	0.05680
3938.30992	0.05635
3937.02415	0.05623
3935.73838	0.05649
3934.45261	0.05707
3933.16684	0.05792
3931.88107	0.05886
3930.59530	0.05950
3929.30953	0.05961
3928.02377	0.05937
3926.73800	0.05911
3925.45223	0.05883
3924.16646	0.05832
3922.88069	0.05757
3921.59492	0.05688
3920.30915	0.05646
3919.02338	0.05617
3917.73762	0.05574
3916.45185	0.05524
3915.16608	0.05498
3913.88031	0.05513
3912.59454	0.05558
3911.30877	0.05613
3910.02300	0.05657
3908.73723	0.05683
3907.45146	0.05692
3906.16570	0.05676
3904.87993	0.05631
3903.59416	0.05566
3902.30839	0.05500
3901.02262	0.05461
3899.73685	0.05471
3898.45108	0.05524
3897.16531	0.05581
3895.87955	0.05603
3894.59378	0.05591
3893.30801	0.05571
3892.02224	0.05568
3890.73647	0.05588
3889.45070	0.05584
3888.16493	0.05506
3886.87916	0.05386
3885.59339	0.05324
3884.30763	0.05353
3883.02186	0.05402
3881.73609	0.05413
3880.45032	0.05414
3879.16455	0.05451
3877.87878	0.05511
3876.59301	0.05557
3875.30724	0.05586
3874.02148	0.05613
3872.73571	0.05626
3871.44994	0.05620
3870.16417	0.05638
3868.87840	0.05698
3867.59263	0.05728
3866.30686	0.05658
3865.02109	0.05524
3863.73532	0.05407
3862.44956	0.05345
3861.16379	0.05349
3859.87802	0.05406
3858.59225	0.05467
3857.30648	0.05455
3856.02071	0.05349
3854.73494	0.05240
3853.44917	0.05261
3852.16341	0.05412
3850.87764	0.05559
3849.59187	0.05604
3848.30610	0.05555
3847.02033	0.05460
3845.73456	0.05361
3844.44879	0.05290
3843.16302	0.05266
3841.87725	0.05272
3840.59149	0.05263
3839.30572	0.05224
3838.01995	0.05200
3836.73418	0.05230
3835.44841	0.05283
3834.16264	0.05293
3832.87687	0.05246
3831.59110	0.05191
3830.30534	0.05181
3829.01957	0.05222
3827.73380	0.05280
3826.44803	0.05325
3825.16226	0.05338
3823.87649	0.05301
3822.59072	0.05239
3821.30495	0.05228
3820.01918	0.05294
3818.73342	0.05356
3817.44765	0.05340
3816.16188	0.05298
3814.87611	0.05308
3813.59034	0.05340
3812.30457	0.05328
3811.01880	0.05259
3809.73303	0.05154
3808.44726	0.05048
3807.16150	0.05006
3805.87573	0.05068
3804.58996	0.05171
3803.30419	0.05226
3802.01842	0.05232
3800.73265	0.05240
3799.44688	0.05231
3798.16111	0.05152
3796.87535	0.05033
3795.58958	0.04951
3794.30381	0.04925
3793.01804	0.04925
3791.73227	0.04929
3790.44650	0.04947
3789.16073	0.04984
3787.87496	0.05023
3786.58919	0.05044
3785.30343	0.05041
3784.01766	0.05026
3782.73189	0.05007
3781.44612	0.04982
3780.16035	0.04960
3778.87458	0.04962
3777.58881	0.04994
3776.30304	0.05038
3775.01728	0.05070
3773.73151	0.05074
3772.44574	0.05045
3771.15997	0.05006
3769.87420	0.04989
3768.58843	0.04988
3767.30266	0.04964
3766.01689	0.04919
3764.73112	0.04895
3763.44536	0.04908
3762.15959	0.04931
3760.87382	0.04946
3759.58805	0.04955
3758.30228	0.04948
3757.01651	0.04912
3755.73074	0.04847
3754.44497	0.04776
3753.15921	0.04749
3751.87344	0.04808
3750.58767	0.04951
3749.30190	0.05139
3748.01613	0.05304
3746.73036	0.05359
3745.44459	0.05296
3744.15882	0.05225
3742.87305	0.05204
3741.58729	0.05181
3740.30152	0.05140
3739.01575	0.05123
3737.72998	0.05150
3736.44421	0.05200
3735.15844	0.05224
3733.87267	0.05190
3732.58690	0.05114
3731.30114	0.05057
3730.01537	0.05042
3728.72960	0.05031
3727.44383	0.05025
3726.15806	0.05046
3724.87229	0.05074
3723.58652	0.05079
3722.30075	0.05066
3721.01498	0.05083
3719.72922	0.05136
3718.44345	0.05169
3717.15768	0.05149
3715.87191	0.05085
3714.58614	0.05013
3713.30037	0.04971
3712.01460	0.04961
3710.72883	0.04982
3709.44307	0.05021
3708.15730	0.05055
3706.87153	0.05093
3705.58576	0.05136
3704.29999	0.05173
3703.01422	0.05208
3701.72845	0.05245
3700.44268	0.05274
3699.15691	0.05272
3697.87115	0.05240
3696.58538	0.05221
3695.29961	0.05234
3694.01384	0.05248
3692.72807	0.05215
3691.44230	0.05112
3690.15653	0.04961
3688.87076	0.04825
3687.58500	0.04779
3686.29923	0.04829
3685.01346	0.04926
3683.72769	0.05053
3682.44192	0.05196
3681.15615	0.05297
3679.87038	0.05280
3678.58461	0.05110
3677.29884	0.04848
3676.01308	0.04655
3674.72731	0.04640
3673.44154	0.04730
3672.15577	0.04777
3670.87000	0.04763
3669.58423	0.04770
3668.29846	0.04821
3667.01269	0.04870
3665.72693	0.04894
3664.44116	0.04892
3663.15539	0.04867
3661.86962	0.04827
3660.58385	0.04797
3659.29808	0.04792
3658.01231	0.04807
3656.72654	0.04843
3655.44077	0.04901
3654.15501	0.04941
3652.86924	0.04908
3651.58347	0.04813
3650.29770	0.04738
3649.01193	0.04753
3647.72616	0.04860
3646.44039	0.05004
3645.15462	0.05120
3643.86886	0.05172
3642.58309	0.05169
3641.29732	0.05144
3640.01155	0.05120
3638.72578	0.05112
3637.44001	0.05139
3636.15424	0.05212
3634.86847	0.05323
3633.58270	0.05431
3632.29694	0.05485
3631.01117	0.05460
3629.72540	0.05400
3628.43963	0.05381
3627.15386	0.05399
3625.86809	0.05403
3624.58232	0.05373
3623.29655	0.05348
3622.01079	0.05329
3620.72502	0.05330
3619.43925	0.05378
3618.15348	0.05481
3616.86771	0.05585
3615.58194	0.05631
3614.29617	0.05632
3613.01040	0.05652
3611.72463	0.05718
3610.43887	0.05787
3609.15310	0.05826
3607.86733	0.05833
3606.58156	0.05818
3605.29579	0.05790
3604.01002	0.05771
3602.72425	0.05794
3601.43848	0.05856
3600.15272	0.05925
3598.86695	0.05959
3597.58118	0.05944
3596.29541	0.05881
3595.00964	0.05824
3593.72387	0.05826
3592.43810	0.05888
3591.15233	0.05980
3589.86656	0.06055
3588.58080	0.06087
3587.29503	0.06103
3586.00926	0.06114
3584.72349	0.06114
3583.43772	0.06103
3582.15195	0.06090
3580.86618	0.06077
3579.58041	0.06062
3578.29464	0.06047
3577.00888	0.06050
3575.72311	0.06092
3574.43734	0.06170
3573.15157	0.06257
3571.86580	0.06325
3570.58003	0.06356
3569.29426	0.06355
3568.00849	0.06343
3566.72273	0.06335
3565.43696	0.06331
3564.15119	0.06335
3562.86542	0.06355
3561.57965	0.06386
3560.29388	0.06396
3559.00811	0.06367
3557.72234	0.06323
3556.43657	0.06311
3555.15081	0.06356
3553.86504	0.06448
3552.57927	0.06558
3551.29350	0.06651
3550.00773	0.06696
3548.72196	0.06690
3547.43619	0.06667
3546.15042	0.06664
3544.86466	0.06688
3543.57889	0.06707
3542.29312	0.06700
3541.00735	0.06675
3539.72158	0.06653
3538.43581	0.06643
3537.15004	0.06648
3535.86427	0.06676
3534.57850	0.06731
3533.29274	0.06805
3532.00697	0.06876
3530.72120	0.06931
3529.43543	0.06970
3528.14966	0.06997
3526.86389	0.07011
3525.57812	0.07008
3524.29235	0.06997
3523.00659	0.06996
3521.72082	0.07016
3520.43505	0.07050
3519.14928	0.07086
3517.86351	0.07117
3516.57774	0.07136
3515.29197	0.07142
3514.00620	0.07139
3512.72043	0.07127
3511.43467	0.07097
3510.14890	0.07046
3508.86313	0.06989
3507.57736	0.06947
3506.29159	0.06935
3505.00582	0.06962
3503.72005	0.07039
3502.43428	0.07160
3501.14852	0.07297
3499.86275	0.07405
3498.57698	0.07453
3497.29121	0.07439
3496.00544	0.07384
3494.71967	0.07317
3493.43390	0.07261
3492.14813	0.07239
3490.86236	0.07262
3489.57660	0.07329
3488.29083	0.07414
3487.00506	0.07477
3485.71929	0.07483
3484.43352	0.07432
3483.14775	0.07367
3481.86198	0.07341
3480.57621	0.07375
3479.29045	0.07449
3478.00468	0.07529
3476.71891	0.07590
3475.43314	0.07625
3474.14737	0.07641
3472.86160	0.07652
3471.57583	0.07676
3470.29006	0.07712
3469.00429	0.07730
3467.71853	0.07703
3466.43276	0.07632
3465.14699	0.07546
3463.86122	0.07480
3462.57545	0.07455
3461.28968	0.07475
3460.00391	0.07527
3458.71814	0.07589
3457.43238	0.07641
3456.14661	0.07676
3454.86084	0.07693
3453.57507	0.07697
3452.28930	0.07687
3451.00353	0.07672
3449.71776	0.07666
3448.43199	0.07682
3447.14622	0.07726
3445.86046	0.07791
3444.57469	0.07862
3443.28892	0.07916
3442.00315	0.07946
3440.71738	0.07961
3439.43161	0.07972
3438.14584	0.07980
3436.86007	0.07980
3435.57431	0.07979
3434.28854	0.07994
3433.00277	0.08026
3431.71700	0.08052
3430.43123	0.08041
3429.14546	0.07995
3427.85969	0.07954
3426.57392	0.07962
3425.28815	0.08024
3424.00239	0.08097
3422.71662	0.08134
3421.43085	0.08135
3420.14508	0.08140
3418.85931	0.08168
3417.57354	0.08193
3416.28777	0.08176
3415.00200	0.08119
3413.71624	0.08065
3412.43047	0.08054
3411.14470	0.08087
3409.85893	0.08132
3408.57316	0.08160
3407.28739	0.08166
3406.00162	0.08170
3404.71585	0.08193
3403.43008	0.08241
3402.14432	0.08307
3400.85855	0.08370
3399.57278	0.08409
3398.28701	0.08410
3397.00124	0.08378
3395.71547	0.08329
3394.42970	0.08277
3393.14393	0.08229
3391.85817	0.08196
3390.57240	0.08198
3389.28663	0.08242
3388.00086	0.08311
3386.71509	0.08370
3385.42932	0.08402
3384.14355	0.08415
3382.85778	0.08419
3381.57201	0.08409
3380.28625	0.08380
3379.00048	0.08351
3377.71471	0.08343
3376.42894	0.08350
3375.14317	0.08343
3373.85740	0.08321
3372.57163	0.08313
3371.28586	0.08347
3370.00010	0.08408
3368.71433	0.08446
3367.42856	0.08425
3366.14279	0.08356
3364.85702	0.08284
3363.57125	0.08247
3362.28548	0.08249
3360.99971	0.08274
3359.71394	0.08302
3358.42818	0.08324
3357.14241	0.08339
3355.85664	0.08346
3354.57087	0.08352
3353.28510	0.08366
3351.99933	0.08398
3350.71356	0.08453
3349.42779	0.08520
3348.14202	0.08577
3346.85626	0.08596
3345.57049	0.08566
3344.28472	0.08498
3342.99895	0.08427
3341.71318	0.08389
3340.42741	0.08388
3339.14164	0.08397
3337.85587	0.08393
3336.57011	0.08380
3335.28434	0.08386
3333.99857	0.08416
3332.71280	0.08441
3331.42703	0.08424
3330.14126	0.08362
3328.85549	0.08293
3327.56972	0.08260
3326.28395	0.08268
3324.99819	0.08286
3323.71242	0.08283
3322.42665	0.08269
3321.14088	0.08279
3319.85511	0.08334
3318.56934	0.08404
3317.28357	0.08438
3315.99780	0.08420
3314.71204	0.08373
3313.42627	0.08334
3312.14050	0.08307
3310.85473	0.08281
3309.56896	0.08247
3308.28319	0.08217
3306.99742	0.08204
3305.71165	0.08207
3304.42588	0.08214
3303.14012	0.08228
3301.85435	0.08257
3300.56858	0.08292
3299.28281	0.08312
3297.99704	0.08301
3296.71127	0.08265
3295.42550	0.08220
3294.13973	0.08180
3292.85397	0.08159
3291.56820	0.08173
3290.28243	0.08231
3288.99666	0.08309
3287.71089	0.08364
3286.42512	0.08359
3285.13935	0.08302
3283.85358	0.08232
3282.56781	0.08182
3281.28205	0.08151
3279.99628	0.08122
3278.71051	0.08099
3277.42474	0.08104
3276.13897	0.08151
3274.85320	0.08223
3273.56743	0.08277
3272.28166	0.08280
3270.99590	0.08234
3269.71013	0.08175
3268.42436	0.08135
3267.13859	0.08122
3265.85282	0.08123
3264.56705	0.08128
3263.28128	0.08138
3261.99551	0.08155
3260.70974	0.08172
3259.42398	0.08180
3258.13821	0.08176
3256.85244	0.08171
3255.56667	0.08180
3254.28090	0.08210
3252.99513	0.08250
3251.70936	0.08285
3250.42359	0.08300
3249.13783	0.08287
3247.85206	0.08245
3246.56629	0.08185
3245.28052	0.08130
3243.99475	0.08098
3242.70898	0.08086
3241.42321	0.08078
3240.13744	0.08058
3238.85167	0.08026
3237.56591	0.07994
3236.28014	0.07973
3234.99437	0.07968
3233.70860	0.07973
3232.42283	0.07985
3231.13706	0.07994
3229.85129	0.07993
3228.56552	0.07985
3227.27976	0.07985
3225.99399	0.08006
3224.70822	0.08040
3223.42245	0.08065
3222.13668	0.08071
3220.85091	0.08073
3219.56514	0.08085
3218.27937	0.08096
3216.99360	0.08080
3215.70784	0.08024
3214.42207	0.07947
3213.13630	0.07885
3211.85053	0.07857
3210.56476	0.07848
3209.27899	0.07831
3207.99322	0.07797
3206.70745	0.07760
3205.42169	0.07737
3204.13592	0.07731
3202.85015	0.07734
3201.56438	0.07741
3200.27861	0.07751
3198.99284	0.07769
3197.70707	0.07794
3196.42130	0.07814
3195.13553	0.07815
3193.84977	0.07795
3192.56400	0.07772
3191.27823	0.07761
3189.99246	0.07754
3188.70669	0.07736
3187.42092	0.07703
3186.13515	0.07678
3184.84938	0.07687
3183.56362	0.07732
3182.27785	0.07786
3180.99208	0.07814
3179.70631	0.07800
3178.42054	0.07753
3177.13477	0.07696
3175.84900	0.07648
3174.56323	0.07616
3173.27746	0.07598
3171.99170	0.07595
3170.70593	0.07604
3169.42016	0.07617
3168.13439	0.07622
3166.84862	0.07614
3165.56285	0.07588
3164.27708	0.07547
3162.99131	0.07497
3161.70555	0.07454
3160.41978	0.07436
3159.13401	0.07454
3157.84824	0.07502
3156.56247	0.07553
3155.27670	0.07572
3153.99093	0.07544
3152.70516	0.07485
3151.41939	0.07432
3150.13363	0.07406
3148.84786	0.07402
3147.56209	0.07408
3146.27632	0.07417
3144.99055	0.07424
3143.70478	0.07422
3142.41901	0.07406
3141.13324	0.07381
3139.84748	0.07359
3138.56171	0.07347
3137.27594	0.07340
3135.99017	0.07333
3134.70440	0.07326
3133.41863	0.07320
3132.13286	0.07317
3130.84709	0.07310
3129.56132	0.07302
3128.27556	0.07302
3126.98979	0.07320
3125.70402	0.07350
3124.41825	0.07371
3123.13248	0.07365
3121.84671	0.07333
3120.56094	0.07289
3119.27517	0.07246
3117.98940	0.07211
3116.70364	0.07188
3115.41787	0.07180
3114.13210	0.07180
3112.84633	0.07172
3111.56056	0.07148
3110.27479	0.07108
3108.98902	0.07064
3107.70325	0.07034
3106.41749	0.07027
3105.13172	0.07042
3103.84595	0.07060
3102.56018	0.07063
3101.27441	0.07042
3099.98864	0.07008
3098.70287	0.06975
3097.41710	0.06951
3096.13133	0.06935
3094.84557	0.06922
3093.55980	0.06906
3092.27403	0.06886
3090.98826	0.06860
3089.70249	0.06836
3088.41672	0.06828
3087.13095	0.06850
3085.84518	0.06904
3084.55942	0.06963
3083.27365	0.06994
3081.98788	0.06986
3080.70211	0.06949
3079.41634	0.06905
3078.13057	0.06868
3076.84480	0.06846
3075.55903	0.06840
3074.27326	0.06843
3072.98750	0.06846
3071.70173	0.06840
3070.41596	0.06823
3069.13019	0.06797
3067.84442	0.06767
3066.55865	0.06739
3065.27288	0.06722
3063.98711	0.06730
3062.70135	0.06758
3061.41558	0.06787
3060.12981	0.06792
3058.84404	0.06768
3057.55827	0.06729
3056.27250	0.06695
3054.98673	0.06676
3053.70096	0.06667
3052.41519	0.06654
3051.12943	0.06631
3049.84366	0.06593
3048.55789	0.06544
3047.27212	0.06491
3045.98635	0.06446
3044.70058	0.06424
3043.41481	0.06428
3042.12904	0.06448
3040.84328	0.06468
3039.55751	0.06482
3038.27174	0.06492
3036.98597	0.06501
3035.70020	0.06510
3034.41443	0.06520
3033.12866	0.06533
3031.84289	0.06537
3030.55712	0.06512
3029.27136	0.06455
3027.98559	0.06392
3026.69982	0.06355
3025.41405	0.06358
3024.12828	0.06378
3022.84251	0.06390
3021.55674	0.06382
3020.27097	0.06361
3018.98521	0.06332
3017.69944	0.06300
3016.41367	0.06271
3015.12790	0.06247
3013.84213	0.06225
3012.55636	0.06199
3011.27059	0.06179
3009.98482	0.06171
3008.69905	0.06170
3007.41329	0.06158
3006.12752	0.06129
3004.84175	0.06096
3003.55598	0.06077
3002.27021	0.06079
3000.98444	0.06096
2999.69867	0.06110
2998.41290	0.06110
2997.12714	0.06092
2995.84137	0.06070
2994.55560	0.06072
2993.26983	0.06108
2991.98406	0.06165
2990.69829	0.06217
2989.41252	0.06252
2988.12675	0.06270
2986.84098	0.06270
2985.55522	0.06248
2984.26945	0.06219
2982.98368	0.06210
2981.69791	0.06229
2980.41214	0.06252
2979.12637	0.06261
2977.84060	0.06266
2976.55483	0.06298
2975.26907	0.06370
2973.98330	0.06467
2972.69753	0.06567
2971.41176	0.06656
2970.12599	0.06737
2968.84022	0.06818
2967.55445	0.06903
2966.26868	0.06992
2964.98291	0.07082
2963.69715	0.07176
2962.41138	0.07278
2961.12561	0.07392
2959.83984	0.07511
2958.55407	0.07628
2957.26830	0.07738
2955.98253	0.07841
2954.69676	0.07927
2953.41100	0.07978
2952.12523	0.07985
2950.83946	0.07956
2949.55369	0.07909
2948.26792	0.07861
2946.98215	0.07816
2945.69638	0.07771
2944.41061	0.07729
2943.12484	0.07705
2941.83908	0.07715
2940.55331	0.07756
2939.26754	0.07820
2937.98177	0.07900
2936.69600	0.07992
2935.41023	0.08088
2934.12446	0.08175
2932.83869	0.08253
2931.55293	0.08322
2930.26716	0.08380
2928.98139	0.08423
2927.69562	0.08457
2926.40985	0.08489
2925.12408	0.08523
2923.83831	0.08552
2922.55254	0.08570
2921.26677	0.08566
2919.98101	0.08532
2918.69524	0.08468
2917.40947	0.08388
2916.12370	0.08310
2914.83793	0.08234
2913.55216	0.08149
2912.26639	0.08047
2910.98062	0.07941
2909.69486	0.07848
2908.40909	0.07766
2907.12332	0.07686
2905.83755	0.07615
2904.55178	0.07565
2903.26601	0.07535
2901.98024	0.07506
2900.69447	0.07458
2899.40870	0.07391
2898.12294	0.07320
2896.83717	0.07257
2895.55140	0.07198
2894.26563	0.07137
2892.97986	0.07071
2891.69409	0.07003
2890.40832	0.06934
2889.12255	0.06862
2887.83678	0.06796
2886.55102	0.06746
2885.26525	0.06716
2883.97948	0.06701
2882.69371	0.06695
2881.40794	0.06700
2880.12217	0.06720
2878.83640	0.06757
2877.55063	0.06803
2876.26487	0.06845
2874.97910	0.06873
2873.69333	0.06885
2872.40756	0.06886
2871.12179	0.06884
2869.83602	0.06886
2868.55025	0.06898
2867.26448	0.06916
2865.97871	0.06932
2864.69295	0.06940
2863.40718	0.06938
2862.12141	0.06931
2860.83564	0.06924
2859.54987	0.06919
2858.26410	0.06914
2856.97833	0.06897
2855.69256	0.06858
2854.40680	0.06807
2853.12103	0.06770
2851.83526	0.06754
2850.54949	0.06740
2849.26372	0.06699
2847.97795	0.06620
2846.69218	0.06516
2845.40641	0.06407
2844.12064	0.06310
2842.83488	0.06237
2841.54911	0.06188
2840.26334	0.06149
2838.97757	0.06100
2837.69180	0.06026
2836.40603	0.05925
2835.12026	0.05813
2833.83449	0.05714
2832.54873	0.05642
2831.26296	0.05600
2829.97719	0.05576
2828.69142	0.05559
2827.40565	0.05538
2826.11988	0.05505
2824.83411	0.05459
2823.54834	0.05404
2822.26257	0.05345
2820.97681	0.05289
2819.69104	0.05241
2818.40527	0.05208
2817.11950	0.05188
2815.83373	0.05174
2814.54796	0.05163
2813.26219	0.05157
2811.97642	0.05161
2810.69066	0.05175
2809.40489	0.05184
2808.11912	0.05175
2806.83335	0.05149
2805.54758	0.05119
2804.26181	0.05091
2802.97604	0.05071
2801.69027	0.05067
2800.40450	0.05080
2799.11874	0.05091
2797.83297	0.05081
2796.54720	0.05054
2795.26143	0.05029
2793.97566	0.05022
2792.68989	0.05029
2791.40412	0.05035
2790.11835	0.05023
2788.83259	0.04991
2787.54682	0.04953
2786.26105	0.04923
2784.97528	0.04901
2783.68951	0.04879
2782.40374	0.04854
2781.11797	0.04835
2779.83220	0.04827
2778.54643	0.04832
2777.26067	0.04844
2775.97490	0.04854
2774.68913	0.04855
2773.40336	0.04846
2772.11759	0.04830
2770.83182	0.04811
2769.54605	0.04795
2768.26028	0.04790
2766.97452	0.04795
2765.68875	0.04802
2764.40298	0.04803
2763.11721	0.04793
2761.83144	0.04773
2760.54567	0.04747
2759.25990	0.04722
2757.97413	0.04707
2756.68836	0.04705
2755.40260	0.04707
2754.11683	0.04702
2752.83106	0.04689
2751.54529	0.04673
2750.25952	0.04653
2748.97375	0.04631
2747.68798	0.04616
2746.40221	0.04619
2745.11645	0.04635
2743.83068	0.04653
2742.54491	0.04665
2741.25914	0.04675
2739.97337	0.04683
2738.68760	0.04687
2737.40183	0.04683
2736.11606	0.04670
2734.83029	0.04650
2733.54453	0.04625
2732.25876	0.04596
2730.97299	0.04563
2729.68722	0.04530
2728.40145	0.04505
2727.11568	0.04499
2725.82991	0.04507
2724.54414	0.04516
2723.25838	0.04516
2721.97261	0.04512
2720.68684	0.04512
2719.40107	0.04516
2718.11530	0.04519
2716.82953	0.04516
2715.54376	0.04509
2714.25799	0.04499
2712.97222	0.04492
2711.68646	0.04492
2710.40069	0.04494
2709.11492	0.04492
2707.82915	0.04483
2706.54338	0.04465
2705.25761	0.04437
2703.97184	0.04403
2702.68607	0.04372
2701.40031	0.04355
2700.11454	0.04349
2698.82877	0.04345
2697.54300	0.04339
2696.25723	0.04332
2694.97146	0.04326
2693.68569	0.04319
2692.39992	0.04307
2691.11415	0.04291
2689.82839	0.04278
2688.54262	0.04275
2687.25685	0.04281
2685.97108	0.04286
2684.68531	0.04280
2683.39954	0.04268
2682.11377	0.04260
2680.82800	0.04263
2679.54224	0.04269
2678.25647	0.04263
2676.97070	0.04237
2675.68493	0.04205
2674.39916	0.04181
2673.11339	0.04175
2671.82762	0.04179
2670.54185	0.04184
2669.25608	0.04189
2667.97032	0.04196
2666.68455	0.04203
2665.39878	0.04204
2664.11301	0.04203
2662.82724	0.04204
2661.54147	0.04210
2660.25570	0.04214
2658.96993	0.04207
2657.68417	0.04192
2656.39840	0.04176
2655.11263	0.04168
2653.82686	0.04169
2652.54109	0.04174
2651.25532	0.04179
2649.96955	0.04176
2648.68378	0.04159
2647.39801	0.04127
2646.11225	0.04083
2644.82648	0.04043
2643.54071	0.04017
2642.25494	0.04004
2640.96917	0.03993
2639.68340	0.03977
2638.39763	0.03963
2637.11186	0.03953
2635.82609	0.03942
2634.54033	0.03926
2633.25456	0.03907
2631.96879	0.03892
2630.68302	0.03877
2629.39725	0.03856
2628.11148	0.03830
2626.82571	0.03808
2625.53994	0.03794
2624.25418	0.03778
2622.96841	0.03751
2621.68264	0.03725
2620.39687	0.03725
2619.11110	0.03751
2617.82533	0.03772
2616.53956	0.03761
2615.25379	0.03724
2613.96802	0.03687
2612.68226	0.03662
2611.39649	0.03640
2610.11072	0.03613
2608.82495	0.03594
2607.53918	0.03601
2606.25341	0.03638
2604.96764	0.03688
2603.68187	0.03723
2602.39611	0.03719
2601.11034	0.03680
2599.82457	0.03627
2598.53880	0.03581
2597.25303	0.03542
2595.96726	0.03501
2594.68149	0.03459
2593.39572	0.03431
2592.10995	0.03425
2590.82419	0.03432
2589.53842	0.03439
2588.25265	0.03442
2586.96688	0.03440
2585.68111	0.03433
2584.39534	0.03430
2583.10957	0.03447
2581.82380	0.03490
2580.53804	0.03529
2579.25227	0.03521
2577.96650	0.03454
2576.68073	0.03366
2575.39496	0.03310
2574.10919	0.03304
2572.82342	0.03319
2571.53765	0.03322
2570.25188	0.03311
2568.96612	0.03307
2567.68035	0.03320
2566.39458	0.03340
2565.10881	0.03352
2563.82304	0.03350
2562.53727	0.03339
2561.25150	0.03326
2559.96573	0.03320
2558.67997	0.03330
2557.39420	0.03355
2556.10843	0.03378
2554.82266	0.03389
2553.53689	0.03394
2552.25112	0.03405
2550.96535	0.03414
2549.67958	0.03408
2548.39381	0.03392
2547.10805	0.03380
2545.82228	0.03374
2544.53651	0.03362
2543.25074	0.03346
2541.96497	0.03336
2540.67920	0.03329
2539.39343	0.03309
2538.10766	0.03274
2536.82190	0.03238
2535.53613	0.03215
2534.25036	0.03202
2532.96459	0.03191
2531.67882	0.03180
2530.39305	0.03169
2529.10728	0.03162
2527.82151	0.03164
2526.53574	0.03167
2525.24998	0.03159
2523.96421	0.03141
2522.67844	0.03124
2521.39267	0.03125
2520.10690	0.03147
2518.82113	0.03180
2517.53536	0.03208
2516.24959	0.03223
2514.96383	0.03221
2513.67806	0.03204
2512.39229	0.03169
2511.10652	0.03125
2509.82075	0.03093
2508.53498	0.03084
2507.24921	0.03083
2505.96344	0.03065
2504.67767	0.03038
2503.39191	0.03030
2502.10614	0.03046
2500.82037	0.03062
2499.53460	0.03057
2498.24883	0.03049
2496.96306	0.03066
2495.67729	0.03111
2494.39152	0.03156
2493.10576	0.03174
2491.81999	0.03158
2490.53422	0.03126
2489.24845	0.03094
2487.96268	0.03066
2486.67691	0.03045
2485.39114	0.03035
2484.10537	0.03032
2482.81960	0.03030
2481.53384	0.03024
2480.24807	0.03018
2478.96230	0.03008
2477.67653	0.02986
2476.39076	0.02959
2475.10499	0.02955
2473.81922	0.02989
2472.53345	0.03045
2471.24769	0.03080
2469.96192	0.03067
2468.67615	0.03022
2467.39038	0.02983
2466.10461	0.02972
2464.81884	0.02976
2463.53307	0.02979
2462.24730	0.02979
2460.96153	0.02988
2459.67577	0.03007
2458.39000	0.03027
2457.10423	0.03037
2455.81846	0.03037
2454.53269	0.03032
2453.24692	0.03025
2451.96115	0.03013
2450.67538	0.02996
2449.38962	0.02982
2448.10385	0.02974
2446.81808	0.02967
2445.53231	0.02948
2444.24654	0.02917
2442.96077	0.02892
2441.67500	0.02883
2440.38923	0.02888
2439.10346	0.02895
2437.81770	0.02900
2436.53193	0.02905
2435.24616	0.02912
2433.96039	0.02916
2432.67462	0.02914
2431.38885	0.02910
2430.10308	0.02915
2428.81731	0.02930
2427.53155	0.02943
2426.24578	0.02937
2424.96001	0.02912
2423.67424	0.02884
2422.38847	0.02873
2421.10270	0.02884
2419.81693	0.02902
2418.53116	0.02913
2417.24539	0.02917
2415.95963	0.02919
2414.67386	0.02916
2413.38809	0.02897
2412.10232	0.02869
2410.81655	0.02855
2409.53078	0.02869
2408.24501	0.02901
2406.95924	0.02925
2405.67347	0.02924
2404.38771	0.02901
2403.10194	0.02864
2401.81617	0.02825
2400.53040	0.02776
2399.24463	0.02424
2397.95886	0.02204
2396.67309	0.02226
2395.38732	0.02380
2394.10156	0.02580
2392.81579	0.02785
2391.53002	0.02973
2390.24425	0.03135
2388.95848	0.03273
2387.67271	0.03399
2386.38694	0.03524
2385.10117	0.03645
2383.81540	0.03736
2382.52964	0.03766
2381.24387	0.03716
2379.95810	0.03623
2378.67233	0.03528
2377.38656	0.03462
2376.10079	0.03491
2374.81502	0.03598
2373.52925	0.03699
2372.24349	0.03762
2370.95772	0.03766
2369.67195	0.03852
2368.38618	0.04040
2367.10041	0.04212
2365.81464	0.04390
2364.52887	0.04704
2363.24310	0.05035
2361.95733	0.05184
2360.67157	0.05183
2359.38580	0.05241
2358.10003	0.05341
2356.81426	0.05462
2355.52849	0.05646
2354.24272	0.05796
2352.95695	0.05897
2351.67118	0.05848
2350.38542	0.05536
2349.09965	0.05311
2347.81388	0.05472
2346.52811	0.05651
2345.24234	0.05497
2343.95657	0.05201
2342.67080	0.05089
2341.38503	0.05106
2340.09926	0.05102
2338.81350	0.05090
2337.52773	0.05076
2336.24196	0.05163
2334.95619	0.05252
2333.67042	0.05221
2332.38465	0.05200
2331.09888	0.05217
2329.81311	0.05262
2328.52735	0.05393
2327.24158	0.05431
2325.95581	0.05269
2324.67004	0.04989
2323.38427	0.04604
2322.09850	0.04208
2320.81273	0.03964
2319.52696	0.03826
2318.24119	0.03728
2316.95543	0.03685
2315.66966	0.03669
2314.38389	0.03627
2313.09812	0.03527
2311.81235	0.03420
2310.52658	0.03359
2309.24081	0.03346
2307.95504	0.03384
2306.66928	0.03454
2305.38351	0.03509
2304.09774	0.03532
2302.81197	0.03528
2301.52620	0.03509
2300.24043	0.03486
2298.95466	0.03477
2297.66889	0.03477
2296.38312	0.03466
2295.09736	0.03431
2293.81159	0.03368
2292.52582	0.03295
2291.24005	0.03232
2289.95428	0.03175
2288.66851	0.03098
2287.38274	0.02978
2286.09697	0.02822
2284.81121	0.02662
2283.52544	0.02541
2282.23967	0.02478
2280.95390	0.02459
2279.66813	0.02455
2278.38236	0.02441
2277.09659	0.02417
2275.81082	0.02387
2274.52505	0.02360
2273.23929	0.02347
2271.95352	0.02351
2270.66775	0.02371
2269.38198	0.02404
2268.09621	0.02440
2266.81044	0.02458
2265.52467	0.02449
2264.23890	0.02422
2262.95314	0.02400
2261.66737	0.02403
2260.38160	0.02421
2259.09583	0.02420
2257.81006	0.02387
2256.52429	0.02344
2255.23852	0.02326
2253.95275	0.02348
2252.66698	0.02393
2251.38122	0.02423
2250.09545	0.02353
2248.80968	0.02168
2247.52391	0.02152
2246.23814	0.02201
2244.95237	0.02295
2243.66660	0.02393
2242.38083	0.02444
2241.09507	0.02425
2239.80930	0.02340
2238.52353	0.02215
2237.23776	0.02083
2235.95199	0.01974
2234.66622	0.01912
2233.38045	0.01900
2232.09468	0.01924
2230.80891	0.01954
2229.52315	0.01965
2228.23738	0.01951
2226.95161	0.01927
2225.66584	0.01901
2224.38007	0.01864
2223.09430	0.01797
2221.80853	0.01697
2220.52276	0.01593
2219.23700	0.01540
2217.95123	0.01572
2216.66546	0.01674
2215.37969	0.01790
2214.09392	0.01871
2212.80815	0.01902
2211.52238	0.01890
2210.23661	0.01847
2208.95084	0.01801
2207.66508	0.01789
2206.37931	0.01832
2205.09354	0.01899
2203.80777	0.01933
2202.52200	0.01915
2201.23623	0.01869
2199.95046	0.01815
2198.66469	0.01735
2197.37893	0.01612
2196.09316	0.01477
2194.80739	0.01382
2193.52162	0.01341
2192.23585	0.01329
2190.95008	0.01318
2189.66431	0.01312
2188.37854	0.01339
2187.09277	0.01405
2185.80701	0.01480
2184.52124	0.01518
2183.23547	0.01507
2181.94970	0.01471
2180.66393	0.01441
2179.37816	0.01430
2178.09239	0.01419
2176.80662	0.01369
2175.52085	0.01261
2174.23509	0.01131
2172.94932	0.01043
2171.66355	0.01025
2170.37778	0.01043
2169.09201	0.01063
2167.80624	0.01085
2166.52047	0.01120
2165.23470	0.01167
2163.94894	0.01209
2162.66317	0.01218
2161.37740	0.01159
2160.09163	0.01014
2158.80586	0.00822
2157.52009	0.00660
2156.23432	0.00566
2154.94855	0.00523
2153.66278	0.00508
2152.37702	0.00519
2151.09125	0.00560
2149.80548	0.00645
2148.51971	0.00785
2147.23394	0.00962
2145.94817	0.01120
2144.66240	0.01211
2143.37663	0.01243
2142.09087	0.01258
2140.80510	0.01279
2139.51933	0.01291
2138.23356	0.01270
2136.94779	0.01220
2135.66202	0.01170
2134.37625	0.01156
2133.09048	0.01191
2131.80471	0.01253
2130.51895	0.01315
2129.23318	0.01363
2127.94741	0.01397
2126.66164	0.01413
2125.37587	0.01402
2124.09010	0.01372
2122.80433	0.01348
2121.51856	0.01356
2120.23280	0.01397
2118.94703	0.01456
2117.66126	0.01513
2116.37549	0.01567
2115.08972	0.01620
2113.80395	0.01659
2112.51818	0.01670
2111.23241	0.01652
2109.94664	0.01616
2108.66088	0.01569
2107.37511	0.01518
2106.08934	0.01479
2104.80357	0.01461
2103.51780	0.01455
2102.23203	0.01445
2100.94626	0.01433
2099.66049	0.01401
2098.37473	0.01388
2097.08896	0.01376
2095.80319	0.01344
2094.51742	0.01312
2093.23165	0.01313
2091.94588	0.01359
2090.66011	0.01427
2089.37434	0.01481
2088.08857	0.01503
2086.80281	0.01496
2085.51704	0.01473
2084.23127	0.01446
2082.94550	0.01420
2081.65973	0.01398
2080.37396	0.01372
2079.08819	0.01334
2077.80242	0.01285
2076.51666	0.01237
2075.23089	0.01205
2073.94512	0.01187
2072.65935	0.01164
2071.37358	0.01117
2070.08781	0.01048
2068.80204	0.00976
2067.51627	0.00930
2066.23050	0.00926
2064.94474	0.00960
2063.65897	0.01010
2062.37320	0.01054
2061.08743	0.01078
2059.80166	0.01078
2058.51589	0.01045
2057.23012	0.00975
2055.94435	0.00880
2054.65859	0.00790
2053.37282	0.00739
2052.08705	0.00734
2050.80128	0.00743
2049.51551	0.00727
2048.22974	0.00680
2046.94397	0.00637
2045.65820	0.00628
2044.37243	0.00646
2043.08667	0.00667
2041.80090	0.00693
2040.51513	0.00736
2039.22936	0.00787
2037.94359	0.00809
2036.65782	0.00774
2035.37205	0.00695
2034.08628	0.00617
2032.80052	0.00565
2031.51475	0.00538
2030.22898	0.00531
2028.94321	0.00546
2027.65744	0.00583
2026.37167	0.00627
2025.08590	0.00659
2023.80013	0.00668
2022.51436	0.00642
2021.22860	0.00584
2019.94283	0.00525
2018.65706	0.00507
2017.37129	0.00548
2016.08552	0.00623
2014.79975	0.00692
2013.51398	0.00737
2012.22821	0.00746
2010.94245	0.00707
2009.65668	0.00613
2008.37091	0.00499
2007.08514	0.00431
2005.79937	0.00459
2004.51360	0.00574
2003.22783	0.00726
2001.94206	0.00857
2000.65629	0.00938
1999.37053	0.00980
1998.08476	0.01013
1996.79899	0.01045
1995.51322	0.01063
1994.22745	0.01059
1992.94168	0.01052
1991.65591	0.01063
1990.37014	0.01088
1989.08438	0.01107
1987.79861	0.01109
1986.51284	0.01101
1985.22707	0.01100
1983.94130	0.01105
1982.65553	0.01098
1981.36976	0.01046
1980.08399	0.00930
1978.79822	0.00778
1977.51246	0.00659
1976.22669	0.00640
1974.94092	0.00718
1973.65515	0.00818
1972.36938	0.00856
1971.08361	0.00816
1969.79784	0.00756
1968.51207	0.00746
1967.22631	0.00815
1965.94054	0.00939
1964.65477	0.01078
1963.36900	0.01202
1962.08323	0.01296
1960.79746	0.01341
1959.51169	0.01324
1958.22592	0.01263
1956.94015	0.01201
1955.65439	0.01176
1954.36862	0.01192
1953.08285	0.01227
1951.79708	0.01245
1950.51131	0.01221
1949.22554	0.01163
1947.93977	0.01110
1946.65400	0.01105
1945.36823	0.01157
1944.08247	0.01244
1942.79670	0.01328
1941.51093	0.01387
1940.22516	0.01418
1938.93939	0.01439
1937.65362	0.01463
1936.36785	0.01486
1935.08208	0.01496
1933.79632	0.01495
1932.51055	0.01493
1931.22478	0.01493
1929.93901	0.01491
1928.65324	0.01485
1927.36747	0.01475
1926.08170	0.01459
1924.79593	0.01435
1923.51016	0.01411
1922.22440	0.01401
1920.93863	0.01405
1919.65286	0.01409
1918.36709	0.01408
1917.08132	0.01412
1915.79555	0.01430
1914.50978	0.01458
1913.22401	0.01480
1911.93825	0.01482
1910.65248	0.01460
1909.36671	0.01426
1908.08094	0.01399
1906.79517	0.01387
1905.50940	0.01384
1904.22363	0.01386
1902.93786	0.01396
1901.65209	0.01421
1900.36633	0.01464
1899.08056	0.01516
1897.79479	0.01557
1896.50902	0.01571
1895.22325	0.01558
1893.93748	0.01536
1892.65171	0.01516
1891.36594	0.01502
1890.08018	0.01492
1888.79441	0.01490
1887.50864	0.01502
1886.22287	0.01524
1884.93710	0.01544
1883.65133	0.01547
1882.36556	0.01529
1881.07979	0.01498
1879.79402	0.01470
1878.50826	0.01457
1877.22249	0.01464
1875.93672	0.01486
1874.65095	0.01506
1873.36518	0.01511
1872.07941	0.01494
1870.79364	0.01464
1869.50787	0.01444
1868.22211	0.01450
1866.93634	0.01482
1865.65057	0.01525
1864.36480	0.01567
1863.07903	0.01595
1861.79326	0.01599
1860.50749	0.01586
1859.22172	0.01572
1857.93595	0.01572
1856.65019	0.01579
1855.36442	0.01576
1854.07865	0.01560
1852.79288	0.01539
1851.50711	0.01527
1850.22134	0.01532
1848.93557	0.01553
1847.64980	0.01582
1846.36404	0.01596
1845.07827	0.01590
1843.79250	0.01582
1842.50673	0.01588
1841.22096	0.01600
1839.93519	0.01607
1838.64942	0.01611
1837.36365	0.01618
1836.07788	0.01629
1834.79212	0.01640
1833.50635	0.01645
1832.22058	0.01639
1830.93481	0.01629
1829.64904	0.01627
1828.36327	0.01631
1827.07750	0.01627
1825.79173	0.01617
1824.50597	0.01617
1823.22020	0.01633
1821.93443	0.01648
1820.64866	0.01643
1819.36289	0.01624
1818.07712	0.01612
1816.79135	0.01620
1815.50558	0.01646
1814.21981	0.01672
1812.93405	0.01687
1811.64828	0.01697
1810.36251	0.01710
1809.07674	0.01723
1807.79097	0.01727
1806.50520	0.01722
1805.21943	0.01713
1803.93366	0.01713
1802.64790	0.01724
1801.36213	0.01741
1800.07636	0.01752
1798.79059	0.01746
1797.50482	0.01727
1796.21905	0.01707
1794.93328	0.01695
1793.64751	0.01691
1792.36174	0.01697
1791.07598	0.01715
1789.79021	0.01731
1788.50444	0.01735
1787.21867	0.01726
1785.93290	0.01713
1784.64713	0.01707
1783.36136	0.01708
1782.07559	0.01710
1780.78983	0.01710
1779.50406	0.01711
1778.21829	0.01716
1776.93252	0.01729
1775.64675	0.01745
1774.36098	0.01755
1773.07521	0.01763
1771.78944	0.01780
1770.50367	0.01799
1769.21791	0.01805
1767.93214	0.01807
1766.64637	0.01818
1765.36060	0.01834
1764.07483	0.01836
1762.78906	0.01828
1761.50329	0.01827
1760.21752	0.01835
1758.93176	0.01840
1757.64599	0.01840
1756.36022	0.01846
1755.07445	0.01858
1753.78868	0.01859
1752.50291	0.01845
1751.21714	0.01837
1749.93137	0.01846
1748.64560	0.01864
1747.35984	0.01876
1746.07407	0.01879
1744.78830	0.01880
1743.50253	0.01882
1742.21676	0.01886
1740.93099	0.01893
1739.64522	0.01912
1738.35945	0.01940
1737.07369	0.01949
1735.78792	0.01921
1734.50215	0.01892
1733.21638	0.01907
1731.93061	0.01954
1730.64484	0.01993
1729.35907	0.02011
1728.07330	0.02025
1726.78753	0.02044
1725.50177	0.02066
1724.21600	0.02088
1722.93023	0.02111
1721.64446	0.02126
1720.35869	0.02122
1719.07292	0.02106
1717.78715	0.02110
1716.50138	0.02153
1715.21561	0.02216
1713.92985	0.02270
1712.64408	0.02309
1711.35831	0.02339
1710.07254	0.02365
1708.78677	0.02388
1707.50100	0.02408
1706.21523	0.02435
1704.92946	0.02474
1703.64370	0.02509
1702.35793	0.02510
1701.07216	0.02495
1699.78639	0.02516
1698.50062	0.02568
1697.21485	0.02607
1695.92908	0.02637
1694.64331	0.02691
1693.35754	0.02757
1692.07178	0.02794
1690.78601	0.02805
1689.50024	0.02817
1688.21447	0.02829
1686.92870	0.02815
1685.64293	0.02778
1684.35716	0.02772
1683.07139	0.02827
1681.78563	0.02909
1680.49986	0.02975
1679.21409	0.03018
1677.92832	0.03040
1676.64255	0.03050
1675.35678	0.03067
1674.07101	0.03106
1672.78524	0.03150
1671.49947	0.03174
1670.21371	0.03186
1668.92794	0.03212
1667.64217	0.03257
1666.35640	0.03300
1665.07063	0.03324
1663.78486	0.03337
1662.49909	0.03357
1661.21332	0.03391
1659.92756	0.03427
1658.64179	0.03458
1657.35602	0.03476
1656.07025	0.03460
1654.78448	0.03403
1653.49871	0.03362
1652.21294	0.03401
1650.92717	0.03492
1649.64140	0.03550
1648.35564	0.03546
1647.06987	0.03524
1645.78410	0.03532
1644.49833	0.03569
1643.21256	0.03604
1641.92679	0.03622
1640.64102	0.03629
1639.35525	0.03629
1638.06949	0.03612
1636.78372	0.03586
1635.49795	0.03583
1634.21218	0.03617
1632.92641	0.03667
1631.64064	0.03700
1630.35487	0.03712
1629.06910	0.03715
1627.78333	0.03718
1626.49757	0.03721
1625.21180	0.03719
1623.92603	0.03717
1622.64026	0.03729
1621.35449	0.03752
1620.06872	0.03762
1618.78295	0.03745
1617.49718	0.03723
1616.21142	0.03733
1614.92565	0.03778
1613.63988	0.03821
1612.35411	0.03843
1611.06834	0.03854
1609.78257	0.03866
1608.49680	0.03884
1607.21103	0.03905
1605.92526	0.03927
1604.63950	0.03949
1603.35373	0.03968
1602.06796	0.03984
1600.78219	0.03994
1599.49642	0.03998
1598.21065	0.03999
1596.92488	0.04004
1595.63911	0.04016
1594.35335	0.04033
1593.06758	0.04052
1591.78181	0.04069
1590.49604	0.04085
1589.21027	0.04099
1587.92450	0.04115
1586.63873	0.04131
1585.35296	0.04146
1584.06719	0.04156
1582.78143	0.04164
1581.49566	0.04174
1580.20989	0.04188
1578.92412	0.04196
1577.63835	0.04195
1576.35258	0.04213
1575.06681	0.04271
1573.78104	0.04342
1572.49528	0.04382
1571.20951	0.04386
1569.92374	0.04385
1568.63797	0.04402
1567.35220	0.04434
1566.06643	0.04465
1564.78066	0.04497
1563.49489	0.04529
1562.20912	0.04536
1560.92336	0.04507
1559.63759	0.04484
1558.35182	0.04514
1557.06605	0.04588
1555.78028	0.04654
1554.49451	0.04697
1553.20874	0.04738
1551.92297	0.04783
1550.63721	0.04825
1549.35144	0.04861
1548.06567	0.04892
1546.77990	0.04914
1545.49413	0.04925
1544.20836	0.04931
1542.92259	0.04926
1541.63682	0.04905
1540.35105	0.04892
1539.06529	0.04918
1537.77952	0.04975
1536.49375	0.05021
1535.20798	0.05032
1533.92221	0.05037
1532.63644	0.05071
1531.35067	0.05131
1530.06490	0.05192
1528.77914	0.05243
1527.49337	0.05296
1526.20760	0.05360
1524.92183	0.05435
1523.63606	0.05507
1522.35029	0.05577
1521.06452	0.05668
1519.77875	0.05788
1518.49298	0.05912
1517.20722	0.06029
1515.92145	0.06158
1514.63568	0.06307
1513.34991	0.06467
1512.06414	0.06633
1510.77837	0.06795
1509.49260	0.06940
1508.20683	0.07064
1506.92107	0.07198
1505.63530	0.07372
1504.34953	0.07566
1503.06376	0.07736
1501.77799	0.07863
1500.49222	0.07967
1499.20645	0.08064
1497.92068	0.08160
1496.63491	0.08260
1495.34915	0.08370
1494.06338	0.08482
1492.77761	0.08579
1491.49184	0.08663
1490.20607	0.08754
1488.92030	0.08863
1487.63453	0.08991
1486.34876	0.09134
1485.06299	0.09290
1483.77723	0.09447
1482.49146	0.09602
1481.20569	0.09757
1479.91992	0.09914
1478.63415	0.10069
1477.34838	0.10216
1476.06261	0.10351
1474.77684	0.10472
1473.49108	0.10583
1472.20531	0.10699
1470.91954	0.10821
1469.63377	0.10930
1468.34800	0.11010
1467.06223	0.11060
1465.77646	0.11096
1464.49069	0.11139
1463.20492	0.11196
1461.91916	0.11253
1460.63339	0.11293
1459.34762	0.11307
1458.06185	0.11315
1456.77608	0.11353
1455.49031	0.11429
1454.20454	0.11508
1452.91877	0.11559
1451.63301	0.11586
1450.34724	0.11606
1449.06147	0.11618
1447.77570	0.11618
1446.48993	0.11604
1445.20416	0.11577
1443.91839	0.11538
1442.63262	0.11491
1441.34685	0.11438
1440.06109	0.11375
1438.77532	0.11300
1437.48955	0.11238
1436.20378	0.11220
1434.91801	0.11253
1433.63224	0.11310
1432.34647	0.11379
1431.06070	0.11471
1429.77494	0.11599
1428.48917	0.11758
1427.20340	0.11932
1425.91763	0.12107
1424.63186	0.12285
1423.34609	0.12465
1422.06032	0.12638
1420.77455	0.12795
1419.48878	0.12943
1418.20302	0.13090
1416.91725	0.13215
1415.63148	0.13298
1414.34571	0.13340
1413.05994	0.13354
1411.77417	0.13345
1410.48840	0.13308
1409.20263	0.13237
1407.91687	0.13127
1406.63110	0.12979
1405.34533	0.12801
1404.05956	0.12606
1402.77379	0.12396
1401.48802	0.12163
1400.20225	0.11906
1398.91648	0.11636
1397.63071	0.11363
1396.34495	0.11087
1395.05918	0.10810
1393.77341	0.10539
1392.48764	0.10276
1391.20187	0.10014
1389.91610	0.09750
1388.63033	0.09489
1387.34456	0.09242
1386.05880	0.09016
1384.77303	0.08800
1383.48726	0.08582
1382.20149	0.08357
1380.91572	0.08130
1379.62995	0.07904
1378.34418	0.07678
1377.05841	0.07446
1375.77264	0.07201
1374.48688	0.06945
1373.20111	0.06687
1371.91534	0.06436
1370.62957	0.06198
1369.34380	0.05976
1368.05803	0.05774
1366.77226	0.05589
1365.48649	0.05409
1364.20073	0.05231
1362.91496	0.05059
1361.62919	0.04900
1360.34342	0.04757
1359.05765	0.04626
1357.77188	0.04506
1356.48611	0.04394
1355.20034	0.04291
1353.91457	0.04198
1352.62881	0.04115
1351.34304	0.04037
1350.05727	0.03960
1348.77150	0.03882
1347.48573	0.03806
1346.19996	0.03737
1344.91419	0.03675
1343.62842	0.03616
1342.34266	0.03557
1341.05689	0.03495
1339.77112	0.03436
1338.48535	0.03385
1337.19958	0.03343
1335.91381	0.03304
1334.62804	0.03265
1333.34227	0.03224
1332.05650	0.03185
1330.77074	0.03152
1329.48497	0.03124
1328.19920	0.03098
1326.91343	0.03072
1325.62766	0.03047
1324.34189	0.03024
1323.05612	0.03000
1321.77035	0.02974
1320.48459	0.02945
1319.19882	0.02916
1317.91305	0.02888
1316.62728	0.02861
1315.34151	0.02835
1314.05574	0.02810
1312.76997	0.02791
1311.48420	0.02776
1310.19843	0.02762
1308.91267	0.02746
1307.62690	0.02725
1306.34113	0.02700
1305.05536	0.02674
1303.76959	0.02652
1302.48382	0.02638
1301.19805	0.02631
1299.91228	0.02627
1298.62652	0.02621
1297.34075	0.02609
1296.05498	0.02590
1294.76921	0.02565
1293.48344	0.02536
1292.19767	0.02509
1290.91190	0.02487
1289.62613	0.02472
1288.34036	0.02462
1287.05460	0.02452
1285.76883	0.02440
1284.48306	0.02427
1283.19729	0.02412
1281.91152	0.02394
1280.62575	0.02376
1279.33998	0.02360
1278.05421	0.02351
1276.76845	0.02345
1275.48268	0.02340
1274.19691	0.02330
1272.91114	0.02316
1271.62537	0.02298
1270.33960	0.02282
1269.05383	0.02270
1267.76806	0.02260
1266.48229	0.02250
1265.19653	0.02238
1263.91076	0.02223
1262.62499	0.02207
1261.33922	0.02193
1260.05345	0.02183
1258.76768	0.02176
1257.48191	0.02169
1256.19614	0.02160
1254.91037	0.02149
1253.62461	0.02139
1252.33884	0.02132
1251.05307	0.02126
1249.76730	0.02120
1248.48153	0.02116
1247.19576	0.02115
1245.90999	0.02115
1244.62422	0.02111
1243.33846	0.02098
1242.05269	0.02079
1240.76692	0.02061
1239.48115	0.02053
1238.19538	0.02052
1236.90961	0.02054
1235.62384	0.02051
1234.33807	0.02043
1233.05230	0.02033
1231.76654	0.02022
1230.48077	0.02011
1229.19500	0.02002
1227.90923	0.01997
1226.62346	0.01996
1225.33769	0.01995
1224.05192	0.01993
1222.76615	0.01990
1221.48039	0.01985
1220.19462	0.01981
1218.90885	0.01978
1217.62308	0.01977
1216.33731	0.01977
1215.05154	0.01978
1213.76577	0.01978
1212.48000	0.01979
1211.19423	0.01979
1209.90847	0.01977
1208.62270	0.01973
1207.33693	0.01967
1206.05116	0.01962
1204.76539	0.01959
1203.47962	0.01960
1202.19385	0.01965
1200.90808	0.01974
1199.62232	0.01983
1198.33655	0.01984
1197.05078	0.01985
1195.76501	0.01990
1194.47924	0.01999
1193.19347	0.02003
1191.90770	0.01998
1190.62193	0.01987
1189.33616	0.01980
1188.05040	0.01981
1186.76463	0.01988
1185.47886	0.01995
1184.19309	0.02004
1182.90732	0.02016
1181.62155	0.02030
1180.33578	0.02045
1179.05001	0.02060
1177.76425	0.02077
1176.47848	0.02094
1175.19271	0.02108
1173.90694	0.02121
1172.62117	0.02140
1171.33540	0.02165
1170.04963	0.02195
1168.76386	0.02220
1167.47809	0.02236
1166.19233	0.02245
1164.90656	0.02257
1163.62079	0.02281
1162.33502	0.02317
1161.04925	0.02359
1159.76348	0.02399
1158.47771	0.02433
1157.19194	0.02465
1155.90618	0.02500
1154.62041	0.02544
1153.33464	0.02601
1152.04887	0.02667
1150.76310	0.02736
1149.47733	0.02805
1148.19156	0.02878
1146.90579	0.02959
1145.62002	0.03049
1144.33426	0.03149
1143.04849	0.03257
1141.76272	0.03372
1140.47695	0.03495
1139.19118	0.03632
1137.90541	0.03789
1136.61964	0.03965
1135.33387	0.04154
1134.04811	0.04352
1132.76234	0.04562
1131.47657	0.04793
1130.19080	0.05054
1128.90503	0.05346
1127.61926	0.05666
1126.33349	0.06011
1125.04772	0.06383
1123.76195	0.06778
1122.47619	0.07189
1121.19042	0.07611
1119.90465	0.08043
1118.61888	0.08483
1117.33311	0.08926
1116.04734	0.09367
1114.76157	0.09804
1113.47580	0.10238
1112.19004	0.10671
1110.90427	0.11101
1109.61850	0.11523
1108.33273	0.11935
1107.04696	0.12339
1105.76119	0.12741
1104.47542	0.13138
1103.18965	0.13524
1101.90388	0.13893
1100.61812	0.14251
1099.33235	0.14602
1098.04658	0.14948
1096.76081	0.15285
1095.47504	0.15608
1094.18927	0.15912
1092.90350	0.16198
1091.61773	0.16467
1090.33197	0.16724
1089.04620	0.16978
1087.76043	0.17236
1086.47466	0.17500
1085.18889	0.17770
1083.90312	0.18044
1082.61735	0.18320
1081.33158	0.18601
1080.04581	0.18894
1078.76005	0.19208
1077.47428	0.19548
1076.18851	0.19911
1074.90274	0.20289
1073.61697	0.20681
1072.33120	0.21086
1071.04543	0.21500
1069.75966	0.21919
1068.47390	0.22350
1067.18813	0.22804
1065.90236	0.23283
1064.61659	0.23779
1063.33082	0.24278
1062.04505	0.24769
1060.75928	0.25249
1059.47351	0.25717
1058.18774	0.26175
1056.90198	0.26627
1055.61621	0.27080
1054.33044	0.27540
1053.04467	0.28012
1051.75890	0.28494
1050.47313	0.28985
1049.18736	0.29485
1047.90159	0.29996
1046.61583	0.30524
1045.33006	0.31070
1044.04429	0.31635
1042.75852	0.32217
1041.47275	0.32812
1040.18698	0.33415
1038.90121	0.34026
1037.61544	0.34642
1036.32967	0.35260
1035.04391	0.35874
1033.75814	0.36481
1032.47237	0.37073
1031.18660	0.37639
1029.90083	0.38165
1028.61506	0.38636
1027.32929	0.39049
1026.04352	0.39410
1024.75775	0.39725
1023.47199	0.39990
1022.18622	0.40194
1020.90045	0.40330
1019.61468	0.40396
1018.32891	0.40394
1017.04314	0.40314
1015.75737	0.40148
1014.47160	0.39890
1013.18584	0.39542
1011.90007	0.39104
1010.61430	0.38572
1009.32853	0.37947
1008.04276	0.37237
1006.75699	0.36450
1005.47122	0.35588
1004.18545	0.34647
1002.89968	0.33628
1001.61392	0.32544
1000.32815	0.31416
999.04238	0.30258
997.75661	0.29079
996.47084	0.27885
995.18507	0.26684
993.89930	0.25482
992.61353	0.24291
991.32777	0.23124
990.04200	0.21996
988.75623	0.20918
987.47046	0.19901
986.18469	0.18951
984.89892	0.18065
983.61315	0.17237
982.32738	0.16460
981.04161	0.15734
979.75585	0.15058
978.47008	0.14438
977.18431	0.13882
975.89854	0.13400
974.61277	0.12996
973.32700	0.12669
972.04123	0.12418
970.75546	0.12245
969.46970	0.12157
968.18393	0.12151
966.89816	0.12217
965.61239	0.12337
964.32662	0.12490
963.04085	0.12646
961.75508	0.12765
960.46931	0.12812
959.18354	0.12761
957.89778	0.12607
956.61201	0.12354
955.32624	0.12023
954.04047	0.11646
952.75470	0.11256
951.46893	0.10874
950.18316	0.10502
948.89739	0.10138
947.61163	0.09783
946.32586	0.09444
945.04009	0.09120
943.75432	0.08811
942.46855	0.08514
941.18278	0.08236
939.89701	0.07981
938.61124	0.07752
937.32547	0.07545
936.03971	0.07357
934.75394	0.07184
933.46817	0.07020
932.18240	0.06856
930.89663	0.06694
929.61086	0.06542
928.32509	0.06411
927.03932	0.06306
925.75356	0.06223
924.46779	0.06152
923.18202	0.06081
921.89625	0.06000
920.61048	0.05910
919.32471	0.05819
918.03894	0.05730
916.75317	0.05647
915.46740	0.05574
914.18164	0.05514
912.89587	0.05464
911.61010	0.05420
910.32433	0.05381
909.03856	0.05348
907.75279	0.05319
906.46702	0.05287
905.18125	0.05244
903.89549	0.05189
902.60972	0.05128
901.32395	0.05069
900.03818	0.05019
898.75241	0.04981
897.46664	0.04956
896.18087	0.04947
894.89510	0.04953
893.60933	0.04974
892.32357	0.05007
891.03780	0.05056
889.75203	0.05126
888.46626	0.05229
887.18049	0.05378
885.89472	0.05590
884.60895	0.05880
883.32318	0.06252
882.03742	0.06681
880.75165	0.07103
879.46588	0.07449
878.18011	0.07687
876.89434	0.07852
875.60857	0.08002
874.32280	0.08160
873.03703	0.08289
871.75126	0.08326
870.46550	0.08234
869.17973	0.08026
867.89396	0.07738
866.60819	0.07402
865.32242	0.07043
864.03665	0.06689
862.75088	0.06369
861.46511	0.06096
860.17935	0.05863
858.89358	0.05664
857.60781	0.05497
856.32204	0.05362
855.03627	0.05251
853.75050	0.05154
852.46473	0.05065
851.17896	0.04983
849.89319	0.04909
848.60743	0.04844
847.32166	0.04788
846.03589	0.04740
844.75012	0.04697
843.46435	0.04660
842.17858	0.04628
840.89281	0.04598
839.60704	0.04565
838.32128	0.04529
837.03551	0.04493
835.74974	0.04464
834.46397	0.04439
833.17820	0.04415
831.89243	0.04388
830.60666	0.04359
829.32089	0.04331
828.03512	0.04307
826.74936	0.04290
825.46359	0.04280
824.17782	0.04275
822.89205	0.04271
821.60628	0.04270
820.32051	0.04271
819.03474	0.04275
817.74897	0.04277
816.46321	0.04273
815.17744	0.04265
813.89167	0.04254
812.60590	0.04243
811.32013	0.04235
810.03436	0.04227
808.74859	0.04212
807.46282	0.04190
806.17705	0.04166
804.89129	0.04148
803.60552	0.04141
802.31975	0.04145
801.03398	0.04157
799.74821	0.04167
798.46244	0.04170
797.17667	0.04160
795.89090	0.04138
794.60513	0.04110
793.31937	0.04084
792.03360	0.04068
790.74783	0.04066
789.46206	0.04077
788.17629	0.04092
786.89052	0.04102
785.60475	0.04104
784.31898	0.04098
783.03322	0.04090
781.74745	0.04082
780.46168	0.04075
779.17591	0.04067
777.89014	0.04055
776.60437	0.04043
775.31860	0.04036
774.03283	0.04036
772.74706	0.04039
771.46130	0.04039
770.17553	0.04033
768.88976	0.04027
767.60399	0.04032
766.31822	0.04048
765.03245	0.04063
763.74668	0.04066
762.46091	0.04058
761.17515	0.04045
759.88938	0.04036
758.60361	0.04037
757.31784	0.04050
756.03207	0.04072
754.74630	0.04098
753.46053	0.04117
752.17476	0.04124
750.88899	0.04113
749.60323	0.04087
748.31746	0.04061
747.03169	0.04048
745.74592	0.04049
744.46015	0.04055
743.17438	0.04055
741.88861	0.04044
740.60284	0.04022
739.31708	0.03995
738.03131	0.03979
736.74554	0.03983
735.45977	0.04006
734.17400	0.04039
732.88823	0.04068
731.60246	0.04088
730.31669	0.04095
729.03092	0.04090
727.74516	0.04078
726.45939	0.04064
725.17362	0.04057
723.88785	0.04098
722.60208	0.04043
721.31631	0.03934
720.03054	0.03838
718.74477	0.03774
717.45901	0.03760
716.17324	0.03776
714.88747	0.03806
713.60170	0.03846
712.31593	0.03887
711.03016	0.03919
709.74439	0.03940
708.45862	0.03952
707.17285	0.03961
705.88709	0.03969
704.60132	0.03973
703.31555	0.03974
702.02978	0.03970
700.74401	0.03960
699.45824	0.03940
698.17247	0.03907
696.88670	0.03864
695.60094	0.03819
694.31517	0.03782
693.02940	0.03758
691.74363	0.03746
690.45786	0.03740
689.17209	0.03736
687.88632	0.03735
686.60055	0.03738
685.31478	0.03744
684.02902	0.03748
682.74325	0.03749
681.45748	0.03750
680.17171	0.03758
678.88594	0.03778
677.60017	0.03811
676.31440	0.03853
675.02863	0.03875
673.74287	0.03809
672.45710	0.03574
671.17133	0.03244
669.88556	0.03175
668.59979	0.03526
667.31402	0.03654
666.02825	0.03494
664.74248	0.03586
663.45671	0.03807
662.17095	0.03917
660.88518	0.03908
659.59941	0.03858
658.31364	0.03814
657.02787	0.03788
655.74210	0.03775
654.45633	0.03766
653.17056	0.03760
651.88480	0.03754
650.59903	0.03755
649.31326	0.03768
648.02749	0.03788
646.74172	0.03813
645.45595	0.03841
644.17018	0.03867
642.88441	0.03895
641.59864	0.03930
640.31288	0.03975
639.02711	0.04031
637.74134	0.04093
636.45557	0.04156
635.16980	0.04218
633.88403	0.04283
632.59826	0.04359
631.31249	0.04440
630.02673	0.04512
628.74096	0.04585
627.45519	0.04693
626.16942	0.04735
624.88365	0.04770
623.59788	0.04876
622.31211	0.05074
621.02634	0.05349
619.74057	0.05692
618.45481	0.06120
617.16904	0.06636
615.88327	0.07205
614.59750	0.07768
613.31173	0.08272
612.02596	0.08712
610.74019	0.09176
609.45442	0.09810
608.16866	0.10669
606.88289	0.11641
605.59712	0.12504
604.31135	0.13064
603.02558	0.13265
601.73981	0.13202
600.45404	0.13012
599.16827	0.12768
597.88250	0.12478
596.59674	0.12142
595.31097	0.11783
594.02520	0.11441
592.73943	0.11153
591.45366	0.10942
590.16789	0.10814
588.88212	0.10764
587.59635	0.10787
586.31059	0.10879
585.02482	0.11044
583.73905	0.11281
582.45328	0.11587
581.16751	0.11944
579.88174	0.12338
578.59597	0.12755
577.31020	0.13182
576.02443	0.13607
574.73867	0.14011
573.45290	0.14382
572.16713	0.14722
570.88136	0.15071
569.59559	0.15484
568.30982	0.15998
567.02405	0.16597
565.73828	0.17221
564.45251	0.17795
563.16675	0.18242
561.88098	0.18492
560.59521	0.18486
559.30944	0.18201
558.02367	0.17653
556.73790	0.16896
555.45213	0.16000
554.16636	0.15038
552.88060	0.14074
551.59483	0.13150
550.30906	0.12286
549.02329	0.11488
547.73752	0.10765
546.45175	0.10128
545.16598	0.09574
543.88021	0.09088
542.59444	0.08649
541.30868	0.08248
540.02291	0.07887
538.73714	0.07568
537.45137	0.07285
536.16560	0.07028
534.87983	0.06788
533.59406	0.06561
532.30829	0.06340
531.02253	0.06126
529.73676	0.05923
528.45099	0.05737
527.16522	0.05571
525.87945	0.05420
524.59368	0.05281
523.30791	0.05156
522.02214	0.05048
520.73637	0.04953
519.45061	0.04861
518.16484	0.04764
516.87907	0.04665
515.59330	0.04571
514.30753	0.04485
513.02176	0.04401
511.73599	0.04315
510.45022	0.04229
509.16446	0.04154
507.87869	0.04097
506.59292	0.04053
505.30715	0.04004
504.02138	0.03940
502.73561	0.03868
501.44984	0.03803
500.16407	0.03752
498.87830	0.03711
497.59254	0.03674
496.30677	0.03640
495.02100	0.03607
493.73523	0.03575
492.44946	0.03542
491.16369	0.03513
489.87792	0.03490
488.59215	0.03481
487.30639	0.03485
486.02062	0.03496
484.73485	0.03504
483.44908	0.03506
482.16331	0.03506
480.87754	0.03510
479.59177	0.03525
478.30600	0.03552
477.02023	0.03589
475.73447	0.03633
474.44870	0.03673
473.16293	0.03706
471.87716	0.03730
470.59139	0.03744
469.30562	0.03746
468.01985	0.03733
466.73408	0.03707
465.44832	0.03671
464.16255	0.03629
462.87678	0.03585
461.59101	0.03541
460.30524	0.03497
459.01947	0.03458
457.73370	0.03427
456.44793	0.03404
455.16216	0.03380
453.87640	0.03349
452.59063	0.03314
451.30486	0.03283
450.01909	0.03263
448.73332	0.03254
447.44755	0.03253
446.16178	0.03256
444.87601	0.03261
443.59025	0.03264
442.30448	0.03264
441.01871	0.03261
439.73294	0.03255
438.44717	0.03250
437.16140	0.03247
435.87563	0.03245
434.58986	0.03243
433.30409	0.03243
432.01833	0.03246
430.73256	0.03257
429.44679	0.03270
428.16102	0.03282
426.87525	0.03285
425.58948	0.03278
424.30371	0.03263
423.01794	0.03246
421.73218	0.03231
420.44641	0.03226
419.16064	0.03235
417.87487	0.03253
416.58910	0.03267
415.30333	0.03269
414.01756	0.03267
412.73179	0.03269
411.44602	0.03276
410.16026	0.03286
408.87449	0.03296
407.58872	0.03310
406.30295	0.03326
405.01718	0.03344
403.73141	0.03363
402.44564	0.03381
401.15987	0.03396
399.87411	0.03410
