3997.45528	0.04610
3996.16951	0.04574
3994.88374	0.04598
3993.59798	0.04647
3992.31221	0.04671
3991.02644	0.04656
3989.74067	0.04612
3988.45490	0.04548
3987.16913	0.04481
3985.88336	0.04434
3984.59759	0.04426
3983.31183	0.04460
3982.02606	0.04527
3980.74029	0.04616
3979.45452	0.04709
3978.16875	0.04781
3976.88298	0.04808
3975.59721	0.04783
3974.31144	0.04715
3973.02567	0.04623
3971.73991	0.04528
3970.45414	0.04450
3969.16837	0.04408
3967.88260	0.04415
3966.59683	0.04479
3965.31106	0.04588
3964.02529	0.04703
3962.73952	0.04783
3961.45376	0.04806
3960.16799	0.04780
3958.88222	0.04730
3957.59645	0.04679
3956.31068	0.04644
3955.02491	0.04630
3953.73914	0.04628
3952.45337	0.04626
3951.16760	0.04623
3949.88184	0.04628
3948.59607	0.04646
3947.31030	0.04659
3946.02453	0.04637
3944.73876	0.04566
3943.45299	0.04473
3942.16722	0.04411
3940.88145	0.04413
3939.59569	0.04464
3938.30992	0.04523
3937.02415	0.04553
3935.73838	0.04551
3934.45261	0.04540
3933.16684	0.04543
3931.88107	0.04568
3930.59530	0.04605
3929.30953	0.04638
3928.02377	0.04653
3926.73800	0.04643
3925.45223	0.04605
3924.16646	0.04549
3922.88069	0.04490
3921.59492	0.04451
3920.30915	0.04441
3919.02338	0.04446
3917.73762	0.04444
3916.45185	0.04433
3915.16608	0.04430
3913.88031	0.04442
3912.59454	0.04450
3911.30877	0.04431
3910.02300	0.04399
3908.73723	0.04386
3907.45146	0.04417
3906.16570	0.04485
3904.87993	0.04567
3903.59416	0.04636
3902.30839	0.04672
3901.02262	0.04666
3899.73685	0.04623
3898.45108	0.04571
3897.16531	0.04560
3895.87955	0.04617
3894.59378	0.04708
3893.30801	0.04758
3892.02224	0.04727
3890.73647	0.04645
3889.45070	0.04574
3888.16493	0.04531
3886.87916	0.04493
3885.59339	0.04444
3884.30763	0.04405
3883.02186	0.04401
3881.73609	0.04425
3880.45032	0.04442
3879.16455	0.04436
3877.87878	0.04423
3876.59301	0.04426
3875.30724	0.04447
3874.02148	0.04465
3872.73571	0.04462
3871.44994	0.04440
3870.16417	0.04418
3868.87840	0.04419
3867.59263	0.04446
3866.30686	0.04472
3865.02109	0.04476
3863.73532	0.04457
3862.44956	0.04426
3861.16379	0.04383
3859.87802	0.04323
3858.59225	0.04267
3857.30648	0.04246
3856.02071	0.04263
3854.73494	0.04289
3853.44917	0.04301
3852.16341	0.04312
3850.87764	0.04345
3849.59187	0.04398
3848.30610	0.04456
3847.02033	0.04510
3845.73456	0.04554
3844.44879	0.04575
3843.16302	0.04562
3841.87725	0.04519
3840.59149	0.04462
3839.30572	0.04405
3838.01995	0.04362
3836.73418	0.04332
3835.44841	0.04305
3834.16264	0.04276
3832.87687	0.04265
3831.59110	0.04299
3830.30534	0.04366
3829.01957	0.04418
3827.73380	0.04425
3826.44803	0.04408
3825.16226	0.04410
3823.87649	0.04430
3822.59072	0.04424
3821.30495	0.04364
3820.01918	0.04282
3818.73342	0.04237
3817.44765	0.04249
3816.16188	0.04282
3814.87611	0.04296
3813.59034	0.04281
3812.30457	0.04251
3811.01880	0.04213
3809.73303	0.04171
3808.44726	0.04141
3807.16150	0.04157
3805.87573	0.04236
3804.58996	0.04343
3803.30419	0.04404
3802.01842	0.04383
3800.73265	0.04320
3799.44688	0.04282
3798.16111	0.04299
3796.87535	0.04348
3795.58958	0.04400
3794.30381	0.04443
3793.01804	0.04473
3791.73227	0.04483
3790.44650	0.04465
3789.16073	0.04420
3787.87496	0.04364
3786.58919	0.04311
3785.30343	0.04263
3784.01766	0.04210
3782.73189	0.04147
3781.44612	0.04085
3780.16035	0.04043
3778.87458	0.04038
3777.58881	0.04066
3776.30304	0.04103
3775.01728	0.04123
3773.73151	0.04110
3772.44574	0.04069
3771.15997	0.04022
3769.87420	0.03998
3768.58843	0.04018
3767.30266	0.04077
3766.01689	0.04155
3764.73112	0.04230
3763.44536	0.04291
3762.15959	0.04324
3760.87382	0.04313
3759.58805	0.04259
3758.30228	0.04201
3757.01651	0.04190
3755.73074	0.04236
3754.44497	0.04294
3753.15921	0.04306
3751.87344	0.04269
3750.58767	0.04241
3749.30190	0.04275
3748.01613	0.04346
3746.73036	0.04372
3745.44459	0.04303
3744.15882	0.04174
3742.87305	0.04074
3741.58729	0.04060
3740.30152	0.04110
3739.01575	0.04162
3737.72998	0.04180
3736.44421	0.04172
3735.15844	0.04169
3733.87267	0.04182
3732.58690	0.04195
3731.30114	0.04183
3730.01537	0.04138
3728.72960	0.04078
3727.44383	0.04028
3726.15806	0.04000
3724.87229	0.03986
3723.58652	0.03968
3722.30075	0.03941
3721.01498	0.03920
3719.72922	0.03932
3718.44345	0.03990
3717.15768	0.04068
3715.87191	0.04111
3714.58614	0.04081
3713.30037	0.03995
3712.01460	0.03919
3710.72883	0.03909
3709.44307	0.03966
3708.15730	0.04041
3706.87153	0.04083
3705.58576	0.04071
3704.29999	0.04017
3703.01422	0.03950
3701.72845	0.03895
3700.44268	0.03863
3699.15691	0.03844
3697.87115	0.03830
3696.58538	0.03815
3695.29961	0.03795
3694.01384	0.03769
3692.72807	0.03754
3691.44230	0.03756
3690.15653	0.03768
3688.87076	0.03782
3687.58500	0.03792
3686.29923	0.03796
3685.01346	0.03804
3683.72769	0.03824
3682.44192	0.03860
3681.15615	0.03914
3679.87038	0.03969
3678.58461	0.04004
3677.29884	0.04016
3676.01308	0.04018
3674.72731	0.04016
3673.44154	0.03999
3672.15577	0.03956
3670.87000	0.03912
3669.58423	0.03908
3668.29846	0.03945
3667.01269	0.03990
3665.72693	0.04011
3664.44116	0.04011
3663.15539	0.04013
3661.86962	0.04031
3660.58385	0.04059
3659.29808	0.04081
3658.01231	0.04091
3656.72654	0.04099
3655.44077	0.04117
3654.15501	0.04142
3652.86924	0.04159
3651.58347	0.04158
3650.29770	0.04138
3649.01193	0.04099
3647.72616	0.04044
3646.44039	0.03988
3645.15462	0.03945
3643.86886	0.03915
3642.58309	0.03892
3641.29732	0.03875
3640.01155	0.03869
3638.72578	0.03867
3637.44001	0.03857
3636.15424	0.03841
3634.86847	0.03835
3633.58270	0.03851
3632.29694	0.03880
3631.01117	0.03907
3629.72540	0.03940
3628.43963	0.03999
3627.15386	0.04086
3625.86809	0.04173
3624.58232	0.04222
3623.29655	0.04212
3622.01079	0.04154
3620.72502	0.04074
3619.43925	0.04007
3618.15348	0.03984
3616.86771	0.04013
3615.58194	0.04073
3614.29617	0.04125
3613.01040	0.04147
3611.72463	0.04145
3610.43887	0.04137
3609.15310	0.04133
3607.86733	0.04151
3606.58156	0.04208
3605.29579	0.04299
3604.01002	0.04377
3602.72425	0.04397
3601.43848	0.04364
3600.15272	0.04325
3598.86695	0.04314
3597.58118	0.04335
3596.29541	0.04366
3595.00964	0.04380
3593.72387	0.04357
3592.43810	0.04320
3591.15233	0.04318
3589.86656	0.04372
3588.58080	0.04447
3587.29503	0.04493
3586.00926	0.04493
3584.72349	0.04469
3583.43772	0.04449
3582.15195	0.04442
3580.86618	0.04444
3579.58041	0.04456
3578.29464	0.04477
3577.00888	0.04495
3575.72311	0.04496
3574.43734	0.04474
3573.15157	0.04454
3571.86580	0.04474
3570.58003	0.04545
3569.29426	0.04641
3568.00849	0.04722
3566.72273	0.04770
3565.43696	0.04789
3564.15119	0.04785
3562.86542	0.04764
3561.57965	0.04741
3560.29388	0.04734
3559.00811	0.04755
3557.72234	0.04795
3556.43657	0.04843
3555.15081	0.04892
3553.86504	0.04933
3552.57927	0.04951
3551.29350	0.04938
3550.00773	0.04904
3548.72196	0.04870
3547.43619	0.04857
3546.15042	0.04867
3544.86466	0.04888
3543.57889	0.04901
3542.29312	0.04902
3541.00735	0.04903
3539.72158	0.04926
3538.43581	0.04978
3537.15004	0.05041
3535.86427	0.05082
3534.57850	0.05087
3533.29274	0.05071
3532.00697	0.05065
3530.72120	0.05081
3529.43543	0.05101
3528.14966	0.05102
3526.86389	0.05088
3525.57812	0.05084
3524.29235	0.05105
3523.00659	0.05136
3521.72082	0.05149
3520.43505	0.05129
3519.14928	0.05087
3517.86351	0.05051
3516.57774	0.05047
3515.29197	0.05087
3514.00620	0.05163
3512.72043	0.05252
3511.43467	0.05325
3510.14890	0.05359
3508.86313	0.05350
3507.57736	0.05311
3506.29159	0.05261
3505.00582	0.05217
3503.72005	0.05184
3502.43428	0.05165
3501.14852	0.05166
3499.86275	0.05194
3498.57698	0.05241
3497.29121	0.05281
3496.00544	0.05297
3494.71967	0.05300
3493.43390	0.05324
3492.14813	0.05378
3490.86236	0.05439
3489.57660	0.05473
3488.29083	0.05477
3487.00506	0.05475
3485.71929	0.05480
3484.43352	0.05482
3483.14775	0.05470
3481.86198	0.05451
3480.57621	0.05442
3479.29045	0.05457
3478.00468	0.05491
3476.71891	0.05523
3475.43314	0.05529
3474.14737	0.05509
3472.86160	0.05484
3471.57583	0.05476
3470.29006	0.05485
3469.00429	0.05496
3467.71853	0.05498
3466.43276	0.05495
3465.14699	0.05499
3463.86122	0.05515
3462.57545	0.05541
3461.28968	0.05574
3460.00391	0.05612
3458.71814	0.05656
3457.43238	0.05698
3456.14661	0.05722
3454.86084	0.05721
3453.57507	0.05712
3452.28930	0.05716
3451.00353	0.05734
3449.71776	0.05748
3448.43199	0.05746
3447.14622	0.05734
3445.86046	0.05732
3444.57469	0.05754
3443.28892	0.05800
3442.00315	0.05847
3440.71738	0.05869
3439.43161	0.05860
3438.14584	0.05846
3436.86007	0.05862
3435.57431	0.05906
3434.28854	0.05940
3433.00277	0.05934
3431.71700	0.05898
3430.43123	0.05869
3429.14546	0.05867
3427.85969	0.05879
3426.57392	0.05886
3425.28815	0.05888
3424.00239	0.05902
3422.71662	0.05928
3421.43085	0.05946
3420.14508	0.05942
3418.85931	0.05931
3417.57354	0.05946
3416.28777	0.06001
3415.00200	0.06083
3413.71624	0.06160
3412.43047	0.06211
3411.14470	0.06230
3409.85893	0.06225
3408.57316	0.06208
3407.28739	0.06191
3406.00162	0.06176
3404.71585	0.06161
3403.43008	0.06145
3402.14432	0.06128
3400.85855	0.06105
3399.57278	0.06065
3398.28701	0.06020
3397.00124	0.06003
3395.71547	0.06021
3394.42970	0.06047
3393.14393	0.06043
3391.85817	0.06003
3390.57240	0.05953
3389.28663	0.05930
3388.00086	0.05952
3386.71509	0.06017
3385.42932	0.06100
3384.14355	0.06169
3382.85778	0.06201
3381.57201	0.06198
3380.28625	0.06175
3379.00048	0.06149
3377.71471	0.06125
3376.42894	0.06110
3375.14317	0.06113
3373.85740	0.06139
3372.57163	0.06178
3371.28586	0.06212
3370.00010	0.06228
3368.71433	0.06231
3367.42856	0.06231
3366.14279	0.06234
3364.85702	0.06233
3363.57125	0.06215
3362.28548	0.06186
3360.99971	0.06165
3359.71394	0.06164
3358.42818	0.06171
3357.14241	0.06169
3355.85664	0.06156
3354.57087	0.06150
3353.28510	0.06169
3351.99933	0.06203
3350.71356	0.06230
3349.42779	0.06230
3348.14202	0.06209
3346.85626	0.06196
3345.57049	0.06215
3344.28472	0.06264
3342.99895	0.06323
3341.71318	0.06371
3340.42741	0.06396
3339.14164	0.06399
3337.85587	0.06384
3336.57011	0.06361
3335.28434	0.06331
3333.99857	0.06298
3332.71280	0.06270
3331.42703	0.06258
3330.14126	0.06261
3328.85549	0.06270
3327.56972	0.06276
3326.28395	0.06280
3324.99819	0.06286
3323.71242	0.06295
3322.42665	0.06303
3321.14088	0.06307
3319.85511	0.06307
3318.56934	0.06302
3317.28357	0.06292
3315.99780	0.06276
3314.71204	0.06259
3313.42627	0.06244
3312.14050	0.06239
3310.85473	0.06254
3309.56896	0.06286
3308.28319	0.06320
3306.99742	0.06337
3305.71165	0.06336
3304.42588	0.06327
3303.14012	0.06314
3301.85435	0.06296
3300.56858	0.06269
3299.28281	0.06235
3297.99704	0.06201
3296.71127	0.06174
3295.42550	0.06166
3294.13973	0.06177
3292.85397	0.06196
3291.56820	0.06205
3290.28243	0.06205
3288.99666	0.06216
3287.71089	0.06255
3286.42512	0.06319
3285.13935	0.06380
3283.85358	0.06408
3282.56781	0.06382
3281.28205	0.06311
3279.99628	0.06228
3278.71051	0.06173
3277.42474	0.06164
3276.13897	0.06190
3274.85320	0.06225
3273.56743	0.06250
3272.28166	0.06252
3270.99590	0.06226
3269.71013	0.06179
3268.42436	0.06137
3267.13859	0.06132
3265.85282	0.06166
3264.56705	0.06215
3263.28128	0.06250
3261.99551	0.06263
3260.70974	0.06259
3259.42398	0.06246
3258.13821	0.06226
3256.85244	0.06208
3255.56667	0.06205
3254.28090	0.06219
3252.99513	0.06235
3251.70936	0.06238
3250.42359	0.06220
3249.13783	0.06188
3247.85206	0.06149
3246.56629	0.06110
3245.28052	0.06076
3243.99475	0.06048
3242.70898	0.06016
3241.42321	0.05980
3240.13744	0.05958
3238.85167	0.05971
3237.56591	0.06017
3236.28014	0.06060
3234.99437	0.06070
3233.70860	0.06050
3232.42283	0.06033
3231.13706	0.06043
3229.85129	0.06080
3228.56552	0.06121
3227.27976	0.06136
3225.99399	0.06107
3224.70822	0.06040
3223.42245	0.05969
3222.13668	0.05929
3220.85091	0.05934
3219.56514	0.05973
3218.27937	0.06026
3216.99360	0.06070
3215.70784	0.06090
3214.42207	0.06082
3213.13630	0.06054
3211.85053	0.06019
3210.56476	0.05995
3209.27899	0.05995
3207.99322	0.06016
3206.70745	0.06032
3205.42169	0.06025
3204.13592	0.06005
3202.85015	0.05997
3201.56438	0.06007
3200.27861	0.06022
3198.99284	0.06027
3197.70707	0.06019
3196.42130	0.05998
3195.13553	0.05960
3193.84977	0.05910
3192.56400	0.05861
3191.27823	0.05830
3189.99246	0.05816
3188.70669	0.05805
3187.42092	0.05793
3186.13515	0.05785
3184.84938	0.05794
3183.56362	0.05815
3182.27785	0.05836
3180.99208	0.05841
3179.70631	0.05826
3178.42054	0.05796
3177.13477	0.05757
3175.84900	0.05717
3174.56323	0.05688
3173.27746	0.05679
3171.99170	0.05691
3170.70593	0.05713
3169.42016	0.05733
3168.13439	0.05753
3166.84862	0.05772
3165.56285	0.05785
3164.27708	0.05777
3162.99131	0.05745
3161.70555	0.05704
3160.41978	0.05675
3159.13401	0.05668
3157.84824	0.05670
3156.56247	0.05652
3155.27670	0.05601
3153.99093	0.05531
3152.70516	0.05483
3151.41939	0.05491
3150.13363	0.05554
3148.84786	0.05627
3147.56209	0.05665
3146.27632	0.05654
3144.99055	0.05618
3143.70478	0.05583
3142.41901	0.05562
3141.13324	0.05546
3139.84748	0.05522
3138.56171	0.05494
3137.27594	0.05478
3135.99017	0.05487
3134.70440	0.05518
3133.41863	0.05550
3132.13286	0.05565
3130.84709	0.05559
3129.56132	0.05545
3128.27556	0.05535
3126.98979	0.05528
3125.70402	0.05513
3124.41825	0.05478
3123.13248	0.05425
3121.84671	0.05368
3120.56094	0.05328
3119.27517	0.05316
3117.98940	0.05335
3116.70364	0.05371
3115.41787	0.05401
3114.13210	0.05407
3112.84633	0.05396
3111.56056	0.05387
3110.27479	0.05397
3108.98902	0.05421
3107.70325	0.05438
3106.41749	0.05438
3105.13172	0.05421
3103.84595	0.05394
3102.56018	0.05367
3101.27441	0.05353
3099.98864	0.05364
3098.70287	0.05396
3097.41710	0.05425
3096.13133	0.05427
3094.84557	0.05397
3093.55980	0.05348
3092.27403	0.05301
3090.98826	0.05269
3089.70249	0.05252
3088.41672	0.05250
3087.13095	0.05257
3085.84518	0.05272
3084.55942	0.05285
3083.27365	0.05289
3081.98788	0.05290
3080.70211	0.05300
3079.41634	0.05328
3078.13057	0.05360
3076.84480	0.05377
3075.55903	0.05366
3074.27326	0.05333
3072.98750	0.05297
3071.70173	0.05276
3070.41596	0.05279
3069.13019	0.05297
3067.84442	0.05312
3066.55865	0.05311
3065.27288	0.05292
3063.98711	0.05266
3062.70135	0.05244
3061.41558	0.05231
3060.12981	0.05217
3058.84404	0.05189
3057.55827	0.05146
3056.27250	0.05110
3054.98673	0.05106
3053.70096	0.05142
3052.41519	0.05196
3051.12943	0.05244
3049.84366	0.05273
3048.55789	0.05277
3047.27212	0.05251
3045.98635	0.05195
3044.70058	0.05126
3043.41481	0.05069
3042.12904	0.05037
3040.84328	0.05028
3039.55751	0.05029
3038.27174	0.05038
3036.98597	0.05055
3035.70020	0.05074
3034.41443	0.05084
3033.12866	0.05070
3031.84289	0.05027
3030.55712	0.04967
3029.27136	0.04913
3027.98559	0.04890
3026.69982	0.04899
3025.41405	0.04918
3024.12828	0.04923
3022.84251	0.04909
3021.55674	0.04882
3020.27097	0.04852
3018.98521	0.04821
3017.69944	0.04800
3016.41367	0.04803
3015.12790	0.04838
3013.84213	0.04892
3012.55636	0.04939
3011.27059	0.04961
3009.98482	0.04958
3008.69905	0.04946
3007.41329	0.04940
3006.12752	0.04943
3004.84175	0.04946
3003.55598	0.04936
3002.27021	0.04916
3000.98444	0.04893
2999.69867	0.04871
2998.41290	0.04862
2997.12714	0.04872
2995.84137	0.04906
2994.55560	0.04952
2993.26983	0.04981
2991.98406	0.04973
2990.69829	0.04940
2989.41252	0.04915
2988.12675	0.04914
2986.84098	0.04924
2985.55522	0.04927
2984.26945	0.04923
2982.98368	0.04931
2981.69791	0.04963
2980.41214	0.05020
2979.12637	0.05084
2977.84060	0.05139
2976.55483	0.05175
2975.26907	0.05198
2973.98330	0.05215
2972.69753	0.05232
2971.41176	0.05248
2970.12599	0.05269
2968.84022	0.05303
2967.55445	0.05359
2966.26868	0.05444
2964.98291	0.05555
2963.69715	0.05678
2962.41138	0.05789
2961.12561	0.05870
2959.83984	0.05917
2958.55407	0.05937
2957.26830	0.05942
2955.98253	0.05946
2954.69676	0.05966
2953.41100	0.06007
2952.12523	0.06052
2950.83946	0.06077
2949.55369	0.06076
2948.26792	0.06070
2946.98215	0.06076
2945.69638	0.06096
2944.41061	0.06113
2943.12484	0.06122
2941.83908	0.06127
2940.55331	0.06137
2939.26754	0.06151
2937.98177	0.06171
2936.69600	0.06203
2935.41023	0.06255
2934.12446	0.06332
2932.83869	0.06434
2931.55293	0.06544
2930.26716	0.06636
2928.98139	0.06698
2927.69562	0.06736
2926.40985	0.06769
2925.12408	0.06801
2923.83831	0.06816
2922.55254	0.06803
2921.26677	0.06766
2919.98101	0.06721
2918.69524	0.06675
2917.40947	0.06627
2916.12370	0.06573
2914.83793	0.06514
2913.55216	0.06450
2912.26639	0.06386
2910.98062	0.06329
2909.69486	0.06279
2908.40909	0.06236
2907.12332	0.06194
2905.83755	0.06148
2904.55178	0.06092
2903.26601	0.06026
2901.98024	0.05961
2900.69447	0.05907
2899.40870	0.05865
2898.12294	0.05828
2896.83717	0.05790
2895.55140	0.05750
2894.26563	0.05720
2892.97986	0.05710
2891.69409	0.05714
2890.40832	0.05702
2889.12255	0.05656
2887.83678	0.05592
2886.55102	0.05542
2885.26525	0.05527
2883.97948	0.05534
2882.69371	0.05538
2881.40794	0.05523
2880.12217	0.05494
2878.83640	0.05475
2877.55063	0.05477
2876.26487	0.05493
2874.97910	0.05510
2873.69333	0.05533
2872.40756	0.05575
2871.12179	0.05627
2869.83602	0.05664
2868.55025	0.05671
2867.26448	0.05657
2865.97871	0.05644
2864.69295	0.05644
2863.40718	0.05653
2862.12141	0.05664
2860.83564	0.05673
2859.54987	0.05679
2858.26410	0.05681
2856.97833	0.05681
2855.69256	0.05680
2854.40680	0.05674
2853.12103	0.05651
2851.83526	0.05615
2850.54949	0.05581
2849.26372	0.05562
2847.97795	0.05550
2846.69218	0.05520
2845.40641	0.05457
2844.12064	0.05371
2842.83488	0.05292
2841.54911	0.05238
2840.26334	0.05202
2838.97757	0.05166
2837.69180	0.05118
2836.40603	0.05054
2835.12026	0.04982
2833.83449	0.04910
2832.54873	0.04850
2831.26296	0.04804
2829.97719	0.04772
2828.69142	0.04755
2827.40565	0.04749
2826.11988	0.04743
2824.83411	0.04717
2823.54834	0.04671
2822.26257	0.04627
2820.97681	0.04606
2819.69104	0.04607
2818.40527	0.04605
2817.11950	0.04582
2815.83373	0.04546
2814.54796	0.04517
2813.26219	0.04502
2811.97642	0.04490
2810.69066	0.04470
2809.40489	0.04445
2808.11912	0.04426
2806.83335	0.04419
2805.54758	0.04417
2804.26181	0.04410
2802.97604	0.04395
2801.69027	0.04378
2800.40450	0.04363
2799.11874	0.04347
2797.83297	0.04328
2796.54720	0.04313
2795.26143	0.04311
2793.97566	0.04319
2792.68989	0.04322
2791.40412	0.04310
2790.11835	0.04290
2788.83259	0.04276
2787.54682	0.04271
2786.26105	0.04271
2784.97528	0.04272
2783.68951	0.04276
2782.40374	0.04279
2781.11797	0.04273
2779.83220	0.04256
2778.54643	0.04234
2777.26067	0.04216
2775.97490	0.04208
2774.68913	0.04208
2773.40336	0.04213
2772.11759	0.04222
2770.83182	0.04230
2769.54605	0.04231
2768.26028	0.04219
2766.97452	0.04194
2765.68875	0.04168
2764.40298	0.04150
2763.11721	0.04138
2761.83144	0.04128
2760.54567	0.04122
2759.25990	0.04126
2757.97413	0.04141
2756.68836	0.04162
2755.40260	0.04182
2754.11683	0.04192
2752.83106	0.04186
2751.54529	0.04166
2750.25952	0.04147
2748.97375	0.04137
2747.68798	0.04131
2746.40221	0.04117
2745.11645	0.04089
2743.83068	0.04056
2742.54491	0.04032
2741.25914	0.04024
2739.97337	0.04028
2738.68760	0.04035
2737.40183	0.04038
2736.11606	0.04037
2734.83029	0.04036
2733.54453	0.04043
2732.25876	0.04056
2730.97299	0.04066
2729.68722	0.04065
2728.40145	0.04059
2727.11568	0.04051
2725.82991	0.04039
2724.54414	0.04020
2723.25838	0.03997
2721.97261	0.03984
2720.68684	0.03991
2719.40107	0.04018
2718.11530	0.04052
2716.82953	0.04073
2715.54376	0.04069
2714.25799	0.04048
2712.97222	0.04024
2711.68646	0.04004
2710.40069	0.03990
2709.11492	0.03978
2707.82915	0.03966
2706.54338	0.03955
2705.25761	0.03946
2703.97184	0.03939
2702.68607	0.03930
2701.40031	0.03921
2700.11454	0.03914
2698.82877	0.03907
2697.54300	0.03897
2696.25723	0.03883
2694.97146	0.03875
2693.68569	0.03879
2692.39992	0.03888
2691.11415	0.03893
2689.82839	0.03889
2688.54262	0.03879
2687.25685	0.03864
2685.97108	0.03848
2684.68531	0.03831
2683.39954	0.03814
2682.11377	0.03801
2680.82800	0.03796
2679.54224	0.03806
2678.25647	0.03826
2676.97070	0.03846
2675.68493	0.03857
2674.39916	0.03859
2673.11339	0.03862
2671.82762	0.03865
2670.54185	0.03862
2669.25608	0.03846
2667.97032	0.03828
2666.68455	0.03816
2665.39878	0.03812
2664.11301	0.03810
2662.82724	0.03806
2661.54147	0.03805
2660.25570	0.03810
2658.96993	0.03817
2657.68417	0.03820
2656.39840	0.03821
2655.11263	0.03827
2653.82686	0.03839
2652.54109	0.03848
2651.25532	0.03845
2649.96955	0.03832
2648.68378	0.03820
2647.39801	0.03808
2646.11225	0.03787
2644.82648	0.03747
2643.54071	0.03699
2642.25494	0.03665
2640.96917	0.03652
2639.68340	0.03650
2638.39763	0.03645
2637.11186	0.03631
2635.82609	0.03614
2634.54033	0.03600
2633.25456	0.03595
2631.96879	0.03597
2630.68302	0.03591
2629.39725	0.03565
2628.11148	0.03524
2626.82571	0.03491
2625.53994	0.03482
2624.25418	0.03490
2622.96841	0.03497
2621.68264	0.03495
2620.39687	0.03489
2619.11110	0.03481
2617.82533	0.03466
2616.53956	0.03435
2615.25379	0.03395
2613.96802	0.03357
2612.68226	0.03332
2611.39649	0.03324
2610.11072	0.03329
2608.82495	0.03337
2607.53918	0.03342
2606.25341	0.03338
2604.96764	0.03327
2603.68187	0.03313
2602.39611	0.03306
2601.11034	0.03305
2599.82457	0.03303
2598.53880	0.03289
2597.25303	0.03267
2595.96726	0.03249
2594.68149	0.03247
2593.39572	0.03257
2592.10995	0.03263
2590.82419	0.03253
2589.53842	0.03227
2588.25265	0.03196
2586.96688	0.03172
2585.68111	0.03163
2584.39534	0.03171
2583.10957	0.03188
2581.82380	0.03198
2580.53804	0.03195
2579.25227	0.03189
2577.96650	0.03186
2576.68073	0.03176
2575.39496	0.03145
2574.10919	0.03100
2572.82342	0.03065
2571.53765	0.03051
2570.25188	0.03050
2568.96612	0.03045
2567.68035	0.03028
2566.39458	0.03003
2565.10881	0.02974
2563.82304	0.02951
2562.53727	0.02946
2561.25150	0.02967
2559.96573	0.03003
2558.67997	0.03027
2557.39420	0.03016
2556.10843	0.02973
2554.82266	0.02928
2553.53689	0.02911
2552.25112	0.02930
2550.96535	0.02968
2549.67958	0.02998
2548.39381	0.03009
2547.10805	0.03017
2545.82228	0.03035
2544.53651	0.03057
2543.25074	0.03060
2541.96497	0.03034
2540.67920	0.02993
2539.39343	0.02952
2538.10766	0.02919
2536.82190	0.02897
2535.53613	0.02891
2534.25036	0.02905
2532.96459	0.02938
2531.67882	0.02977
2530.39305	0.03004
2529.10728	0.03006
2527.82151	0.02987
2526.53574	0.02965
2525.24998	0.02952
2523.96421	0.02942
2522.67844	0.02924
2521.39267	0.02900
2520.10690	0.02888
2518.82113	0.02895
2517.53536	0.02906
2516.24959	0.02901
2514.96383	0.02873
2513.67806	0.02835
2512.39229	0.02805
2511.10652	0.02796
2509.82075	0.02817
2508.53498	0.02861
2507.24921	0.02911
2505.96344	0.02949
2504.67767	0.02964
2503.39191	0.02948
2502.10614	0.02898
2500.82037	0.02830
2499.53460	0.02780
2498.24883	0.02771
2496.96306	0.02793
2495.67729	0.02817
2494.39152	0.02824
2493.10576	0.02821
2491.81999	0.02822
2490.53422	0.02831
2489.24845	0.02840
2487.96268	0.02846
2486.67691	0.02855
2485.39114	0.02864
2484.10537	0.02862
2482.81960	0.02841
2481.53384	0.02811
2480.24807	0.02789
2478.96230	0.02783
2477.67653	0.02788
2476.39076	0.02796
2475.10499	0.02803
2473.81922	0.02815
2472.53345	0.02836
2471.24769	0.02860
2469.96192	0.02868
2468.67615	0.02852
2467.39038	0.02825
2466.10461	0.02810
2464.81884	0.02815
2463.53307	0.02831
2462.24730	0.02842
2460.96153	0.02839
2459.67577	0.02818
2458.39000	0.02789
2457.10423	0.02764
2455.81846	0.02750
2454.53269	0.02742
2453.24692	0.02734
2451.96115	0.02728
2450.67538	0.02726
2449.38962	0.02727
2448.10385	0.02729
2446.81808	0.02726
2445.53231	0.02713
2444.24654	0.02690
2442.96077	0.02665
2441.67500	0.02649
2440.38923	0.02640
2439.10346	0.02634
2437.81770	0.02639
2436.53193	0.02661
2435.24616	0.02689
2433.96039	0.02706
2432.67462	0.02709
2431.38885	0.02704
2430.10308	0.02695
2428.81731	0.02685
2427.53155	0.02689
2426.24578	0.02713
2424.96001	0.02739
2423.67424	0.02743
2422.38847	0.02730
2421.10270	0.02728
2419.81693	0.02746
2418.53116	0.02757
2417.24539	0.02738
2415.95963	0.02702
2414.67386	0.02678
2413.38809	0.02673
2412.10232	0.02669
2410.81655	0.02648
2409.53078	0.02608
2408.24501	0.02564
2406.95924	0.02539
2405.67347	0.02548
2404.38771	0.02588
2403.10194	0.02640
2401.81617	0.02686
2400.53040	0.02716
2399.24463	0.02720
2397.95886	0.02699
2396.67309	0.02669
2395.38732	0.02640
2394.10156	0.02620
2392.81579	0.02617
2391.53002	0.02630
2390.24425	0.02654
2388.95848	0.02684
2387.67271	0.02713
2386.38694	0.02728
2385.10117	0.02714
2383.81540	0.02675
2382.52964	0.02634
2381.24387	0.02620
2379.95810	0.02638
2378.67233	0.02676
2377.38656	0.02710
2376.10079	0.02726
2374.81502	0.02720
2373.52925	0.02710
2372.24349	0.02703
2370.95772	0.02708
2369.67195	0.02698
2368.38618	0.02678
2367.10041	0.02671
2365.81464	0.02683
2364.52887	0.02674
2363.24310	0.02655
2361.95733	0.02660
2360.67157	0.02703
2359.38580	0.02731
2358.10003	0.02742
2356.81426	0.02740
2355.52849	0.02735
2354.24272	0.02740
2352.95695	0.02756
2351.67118	0.02811
2350.38542	0.02891
2349.09965	0.02916
2347.81388	0.02853
2346.52811	0.02789
2345.24234	0.02766
2343.95657	0.02743
2342.67080	0.02684
2341.38503	0.02675
2340.09926	0.02736
2338.81350	0.02750
2337.52773	0.02711
2336.24196	0.02732
2334.95619	0.02794
2333.67042	0.02768
2332.38465	0.02666
2331.09888	0.02670
2329.81311	0.02702
2328.52735	0.02652
2327.24158	0.02740
2325.95581	0.02913
2324.67004	0.02969
2323.38427	0.03011
2322.09850	0.03059
2320.81273	0.02985
2319.52696	0.02938
2318.24119	0.02923
2316.95543	0.02854
2315.66966	0.02824
2314.38389	0.02818
2313.09812	0.02793
2311.81235	0.02787
2310.52658	0.02756
2309.24081	0.02717
2307.95504	0.02698
2306.66928	0.02667
2305.38351	0.02640
2304.09774	0.02604
2302.81197	0.02560
2301.52620	0.02540
2300.24043	0.02544
2298.95466	0.02574
2297.66889	0.02596
2296.38312	0.02587
2295.09736	0.02550
2293.81159	0.02507
2292.52582	0.02487
2291.24005	0.02496
2289.95428	0.02531
2288.66851	0.02575
2287.38274	0.02610
2286.09697	0.02624
2284.81121	0.02622
2283.52544	0.02619
2282.23967	0.02626
2280.95390	0.02637
2279.66813	0.02633
2278.38236	0.02589
2277.09659	0.02504
2275.81082	0.02407
2274.52505	0.02333
2273.23929	0.02301
2271.95352	0.02304
2270.66775	0.02322
2269.38198	0.02329
2268.09621	0.02312
2266.81044	0.02284
2265.52467	0.02260
2264.23890	0.02234
2262.95314	0.02186
2261.66737	0.02120
2260.38160	0.02068
2259.09583	0.02058
2257.81006	0.02072
2256.52429	0.02066
2255.23852	0.02021
2253.95275	0.01965
2252.66698	0.01924
2251.38122	0.01893
2250.09545	0.01882
2248.80968	0.01926
2247.52391	0.01958
2246.23814	0.02014
2244.95237	0.02049
2243.66660	0.02032
2242.38083	0.01987
2241.09507	0.01964
2239.80930	0.01982
2238.52353	0.02014
2237.23776	0.02030
2235.95199	0.02031
2234.66622	0.02041
2233.38045	0.02064
2232.09468	0.02078
2230.80891	0.02065
2229.52315	0.02035
2228.23738	0.02002
2226.95161	0.01976
2225.66584	0.01963
2224.38007	0.01956
2223.09430	0.01941
2221.80853	0.01915
2220.52276	0.01896
2219.23700	0.01898
2217.95123	0.01905
2216.66546	0.01907
2215.37969	0.01926
2214.09392	0.01981
2212.80815	0.02044
2211.52238	0.02066
2210.23661	0.02030
2208.95084	0.01957
2207.66508	0.01873
2206.37931	0.01783
2205.09354	0.01683
2203.80777	0.01571
2202.52200	0.01464
2201.23623	0.01392
2199.95046	0.01373
2198.66469	0.01393
2197.37893	0.01412
2196.09316	0.01408
2194.80739	0.01398
2193.52162	0.01420
2192.23585	0.01479
2190.95008	0.01532
2189.66431	0.01543
2188.37854	0.01526
2187.09277	0.01530
2185.80701	0.01567
2184.52124	0.01582
2183.23547	0.01512
2181.94970	0.01358
2180.66393	0.01207
2179.37816	0.01149
2178.09239	0.01184
2176.80662	0.01229
2175.52085	0.01209
2174.23509	0.01123
2172.94932	0.01016
2171.66355	0.00919
2170.37778	0.00850
2169.09201	0.00831
2167.80624	0.00872
2166.52047	0.00942
2165.23470	0.00993
2163.94894	0.01003
2162.66317	0.00978
2161.37740	0.00911
2160.09163	0.00787
2158.80586	0.00636
2157.52009	0.00549
2156.23432	0.00604
2154.94855	0.00786
2153.66278	0.01007
2152.37702	0.01171
2151.09125	0.01238
2149.80548	0.01221
2148.51971	0.01160
2147.23394	0.01078
2145.94817	0.00983
2144.66240	0.00898
2143.37663	0.00863
2142.09087	0.00886
2140.80510	0.00933
2139.51933	0.00972
2138.23356	0.01009
2136.94779	0.01063
2135.66202	0.01127
2134.37625	0.01172
2133.09048	0.01191
2131.80471	0.01210
2130.51895	0.01265
2129.23318	0.01370
2127.94741	0.01501
2126.66164	0.01614
2125.37587	0.01675
2124.09010	0.01676
2122.80433	0.01630
2121.51856	0.01566
2120.23280	0.01519
2118.94703	0.01513
2117.66126	0.01542
2116.37549	0.01568
2115.08972	0.01560
2113.80395	0.01516
2112.51818	0.01465
2111.23241	0.01443
2109.94664	0.01471
2108.66088	0.01546
2107.37511	0.01638
2106.08934	0.01705
2104.80357	0.01708
2103.51780	0.01647
2102.23203	0.01564
2100.94626	0.01503
2099.66049	0.01433
2098.37473	0.01410
2097.08896	0.01405
2095.80319	0.01395
2094.51742	0.01386
2093.23165	0.01377
2091.94588	0.01352
2090.66011	0.01306
2089.37434	0.01269
2088.08857	0.01290
2086.80281	0.01385
2085.51704	0.01515
2084.23127	0.01614
2082.94550	0.01643
2081.65973	0.01613
2080.37396	0.01567
2079.08819	0.01538
2077.80242	0.01532
2076.51666	0.01532
2075.23089	0.01513
2073.94512	0.01464
2072.65935	0.01393
2071.37358	0.01328
2070.08781	0.01293
2068.80204	0.01284
2067.51627	0.01280
2066.23050	0.01265
2064.94474	0.01251
2063.65897	0.01252
2062.37320	0.01261
2061.08743	0.01257
2059.80166	0.01235
2058.51589	0.01213
2057.23012	0.01215
2055.94435	0.01242
2054.65859	0.01271
2053.37282	0.01266
2052.08705	0.01204
2050.80128	0.01083
2049.51551	0.00932
2048.22974	0.00785
2046.94397	0.00669
2045.65820	0.00604
2044.37243	0.00618
2043.08667	0.00720
2041.80090	0.00874
2040.51513	0.01012
2039.22936	0.01083
2037.94359	0.01076
2036.65782	0.01006
2035.37205	0.00904
2034.08628	0.00807
2032.80052	0.00749
2031.51475	0.00739
2030.22898	0.00758
2028.94321	0.00787
2027.65744	0.00809
2026.37167	0.00809
2025.08590	0.00770
2023.80013	0.00700
2022.51436	0.00633
2021.22860	0.00603
2019.94283	0.00611
2018.65706	0.00638
2017.37129	0.00670
2016.08552	0.00704
2014.79975	0.00725
2013.51398	0.00702
2012.22821	0.00617
2010.94245	0.00493
2009.65668	0.00379
2008.37091	0.00317
2007.08514	0.00316
2005.79937	0.00349
2004.51360	0.00390
2003.22783	0.00440
2001.94206	0.00521
2000.65629	0.00644
1999.37053	0.00785
1998.08476	0.00916
1996.79899	0.01019
1995.51322	0.01085
1994.22745	0.01100
1992.94168	0.01061
1991.65591	0.01000
1990.37014	0.00965
1989.08438	0.00989
1987.79861	0.01061
1986.51284	0.01139
1985.22707	0.01188
1983.94130	0.01206
1982.65553	0.01208
1981.36976	0.01188
1980.08399	0.01117
1978.79822	0.00984
1977.51246	0.00833
1976.22669	0.00736
1974.94092	0.00735
1973.65515	0.00808
1972.36938	0.00894
1971.08361	0.00939
1969.79784	0.00933
1968.51207	0.00897
1967.22631	0.00837
1965.94054	0.00741
1964.65477	0.00611
1963.36900	0.00492
1962.08323	0.00453
1960.79746	0.00535
1959.51169	0.00710
1958.22592	0.00901
1956.94015	0.01043
1955.65439	0.01123
1954.36862	0.01159
1953.08285	0.01170
1951.79708	0.01172
1950.51131	0.01183
1949.22554	0.01209
1947.93977	0.01231
1946.65400	0.01225
1945.36823	0.01189
1944.08247	0.01139
1942.79670	0.01086
1941.51093	0.01047
1940.22516	0.01050
1938.93939	0.01110
1937.65362	0.01202
1936.36785	0.01269
1935.08208	0.01288
1933.79632	0.01280
1932.51055	0.01276
1931.22478	0.01274
1929.93901	0.01255
1928.65324	0.01223
1927.36747	0.01201
1926.08170	0.01200
1924.79593	0.01219
1923.51016	0.01254
1922.22440	0.01309
1920.93863	0.01372
1919.65286	0.01415
1918.36709	0.01426
1917.08132	0.01417
1915.79555	0.01414
1914.50978	0.01431
1913.22401	0.01459
1911.93825	0.01479
1910.65248	0.01478
1909.36671	0.01465
1908.08094	0.01458
1906.79517	0.01467
1905.50940	0.01481
1904.22363	0.01473
1902.93786	0.01440
1901.65209	0.01402
1900.36633	0.01387
1899.08056	0.01403
1897.79479	0.01432
1896.50902	0.01454
1895.22325	0.01454
1893.93748	0.01438
1892.65171	0.01417
1891.36594	0.01407
1890.08018	0.01411
1888.79441	0.01425
1887.50864	0.01436
1886.22287	0.01441
1884.93710	0.01442
1883.65133	0.01445
1882.36556	0.01452
1881.07979	0.01460
1879.79402	0.01464
1878.50826	0.01469
1877.22249	0.01481
1875.93672	0.01501
1874.65095	0.01523
1873.36518	0.01532
1872.07941	0.01517
1870.79364	0.01482
1869.50787	0.01446
1868.22211	0.01426
1866.93634	0.01434
1865.65057	0.01467
1864.36480	0.01510
1863.07903	0.01539
1861.79326	0.01535
1860.50749	0.01506
1859.22172	0.01480
1857.93595	0.01481
1856.65019	0.01500
1855.36442	0.01516
1854.07865	0.01519
1852.79288	0.01523
1851.50711	0.01544
1850.22134	0.01579
1848.93557	0.01605
1847.64980	0.01602
1846.36404	0.01570
1845.07827	0.01530
1843.79250	0.01500
1842.50673	0.01486
1841.22096	0.01485
1839.93519	0.01492
1838.64942	0.01503
1837.36365	0.01519
1836.07788	0.01533
1834.79212	0.01541
1833.50635	0.01542
1832.22058	0.01544
1830.93481	0.01555
1829.64904	0.01571
1828.36327	0.01582
1827.07750	0.01576
1825.79173	0.01555
1824.50597	0.01531
1823.22020	0.01512
1821.93443	0.01500
1820.64866	0.01487
1819.36289	0.01470
1818.07712	0.01459
1816.79135	0.01468
1815.50558	0.01502
1814.21981	0.01547
1812.93405	0.01582
1811.64828	0.01599
1810.36251	0.01603
1809.07674	0.01605
1807.79097	0.01613
1806.50520	0.01624
1805.21943	0.01634
1803.93366	0.01639
1802.64790	0.01639
1801.36213	0.01634
1800.07636	0.01627
1798.79059	0.01623
1797.50482	0.01629
1796.21905	0.01643
1794.93328	0.01654
1793.64751	0.01650
1792.36174	0.01635
1791.07598	0.01620
1789.79021	0.01613
1788.50444	0.01616
1787.21867	0.01623
1785.93290	0.01626
1784.64713	0.01624
1783.36136	0.01620
1782.07559	0.01616
1780.78983	0.01614
1779.50406	0.01616
1778.21829	0.01623
1776.93252	0.01634
1775.64675	0.01644
1774.36098	0.01647
1773.07521	0.01641
1771.78944	0.01634
1770.50367	0.01630
1769.21791	0.01630
1767.93214	0.01631
1766.64637	0.01635
1765.36060	0.01643
1764.07483	0.01655
1762.78906	0.01669
1761.50329	0.01681
1760.21752	0.01689
1758.93176	0.01693
1757.64599	0.01693
1756.36022	0.01691
1755.07445	0.01689
1753.78868	0.01682
1752.50291	0.01665
1751.21714	0.01638
1749.93137	0.01611
1748.64560	0.01598
1747.35984	0.01604
1746.07407	0.01622
1744.78830	0.01638
1743.50253	0.01645
1742.21676	0.01647
1740.93099	0.01650
1739.64522	0.01661
1738.35945	0.01677
1737.07369	0.01687
1735.78792	0.01686
1734.50215	0.01677
1733.21638	0.01672
1731.93061	0.01678
1730.64484	0.01692
1729.35907	0.01707
1728.07330	0.01717
1726.78753	0.01724
1725.50177	0.01730
1724.21600	0.01737
1722.93023	0.01746
1721.64446	0.01757
1720.35869	0.01767
1719.07292	0.01774
1717.78715	0.01774
1716.50138	0.01773
1715.21561	0.01780
1713.92985	0.01803
1712.64408	0.01838
1711.35831	0.01878
1710.07254	0.01912
1708.78677	0.01939
1707.50100	0.01961
1706.21523	0.01985
1704.92946	0.02017
1703.64370	0.02055
1702.35793	0.02092
1701.07216	0.02126
1699.78639	0.02163
1698.50062	0.02208
1697.21485	0.02260
1695.92908	0.02314
1694.64331	0.02370
1693.35754	0.02430
1692.07178	0.02494
1690.78601	0.02556
1689.50024	0.02610
1688.21447	0.02655
1686.92870	0.02686
1685.64293	0.02710
1684.35716	0.02739
1683.07139	0.02788
1681.78563	0.02858
1680.49986	0.02934
1679.21409	0.03000
1677.92832	0.03055
1676.64255	0.03105
1675.35678	0.03154
1674.07101	0.03205
1672.78524	0.03259
1671.49947	0.03316
1670.21371	0.03378
1668.92794	0.03439
1667.64217	0.03494
1666.35640	0.03541
1665.07063	0.03579
1663.78486	0.03613
1662.49909	0.03648
1661.21332	0.03690
1659.92756	0.03737
1658.64179	0.03784
1657.35602	0.03823
1656.07025	0.03846
1654.78448	0.03855
1653.49871	0.03859
1652.21294	0.03873
1650.92717	0.03904
1649.64140	0.03944
1648.35564	0.03977
1647.06987	0.03994
1645.78410	0.03996
1644.49833	0.03994
1643.21256	0.03993
1641.92679	0.03994
1640.64102	0.03991
1639.35525	0.03978
1638.06949	0.03950
1636.78372	0.03911
1635.49795	0.03869
1634.21218	0.03833
1632.92641	0.03807
1631.64064	0.03782
1630.35487	0.03751
1629.06910	0.03713
1627.78333	0.03669
1626.49757	0.03624
1625.21180	0.03577
1623.92603	0.03532
1622.64026	0.03494
1621.35449	0.03465
1620.06872	0.03438
1618.78295	0.03402
1617.49718	0.03357
1616.21142	0.03312
1614.92565	0.03279
1613.63988	0.03257
1612.35411	0.03241
1611.06834	0.03222
1609.78257	0.03201
1608.49680	0.03181
1607.21103	0.03165
1605.92526	0.03154
1604.63950	0.03144
1603.35373	0.03136
1602.06796	0.03128
1600.78219	0.03121
1599.49642	0.03116
1598.21065	0.03113
1596.92488	0.03116
1595.63911	0.03126
1594.35335	0.03140
1593.06758	0.03155
1591.78181	0.03168
1590.49604	0.03180
1589.21027	0.03192
1587.92450	0.03207
1586.63873	0.03226
1585.35296	0.03251
1584.06719	0.03279
1582.78143	0.03311
1581.49566	0.03349
1580.20989	0.03389
1578.92412	0.03427
1577.63835	0.03460
1576.35258	0.03492
1575.06681	0.03534
1573.78104	0.03589
1572.49528	0.03651
1571.20951	0.03707
1569.92374	0.03749
1568.63797	0.03782
1567.35220	0.03814
1566.06643	0.03850
1564.78066	0.03890
1563.49489	0.03928
1562.20912	0.03958
1560.92336	0.03979
1559.63759	0.03993
1558.35182	0.04010
1557.06605	0.04036
1555.78028	0.04071
1554.49451	0.04109
1553.20874	0.04145
1551.92297	0.04179
1550.63721	0.04209
1549.35144	0.04233
1548.06567	0.04249
1546.77990	0.04258
1545.49413	0.04259
1544.20836	0.04253
1542.92259	0.04239
1541.63682	0.04218
1540.35105	0.04196
1539.06529	0.04181
1537.77952	0.04174
1536.49375	0.04173
1535.20798	0.04170
1533.92221	0.04163
1532.63644	0.04156
1531.35067	0.04156
1530.06490	0.04161
1528.77914	0.04166
1527.49337	0.04168
1526.20760	0.04171
1524.92183	0.04179
1523.63606	0.04193
1522.35029	0.04211
1521.06452	0.04234
1519.77875	0.04261
1518.49298	0.04293
1517.20722	0.04332
1515.92145	0.04380
1514.63568	0.04440
1513.34991	0.04509
1512.06414	0.04582
1510.77837	0.04654
1509.49260	0.04718
1508.20683	0.04774
1506.92107	0.04828
1505.63530	0.04889
1504.34953	0.04963
1503.06376	0.05041
1501.77799	0.05112
1500.49222	0.05169
1499.20645	0.05208
1497.92068	0.05232
1496.63491	0.05249
1495.34915	0.05266
1494.06338	0.05290
1492.77761	0.05319
1491.49184	0.05350
1490.20607	0.05385
1488.92030	0.05428
1487.63453	0.05482
1486.34876	0.05548
1485.06299	0.05623
1483.77723	0.05706
1482.49146	0.05796
1481.20569	0.05894
1479.91992	0.05998
1478.63415	0.06103
1477.34838	0.06201
1476.06261	0.06292
1474.77684	0.06378
1473.49108	0.06468
1472.20531	0.06565
1470.91954	0.06665
1469.63377	0.06759
1468.34800	0.06838
1467.06223	0.06902
1465.77646	0.06954
1464.49069	0.07001
1463.20492	0.07052
1461.91916	0.07109
1460.63339	0.07172
1459.34762	0.07238
1458.06185	0.07310
1456.77608	0.07389
1455.49031	0.07472
1454.20454	0.07550
1452.91877	0.07615
1451.63301	0.07660
1450.34724	0.07686
1449.06147	0.07694
1447.77570	0.07687
1446.48993	0.07664
1445.20416	0.07624
1443.91839	0.07567
1442.63262	0.07495
1441.34685	0.07413
1440.06109	0.07328
1438.77532	0.07246
1437.48955	0.07171
1436.20378	0.07114
1434.91801	0.07082
1433.63224	0.07080
1432.34647	0.07104
1431.06070	0.07149
1429.77494	0.07211
1428.48917	0.07292
1427.20340	0.07392
1425.91763	0.07508
1424.63186	0.07633
1423.34609	0.07761
1422.06032	0.07885
1420.77455	0.08001
1419.48878	0.08108
1418.20302	0.08206
1416.91725	0.08297
1415.63148	0.08379
1414.34571	0.08446
1413.05994	0.08495
1411.77417	0.08522
1410.48840	0.08528
1409.20263	0.08512
1407.91687	0.08471
1406.63110	0.08404
1405.34533	0.08313
1404.05956	0.08202
1402.77379	0.08078
1401.48802	0.07944
1400.20225	0.07800
1398.91648	0.07645
1397.63071	0.07482
1396.34495	0.07313
1395.05918	0.07143
1393.77341	0.06977
1392.48764	0.06815
1391.20187	0.06659
1389.91610	0.06505
1388.63033	0.06357
1387.34456	0.06216
1386.05880	0.06084
1384.77303	0.05956
1383.48726	0.05827
1382.20149	0.05697
1380.91572	0.05569
1379.62995	0.05443
1378.34418	0.05319
1377.05841	0.05192
1375.77264	0.05061
1374.48688	0.04921
1373.20111	0.04774
1371.91534	0.04622
1370.62957	0.04472
1369.34380	0.04333
1368.05803	0.04206
1366.77226	0.04090
1365.48649	0.03981
1364.20073	0.03873
1362.91496	0.03766
1361.62919	0.03663
1360.34342	0.03568
1359.05765	0.03486
1357.77188	0.03415
1356.48611	0.03354
1355.20034	0.03299
1353.91457	0.03249
1352.62881	0.03203
1351.34304	0.03160
1350.05727	0.03119
1348.77150	0.03081
1347.48573	0.03044
1346.19996	0.03010
1344.91419	0.02982
1343.62842	0.02959
1342.34266	0.02940
1341.05689	0.02917
1339.77112	0.02888
1338.48535	0.02856
1337.19958	0.02827
1335.91381	0.02803
1334.62804	0.02780
1333.34227	0.02756
1332.05650	0.02730
1330.77074	0.02705
1329.48497	0.02685
1328.19920	0.02667
1326.91343	0.02650
1325.62766	0.02629
1324.34189	0.02604
1323.05612	0.02578
1321.77035	0.02556
1320.48459	0.02538
1319.19882	0.02522
1317.91305	0.02506
1316.62728	0.02488
1315.34151	0.02471
1314.05574	0.02454
1312.76997	0.02435
1311.48420	0.02414
1310.19843	0.02391
1308.91267	0.02367
1307.62690	0.02346
1306.34113	0.02328
1305.05536	0.02310
1303.76959	0.02292
1302.48382	0.02275
1301.19805	0.02258
1299.91228	0.02244
1298.62652	0.02232
1297.34075	0.02222
1296.05498	0.02212
1294.76921	0.02201
1293.48344	0.02189
1292.19767	0.02176
1290.91190	0.02163
1289.62613	0.02150
1288.34036	0.02138
1287.05460	0.02126
1285.76883	0.02116
1284.48306	0.02106
1283.19729	0.02096
1281.91152	0.02087
1280.62575	0.02078
1279.33998	0.02070
1278.05421	0.02062
1276.76845	0.02055
1275.48268	0.02050
1274.19691	0.02046
1272.91114	0.02039
1271.62537	0.02024
1270.33960	0.02005
1269.05383	0.01989
1267.76806	0.01980
1266.48229	0.01976
1265.19653	0.01974
1263.91076	0.01969
1262.62499	0.01961
1261.33922	0.01953
1260.05345	0.01945
1258.76768	0.01939
1257.48191	0.01933
1256.19614	0.01927
1254.91037	0.01923
1253.62461	0.01921
1252.33884	0.01919
1251.05307	0.01914
1249.76730	0.01907
1248.48153	0.01901
1247.19576	0.01899
1245.90999	0.01900
1244.62422	0.01901
1243.33846	0.01896
1242.05269	0.01887
1240.76692	0.01879
1239.48115	0.01873
1238.19538	0.01869
1236.90961	0.01862
1235.62384	0.01851
1234.33807	0.01837
1233.05230	0.01823
1231.76654	0.01811
1230.48077	0.01801
1229.19500	0.01789
1227.90923	0.01772
1226.62346	0.01749
1225.33769	0.01723
1224.05192	0.01698
1222.76615	0.01679
1221.48039	0.01667
1220.19462	0.01657
1218.90885	0.01649
1217.62308	0.01642
1216.33731	0.01635
1215.05154	0.01628
1213.76577	0.01618
1212.48000	0.01605
1211.19423	0.01591
1209.90847	0.01581
1208.62270	0.01577
1207.33693	0.01574
1206.05116	0.01572
1204.76539	0.01570
1203.47962	0.01567
1202.19385	0.01560
1200.90808	0.01554
1199.62232	0.01552
1198.33655	0.01543
1197.05078	0.01534
1195.76501	0.01526
1194.47924	0.01514
1193.19347	0.01495
1191.90770	0.01473
1190.62193	0.01454
1189.33616	0.01442
1188.05040	0.01437
1186.76463	0.01436
1185.47886	0.01433
1184.19309	0.01429
1182.90732	0.01425
1181.62155	0.01421
1180.33578	0.01416
1179.05001	0.01409
1177.76425	0.01402
1176.47848	0.01398
1175.19271	0.01397
1173.90694	0.01402
1172.62117	0.01410
1171.33540	0.01418
1170.04963	0.01423
1168.76386	0.01423
1167.47809	0.01418
1166.19233	0.01413
1164.90656	0.01411
1163.62079	0.01415
1162.33502	0.01427
1161.04925	0.01445
1159.76348	0.01465
1158.47771	0.01480
1157.19194	0.01488
1155.90618	0.01490
1154.62041	0.01498
1153.33464	0.01518
1152.04887	0.01549
1150.76310	0.01583
1149.47733	0.01609
1148.19156	0.01628
1146.90579	0.01644
1145.62002	0.01665
1144.33426	0.01696
1143.04849	0.01741
1141.76272	0.01799
1140.47695	0.01870
1139.19118	0.01951
1137.90541	0.02040
1136.61964	0.02138
1135.33387	0.02244
1134.04811	0.02358
1132.76234	0.02481
1131.47657	0.02618
1130.19080	0.02772
1128.90503	0.02942
1127.61926	0.03124
1126.33349	0.03319
1125.04772	0.03534
1123.76195	0.03770
1122.47619	0.04024
1121.19042	0.04292
1119.90465	0.04574
1118.61888	0.04869
1117.33311	0.05171
1116.04734	0.05474
1114.76157	0.05775
1113.47580	0.06071
1112.19004	0.06360
1110.90427	0.06645
1109.61850	0.06926
1108.33273	0.07205
1107.04696	0.07484
1105.76119	0.07760
1104.47542	0.08028
1103.18965	0.08282
1101.90388	0.08518
1100.61812	0.08741
1099.33235	0.08956
1098.04658	0.09170
1096.76081	0.09385
1095.47504	0.09598
1094.18927	0.09802
1092.90350	0.09993
1091.61773	0.10174
1090.33197	0.10347
1089.04620	0.10509
1087.76043	0.10655
1086.47466	0.10785
1085.18889	0.10907
1083.90312	0.11034
1082.61735	0.11175
1081.33158	0.11333
1080.04581	0.11508
1078.76005	0.11698
1077.47428	0.11902
1076.18851	0.12119
1074.90274	0.12349
1073.61697	0.12594
1072.33120	0.12856
1071.04543	0.13131
1069.75966	0.13410
1068.47390	0.13691
1067.18813	0.13977
1065.90236	0.14277
1064.61659	0.14593
1063.33082	0.14918
1062.04505	0.15239
1060.75928	0.15550
1059.47351	0.15851
1058.18774	0.16146
1056.90198	0.16435
1055.61621	0.16721
1054.33044	0.17007
1053.04467	0.17293
1051.75890	0.17579
1050.47313	0.17867
1049.18736	0.18161
1047.90159	0.18465
1046.61583	0.18779
1045.33006	0.19101
1044.04429	0.19426
1042.75852	0.19744
1041.47275	0.20047
1040.18698	0.20339
1038.90121	0.20627
1037.61544	0.20920
1036.32967	0.21219
1035.04391	0.21520
1033.75814	0.21812
1032.47237	0.22085
1031.18660	0.22334
1029.90083	0.22560
1028.61506	0.22767
1027.32929	0.22955
1026.04352	0.23126
1024.75775	0.23273
1023.47199	0.23390
1022.18622	0.23476
1020.90045	0.23527
1019.61468	0.23539
1018.32891	0.23504
1017.04314	0.23423
1015.75737	0.23300
1014.47160	0.23137
1013.18584	0.22934
1011.90007	0.22693
1010.61430	0.22420
1009.32853	0.22119
1008.04276	0.21787
1006.75699	0.21419
1005.47122	0.21007
1004.18545	0.20548
1002.89968	0.20048
1001.61392	0.19525
1000.32815	0.18995
999.04238	0.18462
997.75661	0.17922
996.47084	0.17376
995.18507	0.16827
993.89930	0.16282
992.61353	0.15741
991.32777	0.15204
990.04200	0.14673
988.75623	0.14153
987.47046	0.13650
986.18469	0.13170
984.89892	0.12719
983.61315	0.12297
982.32738	0.11901
981.04161	0.11522
979.75585	0.11155
978.47008	0.10801
977.18431	0.10465
975.89854	0.10153
974.61277	0.09875
973.32700	0.09640
972.04123	0.09452
970.75546	0.09312
969.46970	0.09221
968.18393	0.09182
966.89816	0.09195
965.61239	0.09258
964.32662	0.09361
963.04085	0.09484
961.75508	0.09593
960.46931	0.09651
959.18354	0.09631
957.89778	0.09534
956.61201	0.09375
955.32624	0.09176
954.04047	0.08956
952.75470	0.08727
951.46893	0.08498
950.18316	0.08273
948.89739	0.08057
947.61163	0.07850
946.32586	0.07651
945.04009	0.07464
943.75432	0.07287
942.46855	0.07120
941.18278	0.06955
939.89701	0.06790
938.61124	0.06625
937.32547	0.06465
936.03971	0.06318
934.75394	0.06189
933.46817	0.06073
932.18240	0.05965
930.89663	0.05861
929.61086	0.05763
928.32509	0.05673
927.03932	0.05584
925.75356	0.05494
924.46779	0.05404
923.18202	0.05319
921.89625	0.05241
920.61048	0.05169
919.32471	0.05105
918.03894	0.05051
916.75317	0.05003
915.46740	0.04952
914.18164	0.04890
912.89587	0.04820
911.61010	0.04747
910.32433	0.04678
909.03856	0.04621
907.75279	0.04577
906.46702	0.04540
905.18125	0.04499
903.89549	0.04452
902.60972	0.04408
901.32395	0.04369
900.03818	0.04334
898.75241	0.04301
897.46664	0.04271
896.18087	0.04247
894.89510	0.04225
893.60933	0.04197
892.32357	0.04165
891.03780	0.04131
889.75203	0.04104
888.46626	0.04095
887.18049	0.04120
885.89472	0.04196
884.60895	0.04338
883.32318	0.04545
882.03742	0.04790
880.75165	0.05022
879.46588	0.05196
878.18011	0.05304
876.89434	0.05379
875.60857	0.05469
874.32280	0.05589
873.03703	0.05711
871.75126	0.05786
870.46550	0.05785
869.17973	0.05709
867.89396	0.05577
866.60819	0.05412
865.32242	0.05234
864.03665	0.05059
862.75088	0.04898
861.46511	0.04752
860.17935	0.04621
858.89358	0.04499
857.60781	0.04380
856.32204	0.04267
855.03627	0.04168
853.75050	0.04093
852.46473	0.04042
851.17896	0.04005
849.89319	0.03972
848.60743	0.03940
847.32166	0.03907
846.03589	0.03871
844.75012	0.03832
843.46435	0.03789
842.17858	0.03744
840.89281	0.03701
839.60704	0.03672
838.32128	0.03658
837.03551	0.03651
835.74974	0.03639
834.46397	0.03617
833.17820	0.03588
831.89243	0.03562
830.60666	0.03542
829.32089	0.03525
828.03512	0.03509
826.74936	0.03491
825.46359	0.03474
824.17782	0.03458
822.89205	0.03444
821.60628	0.03434
820.32051	0.03425
819.03474	0.03414
817.74897	0.03401
816.46321	0.03389
815.17744	0.03384
813.89167	0.03384
812.60590	0.03381
811.32013	0.03365
810.03436	0.03338
808.74859	0.03308
807.46282	0.03284
806.17705	0.03266
804.89129	0.03252
803.60552	0.03244
802.31975	0.03242
801.03398	0.03243
799.74821	0.03241
798.46244	0.03233
797.17667	0.03224
795.89090	0.03216
794.60513	0.03207
793.31937	0.03192
792.03360	0.03174
790.74783	0.03158
789.46206	0.03151
788.17629	0.03150
786.89052	0.03149
785.60475	0.03140
784.31898	0.03124
783.03322	0.03107
781.74745	0.03096
780.46168	0.03090
779.17591	0.03084
777.89014	0.03076
776.60437	0.03067
775.31860	0.03057
774.03283	0.03049
772.74706	0.03044
771.46130	0.03045
770.17553	0.03048
768.88976	0.03048
767.60399	0.03045
766.31822	0.03045
765.03245	0.03050
763.74668	0.03061
762.46091	0.03069
761.17515	0.03069
759.88938	0.03059
758.60361	0.03043
757.31784	0.03030
756.03207	0.03024
754.74630	0.03023
753.46053	0.03030
752.17476	0.03042
750.88899	0.03054
749.60323	0.03058
748.31746	0.03046
747.03169	0.03022
745.74592	0.02996
744.46015	0.02979
743.17438	0.02971
741.88861	0.02969
740.60284	0.02964
739.31708	0.02949
738.03131	0.02920
736.74554	0.02884
735.45977	0.02862
734.17400	0.02865
732.88823	0.02888
731.60246	0.02914
730.31669	0.02929
729.03092	0.02934
727.74516	0.02934
726.45939	0.02934
725.17362	0.02933
723.88785	0.02924
722.60208	0.02934
721.31631	0.02954
720.03054	0.02972
718.74477	0.02982
717.45901	0.02978
716.17324	0.02956
714.88747	0.02922
713.60170	0.02887
712.31593	0.02862
711.03016	0.02853
709.74439	0.02858
708.45862	0.02868
707.17285	0.02876
705.88709	0.02875
704.60132	0.02865
703.31555	0.02850
702.02978	0.02835
700.74401	0.02825
699.45824	0.02823
698.17247	0.02828
696.88670	0.02836
695.60094	0.02845
694.31517	0.02850
693.02940	0.02848
691.74363	0.02842
690.45786	0.02836
689.17209	0.02835
687.88632	0.02837
686.60055	0.02833
685.31478	0.02820
684.02902	0.02801
682.74325	0.02784
681.45748	0.02775
680.17171	0.02775
678.88594	0.02780
677.60017	0.02786
676.31440	0.02791
675.02863	0.02793
673.74287	0.02798
672.45710	0.02813
671.17133	0.02834
669.88556	0.02823
668.59979	0.02764
667.31402	0.02775
666.02825	0.02872
664.74248	0.02893
663.45671	0.02856
662.17095	0.02813
660.88518	0.02781
659.59941	0.02760
658.31364	0.02746
657.02787	0.02734
655.74210	0.02725
654.45633	0.02722
653.17056	0.02728
651.88480	0.02744
650.59903	0.02769
649.31326	0.02798
648.02749	0.02828
646.74172	0.02853
645.45595	0.02872
644.17018	0.02890
642.88441	0.02911
641.59864	0.02939
640.31288	0.02969
639.02711	0.03001
637.74134	0.03033
636.45557	0.03066
635.16980	0.03103
633.88403	0.03145
632.59826	0.03191
631.31249	0.03224
630.02673	0.03211
628.74096	0.03184
627.45519	0.03249
626.16942	0.03167
624.88365	0.02983
623.59788	0.02838
622.31211	0.02852
621.02634	0.03060
619.74057	0.03388
618.45481	0.03752
617.16904	0.04130
615.88327	0.04505
614.59750	0.04810
613.31173	0.04981
612.02596	0.05075
610.74019	0.05266
609.45442	0.05693
608.16866	0.06318
606.88289	0.06998
605.59712	0.07619
604.31135	0.08117
603.02558	0.08457
601.73981	0.08628
600.45404	0.08646
599.16827	0.08540
597.88250	0.08338
596.59674	0.08067
595.31097	0.07764
594.02520	0.07474
592.73943	0.07237
591.45366	0.07069
590.16789	0.06966
588.88212	0.06918
587.59635	0.06917
586.31059	0.06969
585.02482	0.07079
583.73905	0.07247
582.45328	0.07462
581.16751	0.07704
579.88174	0.07957
578.59597	0.08215
577.31020	0.08479
576.02443	0.08756
574.73867	0.09044
573.45290	0.09333
572.16713	0.09612
570.88136	0.09881
569.59559	0.10159
568.30982	0.10472
567.02405	0.10834
565.73828	0.11234
564.45251	0.11629
563.16675	0.11956
561.88098	0.12157
560.59521	0.12187
559.30944	0.12026
558.02367	0.11684
556.73790	0.11197
555.45213	0.10625
554.16636	0.10027
552.88060	0.09447
551.59483	0.08904
550.30906	0.08405
549.02329	0.07949
547.73752	0.07535
546.45175	0.07160
545.16598	0.06822
543.88021	0.06522
542.59444	0.06260
541.30868	0.06031
540.02291	0.05818
538.73714	0.05609
537.45137	0.05407
536.16560	0.05224
534.87983	0.05065
533.59406	0.04922
532.30829	0.04783
531.02253	0.04641
529.73676	0.04501
528.45099	0.04375
527.16522	0.04268
525.87945	0.04178
524.59368	0.04090
523.30791	0.03994
522.02214	0.03891
520.73637	0.03793
519.45061	0.03708
518.16484	0.03629
516.87907	0.03545
515.59330	0.03458
514.30753	0.03378
513.02176	0.03316
511.73599	0.03272
510.45022	0.03238
509.16446	0.03203
507.87869	0.03163
506.59292	0.03114
505.30715	0.03059
504.02138	0.03007
502.73561	0.02964
501.44984	0.02928
500.16407	0.02894
498.87830	0.02858
497.59254	0.02821
496.30677	0.02782
495.02100	0.02740
493.73523	0.02694
492.44946	0.02651
491.16369	0.02619
489.87792	0.02601
488.59215	0.02596
487.30639	0.02599
486.02062	0.02605
484.73485	0.02609
483.44908	0.02605
482.16331	0.02595
480.87754	0.02585
479.59177	0.02581
478.30600	0.02581
477.02023	0.02582
475.73447	0.02587
474.44870	0.02601
473.16293	0.02625
471.87716	0.02649
470.59139	0.02658
469.30562	0.02645
468.01985	0.02614
466.73408	0.02581
465.44832	0.02555
464.16255	0.02540
462.87678	0.02524
461.59101	0.02501
460.30524	0.02468
459.01947	0.02429
457.73370	0.02389
456.44793	0.02353
455.16216	0.02322
453.87640	0.02292
452.59063	0.02262
451.30486	0.02232
450.01909	0.02207
448.73332	0.02191
447.44755	0.02181
446.16178	0.02173
444.87601	0.02159
443.59025	0.02139
442.30448	0.02122
441.01871	0.02111
439.73294	0.02108
438.44717	0.02103
437.16140	0.02093
435.87563	0.02079
434.58986	0.02067
433.30409	0.02058
432.01833	0.02053
430.73256	0.02050
429.44679	0.02047
428.16102	0.02044
426.87525	0.02039
425.58948	0.02031
424.30371	0.02018
423.01794	0.02000
421.73218	0.01977
420.44641	0.01953
419.16064	0.01931
417.87487	0.01914
416.58910	0.01900
415.30333	0.01886
414.01756	0.01873
412.73179	0.01866
411.44602	0.01867
410.16026	0.01873
408.87449	0.01878
407.58872	0.01881
406.30295	0.01885
405.01718	0.01890
403.73141	0.01893
402.44564	0.01891
401.15987	0.01887
399.87411	0.01887
