3997.45528	0.02629
3996.16951	0.02599
3994.88374	0.02578
3993.59798	0.02568
3992.31221	0.02562
3991.02644	0.02559
3989.74067	0.02568
3988.45490	0.02595
3987.16913	0.02630
3985.88336	0.02655
3984.59759	0.02670
3983.31183	0.02691
3982.02606	0.02732
3980.74029	0.02784
3979.45452	0.02825
3978.16875	0.02846
3976.88298	0.02852
3975.59721	0.02858
3974.31144	0.02869
3973.02567	0.02879
3971.73991	0.02881
3970.45414	0.02872
3969.16837	0.02854
3967.88260	0.02829
3966.59683	0.02804
3965.31106	0.02780
3964.02529	0.02762
3962.73952	0.02762
3961.45376	0.02794
3960.16799	0.02848
3958.88222	0.02884
3957.59645	0.02866
3956.31068	0.02808
3955.02491	0.02756
3953.73914	0.02737
3952.45337	0.02733
3951.16760	0.02723
3949.88184	0.02720
3948.59607	0.02754
3947.31030	0.02832
3946.02453	0.02915
3944.73876	0.02948
3943.45299	0.02917
3942.16722	0.02859
3940.88145	0.02824
3939.59569	0.02827
3938.30992	0.02845
3937.02415	0.02848
3935.73838	0.02833
3934.45261	0.02810
3933.16684	0.02775
3931.88107	0.02720
3930.59530	0.02662
3929.30953	0.02648
3928.02377	0.02704
3926.73800	0.02806
3925.45223	0.02896
3924.16646	0.02935
3922.88069	0.02931
3921.59492	0.02918
3920.30915	0.02911
3919.02338	0.02908
3917.73762	0.02904
3916.45185	0.02907
3915.16608	0.02920
3913.88031	0.02930
3912.59454	0.02918
3911.30877	0.02884
3910.02300	0.02846
3908.73723	0.02825
3907.45146	0.02830
3906.16570	0.02858
3904.87993	0.02896
3903.59416	0.02926
3902.30839	0.02942
3901.02262	0.02959
3899.73685	0.02994
3898.45108	0.03050
3897.16531	0.03108
3895.87955	0.03146
3894.59378	0.03150
3893.30801	0.03109
3892.02224	0.03032
3890.73647	0.02951
3889.45070	0.02910
3888.16493	0.02923
3886.87916	0.02963
3885.59339	0.02991
3884.30763	0.02992
3883.02186	0.02974
3881.73609	0.02935
3880.45032	0.02869
3879.16455	0.02780
3877.87878	0.02701
3876.59301	0.02670
3875.30724	0.02706
3874.02148	0.02801
3872.73571	0.02919
3871.44994	0.03018
3870.16417	0.03067
3868.87840	0.03072
3867.59263	0.03063
3866.30686	0.03063
3865.02109	0.03073
3863.73532	0.03081
3862.44956	0.03082
3861.16379	0.03072
3859.87802	0.03038
3858.59225	0.02979
3857.30648	0.02923
3856.02071	0.02915
3854.73494	0.02972
3853.44917	0.03066
3852.16341	0.03146
3850.87764	0.03169
3849.59187	0.03124
3848.30610	0.03029
3847.02033	0.02929
3845.73456	0.02867
3844.44879	0.02859
3843.16302	0.02888
3841.87725	0.02924
3840.59149	0.02949
3839.30572	0.02950
3838.01995	0.02920
3836.73418	0.02856
3835.44841	0.02778
3834.16264	0.02727
3832.87687	0.02729
3831.59110	0.02780
3830.30534	0.02843
3829.01957	0.02887
3827.73380	0.02901
3826.44803	0.02889
3825.16226	0.02862
3823.87649	0.02838
3822.59072	0.02838
3821.30495	0.02867
3820.01918	0.02901
3818.73342	0.02909
3817.44765	0.02880
3816.16188	0.02835
3814.87611	0.02799
3813.59034	0.02782
3812.30457	0.02775
3811.01880	0.02764
3809.73303	0.02751
3808.44726	0.02754
3807.16150	0.02779
3805.87573	0.02805
3804.58996	0.02793
3803.30419	0.02725
3802.01842	0.02635
3800.73265	0.02589
3799.44688	0.02628
3798.16111	0.02739
3796.87535	0.02860
3795.58958	0.02930
3794.30381	0.02931
3793.01804	0.02900
3791.73227	0.02880
3790.44650	0.02887
3789.16073	0.02898
3787.87496	0.02886
3786.58919	0.02850
3785.30343	0.02809
3784.01766	0.02786
3782.73189	0.02796
3781.44612	0.02833
3780.16035	0.02875
3778.87458	0.02895
3777.58881	0.02877
3776.30304	0.02823
3775.01728	0.02753
3773.73151	0.02696
3772.44574	0.02675
3771.15997	0.02683
3769.87420	0.02697
3768.58843	0.02702
3767.30266	0.02701
3766.01689	0.02691
3764.73112	0.02669
3763.44536	0.02655
3762.15959	0.02681
3760.87382	0.02752
3759.58805	0.02824
3758.30228	0.02847
3757.01651	0.02821
3755.73074	0.02790
3754.44497	0.02783
3753.15921	0.02774
3751.87344	0.02733
3750.58767	0.02672
3749.30190	0.02645
3748.01613	0.02678
3746.73036	0.02735
3745.44459	0.02758
3744.15882	0.02724
3742.87305	0.02664
3741.58729	0.02616
3740.30152	0.02595
3739.01575	0.02594
3737.72998	0.02604
3736.44421	0.02616
3735.15844	0.02623
3733.87267	0.02622
3732.58690	0.02625
3731.30114	0.02644
3730.01537	0.02678
3728.72960	0.02708
3727.44383	0.02717
3726.15806	0.02702
3724.87229	0.02681
3723.58652	0.02675
3722.30075	0.02695
3721.01498	0.02730
3719.72922	0.02748
3718.44345	0.02724
3717.15768	0.02666
3715.87191	0.02620
3714.58614	0.02625
3713.30037	0.02680
3712.01460	0.02736
3710.72883	0.02751
3709.44307	0.02722
3708.15730	0.02680
3706.87153	0.02651
3705.58576	0.02643
3704.29999	0.02656
3703.01422	0.02689
3701.72845	0.02742
3700.44268	0.02805
3699.15691	0.02846
3697.87115	0.02837
3696.58538	0.02780
3695.29961	0.02707
3694.01384	0.02660
3692.72807	0.02658
3691.44230	0.02690
3690.15653	0.02735
3688.87076	0.02773
3687.58500	0.02791
3686.29923	0.02776
3685.01346	0.02728
3683.72769	0.02661
3682.44192	0.02597
3681.15615	0.02560
3679.87038	0.02559
3678.58461	0.02583
3677.29884	0.02604
3676.01308	0.02599
3674.72731	0.02579
3673.44154	0.02582
3672.15577	0.02637
3670.87000	0.02736
3669.58423	0.02833
3668.29846	0.02889
3667.01269	0.02897
3665.72693	0.02875
3664.44116	0.02838
3663.15539	0.02791
3661.86962	0.02751
3660.58385	0.02751
3659.29808	0.02810
3658.01231	0.02906
3656.72654	0.02982
3655.44077	0.02993
3654.15501	0.02942
3652.86924	0.02883
3651.58347	0.02875
3650.29770	0.02936
3649.01193	0.03026
3647.72616	0.03088
3646.44039	0.03100
3645.15462	0.03084
3643.86886	0.03073
3642.58309	0.03083
3641.29732	0.03113
3640.01155	0.03143
3638.72578	0.03160
3637.44001	0.03163
3636.15424	0.03171
3634.86847	0.03199
3633.58270	0.03245
3632.29694	0.03295
3631.01117	0.03343
3629.72540	0.03387
3628.43963	0.03419
3627.15386	0.03424
3625.86809	0.03392
3624.58232	0.03329
3623.29655	0.03265
3622.01079	0.03237
3620.72502	0.03269
3619.43925	0.03341
3618.15348	0.03404
3616.86771	0.03431
3615.58194	0.03445
3614.29617	0.03487
3613.01040	0.03565
3611.72463	0.03642
3610.43887	0.03682
3609.15310	0.03691
3607.86733	0.03701
3606.58156	0.03734
3605.29579	0.03775
3604.01002	0.03796
3602.72425	0.03787
3601.43848	0.03775
3600.15272	0.03791
3598.86695	0.03843
3597.58118	0.03911
3596.29541	0.03977
3595.00964	0.04024
3593.72387	0.04038
3592.43810	0.04016
3591.15233	0.03983
3589.86656	0.03969
3588.58080	0.03989
3587.29503	0.04026
3586.00926	0.04053
3584.72349	0.04058
3583.43772	0.04042
3582.15195	0.04017
3580.86618	0.03994
3579.58041	0.03982
3578.29464	0.03986
3577.00888	0.04003
3575.72311	0.04029
3574.43734	0.04063
3573.15157	0.04100
3571.86580	0.04139
3570.58003	0.04182
3569.29426	0.04231
3568.00849	0.04280
3566.72273	0.04323
3565.43696	0.04356
3564.15119	0.04376
3562.86542	0.04373
3561.57965	0.04350
3560.29388	0.04333
3559.00811	0.04349
3557.72234	0.04391
3556.43657	0.04426
3555.15081	0.04435
3553.86504	0.04430
3552.57927	0.04430
3551.29350	0.04441
3550.00773	0.04459
3548.72196	0.04490
3547.43619	0.04535
3546.15042	0.04582
3544.86466	0.04618
3543.57889	0.04646
3542.29312	0.04679
3541.00735	0.04722
3539.72158	0.04764
3538.43581	0.04798
3537.15004	0.04820
3535.86427	0.04836
3534.57850	0.04851
3533.29274	0.04879
3532.00697	0.04932
3530.72120	0.05002
3529.43543	0.05062
3528.14966	0.05077
3526.86389	0.05044
3525.57812	0.04991
3524.29235	0.04958
3523.00659	0.04959
3521.72082	0.04986
3520.43505	0.05025
3519.14928	0.05070
3517.86351	0.05119
3516.57774	0.05165
3515.29197	0.05203
3514.00620	0.05234
3512.72043	0.05266
3511.43467	0.05303
3510.14890	0.05336
3508.86313	0.05354
3507.57736	0.05340
3506.29159	0.05297
3505.00582	0.05241
3503.72005	0.05202
3502.43428	0.05199
3501.14852	0.05238
3499.86275	0.05308
3498.57698	0.05384
3497.29121	0.05432
3496.00544	0.05439
3494.71967	0.05422
3493.43390	0.05415
3492.14813	0.05434
3490.86236	0.05478
3489.57660	0.05547
3488.29083	0.05642
3487.00506	0.05746
3485.71929	0.05817
3484.43352	0.05818
3483.14775	0.05756
3481.86198	0.05684
3480.57621	0.05651
3479.29045	0.05661
3478.00468	0.05681
3476.71891	0.05688
3475.43314	0.05685
3474.14737	0.05684
3472.86160	0.05690
3471.57583	0.05700
3470.29006	0.05715
3469.00429	0.05745
3467.71853	0.05792
3466.43276	0.05840
3465.14699	0.05873
3463.86122	0.05890
3462.57545	0.05911
3461.28968	0.05946
3460.00391	0.05981
3458.71814	0.06001
3457.43238	0.06016
3456.14661	0.06045
3454.86084	0.06083
3453.57507	0.06101
3452.28930	0.06081
3451.00353	0.06043
3449.71776	0.06015
3448.43199	0.06008
3447.14622	0.06012
3445.86046	0.06012
3444.57469	0.06010
3443.28892	0.06022
3442.00315	0.06061
3440.71738	0.06116
3439.43161	0.06162
3438.14584	0.06181
3436.86007	0.06179
3435.57431	0.06175
3434.28854	0.06181
3433.00277	0.06197
3431.71700	0.06229
3430.43123	0.06280
3429.14546	0.06340
3427.85969	0.06376
3426.57392	0.06361
3425.28815	0.06300
3424.00239	0.06231
3422.71662	0.06198
3421.43085	0.06214
3420.14508	0.06260
3418.85931	0.06303
3417.57354	0.06320
3416.28777	0.06312
3415.00200	0.06299
3413.71624	0.06301
3412.43047	0.06323
3411.14470	0.06362
3409.85893	0.06414
3408.57316	0.06473
3407.28739	0.06527
3406.00162	0.06556
3404.71585	0.06547
3403.43008	0.06513
3402.14432	0.06483
3400.85855	0.06488
3399.57278	0.06532
3398.28701	0.06594
3397.00124	0.06645
3395.71547	0.06666
3394.42970	0.06657
3393.14393	0.06627
3391.85817	0.06593
3390.57240	0.06572
3389.28663	0.06573
3388.00086	0.06592
3386.71509	0.06614
3385.42932	0.06637
3384.14355	0.06667
3382.85778	0.06709
3381.57201	0.06757
3380.28625	0.06794
3379.00048	0.06805
3377.71471	0.06789
3376.42894	0.06764
3375.14317	0.06744
3373.85740	0.06727
3372.57163	0.06705
3371.28586	0.06680
3370.00010	0.06668
3368.71433	0.06676
3367.42856	0.06692
3366.14279	0.06701
3364.85702	0.06703
3363.57125	0.06707
3362.28548	0.06728
3360.99971	0.06769
3359.71394	0.06821
3358.42818	0.06871
3357.14241	0.06910
3355.85664	0.06928
3354.57087	0.06915
3353.28510	0.06878
3351.99933	0.06844
3350.71356	0.06841
3349.42779	0.06861
3348.14202	0.06872
3346.85626	0.06846
3345.57049	0.06785
3344.28472	0.06715
3342.99895	0.06665
3341.71318	0.06652
3340.42741	0.06676
3339.14164	0.06713
3337.85587	0.06737
3336.57011	0.06736
3335.28434	0.06720
3333.99857	0.06707
3332.71280	0.06716
3331.42703	0.06753
3330.14126	0.06812
3328.85549	0.06868
3327.56972	0.06895
3326.28395	0.06886
3324.99819	0.06854
3323.71242	0.06816
3322.42665	0.06781
3321.14088	0.06759
3319.85511	0.06767
3318.56934	0.06818
3317.28357	0.06902
3315.99780	0.06989
3314.71204	0.07047
3313.42627	0.07063
3312.14050	0.07047
3310.85473	0.07011
3309.56896	0.06960
3308.28319	0.06900
3306.99742	0.06842
3305.71165	0.06795
3304.42588	0.06762
3303.14012	0.06735
3301.85435	0.06707
3300.56858	0.06678
3299.28281	0.06658
3297.99704	0.06663
3296.71127	0.06701
3295.42550	0.06753
3294.13973	0.06785
3292.85397	0.06774
3291.56820	0.06738
3290.28243	0.06714
3288.99666	0.06721
3287.71089	0.06743
3286.42512	0.06746
3285.13935	0.06712
3283.85358	0.06657
3282.56781	0.06611
3281.28205	0.06599
3279.99628	0.06625
3278.71051	0.06670
3277.42474	0.06709
3276.13897	0.06724
3274.85320	0.06720
3273.56743	0.06717
3272.28166	0.06728
3270.99590	0.06755
3269.71013	0.06782
3268.42436	0.06790
3267.13859	0.06765
3265.85282	0.06718
3264.56705	0.06677
3263.28128	0.06671
3261.99551	0.06709
3260.70974	0.06778
3259.42398	0.06847
3258.13821	0.06893
3256.85244	0.06901
3255.56667	0.06874
3254.28090	0.06828
3252.99513	0.06786
3251.70936	0.06768
3250.42359	0.06771
3249.13783	0.06776
3247.85206	0.06759
3246.56629	0.06716
3245.28052	0.06671
3243.99475	0.06647
3242.70898	0.06647
3241.42321	0.06652
3240.13744	0.06647
3238.85167	0.06634
3237.56591	0.06625
3236.28014	0.06627
3234.99437	0.06640
3233.70860	0.06660
3232.42283	0.06679
3231.13706	0.06681
3229.85129	0.06662
3228.56552	0.06634
3227.27976	0.06620
3225.99399	0.06632
3224.70822	0.06662
3223.42245	0.06691
3222.13668	0.06704
3220.85091	0.06699
3219.56514	0.06685
3218.27937	0.06676
3216.99360	0.06675
3215.70784	0.06675
3214.42207	0.06669
3213.13630	0.06657
3211.85053	0.06639
3210.56476	0.06616
3209.27899	0.06595
3207.99322	0.06586
3206.70745	0.06595
3205.42169	0.06617
3204.13592	0.06640
3202.85015	0.06656
3201.56438	0.06656
3200.27861	0.06635
3198.99284	0.06596
3197.70707	0.06553
3196.42130	0.06522
3195.13553	0.06512
3193.84977	0.06509
3192.56400	0.06498
3191.27823	0.06476
3189.99246	0.06463
3188.70669	0.06476
3187.42092	0.06506
3186.13515	0.06529
3184.84938	0.06528
3183.56362	0.06512
3182.27785	0.06496
3180.99208	0.06484
3179.70631	0.06464
3178.42054	0.06426
3177.13477	0.06378
3175.84900	0.06344
3174.56323	0.06341
3173.27746	0.06369
3171.99170	0.06413
3170.70593	0.06454
3169.42016	0.06476
3168.13439	0.06472
3166.84862	0.06450
3165.56285	0.06422
3164.27708	0.06401
3162.99131	0.06388
3161.70555	0.06383
3160.41978	0.06380
3159.13401	0.06376
3157.84824	0.06368
3156.56247	0.06357
3155.27670	0.06348
3153.99093	0.06346
3152.70516	0.06355
3151.41939	0.06371
3150.13363	0.06379
3148.84786	0.06364
3147.56209	0.06322
3146.27632	0.06267
3144.99055	0.06217
3143.70478	0.06184
3142.41901	0.06165
3141.13324	0.06157
3139.84748	0.06158
3138.56171	0.06167
3137.27594	0.06182
3135.99017	0.06200
3134.70440	0.06215
3133.41863	0.06221
3132.13286	0.06212
3130.84709	0.06190
3129.56132	0.06167
3128.27556	0.06153
3126.98979	0.06145
3125.70402	0.06134
3124.41825	0.06112
3123.13248	0.06087
3121.84671	0.06071
3120.56094	0.06071
3119.27517	0.06091
3117.98940	0.06125
3116.70364	0.06164
3115.41787	0.06194
3114.13210	0.06204
3112.84633	0.06195
3111.56056	0.06172
3110.27479	0.06136
3108.98902	0.06079
3107.70325	0.06011
3106.41749	0.05964
3105.13172	0.05961
3103.84595	0.05992
3102.56018	0.06025
3101.27441	0.06038
3099.98864	0.06030
3098.70287	0.06014
3097.41710	0.06000
3096.13133	0.06001
3094.84557	0.06017
3093.55980	0.06036
3092.27403	0.06040
3090.98826	0.06024
3089.70249	0.05997
3088.41672	0.05967
3087.13095	0.05932
3085.84518	0.05888
3084.55942	0.05850
3083.27365	0.05841
3081.98788	0.05869
3080.70211	0.05917
3079.41634	0.05962
3078.13057	0.05992
3076.84480	0.06002
3075.55903	0.05993
3074.27326	0.05964
3072.98750	0.05925
3071.70173	0.05891
3070.41596	0.05874
3069.13019	0.05876
3067.84442	0.05887
3066.55865	0.05889
3065.27288	0.05875
3063.98711	0.05853
3062.70135	0.05837
3061.41558	0.05836
3060.12981	0.05844
3058.84404	0.05848
3057.55827	0.05839
3056.27250	0.05816
3054.98673	0.05785
3053.70096	0.05758
3052.41519	0.05742
3051.12943	0.05740
3049.84366	0.05745
3048.55789	0.05753
3047.27212	0.05761
3045.98635	0.05768
3044.70058	0.05771
3043.41481	0.05759
3042.12904	0.05725
3040.84328	0.05676
3039.55751	0.05633
3038.27174	0.05613
3036.98597	0.05613
3035.70020	0.05615
3034.41443	0.05605
3033.12866	0.05592
3031.84289	0.05589
3030.55712	0.05600
3029.27136	0.05620
3027.98559	0.05640
3026.69982	0.05650
3025.41405	0.05639
3024.12828	0.05601
3022.84251	0.05549
3021.55674	0.05507
3020.27097	0.05492
3018.98521	0.05505
3017.69944	0.05528
3016.41367	0.05548
3015.12790	0.05560
3013.84213	0.05568
3012.55636	0.05566
3011.27059	0.05543
3009.98482	0.05499
3008.69905	0.05454
3007.41329	0.05430
3006.12752	0.05429
3004.84175	0.05436
3003.55598	0.05433
3002.27021	0.05421
3000.98444	0.05406
2999.69867	0.05396
2998.41290	0.05399
2997.12714	0.05409
2995.84137	0.05418
2994.55560	0.05415
2993.26983	0.05393
2991.98406	0.05361
2990.69829	0.05336
2989.41252	0.05332
2988.12675	0.05346
2986.84098	0.05360
2985.55522	0.05361
2984.26945	0.05351
2982.98368	0.05346
2981.69791	0.05361
2980.41214	0.05400
2979.12637	0.05449
2977.84060	0.05496
2976.55483	0.05535
2975.26907	0.05574
2973.98330	0.05624
2972.69753	0.05692
2971.41176	0.05772
2970.12599	0.05848
2968.84022	0.05905
2967.55445	0.05947
2966.26868	0.05992
2964.98291	0.06059
2963.69715	0.06154
2962.41138	0.06261
2961.12561	0.06354
2959.83984	0.06421
2958.55407	0.06473
2957.26830	0.06529
2955.98253	0.06592
2954.69676	0.06652
2953.41100	0.06700
2952.12523	0.06734
2950.83946	0.06751
2949.55369	0.06747
2948.26792	0.06730
2946.98215	0.06708
2945.69638	0.06681
2944.41061	0.06644
2943.12484	0.06603
2941.83908	0.06576
2940.55331	0.06578
2939.26754	0.06607
2937.98177	0.06654
2936.69600	0.06713
2935.41023	0.06784
2934.12446	0.06866
2932.83869	0.06952
2931.55293	0.07031
2930.26716	0.07093
2928.98139	0.07142
2927.69562	0.07175
2926.40985	0.07187
2925.12408	0.07172
2923.83831	0.07138
2922.55254	0.07100
2921.26677	0.07072
2919.98101	0.07057
2918.69524	0.07053
2917.40947	0.07047
2916.12370	0.07019
2914.83793	0.06958
2913.55216	0.06877
2912.26639	0.06803
2910.98062	0.06749
2909.69486	0.06708
2908.40909	0.06663
2907.12332	0.06615
2905.83755	0.06567
2904.55178	0.06521
2903.26601	0.06474
2901.98024	0.06429
2900.69447	0.06388
2899.40870	0.06347
2898.12294	0.06304
2896.83717	0.06261
2895.55140	0.06225
2894.26563	0.06189
2892.97986	0.06143
2891.69409	0.06082
2890.40832	0.06020
2889.12255	0.05969
2887.83678	0.05935
2886.55102	0.05911
2885.26525	0.05889
2883.97948	0.05866
2882.69371	0.05849
2881.40794	0.05849
2880.12217	0.05864
2878.83640	0.05887
2877.55063	0.05910
2876.26487	0.05925
2874.97910	0.05925
2873.69333	0.05917
2872.40756	0.05923
2871.12179	0.05959
2869.83602	0.06020
2868.55025	0.06077
2867.26448	0.06104
2865.97871	0.06097
2864.69295	0.06068
2863.40718	0.06035
2862.12141	0.06005
2860.83564	0.05977
2859.54987	0.05952
2858.26410	0.05930
2856.97833	0.05910
2855.69256	0.05889
2854.40680	0.05865
2853.12103	0.05840
2851.83526	0.05819
2850.54949	0.05800
2849.26372	0.05777
2847.97795	0.05741
2846.69218	0.05690
2845.40641	0.05628
2844.12064	0.05562
2842.83488	0.05506
2841.54911	0.05465
2840.26334	0.05436
2838.97757	0.05403
2837.69180	0.05350
2836.40603	0.05275
2835.12026	0.05186
2833.83449	0.05096
2832.54873	0.05019
2831.26296	0.04963
2829.97719	0.04928
2828.69142	0.04903
2827.40565	0.04878
2826.11988	0.04852
2824.83411	0.04831
2823.54834	0.04813
2822.26257	0.04795
2820.97681	0.04773
2819.69104	0.04752
2818.40527	0.04732
2817.11950	0.04706
2815.83373	0.04665
2814.54796	0.04612
2813.26219	0.04565
2811.97642	0.04539
2810.69066	0.04540
2809.40489	0.04557
2808.11912	0.04572
2806.83335	0.04575
2805.54758	0.04564
2804.26181	0.04550
2802.97604	0.04539
2801.69027	0.04527
2800.40450	0.04510
2799.11874	0.04489
2797.83297	0.04473
2796.54720	0.04474
2795.26143	0.04494
2793.97566	0.04525
2792.68989	0.04545
2791.40412	0.04543
2790.11835	0.04521
2788.83259	0.04492
2787.54682	0.04468
2786.26105	0.04446
2784.97528	0.04421
2783.68951	0.04389
2782.40374	0.04359
2781.11797	0.04339
2779.83220	0.04326
2778.54643	0.04312
2777.26067	0.04299
2775.97490	0.04302
2774.68913	0.04322
2773.40336	0.04347
2772.11759	0.04366
2770.83182	0.04376
2769.54605	0.04371
2768.26028	0.04344
2766.97452	0.04299
2765.68875	0.04257
2764.40298	0.04242
2763.11721	0.04257
2761.83144	0.04288
2760.54567	0.04311
2759.25990	0.04313
2757.97413	0.04294
2756.68836	0.04265
2755.40260	0.04238
2754.11683	0.04216
2752.83106	0.04199
2751.54529	0.04181
2750.25952	0.04167
2748.97375	0.04159
2747.68798	0.04159
2746.40221	0.04165
2745.11645	0.04172
2743.83068	0.04174
2742.54491	0.04166
2741.25914	0.04149
2739.97337	0.04131
2738.68760	0.04122
2737.40183	0.04126
2736.11606	0.04138
2734.83029	0.04148
2733.54453	0.04147
2732.25876	0.04135
2730.97299	0.04116
2729.68722	0.04102
2728.40145	0.04101
2727.11568	0.04109
2725.82991	0.04118
2724.54414	0.04118
2723.25838	0.04102
2721.97261	0.04076
2720.68684	0.04046
2719.40107	0.04020
2718.11530	0.04000
2716.82953	0.03989
2715.54376	0.03987
2714.25799	0.03992
2712.97222	0.04001
2711.68646	0.04006
2710.40069	0.04002
2709.11492	0.03991
2707.82915	0.03977
2706.54338	0.03958
2705.25761	0.03937
2703.97184	0.03922
2702.68607	0.03923
2701.40031	0.03942
2700.11454	0.03969
2698.82877	0.03988
2697.54300	0.03993
2696.25723	0.03985
2694.97146	0.03971
2693.68569	0.03955
2692.39992	0.03938
2691.11415	0.03916
2689.82839	0.03891
2688.54262	0.03871
2687.25685	0.03863
2685.97108	0.03870
2684.68531	0.03886
2683.39954	0.03904
2682.11377	0.03916
2680.82800	0.03916
2679.54224	0.03903
2678.25647	0.03880
2676.97070	0.03854
2675.68493	0.03829
2674.39916	0.03808
2673.11339	0.03792
2671.82762	0.03783
2670.54185	0.03781
2669.25608	0.03789
2667.97032	0.03808
2666.68455	0.03833
2665.39878	0.03850
2664.11301	0.03853
2662.82724	0.03844
2661.54147	0.03826
2660.25570	0.03804
2658.96993	0.03785
2657.68417	0.03777
2656.39840	0.03776
2655.11263	0.03770
2653.82686	0.03753
2652.54109	0.03728
2651.25532	0.03706
2649.96955	0.03691
2648.68378	0.03684
2647.39801	0.03685
2646.11225	0.03687
2644.82648	0.03676
2643.54071	0.03643
2642.25494	0.03597
2640.96917	0.03565
2639.68340	0.03566
2638.39763	0.03591
2637.11186	0.03614
2635.82609	0.03617
2634.54033	0.03596
2633.25456	0.03560
2631.96879	0.03523
2630.68302	0.03494
2629.39725	0.03477
2628.11148	0.03467
2626.82571	0.03459
2625.53994	0.03445
2624.25418	0.03425
2622.96841	0.03405
2621.68264	0.03394
2620.39687	0.03396
2619.11110	0.03405
2617.82533	0.03413
2616.53956	0.03415
2615.25379	0.03406
2613.96802	0.03386
2612.68226	0.03362
2611.39649	0.03344
2610.11072	0.03337
2608.82495	0.03333
2607.53918	0.03318
2606.25341	0.03286
2604.96764	0.03251
2603.68187	0.03227
2602.39611	0.03217
2601.11034	0.03214
2599.82457	0.03217
2598.53880	0.03227
2597.25303	0.03239
2595.96726	0.03244
2594.68149	0.03232
2593.39572	0.03210
2592.10995	0.03193
2590.82419	0.03195
2589.53842	0.03209
2588.25265	0.03207
2586.96688	0.03174
2585.68111	0.03123
2584.39534	0.03075
2583.10957	0.03033
2581.82380	0.02991
2580.53804	0.02961
2579.25227	0.02959
2577.96650	0.02988
2576.68073	0.03025
2575.39496	0.03048
2574.10919	0.03047
2572.82342	0.03025
2571.53765	0.02994
2570.25188	0.02973
2568.96612	0.02963
2567.68035	0.02949
2566.39458	0.02917
2565.10881	0.02884
2563.82304	0.02878
2562.53727	0.02911
2561.25150	0.02955
2559.96573	0.02971
2558.67997	0.02953
2557.39420	0.02932
2556.10843	0.02938
2554.82266	0.02966
2553.53689	0.02991
2552.25112	0.02990
2550.96535	0.02964
2549.67958	0.02929
2548.39381	0.02906
2547.10805	0.02913
2545.82228	0.02951
2544.53651	0.03003
2543.25074	0.03040
2541.96497	0.03037
2540.67920	0.02997
2539.39343	0.02946
2538.10766	0.02913
2536.82190	0.02902
2535.53613	0.02902
2534.25036	0.02904
2532.96459	0.02904
2531.67882	0.02898
2530.39305	0.02871
2529.10728	0.02816
2527.82151	0.02750
2526.53574	0.02702
2525.24998	0.02695
2523.96421	0.02724
2522.67844	0.02770
2521.39267	0.02811
2520.10690	0.02829
2518.82113	0.02821
2517.53536	0.02803
2516.24959	0.02798
2514.96383	0.02817
2513.67806	0.02855
2512.39229	0.02895
2511.10652	0.02916
2509.82075	0.02904
2508.53498	0.02861
2507.24921	0.02814
2505.96344	0.02792
2504.67767	0.02800
2503.39191	0.02823
2502.10614	0.02841
2500.82037	0.02843
2499.53460	0.02832
2498.24883	0.02815
2496.96306	0.02785
2495.67729	0.02736
2494.39152	0.02682
2493.10576	0.02659
2491.81999	0.02687
2490.53422	0.02744
2489.24845	0.02793
2487.96268	0.02813
2486.67691	0.02807
2485.39114	0.02783
2484.10537	0.02751
2482.81960	0.02718
2481.53384	0.02690
2480.24807	0.02666
2478.96230	0.02644
2477.67653	0.02634
2476.39076	0.02644
2475.10499	0.02672
2473.81922	0.02697
2472.53345	0.02703
2471.24769	0.02685
2469.96192	0.02659
2468.67615	0.02650
2467.39038	0.02672
2466.10461	0.02713
2464.81884	0.02744
2463.53307	0.02748
2462.24730	0.02739
2460.96153	0.02743
2459.67577	0.02772
2458.39000	0.02810
2457.10423	0.02822
2455.81846	0.02789
2454.53269	0.02729
2453.24692	0.02682
2451.96115	0.02673
2450.67538	0.02692
2449.38962	0.02715
2448.10385	0.02722
2446.81808	0.02706
2445.53231	0.02674
2444.24654	0.02645
2442.96077	0.02638
2441.67500	0.02658
2440.38923	0.02683
2439.10346	0.02684
2437.81770	0.02658
2436.53193	0.02636
2435.24616	0.02645
2433.96039	0.02676
2432.67462	0.02697
2431.38885	0.02689
2430.10308	0.02659
2428.81731	0.02622
2427.53155	0.02591
2426.24578	0.02571
2424.96001	0.02563
2423.67424	0.02566
2422.38847	0.02583
2421.10270	0.02614
2419.81693	0.02639
2418.53116	0.02639
2417.24539	0.02612
2415.95963	0.02571
2414.67386	0.02532
2413.38809	0.02506
2412.10232	0.02508
2410.81655	0.02540
2409.53078	0.02579
2408.24501	0.02601
2406.95924	0.02605
2405.67347	0.02608
2404.38771	0.02618
2403.10194	0.02624
2401.81617	0.02623
2400.53040	0.02615
2399.24463	0.02602
2397.95886	0.02582
2396.67309	0.02560
2395.38732	0.02543
2394.10156	0.02539
2392.81579	0.02543
2391.53002	0.02553
2390.24425	0.02564
2388.95848	0.02575
2387.67271	0.02579
2386.38694	0.02572
2385.10117	0.02554
2383.81540	0.02538
2382.52964	0.02530
2381.24387	0.02534
2379.95810	0.02548
2378.67233	0.02575
2377.38656	0.02601
2376.10079	0.02606
2374.81502	0.02590
2373.52925	0.02593
2372.24349	0.02613
2370.95772	0.02617
2369.67195	0.02593
2368.38618	0.02552
2367.10041	0.02517
2365.81464	0.02488
2364.52887	0.02477
2363.24310	0.02487
2361.95733	0.02518
2360.67157	0.02561
2359.38580	0.02588
2358.10003	0.02591
2356.81426	0.02590
2355.52849	0.02594
2354.24272	0.02596
2352.95695	0.02603
2351.67118	0.02644
2350.38542	0.02681
2349.09965	0.02668
2347.81388	0.02634
2346.52811	0.02634
2345.24234	0.02642
2343.95657	0.02603
2342.67080	0.02519
2341.38503	0.02534
2340.09926	0.02615
2338.81350	0.02583
2337.52773	0.02475
2336.24196	0.02516
2334.95619	0.02634
2333.67042	0.02630
2332.38465	0.02542
2331.09888	0.02600
2329.81311	0.02633
2328.52735	0.02583
2327.24158	0.02634
2325.95581	0.02719
2324.67004	0.02719
2323.38427	0.02679
2322.09850	0.02674
2320.81273	0.02627
2319.52696	0.02594
2318.24119	0.02580
2316.95543	0.02554
2315.66966	0.02552
2314.38389	0.02558
2313.09812	0.02560
2311.81235	0.02575
2310.52658	0.02567
2309.24081	0.02533
2307.95504	0.02495
2306.66928	0.02460
2305.38351	0.02452
2304.09774	0.02466
2302.81197	0.02485
2301.52620	0.02496
2300.24043	0.02478
2298.95466	0.02433
2297.66889	0.02377
2296.38312	0.02340
2295.09736	0.02341
2293.81159	0.02368
2292.52582	0.02394
2291.24005	0.02398
2289.95428	0.02385
2288.66851	0.02369
2287.38274	0.02355
2286.09697	0.02342
2284.81121	0.02323
2283.52544	0.02300
2282.23967	0.02280
2280.95390	0.02269
2279.66813	0.02261
2278.38236	0.02247
2277.09659	0.02226
2275.81082	0.02208
2274.52505	0.02205
2273.23929	0.02223
2271.95352	0.02251
2270.66775	0.02266
2269.38198	0.02245
2268.09621	0.02189
2266.81044	0.02125
2265.52467	0.02082
2264.23890	0.02058
2262.95314	0.02039
2261.66737	0.02023
2260.38160	0.02024
2259.09583	0.02046
2257.81006	0.02070
2256.52429	0.02065
2255.23852	0.02020
2253.95275	0.01949
2252.66698	0.01871
2251.38122	0.01797
2250.09545	0.01741
2248.80968	0.01724
2247.52391	0.01753
2246.23814	0.01813
2244.95237	0.01868
2243.66660	0.01882
2242.38083	0.01844
2241.09507	0.01768
2239.80930	0.01696
2238.52353	0.01661
2237.23776	0.01662
2235.95199	0.01669
2234.66622	0.01668
2233.38045	0.01677
2232.09468	0.01710
2230.80891	0.01752
2229.52315	0.01775
2228.23738	0.01769
2226.95161	0.01741
2225.66584	0.01693
2224.38007	0.01627
2223.09430	0.01557
2221.80853	0.01500
2220.52276	0.01465
2219.23700	0.01449
2217.95123	0.01448
2216.66546	0.01458
2215.37969	0.01479
2214.09392	0.01523
2212.80815	0.01591
2211.52238	0.01636
2210.23661	0.01592
2208.95084	0.01466
2207.66508	0.01359
2206.37931	0.01361
2205.09354	0.01456
2203.80777	0.01542
2202.52200	0.01543
2201.23623	0.01466
2199.95046	0.01371
2198.66469	0.01312
2197.37893	0.01309
2196.09316	0.01332
2194.80739	0.01329
2193.52162	0.01280
2192.23585	0.01215
2190.95008	0.01180
2189.66431	0.01184
2188.37854	0.01211
2187.09277	0.01250
2185.80701	0.01299
2184.52124	0.01341
2183.23547	0.01346
2181.94970	0.01311
2180.66393	0.01267
2179.37816	0.01241
2178.09239	0.01223
2176.80662	0.01196
2175.52085	0.01169
2174.23509	0.01161
2172.94932	0.01161
2171.66355	0.01123
2170.37778	0.01024
2169.09201	0.00908
2167.80624	0.00852
2166.52047	0.00886
2165.23470	0.00955
2163.94894	0.00962
2162.66317	0.00858
2161.37740	0.00673
2160.09163	0.00479
2158.80586	0.00355
2157.52009	0.00354
2156.23432	0.00476
2154.94855	0.00662
2153.66278	0.00826
2152.37702	0.00912
2151.09125	0.00920
2149.80548	0.00887
2148.51971	0.00852
2147.23394	0.00828
2145.94817	0.00818
2144.66240	0.00841
2143.37663	0.00928
2142.09087	0.01083
2140.80510	0.01256
2139.51933	0.01375
2138.23356	0.01395
2136.94779	0.01331
2135.66202	0.01242
2134.37625	0.01186
2133.09048	0.01178
2131.80471	0.01195
2130.51895	0.01206
2129.23318	0.01206
2127.94741	0.01215
2126.66164	0.01246
2125.37587	0.01291
2124.09010	0.01327
2122.80433	0.01335
2121.51856	0.01316
2120.23280	0.01287
2118.94703	0.01269
2117.66126	0.01276
2116.37549	0.01313
2115.08972	0.01365
2113.80395	0.01402
2112.51818	0.01413
2111.23241	0.01420
2109.94664	0.01455
2108.66088	0.01511
2107.37511	0.01546
2106.08934	0.01527
2104.80357	0.01460
2103.51780	0.01374
2102.23203	0.01298
2100.94626	0.01261
2099.66049	0.01493
2098.37473	0.01623
2097.08896	0.01625
2095.80319	0.01566
2094.51742	0.01476
2093.23165	0.01385
2091.94588	0.01314
2090.66011	0.01260
2089.37434	0.01210
2088.08857	0.01160
2086.80281	0.01127
2085.51704	0.01130
2084.23127	0.01164
2082.94550	0.01204
2081.65973	0.01226
2080.37396	0.01231
2079.08819	0.01237
2077.80242	0.01261
2076.51666	0.01300
2075.23089	0.01343
2073.94512	0.01382
2072.65935	0.01416
2071.37358	0.01448
2070.08781	0.01470
2068.80204	0.01472
2067.51627	0.01445
2066.23050	0.01387
2064.94474	0.01295
2063.65897	0.01169
2062.37320	0.01032
2061.08743	0.00923
2059.80166	0.00876
2058.51589	0.00882
2057.23012	0.00892
2055.94435	0.00867
2054.65859	0.00829
2053.37282	0.00846
2052.08705	0.00958
2050.80128	0.01123
2049.51551	0.01253
2048.22974	0.01292
2046.94397	0.01244
2045.65820	0.01148
2044.37243	0.01038
2043.08667	0.00934
2041.80090	0.00841
2040.51513	0.00756
2039.22936	0.00691
2037.94359	0.00684
2036.65782	0.00772
2035.37205	0.00934
2034.08628	0.01073
2032.80052	0.01093
2031.51475	0.00983
2030.22898	0.00821
2028.94321	0.00703
2027.65744	0.00663
2026.37167	0.00669
2025.08590	0.00666
2023.80013	0.00631
2022.51436	0.00602
2021.22860	0.00642
2019.94283	0.00769
2018.65706	0.00925
2017.37129	0.01021
2016.08552	0.01021
2014.79975	0.00969
2013.51398	0.00935
2012.22821	0.00960
2010.94245	0.01029
2009.65668	0.01102
2008.37091	0.01140
2007.08514	0.01129
2005.79937	0.01090
2004.51360	0.01063
2003.22783	0.01067
2001.94206	0.01081
2000.65629	0.01060
1999.37053	0.00988
1998.08476	0.00896
1996.79899	0.00835
1995.51322	0.00833
1994.22745	0.00869
1992.94168	0.00893
1991.65591	0.00884
1990.37014	0.00874
1989.08438	0.00917
1987.79861	0.01017
1986.51284	0.01117
1985.22707	0.01165
1983.94130	0.01181
1982.65553	0.01244
1981.36976	0.01413
1980.08399	0.01652
1978.79822	0.01849
1977.51246	0.01896
1976.22669	0.01773
1974.94092	0.01565
1973.65515	0.01389
1972.36938	0.01321
1971.08361	0.01353
1969.79784	0.01412
1968.51207	0.01433
1967.22631	0.01400
1965.94054	0.01348
1964.65477	0.01319
1963.36900	0.01325
1962.08323	0.01341
1960.79746	0.01327
1959.51169	0.01263
1958.22592	0.01165
1956.94015	0.01072
1955.65439	0.01030
1954.36862	0.01071
1953.08285	0.01184
1951.79708	0.01317
1950.51131	0.01408
1949.22554	0.01440
1947.93977	0.01433
1946.65400	0.01419
1945.36823	0.01416
1944.08247	0.01433
1942.79670	0.01468
1941.51093	0.01505
1940.22516	0.01514
1938.93939	0.01475
1937.65362	0.01401
1936.36785	0.01338
1935.08208	0.01338
1933.79632	0.01410
1932.51055	0.01505
1931.22478	0.01564
1929.93901	0.01573
1928.65324	0.01556
1927.36747	0.01542
1926.08170	0.01539
1924.79593	0.01543
1923.51016	0.01554
1922.22440	0.01575
1920.93863	0.01598
1919.65286	0.01609
1918.36709	0.01596
1917.08132	0.01567
1915.79555	0.01537
1914.50978	0.01521
1913.22401	0.01526
1911.93825	0.01547
1910.65248	0.01567
1909.36671	0.01569
1908.08094	0.01551
1906.79517	0.01525
1905.50940	0.01507
1904.22363	0.01506
1902.93786	0.01523
1901.65209	0.01554
1900.36633	0.01588
1899.08056	0.01605
1897.79479	0.01601
1896.50902	0.01590
1895.22325	0.01591
1893.93748	0.01607
1892.65171	0.01616
1891.36594	0.01598
1890.08018	0.01559
1888.79441	0.01525
1887.50864	0.01520
1886.22287	0.01543
1884.93710	0.01577
1883.65133	0.01606
1882.36556	0.01631
1881.07979	0.01653
1879.79402	0.01671
1878.50826	0.01678
1877.22249	0.01666
1875.93672	0.01636
1874.65095	0.01594
1873.36518	0.01559
1872.07941	0.01545
1870.79364	0.01554
1869.50787	0.01573
1868.22211	0.01586
1866.93634	0.01596
1865.65057	0.01614
1864.36480	0.01647
1863.07903	0.01684
1861.79326	0.01702
1860.50749	0.01690
1859.22172	0.01660
1857.93595	0.01627
1856.65019	0.01604
1855.36442	0.01587
1854.07865	0.01575
1852.79288	0.01571
1851.50711	0.01581
1850.22134	0.01604
1848.93557	0.01632
1847.64980	0.01656
1846.36404	0.01673
1845.07827	0.01680
1843.79250	0.01674
1842.50673	0.01657
1841.22096	0.01632
1839.93519	0.01609
1838.64942	0.01598
1837.36365	0.01596
1836.07788	0.01602
1834.79212	0.01612
1833.50635	0.01628
1832.22058	0.01649
1830.93481	0.01671
1829.64904	0.01687
1828.36327	0.01694
1827.07750	0.01694
1825.79173	0.01694
1824.50597	0.01701
1823.22020	0.01720
1821.93443	0.01748
1820.64866	0.01773
1819.36289	0.01779
1818.07712	0.01753
1816.79135	0.01704
1815.50558	0.01654
1814.21981	0.01621
1812.93405	0.01609
1811.64828	0.01609
1810.36251	0.01614
1809.07674	0.01618
1807.79097	0.01619
1806.50520	0.01617
1805.21943	0.01617
1803.93366	0.01624
1802.64790	0.01637
1801.36213	0.01650
1800.07636	0.01664
1798.79059	0.01685
1797.50482	0.01713
1796.21905	0.01738
1794.93328	0.01748
1793.64751	0.01741
1792.36174	0.01730
1791.07598	0.01723
1789.79021	0.01723
1788.50444	0.01726
1787.21867	0.01728
1785.93290	0.01732
1784.64713	0.01737
1783.36136	0.01743
1782.07559	0.01745
1780.78983	0.01744
1779.50406	0.01742
1778.21829	0.01739
1776.93252	0.01732
1775.64675	0.01720
1774.36098	0.01704
1773.07521	0.01690
1771.78944	0.01684
1770.50367	0.01686
1769.21791	0.01690
1767.93214	0.01692
1766.64637	0.01695
1765.36060	0.01705
1764.07483	0.01719
1762.78906	0.01734
1761.50329	0.01743
1760.21752	0.01748
1758.93176	0.01753
1757.64599	0.01757
1756.36022	0.01757
1755.07445	0.01755
1753.78868	0.01755
1752.50291	0.01763
1751.21714	0.01776
1749.93137	0.01785
1748.64560	0.01786
1747.35984	0.01781
1746.07407	0.01777
1744.78830	0.01778
1743.50253	0.01788
1742.21676	0.01805
1740.93099	0.01825
1739.64522	0.01839
1738.35945	0.01844
1737.07369	0.01845
1735.78792	0.01851
1734.50215	0.01862
1733.21638	0.01872
1731.93061	0.01877
1730.64484	0.01880
1729.35907	0.01885
1728.07330	0.01891
1726.78753	0.01897
1725.50177	0.01905
1724.21600	0.01916
1722.93023	0.01934
1721.64446	0.01956
1720.35869	0.01981
1719.07292	0.02009
1717.78715	0.02037
1716.50138	0.02062
1715.21561	0.02080
1713.92985	0.02091
1712.64408	0.02103
1711.35831	0.02121
1710.07254	0.02145
1708.78677	0.02172
1707.50100	0.02202
1706.21523	0.02234
1704.92946	0.02271
1703.64370	0.02315
1702.35793	0.02362
1701.07216	0.02404
1699.78639	0.02436
1698.50062	0.02460
1697.21485	0.02480
1695.92908	0.02496
1694.64331	0.02506
1693.35754	0.02512
1692.07178	0.02523
1690.78601	0.02542
1689.50024	0.02572
1688.21447	0.02610
1686.92870	0.02652
1685.64293	0.02689
1684.35716	0.02712
1683.07139	0.02725
1681.78563	0.02737
1680.49986	0.02761
1679.21409	0.02798
1677.92832	0.02843
1676.64255	0.02886
1675.35678	0.02919
1674.07101	0.02942
1672.78524	0.02963
1671.49947	0.02987
1670.21371	0.03013
1668.92794	0.03035
1667.64217	0.03055
1666.35640	0.03077
1665.07063	0.03106
1663.78486	0.03141
1662.49909	0.03177
1661.21332	0.03208
1659.92756	0.03234
1658.64179	0.03258
1657.35602	0.03287
1656.07025	0.03326
1654.78448	0.03371
1653.49871	0.03407
1652.21294	0.03421
1650.92717	0.03415
1649.64140	0.03407
1648.35564	0.03409
1647.06987	0.03421
1645.78410	0.03432
1644.49833	0.03438
1643.21256	0.03438
1641.92679	0.03435
1640.64102	0.03432
1639.35525	0.03434
1638.06949	0.03448
1636.78372	0.03471
1635.49795	0.03489
1634.21218	0.03494
1632.92641	0.03489
1631.64064	0.03484
1630.35487	0.03489
1629.06910	0.03502
1627.78333	0.03520
1626.49757	0.03538
1625.21180	0.03551
1623.92603	0.03555
1622.64026	0.03550
1621.35449	0.03542
1620.06872	0.03538
1618.78295	0.03544
1617.49718	0.03555
1616.21142	0.03569
1614.92565	0.03582
1613.63988	0.03596
1612.35411	0.03612
1611.06834	0.03631
1609.78257	0.03651
1608.49680	0.03669
1607.21103	0.03682
1605.92526	0.03690
1604.63950	0.03700
1603.35373	0.03716
1602.06796	0.03741
1600.78219	0.03771
1599.49642	0.03801
1598.21065	0.03828
1596.92488	0.03852
1595.63911	0.03873
1594.35335	0.03891
1593.06758	0.03907
1591.78181	0.03924
1590.49604	0.03946
1589.21027	0.03972
1587.92450	0.04002
1586.63873	0.04032
1585.35296	0.04059
1584.06719	0.04083
1582.78143	0.04107
1581.49566	0.04135
1580.20989	0.04170
1578.92412	0.04215
1577.63835	0.04265
1576.35258	0.04311
1575.06681	0.04347
1573.78104	0.04377
1572.49528	0.04406
1571.20951	0.04438
1569.92374	0.04470
1568.63797	0.04501
1567.35220	0.04532
1566.06643	0.04565
1564.78066	0.04602
1563.49489	0.04646
1562.20912	0.04699
1560.92336	0.04755
1559.63759	0.04805
1558.35182	0.04840
1557.06605	0.04858
1555.78028	0.04870
1554.49451	0.04883
1553.20874	0.04900
1551.92297	0.04920
1550.63721	0.04944
1549.35144	0.04968
1548.06567	0.04992
1546.77990	0.05008
1545.49413	0.05015
1544.20836	0.05014
1542.92259	0.05008
1541.63682	0.05001
1540.35105	0.04990
1539.06529	0.04971
1537.77952	0.04947
1536.49375	0.04924
1535.20798	0.04909
1533.92221	0.04904
1532.63644	0.04908
1531.35067	0.04919
1530.06490	0.04939
1528.77914	0.04968
1527.49337	0.05001
1526.20760	0.05039
1524.92183	0.05082
1523.63606	0.05134
1522.35029	0.05196
1521.06452	0.05266
1519.77875	0.05339
1518.49298	0.05415
1517.20722	0.05496
1515.92145	0.05585
1514.63568	0.05681
1513.34991	0.05782
1512.06414	0.05886
1510.77837	0.05997
1509.49260	0.06118
1508.20683	0.06251
1506.92107	0.06387
1505.63530	0.06512
1504.34953	0.06620
1503.06376	0.06713
1501.77799	0.06802
1500.49222	0.06892
1499.20645	0.06985
1497.92068	0.07074
1496.63491	0.07154
1495.34915	0.07223
1494.06338	0.07284
1492.77761	0.07349
1491.49184	0.07423
1490.20607	0.07509
1488.92030	0.07599
1487.63453	0.07686
1486.34876	0.07769
1485.06299	0.07853
1483.77723	0.07946
1482.49146	0.08055
1481.20569	0.08180
1479.91992	0.08312
1478.63415	0.08439
1477.34838	0.08554
1476.06261	0.08656
1474.77684	0.08750
1473.49108	0.08838
1472.20531	0.08924
1470.91954	0.09004
1469.63377	0.09078
1468.34800	0.09143
1467.06223	0.09199
1465.77646	0.09248
1464.49069	0.09296
1463.20492	0.09347
1461.91916	0.09406
1460.63339	0.09475
1459.34762	0.09553
1458.06185	0.09632
1456.77608	0.09702
1455.49031	0.09758
1454.20454	0.09797
1452.91877	0.09827
1451.63301	0.09851
1450.34724	0.09873
1449.06147	0.09889
1447.77570	0.09895
1446.48993	0.09885
1445.20416	0.09861
1443.91839	0.09827
1442.63262	0.09789
1441.34685	0.09753
1440.06109	0.09726
1438.77532	0.09709
1437.48955	0.09704
1436.20378	0.09707
1434.91801	0.09721
1433.63224	0.09755
1432.34647	0.09816
1431.06070	0.09908
1429.77494	0.10020
1428.48917	0.10143
1427.20340	0.10274
1425.91763	0.10413
1424.63186	0.10562
1423.34609	0.10715
1422.06032	0.10866
1420.77455	0.11004
1419.48878	0.11123
1418.20302	0.11216
1416.91725	0.11286
1415.63148	0.11339
1414.34571	0.11379
1413.05994	0.11404
1411.77417	0.11412
1410.48840	0.11396
1409.20263	0.11352
1407.91687	0.11282
1406.63110	0.11187
1405.34533	0.11071
1404.05956	0.10934
1402.77379	0.10774
1401.48802	0.10594
1400.20225	0.10397
1398.91648	0.10186
1397.63071	0.09965
1396.34495	0.09740
1395.05918	0.09512
1393.77341	0.09279
1392.48764	0.09043
1391.20187	0.08811
1389.91610	0.08588
1388.63033	0.08379
1387.34456	0.08179
1386.05880	0.07979
1384.77303	0.07774
1383.48726	0.07567
1382.20149	0.07363
1380.91572	0.07170
1379.62995	0.06984
1378.34418	0.06795
1377.05841	0.06600
1375.77264	0.06398
1374.48688	0.06191
1373.20111	0.05982
1371.91534	0.05771
1370.62957	0.05566
1369.34380	0.05372
1368.05803	0.05194
1366.77226	0.05032
1365.48649	0.04880
1364.20073	0.04736
1362.91496	0.04597
1361.62919	0.04464
1360.34342	0.04338
1359.05765	0.04220
1357.77188	0.04111
1356.48611	0.04015
1355.20034	0.03929
1353.91457	0.03848
1352.62881	0.03766
1351.34304	0.03683
1350.05727	0.03602
1348.77150	0.03527
1347.48573	0.03458
1346.19996	0.03392
1344.91419	0.03327
1343.62842	0.03268
1342.34266	0.03216
1341.05689	0.03173
1339.77112	0.03136
1338.48535	0.03103
1337.19958	0.03072
1335.91381	0.03040
1334.62804	0.03010
1333.34227	0.02980
1332.05650	0.02950
1330.77074	0.02919
1329.48497	0.02887
1328.19920	0.02855
1326.91343	0.02823
1325.62766	0.02793
1324.34189	0.02767
1323.05612	0.02746
1321.77035	0.02727
1320.48459	0.02708
1319.19882	0.02687
1317.91305	0.02666
1316.62728	0.02645
1315.34151	0.02626
1314.05574	0.02608
1312.76997	0.02592
1311.48420	0.02580
1310.19843	0.02572
1308.91267	0.02565
1307.62690	0.02556
1306.34113	0.02545
1305.05536	0.02532
1303.76959	0.02516
1302.48382	0.02498
1301.19805	0.02478
1299.91228	0.02459
1298.62652	0.02441
1297.34075	0.02423
1296.05498	0.02403
1294.76921	0.02382
1293.48344	0.02364
1292.19767	0.02349
1290.91190	0.02336
1289.62613	0.02323
1288.34036	0.02309
1287.05460	0.02295
1285.76883	0.02282
1284.48306	0.02272
1283.19729	0.02263
1281.91152	0.02251
1280.62575	0.02237
1279.33998	0.02220
1278.05421	0.02205
1276.76845	0.02193
1275.48268	0.02183
1274.19691	0.02173
1272.91114	0.02158
1271.62537	0.02142
1270.33960	0.02128
1269.05383	0.02119
1267.76806	0.02115
1266.48229	0.02113
1265.19653	0.02109
1263.91076	0.02101
1262.62499	0.02089
1261.33922	0.02074
1260.05345	0.02059
1258.76768	0.02044
1257.48191	0.02030
1256.19614	0.02016
1254.91037	0.02003
1253.62461	0.01991
1252.33884	0.01983
1251.05307	0.01979
1249.76730	0.01975
1248.48153	0.01969
1247.19576	0.01960
1245.90999	0.01950
1244.62422	0.01939
1243.33846	0.01928
1242.05269	0.01916
1240.76692	0.01905
1239.48115	0.01893
1238.19538	0.01881
1236.90961	0.01870
1235.62384	0.01863
1234.33807	0.01862
1233.05230	0.01862
1231.76654	0.01862
1230.48077	0.01856
1229.19500	0.01847
1227.90923	0.01835
1226.62346	0.01823
1225.33769	0.01812
1224.05192	0.01800
1222.76615	0.01789
1221.48039	0.01781
1220.19462	0.01775
1218.90885	0.01772
1217.62308	0.01768
1216.33731	0.01763
1215.05154	0.01758
1213.76577	0.01752
1212.48000	0.01747
1211.19423	0.01744
1209.90847	0.01742
1208.62270	0.01742
1207.33693	0.01743
1206.05116	0.01744
1204.76539	0.01745
1203.47962	0.01749
1202.19385	0.01755
1200.90808	0.01749
1199.62232	0.01722
1198.33655	0.01726
1197.05078	0.01729
1195.76501	0.01726
1194.47924	0.01719
1193.19347	0.01711
1191.90770	0.01704
1190.62193	0.01703
1189.33616	0.01706
1188.05040	0.01709
1186.76463	0.01712
1185.47886	0.01715
1184.19309	0.01722
1182.90732	0.01734
1181.62155	0.01747
1180.33578	0.01758
1179.05001	0.01766
1177.76425	0.01771
1176.47848	0.01776
1175.19271	0.01780
1173.90694	0.01785
1172.62117	0.01791
1171.33540	0.01799
1170.04963	0.01811
1168.76386	0.01827
1167.47809	0.01847
1166.19233	0.01870
1164.90656	0.01892
1163.62079	0.01915
1162.33502	0.01940
1161.04925	0.01969
1159.76348	0.02005
1158.47771	0.02045
1157.19194	0.02086
1155.90618	0.02125
1154.62041	0.02165
1153.33464	0.02208
1152.04887	0.02253
1150.76310	0.02301
1149.47733	0.02354
1148.19156	0.02415
1146.90579	0.02489
1145.62002	0.02573
1144.33426	0.02664
1143.04849	0.02759
1141.76272	0.02858
1140.47695	0.02964
1139.19118	0.03082
1137.90541	0.03212
1136.61964	0.03354
1135.33387	0.03512
1134.04811	0.03689
1132.76234	0.03882
1131.47657	0.04089
1130.19080	0.04309
1128.90503	0.04549
1127.61926	0.04815
1126.33349	0.05113
1125.04772	0.05440
1123.76195	0.05787
1122.47619	0.06141
1121.19042	0.06493
1119.90465	0.06846
1118.61888	0.07206
1117.33311	0.07578
1116.04734	0.07956
1114.76157	0.08336
1113.47580	0.08715
1112.19004	0.09089
1110.90427	0.09454
1109.61850	0.09808
1108.33273	0.10152
1107.04696	0.10487
1105.76119	0.10819
1104.47542	0.11149
1103.18965	0.11476
1101.90388	0.11793
1100.61812	0.12089
1099.33235	0.12363
1098.04658	0.12620
1096.76081	0.12867
1095.47504	0.13111
1094.18927	0.13355
1092.90350	0.13598
1091.61773	0.13833
1090.33197	0.14057
1089.04620	0.14263
1087.76043	0.14456
1086.47466	0.14644
1085.18889	0.14839
1083.90312	0.15044
1082.61735	0.15261
1081.33158	0.15489
1080.04581	0.15733
1078.76005	0.15998
1077.47428	0.16287
1076.18851	0.16595
1074.90274	0.16915
1073.61697	0.17243
1072.33120	0.17577
1071.04543	0.17917
1069.75966	0.18261
1068.47390	0.18613
1067.18813	0.18977
1065.90236	0.19356
1064.61659	0.19745
1063.33082	0.20139
1062.04505	0.20534
1060.75928	0.20924
1059.47351	0.21307
1058.18774	0.21678
1056.90198	0.22040
1055.61621	0.22400
1054.33044	0.22764
1053.04467	0.23136
1051.75890	0.23513
1050.47313	0.23891
1049.18736	0.24276
1047.90159	0.24678
1046.61583	0.25100
1045.33006	0.25538
1044.04429	0.25981
1042.75852	0.26426
1041.47275	0.26875
1040.18698	0.27331
1038.90121	0.27793
1037.61544	0.28259
1036.32967	0.28724
1035.04391	0.29183
1033.75814	0.29629
1032.47237	0.30049
1031.18660	0.30428
1029.90083	0.30760
1028.61506	0.31045
1027.32929	0.31288
1026.04352	0.31491
1024.75775	0.31648
1023.47199	0.31757
1022.18622	0.31817
1020.90045	0.31829
1019.61468	0.31790
1018.32891	0.31692
1017.04314	0.31532
1015.75737	0.31312
1014.47160	0.31038
1013.18584	0.30709
1011.90007	0.30323
1010.61430	0.29877
1009.32853	0.29365
1008.04276	0.28787
1006.75699	0.28151
1005.47122	0.27476
1004.18545	0.26773
1002.89968	0.26037
1001.61392	0.25261
1000.32815	0.24449
999.04238	0.23614
997.75661	0.22769
996.47084	0.21920
995.18507	0.21065
993.89930	0.20211
992.61353	0.19369
991.32777	0.18552
990.04200	0.17765
988.75623	0.17006
987.47046	0.16273
986.18469	0.15571
984.89892	0.14905
983.61315	0.14279
982.32738	0.13690
981.04161	0.13138
979.75585	0.12626
978.47008	0.12159
977.18431	0.11744
975.89854	0.11377
974.61277	0.11055
973.32700	0.10778
972.04123	0.10555
970.75546	0.10400
969.46970	0.10321
968.18393	0.10315
966.89816	0.10369
965.61239	0.10460
964.32662	0.10566
963.04085	0.10667
961.75508	0.10743
960.46931	0.10767
959.18354	0.10717
957.89778	0.10584
956.61201	0.10383
955.32624	0.10135
954.04047	0.09858
952.75470	0.09564
951.46893	0.09266
950.18316	0.08974
948.89739	0.08693
947.61163	0.08424
946.32586	0.08167
945.04009	0.07920
943.75432	0.07685
942.46855	0.07460
941.18278	0.07244
939.89701	0.07039
938.61124	0.06847
937.32547	0.06668
936.03971	0.06504
934.75394	0.06357
933.46817	0.06225
932.18240	0.06104
930.89663	0.05985
929.61086	0.05865
928.32509	0.05752
927.03932	0.05652
925.75356	0.05567
924.46779	0.05492
923.18202	0.05422
921.89625	0.05352
920.61048	0.05282
919.32471	0.05215
918.03894	0.05152
916.75317	0.05092
915.46740	0.05032
914.18164	0.04971
912.89587	0.04918
911.61010	0.04876
910.32433	0.04842
909.03856	0.04807
907.75279	0.04760
906.46702	0.04702
905.18125	0.04641
903.89549	0.04592
902.60972	0.04562
901.32395	0.04546
900.03818	0.04534
898.75241	0.04518
897.46664	0.04500
896.18087	0.04485
894.89510	0.04478
893.60933	0.04480
892.32357	0.04494
891.03780	0.04514
889.75203	0.04539
888.46626	0.04575
887.18049	0.04642
885.89472	0.04768
884.60895	0.04977
883.32318	0.05275
882.03742	0.05631
880.75165	0.05982
879.46588	0.06263
878.18011	0.06452
876.89434	0.06575
875.60857	0.06684
874.32280	0.06803
873.03703	0.06915
871.75126	0.06975
870.46550	0.06948
869.17973	0.06828
867.89396	0.06634
866.60819	0.06395
865.32242	0.06137
864.03665	0.05880
862.75088	0.05643
861.46511	0.05433
860.17935	0.05251
858.89358	0.05095
857.60781	0.04963
856.32204	0.04848
855.03627	0.04743
853.75050	0.04643
852.46473	0.04549
851.17896	0.04473
849.89319	0.04415
848.60743	0.04371
847.32166	0.04327
846.03589	0.04277
844.75012	0.04228
843.46435	0.04189
842.17858	0.04160
840.89281	0.04131
839.60704	0.04099
838.32128	0.04066
837.03551	0.04038
835.74974	0.04018
834.46397	0.04006
833.17820	0.03995
831.89243	0.03980
830.60666	0.03960
829.32089	0.03937
828.03512	0.03920
826.74936	0.03909
825.46359	0.03901
824.17782	0.03892
822.89205	0.03881
821.60628	0.03870
820.32051	0.03858
819.03474	0.03846
817.74897	0.03835
816.46321	0.03831
815.17744	0.03836
813.89167	0.03844
812.60590	0.03845
811.32013	0.03838
810.03436	0.03826
808.74859	0.03812
807.46282	0.03798
806.17705	0.03786
804.89129	0.03777
803.60552	0.03769
802.31975	0.03759
801.03398	0.03746
799.74821	0.03728
798.46244	0.03709
797.17667	0.03691
795.89090	0.03676
794.60513	0.03666
793.31937	0.03659
792.03360	0.03657
790.74783	0.03663
789.46206	0.03675
788.17629	0.03688
786.89052	0.03688
785.60475	0.03673
784.31898	0.03649
783.03322	0.03625
781.74745	0.03610
780.46168	0.03605
779.17591	0.03611
777.89014	0.03621
776.60437	0.03632
775.31860	0.03639
774.03283	0.03643
772.74706	0.03645
771.46130	0.03643
770.17553	0.03637
768.88976	0.03632
767.60399	0.03635
766.31822	0.03648
765.03245	0.03663
763.74668	0.03670
762.46091	0.03666
761.17515	0.03658
759.88938	0.03655
758.60361	0.03659
757.31784	0.03665
756.03207	0.03668
754.74630	0.03670
753.46053	0.03672
752.17476	0.03676
750.88899	0.03678
749.60323	0.03674
748.31746	0.03664
747.03169	0.03653
745.74592	0.03646
744.46015	0.03638
743.17438	0.03625
741.88861	0.03607
740.60284	0.03593
739.31708	0.03586
738.03131	0.03588
736.74554	0.03599
735.45977	0.03611
734.17400	0.03612
732.88823	0.03593
731.60246	0.03564
730.31669	0.03548
729.03092	0.03555
727.74516	0.03577
726.45939	0.03596
725.17362	0.03607
723.88785	0.03610
722.60208	0.03610
721.31631	0.03602
720.03054	0.03585
718.74477	0.03569
717.45901	0.03560
716.17324	0.03560
714.88747	0.03564
713.60170	0.03567
712.31593	0.03567
711.03016	0.03564
709.74439	0.03562
708.45862	0.03561
707.17285	0.03559
705.88709	0.03553
704.60132	0.03541
703.31555	0.03528
702.02978	0.03518
700.74401	0.03512
699.45824	0.03511
698.17247	0.03514
696.88670	0.03519
695.60094	0.03524
694.31517	0.03526
693.02940	0.03524
691.74363	0.03521
690.45786	0.03518
689.17209	0.03517
687.88632	0.03511
686.60055	0.03499
685.31478	0.03483
684.02902	0.03467
682.74325	0.03454
681.45748	0.03444
680.17171	0.03432
678.88594	0.03421
677.60017	0.03412
676.31440	0.03411
675.02863	0.03416
673.74287	0.03425
672.45710	0.03434
671.17133	0.03443
669.88556	0.03456
668.59979	0.03468
667.31402	0.03471
666.02825	0.03468
664.74248	0.03448
663.45671	0.03414
662.17095	0.03379
660.88518	0.03356
659.59941	0.03348
658.31364	0.03348
657.02787	0.03348
655.74210	0.03347
654.45633	0.03348
653.17056	0.03350
651.88480	0.03351
650.59903	0.03353
649.31326	0.03356
648.02749	0.03362
646.74172	0.03368
645.45595	0.03372
644.17018	0.03374
642.88441	0.03381
641.59864	0.03399
640.31288	0.03430
639.02711	0.03471
637.74134	0.03516
636.45557	0.03564
635.16980	0.03613
633.88403	0.03658
632.59826	0.03691
631.31249	0.03749
630.02673	0.03976
628.74096	0.04323
627.45519	0.04263
626.16942	0.04702
624.88365	0.05476
623.59788	0.06222
622.31211	0.06801
621.02634	0.07161
619.74057	0.07311
618.45481	0.07339
617.16904	0.07359
615.88327	0.07435
614.59750	0.07588
613.31173	0.07860
612.02596	0.08329
610.74019	0.09019
609.45442	0.09813
608.16866	0.10530
606.88289	0.11089
605.59712	0.11514
604.31135	0.11818
603.02558	0.11966
601.73981	0.11937
600.45404	0.11759
599.16827	0.11476
597.88250	0.11122
596.59674	0.10729
595.31097	0.10335
594.02520	0.09987
592.73943	0.09716
591.45366	0.09536
590.16789	0.09437
588.88212	0.09406
587.59635	0.09436
586.31059	0.09522
585.02482	0.09661
583.73905	0.09851
582.45328	0.10089
581.16751	0.10372
579.88174	0.10692
578.59597	0.11033
577.31020	0.11379
576.02443	0.11715
574.73867	0.12037
573.45290	0.12352
572.16713	0.12677
570.88136	0.13028
569.59559	0.13419
568.30982	0.13851
567.02405	0.14305
565.73828	0.14746
564.45251	0.15128
563.16675	0.15405
561.88098	0.15527
560.59521	0.15448
559.30944	0.15150
558.02367	0.14653
556.73790	0.14007
555.45213	0.13275
554.16636	0.12516
552.88060	0.11775
551.59483	0.11077
550.30906	0.10431
549.02329	0.09842
547.73752	0.09322
546.45175	0.08874
545.16598	0.08482
543.88021	0.08121
542.59444	0.07773
541.30868	0.07440
540.02291	0.07133
538.73714	0.06858
537.45137	0.06611
536.16560	0.06382
534.87983	0.06165
533.59406	0.05959
532.30829	0.05769
531.02253	0.05602
529.73676	0.05459
528.45099	0.05328
527.16522	0.05196
525.87945	0.05060
524.59368	0.04932
523.30791	0.04816
522.02214	0.04709
520.73637	0.04604
519.45061	0.04501
518.16484	0.04402
516.87907	0.04305
515.59330	0.04209
514.30753	0.04117
513.02176	0.04035
511.73599	0.03969
510.45022	0.03915
509.16446	0.03863
507.87869	0.03805
506.59292	0.03740
505.30715	0.03677
504.02138	0.03625
502.73561	0.03590
501.44984	0.03561
500.16407	0.03523
498.87830	0.03472
497.59254	0.03412
496.30677	0.03354
495.02100	0.03305
493.73523	0.03274
492.44946	0.03264
491.16369	0.03267
489.87792	0.03271
488.59215	0.03267
487.30639	0.03253
486.02062	0.03235
484.73485	0.03221
483.44908	0.03211
482.16331	0.03204
480.87754	0.03198
479.59177	0.03197
478.30600	0.03204
477.02023	0.03221
475.73447	0.03246
474.44870	0.03278
473.16293	0.03311
471.87716	0.03335
470.59139	0.03347
469.30562	0.03345
468.01985	0.03333
466.73408	0.03312
465.44832	0.03282
464.16255	0.03245
462.87678	0.03204
461.59101	0.03165
460.30524	0.03127
459.01947	0.03091
457.73370	0.03056
456.44793	0.03025
455.16216	0.03001
453.87640	0.02984
452.59063	0.02972
451.30486	0.02958
450.01909	0.02940
448.73332	0.02922
447.44755	0.02902
446.16178	0.02881
444.87601	0.02857
443.59025	0.02834
442.30448	0.02818
441.01871	0.02808
439.73294	0.02804
438.44717	0.02803
437.16140	0.02807
435.87563	0.02813
434.58986	0.02816
433.30409	0.02814
432.01833	0.02808
430.73256	0.02804
429.44679	0.02803
428.16102	0.02803
426.87525	0.02801
425.58948	0.02796
424.30371	0.02791
423.01794	0.02788
421.73218	0.02788
420.44641	0.02787
419.16064	0.02782
417.87487	0.02775
416.58910	0.02766
415.30333	0.02753
414.01756	0.02737
412.73179	0.02719
411.44602	0.02709
410.16026	0.02710
408.87449	0.02725
407.58872	0.02748
406.30295	0.02772
405.01718	0.02792
403.73141	0.02804
402.44564	0.02811
401.15987	0.02818
399.87411	0.02828
