3997.45528	0.03534
3996.16951	0.03474
3994.88374	0.03433
3993.59798	0.03428
3992.31221	0.03455
3991.02644	0.03495
3989.74067	0.03533
3988.45490	0.03567
3987.16913	0.03590
3985.88336	0.03584
3984.59759	0.03551
3983.31183	0.03514
3982.02606	0.03503
3980.74029	0.03527
3979.45452	0.03577
3978.16875	0.03636
3976.88298	0.03678
3975.59721	0.03685
3974.31144	0.03662
3973.02567	0.03634
3971.73991	0.03628
3970.45414	0.03649
3969.16837	0.03682
3967.88260	0.03703
3966.59683	0.03694
3965.31106	0.03653
3964.02529	0.03598
3962.73952	0.03554
3961.45376	0.03542
3960.16799	0.03576
3958.88222	0.03652
3957.59645	0.03745
3956.31068	0.03814
3955.02491	0.03840
3953.73914	0.03841
3952.45337	0.03857
3951.16760	0.03902
3949.88184	0.03944
3948.59607	0.03933
3947.31030	0.03855
3946.02453	0.03748
3944.73876	0.03669
3943.45299	0.03642
3942.16722	0.03646
3940.88145	0.03648
3939.59569	0.03637
3938.30992	0.03622
3937.02415	0.03620
3935.73838	0.03643
3934.45261	0.03687
3933.16684	0.03726
3931.88107	0.03732
3930.59530	0.03711
3929.30953	0.03701
3928.02377	0.03732
3926.73800	0.03800
3925.45223	0.03883
3924.16646	0.03963
3922.88069	0.04021
3921.59492	0.04028
3920.30915	0.03962
3919.02338	0.03838
3917.73762	0.03712
3916.45185	0.03633
3915.16608	0.03619
3913.88031	0.03650
3912.59454	0.03696
3911.30877	0.03734
3910.02300	0.03753
3908.73723	0.03751
3907.45146	0.03729
3906.16570	0.03694
3904.87993	0.03657
3903.59416	0.03623
3902.30839	0.03589
3901.02262	0.03554
3899.73685	0.03528
3898.45108	0.03521
3897.16531	0.03529
3895.87955	0.03536
3894.59378	0.03537
3893.30801	0.03550
3892.02224	0.03591
3890.73647	0.03649
3889.45070	0.03693
3888.16493	0.03707
3886.87916	0.03698
3885.59339	0.03691
3884.30763	0.03705
3883.02186	0.03747
3881.73609	0.03795
3880.45032	0.03810
3879.16455	0.03777
3877.87878	0.03717
3876.59301	0.03672
3875.30724	0.03663
3874.02148	0.03676
3872.73571	0.03683
3871.44994	0.03664
3870.16417	0.03627
3868.87840	0.03602
3867.59263	0.03619
3866.30686	0.03682
3865.02109	0.03753
3863.73532	0.03783
3862.44956	0.03758
3861.16379	0.03702
3859.87802	0.03645
3858.59225	0.03603
3857.30648	0.03587
3856.02071	0.03613
3854.73494	0.03678
3853.44917	0.03748
3852.16341	0.03787
3850.87764	0.03793
3849.59187	0.03788
3848.30610	0.03783
3847.02033	0.03778
3845.73456	0.03768
3844.44879	0.03752
3843.16302	0.03717
3841.87725	0.03656
3840.59149	0.03582
3839.30572	0.03527
3838.01995	0.03513
3836.73418	0.03542
3835.44841	0.03602
3834.16264	0.03679
3832.87687	0.03744
3831.59110	0.03756
3830.30534	0.03702
3829.01957	0.03611
3827.73380	0.03531
3826.44803	0.03496
3825.16226	0.03515
3823.87649	0.03578
3822.59072	0.03652
3821.30495	0.03692
3820.01918	0.03680
3818.73342	0.03645
3817.44765	0.03626
3816.16188	0.03633
3814.87611	0.03630
3813.59034	0.03577
3812.30457	0.03466
3811.01880	0.03338
3809.73303	0.03255
3808.44726	0.03248
3807.16150	0.03292
3805.87573	0.03337
3804.58996	0.03370
3803.30419	0.03410
3802.01842	0.03476
3800.73265	0.03549
3799.44688	0.03603
3798.16111	0.03631
3796.87535	0.03649
3795.58958	0.03660
3794.30381	0.03655
3793.01804	0.03630
3791.73227	0.03591
3790.44650	0.03547
3789.16073	0.03504
3787.87496	0.03474
3786.58919	0.03470
3785.30343	0.03485
3784.01766	0.03502
3782.73189	0.03515
3781.44612	0.03545
3780.16035	0.03601
3778.87458	0.03655
3777.58881	0.03661
3776.30304	0.03607
3775.01728	0.03529
3773.73151	0.03481
3772.44574	0.03477
3771.15997	0.03493
3769.87420	0.03500
3768.58843	0.03495
3767.30266	0.03492
3766.01689	0.03499
3764.73112	0.03510
3763.44536	0.03526
3762.15959	0.03553
3760.87382	0.03597
3759.58805	0.03638
3758.30228	0.03642
3757.01651	0.03591
3755.73074	0.03501
3754.44497	0.03412
3753.15921	0.03374
3751.87344	0.03409
3750.58767	0.03493
3749.30190	0.03570
3748.01613	0.03609
3746.73036	0.03620
3745.44459	0.03617
3744.15882	0.03588
3742.87305	0.03518
3741.58729	0.03424
3740.30152	0.03345
3739.01575	0.03299
3737.72998	0.03277
3736.44421	0.03268
3735.15844	0.03289
3733.87267	0.03356
3732.58690	0.03435
3731.30114	0.03459
3730.01537	0.03394
3728.72960	0.03273
3727.44383	0.03175
3726.15806	0.03147
3724.87229	0.03174
3723.58652	0.03204
3722.30075	0.03185
3721.01498	0.03125
3719.72922	0.03079
3718.44345	0.03090
3717.15768	0.03143
3715.87191	0.03202
3714.58614	0.03255
3713.30037	0.03315
3712.01460	0.03367
3710.72883	0.03384
3709.44307	0.03357
3708.15730	0.03288
3706.87153	0.03201
3705.58576	0.03123
3704.29999	0.03070
3703.01422	0.03037
3701.72845	0.03002
3700.44268	0.02966
3699.15691	0.02960
3697.87115	0.03014
3696.58538	0.03113
3695.29961	0.03200
3694.01384	0.03242
3692.72807	0.03255
3691.44230	0.03285
3690.15653	0.03346
3688.87076	0.03406
3687.58500	0.03430
3686.29923	0.03416
3685.01346	0.03382
3683.72769	0.03350
3682.44192	0.03333
3681.15615	0.03337
3679.87038	0.03370
3678.58461	0.03435
3677.29884	0.03534
3676.01308	0.03652
3674.72731	0.03751
3673.44154	0.03788
3672.15577	0.03750
3670.87000	0.03661
3669.58423	0.03563
3668.29846	0.03488
3667.01269	0.03448
3665.72693	0.03448
3664.44116	0.03484
3663.15539	0.03531
3661.86962	0.03539
3660.58385	0.03493
3659.29808	0.03450
3658.01231	0.03488
3656.72654	0.03626
3655.44077	0.03788
3654.15501	0.03885
3652.86924	0.03893
3651.58347	0.03860
3650.29770	0.03839
3649.01193	0.03843
3647.72616	0.03861
3646.44039	0.03888
3645.15462	0.03921
3643.86886	0.03951
3642.58309	0.03963
3641.29732	0.03964
3640.01155	0.03980
3638.72578	0.04032
3637.44001	0.04106
3636.15424	0.04165
3634.86847	0.04191
3633.58270	0.04205
3632.29694	0.04245
3631.01117	0.04324
3629.72540	0.04408
3628.43963	0.04459
3627.15386	0.04463
3625.86809	0.04441
3624.58232	0.04420
3623.29655	0.04422
3622.01079	0.04452
3620.72502	0.04509
3619.43925	0.04573
3618.15348	0.04626
3616.86771	0.04671
3615.58194	0.04724
3614.29617	0.04798
3613.01040	0.04875
3611.72463	0.04918
3610.43887	0.04907
3609.15310	0.04870
3607.86733	0.04861
3606.58156	0.04909
3605.29579	0.04988
3604.01002	0.05050
3602.72425	0.05076
3601.43848	0.05079
3600.15272	0.05086
3598.86695	0.05109
3597.58118	0.05150
3596.29541	0.05199
3595.00964	0.05262
3593.72387	0.05340
3592.43810	0.05408
3591.15233	0.05440
3589.86656	0.05434
3588.58080	0.05407
3587.29503	0.05389
3586.00926	0.05383
3584.72349	0.05384
3583.43772	0.05408
3582.15195	0.05475
3580.86618	0.05570
3579.58041	0.05658
3578.29464	0.05716
3577.00888	0.05752
3575.72311	0.05788
3574.43734	0.05838
3573.15157	0.05907
3571.86580	0.05994
3570.58003	0.06093
3569.29426	0.06179
3568.00849	0.06220
3566.72273	0.06206
3565.43696	0.06167
3564.15119	0.06159
3562.86542	0.06210
3561.57965	0.06301
3560.29388	0.06390
3559.00811	0.06448
3557.72234	0.06474
3556.43657	0.06485
3555.15081	0.06499
3553.86504	0.06527
3552.57927	0.06571
3551.29350	0.06624
3550.00773	0.06673
3548.72196	0.06700
3547.43619	0.06697
3546.15042	0.06669
3544.86466	0.06625
3543.57889	0.06578
3542.29312	0.06547
3541.00735	0.06551
3539.72158	0.06604
3538.43581	0.06702
3537.15004	0.06833
3535.86427	0.06974
3534.57850	0.07095
3533.29274	0.07164
3532.00697	0.07175
3530.72120	0.07162
3529.43543	0.07165
3528.14966	0.07198
3526.86389	0.07242
3525.57812	0.07279
3524.29235	0.07316
3523.00659	0.07365
3521.72082	0.07418
3520.43505	0.07446
3519.14928	0.07437
3517.86351	0.07414
3516.57774	0.07414
3515.29197	0.07451
3514.00620	0.07513
3512.72043	0.07583
3511.43467	0.07646
3510.14890	0.07691
3508.86313	0.07703
3507.57736	0.07684
3506.29159	0.07664
3505.00582	0.07675
3503.72005	0.07720
3502.43428	0.07778
3501.14852	0.07830
3499.86275	0.07883
3498.57698	0.07948
3497.29121	0.08022
3496.00544	0.08091
3494.71967	0.08143
3493.43390	0.08173
3492.14813	0.08179
3490.86236	0.08161
3489.57660	0.08129
3488.29083	0.08100
3487.00506	0.08089
3485.71929	0.08102
3484.43352	0.08138
3483.14775	0.08195
3481.86198	0.08264
3480.57621	0.08329
3479.29045	0.08382
3478.00468	0.08422
3476.71891	0.08447
3475.43314	0.08455
3474.14737	0.08451
3472.86160	0.08460
3471.57583	0.08500
3470.29006	0.08563
3469.00429	0.08625
3467.71853	0.08664
3466.43276	0.08673
3465.14699	0.08658
3463.86122	0.08636
3462.57545	0.08623
3461.28968	0.08623
3460.00391	0.08625
3458.71814	0.08625
3457.43238	0.08643
3456.14661	0.08700
3454.86084	0.08789
3453.57507	0.08877
3452.28930	0.08935
3451.00353	0.08958
3449.71776	0.08953
3448.43199	0.08922
3447.14622	0.08872
3445.86046	0.08823
3444.57469	0.08807
3443.28892	0.08851
3442.00315	0.08953
3440.71738	0.09084
3439.43161	0.09193
3438.14584	0.09240
3436.86007	0.09214
3435.57431	0.09145
3434.28854	0.09077
3433.00277	0.09035
3431.71700	0.09017
3430.43123	0.09013
3429.14546	0.09029
3427.85969	0.09073
3426.57392	0.09145
3425.28815	0.09224
3424.00239	0.09288
3422.71662	0.09330
3421.43085	0.09353
3420.14508	0.09368
3418.85931	0.09384
3417.57354	0.09396
3416.28777	0.09397
3415.00200	0.09386
3413.71624	0.09373
3412.43047	0.09371
3411.14470	0.09385
3409.85893	0.09401
3408.57316	0.09409
3407.28739	0.09412
3406.00162	0.09428
3404.71585	0.09466
3403.43008	0.09513
3402.14432	0.09548
3400.85855	0.09550
3399.57278	0.09515
3398.28701	0.09463
3397.00124	0.09417
3395.71547	0.09398
3394.42970	0.09419
3393.14393	0.09472
3391.85817	0.09536
3390.57240	0.09592
3389.28663	0.09636
3388.00086	0.09674
3386.71509	0.09712
3385.42932	0.09746
3384.14355	0.09765
3382.85778	0.09761
3381.57201	0.09731
3380.28625	0.09681
3379.00048	0.09621
3377.71471	0.09570
3376.42894	0.09543
3375.14317	0.09546
3373.85740	0.09577
3372.57163	0.09626
3371.28586	0.09683
3370.00010	0.09728
3368.71433	0.09743
3367.42856	0.09720
3366.14279	0.09675
3364.85702	0.09640
3363.57125	0.09638
3362.28548	0.09663
3360.99971	0.09688
3359.71394	0.09691
3358.42818	0.09666
3357.14241	0.09632
3355.85664	0.09618
3354.57087	0.09651
3353.28510	0.09724
3351.99933	0.09796
3350.71356	0.09822
3349.42779	0.09789
3348.14202	0.09733
3346.85626	0.09693
3345.57049	0.09684
3344.28472	0.09689
3342.99895	0.09686
3341.71318	0.09670
3340.42741	0.09648
3339.14164	0.09625
3337.85587	0.09600
3336.57011	0.09577
3335.28434	0.09567
3333.99857	0.09581
3332.71280	0.09613
3331.42703	0.09641
3330.14126	0.09637
3328.85549	0.09596
3327.56972	0.09541
3326.28395	0.09511
3324.99819	0.09530
3323.71242	0.09596
3322.42665	0.09684
3321.14088	0.09766
3319.85511	0.09818
3318.56934	0.09828
3317.28357	0.09793
3315.99780	0.09722
3314.71204	0.09632
3313.42627	0.09553
3312.14050	0.09512
3310.85473	0.09509
3309.56896	0.09516
3308.28319	0.09503
3306.99742	0.09471
3305.71165	0.09439
3304.42588	0.09418
3303.14012	0.09401
3301.85435	0.09379
3300.56858	0.09358
3299.28281	0.09345
3297.99704	0.09340
3296.71127	0.09338
3295.42550	0.09338
3294.13973	0.09346
3292.85397	0.09362
3291.56820	0.09380
3290.28243	0.09385
3288.99666	0.09365
3287.71089	0.09322
3286.42512	0.09277
3285.13935	0.09263
3283.85358	0.09289
3282.56781	0.09325
3281.28205	0.09329
3279.99628	0.09291
3278.71051	0.09240
3277.42474	0.09217
3276.13897	0.09236
3274.85320	0.09282
3273.56743	0.09327
3272.28166	0.09359
3270.99590	0.09374
3269.71013	0.09368
3268.42436	0.09335
3267.13859	0.09289
3265.85282	0.09257
3264.56705	0.09257
3263.28128	0.09277
3261.99551	0.09295
3260.70974	0.09302
3259.42398	0.09300
3258.13821	0.09301
3256.85244	0.09308
3255.56667	0.09310
3254.28090	0.09295
3252.99513	0.09261
3251.70936	0.09220
3250.42359	0.09186
3249.13783	0.09156
3247.85206	0.09122
3246.56629	0.09082
3245.28052	0.09058
3243.99475	0.09068
3242.70898	0.09107
3241.42321	0.09140
3240.13744	0.09131
3238.85167	0.09078
3237.56591	0.09019
3236.28014	0.08995
3234.99437	0.09018
3233.70860	0.09063
3232.42283	0.09084
3231.13706	0.09059
3229.85129	0.09001
3228.56552	0.08947
3227.27976	0.08926
3225.99399	0.08934
3224.70822	0.08948
3223.42245	0.08947
3222.13668	0.08931
3220.85091	0.08906
3219.56514	0.08883
3218.27937	0.08864
3216.99360	0.08853
3215.70784	0.08860
3214.42207	0.08892
3213.13630	0.08943
3211.85053	0.08985
3210.56476	0.08987
3209.27899	0.08937
3207.99322	0.08853
3206.70745	0.08766
3205.42169	0.08701
3204.13592	0.08663
3202.85015	0.08643
3201.56438	0.08630
3200.27861	0.08622
3198.99284	0.08630
3197.70707	0.08661
3196.42130	0.08706
3195.13553	0.08736
3193.84977	0.08729
3192.56400	0.08689
3191.27823	0.08643
3189.99246	0.08610
3188.70669	0.08588
3187.42092	0.08565
3186.13515	0.08541
3184.84938	0.08526
3183.56362	0.08522
3182.27785	0.08528
3180.99208	0.08544
3179.70631	0.08561
3178.42054	0.08557
3177.13477	0.08520
3175.84900	0.08461
3174.56323	0.08403
3173.27746	0.08358
3171.99170	0.08319
3170.70593	0.08284
3169.42016	0.08262
3168.13439	0.08262
3166.84862	0.08284
3165.56285	0.08315
3164.27708	0.08337
3162.99131	0.08338
3161.70555	0.08312
3160.41978	0.08268
3159.13401	0.08223
3157.84824	0.08188
3156.56247	0.08158
3155.27670	0.08129
3153.99093	0.08107
3152.70516	0.08100
3151.41939	0.08101
3150.13363	0.08091
3148.84786	0.08065
3147.56209	0.08040
3146.27632	0.08028
3144.99055	0.08027
3143.70478	0.08023
3142.41901	0.08005
3141.13324	0.07971
3139.84748	0.07931
3138.56171	0.07897
3137.27594	0.07878
3135.99017	0.07869
3134.70440	0.07860
3133.41863	0.07839
3132.13286	0.07803
3130.84709	0.07756
3129.56132	0.07712
3128.27556	0.07687
3126.98979	0.07693
3125.70402	0.07727
3124.41825	0.07769
3123.13248	0.07797
3121.84671	0.07789
3120.56094	0.07745
3119.27517	0.07684
3117.98940	0.07635
3116.70364	0.07617
3115.41787	0.07625
3114.13210	0.07637
3112.84633	0.07635
3111.56056	0.07616
3110.27479	0.07593
3108.98902	0.07584
3107.70325	0.07593
3106.41749	0.07615
3105.13172	0.07638
3103.84595	0.07656
3102.56018	0.07667
3101.27441	0.07667
3099.98864	0.07654
3098.70287	0.07622
3097.41710	0.07570
3096.13133	0.07502
3094.84557	0.07431
3093.55980	0.07372
3092.27403	0.07332
3090.98826	0.07310
3089.70249	0.07307
3088.41672	0.07320
3087.13095	0.07339
3085.84518	0.07348
3084.55942	0.07340
3083.27365	0.07315
3081.98788	0.07279
3080.70211	0.07238
3079.41634	0.07202
3078.13057	0.07183
3076.84480	0.07180
3075.55903	0.07178
3074.27326	0.07162
3072.98750	0.07122
3071.70173	0.07066
3070.41596	0.07013
3069.13019	0.06986
3067.84442	0.06994
3066.55865	0.07025
3065.27288	0.07048
3063.98711	0.07041
3062.70135	0.07010
3061.41558	0.06976
3060.12981	0.06956
3058.84404	0.06953
3057.55827	0.06963
3056.27250	0.06970
3054.98673	0.06960
3053.70096	0.06923
3052.41519	0.06870
3051.12943	0.06821
3049.84366	0.06790
3048.55789	0.06781
3047.27212	0.06787
3045.98635	0.06795
3044.70058	0.06788
3043.41481	0.06754
3042.12904	0.06700
3040.84328	0.06649
3039.55751	0.06618
3038.27174	0.06607
3036.98597	0.06601
3035.70020	0.06593
3034.41443	0.06591
3033.12866	0.06604
3031.84289	0.06628
3030.55712	0.06646
3029.27136	0.06641
3027.98559	0.06617
3026.69982	0.06588
3025.41405	0.06566
3024.12828	0.06553
3022.84251	0.06551
3021.55674	0.06563
3020.27097	0.06589
3018.98521	0.06616
3017.69944	0.06628
3016.41367	0.06622
3015.12790	0.06607
3013.84213	0.06590
3012.55636	0.06570
3011.27059	0.06548
3009.98482	0.06529
3008.69905	0.06523
3007.41329	0.06534
3006.12752	0.06550
3004.84175	0.06549
3003.55598	0.06517
3002.27021	0.06456
3000.98444	0.06385
2999.69867	0.06328
2998.41290	0.06308
2997.12714	0.06319
2995.84137	0.06338
2994.55560	0.06342
2993.26983	0.06325
2991.98406	0.06305
2990.69829	0.06301
2989.41252	0.06313
2988.12675	0.06327
2986.84098	0.06341
2985.55522	0.06370
2984.26945	0.06419
2982.98368	0.06475
2981.69791	0.06521
2980.41214	0.06555
2979.12637	0.06594
2977.84060	0.06647
2976.55483	0.06714
2975.26907	0.06784
2973.98330	0.06846
2972.69753	0.06896
2971.41176	0.06942
2970.12599	0.06995
2968.84022	0.07067
2967.55445	0.07162
2966.26868	0.07274
2964.98291	0.07388
2963.69715	0.07491
2962.41138	0.07579
2961.12561	0.07653
2959.83984	0.07715
2958.55407	0.07764
2957.26830	0.07805
2955.98253	0.07844
2954.69676	0.07880
2953.41100	0.07903
2952.12523	0.07910
2950.83946	0.07915
2949.55369	0.07931
2948.26792	0.07955
2946.98215	0.07966
2945.69638	0.07944
2944.41061	0.07895
2943.12484	0.07848
2941.83908	0.07835
2940.55331	0.07868
2939.26754	0.07940
2937.98177	0.08035
2936.69600	0.08137
2935.41023	0.08228
2934.12446	0.08300
2932.83869	0.08356
2931.55293	0.08409
2930.26716	0.08470
2928.98139	0.08541
2927.69562	0.08619
2926.40985	0.08698
2925.12408	0.08762
2923.83831	0.08792
2922.55254	0.08781
2921.26677	0.08740
2919.98101	0.08683
2918.69524	0.08615
2917.40947	0.08532
2916.12370	0.08432
2914.83793	0.08323
2913.55216	0.08216
2912.26639	0.08120
2910.98062	0.08039
2909.69486	0.07971
2908.40909	0.07919
2907.12332	0.07881
2905.83755	0.07848
2904.55178	0.07804
2903.26601	0.07741
2901.98024	0.07667
2900.69447	0.07592
2899.40870	0.07517
2898.12294	0.07439
2896.83717	0.07365
2895.55140	0.07307
2894.26563	0.07261
2892.97986	0.07210
2891.69409	0.07137
2890.40832	0.07047
2889.12255	0.06963
2887.83678	0.06907
2886.55102	0.06886
2885.26525	0.06883
2883.97948	0.06879
2882.69371	0.06864
2881.40794	0.06847
2880.12217	0.06843
2878.83640	0.06867
2877.55063	0.06910
2876.26487	0.06951
2874.97910	0.06972
2873.69333	0.06975
2872.40756	0.06978
2871.12179	0.06996
2869.83602	0.07020
2868.55025	0.07031
2867.26448	0.07018
2865.97871	0.06993
2864.69295	0.06981
2863.40718	0.06991
2862.12141	0.07015
2860.83564	0.07034
2859.54987	0.07041
2858.26410	0.07041
2856.97833	0.07037
2855.69256	0.07020
2854.40680	0.06982
2853.12103	0.06929
2851.83526	0.06877
2850.54949	0.06833
2849.26372	0.06788
2847.97795	0.06726
2846.69218	0.06642
2845.40641	0.06543
2844.12064	0.06439
2842.83488	0.06340
2841.54911	0.06255
2840.26334	0.06188
2838.97757	0.06129
2837.69180	0.06061
2836.40603	0.05978
2835.12026	0.05894
2833.83449	0.05823
2832.54873	0.05769
2831.26296	0.05723
2829.97719	0.05679
2828.69142	0.05637
2827.40565	0.05599
2826.11988	0.05564
2824.83411	0.05523
2823.54834	0.05479
2822.26257	0.05436
2820.97681	0.05397
2819.69104	0.05360
2818.40527	0.05322
2817.11950	0.05289
2815.83373	0.05269
2814.54796	0.05264
2813.26219	0.05261
2811.97642	0.05251
2810.69066	0.05228
2809.40489	0.05200
2808.11912	0.05179
2806.83335	0.05166
2805.54758	0.05158
2804.26181	0.05147
2802.97604	0.05132
2801.69027	0.05116
2800.40450	0.05103
2799.11874	0.05090
2797.83297	0.05074
2796.54720	0.05047
2795.26143	0.05013
2793.97566	0.04981
2792.68989	0.04959
2791.40412	0.04950
2790.11835	0.04949
2788.83259	0.04955
2787.54682	0.04963
2786.26105	0.04962
2784.97528	0.04942
2783.68951	0.04905
2782.40374	0.04865
2781.11797	0.04833
2779.83220	0.04815
2778.54643	0.04807
2777.26067	0.04800
2775.97490	0.04788
2774.68913	0.04779
2773.40336	0.04781
2772.11759	0.04787
2770.83182	0.04782
2769.54605	0.04758
2768.26028	0.04733
2766.97452	0.04724
2765.68875	0.04735
2764.40298	0.04750
2763.11721	0.04758
2761.83144	0.04753
2760.54567	0.04740
2759.25990	0.04728
2757.97413	0.04721
2756.68836	0.04719
2755.40260	0.04713
2754.11683	0.04697
2752.83106	0.04677
2751.54529	0.04663
2750.25952	0.04659
2748.97375	0.04664
2747.68798	0.04669
2746.40221	0.04663
2745.11645	0.04641
2743.83068	0.04613
2742.54491	0.04590
2741.25914	0.04571
2739.97337	0.04550
2738.68760	0.04528
2737.40183	0.04517
2736.11606	0.04520
2734.83029	0.04531
2733.54453	0.04542
2732.25876	0.04544
2730.97299	0.04532
2729.68722	0.04507
2728.40145	0.04484
2727.11568	0.04476
2725.82991	0.04480
2724.54414	0.04479
2723.25838	0.04463
2721.97261	0.04442
2720.68684	0.04437
2719.40107	0.04451
2718.11530	0.04468
2716.82953	0.04474
2715.54376	0.04475
2714.25799	0.04478
2712.97222	0.04479
2711.68646	0.04471
2710.40069	0.04447
2709.11492	0.04413
2707.82915	0.04376
2706.54338	0.04350
2705.25761	0.04346
2703.97184	0.04358
2702.68607	0.04364
2701.40031	0.04347
2700.11454	0.04317
2698.82877	0.04293
2697.54300	0.04286
2696.25723	0.04284
2694.97146	0.04277
2693.68569	0.04268
2692.39992	0.04264
2691.11415	0.04266
2689.82839	0.04267
2688.54262	0.04269
2687.25685	0.04278
2685.97108	0.04295
2684.68531	0.04313
2683.39954	0.04318
2682.11377	0.04310
2680.82800	0.04291
2679.54224	0.04264
2678.25647	0.04234
2676.97070	0.04207
2675.68493	0.04189
2674.39916	0.04178
2673.11339	0.04173
2671.82762	0.04175
2670.54185	0.04186
2669.25608	0.04198
2667.97032	0.04197
2666.68455	0.04179
2665.39878	0.04156
2664.11301	0.04148
2662.82724	0.04158
2661.54147	0.04175
2660.25570	0.04187
2658.96993	0.04193
2657.68417	0.04196
2656.39840	0.04195
2655.11263	0.04185
2653.82686	0.04165
2652.54109	0.04144
2651.25532	0.04129
2649.96955	0.04114
2648.68378	0.04089
2647.39801	0.04055
2646.11225	0.04025
2644.82648	0.04004
2643.54071	0.03988
2642.25494	0.03968
2640.96917	0.03946
2639.68340	0.03925
2638.39763	0.03902
2637.11186	0.03877
2635.82609	0.03852
2634.54033	0.03831
2633.25456	0.03815
2631.96879	0.03802
2630.68302	0.03794
2629.39725	0.03788
2628.11148	0.03779
2626.82571	0.03763
2625.53994	0.03739
2624.25418	0.03707
2622.96841	0.03668
2621.68264	0.03629
2620.39687	0.03604
2619.11110	0.03606
2617.82533	0.03629
2616.53956	0.03655
2615.25379	0.03667
2613.96802	0.03657
2612.68226	0.03629
2611.39649	0.03589
2610.11072	0.03552
2608.82495	0.03520
2607.53918	0.03487
2606.25341	0.03449
2604.96764	0.03421
2603.68187	0.03420
2602.39611	0.03442
2601.11034	0.03462
2599.82457	0.03463
2598.53880	0.03449
2597.25303	0.03427
2595.96726	0.03399
2594.68149	0.03367
2593.39572	0.03337
2592.10995	0.03323
2590.82419	0.03335
2589.53842	0.03373
2588.25265	0.03419
2586.96688	0.03449
2585.68111	0.03449
2584.39534	0.03425
2583.10957	0.03398
2581.82380	0.03373
2580.53804	0.03344
2579.25227	0.03309
2577.96650	0.03280
2576.68073	0.03271
2575.39496	0.03284
2574.10919	0.03306
2572.82342	0.03316
2571.53765	0.03296
2570.25188	0.03249
2568.96612	0.03197
2567.68035	0.03171
2566.39458	0.03181
2565.10881	0.03209
2563.82304	0.03231
2562.53727	0.03241
2561.25150	0.03247
2559.96573	0.03257
2558.67997	0.03258
2557.39420	0.03236
2556.10843	0.03196
2554.82266	0.03157
2553.53689	0.03139
2552.25112	0.03146
2550.96535	0.03163
2549.67958	0.03170
2548.39381	0.03161
2547.10805	0.03137
2545.82228	0.03107
2544.53651	0.03077
2543.25074	0.03053
2541.96497	0.03040
2540.67920	0.03040
2539.39343	0.03053
2538.10766	0.03069
2536.82190	0.03064
2535.53613	0.03029
2534.25036	0.02980
2532.96459	0.02949
2531.67882	0.02954
2530.39305	0.02987
2529.10728	0.03026
2527.82151	0.03052
2526.53574	0.03063
2525.24998	0.03070
2523.96421	0.03080
2522.67844	0.03084
2521.39267	0.03064
2520.10690	0.03018
2518.82113	0.02968
2517.53536	0.02939
2516.24959	0.02941
2514.96383	0.02960
2513.67806	0.02972
2512.39229	0.02971
2511.10652	0.02970
2509.82075	0.02978
2508.53498	0.02984
2507.24921	0.02969
2505.96344	0.02938
2504.67767	0.02925
2503.39191	0.02945
2502.10614	0.02969
2500.82037	0.02957
2499.53460	0.02912
2498.24883	0.02870
2496.96306	0.02863
2495.67729	0.02886
2494.39152	0.02925
2493.10576	0.02965
2491.81999	0.02995
2490.53422	0.03007
2489.24845	0.03006
2487.96268	0.03008
2486.67691	0.03017
2485.39114	0.03023
2484.10537	0.03010
2482.81960	0.02979
2481.53384	0.02942
2480.24807	0.02914
2478.96230	0.02905
2477.67653	0.02908
2476.39076	0.02909
2475.10499	0.02891
2473.81922	0.02855
2472.53345	0.02821
2471.24769	0.02815
2469.96192	0.02842
2468.67615	0.02884
2467.39038	0.02915
2466.10461	0.02927
2464.81884	0.02925
2463.53307	0.02916
2462.24730	0.02904
2460.96153	0.02894
2459.67577	0.02892
2458.39000	0.02905
2457.10423	0.02932
2455.81846	0.02958
2454.53269	0.02964
2453.24692	0.02948
2451.96115	0.02930
2450.67538	0.02925
2449.38962	0.02926
2448.10385	0.02915
2446.81808	0.02891
2445.53231	0.02863
2444.24654	0.02844
2442.96077	0.02834
2441.67500	0.02826
2440.38923	0.02815
2439.10346	0.02800
2437.81770	0.02785
2436.53193	0.02767
2435.24616	0.02745
2433.96039	0.02724
2432.67462	0.02718
2431.38885	0.02731
2430.10308	0.02750
2428.81731	0.02757
2427.53155	0.02749
2426.24578	0.02734
2424.96001	0.02722
2423.67424	0.02722
2422.38847	0.02732
2421.10270	0.02744
2419.81693	0.02750
2418.53116	0.02746
2417.24539	0.02733
2415.95963	0.02713
2414.67386	0.02693
2413.38809	0.02682
2412.10232	0.02686
2410.81655	0.02702
2409.53078	0.02717
2408.24501	0.02724
2406.95924	0.02725
2405.67347	0.02721
2404.38771	0.02709
2403.10194	0.02683
2401.81617	0.02654
2400.53040	0.02643
2399.24463	0.02684
2397.95886	0.02731
2396.67309	0.02755
2395.38732	0.02748
2394.10156	0.02712
2392.81579	0.02663
2391.53002	0.02618
2390.24425	0.02592
2388.95848	0.02588
2387.67271	0.02596
2386.38694	0.02597
2385.10117	0.02582
2383.81540	0.02549
2382.52964	0.02509
2381.24387	0.02471
2379.95810	0.02442
2378.67233	0.02413
2377.38656	0.02373
2376.10079	0.02339
2374.81502	0.02310
2373.52925	0.02263
2372.24349	0.02187
2370.95772	0.02078
2369.67195	0.01985
2368.38618	0.01913
2367.10041	0.01815
2365.81464	0.01688
2364.52887	0.01592
2363.24310	0.01526
2361.95733	0.01470
2360.67157	0.01463
2359.38580	0.01563
2358.10003	0.01723
2356.81426	0.01870
2355.52849	0.01976
2354.24272	0.02042
2352.95695	0.02100
2351.67118	0.02126
2350.38542	0.02071
2349.09965	0.02030
2347.81388	0.02110
2346.52811	0.02202
2345.24234	0.02172
2343.95657	0.02088
2342.67080	0.02106
2341.38503	0.02227
2340.09926	0.02354
2338.81350	0.02430
2337.52773	0.02419
2336.24196	0.02355
2334.95619	0.02264
2333.67042	0.02185
2332.38465	0.02183
2331.09888	0.02242
2329.81311	0.02323
2328.52735	0.02425
2327.24158	0.02503
2325.95581	0.02538
2324.67004	0.02562
2323.38427	0.02567
2322.09850	0.02554
2320.81273	0.02540
2319.52696	0.02500
2318.24119	0.02436
2316.95543	0.02398
2315.66966	0.02408
2314.38389	0.02445
2313.09812	0.02475
2311.81235	0.02490
2310.52658	0.02495
2309.24081	0.02497
2307.95504	0.02505
2306.66928	0.02520
2305.38351	0.02527
2304.09774	0.02525
2302.81197	0.02514
2301.52620	0.02494
2300.24043	0.02464
2298.95466	0.02431
2297.66889	0.02406
2296.38312	0.02391
2295.09736	0.02385
2293.81159	0.02387
2292.52582	0.02396
2291.24005	0.02414
2289.95428	0.02440
2288.66851	0.02467
2287.38274	0.02484
2286.09697	0.02485
2284.81121	0.02468
2283.52544	0.02436
2282.23967	0.02393
2280.95390	0.02343
2279.66813	0.02296
2278.38236	0.02264
2277.09659	0.02254
2275.81082	0.02262
2274.52505	0.02279
2273.23929	0.02294
2271.95352	0.02301
2270.66775	0.02295
2269.38198	0.02275
2268.09621	0.02241
2266.81044	0.02194
2265.52467	0.02145
2264.23890	0.02115
2262.95314	0.02108
2261.66737	0.02112
2260.38160	0.02105
2259.09583	0.02074
2257.81006	0.02033
2256.52429	0.01998
2255.23852	0.01978
2253.95275	0.01976
2252.66698	0.01990
2251.38122	0.02017
2250.09545	0.02040
2248.80968	0.02031
2247.52391	0.01956
2246.23814	0.01862
2244.95237	0.01806
2243.66660	0.01818
2242.38083	0.01872
2241.09507	0.01924
2239.80930	0.01944
2238.52353	0.01938
2237.23776	0.01927
2235.95199	0.01921
2234.66622	0.01912
2233.38045	0.01884
2232.09468	0.01851
2230.80891	0.01840
2229.52315	0.01855
2228.23738	0.01862
2226.95161	0.01837
2225.66584	0.01792
2224.38007	0.01741
2223.09430	0.01673
2221.80853	0.01571
2220.52276	0.01464
2219.23700	0.01411
2217.95123	0.01442
2216.66546	0.01515
2215.37969	0.01557
2214.09392	0.01529
2212.80815	0.01448
2211.52238	0.01360
2210.23661	0.01307
2208.95084	0.01303
2207.66508	0.01328
2206.37931	0.01350
2205.09354	0.01352
2203.80777	0.01343
2202.52200	0.01340
2201.23623	0.01350
2199.95046	0.01368
2198.66469	0.01376
2197.37893	0.01372
2196.09316	0.01381
2194.80739	0.01431
2193.52162	0.01511
2192.23585	0.01565
2190.95008	0.01544
2189.66431	0.01433
2188.37854	0.01267
2187.09277	0.01101
2185.80701	0.00977
2184.52124	0.00901
2183.23547	0.00869
2181.94970	0.00897
2180.66393	0.00989
2179.37816	0.01096
2178.09239	0.01152
2176.80662	0.01143
2175.52085	0.01120
2174.23509	0.01125
2172.94932	0.01150
2171.66355	0.01163
2170.37778	0.01148
2169.09201	0.01108
2167.80624	0.01036
2166.52047	0.00919
2165.23470	0.00790
2163.94894	0.00714
2162.66317	0.00717
2161.37740	0.00744
2160.09163	0.00710
2158.80586	0.00600
2157.52009	0.00475
2156.23432	0.00408
2154.94855	0.00428
2153.66278	0.00514
2152.37702	0.00628
2151.09125	0.00751
2149.80548	0.00885
2148.51971	0.01021
2147.23394	0.01122
2145.94817	0.01155
2144.66240	0.01122
2143.37663	0.01076
2142.09087	0.01086
2140.80510	0.01181
2139.51933	0.01311
2138.23356	0.01380
2136.94779	0.01345
2135.66202	0.01255
2134.37625	0.01193
2133.09048	0.01195
2131.80471	0.01243
2130.51895	0.01296
2129.23318	0.01332
2127.94741	0.01347
2126.66164	0.01344
2125.37587	0.01326
2124.09010	0.01299
2122.80433	0.01274
2121.51856	0.01276
2120.23280	0.01324
2118.94703	0.01403
2117.66126	0.01468
2116.37549	0.01484
2115.08972	0.01462
2113.80395	0.01438
2112.51818	0.01422
2111.23241	0.01399
2109.94664	0.01363
2108.66088	0.01337
2107.37511	0.01342
2106.08934	0.01379
2104.80357	0.01430
2103.51780	0.01476
2102.23203	0.01500
2100.94626	0.01488
2099.66049	0.01485
2098.37473	0.01423
2097.08896	0.01335
2095.80319	0.01281
2094.51742	0.01290
2093.23165	0.01343
2091.94588	0.01387
2090.66011	0.01385
2089.37434	0.01352
2088.08857	0.01332
2086.80281	0.01350
2085.51704	0.01382
2084.23127	0.01383
2082.94550	0.01341
2081.65973	0.01288
2080.37396	0.01268
2079.08819	0.01285
2077.80242	0.01313
2076.51666	0.01314
2075.23089	0.01268
2073.94512	0.01183
2072.65935	0.01094
2071.37358	0.01045
2070.08781	0.01061
2068.80204	0.01127
2067.51627	0.01189
2066.23050	0.01194
2064.94474	0.01128
2063.65897	0.01032
2062.37320	0.00962
2061.08743	0.00944
2059.80166	0.00964
2058.51589	0.00992
2057.23012	0.01004
2055.94435	0.01002
2054.65859	0.00999
2053.37282	0.01010
2052.08705	0.01032
2050.80128	0.01049
2049.51551	0.01039
2048.22974	0.00980
2046.94397	0.00867
2045.65820	0.00719
2044.37243	0.00587
2043.08667	0.00525
2041.80090	0.00557
2040.51513	0.00660
2039.22936	0.00773
2037.94359	0.00839
2036.65782	0.00841
2035.37205	0.00810
2034.08628	0.00777
2032.80052	0.00740
2031.51475	0.00668
2030.22898	0.00552
2028.94321	0.00431
2027.65744	0.00365
2026.37167	0.00385
2025.08590	0.00455
2023.80013	0.00518
2022.51436	0.00552
2021.22860	0.00582
2019.94283	0.00633
2018.65706	0.00693
2017.37129	0.00734
2016.08552	0.00747
2014.79975	0.00744
2013.51398	0.00742
2012.22821	0.00738
2010.94245	0.00718
2009.65668	0.00668
2008.37091	0.00602
2007.08514	0.00569
2005.79937	0.00615
2004.51360	0.00725
2003.22783	0.00827
2001.94206	0.00863
2000.65629	0.00840
1999.37053	0.00817
1998.08476	0.00842
1996.79899	0.00910
1995.51322	0.00970
1994.22745	0.00977
1992.94168	0.00941
1991.65591	0.00904
1990.37014	0.00901
1989.08438	0.00938
1987.79861	0.01000
1986.51284	0.01070
1985.22707	0.01130
1983.94130	0.01172
1982.65553	0.01198
1981.36976	0.01212
1980.08399	0.01204
1978.79822	0.01169
1977.51246	0.01120
1976.22669	0.01076
1974.94092	0.01035
1973.65515	0.00991
1972.36938	0.00954
1971.08361	0.00956
1969.79784	0.01006
1968.51207	0.01068
1967.22631	0.01093
1965.94054	0.01062
1964.65477	0.00994
1963.36900	0.00917
1962.08323	0.00854
1960.79746	0.00836
1959.51169	0.00882
1958.22592	0.00969
1956.94015	0.01043
1955.65439	0.01065
1954.36862	0.01048
1953.08285	0.01026
1951.79708	0.01028
1950.51131	0.01069
1949.22554	0.01137
1947.93977	0.01204
1946.65400	0.01237
1945.36823	0.01233
1944.08247	0.01220
1942.79670	0.01228
1941.51093	0.01265
1940.22516	0.01317
1938.93939	0.01371
1937.65362	0.01416
1936.36785	0.01447
1935.08208	0.01461
1933.79632	0.01457
1932.51055	0.01438
1931.22478	0.01406
1929.93901	0.01366
1928.65324	0.01323
1927.36747	0.01288
1926.08170	0.01271
1924.79593	0.01273
1923.51016	0.01288
1922.22440	0.01306
1920.93863	0.01324
1919.65286	0.01343
1918.36709	0.01359
1917.08132	0.01366
1915.79555	0.01368
1914.50978	0.01381
1913.22401	0.01414
1911.93825	0.01451
1910.65248	0.01466
1909.36671	0.01445
1908.08094	0.01410
1906.79517	0.01388
1905.50940	0.01390
1904.22363	0.01406
1902.93786	0.01420
1901.65209	0.01430
1900.36633	0.01447
1899.08056	0.01475
1897.79479	0.01506
1896.50902	0.01521
1895.22325	0.01512
1893.93748	0.01489
1892.65171	0.01475
1891.36594	0.01485
1890.08018	0.01512
1888.79441	0.01542
1887.50864	0.01564
1886.22287	0.01576
1884.93710	0.01574
1883.65133	0.01551
1882.36556	0.01512
1881.07979	0.01475
1879.79402	0.01456
1878.50826	0.01460
1877.22249	0.01483
1875.93672	0.01517
1874.65095	0.01552
1873.36518	0.01582
1872.07941	0.01610
1870.79364	0.01635
1869.50787	0.01651
1868.22211	0.01648
1866.93634	0.01627
1865.65057	0.01601
1864.36480	0.01585
1863.07903	0.01580
1861.79326	0.01580
1860.50749	0.01578
1859.22172	0.01569
1857.93595	0.01556
1856.65019	0.01541
1855.36442	0.01531
1854.07865	0.01527
1852.79288	0.01527
1851.50711	0.01525
1850.22134	0.01525
1848.93557	0.01532
1847.64980	0.01550
1846.36404	0.01574
1845.07827	0.01592
1843.79250	0.01598
1842.50673	0.01593
1841.22096	0.01584
1839.93519	0.01576
1838.64942	0.01573
1837.36365	0.01572
1836.07788	0.01568
1834.79212	0.01559
1833.50635	0.01551
1832.22058	0.01552
1830.93481	0.01564
1829.64904	0.01578
1828.36327	0.01585
1827.07750	0.01581
1825.79173	0.01573
1824.50597	0.01572
1823.22020	0.01585
1821.93443	0.01607
1820.64866	0.01625
1819.36289	0.01625
1818.07712	0.01605
1816.79135	0.01579
1815.50558	0.01564
1814.21981	0.01567
1812.93405	0.01579
1811.64828	0.01588
1810.36251	0.01591
1809.07674	0.01590
1807.79097	0.01591
1806.50520	0.01595
1805.21943	0.01603
1803.93366	0.01614
1802.64790	0.01630
1801.36213	0.01646
1800.07636	0.01653
1798.79059	0.01650
1797.50482	0.01645
1796.21905	0.01650
1794.93328	0.01671
1793.64751	0.01703
1792.36174	0.01731
1791.07598	0.01746
1789.79021	0.01748
1788.50444	0.01745
1787.21867	0.01745
1785.93290	0.01748
1784.64713	0.01751
1783.36136	0.01754
1782.07559	0.01760
1780.78983	0.01771
1779.50406	0.01786
1778.21829	0.01804
1776.93252	0.01825
1775.64675	0.01850
1774.36098	0.01877
1773.07521	0.01896
1771.78944	0.01904
1770.50367	0.01906
1769.21791	0.01906
1767.93214	0.01905
1766.64637	0.01903
1765.36060	0.01908
1764.07483	0.01923
1762.78906	0.01946
1761.50329	0.01970
1760.21752	0.01989
1758.93176	0.02003
1757.64599	0.02013
1756.36022	0.02022
1755.07445	0.02034
1753.78868	0.02049
1752.50291	0.02061
1751.21714	0.02063
1749.93137	0.02051
1748.64560	0.02035
1747.35984	0.02025
1746.07407	0.02028
1744.78830	0.02041
1743.50253	0.02060
1742.21676	0.02081
1740.93099	0.02103
1739.64522	0.02123
1738.35945	0.02146
1737.07369	0.02179
1735.78792	0.02221
1734.50215	0.02260
1733.21638	0.02281
1731.93061	0.02288
1730.64484	0.02290
1729.35907	0.02295
1728.07330	0.02303
1726.78753	0.02313
1725.50177	0.02327
1724.21600	0.02346
1722.93023	0.02373
1721.64446	0.02412
1720.35869	0.02468
1719.07292	0.02535
1717.78715	0.02595
1716.50138	0.02634
1715.21561	0.02655
1713.92985	0.02667
1712.64408	0.02685
1711.35831	0.02713
1710.07254	0.02753
1708.78677	0.02802
1707.50100	0.02856
1706.21523	0.02910
1704.92946	0.02965
1703.64370	0.03025
1702.35793	0.03091
1701.07216	0.03151
1699.78639	0.03194
1698.50062	0.03216
1697.21485	0.03226
1695.92908	0.03231
1694.64331	0.03233
1693.35754	0.03239
1692.07178	0.03256
1690.78601	0.03287
1689.50024	0.03328
1688.21447	0.03376
1686.92870	0.03431
1685.64293	0.03488
1684.35716	0.03533
1683.07139	0.03557
1681.78563	0.03567
1680.49986	0.03580
1679.21409	0.03610
1677.92832	0.03660
1676.64255	0.03720
1675.35678	0.03775
1674.07101	0.03817
1672.78524	0.03854
1671.49947	0.03894
1670.21371	0.03938
1668.92794	0.03981
1667.64217	0.04017
1666.35640	0.04051
1665.07063	0.04092
1663.78486	0.04138
1662.49909	0.04181
1661.21332	0.04218
1659.92756	0.04251
1658.64179	0.04291
1657.35602	0.04349
1656.07025	0.04426
1654.78448	0.04509
1653.49871	0.04572
1652.21294	0.04597
1650.92717	0.04593
1649.64140	0.04589
1648.35564	0.04602
1647.06987	0.04627
1645.78410	0.04647
1644.49833	0.04654
1643.21256	0.04657
1641.92679	0.04669
1640.64102	0.04694
1639.35525	0.04734
1638.06949	0.04789
1636.78372	0.04848
1635.49795	0.04894
1634.21218	0.04915
1632.92641	0.04921
1631.64064	0.04930
1630.35487	0.04955
1629.06910	0.04994
1627.78333	0.05035
1626.49757	0.05074
1625.21180	0.05110
1623.92603	0.05144
1622.64026	0.05174
1621.35449	0.05202
1620.06872	0.05239
1618.78295	0.05289
1617.49718	0.05347
1616.21142	0.05398
1614.92565	0.05433
1613.63988	0.05457
1612.35411	0.05484
1611.06834	0.05526
1609.78257	0.05579
1608.49680	0.05634
1607.21103	0.05682
1605.92526	0.05720
1604.63950	0.05751
1603.35373	0.05782
1602.06796	0.05815
1600.78219	0.05853
1599.49642	0.05896
1598.21065	0.05939
1596.92488	0.05977
1595.63911	0.06005
1594.35335	0.06027
1593.06758	0.06046
1591.78181	0.06065
1590.49604	0.06086
1589.21027	0.06106
1587.92450	0.06129
1586.63873	0.06154
1585.35296	0.06178
1584.06719	0.06197
1582.78143	0.06213
1581.49566	0.06227
1580.20989	0.06248
1578.92412	0.06277
1577.63835	0.06309
1576.35258	0.06331
1575.06681	0.06336
1573.78104	0.06330
1572.49528	0.06327
1571.20951	0.06334
1569.92374	0.06345
1568.63797	0.06345
1567.35220	0.06329
1566.06643	0.06302
1564.78066	0.06278
1563.49489	0.06272
1562.20912	0.06292
1560.92336	0.06329
1559.63759	0.06357
1558.35182	0.06355
1557.06605	0.06320
1555.78028	0.06270
1554.49451	0.06222
1553.20874	0.06182
1551.92297	0.06145
1550.63721	0.06111
1549.35144	0.06078
1548.06567	0.06048
1546.77990	0.06022
1545.49413	0.05999
1544.20836	0.05978
1542.92259	0.05956
1541.63682	0.05924
1540.35105	0.05875
1539.06529	0.05807
1537.77952	0.05733
1536.49375	0.05671
1535.20798	0.05632
1533.92221	0.05610
1532.63644	0.05597
1531.35067	0.05593
1530.06490	0.05600
1528.77914	0.05623
1527.49337	0.05661
1526.20760	0.05710
1524.92183	0.05772
1523.63606	0.05848
1522.35029	0.05934
1521.06452	0.06024
1519.77875	0.06111
1518.49298	0.06199
1517.20722	0.06294
1515.92145	0.06399
1514.63568	0.06513
1513.34991	0.06637
1512.06414	0.06776
1510.77837	0.06933
1509.49260	0.07110
1508.20683	0.07297
1506.92107	0.07476
1505.63530	0.07627
1504.34953	0.07748
1503.06376	0.07856
1501.77799	0.07968
1500.49222	0.08089
1499.20645	0.08212
1497.92068	0.08327
1496.63491	0.08428
1495.34915	0.08515
1494.06338	0.08592
1492.77761	0.08669
1491.49184	0.08751
1490.20607	0.08838
1488.92030	0.08929
1487.63453	0.09023
1486.34876	0.09122
1485.06299	0.09231
1483.77723	0.09351
1482.49146	0.09481
1481.20569	0.09617
1479.91992	0.09756
1478.63415	0.09894
1477.34838	0.10033
1476.06261	0.10170
1474.77684	0.10304
1473.49108	0.10425
1472.20531	0.10526
1470.91954	0.10600
1469.63377	0.10656
1468.34800	0.10706
1467.06223	0.10755
1465.77646	0.10803
1464.49069	0.10841
1463.20492	0.10875
1461.91916	0.10916
1460.63339	0.10980
1459.34762	0.11073
1458.06185	0.11182
1456.77608	0.11285
1455.49031	0.11368
1454.20454	0.11432
1452.91877	0.11486
1451.63301	0.11538
1450.34724	0.11590
1449.06147	0.11634
1447.77570	0.11659
1446.48993	0.11659
1445.20416	0.11635
1443.91839	0.11597
1442.63262	0.11556
1441.34685	0.11518
1440.06109	0.11490
1438.77532	0.11476
1437.48955	0.11474
1436.20378	0.11482
1434.91801	0.11500
1433.63224	0.11536
1432.34647	0.11601
1431.06070	0.11699
1429.77494	0.11826
1428.48917	0.11972
1427.20340	0.12129
1425.91763	0.12292
1424.63186	0.12462
1423.34609	0.12639
1422.06032	0.12820
1420.77455	0.12996
1419.48878	0.13149
1418.20302	0.13267
1416.91725	0.13350
1415.63148	0.13404
1414.34571	0.13435
1413.05994	0.13443
1411.77417	0.13424
1410.48840	0.13378
1409.20263	0.13305
1407.91687	0.13208
1406.63110	0.13086
1405.34533	0.12939
1404.05956	0.12766
1402.77379	0.12573
1401.48802	0.12362
1400.20225	0.12139
1398.91648	0.11906
1397.63071	0.11667
1396.34495	0.11418
1395.05918	0.11160
1393.77341	0.10893
1392.48764	0.10625
1391.20187	0.10364
1389.91610	0.10117
1388.63033	0.09883
1387.34456	0.09655
1386.05880	0.09426
1384.77303	0.09200
1383.48726	0.08982
1382.20149	0.08774
1380.91572	0.08572
1379.62995	0.08367
1378.34418	0.08151
1377.05841	0.07926
1375.77264	0.07694
1374.48688	0.07456
1373.20111	0.07214
1371.91534	0.06973
1370.62957	0.06739
1369.34380	0.06524
1368.05803	0.06330
1366.77226	0.06154
1365.48649	0.05987
1364.20073	0.05823
1362.91496	0.05659
1361.62919	0.05501
1360.34342	0.05355
1359.05765	0.05221
1357.77188	0.05095
1356.48611	0.04976
1355.20034	0.04862
1353.91457	0.04757
1352.62881	0.04661
1351.34304	0.04572
1350.05727	0.04486
1348.77150	0.04402
1347.48573	0.04319
1346.19996	0.04237
1344.91419	0.04160
1343.62842	0.04089
1342.34266	0.04025
1341.05689	0.03964
1339.77112	0.03904
1338.48535	0.03846
1337.19958	0.03792
1335.91381	0.03744
1334.62804	0.03700
1333.34227	0.03656
1332.05650	0.03612
1330.77074	0.03567
1329.48497	0.03522
1328.19920	0.03478
1326.91343	0.03439
1325.62766	0.03403
1324.34189	0.03369
1323.05612	0.03337
1321.77035	0.03306
1320.48459	0.03278
1319.19882	0.03250
1317.91305	0.03220
1316.62728	0.03187
1315.34151	0.03156
1314.05574	0.03132
1312.76997	0.03116
1311.48420	0.03105
1310.19843	0.03094
1308.91267	0.03076
1307.62690	0.03053
1306.34113	0.03026
1305.05536	0.02999
1303.76959	0.02976
1302.48382	0.02957
1301.19805	0.02942
1299.91228	0.02925
1298.62652	0.02908
1297.34075	0.02889
1296.05498	0.02872
1294.76921	0.02855
1293.48344	0.02841
1292.19767	0.02829
1290.91190	0.02817
1289.62613	0.02804
1288.34036	0.02790
1287.05460	0.02777
1285.76883	0.02764
1284.48306	0.02750
1283.19729	0.02737
1281.91152	0.02725
1280.62575	0.02716
1279.33998	0.02704
1278.05421	0.02688
1276.76845	0.02668
1275.48268	0.02647
1274.19691	0.02631
1272.91114	0.02623
1271.62537	0.02621
1270.33960	0.02620
1269.05383	0.02616
1267.76806	0.02605
1266.48229	0.02592
1265.19653	0.02577
1263.91076	0.02563
1262.62499	0.02549
1261.33922	0.02537
1260.05345	0.02527
1258.76768	0.02517
1257.48191	0.02508
1256.19614	0.02500
1254.91037	0.02495
1253.62461	0.02491
1252.33884	0.02486
1251.05307	0.02478
1249.76730	0.02469
1248.48153	0.02461
1247.19576	0.02453
1245.90999	0.02445
1244.62422	0.02435
1243.33846	0.02424
1242.05269	0.02414
1240.76692	0.02404
1239.48115	0.02394
1238.19538	0.02385
1236.90961	0.02379
1235.62384	0.02377
1234.33807	0.02375
1233.05230	0.02371
1231.76654	0.02365
1230.48077	0.02360
1229.19500	0.02357
1227.90923	0.02356
1226.62346	0.02356
1225.33769	0.02358
1224.05192	0.02358
1222.76615	0.02357
1221.48039	0.02353
1220.19462	0.02348
1218.90885	0.02341
1217.62308	0.02333
1216.33731	0.02328
1215.05154	0.02327
1213.76577	0.02332
1212.48000	0.02339
1211.19423	0.02345
1209.90847	0.02350
1208.62270	0.02354
1207.33693	0.02359
1206.05116	0.02363
1204.76539	0.02364
1203.47962	0.02361
1202.19385	0.02358
1200.90808	0.02352
1199.62232	0.02343
1198.33655	0.02344
1197.05078	0.02345
1195.76501	0.02347
1194.47924	0.02350
1193.19347	0.02354
1191.90770	0.02360
1190.62193	0.02365
1189.33616	0.02370
1188.05040	0.02376
1186.76463	0.02385
1185.47886	0.02399
1184.19309	0.02412
1182.90732	0.02421
1181.62155	0.02425
1180.33578	0.02426
1179.05001	0.02429
1177.76425	0.02435
1176.47848	0.02442
1175.19271	0.02449
1173.90694	0.02456
1172.62117	0.02469
1171.33540	0.02486
1170.04963	0.02507
1168.76386	0.02531
1167.47809	0.02560
1166.19233	0.02595
1164.90656	0.02630
1163.62079	0.02659
1162.33502	0.02679
1161.04925	0.02696
1159.76348	0.02718
1158.47771	0.02752
1157.19194	0.02794
1155.90618	0.02836
1154.62041	0.02875
1153.33464	0.02913
1152.04887	0.02956
1150.76310	0.03007
1149.47733	0.03068
1148.19156	0.03137
1146.90579	0.03209
1145.62002	0.03284
1144.33426	0.03366
1143.04849	0.03459
1141.76272	0.03562
1140.47695	0.03674
1139.19118	0.03798
1137.90541	0.03939
1136.61964	0.04100
1135.33387	0.04281
1134.04811	0.04477
1132.76234	0.04690
1131.47657	0.04927
1130.19080	0.05193
1128.90503	0.05486
1127.61926	0.05803
1126.33349	0.06146
1125.04772	0.06519
1123.76195	0.06917
1122.47619	0.07331
1121.19042	0.07751
1119.90465	0.08177
1118.61888	0.08614
1117.33311	0.09062
1116.04734	0.09514
1114.76157	0.09956
1113.47580	0.10382
1112.19004	0.10791
1110.90427	0.11185
1109.61850	0.11569
1108.33273	0.11948
1107.04696	0.12323
1105.76119	0.12689
1104.47542	0.13043
1103.18965	0.13385
1101.90388	0.13720
1100.61812	0.14050
1099.33235	0.14368
1098.04658	0.14668
1096.76081	0.14951
1095.47504	0.15224
1094.18927	0.15486
1092.90350	0.15732
1091.61773	0.15961
1090.33197	0.16176
1089.04620	0.16382
1087.76043	0.16582
1086.47466	0.16785
1085.18889	0.16997
1083.90312	0.17220
1082.61735	0.17451
1081.33158	0.17693
1080.04581	0.17957
1078.76005	0.18248
1077.47428	0.18564
1076.18851	0.18897
1074.90274	0.19244
1073.61697	0.19611
1072.33120	0.20001
1071.04543	0.20411
1069.75966	0.20834
1068.47390	0.21270
1067.18813	0.21718
1065.90236	0.22179
1064.61659	0.22651
1063.33082	0.23132
1062.04505	0.23617
1060.75928	0.24105
1059.47351	0.24595
1058.18774	0.25088
1056.90198	0.25579
1055.61621	0.26064
1054.33044	0.26538
1053.04467	0.27008
1051.75890	0.27483
1050.47313	0.27973
1049.18736	0.28483
1047.90159	0.29013
1046.61583	0.29563
1045.33006	0.30128
1044.04429	0.30703
1042.75852	0.31286
1041.47275	0.31877
1040.18698	0.32480
1038.90121	0.33098
1037.61544	0.33732
1036.32967	0.34375
1035.04391	0.35015
1033.75814	0.35633
1032.47237	0.36214
1031.18660	0.36752
1029.90083	0.37246
1028.61506	0.37696
1027.32929	0.38100
1026.04352	0.38450
1024.75775	0.38739
1023.47199	0.38958
1022.18622	0.39099
1020.90045	0.39158
1019.61468	0.39131
1018.32891	0.39017
1017.04314	0.38811
1015.75737	0.38502
1014.47160	0.38082
1013.18584	0.37552
1011.90007	0.36916
1010.61430	0.36183
1009.32853	0.35366
1008.04276	0.34475
1006.75699	0.33519
1005.47122	0.32502
1004.18545	0.31429
1002.89968	0.30308
1001.61392	0.29162
1000.32815	0.28014
999.04238	0.26880
997.75661	0.25761
996.47084	0.24651
995.18507	0.23546
993.89930	0.22457
992.61353	0.21404
991.32777	0.20404
990.04200	0.19465
988.75623	0.18583
987.47046	0.17756
986.18469	0.16975
984.89892	0.16235
983.61315	0.15532
982.32738	0.14872
981.04161	0.14261
979.75585	0.13703
978.47008	0.13199
977.18431	0.12748
975.89854	0.12350
974.61277	0.12005
973.32700	0.11719
972.04123	0.11497
970.75546	0.11346
969.46970	0.11273
968.18393	0.11280
966.89816	0.11363
965.61239	0.11498
964.32662	0.11650
963.04085	0.11780
961.75508	0.11853
960.46931	0.11848
959.18354	0.11752
957.89778	0.11564
956.61201	0.11295
955.32624	0.10970
954.04047	0.10620
952.75470	0.10271
951.46893	0.09934
950.18316	0.09611
948.89739	0.09299
947.61163	0.08999
946.32586	0.08716
945.04009	0.08449
943.75432	0.08193
942.46855	0.07942
941.18278	0.07702
939.89701	0.07479
938.61124	0.07277
937.32547	0.07090
936.03971	0.06912
934.75394	0.06745
933.46817	0.06592
932.18240	0.06454
930.89663	0.06329
929.61086	0.06214
928.32509	0.06110
927.03932	0.06015
925.75356	0.05924
924.46779	0.05833
923.18202	0.05741
921.89625	0.05654
920.61048	0.05578
919.32471	0.05512
918.03894	0.05455
916.75317	0.05400
915.46740	0.05349
914.18164	0.05299
912.89587	0.05247
911.61010	0.05191
910.32433	0.05134
909.03856	0.05081
907.75279	0.05034
906.46702	0.04991
905.18125	0.04953
903.89549	0.04918
902.60972	0.04885
901.32395	0.04850
900.03818	0.04812
898.75241	0.04775
897.46664	0.04746
896.18087	0.04726
894.89510	0.04711
893.60933	0.04698
892.32357	0.04691
891.03780	0.04699
889.75203	0.04728
888.46626	0.04787
887.18049	0.04885
885.89472	0.05041
884.60895	0.05272
883.32318	0.05586
882.03742	0.05955
880.75165	0.06322
879.46588	0.06627
878.18011	0.06850
876.89434	0.07026
875.60857	0.07204
874.32280	0.07395
873.03703	0.07553
871.75126	0.07620
870.46550	0.07573
869.17973	0.07421
867.89396	0.07190
866.60819	0.06898
865.32242	0.06567
864.03665	0.06226
862.75088	0.05909
861.46511	0.05642
860.17935	0.05428
858.89358	0.05256
857.60781	0.05115
856.32204	0.04999
855.03627	0.04905
853.75050	0.04827
852.46473	0.04757
851.17896	0.04693
849.89319	0.04636
848.60743	0.04592
847.32166	0.04561
846.03589	0.04537
844.75012	0.04513
843.46435	0.04487
842.17858	0.04463
840.89281	0.04438
839.60704	0.04411
838.32128	0.04386
837.03551	0.04367
835.74974	0.04352
834.46397	0.04339
833.17820	0.04326
831.89243	0.04314
830.60666	0.04303
829.32089	0.04294
828.03512	0.04284
826.74936	0.04270
825.46359	0.04253
824.17782	0.04237
822.89205	0.04226
821.60628	0.04223
820.32051	0.04230
819.03474	0.04245
817.74897	0.04258
816.46321	0.04257
815.17744	0.04241
813.89167	0.04218
812.60590	0.04199
811.32013	0.04190
810.03436	0.04187
808.74859	0.04186
807.46282	0.04187
806.17705	0.04194
804.89129	0.04208
803.60552	0.04223
802.31975	0.04235
801.03398	0.04243
799.74821	0.04245
798.46244	0.04243
797.17667	0.04238
795.89090	0.04235
794.60513	0.04238
793.31937	0.04246
792.03360	0.04252
790.74783	0.04250
789.46206	0.04238
788.17629	0.04222
786.89052	0.04215
785.60475	0.04216
784.31898	0.04218
783.03322	0.04215
781.74745	0.04209
780.46168	0.04203
779.17591	0.04197
777.89014	0.04192
776.60437	0.04190
775.31860	0.04195
774.03283	0.04206
772.74706	0.04215
771.46130	0.04218
770.17553	0.04214
768.88976	0.04207
767.60399	0.04204
766.31822	0.04208
765.03245	0.04215
763.74668	0.04218
762.46091	0.04217
761.17515	0.04218
759.88938	0.04226
758.60361	0.04238
757.31784	0.04250
756.03207	0.04259
754.74630	0.04263
753.46053	0.04261
752.17476	0.04252
750.88899	0.04238
749.60323	0.04228
748.31746	0.04225
747.03169	0.04228
745.74592	0.04227
744.46015	0.04219
743.17438	0.04204
741.88861	0.04186
740.60284	0.04173
739.31708	0.04173
738.03131	0.04183
736.74554	0.04193
735.45977	0.04197
734.17400	0.04196
732.88823	0.04199
731.60246	0.04212
730.31669	0.04228
729.03092	0.04240
727.74516	0.04246
726.45939	0.04252
725.17362	0.04261
723.88785	0.04260
722.60208	0.04261
721.31631	0.04269
720.03054	0.04272
718.74477	0.04265
717.45901	0.04260
716.17324	0.04256
714.88747	0.04249
713.60170	0.04240
712.31593	0.04232
711.03016	0.04226
709.74439	0.04223
708.45862	0.04220
707.17285	0.04215
705.88709	0.04209
704.60132	0.04202
703.31555	0.04196
702.02978	0.04195
700.74401	0.04198
699.45824	0.04204
698.17247	0.04208
696.88670	0.04208
695.60094	0.04205
694.31517	0.04202
693.02940	0.04201
691.74363	0.04200
690.45786	0.04198
689.17209	0.04192
687.88632	0.04181
686.60055	0.04166
685.31478	0.04151
684.02902	0.04139
682.74325	0.04133
681.45748	0.04132
680.17171	0.04133
678.88594	0.04133
677.60017	0.04134
676.31440	0.04138
675.02863	0.04148
673.74287	0.04155
672.45710	0.04148
671.17133	0.04147
669.88556	0.04217
668.59979	0.04347
667.31402	0.04335
666.02825	0.04225
664.74248	0.04190
663.45671	0.04199
662.17095	0.04194
660.88518	0.04172
659.59941	0.04145
658.31364	0.04124
657.02787	0.04116
655.74210	0.04122
654.45633	0.04134
653.17056	0.04144
651.88480	0.04151
650.59903	0.04157
649.31326	0.04165
648.02749	0.04175
646.74172	0.04186
645.45595	0.04203
644.17018	0.04225
642.88441	0.04251
641.59864	0.04278
640.31288	0.04305
639.02711	0.04334
637.74134	0.04366
636.45557	0.04404
635.16980	0.04444
633.88403	0.04487
632.59826	0.04537
631.31249	0.04609
630.02673	0.04717
628.74096	0.04817
627.45519	0.04846
626.16942	0.05004
624.88365	0.05239
623.59788	0.05483
622.31211	0.05744
621.02634	0.06024
619.74057	0.06284
618.45481	0.06509
617.16904	0.06759
615.88327	0.07094
614.59750	0.07502
613.31173	0.07955
612.02596	0.08500
610.74019	0.09239
609.45442	0.10166
608.16866	0.11085
606.88289	0.11793
605.59712	0.12270
604.31135	0.12617
603.02558	0.12894
601.73981	0.13060
600.45404	0.13039
599.16827	0.12821
597.88250	0.12461
596.59674	0.12038
595.31097	0.11617
594.02520	0.11243
592.73943	0.10939
591.45366	0.10711
590.16789	0.10557
588.88212	0.10476
587.59635	0.10475
586.31059	0.10559
585.02482	0.10724
583.73905	0.10963
582.45328	0.11263
581.16751	0.11604
579.88174	0.11966
578.59597	0.12335
577.31020	0.12704
576.02443	0.13061
574.73867	0.13401
573.45290	0.13724
572.16713	0.14049
570.88136	0.14409
569.59559	0.14840
568.30982	0.15353
567.02405	0.15930
565.73828	0.16523
564.45251	0.17060
563.16675	0.17462
561.88098	0.17659
560.59521	0.17601
559.30944	0.17269
558.02367	0.16691
556.73790	0.15932
555.45213	0.15067
554.16636	0.14159
552.88060	0.13257
551.59483	0.12405
550.30906	0.11636
549.02329	0.10963
547.73752	0.10375
546.45175	0.09853
545.16598	0.09379
543.88021	0.08950
542.59444	0.08568
541.30868	0.08236
540.02291	0.07950
538.73714	0.07699
537.45137	0.07467
536.16560	0.07243
534.87983	0.07027
533.59406	0.06827
532.30829	0.06648
531.02253	0.06493
529.73676	0.06356
528.45099	0.06228
527.16522	0.06102
525.87945	0.05974
524.59368	0.05846
523.30791	0.05721
522.02214	0.05601
520.73637	0.05492
519.45061	0.05398
518.16484	0.05319
516.87907	0.05245
515.59330	0.05168
514.30753	0.05091
513.02176	0.05017
511.73599	0.04950
510.45022	0.04885
509.16446	0.04823
507.87869	0.04767
506.59292	0.04720
505.30715	0.04672
504.02138	0.04616
502.73561	0.04549
501.44984	0.04480
500.16407	0.04417
498.87830	0.04369
497.59254	0.04335
496.30677	0.04308
495.02100	0.04282
493.73523	0.04257
492.44946	0.04237
491.16369	0.04226
489.87792	0.04222
488.59215	0.04216
487.30639	0.04203
486.02062	0.04182
484.73485	0.04162
483.44908	0.04152
482.16331	0.04159
480.87754	0.04180
479.59177	0.04208
478.30600	0.04237
477.02023	0.04266
475.73447	0.04297
474.44870	0.04332
473.16293	0.04370
471.87716	0.04403
470.59139	0.04424
469.30562	0.04430
468.01985	0.04422
466.73408	0.04404
465.44832	0.04376
464.16255	0.04336
462.87678	0.04283
461.59101	0.04223
460.30524	0.04169
459.01947	0.04132
457.73370	0.04111
456.44793	0.04094
455.16216	0.04070
453.87640	0.04034
452.59063	0.03989
451.30486	0.03940
450.01909	0.03893
448.73332	0.03852
447.44755	0.03814
446.16178	0.03779
444.87601	0.03748
443.59025	0.03723
442.30448	0.03702
441.01871	0.03683
439.73294	0.03664
438.44717	0.03643
437.16140	0.03621
435.87563	0.03596
434.58986	0.03570
433.30409	0.03547
432.01833	0.03533
430.73256	0.03524
429.44679	0.03516
428.16102	0.03500
426.87525	0.03475
425.58948	0.03447
424.30371	0.03420
423.01794	0.03399
421.73218	0.03378
420.44641	0.03352
419.16064	0.03321
417.87487	0.03289
416.58910	0.03259
415.30333	0.03231
414.01756	0.03202
412.73179	0.03171
411.44602	0.03143
410.16026	0.03121
408.87449	0.03107
407.58872	0.03099
406.30295	0.03095
405.01718	0.03092
403.73141	0.03091
402.44564	0.03094
401.15987	0.03103
399.87411	0.03119
