3997.45528	0.04392
3996.16951	0.04383
3994.88374	0.04386
3993.59798	0.04423
3992.31221	0.04490
3991.02644	0.04554
3989.74067	0.04581
3988.45490	0.04574
3987.16913	0.04565
3985.88336	0.04567
3984.59759	0.04554
3983.31183	0.04504
3982.02606	0.04445
3980.74029	0.04424
3979.45452	0.04451
3978.16875	0.04480
3976.88298	0.04477
3975.59721	0.04453
3974.31144	0.04432
3973.02567	0.04412
3971.73991	0.04376
3970.45414	0.04332
3969.16837	0.04313
3967.88260	0.04333
3966.59683	0.04371
3965.31106	0.04393
3964.02529	0.04385
3962.73952	0.04365
3961.45376	0.04361
3960.16799	0.04384
3958.88222	0.04425
3957.59645	0.04465
3956.31068	0.04485
3955.02491	0.04474
3953.73914	0.04448
3952.45337	0.04430
3951.16760	0.04431
3949.88184	0.04441
3948.59607	0.04452
3947.31030	0.04461
3946.02453	0.04460
3944.73876	0.04438
3943.45299	0.04417
3942.16722	0.04437
3940.88145	0.04493
3939.59569	0.04539
3938.30992	0.04540
3937.02415	0.04503
3935.73838	0.04454
3934.45261	0.04417
3933.16684	0.04413
3931.88107	0.04449
3930.59530	0.04500
3929.30953	0.04536
3928.02377	0.04543
3926.73800	0.04509
3925.45223	0.04444
3924.16646	0.04377
3922.88069	0.04325
3921.59492	0.04282
3920.30915	0.04239
3919.02338	0.04201
3917.73762	0.04200
3916.45185	0.04268
3915.16608	0.04385
3913.88031	0.04468
3912.59454	0.04464
3911.30877	0.04397
3910.02300	0.04335
3908.73723	0.04325
3907.45146	0.04353
3906.16570	0.04378
3904.87993	0.04399
3903.59416	0.04447
3902.30839	0.04517
3901.02262	0.04565
3899.73685	0.04570
3898.45108	0.04553
3897.16531	0.04530
3895.87955	0.04504
3894.59378	0.04471
3893.30801	0.04429
3892.02224	0.04412
3890.73647	0.04488
3889.45070	0.04621
3888.16493	0.04667
3886.87916	0.04591
3885.59339	0.04531
3884.30763	0.04557
3883.02186	0.04573
3881.73609	0.04499
3880.45032	0.04408
3879.16455	0.04380
3877.87878	0.04365
3876.59301	0.04297
3875.30724	0.04222
3874.02148	0.04222
3872.73571	0.04259
3871.44994	0.04255
3870.16417	0.04274
3868.87840	0.04396
3867.59263	0.04512
3866.30686	0.04492
3865.02109	0.04390
3863.73532	0.04319
3862.44956	0.04282
3861.16379	0.04245
3859.87802	0.04229
3858.59225	0.04259
3857.30648	0.04275
3856.02071	0.04214
3854.73494	0.04155
3853.44917	0.04276
3852.16341	0.04556
3850.87764	0.04756
3849.59187	0.04734
3848.30610	0.04572
3847.02033	0.04399
3845.73456	0.04273
3844.44879	0.04214
3843.16302	0.04232
3841.87725	0.04295
3840.59149	0.04320
3839.30572	0.04279
3838.01995	0.04249
3836.73418	0.04296
3835.44841	0.04350
3834.16264	0.04327
3832.87687	0.04267
3831.59110	0.04261
3830.30534	0.04292
3829.01957	0.04264
3827.73380	0.04146
3826.44803	0.04045
3825.16226	0.04046
3823.87649	0.04095
3822.59072	0.04141
3821.30495	0.04248
3820.01918	0.04425
3818.73342	0.04497
3817.44765	0.04362
3816.16188	0.04206
3814.87611	0.04220
3813.59034	0.04326
3812.30457	0.04375
3811.01880	0.04353
3809.73303	0.04264
3808.44726	0.04108
3807.16150	0.04004
3805.87573	0.04073
3804.58996	0.04209
3803.30419	0.04225
3802.01842	0.04168
3800.73265	0.04214
3799.44688	0.04325
3798.16111	0.04314
3796.87535	0.04172
3795.58958	0.04051
3794.30381	0.04029
3793.01804	0.04071
3791.73227	0.04123
3790.44650	0.04146
3789.16073	0.04121
3787.87496	0.04058
3786.58919	0.04004
3785.30343	0.04013
3784.01766	0.04102
3782.73189	0.04215
3781.44612	0.04272
3780.16035	0.04258
3778.87458	0.04220
3777.58881	0.04176
3776.30304	0.04106
3775.01728	0.04023
3773.73151	0.03967
3772.44574	0.03936
3771.15997	0.03929
3769.87420	0.03980
3768.58843	0.04077
3767.30266	0.04127
3766.01689	0.04079
3764.73112	0.03993
3763.44536	0.03946
3762.15959	0.03950
3760.87382	0.04001
3759.58805	0.04090
3758.30228	0.04178
3757.01651	0.04234
3755.73074	0.04235
3754.44497	0.04171
3753.15921	0.04095
3751.87344	0.04089
3750.58767	0.04180
3749.30190	0.04353
3748.01613	0.04516
3746.73036	0.04493
3745.44459	0.04289
3744.15882	0.04162
3742.87305	0.04204
3741.58729	0.04211
3740.30152	0.04076
3739.01575	0.03899
3737.72998	0.03774
3736.44421	0.03739
3735.15844	0.03783
3733.87267	0.03834
3732.58690	0.03844
3731.30114	0.03852
3730.01537	0.03874
3728.72960	0.03865
3727.44383	0.03829
3726.15806	0.03820
3724.87229	0.03835
3723.58652	0.03835
3722.30075	0.03809
3721.01498	0.03772
3719.72922	0.03734
3718.44345	0.03712
3717.15768	0.03740
3715.87191	0.03808
3714.58614	0.03861
3713.30037	0.03879
3712.01460	0.03886
3710.72883	0.03906
3709.44307	0.03923
3708.15730	0.03908
3706.87153	0.03881
3705.58576	0.03864
3704.29999	0.03855
3703.01422	0.03860
3701.72845	0.03880
3700.44268	0.03897
3699.15691	0.03870
3697.87115	0.03804
3696.58538	0.03760
3695.29961	0.03773
3694.01384	0.03824
3692.72807	0.03885
3691.44230	0.03933
3690.15653	0.03931
3688.87076	0.03892
3687.58500	0.03873
3686.29923	0.03856
3685.01346	0.03778
3683.72769	0.03674
3682.44192	0.03632
3681.15615	0.03690
3679.87038	0.03825
3678.58461	0.03948
3677.29884	0.03981
3676.01308	0.04008
3674.72731	0.04145
3673.44154	0.04292
3672.15577	0.04257
3670.87000	0.04097
3669.58423	0.04021
3668.29846	0.04064
3667.01269	0.04105
3665.72693	0.04095
3664.44116	0.04072
3663.15539	0.04073
3661.86962	0.04095
3660.58385	0.04121
3659.29808	0.04111
3658.01231	0.04048
3656.72654	0.04001
3655.44077	0.04061
3654.15501	0.04186
3652.86924	0.04218
3651.58347	0.04084
3650.29770	0.03871
3649.01193	0.03719
3647.72616	0.03694
3646.44039	0.03766
3645.15462	0.03857
3643.86886	0.03921
3642.58309	0.03963
3641.29732	0.04001
3640.01155	0.04032
3638.72578	0.04052
3637.44001	0.04083
3636.15424	0.04144
3634.86847	0.04243
3633.58270	0.04367
3632.29694	0.04443
3631.01117	0.04399
3629.72540	0.04291
3628.43963	0.04269
3627.15386	0.04340
3625.86809	0.04372
3624.58232	0.04319
3623.29655	0.04263
3622.01079	0.04244
3620.72502	0.04240
3619.43925	0.04239
3618.15348	0.04253
3616.86771	0.04265
3615.58194	0.04250
3614.29617	0.04236
3613.01040	0.04281
3611.72463	0.04379
3610.43887	0.04465
3609.15310	0.04518
3607.86733	0.04572
3606.58156	0.04639
3605.29579	0.04677
3604.01002	0.04651
3602.72425	0.04569
3601.43848	0.04475
3600.15272	0.04428
3598.86695	0.04450
3597.58118	0.04518
3596.29541	0.04600
3595.00964	0.04706
3593.72387	0.04839
3592.43810	0.04949
3591.15233	0.04984
3589.86656	0.04941
3588.58080	0.04883
3587.29503	0.04877
3586.00926	0.04906
3584.72349	0.04916
3583.43772	0.04885
3582.15195	0.04842
3580.86618	0.04826
3579.58041	0.04854
3578.29464	0.04918
3577.00888	0.04990
3575.72311	0.05037
3574.43734	0.05044
3573.15157	0.05026
3571.86580	0.05006
3570.58003	0.04994
3569.29426	0.04998
3568.00849	0.05037
3566.72273	0.05104
3565.43696	0.05151
3564.15119	0.05143
3562.86542	0.05107
3561.57965	0.05099
3560.29388	0.05135
3559.00811	0.05188
3557.72234	0.05228
3556.43657	0.05246
3555.15081	0.05241
3553.86504	0.05227
3552.57927	0.05235
3551.29350	0.05297
3550.00773	0.05405
3548.72196	0.05519
3547.43619	0.05598
3546.15042	0.05625
3544.86466	0.05602
3543.57889	0.05555
3542.29312	0.05515
3541.00735	0.05498
3539.72158	0.05488
3538.43581	0.05467
3537.15004	0.05438
3535.86427	0.05418
3534.57850	0.05415
3533.29274	0.05429
3532.00697	0.05467
3530.72120	0.05528
3529.43543	0.05598
3528.14966	0.05661
3526.86389	0.05714
3525.57812	0.05764
3524.29235	0.05810
3523.00659	0.05840
3521.72082	0.05835
3520.43505	0.05791
3519.14928	0.05733
3517.86351	0.05700
3516.57774	0.05721
3515.29197	0.05791
3514.00620	0.05888
3512.72043	0.05986
3511.43467	0.06060
3510.14890	0.06099
3508.86313	0.06103
3507.57736	0.06071
3506.29159	0.06006
3505.00582	0.05927
3503.72005	0.05868
3502.43428	0.05853
3501.14852	0.05884
3499.86275	0.05940
3498.57698	0.06002
3497.29121	0.06061
3496.00544	0.06116
3494.71967	0.06166
3493.43390	0.06203
3492.14813	0.06217
3490.86236	0.06201
3489.57660	0.06149
3488.29083	0.06068
3487.00506	0.05986
3485.71929	0.05942
3484.43352	0.05952
3483.14775	0.06003
3481.86198	0.06062
3480.57621	0.06103
3479.29045	0.06124
3478.00468	0.06153
3476.71891	0.06220
3475.43314	0.06318
3474.14737	0.06404
3472.86160	0.06442
3471.57583	0.06433
3470.29006	0.06409
3469.00429	0.06403
3467.71853	0.06427
3466.43276	0.06463
3465.14699	0.06476
3463.86122	0.06439
3462.57545	0.06367
3461.28968	0.06306
3460.00391	0.06289
3458.71814	0.06305
3457.43238	0.06313
3456.14661	0.06294
3454.86084	0.06260
3453.57507	0.06240
3452.28930	0.06247
3451.00353	0.06282
3449.71776	0.06343
3448.43199	0.06431
3447.14622	0.06537
3445.86046	0.06628
3444.57469	0.06664
3443.28892	0.06630
3442.00315	0.06559
3440.71738	0.06500
3439.43161	0.06476
3438.14584	0.06474
3436.86007	0.06469
3435.57431	0.06451
3434.28854	0.06441
3433.00277	0.06469
3431.71700	0.06544
3430.43123	0.06644
3429.14546	0.06732
3427.85969	0.06786
3426.57392	0.06801
3425.28815	0.06782
3424.00239	0.06740
3422.71662	0.06690
3421.43085	0.06652
3420.14508	0.06641
3418.85931	0.06649
3417.57354	0.06660
3416.28777	0.06671
3415.00200	0.06698
3413.71624	0.06743
3412.43047	0.06782
3411.14470	0.06785
3409.85893	0.06759
3408.57316	0.06739
3407.28739	0.06746
3406.00162	0.06765
3404.71585	0.06769
3403.43008	0.06754
3402.14432	0.06747
3400.85855	0.06767
3399.57278	0.06807
3398.28701	0.06850
3397.00124	0.06886
3395.71547	0.06913
3394.42970	0.06928
3393.14393	0.06932
3391.85817	0.06930
3390.57240	0.06926
3389.28663	0.06916
3388.00086	0.06894
3386.71509	0.06864
3385.42932	0.06837
3384.14355	0.06826
3382.85778	0.06831
3381.57201	0.06849
3380.28625	0.06878
3379.00048	0.06916
3377.71471	0.06953
3376.42894	0.06980
3375.14317	0.06987
3373.85740	0.06967
3372.57163	0.06920
3371.28586	0.06857
3370.00010	0.06800
3368.71433	0.06762
3367.42856	0.06739
3366.14279	0.06723
3364.85702	0.06719
3363.57125	0.06743
3362.28548	0.06790
3360.99971	0.06827
3359.71394	0.06830
3358.42818	0.06814
3357.14241	0.06815
3355.85664	0.06853
3354.57087	0.06918
3353.28510	0.06988
3351.99933	0.07041
3350.71356	0.07057
3349.42779	0.07021
3348.14202	0.06945
3346.85626	0.06870
3345.57049	0.06839
3344.28472	0.06861
3342.99895	0.06913
3341.71318	0.06965
3340.42741	0.06995
3339.14164	0.06996
3337.85587	0.06971
3336.57011	0.06935
3335.28434	0.06903
3333.99857	0.06886
3332.71280	0.06883
3331.42703	0.06894
3330.14126	0.06925
3328.85549	0.06966
3327.56972	0.06988
3326.28395	0.06971
3324.99819	0.06928
3323.71242	0.06893
3322.42665	0.06891
3321.14088	0.06919
3319.85511	0.06953
3318.56934	0.06968
3317.28357	0.06943
3315.99780	0.06884
3314.71204	0.06820
3313.42627	0.06780
3312.14050	0.06769
3310.85473	0.06771
3309.56896	0.06767
3308.28319	0.06761
3306.99742	0.06773
3305.71165	0.06819
3304.42588	0.06889
3303.14012	0.06949
3301.85435	0.06966
3300.56858	0.06934
3299.28281	0.06876
3297.99704	0.06826
3296.71127	0.06798
3295.42550	0.06785
3294.13973	0.06778
3292.85397	0.06783
3291.56820	0.06805
3290.28243	0.06830
3288.99666	0.06843
3287.71089	0.06840
3286.42512	0.06839
3285.13935	0.06847
3283.85358	0.06861
3282.56781	0.06874
3281.28205	0.06882
3279.99628	0.06883
3278.71051	0.06881
3277.42474	0.06877
3276.13897	0.06867
3274.85320	0.06851
3273.56743	0.06834
3272.28166	0.06826
3270.99590	0.06819
3269.71013	0.06808
3268.42436	0.06803
3267.13859	0.06825
3265.85282	0.06867
3264.56705	0.06903
3263.28128	0.06910
3261.99551	0.06897
3260.70974	0.06875
3259.42398	0.06836
3258.13821	0.06771
3256.85244	0.06698
3255.56667	0.06655
3254.28090	0.06661
3252.99513	0.06692
3251.70936	0.06705
3250.42359	0.06680
3249.13783	0.06637
3247.85206	0.06610
3246.56629	0.06616
3245.28052	0.06649
3243.99475	0.06693
3242.70898	0.06740
3241.42321	0.06780
3240.13744	0.06801
3238.85167	0.06798
3237.56591	0.06780
3236.28014	0.06772
3234.99437	0.06794
3233.70860	0.06838
3232.42283	0.06868
3231.13706	0.06852
3229.85129	0.06788
3228.56552	0.06696
3227.27976	0.06609
3225.99399	0.06553
3224.70822	0.06545
3223.42245	0.06583
3222.13668	0.06639
3220.85091	0.06674
3219.56514	0.06662
3218.27937	0.06616
3216.99360	0.06580
3215.70784	0.06589
3214.42207	0.06637
3213.13630	0.06679
3211.85053	0.06673
3210.56476	0.06616
3209.27899	0.06549
3207.99322	0.06509
3206.70745	0.06498
3205.42169	0.06498
3204.13592	0.06504
3202.85015	0.06524
3201.56438	0.06559
3200.27861	0.06588
3198.99284	0.06591
3197.70707	0.06572
3196.42130	0.06551
3195.13553	0.06545
3193.84977	0.06550
3192.56400	0.06556
3191.27823	0.06553
3189.99246	0.06542
3188.70669	0.06525
3187.42092	0.06510
3186.13515	0.06502
3184.84938	0.06499
3183.56362	0.06497
3182.27785	0.06488
3180.99208	0.06477
3179.70631	0.06466
3178.42054	0.06452
3177.13477	0.06428
3175.84900	0.06396
3174.56323	0.06367
3173.27746	0.06352
3171.99170	0.06348
3170.70593	0.06338
3169.42016	0.06316
3168.13439	0.06292
3166.84862	0.06282
3165.56285	0.06289
3164.27708	0.06299
3162.99131	0.06297
3161.70555	0.06287
3160.41978	0.06289
3159.13401	0.06313
3157.84824	0.06347
3156.56247	0.06362
3155.27670	0.06346
3153.99093	0.06307
3152.70516	0.06262
3151.41939	0.06222
3150.13363	0.06188
3148.84786	0.06161
3147.56209	0.06141
3146.27632	0.06128
3144.99055	0.06124
3143.70478	0.06134
3142.41901	0.06160
3141.13324	0.06192
3139.84748	0.06206
3138.56171	0.06193
3137.27594	0.06164
3135.99017	0.06148
3134.70440	0.06159
3133.41863	0.06187
3132.13286	0.06206
3130.84709	0.06202
3129.56132	0.06180
3128.27556	0.06156
3126.98979	0.06139
3125.70402	0.06130
3124.41825	0.06118
3123.13248	0.06095
3121.84671	0.06065
3120.56094	0.06045
3119.27517	0.06044
3117.98940	0.06044
3116.70364	0.06024
3115.41787	0.05987
3114.13210	0.05952
3112.84633	0.05933
3111.56056	0.05921
3110.27479	0.05906
3108.98902	0.05890
3107.70325	0.05885
3106.41749	0.05899
3105.13172	0.05925
3103.84595	0.05945
3102.56018	0.05950
3101.27441	0.05948
3099.98864	0.05951
3098.70287	0.05958
3097.41710	0.05958
3096.13133	0.05947
3094.84557	0.05933
3093.55980	0.05920
3092.27403	0.05900
3090.98826	0.05862
3089.70249	0.05809
3088.41672	0.05766
3087.13095	0.05749
3085.84518	0.05755
3084.55942	0.05769
3083.27365	0.05779
3081.98788	0.05783
3080.70211	0.05784
3079.41634	0.05785
3078.13057	0.05790
3076.84480	0.05796
3075.55903	0.05803
3074.27326	0.05806
3072.98750	0.05807
3071.70173	0.05812
3070.41596	0.05820
3069.13019	0.05823
3067.84442	0.05814
3066.55865	0.05797
3065.27288	0.05781
3063.98711	0.05772
3062.70135	0.05768
3061.41558	0.05765
3060.12981	0.05759
3058.84404	0.05745
3057.55827	0.05724
3056.27250	0.05711
3054.98673	0.05710
3053.70096	0.05706
3052.41519	0.05677
3051.12943	0.05626
3049.84366	0.05580
3048.55789	0.05568
3047.27212	0.05594
3045.98635	0.05637
3044.70058	0.05664
3043.41481	0.05659
3042.12904	0.05627
3040.84328	0.05588
3039.55751	0.05563
3038.27174	0.05554
3036.98597	0.05551
3035.70020	0.05540
3034.41443	0.05517
3033.12866	0.05492
3031.84289	0.05472
3030.55712	0.05458
3029.27136	0.05445
3027.98559	0.05433
3026.69982	0.05423
3025.41405	0.05423
3024.12828	0.05434
3022.84251	0.05448
3021.55674	0.05450
3020.27097	0.05432
3018.98521	0.05402
3017.69944	0.05370
3016.41367	0.05342
3015.12790	0.05323
3013.84213	0.05316
3012.55636	0.05317
3011.27059	0.05311
3009.98482	0.05289
3008.69905	0.05260
3007.41329	0.05243
3006.12752	0.05249
3004.84175	0.05267
3003.55598	0.05281
3002.27021	0.05279
3000.98444	0.05263
2999.69867	0.05252
2998.41290	0.05264
2997.12714	0.05294
2995.84137	0.05320
2994.55560	0.05318
2993.26983	0.05286
2991.98406	0.05238
2990.69829	0.05198
2989.41252	0.05188
2988.12675	0.05214
2986.84098	0.05257
2985.55522	0.05287
2984.26945	0.05283
2982.98368	0.05253
2981.69791	0.05219
2980.41214	0.05207
2979.12637	0.05229
2977.84060	0.05277
2976.55483	0.05328
2975.26907	0.05362
2973.98330	0.05385
2972.69753	0.05414
2971.41176	0.05463
2970.12599	0.05522
2968.84022	0.05569
2967.55445	0.05587
2966.26868	0.05569
2964.98291	0.05524
2963.69715	0.05484
2962.41138	0.05486
2961.12561	0.05550
2959.83984	0.05653
2958.55407	0.05751
2957.26830	0.05806
2955.98253	0.05816
2954.69676	0.05804
2953.41100	0.05795
2952.12523	0.05801
2950.83946	0.05822
2949.55369	0.05843
2948.26792	0.05850
2946.98215	0.05839
2945.69638	0.05823
2944.41061	0.05813
2943.12484	0.05804
2941.83908	0.05785
2940.55331	0.05758
2939.26754	0.05736
2937.98177	0.05727
2936.69600	0.05730
2935.41023	0.05740
2934.12446	0.05760
2932.83869	0.05792
2931.55293	0.05822
2930.26716	0.05836
2928.98139	0.05824
2927.69562	0.05793
2926.40985	0.05753
2925.12408	0.05709
2923.83831	0.05665
2922.55254	0.05628
2921.26677	0.05610
2919.98101	0.05616
2918.69524	0.05624
2917.40947	0.05608
2916.12370	0.05567
2914.83793	0.05525
2913.55216	0.05507
2912.26639	0.05515
2910.98062	0.05539
2909.69486	0.05569
2908.40909	0.05603
2907.12332	0.05625
2905.83755	0.05615
2904.55178	0.05569
2903.26601	0.05512
2901.98024	0.05476
2900.69447	0.05464
2899.40870	0.05457
2898.12294	0.05438
2896.83717	0.05410
2895.55140	0.05387
2894.26563	0.05373
2892.97986	0.05359
2891.69409	0.05343
2890.40832	0.05332
2889.12255	0.05324
2887.83678	0.05305
2886.55102	0.05267
2885.26525	0.05227
2883.97948	0.05211
2882.69371	0.05226
2881.40794	0.05254
2880.12217	0.05275
2878.83640	0.05287
2877.55063	0.05297
2876.26487	0.05312
2874.97910	0.05326
2873.69333	0.05330
2872.40756	0.05317
2871.12179	0.05290
2869.83602	0.05259
2868.55025	0.05226
2867.26448	0.05188
2865.97871	0.05146
2864.69295	0.05110
2863.40718	0.05087
2862.12141	0.05073
2860.83564	0.05056
2859.54987	0.05024
2858.26410	0.04978
2856.97833	0.04930
2855.69256	0.04890
2854.40680	0.04858
2853.12103	0.04832
2851.83526	0.04811
2850.54949	0.04801
2849.26372	0.04803
2847.97795	0.04813
2846.69218	0.04830
2845.40641	0.04851
2844.12064	0.04862
2842.83488	0.04851
2841.54911	0.04816
2840.26334	0.04772
2838.97757	0.04740
2837.69180	0.04729
2836.40603	0.04725
2835.12026	0.04709
2833.83449	0.04678
2832.54873	0.04642
2831.26296	0.04620
2829.97719	0.04615
2828.69142	0.04611
2827.40565	0.04589
2826.11988	0.04546
2824.83411	0.04502
2823.54834	0.04476
2822.26257	0.04470
2820.97681	0.04473
2819.69104	0.04476
2818.40527	0.04475
2817.11950	0.04469
2815.83373	0.04450
2814.54796	0.04421
2813.26219	0.04395
2811.97642	0.04383
2810.69066	0.04387
2809.40489	0.04398
2808.11912	0.04403
2806.83335	0.04395
2805.54758	0.04377
2804.26181	0.04360
2802.97604	0.04349
2801.69027	0.04341
2800.40450	0.04333
2799.11874	0.04321
2797.83297	0.04304
2796.54720	0.04287
2795.26143	0.04274
2793.97566	0.04267
2792.68989	0.04265
2791.40412	0.04258
2790.11835	0.04240
2788.83259	0.04211
2787.54682	0.04182
2786.26105	0.04167
2784.97528	0.04167
2783.68951	0.04177
2782.40374	0.04186
2781.11797	0.04189
2779.83220	0.04187
2778.54643	0.04182
2777.26067	0.04178
2775.97490	0.04177
2774.68913	0.04180
2773.40336	0.04190
2772.11759	0.04204
2770.83182	0.04212
2769.54605	0.04206
2768.26028	0.04185
2766.97452	0.04163
2765.68875	0.04153
2764.40298	0.04154
2763.11721	0.04156
2761.83144	0.04147
2760.54567	0.04125
2759.25990	0.04093
2757.97413	0.04054
2756.68836	0.04020
2755.40260	0.04009
2754.11683	0.04025
2752.83106	0.04051
2751.54529	0.04065
2750.25952	0.04061
2748.97375	0.04047
2747.68798	0.04029
2746.40221	0.04008
2745.11645	0.03987
2743.83068	0.03974
2742.54491	0.03978
2741.25914	0.03995
2739.97337	0.04012
2738.68760	0.04015
2737.40183	0.03995
2736.11606	0.03958
2734.83029	0.03920
2733.54453	0.03896
2732.25876	0.03894
2730.97299	0.03907
2729.68722	0.03922
2728.40145	0.03926
2727.11568	0.03918
2725.82991	0.03908
2724.54414	0.03907
2723.25838	0.03916
2721.97261	0.03928
2720.68684	0.03934
2719.40107	0.03932
2718.11530	0.03926
2716.82953	0.03919
2715.54376	0.03915
2714.25799	0.03917
2712.97222	0.03918
2711.68646	0.03914
2710.40069	0.03903
2709.11492	0.03889
2707.82915	0.03870
2706.54338	0.03850
2705.25761	0.03833
2703.97184	0.03828
2702.68607	0.03836
2701.40031	0.03847
2700.11454	0.03850
2698.82877	0.03845
2697.54300	0.03838
2696.25723	0.03836
2694.97146	0.03838
2693.68569	0.03833
2692.39992	0.03815
2691.11415	0.03789
2689.82839	0.03767
2688.54262	0.03756
2687.25685	0.03760
2685.97108	0.03771
2684.68531	0.03778
2683.39954	0.03769
2682.11377	0.03744
2680.82800	0.03718
2679.54224	0.03708
2678.25647	0.03717
2676.97070	0.03735
2675.68493	0.03750
2674.39916	0.03753
2673.11339	0.03744
2671.82762	0.03725
2670.54185	0.03700
2669.25608	0.03674
2667.97032	0.03651
2666.68455	0.03640
2665.39878	0.03643
2664.11301	0.03654
2662.82724	0.03664
2661.54147	0.03674
2660.25570	0.03689
2658.96993	0.03708
2657.68417	0.03723
2656.39840	0.03727
2655.11263	0.03721
2653.82686	0.03710
2652.54109	0.03700
2651.25532	0.03694
2649.96955	0.03691
2648.68378	0.03682
2647.39801	0.03664
2646.11225	0.03641
2644.82648	0.03615
2643.54071	0.03586
2642.25494	0.03558
2640.96917	0.03536
2639.68340	0.03521
2638.39763	0.03511
2637.11186	0.03500
2635.82609	0.03483
2634.54033	0.03458
2633.25456	0.03430
2631.96879	0.03409
2630.68302	0.03403
2629.39725	0.03405
2628.11148	0.03397
2626.82571	0.03372
2625.53994	0.03342
2624.25418	0.03325
2622.96841	0.03322
2621.68264	0.03325
2620.39687	0.03320
2619.11110	0.03302
2617.82533	0.03274
2616.53956	0.03245
2615.25379	0.03228
2613.96802	0.03227
2612.68226	0.03234
2611.39649	0.03237
2610.11072	0.03230
2608.82495	0.03216
2607.53918	0.03204
2606.25341	0.03198
2604.96764	0.03198
2603.68187	0.03202
2602.39611	0.03205
2601.11034	0.03200
2599.82457	0.03184
2598.53880	0.03158
2597.25303	0.03130
2595.96726	0.03107
2594.68149	0.03084
2593.39572	0.03054
2592.10995	0.03022
2590.82419	0.03008
2589.53842	0.03024
2588.25265	0.03054
2586.96688	0.03068
2585.68111	0.03049
2584.39534	0.03013
2583.10957	0.02986
2581.82380	0.02986
2580.53804	0.03007
2579.25227	0.03031
2577.96650	0.03042
2576.68073	0.03037
2575.39496	0.03021
2574.10919	0.02998
2572.82342	0.02969
2571.53765	0.02937
2570.25188	0.02907
2568.96612	0.02889
2567.68035	0.02888
2566.39458	0.02902
2565.10881	0.02914
2563.82304	0.02914
2562.53727	0.02906
2561.25150	0.02900
2559.96573	0.02899
2558.67997	0.02901
2557.39420	0.02901
2556.10843	0.02901
2554.82266	0.02901
2553.53689	0.02903
2552.25112	0.02900
2550.96535	0.02884
2549.67958	0.02844
2548.39381	0.02794
2547.10805	0.02764
2545.82228	0.02774
2544.53651	0.02807
2543.25074	0.02827
2541.96497	0.02822
2540.67920	0.02814
2539.39343	0.02824
2538.10766	0.02842
2536.82190	0.02838
2535.53613	0.02807
2534.25036	0.02778
2532.96459	0.02778
2531.67882	0.02800
2530.39305	0.02814
2529.10728	0.02808
2527.82151	0.02793
2526.53574	0.02791
2525.24998	0.02809
2523.96421	0.02826
2522.67844	0.02819
2521.39267	0.02793
2520.10690	0.02780
2518.82113	0.02794
2517.53536	0.02814
2516.24959	0.02805
2514.96383	0.02770
2513.67806	0.02739
2512.39229	0.02733
2511.10652	0.02742
2509.82075	0.02742
2508.53498	0.02730
2507.24921	0.02726
2505.96344	0.02749
2504.67767	0.02786
2503.39191	0.02801
2502.10614	0.02780
2500.82037	0.02747
2499.53460	0.02735
2498.24883	0.02741
2496.96306	0.02741
2495.67729	0.02722
2494.39152	0.02690
2493.10576	0.02652
2491.81999	0.02612
2490.53422	0.02580
2489.24845	0.02567
2487.96268	0.02573
2486.67691	0.02584
2485.39114	0.02594
2484.10537	0.02608
2482.81960	0.02625
2481.53384	0.02637
2480.24807	0.02632
2478.96230	0.02618
2477.67653	0.02619
2476.39076	0.02648
2475.10499	0.02696
2473.81922	0.02739
2472.53345	0.02767
2471.24769	0.02781
2469.96192	0.02779
2468.67615	0.02764
2467.39038	0.02747
2466.10461	0.02745
2464.81884	0.02755
2463.53307	0.02759
2462.24730	0.02737
2460.96153	0.02694
2459.67577	0.02654
2458.39000	0.02636
2457.10423	0.02641
2455.81846	0.02650
2454.53269	0.02646
2453.24692	0.02629
2451.96115	0.02612
2450.67538	0.02602
2449.38962	0.02600
2448.10385	0.02601
2446.81808	0.02608
2445.53231	0.02629
2444.24654	0.02661
2442.96077	0.02689
2441.67500	0.02697
2440.38923	0.02683
2439.10346	0.02658
2437.81770	0.02626
2436.53193	0.02596
2435.24616	0.02580
2433.96039	0.02591
2432.67462	0.02621
2431.38885	0.02645
2430.10308	0.02646
2428.81731	0.02615
2427.53155	0.02560
2426.24578	0.02500
2424.96001	0.02456
2423.67424	0.02437
2422.38847	0.02441
2421.10270	0.02459
2419.81693	0.02484
2418.53116	0.02513
2417.24539	0.02544
2415.95963	0.02577
2414.67386	0.02607
2413.38809	0.02619
2412.10232	0.02608
2410.81655	0.02585
2409.53078	0.02567
2408.24501	0.02559
2406.95924	0.02551
2405.67347	0.02533
2404.38771	0.02504
2403.10194	0.02473
2401.81617	0.02453
2400.53040	0.02448
2399.24463	0.02499
2397.95886	0.02534
2396.67309	0.02538
2395.38732	0.02535
2394.10156	0.02532
2392.81579	0.02523
2391.53002	0.02496
2390.24425	0.02450
2388.95848	0.02392
2387.67271	0.02334
2386.38694	0.02288
2385.10117	0.02260
2383.81540	0.02246
2382.52964	0.02235
2381.24387	0.02215
2379.95810	0.02191
2378.67233	0.02170
2377.38656	0.02149
2376.10079	0.02142
2374.81502	0.02140
2373.52925	0.02119
2372.24349	0.02079
2370.95772	0.02010
2369.67195	0.01962
2368.38618	0.01960
2367.10041	0.01975
2365.81464	0.01991
2364.52887	0.01997
2363.24310	0.01923
2361.95733	0.01752
2360.67157	0.01578
2359.38580	0.01512
2358.10003	0.01526
2356.81426	0.01561
2355.52849	0.01607
2354.24272	0.01659
2352.95695	0.01718
2351.67118	0.01728
2350.38542	0.01637
2349.09965	0.01574
2347.81388	0.01700
2346.52811	0.01915
2345.24234	0.02040
2343.95657	0.02065
2342.67080	0.02086
2341.38503	0.02095
2340.09926	0.02050
2338.81350	0.01987
2337.52773	0.01933
2336.24196	0.01929
2334.95619	0.01948
2333.67042	0.01962
2332.38465	0.02013
2331.09888	0.02083
2329.81311	0.02139
2328.52735	0.02205
2327.24158	0.02248
2325.95581	0.02264
2324.67004	0.02293
2323.38427	0.02337
2322.09850	0.02385
2320.81273	0.02442
2319.52696	0.02452
2318.24119	0.02402
2316.95543	0.02343
2315.66966	0.02309
2314.38389	0.02310
2313.09812	0.02327
2311.81235	0.02344
2310.52658	0.02355
2309.24081	0.02355
2307.95504	0.02348
2306.66928	0.02346
2305.38351	0.02333
2304.09774	0.02318
2302.81197	0.02311
2301.52620	0.02303
2300.24043	0.02285
2298.95466	0.02256
2297.66889	0.02233
2296.38312	0.02226
2295.09736	0.02233
2293.81159	0.02239
2292.52582	0.02237
2291.24005	0.02234
2289.95428	0.02236
2288.66851	0.02245
2287.38274	0.02256
2286.09697	0.02264
2284.81121	0.02265
2283.52544	0.02262
2282.23967	0.02258
2280.95390	0.02254
2279.66813	0.02243
2278.38236	0.02212
2277.09659	0.02159
2275.81082	0.02093
2274.52505	0.02031
2273.23929	0.01989
2271.95352	0.01970
2270.66775	0.01972
2269.38198	0.01989
2268.09621	0.02012
2266.81044	0.02023
2265.52467	0.02001
2264.23890	0.01942
2262.95314	0.01857
2261.66737	0.01772
2260.38160	0.01712
2259.09583	0.01693
2257.81006	0.01719
2256.52429	0.01773
2255.23852	0.01824
2253.95275	0.01852
2252.66698	0.01858
2251.38122	0.01855
2250.09545	0.01855
2248.80968	0.01857
2247.52391	0.01841
2246.23814	0.01873
2244.95237	0.01958
2243.66660	0.02033
2242.38083	0.02031
2241.09507	0.01951
2239.80930	0.01854
2238.52353	0.01791
2237.23776	0.01778
2235.95199	0.01803
2234.66622	0.01850
2233.38045	0.01895
2232.09468	0.01912
2230.80891	0.01884
2229.52315	0.01803
2228.23738	0.01688
2226.95161	0.01584
2225.66584	0.01532
2224.38007	0.01533
2223.09430	0.01568
2221.80853	0.01617
2220.52276	0.01659
2219.23700	0.01663
2217.95123	0.01621
2216.66546	0.01561
2215.37969	0.01509
2214.09392	0.01451
2212.80815	0.01367
2211.52238	0.01269
2210.23661	0.01203
2208.95084	0.01198
2207.66508	0.01245
2206.37931	0.01322
2205.09354	0.01414
2203.80777	0.01504
2202.52200	0.01557
2201.23623	0.01551
2199.95046	0.01504
2198.66469	0.01462
2197.37893	0.01456
2196.09316	0.01472
2194.80739	0.01468
2193.52162	0.01398
2192.23585	0.01252
2190.95008	0.01085
2189.66431	0.00979
2188.37854	0.00969
2187.09277	0.01028
2185.80701	0.01123
2184.52124	0.01253
2183.23547	0.01410
2181.94970	0.01547
2180.66393	0.01606
2179.37816	0.01570
2178.09239	0.01464
2176.80662	0.01322
2175.52085	0.01167
2174.23509	0.01026
2172.94932	0.00949
2171.66355	0.00970
2170.37778	0.01047
2169.09201	0.01076
2167.80624	0.00993
2166.52047	0.00847
2165.23470	0.00735
2163.94894	0.00692
2162.66317	0.00671
2161.37740	0.00621
2160.09163	0.00553
2158.80586	0.00516
2157.52009	0.00523
2156.23432	0.00531
2154.94855	0.00516
2153.66278	0.00520
2152.37702	0.00598
2151.09125	0.00730
2149.80548	0.00836
2148.51971	0.00856
2147.23394	0.00818
2145.94817	0.00806
2144.66240	0.00880
2143.37663	0.01020
2142.09087	0.01141
2140.80510	0.01173
2139.51933	0.01117
2138.23356	0.01028
2136.94779	0.00965
2135.66202	0.00954
2134.37625	0.00994
2133.09048	0.01059
2131.80471	0.01117
2130.51895	0.01149
2129.23318	0.01158
2127.94741	0.01161
2126.66164	0.01171
2125.37587	0.01198
2124.09010	0.01245
2122.80433	0.01304
2121.51856	0.01359
2120.23280	0.01389
2118.94703	0.01387
2117.66126	0.01360
2116.37549	0.01324
2115.08972	0.01293
2113.80395	0.01280
2112.51818	0.01285
2111.23241	0.01294
2109.94664	0.01291
2108.66088	0.01282
2107.37511	0.01290
2106.08934	0.01319
2104.80357	0.01344
2103.51780	0.01345
2102.23203	0.01329
2100.94626	0.01322
2099.66049	0.01396
2098.37473	0.01445
2097.08896	0.01456
2095.80319	0.01448
2094.51742	0.01429
2093.23165	0.01399
2091.94588	0.01360
2090.66011	0.01321
2089.37434	0.01298
2088.08857	0.01299
2086.80281	0.01317
2085.51704	0.01336
2084.23127	0.01345
2082.94550	0.01354
2081.65973	0.01385
2080.37396	0.01440
2079.08819	0.01487
2077.80242	0.01480
2076.51666	0.01405
2075.23089	0.01296
2073.94512	0.01202
2072.65935	0.01146
2071.37358	0.01116
2070.08781	0.01084
2068.80204	0.01039
2067.51627	0.01000
2066.23050	0.00986
2064.94474	0.01003
2063.65897	0.01029
2062.37320	0.01042
2061.08743	0.01037
2059.80166	0.01037
2058.51589	0.01053
2057.23012	0.01069
2055.94435	0.01058
2054.65859	0.01017
2053.37282	0.00969
2052.08705	0.00937
2050.80128	0.00916
2049.51551	0.00888
2048.22974	0.00839
2046.94397	0.00782
2045.65820	0.00734
2044.37243	0.00702
2043.08667	0.00671
2041.80090	0.00625
2040.51513	0.00573
2039.22936	0.00543
2037.94359	0.00547
2036.65782	0.00560
2035.37205	0.00541
2034.08628	0.00471
2032.80052	0.00369
2031.51475	0.00280
2030.22898	0.00244
2028.94321	0.00280
2027.65744	0.00377
2026.37167	0.00501
2025.08590	0.00603
2023.80013	0.00640
2022.51436	0.00610
2021.22860	0.00555
2019.94283	0.00525
2018.65706	0.00528
2017.37129	0.00530
2016.08552	0.00504
2014.79975	0.00473
2013.51398	0.00486
2012.22821	0.00552
2010.94245	0.00622
2009.65668	0.00634
2008.37091	0.00588
2007.08514	0.00539
2005.79937	0.00541
2004.51360	0.00597
2003.22783	0.00679
2001.94206	0.00761
2000.65629	0.00819
1999.37053	0.00837
1998.08476	0.00816
1996.79899	0.00783
1995.51322	0.00771
1994.22745	0.00792
1992.94168	0.00835
1991.65591	0.00887
1990.37014	0.00943
1989.08438	0.00991
1987.79861	0.01000
1986.51284	0.00959
1985.22707	0.00904
1983.94130	0.00895
1982.65553	0.00951
1981.36976	0.01017
1980.08399	0.01017
1978.79822	0.00930
1977.51246	0.00814
1976.22669	0.00745
1974.94092	0.00748
1973.65515	0.00786
1972.36938	0.00808
1971.08361	0.00794
1969.79784	0.00759
1968.51207	0.00726
1967.22631	0.00715
1965.94054	0.00734
1964.65477	0.00788
1963.36900	0.00869
1962.08323	0.00944
1960.79746	0.00979
1959.51169	0.00976
1958.22592	0.00974
1956.94015	0.01008
1955.65439	0.01074
1954.36862	0.01144
1953.08285	0.01194
1951.79708	0.01217
1950.51131	0.01228
1949.22554	0.01235
1947.93977	0.01238
1946.65400	0.01226
1945.36823	0.01195
1944.08247	0.01161
1942.79670	0.01145
1941.51093	0.01158
1940.22516	0.01182
1938.93939	0.01200
1937.65362	0.01215
1936.36785	0.01237
1935.08208	0.01263
1933.79632	0.01269
1932.51055	0.01241
1931.22478	0.01196
1929.93901	0.01166
1928.65324	0.01164
1927.36747	0.01174
1926.08170	0.01177
1924.79593	0.01177
1923.51016	0.01196
1922.22440	0.01240
1920.93863	0.01279
1919.65286	0.01287
1918.36709	0.01281
1917.08132	0.01301
1915.79555	0.01350
1914.50978	0.01405
1913.22401	0.01455
1911.93825	0.01495
1910.65248	0.01516
1909.36671	0.01503
1908.08094	0.01463
1906.79517	0.01415
1905.50940	0.01381
1904.22363	0.01367
1902.93786	0.01366
1901.65209	0.01363
1900.36633	0.01351
1899.08056	0.01332
1897.79479	0.01314
1896.50902	0.01305
1895.22325	0.01313
1893.93748	0.01336
1892.65171	0.01361
1891.36594	0.01369
1890.08018	0.01366
1888.79441	0.01370
1887.50864	0.01385
1886.22287	0.01399
1884.93710	0.01406
1883.65133	0.01412
1882.36556	0.01423
1881.07979	0.01433
1879.79402	0.01436
1878.50826	0.01429
1877.22249	0.01416
1875.93672	0.01404
1874.65095	0.01405
1873.36518	0.01419
1872.07941	0.01430
1870.79364	0.01423
1869.50787	0.01411
1868.22211	0.01419
1866.93634	0.01452
1865.65057	0.01491
1864.36480	0.01518
1863.07903	0.01527
1861.79326	0.01519
1860.50749	0.01499
1859.22172	0.01475
1857.93595	0.01452
1856.65019	0.01434
1855.36442	0.01421
1854.07865	0.01412
1852.79288	0.01412
1851.50711	0.01422
1850.22134	0.01439
1848.93557	0.01468
1847.64980	0.01497
1846.36404	0.01504
1845.07827	0.01485
1843.79250	0.01473
1842.50673	0.01478
1841.22096	0.01478
1839.93519	0.01463
1838.64942	0.01452
1837.36365	0.01453
1836.07788	0.01455
1834.79212	0.01457
1833.50635	0.01460
1832.22058	0.01459
1830.93481	0.01454
1829.64904	0.01463
1828.36327	0.01489
1827.07750	0.01504
1825.79173	0.01503
1824.50597	0.01506
1823.22020	0.01524
1821.93443	0.01538
1820.64866	0.01538
1819.36289	0.01524
1818.07712	0.01504
1816.79135	0.01487
1815.50558	0.01480
1814.21981	0.01477
1812.93405	0.01472
1811.64828	0.01466
1810.36251	0.01464
1809.07674	0.01467
1807.79097	0.01473
1806.50520	0.01485
1805.21943	0.01500
1803.93366	0.01506
1802.64790	0.01493
1801.36213	0.01471
1800.07636	0.01463
1798.79059	0.01481
1797.50482	0.01520
1796.21905	0.01562
1794.93328	0.01580
1793.64751	0.01568
1792.36174	0.01559
1791.07598	0.01576
1789.79021	0.01601
1788.50444	0.01602
1787.21867	0.01577
1785.93290	0.01553
1784.64713	0.01553
1783.36136	0.01572
1782.07559	0.01586
1780.78983	0.01585
1779.50406	0.01581
1778.21829	0.01585
1776.93252	0.01596
1775.64675	0.01601
1774.36098	0.01588
1773.07521	0.01577
1771.78944	0.01603
1770.50367	0.01641
1769.21791	0.01646
1767.93214	0.01623
1766.64637	0.01616
1765.36060	0.01621
1764.07483	0.01608
1762.78906	0.01585
1761.50329	0.01590
1760.21752	0.01620
1758.93176	0.01635
1757.64599	0.01623
1756.36022	0.01622
1755.07445	0.01644
1753.78868	0.01652
1752.50291	0.01627
1751.21714	0.01604
1749.93137	0.01610
1748.64560	0.01625
1747.35984	0.01628
1746.07407	0.01622
1744.78830	0.01620
1743.50253	0.01625
1742.21676	0.01624
1740.93099	0.01621
1739.64522	0.01648
1738.35945	0.01718
1737.07369	0.01766
1735.78792	0.01736
1734.50215	0.01685
1733.21638	0.01700
1731.93061	0.01761
1730.64484	0.01787
1729.35907	0.01764
1728.07330	0.01744
1726.78753	0.01747
1725.50177	0.01758
1724.21600	0.01777
1722.93023	0.01816
1721.64446	0.01866
1720.35869	0.01886
1719.07292	0.01864
1717.78715	0.01852
1716.50138	0.01892
1715.21561	0.01956
1713.92985	0.01997
1712.64408	0.02012
1711.35831	0.02021
1710.07254	0.02037
1708.78677	0.02057
1707.50100	0.02076
1706.21523	0.02111
1704.92946	0.02192
1703.64370	0.02285
1702.35793	0.02315
1701.07216	0.02309
1699.78639	0.02363
1698.50062	0.02452
1697.21485	0.02469
1695.92908	0.02436
1694.64331	0.02461
1693.35754	0.02534
1692.07178	0.02573
1690.78601	0.02590
1689.50024	0.02651
1688.21447	0.02746
1686.92870	0.02794
1685.64293	0.02775
1684.35716	0.02777
1683.07139	0.02853
1681.78563	0.02936
1680.49986	0.02971
1679.21409	0.02987
1677.92832	0.03004
1676.64255	0.03014
1675.35678	0.03043
1674.07101	0.03119
1672.78524	0.03201
1671.49947	0.03238
1670.21371	0.03244
1668.92794	0.03272
1667.64217	0.03333
1666.35640	0.03387
1665.07063	0.03400
1663.78486	0.03394
1662.49909	0.03415
1661.21332	0.03469
1659.92756	0.03536
1658.64179	0.03614
1657.35602	0.03708
1656.07025	0.03766
1654.78448	0.03740
1653.49871	0.03710
1652.21294	0.03790
1650.92717	0.03937
1649.64140	0.04000
1648.35564	0.03938
1647.06987	0.03857
1645.78410	0.03846
1644.49833	0.03887
1643.21256	0.03915
1641.92679	0.03915
1640.64102	0.03918
1639.35525	0.03938
1638.06949	0.03938
1636.78372	0.03906
1635.49795	0.03891
1634.21218	0.03924
1632.92641	0.03965
1631.64064	0.03960
1630.35487	0.03918
1629.06910	0.03880
1627.78333	0.03864
1626.49757	0.03854
1625.21180	0.03828
1623.92603	0.03794
1622.64026	0.03791
1621.35449	0.03825
1620.06872	0.03843
1618.78295	0.03804
1617.49718	0.03743
1616.21142	0.03736
1614.92565	0.03782
1613.63988	0.03810
1612.35411	0.03789
1611.06834	0.03754
1609.78257	0.03737
1608.49680	0.03738
1607.21103	0.03745
1605.92526	0.03752
1604.63950	0.03759
1603.35373	0.03766
1602.06796	0.03775
1600.78219	0.03787
1599.49642	0.03798
1598.21065	0.03809
1596.92488	0.03820
1595.63911	0.03833
1594.35335	0.03849
1593.06758	0.03865
1591.78181	0.03880
1590.49604	0.03894
1589.21027	0.03911
1587.92450	0.03932
1586.63873	0.03956
1585.35296	0.03983
1584.06719	0.04011
1582.78143	0.04043
1581.49566	0.04091
1580.20989	0.04153
1578.92412	0.04193
1577.63835	0.04189
1576.35258	0.04193
1575.06681	0.04264
1573.78104	0.04365
1572.49528	0.04412
1571.20951	0.04397
1569.92374	0.04386
1568.63797	0.04418
1567.35220	0.04468
1566.06643	0.04505
1564.78066	0.04552
1563.49489	0.04628
1562.20912	0.04682
1560.92336	0.04672
1559.63759	0.04650
1558.35182	0.04700
1557.06605	0.04788
1555.78028	0.04818
1554.49451	0.04788
1553.20874	0.04766
1551.92297	0.04774
1550.63721	0.04790
1549.35144	0.04810
1548.06567	0.04838
1546.77990	0.04859
1545.49413	0.04878
1544.20836	0.04904
1542.92259	0.04922
1541.63682	0.04899
1540.35105	0.04859
1539.06529	0.04865
1537.77952	0.04923
1536.49375	0.04955
1535.20798	0.04922
1533.92221	0.04876
1532.63644	0.04886
1531.35067	0.04938
1530.06490	0.04985
1528.77914	0.05016
1527.49337	0.05058
1526.20760	0.05134
1524.92183	0.05233
1523.63606	0.05314
1522.35029	0.05370
1521.06452	0.05450
1519.77875	0.05572
1518.49298	0.05685
1517.20722	0.05768
1515.92145	0.05854
1514.63568	0.05962
1513.34991	0.06084
1512.06414	0.06230
1510.77837	0.06405
1509.49260	0.06568
1508.20683	0.06683
1506.92107	0.06790
1505.63530	0.06948
1504.34953	0.07136
1503.06376	0.07281
1501.77799	0.07368
1500.49222	0.07443
1499.20645	0.07526
1497.92068	0.07604
1496.63491	0.07684
1495.34915	0.07786
1494.06338	0.07896
1492.77761	0.07977
1491.49184	0.08031
1490.20607	0.08099
1488.92030	0.08198
1487.63453	0.08310
1486.34876	0.08420
1485.06299	0.08529
1483.77723	0.08638
1482.49146	0.08753
1481.20569	0.08886
1479.91992	0.09034
1478.63415	0.09185
1477.34838	0.09328
1476.06261	0.09457
1474.77684	0.09557
1473.49108	0.09630
1472.20531	0.09700
1470.91954	0.09782
1469.63377	0.09848
1468.34800	0.09873
1467.06223	0.09861
1465.77646	0.09843
1464.49069	0.09855
1463.20492	0.09907
1461.91916	0.09984
1460.63339	0.10052
1459.34762	0.10086
1458.06185	0.10101
1456.77608	0.10156
1455.49031	0.10268
1454.20454	0.10370
1452.91877	0.10413
1451.63301	0.10420
1450.34724	0.10430
1449.06147	0.10451
1447.77570	0.10481
1446.48993	0.10516
1445.20416	0.10540
1443.91839	0.10539
1442.63262	0.10522
1441.34685	0.10507
1440.06109	0.10488
1438.77532	0.10443
1437.48955	0.10388
1436.20378	0.10373
1434.91801	0.10409
1433.63224	0.10459
1432.34647	0.10502
1431.06070	0.10563
1429.77494	0.10666
1428.48917	0.10807
1427.20340	0.10961
1425.91763	0.11115
1424.63186	0.11274
1423.34609	0.11448
1422.06032	0.11610
1420.77455	0.11735
1419.48878	0.11851
1418.20302	0.11986
1416.91725	0.12115
1415.63148	0.12198
1414.34571	0.12234
1413.05994	0.12247
1411.77417	0.12246
1410.48840	0.12230
1409.20263	0.12193
1407.91687	0.12131
1406.63110	0.12043
1405.34533	0.11934
1404.05956	0.11813
1402.77379	0.11670
1401.48802	0.11489
1400.20225	0.11275
1398.91648	0.11053
1397.63071	0.10831
1396.34495	0.10597
1395.05918	0.10351
1393.77341	0.10117
1392.48764	0.09899
1391.20187	0.09677
1389.91610	0.09434
1388.63033	0.09181
1387.34456	0.08942
1386.05880	0.08725
1384.77303	0.08516
1383.48726	0.08296
1382.20149	0.08070
1380.91572	0.07847
1379.62995	0.07626
1378.34418	0.07402
1377.05841	0.07172
1375.77264	0.06932
1374.48688	0.06689
1373.20111	0.06454
1371.91534	0.06227
1370.62957	0.06001
1369.34380	0.05783
1368.05803	0.05585
1366.77226	0.05410
1365.48649	0.05245
1364.20073	0.05082
1362.91496	0.04923
1361.62919	0.04778
1360.34342	0.04646
1359.05765	0.04521
1357.77188	0.04402
1356.48611	0.04292
1355.20034	0.04191
1353.91457	0.04096
1352.62881	0.04007
1351.34304	0.03921
1350.05727	0.03842
1348.77150	0.03768
1347.48573	0.03699
1346.19996	0.03635
1344.91419	0.03577
1343.62842	0.03524
1342.34266	0.03472
1341.05689	0.03417
1339.77112	0.03360
1338.48535	0.03308
1337.19958	0.03261
1335.91381	0.03216
1334.62804	0.03174
1333.34227	0.03132
1332.05650	0.03090
1330.77074	0.03049
1329.48497	0.03008
1328.19920	0.02968
1326.91343	0.02932
1325.62766	0.02898
1324.34189	0.02867
1323.05612	0.02837
1321.77035	0.02806
1320.48459	0.02775
1319.19882	0.02744
1317.91305	0.02714
1316.62728	0.02684
1315.34151	0.02657
1314.05574	0.02634
1312.76997	0.02615
1311.48420	0.02597
1310.19843	0.02580
1308.91267	0.02565
1307.62690	0.02550
1306.34113	0.02532
1305.05536	0.02506
1303.76959	0.02476
1302.48382	0.02450
1301.19805	0.02432
1299.91228	0.02420
1298.62652	0.02410
1297.34075	0.02399
1296.05498	0.02387
1294.76921	0.02374
1293.48344	0.02360
1292.19767	0.02346
1290.91190	0.02332
1289.62613	0.02317
1288.34036	0.02300
1287.05460	0.02283
1285.76883	0.02267
1284.48306	0.02252
1283.19729	0.02239
1281.91152	0.02226
1280.62575	0.02213
1279.33998	0.02200
1278.05421	0.02187
1276.76845	0.02171
1275.48268	0.02155
1274.19691	0.02141
1272.91114	0.02129
1271.62537	0.02119
1270.33960	0.02112
1269.05383	0.02104
1267.76806	0.02095
1266.48229	0.02086
1265.19653	0.02079
1263.91076	0.02072
1262.62499	0.02064
1261.33922	0.02054
1260.05345	0.02042
1258.76768	0.02034
1257.48191	0.02030
1256.19614	0.02030
1254.91037	0.02032
1253.62461	0.02033
1252.33884	0.02029
1251.05307	0.02022
1249.76730	0.02015
1248.48153	0.02009
1247.19576	0.02006
1245.90999	0.02003
1244.62422	0.01996
1243.33846	0.01987
1242.05269	0.01978
1240.76692	0.01971
1239.48115	0.01966
1238.19538	0.01960
1236.90961	0.01951
1235.62384	0.01942
1234.33807	0.01933
1233.05230	0.01924
1231.76654	0.01916
1230.48077	0.01906
1229.19500	0.01891
1227.90923	0.01871
1226.62346	0.01850
1225.33769	0.01832
1224.05192	0.01822
1222.76615	0.01816
1221.48039	0.01813
1220.19462	0.01809
1218.90885	0.01804
1217.62308	0.01799
1216.33731	0.01795
1215.05154	0.01791
1213.76577	0.01786
1212.48000	0.01779
1211.19423	0.01768
1209.90847	0.01758
1208.62270	0.01750
1207.33693	0.01746
1206.05116	0.01748
1204.76539	0.01753
1203.47962	0.01760
1202.19385	0.01767
1200.90808	0.01769
1199.62232	0.01762
1198.33655	0.01760
1197.05078	0.01754
1195.76501	0.01748
1194.47924	0.01742
1193.19347	0.01736
1191.90770	0.01731
1190.62193	0.01728
1189.33616	0.01727
1188.05040	0.01727
1186.76463	0.01726
1185.47886	0.01722
1184.19309	0.01718
1182.90732	0.01718
1181.62155	0.01724
1180.33578	0.01733
1179.05001	0.01738
1177.76425	0.01734
1176.47848	0.01727
1175.19271	0.01726
1173.90694	0.01738
1172.62117	0.01757
1171.33540	0.01774
1170.04963	0.01784
1168.76386	0.01794
1167.47809	0.01812
1166.19233	0.01841
1164.90656	0.01871
1163.62079	0.01893
1162.33502	0.01909
1161.04925	0.01921
1159.76348	0.01932
1158.47771	0.01944
1157.19194	0.01961
1155.90618	0.01988
1154.62041	0.02025
1153.33464	0.02065
1152.04887	0.02107
1150.76310	0.02149
1149.47733	0.02195
1148.19156	0.02244
1146.90579	0.02296
1145.62002	0.02355
1144.33426	0.02423
1143.04849	0.02502
1141.76272	0.02591
1140.47695	0.02688
1139.19118	0.02795
1137.90541	0.02917
1136.61964	0.03058
1135.33387	0.03215
1134.04811	0.03385
1132.76234	0.03569
1131.47657	0.03772
1130.19080	0.03998
1128.90503	0.04247
1127.61926	0.04517
1126.33349	0.04808
1125.04772	0.05120
1123.76195	0.05454
1122.47619	0.05807
1121.19042	0.06177
1119.90465	0.06558
1118.61888	0.06946
1117.33311	0.07340
1116.04734	0.07735
1114.76157	0.08132
1113.47580	0.08526
1112.19004	0.08916
1110.90427	0.09295
1109.61850	0.09661
1108.33273	0.10016
1107.04696	0.10366
1105.76119	0.10717
1104.47542	0.11066
1103.18965	0.11410
1101.90388	0.11745
1100.61812	0.12073
1099.33235	0.12394
1098.04658	0.12706
1096.76081	0.13007
1095.47504	0.13295
1094.18927	0.13568
1092.90350	0.13825
1091.61773	0.14067
1090.33197	0.14298
1089.04620	0.14521
1087.76043	0.14739
1086.47466	0.14957
1085.18889	0.15181
1083.90312	0.15416
1082.61735	0.15665
1081.33158	0.15927
1080.04581	0.16202
1078.76005	0.16491
1077.47428	0.16800
1076.18851	0.17129
1074.90274	0.17471
1073.61697	0.17816
1072.33120	0.18165
1071.04543	0.18526
1069.75966	0.18907
1068.47390	0.19310
1067.18813	0.19732
1065.90236	0.20165
1064.61659	0.20602
1063.33082	0.21038
1062.04505	0.21472
1060.75928	0.21908
1059.47351	0.22341
1058.18774	0.22769
1056.90198	0.23185
1055.61621	0.23592
1054.33044	0.23995
1053.04467	0.24400
1051.75890	0.24812
1050.47313	0.25235
1049.18736	0.25668
1047.90159	0.26111
1046.61583	0.26566
1045.33006	0.27034
1044.04429	0.27519
1042.75852	0.28017
1041.47275	0.28523
1040.18698	0.29032
1038.90121	0.29541
1037.61544	0.30052
1036.32967	0.30565
1035.04391	0.31077
1033.75814	0.31582
1032.47237	0.32068
1031.18660	0.32527
1029.90083	0.32952
1028.61506	0.33339
1027.32929	0.33686
1026.04352	0.33988
1024.75775	0.34242
1023.47199	0.34446
1022.18622	0.34605
1020.90045	0.34719
1019.61468	0.34786
1018.32891	0.34797
1017.04314	0.34743
1015.75737	0.34617
1014.47160	0.34418
1013.18584	0.34141
1011.90007	0.33780
1010.61430	0.33331
1009.32853	0.32795
1008.04276	0.32178
1006.75699	0.31487
1005.47122	0.30725
1004.18545	0.29895
1002.89968	0.29000
1001.61392	0.28049
1000.32815	0.27054
999.04238	0.26031
997.75661	0.24994
996.47084	0.23949
995.18507	0.22898
993.89930	0.21846
992.61353	0.20810
991.32777	0.19809
990.04200	0.18859
988.75623	0.17963
987.47046	0.17117
986.18469	0.16311
984.89892	0.15541
983.61315	0.14809
982.32738	0.14122
981.04161	0.13490
979.75585	0.12909
978.47008	0.12372
977.18431	0.11881
975.89854	0.11445
974.61277	0.11076
973.32700	0.10781
972.04123	0.10563
970.75546	0.10416
969.46970	0.10337
968.18393	0.10323
966.89816	0.10371
965.61239	0.10471
964.32662	0.10608
963.04085	0.10756
961.75508	0.10876
960.46931	0.10927
959.18354	0.10883
957.89778	0.10741
956.61201	0.10519
955.32624	0.10240
954.04047	0.09927
952.75470	0.09602
951.46893	0.09283
950.18316	0.08980
948.89739	0.08692
947.61163	0.08417
946.32586	0.08149
945.04009	0.07887
943.75432	0.07631
942.46855	0.07384
941.18278	0.07151
939.89701	0.06936
938.61124	0.06738
937.32547	0.06553
936.03971	0.06382
934.75394	0.06226
933.46817	0.06086
932.18240	0.05958
930.89663	0.05841
929.61086	0.05733
928.32509	0.05636
927.03932	0.05545
925.75356	0.05453
924.46779	0.05360
923.18202	0.05267
921.89625	0.05185
920.61048	0.05118
919.32471	0.05061
918.03894	0.05007
916.75317	0.04954
915.46740	0.04907
914.18164	0.04868
912.89587	0.04831
911.61010	0.04787
910.32433	0.04733
909.03856	0.04670
907.75279	0.04604
906.46702	0.04541
905.18125	0.04487
903.89549	0.04445
902.60972	0.04414
901.32395	0.04390
900.03818	0.04369
898.75241	0.04349
897.46664	0.04326
896.18087	0.04299
894.89510	0.04273
893.60933	0.04257
892.32357	0.04261
891.03780	0.04284
889.75203	0.04320
888.46626	0.04372
887.18049	0.04458
885.89472	0.04604
884.60895	0.04833
883.32318	0.05151
882.03742	0.05530
880.75165	0.05913
879.46588	0.06232
878.18011	0.06459
876.89434	0.06627
875.60857	0.06791
874.32280	0.06974
873.03703	0.07142
871.75126	0.07238
870.46550	0.07225
869.17973	0.07100
867.89396	0.06879
866.60819	0.06588
865.32242	0.06259
864.03665	0.05927
862.75088	0.05618
861.46511	0.05344
860.17935	0.05109
858.89358	0.04913
857.60781	0.04752
856.32204	0.04622
855.03627	0.04517
853.75050	0.04429
852.46473	0.04356
851.17896	0.04296
849.89319	0.04247
848.60743	0.04206
847.32166	0.04170
846.03589	0.04136
844.75012	0.04105
843.46435	0.04073
842.17858	0.04040
840.89281	0.04006
839.60704	0.03973
838.32128	0.03944
837.03551	0.03918
835.74974	0.03894
834.46397	0.03870
833.17820	0.03848
831.89243	0.03829
830.60666	0.03808
829.32089	0.03785
828.03512	0.03763
826.74936	0.03749
825.46359	0.03743
824.17782	0.03740
822.89205	0.03733
821.60628	0.03725
820.32051	0.03720
819.03474	0.03719
817.74897	0.03716
816.46321	0.03703
815.17744	0.03685
813.89167	0.03669
812.60590	0.03659
811.32013	0.03650
810.03436	0.03639
808.74859	0.03629
807.46282	0.03620
806.17705	0.03612
804.89129	0.03603
803.60552	0.03594
802.31975	0.03591
801.03398	0.03595
799.74821	0.03605
798.46244	0.03618
797.17667	0.03626
795.89090	0.03623
794.60513	0.03607
793.31937	0.03587
792.03360	0.03572
790.74783	0.03562
789.46206	0.03556
788.17629	0.03553
786.89052	0.03557
785.60475	0.03569
784.31898	0.03580
783.03322	0.03585
781.74745	0.03583
780.46168	0.03581
779.17591	0.03581
777.89014	0.03582
776.60437	0.03582
775.31860	0.03580
774.03283	0.03574
772.74706	0.03568
771.46130	0.03562
770.17553	0.03557
768.88976	0.03548
767.60399	0.03538
766.31822	0.03527
765.03245	0.03519
763.74668	0.03515
762.46091	0.03520
761.17515	0.03538
759.88938	0.03563
758.60361	0.03582
757.31784	0.03588
756.03207	0.03582
754.74630	0.03572
753.46053	0.03559
752.17476	0.03546
750.88899	0.03537
749.60323	0.03536
748.31746	0.03543
747.03169	0.03554
745.74592	0.03562
744.46015	0.03558
743.17438	0.03543
741.88861	0.03526
740.60284	0.03518
739.31708	0.03523
738.03131	0.03534
736.74554	0.03542
735.45977	0.03547
734.17400	0.03549
732.88823	0.03554
731.60246	0.03559
730.31669	0.03561
729.03092	0.03559
727.74516	0.03554
726.45939	0.03551
725.17362	0.03550
723.88785	0.03541
722.60208	0.03552
721.31631	0.03582
720.03054	0.03608
718.74477	0.03618
717.45901	0.03624
716.17324	0.03624
714.88747	0.03614
713.60170	0.03596
712.31593	0.03577
711.03016	0.03560
709.74439	0.03547
708.45862	0.03539
707.17285	0.03534
705.88709	0.03530
704.60132	0.03527
703.31555	0.03526
702.02978	0.03528
700.74401	0.03535
699.45824	0.03546
698.17247	0.03559
696.88670	0.03571
695.60094	0.03578
694.31517	0.03581
693.02940	0.03580
691.74363	0.03576
690.45786	0.03570
689.17209	0.03561
687.88632	0.03548
686.60055	0.03529
685.31478	0.03505
684.02902	0.03480
682.74325	0.03459
681.45748	0.03444
680.17171	0.03435
678.88594	0.03428
677.60017	0.03422
676.31440	0.03422
675.02863	0.03428
673.74287	0.03433
672.45710	0.03430
671.17133	0.03436
669.88556	0.03511
668.59979	0.03641
667.31402	0.03617
666.02825	0.03499
664.74248	0.03461
663.45671	0.03461
662.17095	0.03453
660.88518	0.03440
659.59941	0.03433
658.31364	0.03432
657.02787	0.03434
655.74210	0.03437
654.45633	0.03436
653.17056	0.03434
651.88480	0.03432
650.59903	0.03432
649.31326	0.03438
648.02749	0.03448
646.74172	0.03463
645.45595	0.03482
644.17018	0.03500
642.88441	0.03515
641.59864	0.03529
640.31288	0.03547
639.02711	0.03574
637.74134	0.03609
636.45557	0.03649
635.16980	0.03687
633.88403	0.03724
632.59826	0.03771
631.31249	0.03850
630.02673	0.03979
628.74096	0.04101
627.45519	0.04136
626.16942	0.04317
624.88365	0.04566
623.59788	0.04771
622.31211	0.04946
621.02634	0.05178
619.74057	0.05524
618.45481	0.05946
617.16904	0.06348
615.88327	0.06681
614.59750	0.07001
613.31173	0.07427
612.02596	0.08038
610.74019	0.08786
609.45442	0.09542
608.16866	0.10212
606.88289	0.10813
605.59712	0.11388
604.31135	0.11893
603.02558	0.12203
601.73981	0.12237
600.45404	0.12034
599.16827	0.11709
597.88250	0.11349
596.59674	0.10984
595.31097	0.10617
594.02520	0.10267
592.73943	0.09976
591.45366	0.09779
590.16789	0.09681
588.88212	0.09663
587.59635	0.09707
586.31059	0.09805
585.02482	0.09960
583.73905	0.10173
582.45328	0.10441
581.16751	0.10750
579.88174	0.11081
578.59597	0.11416
577.31020	0.11747
576.02443	0.12076
574.73867	0.12413
573.45290	0.12764
572.16713	0.13135
570.88136	0.13538
569.59559	0.13995
568.30982	0.14507
567.02405	0.15050
565.73828	0.15579
564.45251	0.16044
563.16675	0.16397
561.88098	0.16583
560.59521	0.16557
559.30944	0.16295
558.02367	0.15806
556.73790	0.15129
555.45213	0.14322
554.16636	0.13446
552.88060	0.12561
551.59483	0.11713
550.30906	0.10930
549.02329	0.10226
547.73752	0.09603
546.45175	0.09054
545.16598	0.08574
543.88021	0.08157
542.59444	0.07796
541.30868	0.07478
540.02291	0.07192
538.73714	0.06930
537.45137	0.06689
536.16560	0.06466
534.87983	0.06261
533.59406	0.06078
532.30829	0.05911
531.02253	0.05754
529.73676	0.05602
528.45099	0.05454
527.16522	0.05316
525.87945	0.05196
524.59368	0.05093
523.30791	0.04997
522.02214	0.04895
520.73637	0.04784
519.45061	0.04672
518.16484	0.04569
516.87907	0.04485
515.59330	0.04419
514.30753	0.04364
513.02176	0.04310
511.73599	0.04247
510.45022	0.04175
509.16446	0.04103
507.87869	0.04043
506.59292	0.04003
505.30715	0.03975
504.02138	0.03945
502.73561	0.03901
501.44984	0.03845
500.16407	0.03782
498.87830	0.03720
497.59254	0.03664
496.30677	0.03619
495.02100	0.03590
493.73523	0.03572
492.44946	0.03558
491.16369	0.03539
489.87792	0.03512
488.59215	0.03483
487.30639	0.03461
486.02062	0.03450
484.73485	0.03445
483.44908	0.03445
482.16331	0.03448
480.87754	0.03455
479.59177	0.03464
478.30600	0.03479
477.02023	0.03507
475.73447	0.03549
474.44870	0.03599
473.16293	0.03648
471.87716	0.03689
470.59139	0.03709
469.30562	0.03702
468.01985	0.03669
466.73408	0.03621
465.44832	0.03569
464.16255	0.03519
462.87678	0.03473
461.59101	0.03435
460.30524	0.03401
459.01947	0.03371
457.73370	0.03345
456.44793	0.03316
455.16216	0.03274
453.87640	0.03221
452.59063	0.03170
451.30486	0.03135
450.01909	0.03116
448.73332	0.03102
447.44755	0.03086
446.16178	0.03059
444.87601	0.03023
443.59025	0.02983
442.30448	0.02951
441.01871	0.02931
439.73294	0.02920
438.44717	0.02913
437.16140	0.02907
435.87563	0.02903
434.58986	0.02899
433.30409	0.02890
432.01833	0.02877
430.73256	0.02863
429.44679	0.02849
428.16102	0.02831
426.87525	0.02814
425.58948	0.02799
424.30371	0.02792
423.01794	0.02788
421.73218	0.02772
420.44641	0.02741
419.16064	0.02710
417.87487	0.02693
416.58910	0.02683
415.30333	0.02669
414.01756	0.02650
412.73179	0.02635
411.44602	0.02624
410.16026	0.02616
408.87449	0.02613
407.58872	0.02614
406.30295	0.02618
405.01718	0.02628
403.73141	0.02642
402.44564	0.02656
401.15987	0.02665
399.87411	0.02667
