3997.45528	0.04190
3996.16951	0.04196
3994.88374	0.04182
3993.59798	0.04152
3992.31221	0.04130
3991.02644	0.04143
3989.74067	0.04199
3988.45490	0.04292
3987.16913	0.04398
3985.88336	0.04474
3984.59759	0.04485
3983.31183	0.04427
3982.02606	0.04343
3980.74029	0.04287
3979.45452	0.04282
3978.16875	0.04310
3976.88298	0.04329
3975.59721	0.04312
3974.31144	0.04273
3973.02567	0.04242
3971.73991	0.04244
3970.45414	0.04273
3969.16837	0.04309
3967.88260	0.04336
3966.59683	0.04351
3965.31106	0.04362
3964.02529	0.04364
3962.73952	0.04336
3961.45376	0.04260
3960.16799	0.04143
3958.88222	0.04022
3957.59645	0.03942
3956.31068	0.03937
3955.02491	0.04015
3953.73914	0.04139
3952.45337	0.04240
3951.16760	0.04267
3949.88184	0.04217
3948.59607	0.04134
3947.31030	0.04067
3946.02453	0.04037
3944.73876	0.04038
3943.45299	0.04049
3942.16722	0.04046
3940.88145	0.04020
3939.59569	0.03979
3938.30992	0.03950
3937.02415	0.03957
3935.73838	0.04000
3934.45261	0.04057
3933.16684	0.04099
3931.88107	0.04111
3930.59530	0.04098
3929.30953	0.04080
3928.02377	0.04076
3926.73800	0.04083
3925.45223	0.04085
3924.16646	0.04069
3922.88069	0.04045
3921.59492	0.04026
3920.30915	0.04017
3919.02338	0.04015
3917.73762	0.04013
3916.45185	0.04005
3915.16608	0.03992
3913.88031	0.03981
3912.59454	0.03973
3911.30877	0.03956
3910.02300	0.03931
3908.73723	0.03922
3907.45146	0.03960
3906.16570	0.04048
3904.87993	0.04148
3903.59416	0.04214
3902.30839	0.04227
3901.02262	0.04205
3899.73685	0.04174
3898.45108	0.04136
3897.16531	0.04079
3895.87955	0.04001
3894.59378	0.03928
3893.30801	0.03897
3892.02224	0.03915
3890.73647	0.03945
3889.45070	0.03959
3888.16493	0.03975
3886.87916	0.04017
3885.59339	0.04078
3884.30763	0.04134
3883.02186	0.04174
3881.73609	0.04204
3880.45032	0.04219
3879.16455	0.04211
3877.87878	0.04172
3876.59301	0.04106
3875.30724	0.04031
3874.02148	0.03977
3872.73571	0.03970
3871.44994	0.03998
3870.16417	0.04009
3868.87840	0.03972
3867.59263	0.03913
3866.30686	0.03869
3865.02109	0.03839
3863.73532	0.03812
3862.44956	0.03798
3861.16379	0.03812
3859.87802	0.03840
3858.59225	0.03864
3857.30648	0.03885
3856.02071	0.03912
3854.73494	0.03929
3853.44917	0.03904
3852.16341	0.03853
3850.87764	0.03829
3849.59187	0.03857
3848.30610	0.03907
3847.02033	0.03947
3845.73456	0.03979
3844.44879	0.04015
3843.16302	0.04041
3841.87725	0.04027
3840.59149	0.03962
3839.30572	0.03869
3838.01995	0.03788
3836.73418	0.03753
3835.44841	0.03782
3834.16264	0.03860
3832.87687	0.03942
3831.59110	0.03985
3830.30534	0.03984
3829.01957	0.03970
3827.73380	0.03976
3826.44803	0.04009
3825.16226	0.04048
3823.87649	0.04075
3822.59072	0.04081
3821.30495	0.04061
3820.01918	0.04022
3818.73342	0.03991
3817.44765	0.03975
3816.16188	0.03953
3814.87611	0.03912
3813.59034	0.03877
3812.30457	0.03865
3811.01880	0.03857
3809.73303	0.03832
3808.44726	0.03793
3807.16150	0.03751
3805.87573	0.03730
3804.58996	0.03763
3803.30419	0.03855
3802.01842	0.03946
3800.73265	0.03964
3799.44688	0.03904
3798.16111	0.03820
3796.87535	0.03753
3795.58958	0.03713
3794.30381	0.03705
3793.01804	0.03737
3791.73227	0.03789
3790.44650	0.03826
3789.16073	0.03831
3787.87496	0.03811
3786.58919	0.03794
3785.30343	0.03798
3784.01766	0.03834
3782.73189	0.03908
3781.44612	0.04011
3780.16035	0.04101
3778.87458	0.04132
3777.58881	0.04094
3776.30304	0.04022
3775.01728	0.03959
3773.73151	0.03919
3772.44574	0.03895
3771.15997	0.03879
3769.87420	0.03873
3768.58843	0.03894
3767.30266	0.03947
3766.01689	0.04002
3764.73112	0.04007
3763.44536	0.03944
3762.15959	0.03847
3760.87382	0.03757
3759.58805	0.03691
3758.30228	0.03648
3757.01651	0.03626
3755.73074	0.03620
3754.44497	0.03620
3753.15921	0.03614
3751.87344	0.03597
3750.58767	0.03579
3749.30190	0.03572
3748.01613	0.03579
3746.73036	0.03609
3745.44459	0.03648
3744.15882	0.03657
3742.87305	0.03634
3741.58729	0.03629
3740.30152	0.03665
3739.01575	0.03721
3737.72998	0.03768
3736.44421	0.03790
3735.15844	0.03797
3733.87267	0.03812
3732.58690	0.03836
3731.30114	0.03842
3730.01537	0.03814
3728.72960	0.03755
3727.44383	0.03680
3726.15806	0.03599
3724.87229	0.03529
3723.58652	0.03492
3722.30075	0.03503
3721.01498	0.03561
3719.72922	0.03654
3718.44345	0.03756
3717.15768	0.03840
3715.87191	0.03887
3714.58614	0.03885
3713.30037	0.03835
3712.01460	0.03762
3710.72883	0.03710
3709.44307	0.03707
3708.15730	0.03731
3706.87153	0.03725
3705.58576	0.03656
3704.29999	0.03564
3703.01422	0.03513
3701.72845	0.03527
3700.44268	0.03565
3699.15691	0.03575
3697.87115	0.03533
3696.58538	0.03461
3695.29961	0.03412
3694.01384	0.03422
3692.72807	0.03488
3691.44230	0.03587
3690.15653	0.03678
3688.87076	0.03701
3687.58500	0.03627
3686.29923	0.03505
3685.01346	0.03413
3683.72769	0.03394
3682.44192	0.03436
3681.15615	0.03497
3679.87038	0.03541
3678.58461	0.03568
3677.29884	0.03603
3676.01308	0.03655
3674.72731	0.03705
3673.44154	0.03750
3672.15577	0.03814
3670.87000	0.03887
3669.58423	0.03924
3668.29846	0.03893
3667.01269	0.03807
3665.72693	0.03704
3664.44116	0.03627
3663.15539	0.03593
3661.86962	0.03592
3660.58385	0.03598
3659.29808	0.03592
3658.01231	0.03576
3656.72654	0.03570
3655.44077	0.03590
3654.15501	0.03638
3652.86924	0.03694
3651.58347	0.03731
3650.29770	0.03734
3649.01193	0.03710
3647.72616	0.03686
3646.44039	0.03692
3645.15462	0.03739
3643.86886	0.03807
3642.58309	0.03862
3641.29732	0.03888
3640.01155	0.03897
3638.72578	0.03901
3637.44001	0.03899
3636.15424	0.03870
3634.86847	0.03792
3633.58270	0.03677
3632.29694	0.03578
3631.01117	0.03555
3629.72540	0.03609
3628.43963	0.03686
3627.15386	0.03750
3625.86809	0.03807
3624.58232	0.03869
3623.29655	0.03921
3622.01079	0.03944
3620.72502	0.03933
3619.43925	0.03898
3618.15348	0.03856
3616.86771	0.03818
3615.58194	0.03788
3614.29617	0.03766
3613.01040	0.03760
3611.72463	0.03779
3610.43887	0.03819
3609.15310	0.03857
3607.86733	0.03881
3606.58156	0.03891
3605.29579	0.03898
3604.01002	0.03912
3602.72425	0.03943
3601.43848	0.03980
3600.15272	0.03994
3598.86695	0.03962
3597.58118	0.03891
3596.29541	0.03822
3595.00964	0.03791
3593.72387	0.03818
3592.43810	0.03883
3591.15233	0.03959
3589.86656	0.04024
3588.58080	0.04057
3587.29503	0.04033
3586.00926	0.03960
3584.72349	0.03886
3583.43772	0.03863
3582.15195	0.03899
3580.86618	0.03964
3579.58041	0.04028
3578.29464	0.04078
3577.00888	0.04116
3575.72311	0.04146
3574.43734	0.04185
3573.15157	0.04246
3571.86580	0.04326
3570.58003	0.04410
3569.29426	0.04484
3568.00849	0.04537
3566.72273	0.04548
3565.43696	0.04496
3564.15119	0.04391
3562.86542	0.04287
3561.57965	0.04245
3560.29388	0.04289
3559.00811	0.04385
3557.72234	0.04466
3556.43657	0.04477
3555.15081	0.04405
3553.86504	0.04274
3552.57927	0.04134
3551.29350	0.04043
3550.00773	0.04033
3548.72196	0.04096
3547.43619	0.04198
3546.15042	0.04304
3544.86466	0.04397
3543.57889	0.04472
3542.29312	0.04529
3541.00735	0.04569
3539.72158	0.04593
3538.43581	0.04605
3537.15004	0.04609
3535.86427	0.04611
3534.57850	0.04608
3533.29274	0.04589
3532.00697	0.04542
3530.72120	0.04475
3529.43543	0.04421
3528.14966	0.04412
3526.86389	0.04450
3525.57812	0.04510
3524.29235	0.04566
3523.00659	0.04616
3521.72082	0.04658
3520.43505	0.04679
3519.14928	0.04656
3517.86351	0.04589
3516.57774	0.04515
3515.29197	0.04479
3514.00620	0.04497
3512.72043	0.04540
3511.43467	0.04565
3510.14890	0.04551
3508.86313	0.04517
3507.57736	0.04494
3506.29159	0.04505
3505.00582	0.04548
3503.72005	0.04608
3502.43428	0.04662
3501.14852	0.04693
3499.86275	0.04703
3498.57698	0.04709
3497.29121	0.04729
3496.00544	0.04767
3494.71967	0.04807
3493.43390	0.04821
3492.14813	0.04792
3490.86236	0.04727
3489.57660	0.04657
3488.29083	0.04612
3487.00506	0.04601
3485.71929	0.04619
3484.43352	0.04652
3483.14775	0.04692
3481.86198	0.04734
3480.57621	0.04771
3479.29045	0.04798
3478.00468	0.04812
3476.71891	0.04819
3475.43314	0.04836
3474.14737	0.04873
3472.86160	0.04919
3471.57583	0.04954
3470.29006	0.04967
3469.00429	0.04968
3467.71853	0.04980
3466.43276	0.05005
3465.14699	0.05021
3463.86122	0.05000
3462.57545	0.04943
3461.28968	0.04888
3460.00391	0.04869
3458.71814	0.04884
3457.43238	0.04904
3456.14661	0.04906
3454.86084	0.04897
3453.57507	0.04906
3452.28930	0.04953
3451.00353	0.05029
3449.71776	0.05105
3448.43199	0.05147
3447.14622	0.05142
3445.86046	0.05107
3444.57469	0.05070
3443.28892	0.05055
3442.00315	0.05069
3440.71738	0.05106
3439.43161	0.05152
3438.14584	0.05188
3436.86007	0.05192
3435.57431	0.05161
3434.28854	0.05114
3433.00277	0.05072
3431.71700	0.05037
3430.43123	0.04998
3429.14546	0.04955
3427.85969	0.04930
3426.57392	0.04953
3425.28815	0.05026
3424.00239	0.05120
3422.71662	0.05186
3421.43085	0.05193
3420.14508	0.05153
3418.85931	0.05109
3417.57354	0.05091
3416.28777	0.05098
3415.00200	0.05105
3413.71624	0.05095
3412.43047	0.05069
3411.14470	0.05037
3409.85893	0.05008
3408.57316	0.04989
3407.28739	0.04985
3406.00162	0.05006
3404.71585	0.05057
3403.43008	0.05127
3402.14432	0.05187
3400.85855	0.05208
3399.57278	0.05180
3398.28701	0.05121
3397.00124	0.05061
3395.71547	0.05032
3394.42970	0.05055
3393.14393	0.05131
3391.85817	0.05232
3390.57240	0.05312
3389.28663	0.05332
3388.00086	0.05290
3386.71509	0.05225
3385.42932	0.05184
3384.14355	0.05187
3382.85778	0.05218
3381.57201	0.05253
3380.28625	0.05274
3379.00048	0.05276
3377.71471	0.05267
3376.42894	0.05252
3375.14317	0.05231
3373.85740	0.05200
3372.57163	0.05175
3371.28586	0.05184
3370.00010	0.05241
3368.71433	0.05320
3367.42856	0.05380
3366.14279	0.05398
3364.85702	0.05382
3363.57125	0.05349
3362.28548	0.05311
3360.99971	0.05274
3359.71394	0.05246
3358.42818	0.05240
3357.14241	0.05271
3355.85664	0.05339
3354.57087	0.05425
3353.28510	0.05495
3351.99933	0.05522
3350.71356	0.05502
3349.42779	0.05455
3348.14202	0.05407
3346.85626	0.05376
3345.57049	0.05358
3344.28472	0.05342
3342.99895	0.05318
3341.71318	0.05293
3340.42741	0.05282
3339.14164	0.05292
3337.85587	0.05316
3336.57011	0.05335
3335.28434	0.05337
3333.99857	0.05327
3332.71280	0.05322
3331.42703	0.05332
3330.14126	0.05353
3328.85549	0.05366
3327.56972	0.05355
3326.28395	0.05317
3324.99819	0.05274
3323.71242	0.05247
3322.42665	0.05245
3321.14088	0.05254
3319.85511	0.05264
3318.56934	0.05271
3317.28357	0.05286
3315.99780	0.05313
3314.71204	0.05344
3313.42627	0.05364
3312.14050	0.05364
3310.85473	0.05346
3309.56896	0.05323
3308.28319	0.05305
3306.99742	0.05295
3305.71165	0.05280
3304.42588	0.05250
3303.14012	0.05209
3301.85435	0.05177
3300.56858	0.05179
3299.28281	0.05210
3297.99704	0.05247
3296.71127	0.05265
3295.42550	0.05260
3294.13973	0.05242
3292.85397	0.05226
3291.56820	0.05218
3290.28243	0.05219
3288.99666	0.05227
3287.71089	0.05240
3286.42512	0.05248
3285.13935	0.05240
3283.85358	0.05213
3282.56781	0.05178
3281.28205	0.05156
3279.99628	0.05168
3278.71051	0.05221
3277.42474	0.05298
3276.13897	0.05364
3274.85320	0.05387
3273.56743	0.05364
3272.28166	0.05316
3270.99590	0.05277
3269.71013	0.05274
3268.42436	0.05303
3267.13859	0.05336
3265.85282	0.05348
3264.56705	0.05337
3263.28128	0.05318
3261.99551	0.05299
3260.70974	0.05272
3259.42398	0.05234
3258.13821	0.05194
3256.85244	0.05170
3255.56667	0.05170
3254.28090	0.05186
3252.99513	0.05206
3251.70936	0.05222
3250.42359	0.05232
3249.13783	0.05238
3247.85206	0.05240
3246.56629	0.05237
3245.28052	0.05227
3243.99475	0.05210
3242.70898	0.05188
3241.42321	0.05173
3240.13744	0.05179
3238.85167	0.05209
3237.56591	0.05251
3236.28014	0.05284
3234.99437	0.05295
3233.70860	0.05280
3232.42283	0.05242
3231.13706	0.05190
3229.85129	0.05142
3228.56552	0.05109
3227.27976	0.05092
3225.99399	0.05084
3224.70822	0.05082
3223.42245	0.05089
3222.13668	0.05103
3220.85091	0.05116
3219.56514	0.05120
3218.27937	0.05118
3216.99360	0.05117
3215.70784	0.05117
3214.42207	0.05109
3213.13630	0.05083
3211.85053	0.05046
3210.56476	0.05016
3209.27899	0.05004
3207.99322	0.05012
3206.70745	0.05037
3205.42169	0.05079
3204.13592	0.05128
3202.85015	0.05164
3201.56438	0.05169
3200.27861	0.05142
3198.99284	0.05103
3197.70707	0.05074
3196.42130	0.05072
3195.13553	0.05094
3193.84977	0.05119
3192.56400	0.05122
3191.27823	0.05093
3189.99246	0.05054
3188.70669	0.05035
3187.42092	0.05050
3186.13515	0.05084
3184.84938	0.05109
3183.56362	0.05112
3182.27785	0.05104
3180.99208	0.05100
3179.70631	0.05106
3178.42054	0.05107
3177.13477	0.05088
3175.84900	0.05041
3174.56323	0.04984
3173.27746	0.04947
3171.99170	0.04949
3170.70593	0.04983
3169.42016	0.05024
3168.13439	0.05052
3166.84862	0.05060
3165.56285	0.05050
3164.27708	0.05028
3162.99131	0.05003
3161.70555	0.04979
3160.41978	0.04957
3159.13401	0.04934
3157.84824	0.04913
3156.56247	0.04896
3155.27670	0.04888
3153.99093	0.04893
3152.70516	0.04915
3151.41939	0.04948
3150.13363	0.04968
3148.84786	0.04955
3147.56209	0.04915
3146.27632	0.04878
3144.99055	0.04876
3143.70478	0.04910
3142.41901	0.04947
3141.13324	0.04952
3139.84748	0.04912
3138.56171	0.04847
3137.27594	0.04788
3135.99017	0.04757
3134.70440	0.04753
3133.41863	0.04772
3132.13286	0.04810
3130.84709	0.04853
3129.56132	0.04880
3128.27556	0.04879
3126.98979	0.04865
3125.70402	0.04864
3124.41825	0.04881
3123.13248	0.04901
3121.84671	0.04908
3120.56094	0.04897
3119.27517	0.04874
3117.98940	0.04842
3116.70364	0.04809
3115.41787	0.04784
3114.13210	0.04775
3112.84633	0.04781
3111.56056	0.04784
3110.27479	0.04768
3108.98902	0.04730
3107.70325	0.04691
3106.41749	0.04675
3105.13172	0.04690
3103.84595	0.04716
3102.56018	0.04726
3101.27441	0.04715
3099.98864	0.04701
3098.70287	0.04704
3097.41710	0.04726
3096.13133	0.04745
3094.84557	0.04740
3093.55980	0.04709
3092.27403	0.04673
3090.98826	0.04654
3089.70249	0.04653
3088.41672	0.04651
3087.13095	0.04623
3085.84518	0.04575
3084.55942	0.04537
3083.27365	0.04542
3081.98788	0.04591
3080.70211	0.04655
3079.41634	0.04701
3078.13057	0.04716
3076.84480	0.04709
3075.55903	0.04693
3074.27326	0.04670
3072.98750	0.04630
3071.70173	0.04576
3070.41596	0.04530
3069.13019	0.04518
3067.84442	0.04544
3066.55865	0.04583
3065.27288	0.04603
3063.98711	0.04598
3062.70135	0.04583
3061.41558	0.04581
3060.12981	0.04595
3058.84404	0.04613
3057.55827	0.04618
3056.27250	0.04609
3054.98673	0.04596
3053.70096	0.04585
3052.41519	0.04578
3051.12943	0.04573
3049.84366	0.04570
3048.55789	0.04567
3047.27212	0.04559
3045.98635	0.04546
3044.70058	0.04533
3043.41481	0.04527
3042.12904	0.04527
3040.84328	0.04528
3039.55751	0.04521
3038.27174	0.04499
3036.98597	0.04465
3035.70020	0.04429
3034.41443	0.04408
3033.12866	0.04415
3031.84289	0.04447
3030.55712	0.04485
3029.27136	0.04504
3027.98559	0.04496
3026.69982	0.04475
3025.41405	0.04459
3024.12828	0.04447
3022.84251	0.04427
3021.55674	0.04396
3020.27097	0.04372
3018.98521	0.04370
3017.69944	0.04386
3016.41367	0.04402
3015.12790	0.04407
3013.84213	0.04406
3012.55636	0.04409
3011.27059	0.04419
3009.98482	0.04427
3008.69905	0.04421
3007.41329	0.04399
3006.12752	0.04365
3004.84175	0.04325
3003.55598	0.04284
3002.27021	0.04246
3000.98444	0.04223
2999.69867	0.04230
2998.41290	0.04269
2997.12714	0.04317
2995.84137	0.04350
2994.55560	0.04367
2993.26983	0.04379
2991.98406	0.04389
2990.69829	0.04387
2989.41252	0.04368
2988.12675	0.04335
2986.84098	0.04302
2985.55522	0.04280
2984.26945	0.04284
2982.98368	0.04316
2981.69791	0.04368
2980.41214	0.04420
2979.12637	0.04453
2977.84060	0.04465
2976.55483	0.04472
2975.26907	0.04498
2973.98330	0.04556
2972.69753	0.04639
2971.41176	0.04725
2970.12599	0.04803
2968.84022	0.04875
2967.55445	0.04954
2966.26868	0.05049
2964.98291	0.05158
2963.69715	0.05271
2962.41138	0.05381
2961.12561	0.05485
2959.83984	0.05583
2958.55407	0.05680
2957.26830	0.05781
2955.98253	0.05876
2954.69676	0.05945
2953.41100	0.05983
2952.12523	0.06009
2950.83946	0.06033
2949.55369	0.06045
2948.26792	0.06034
2946.98215	0.06015
2945.69638	0.06014
2944.41061	0.06033
2943.12484	0.06050
2941.83908	0.06052
2940.55331	0.06047
2939.26754	0.06053
2937.98177	0.06079
2936.69600	0.06126
2935.41023	0.06191
2934.12446	0.06269
2932.83869	0.06357
2931.55293	0.06453
2930.26716	0.06555
2928.98139	0.06661
2927.69562	0.06765
2926.40985	0.06858
2925.12408	0.06925
2923.83831	0.06961
2922.55254	0.06964
2921.26677	0.06944
2919.98101	0.06907
2918.69524	0.06858
2917.40947	0.06801
2916.12370	0.06747
2914.83793	0.06702
2913.55216	0.06663
2912.26639	0.06623
2910.98062	0.06578
2909.69486	0.06531
2908.40909	0.06478
2907.12332	0.06412
2905.83755	0.06336
2904.55178	0.06259
2903.26601	0.06187
2901.98024	0.06115
2900.69447	0.06043
2899.40870	0.05980
2898.12294	0.05933
2896.83717	0.05893
2895.55140	0.05854
2894.26563	0.05823
2892.97986	0.05807
2891.69409	0.05796
2890.40832	0.05775
2889.12255	0.05738
2887.83678	0.05691
2886.55102	0.05641
2885.26525	0.05597
2883.97948	0.05571
2882.69371	0.05560
2881.40794	0.05545
2880.12217	0.05519
2878.83640	0.05490
2877.55063	0.05477
2876.26487	0.05484
2874.97910	0.05511
2873.69333	0.05555
2872.40756	0.05608
2871.12179	0.05657
2869.83602	0.05688
2868.55025	0.05697
2867.26448	0.05692
2865.97871	0.05682
2864.69295	0.05674
2863.40718	0.05669
2862.12141	0.05670
2860.83564	0.05676
2859.54987	0.05683
2858.26410	0.05692
2856.97833	0.05710
2855.69256	0.05745
2854.40680	0.05791
2853.12103	0.05826
2851.83526	0.05831
2850.54949	0.05803
2849.26372	0.05750
2847.97795	0.05682
2846.69218	0.05607
2845.40641	0.05533
2844.12064	0.05472
2842.83488	0.05422
2841.54911	0.05365
2840.26334	0.05290
2838.97757	0.05202
2837.69180	0.05118
2836.40603	0.05049
2835.12026	0.04989
2833.83449	0.04928
2832.54873	0.04862
2831.26296	0.04793
2829.97719	0.04724
2828.69142	0.04658
2827.40565	0.04595
2826.11988	0.04540
2824.83411	0.04502
2823.54834	0.04487
2822.26257	0.04484
2820.97681	0.04480
2819.69104	0.04469
2818.40527	0.04457
2817.11950	0.04445
2815.83373	0.04424
2814.54796	0.04388
2813.26219	0.04342
2811.97642	0.04306
2810.69066	0.04289
2809.40489	0.04286
2808.11912	0.04285
2806.83335	0.04274
2805.54758	0.04250
2804.26181	0.04214
2802.97604	0.04175
2801.69027	0.04142
2800.40450	0.04128
2799.11874	0.04139
2797.83297	0.04164
2796.54720	0.04182
2795.26143	0.04181
2793.97566	0.04159
2792.68989	0.04125
2791.40412	0.04092
2790.11835	0.04072
2788.83259	0.04067
2787.54682	0.04066
2786.26105	0.04060
2784.97528	0.04050
2783.68951	0.04043
2782.40374	0.04042
2781.11797	0.04043
2779.83220	0.04035
2778.54643	0.04020
2777.26067	0.04006
2775.97490	0.04003
2774.68913	0.04008
2773.40336	0.04007
2772.11759	0.03996
2770.83182	0.03977
2769.54605	0.03957
2768.26028	0.03939
2766.97452	0.03928
2765.68875	0.03928
2764.40298	0.03938
2763.11721	0.03949
2761.83144	0.03949
2760.54567	0.03933
2759.25990	0.03911
2757.97413	0.03895
2756.68836	0.03891
2755.40260	0.03889
2754.11683	0.03880
2752.83106	0.03864
2751.54529	0.03850
2750.25952	0.03846
2748.97375	0.03849
2747.68798	0.03851
2746.40221	0.03846
2745.11645	0.03837
2743.83068	0.03831
2742.54491	0.03831
2741.25914	0.03840
2739.97337	0.03853
2738.68760	0.03861
2737.40183	0.03852
2736.11606	0.03826
2734.83029	0.03798
2733.54453	0.03782
2732.25876	0.03780
2730.97299	0.03787
2729.68722	0.03800
2728.40145	0.03814
2727.11568	0.03820
2725.82991	0.03818
2724.54414	0.03814
2723.25838	0.03812
2721.97261	0.03805
2720.68684	0.03781
2719.40107	0.03743
2718.11530	0.03707
2716.82953	0.03686
2715.54376	0.03679
2714.25799	0.03683
2712.97222	0.03694
2711.68646	0.03710
2710.40069	0.03722
2709.11492	0.03725
2707.82915	0.03719
2706.54338	0.03709
2705.25761	0.03696
2703.97184	0.03683
2702.68607	0.03672
2701.40031	0.03667
2700.11454	0.03667
2698.82877	0.03667
2697.54300	0.03661
2696.25723	0.03658
2694.97146	0.03664
2693.68569	0.03680
2692.39992	0.03691
2691.11415	0.03688
2689.82839	0.03672
2688.54262	0.03652
2687.25685	0.03631
2685.97108	0.03613
2684.68531	0.03603
2683.39954	0.03603
2682.11377	0.03609
2680.82800	0.03613
2679.54224	0.03614
2678.25647	0.03612
2676.97070	0.03609
2675.68493	0.03605
2674.39916	0.03603
2673.11339	0.03604
2671.82762	0.03606
2670.54185	0.03606
2669.25608	0.03604
2667.97032	0.03596
2666.68455	0.03584
2665.39878	0.03573
2664.11301	0.03569
2662.82724	0.03575
2661.54147	0.03582
2660.25570	0.03582
2658.96993	0.03568
2657.68417	0.03544
2656.39840	0.03522
2655.11263	0.03511
2653.82686	0.03514
2652.54109	0.03521
2651.25532	0.03521
2649.96955	0.03511
2648.68378	0.03494
2647.39801	0.03477
2646.11225	0.03468
2644.82648	0.03470
2643.54071	0.03471
2642.25494	0.03456
2640.96917	0.03414
2639.68340	0.03357
2638.39763	0.03305
2637.11186	0.03278
2635.82609	0.03283
2634.54033	0.03309
2633.25456	0.03336
2631.96879	0.03347
2630.68302	0.03337
2629.39725	0.03315
2628.11148	0.03290
2626.82571	0.03265
2625.53994	0.03246
2624.25418	0.03235
2622.96841	0.03235
2621.68264	0.03240
2620.39687	0.03240
2619.11110	0.03227
2617.82533	0.03206
2616.53956	0.03193
2615.25379	0.03195
2613.96802	0.03204
2612.68226	0.03202
2611.39649	0.03178
2610.11072	0.03144
2608.82495	0.03121
2607.53918	0.03123
2606.25341	0.03139
2604.96764	0.03144
2603.68187	0.03125
2602.39611	0.03090
2601.11034	0.03064
2599.82457	0.03059
2598.53880	0.03064
2597.25303	0.03064
2595.96726	0.03058
2594.68149	0.03056
2593.39572	0.03057
2592.10995	0.03050
2590.82419	0.03034
2589.53842	0.03023
2588.25265	0.03030
2586.96688	0.03050
2585.68111	0.03068
2584.39534	0.03073
2583.10957	0.03059
2581.82380	0.03030
2580.53804	0.02994
2579.25227	0.02960
2577.96650	0.02942
2576.68073	0.02949
2575.39496	0.02983
2574.10919	0.03021
2572.82342	0.03029
2571.53765	0.02999
2570.25188	0.02959
2568.96612	0.02944
2567.68035	0.02959
2566.39458	0.02975
2565.10881	0.02964
2563.82304	0.02925
2562.53727	0.02879
2561.25150	0.02844
2559.96573	0.02834
2558.67997	0.02848
2557.39420	0.02871
2556.10843	0.02879
2554.82266	0.02858
2553.53689	0.02821
2552.25112	0.02802
2550.96535	0.02822
2549.67958	0.02869
2548.39381	0.02911
2547.10805	0.02928
2545.82228	0.02927
2544.53651	0.02921
2543.25074	0.02909
2541.96497	0.02883
2540.67920	0.02848
2539.39343	0.02822
2538.10766	0.02818
2536.82190	0.02824
2535.53613	0.02824
2534.25036	0.02814
2532.96459	0.02803
2531.67882	0.02795
2530.39305	0.02790
2529.10728	0.02780
2527.82151	0.02762
2526.53574	0.02737
2525.24998	0.02718
2523.96421	0.02720
2522.67844	0.02747
2521.39267	0.02781
2520.10690	0.02797
2518.82113	0.02785
2517.53536	0.02758
2516.24959	0.02732
2514.96383	0.02711
2513.67806	0.02699
2512.39229	0.02702
2511.10652	0.02719
2509.82075	0.02732
2508.53498	0.02720
2507.24921	0.02685
2505.96344	0.02651
2504.67767	0.02642
2503.39191	0.02660
2502.10614	0.02685
2500.82037	0.02700
2499.53460	0.02695
2498.24883	0.02680
2496.96306	0.02673
2495.67729	0.02681
2494.39152	0.02691
2493.10576	0.02684
2491.81999	0.02658
2490.53422	0.02631
2489.24845	0.02618
2487.96268	0.02618
2486.67691	0.02620
2485.39114	0.02620
2484.10537	0.02627
2482.81960	0.02648
2481.53384	0.02675
2480.24807	0.02685
2478.96230	0.02670
2477.67653	0.02644
2476.39076	0.02635
2475.10499	0.02650
2473.81922	0.02670
2472.53345	0.02674
2471.24769	0.02658
2469.96192	0.02640
2468.67615	0.02640
2467.39038	0.02661
2466.10461	0.02682
2464.81884	0.02688
2463.53307	0.02680
2462.24730	0.02669
2460.96153	0.02660
2459.67577	0.02648
2458.39000	0.02631
2457.10423	0.02606
2455.81846	0.02580
2454.53269	0.02565
2453.24692	0.02570
2451.96115	0.02596
2450.67538	0.02631
2449.38962	0.02660
2448.10385	0.02668
2446.81808	0.02661
2445.53231	0.02651
2444.24654	0.02640
2442.96077	0.02619
2441.67500	0.02587
2440.38923	0.02562
2439.10346	0.02557
2437.81770	0.02565
2436.53193	0.02573
2435.24616	0.02580
2433.96039	0.02591
2432.67462	0.02605
2431.38885	0.02614
2430.10308	0.02617
2428.81731	0.02617
2427.53155	0.02617
2426.24578	0.02617
2424.96001	0.02613
2423.67424	0.02600
2422.38847	0.02572
2421.10270	0.02537
2419.81693	0.02508
2418.53116	0.02499
2417.24539	0.02510
2415.95963	0.02528
2414.67386	0.02549
2413.38809	0.02575
2412.10232	0.02606
2410.81655	0.02621
2409.53078	0.02604
2408.24501	0.02564
2406.95924	0.02531
2405.67347	0.02520
2404.38771	0.02523
2403.10194	0.02528
2401.81617	0.02529
2400.53040	0.02525
2399.24463	0.02513
2397.95886	0.02501
2396.67309	0.02498
2395.38732	0.02513
2394.10156	0.02543
2392.81579	0.02574
2391.53002	0.02589
2390.24425	0.02585
2388.95848	0.02575
2387.67271	0.02578
2386.38694	0.02599
2385.10117	0.02622
2383.81540	0.02627
2382.52964	0.02608
2381.24387	0.02574
2379.95810	0.02548
2378.67233	0.02532
2377.38656	0.02532
2376.10079	0.02554
2374.81502	0.02578
2373.52925	0.02561
2372.24349	0.02524
2370.95772	0.02507
2369.67195	0.02505
2368.38618	0.02512
2367.10041	0.02522
2365.81464	0.02534
2364.52887	0.02545
2363.24310	0.02553
2361.95733	0.02556
2360.67157	0.02559
2359.38580	0.02565
2358.10003	0.02563
2356.81426	0.02562
2355.52849	0.02583
2354.24272	0.02632
2352.95695	0.02680
2351.67118	0.02676
2350.38542	0.02648
2349.09965	0.02637
2347.81388	0.02627
2346.52811	0.02609
2345.24234	0.02611
2343.95657	0.02639
2342.67080	0.02695
2341.38503	0.02674
2340.09926	0.02614
2338.81350	0.02612
2337.52773	0.02657
2336.24196	0.02659
2334.95619	0.02655
2333.67042	0.02666
2332.38465	0.02686
2331.09888	0.02619
2329.81311	0.02612
2328.52735	0.02652
2327.24158	0.02673
2325.95581	0.02710
2324.67004	0.02739
2323.38427	0.02766
2322.09850	0.02738
2320.81273	0.02693
2319.52696	0.02657
2318.24119	0.02635
2316.95543	0.02609
2315.66966	0.02584
2314.38389	0.02575
2313.09812	0.02576
2311.81235	0.02582
2310.52658	0.02586
2309.24081	0.02571
2307.95504	0.02530
2306.66928	0.02484
2305.38351	0.02452
2304.09774	0.02438
2302.81197	0.02431
2301.52620	0.02422
2300.24043	0.02409
2298.95466	0.02388
2297.66889	0.02351
2296.38312	0.02304
2295.09736	0.02275
2293.81159	0.02287
2292.52582	0.02333
2291.24005	0.02385
2289.95428	0.02410
2288.66851	0.02386
2287.38274	0.02320
2286.09697	0.02239
2284.81121	0.02179
2283.52544	0.02157
2282.23967	0.02173
2280.95390	0.02211
2279.66813	0.02259
2278.38236	0.02307
2277.09659	0.02342
2275.81082	0.02351
2274.52505	0.02339
2273.23929	0.02317
2271.95352	0.02286
2270.66775	0.02233
2269.38198	0.02151
2268.09621	0.02059
2266.81044	0.01988
2265.52467	0.01953
2264.23890	0.01948
2262.95314	0.01951
2261.66737	0.01950
2260.38160	0.01947
2259.09583	0.01948
2257.81006	0.01951
2256.52429	0.01947
2255.23852	0.01936
2253.95275	0.01930
2252.66698	0.01936
2251.38122	0.01948
2250.09545	0.01950
2248.80968	0.01933
2247.52391	0.01899
2246.23814	0.01868
2244.95237	0.01868
2243.66660	0.01900
2242.38083	0.01920
2241.09507	0.01874
2239.80930	0.01766
2238.52353	0.01669
2237.23776	0.01655
2235.95199	0.01720
2234.66622	0.01797
2233.38045	0.01832
2232.09468	0.01819
2230.80891	0.01791
2229.52315	0.01774
2228.23738	0.01773
2226.95161	0.01787
2225.66584	0.01819
2224.38007	0.01864
2223.09430	0.01898
2221.80853	0.01897
2220.52276	0.01872
2219.23700	0.01862
2217.95123	0.01888
2216.66546	0.01912
2215.37969	0.01874
2214.09392	0.01750
2212.80815	0.01583
2211.52238	0.01460
2210.23661	0.01433
2208.95084	0.01470
2207.66508	0.01494
2206.37931	0.01461
2205.09354	0.01398
2203.80777	0.01353
2202.52200	0.01349
2201.23623	0.01383
2199.95046	0.01437
2198.66469	0.01482
2197.37893	0.01488
2196.09316	0.01442
2194.80739	0.01361
2193.52162	0.01286
2192.23585	0.01252
2190.95008	0.01264
2189.66431	0.01299
2188.37854	0.01328
2187.09277	0.01333
2185.80701	0.01304
2184.52124	0.01249
2183.23547	0.01208
2181.94970	0.01212
2180.66393	0.01254
2179.37816	0.01291
2178.09239	0.01292
2176.80662	0.01244
2175.52085	0.01149
2174.23509	0.01041
2172.94932	0.00974
2171.66355	0.00982
2170.37778	0.01041
2169.09201	0.01092
2167.80624	0.01088
2166.52047	0.01025
2165.23470	0.00934
2163.94894	0.00860
2162.66317	0.00840
2161.37740	0.00875
2160.09163	0.00934
2158.80586	0.00978
2157.52009	0.00995
2156.23432	0.00995
2154.94855	0.00996
2153.66278	0.01011
2152.37702	0.01041
2151.09125	0.01077
2149.80548	0.01111
2148.51971	0.01151
2147.23394	0.01209
2145.94817	0.01274
2144.66240	0.01319
2143.37663	0.01324
2142.09087	0.01299
2140.80510	0.01273
2139.51933	0.01268
2138.23356	0.01290
2136.94779	0.01324
2135.66202	0.01348
2134.37625	0.01346
2133.09048	0.01327
2131.80471	0.01311
2130.51895	0.01301
2129.23318	0.01290
2127.94741	0.01289
2126.66164	0.01333
2125.37587	0.01436
2124.09010	0.01562
2122.80433	0.01649
2121.51856	0.01667
2120.23280	0.01634
2118.94703	0.01591
2117.66126	0.01568
2116.37549	0.01569
2115.08972	0.01573
2113.80395	0.01564
2112.51818	0.01553
2111.23241	0.01573
2109.94664	0.01620
2108.66088	0.01642
2107.37511	0.01598
2106.08934	0.01502
2104.80357	0.01408
2103.51780	0.01360
2102.23203	0.01366
2100.94626	0.01398
2099.66049	0.01390
2098.37473	0.01373
2097.08896	0.01360
2095.80319	0.01366
2094.51742	0.01404
2093.23165	0.01458
2091.94588	0.01503
2090.66011	0.01521
2089.37434	0.01513
2088.08857	0.01494
2086.80281	0.01483
2085.51704	0.01500
2084.23127	0.01549
2082.94550	0.01616
2081.65973	0.01669
2080.37396	0.01680
2079.08819	0.01650
2077.80242	0.01606
2076.51666	0.01573
2075.23089	0.01551
2073.94512	0.01523
2072.65935	0.01484
2071.37358	0.01446
2070.08781	0.01417
2068.80204	0.01384
2067.51627	0.01338
2066.23050	0.01285
2064.94474	0.01247
2063.65897	0.01236
2062.37320	0.01247
2061.08743	0.01259
2059.80166	0.01247
2058.51589	0.01200
2057.23012	0.01132
2055.94435	0.01079
2054.65859	0.01069
2053.37282	0.01098
2052.08705	0.01129
2050.80128	0.01118
2049.51551	0.01057
2048.22974	0.00980
2046.94397	0.00930
2045.65820	0.00920
2044.37243	0.00928
2043.08667	0.00924
2041.80090	0.00898
2040.51513	0.00865
2039.22936	0.00840
2037.94359	0.00823
2036.65782	0.00801
2035.37205	0.00776
2034.08628	0.00761
2032.80052	0.00758
2031.51475	0.00761
2030.22898	0.00769
2028.94321	0.00792
2027.65744	0.00831
2026.37167	0.00869
2025.08590	0.00889
2023.80013	0.00891
2022.51436	0.00890
2021.22860	0.00891
2019.94283	0.00880
2018.65706	0.00841
2017.37129	0.00775
2016.08552	0.00711
2014.79975	0.00683
2013.51398	0.00695
2012.22821	0.00709
2010.94245	0.00679
2009.65668	0.00597
2008.37091	0.00519
2007.08514	0.00522
2005.79937	0.00626
2004.51360	0.00766
2003.22783	0.00868
2001.94206	0.00917
2000.65629	0.00949
1999.37053	0.00981
1998.08476	0.00999
1996.79899	0.00998
1995.51322	0.00999
1994.22745	0.01012
1992.94168	0.01025
1991.65591	0.01031
1990.37014	0.01042
1989.08438	0.01062
1987.79861	0.01070
1986.51284	0.01049
1985.22707	0.01005
1983.94130	0.00965
1982.65553	0.00942
1981.36976	0.00937
1980.08399	0.00942
1978.79822	0.00944
1977.51246	0.00939
1976.22669	0.00936
1974.94092	0.00942
1973.65515	0.00959
1972.36938	0.00980
1971.08361	0.00994
1969.79784	0.00988
1968.51207	0.00957
1967.22631	0.00916
1965.94054	0.00895
1964.65477	0.00915
1963.36900	0.00973
1962.08323	0.01049
1960.79746	0.01119
1959.51169	0.01164
1958.22592	0.01170
1956.94015	0.01138
1955.65439	0.01090
1954.36862	0.01069
1953.08285	0.01099
1951.79708	0.01172
1950.51131	0.01252
1949.22554	0.01308
1947.93977	0.01332
1946.65400	0.01338
1945.36823	0.01343
1944.08247	0.01351
1942.79670	0.01357
1941.51093	0.01358
1940.22516	0.01363
1938.93939	0.01382
1937.65362	0.01408
1936.36785	0.01426
1935.08208	0.01429
1933.79632	0.01424
1932.51055	0.01420
1931.22478	0.01418
1929.93901	0.01414
1928.65324	0.01413
1927.36747	0.01428
1926.08170	0.01459
1924.79593	0.01490
1923.51016	0.01506
1922.22440	0.01507
1920.93863	0.01503
1919.65286	0.01495
1918.36709	0.01481
1917.08132	0.01464
1915.79555	0.01452
1914.50978	0.01448
1913.22401	0.01450
1911.93825	0.01462
1910.65248	0.01483
1909.36671	0.01496
1908.08094	0.01482
1906.79517	0.01447
1905.50940	0.01419
1904.22363	0.01418
1902.93786	0.01438
1901.65209	0.01459
1900.36633	0.01469
1899.08056	0.01466
1897.79479	0.01457
1896.50902	0.01448
1895.22325	0.01439
1893.93748	0.01431
1892.65171	0.01429
1891.36594	0.01442
1890.08018	0.01465
1888.79441	0.01480
1887.50864	0.01477
1886.22287	0.01465
1884.93710	0.01461
1883.65133	0.01465
1882.36556	0.01467
1881.07979	0.01457
1879.79402	0.01446
1878.50826	0.01448
1877.22249	0.01465
1875.93672	0.01488
1874.65095	0.01504
1873.36518	0.01511
1872.07941	0.01511
1870.79364	0.01509
1869.50787	0.01510
1868.22211	0.01519
1866.93634	0.01539
1865.65057	0.01564
1864.36480	0.01577
1863.07903	0.01563
1861.79326	0.01532
1860.50749	0.01506
1859.22172	0.01496
1857.93595	0.01495
1856.65019	0.01495
1855.36442	0.01493
1854.07865	0.01496
1852.79288	0.01501
1851.50711	0.01508
1850.22134	0.01512
1848.93557	0.01515
1847.64980	0.01518
1846.36404	0.01530
1845.07827	0.01551
1843.79250	0.01572
1842.50673	0.01577
1841.22096	0.01565
1839.93519	0.01549
1838.64942	0.01543
1837.36365	0.01548
1836.07788	0.01560
1834.79212	0.01565
1833.50635	0.01562
1832.22058	0.01561
1830.93481	0.01570
1829.64904	0.01584
1828.36327	0.01598
1827.07750	0.01607
1825.79173	0.01606
1824.50597	0.01593
1823.22020	0.01574
1821.93443	0.01558
1820.64866	0.01548
1819.36289	0.01540
1818.07712	0.01533
1816.79135	0.01529
1815.50558	0.01530
1814.21981	0.01536
1812.93405	0.01547
1811.64828	0.01566
1810.36251	0.01591
1809.07674	0.01620
1807.79097	0.01645
1806.50520	0.01658
1805.21943	0.01653
1803.93366	0.01637
1802.64790	0.01619
1801.36213	0.01606
1800.07636	0.01600
1798.79059	0.01602
1797.50482	0.01608
1796.21905	0.01617
1794.93328	0.01628
1793.64751	0.01641
1792.36174	0.01650
1791.07598	0.01653
1789.79021	0.01651
1788.50444	0.01651
1787.21867	0.01652
1785.93290	0.01652
1784.64713	0.01647
1783.36136	0.01638
1782.07559	0.01630
1780.78983	0.01624
1779.50406	0.01617
1778.21829	0.01610
1776.93252	0.01604
1775.64675	0.01605
1774.36098	0.01616
1773.07521	0.01632
1771.78944	0.01646
1770.50367	0.01656
1769.21791	0.01662
1767.93214	0.01662
1766.64637	0.01656
1765.36060	0.01652
1764.07483	0.01657
1762.78906	0.01670
1761.50329	0.01682
1760.21752	0.01686
1758.93176	0.01686
1757.64599	0.01687
1756.36022	0.01690
1755.07445	0.01694
1753.78868	0.01698
1752.50291	0.01701
1751.21714	0.01697
1749.93137	0.01689
1748.64560	0.01683
1747.35984	0.01682
1746.07407	0.01683
1744.78830	0.01685
1743.50253	0.01689
1742.21676	0.01699
1740.93099	0.01711
1739.64522	0.01716
1738.35945	0.01707
1737.07369	0.01694
1735.78792	0.01694
1734.50215	0.01703
1733.21638	0.01711
1731.93061	0.01716
1730.64484	0.01725
1729.35907	0.01739
1728.07330	0.01754
1726.78753	0.01767
1725.50177	0.01777
1724.21600	0.01782
1722.93023	0.01784
1721.64446	0.01789
1720.35869	0.01802
1719.07292	0.01822
1717.78715	0.01840
1716.50138	0.01854
1715.21561	0.01871
1713.92985	0.01893
1712.64408	0.01915
1711.35831	0.01934
1710.07254	0.01949
1708.78677	0.01965
1707.50100	0.01985
1706.21523	0.02005
1704.92946	0.02019
1703.64370	0.02031
1702.35793	0.02048
1701.07216	0.02065
1699.78639	0.02073
1698.50062	0.02078
1697.21485	0.02095
1695.92908	0.02121
1694.64331	0.02139
1693.35754	0.02150
1692.07178	0.02163
1690.78601	0.02174
1689.50024	0.02174
1688.21447	0.02170
1686.92870	0.02178
1685.64293	0.02203
1684.35716	0.02227
1683.07139	0.02236
1681.78563	0.02237
1680.49986	0.02240
1679.21409	0.02248
1677.92832	0.02258
1676.64255	0.02272
1675.35678	0.02283
1674.07101	0.02289
1672.78524	0.02298
1671.49947	0.02315
1670.21371	0.02337
1668.92794	0.02354
1667.64217	0.02369
1666.35640	0.02388
1665.07063	0.02412
1663.78486	0.02433
1662.49909	0.02447
1661.21332	0.02455
1659.92756	0.02466
1658.64179	0.02480
1657.35602	0.02493
1656.07025	0.02509
1654.78448	0.02533
1653.49871	0.02554
1652.21294	0.02555
1650.92717	0.02545
1649.64140	0.02548
1648.35564	0.02568
1647.06987	0.02589
1645.78410	0.02593
1644.49833	0.02584
1643.21256	0.02578
1641.92679	0.02581
1640.64102	0.02587
1639.35525	0.02590
1638.06949	0.02592
1636.78372	0.02596
1635.49795	0.02597
1634.21218	0.02593
1632.92641	0.02592
1631.64064	0.02601
1630.35487	0.02617
1629.06910	0.02634
1627.78333	0.02646
1626.49757	0.02653
1625.21180	0.02658
1623.92603	0.02663
1622.64026	0.02667
1621.35449	0.02670
1620.06872	0.02674
1618.78295	0.02681
1617.49718	0.02682
1616.21142	0.02675
1614.92565	0.02667
1613.63988	0.02670
1612.35411	0.02688
1611.06834	0.02710
1609.78257	0.02727
1608.49680	0.02741
1607.21103	0.02753
1605.92526	0.02765
1604.63950	0.02775
1603.35373	0.02783
1602.06796	0.02789
1600.78219	0.02796
1599.49642	0.02805
1598.21065	0.02815
1596.92488	0.02825
1595.63911	0.02834
1594.35335	0.02843
1593.06758	0.02851
1591.78181	0.02860
1590.49604	0.02872
1589.21027	0.02888
1587.92450	0.02904
1586.63873	0.02915
1585.35296	0.02920
1584.06719	0.02923
1582.78143	0.02930
1581.49566	0.02938
1580.20989	0.02945
1578.92412	0.02952
1577.63835	0.02967
1576.35258	0.02986
1575.06681	0.03000
1573.78104	0.03007
1572.49528	0.03020
1571.20951	0.03044
1569.92374	0.03073
1568.63797	0.03100
1567.35220	0.03123
1566.06643	0.03143
1564.78066	0.03157
1563.49489	0.03165
1562.20912	0.03175
1560.92336	0.03195
1559.63759	0.03218
1558.35182	0.03232
1557.06605	0.03241
1555.78028	0.03254
1554.49451	0.03274
1553.20874	0.03290
1551.92297	0.03301
1550.63721	0.03310
1549.35144	0.03315
1548.06567	0.03319
1546.77990	0.03323
1545.49413	0.03328
1544.20836	0.03329
1542.92259	0.03327
1541.63682	0.03327
1540.35105	0.03331
1539.06529	0.03328
1537.77952	0.03318
1536.49375	0.03311
1535.20798	0.03317
1533.92221	0.03333
1532.63644	0.03345
1531.35067	0.03350
1530.06490	0.03353
1528.77914	0.03360
1527.49337	0.03375
1526.20760	0.03396
1524.92183	0.03418
1523.63606	0.03444
1522.35029	0.03476
1521.06452	0.03512
1519.77875	0.03550
1518.49298	0.03595
1517.20722	0.03647
1515.92145	0.03701
1514.63568	0.03755
1513.34991	0.03811
1512.06414	0.03871
1510.77837	0.03934
1509.49260	0.04000
1508.20683	0.04070
1506.92107	0.04138
1505.63530	0.04196
1504.34953	0.04246
1503.06376	0.04297
1501.77799	0.04352
1500.49222	0.04402
1499.20645	0.04444
1497.92068	0.04482
1496.63491	0.04521
1495.34915	0.04561
1494.06338	0.04605
1492.77761	0.04654
1491.49184	0.04706
1490.20607	0.04755
1488.92030	0.04802
1487.63453	0.04849
1486.34876	0.04901
1485.06299	0.04957
1483.77723	0.05017
1482.49146	0.05077
1481.20569	0.05134
1479.91992	0.05188
1478.63415	0.05243
1477.34838	0.05300
1476.06261	0.05359
1474.77684	0.05420
1473.49108	0.05484
1472.20531	0.05545
1470.91954	0.05605
1469.63377	0.05667
1468.34800	0.05734
1467.06223	0.05804
1465.77646	0.05870
1464.49069	0.05924
1463.20492	0.05964
1461.91916	0.05997
1460.63339	0.06035
1459.34762	0.06086
1458.06185	0.06146
1456.77608	0.06197
1455.49031	0.06230
1454.20454	0.06248
1452.91877	0.06263
1451.63301	0.06277
1450.34724	0.06291
1449.06147	0.06302
1447.77570	0.06308
1446.48993	0.06306
1445.20416	0.06297
1443.91839	0.06283
1442.63262	0.06262
1441.34685	0.06237
1440.06109	0.06212
1438.77532	0.06196
1437.48955	0.06192
1436.20378	0.06194
1434.91801	0.06199
1433.63224	0.06213
1432.34647	0.06243
1431.06070	0.06291
1429.77494	0.06352
1428.48917	0.06421
1427.20340	0.06494
1425.91763	0.06569
1424.63186	0.06646
1423.34609	0.06722
1422.06032	0.06797
1420.77455	0.06871
1419.48878	0.06936
1418.20302	0.06987
1416.91725	0.07027
1415.63148	0.07060
1414.34571	0.07085
1413.05994	0.07099
1411.77417	0.07100
1410.48840	0.07090
1409.20263	0.07072
1407.91687	0.07045
1406.63110	0.07007
1405.34533	0.06955
1404.05956	0.06890
1402.77379	0.06814
1401.48802	0.06732
1400.20225	0.06642
1398.91648	0.06543
1397.63071	0.06435
1396.34495	0.06324
1395.05918	0.06212
1393.77341	0.06100
1392.48764	0.05990
1391.20187	0.05888
1389.91610	0.05793
1388.63033	0.05703
1387.34456	0.05612
1386.05880	0.05520
1384.77303	0.05430
1383.48726	0.05346
1382.20149	0.05268
1380.91572	0.05196
1379.62995	0.05126
1378.34418	0.05054
1377.05841	0.04975
1375.77264	0.04885
1374.48688	0.04781
1373.20111	0.04668
1371.91534	0.04551
1370.62957	0.04437
1369.34380	0.04328
1368.05803	0.04221
1366.77226	0.04116
1365.48649	0.04015
1364.20073	0.03921
1362.91496	0.03833
1361.62919	0.03748
1360.34342	0.03665
1359.05765	0.03586
1357.77188	0.03512
1356.48611	0.03445
1355.20034	0.03382
1353.91457	0.03322
1352.62881	0.03263
1351.34304	0.03206
1350.05727	0.03154
1348.77150	0.03108
1347.48573	0.03067
1346.19996	0.03030
1344.91419	0.02997
1343.62842	0.02967
1342.34266	0.02937
1341.05689	0.02908
1339.77112	0.02876
1338.48535	0.02841
1337.19958	0.02806
1335.91381	0.02774
1334.62804	0.02746
1333.34227	0.02721
1332.05650	0.02698
1330.77074	0.02679
1329.48497	0.02662
1328.19920	0.02643
1326.91343	0.02617
1325.62766	0.02588
1324.34189	0.02564
1323.05612	0.02552
1321.77035	0.02548
1320.48459	0.02543
1319.19882	0.02530
1317.91305	0.02507
1316.62728	0.02484
1315.34151	0.02467
1314.05574	0.02458
1312.76997	0.02454
1311.48420	0.02446
1310.19843	0.02433
1308.91267	0.02417
1307.62690	0.02400
1306.34113	0.02383
1305.05536	0.02367
1303.76959	0.02349
1302.48382	0.02331
1301.19805	0.02316
1299.91228	0.02305
1298.62652	0.02296
1297.34075	0.02286
1296.05498	0.02273
1294.76921	0.02261
1293.48344	0.02249
1292.19767	0.02236
1290.91190	0.02219
1289.62613	0.02200
1288.34036	0.02181
1287.05460	0.02167
1285.76883	0.02159
1284.48306	0.02154
1283.19729	0.02149
1281.91152	0.02140
1280.62575	0.02127
1279.33998	0.02110
1278.05421	0.02092
1276.76845	0.02075
1275.48268	0.02063
1274.19691	0.02056
1272.91114	0.02052
1271.62537	0.02047
1270.33960	0.02040
1269.05383	0.02030
1267.76806	0.02020
1266.48229	0.02010
1265.19653	0.02000
1263.91076	0.01989
1262.62499	0.01976
1261.33922	0.01962
1260.05345	0.01948
1258.76768	0.01936
1257.48191	0.01929
1256.19614	0.01923
1254.91037	0.01916
1253.62461	0.01905
1252.33884	0.01893
1251.05307	0.01883
1249.76730	0.01879
1248.48153	0.01878
1247.19576	0.01876
1245.90999	0.01872
1244.62422	0.01864
1243.33846	0.01854
1242.05269	0.01843
1240.76692	0.01833
1239.48115	0.01825
1238.19538	0.01819
1236.90961	0.01816
1235.62384	0.01814
1234.33807	0.01813
1233.05230	0.01810
1231.76654	0.01805
1230.48077	0.01799
1229.19500	0.01790
1227.90923	0.01781
1226.62346	0.01771
1225.33769	0.01762
1224.05192	0.01752
1222.76615	0.01743
1221.48039	0.01741
1220.19462	0.01750
1218.90885	0.01765
1217.62308	0.01776
1216.33731	0.01776
1215.05154	0.01765
1213.76577	0.01750
1212.48000	0.01741
1211.19423	0.01740
1209.90847	0.01746
1208.62270	0.01750
1207.33693	0.01747
1206.05116	0.01737
1204.76539	0.01722
1203.47962	0.01711
1202.19385	0.01706
1200.90808	0.01709
1199.62232	0.01719
1198.33655	0.01726
1197.05078	0.01731
1195.76501	0.01731
1194.47924	0.01728
1193.19347	0.01724
1191.90770	0.01721
1190.62193	0.01717
1189.33616	0.01711
1188.05040	0.01703
1186.76463	0.01699
1185.47886	0.01700
1184.19309	0.01707
1182.90732	0.01716
1181.62155	0.01723
1180.33578	0.01724
1179.05001	0.01722
1177.76425	0.01721
1176.47848	0.01723
1175.19271	0.01730
1173.90694	0.01743
1172.62117	0.01758
1171.33540	0.01773
1170.04963	0.01785
1168.76386	0.01794
1167.47809	0.01799
1166.19233	0.01803
1164.90656	0.01807
1163.62079	0.01814
1162.33502	0.01818
1161.04925	0.01820
1159.76348	0.01821
1158.47771	0.01826
1157.19194	0.01840
1155.90618	0.01863
1154.62041	0.01891
1153.33464	0.01918
1152.04887	0.01942
1150.76310	0.01961
1149.47733	0.01979
1148.19156	0.02000
1146.90579	0.02028
1145.62002	0.02065
1144.33426	0.02110
1143.04849	0.02160
1141.76272	0.02212
1140.47695	0.02268
1139.19118	0.02331
1137.90541	0.02403
1136.61964	0.02482
1135.33387	0.02562
1134.04811	0.02642
1132.76234	0.02727
1131.47657	0.02826
1130.19080	0.02944
1128.90503	0.03086
1127.61926	0.03249
1126.33349	0.03429
1125.04772	0.03621
1123.76195	0.03820
1122.47619	0.04020
1121.19042	0.04220
1119.90465	0.04421
1118.61888	0.04625
1117.33311	0.04834
1116.04734	0.05045
1114.76157	0.05256
1113.47580	0.05464
1112.19004	0.05665
1110.90427	0.05853
1109.61850	0.06025
1108.33273	0.06188
1107.04696	0.06348
1105.76119	0.06509
1104.47542	0.06668
1103.18965	0.06819
1101.90388	0.06961
1100.61812	0.07096
1099.33235	0.07227
1098.04658	0.07350
1096.76081	0.07456
1095.47504	0.07543
1094.18927	0.07619
1092.90350	0.07698
1091.61773	0.07787
1090.33197	0.07880
1089.04620	0.07972
1087.76043	0.08061
1086.47466	0.08148
1085.18889	0.08235
1083.90312	0.08322
1082.61735	0.08410
1081.33158	0.08500
1080.04581	0.08596
1078.76005	0.08698
1077.47428	0.08806
1076.18851	0.08925
1074.90274	0.09058
1073.61697	0.09201
1072.33120	0.09346
1071.04543	0.09484
1069.75966	0.09616
1068.47390	0.09748
1067.18813	0.09890
1065.90236	0.10047
1064.61659	0.10215
1063.33082	0.10389
1062.04505	0.10561
1060.75928	0.10728
1059.47351	0.10891
1058.18774	0.11051
1056.90198	0.11209
1055.61621	0.11367
1054.33044	0.11530
1053.04467	0.11700
1051.75890	0.11875
1050.47313	0.12051
1049.18736	0.12228
1047.90159	0.12408
1046.61583	0.12594
1045.33006	0.12787
1044.04429	0.12983
1042.75852	0.13178
1041.47275	0.13370
1040.18698	0.13558
1038.90121	0.13748
1037.61544	0.13943
1036.32967	0.14140
1035.04391	0.14333
1033.75814	0.14515
1032.47237	0.14682
1031.18660	0.14831
1029.90083	0.14960
1028.61506	0.15068
1027.32929	0.15162
1026.04352	0.15242
1024.75775	0.15309
1023.47199	0.15356
1022.18622	0.15381
1020.90045	0.15382
1019.61468	0.15361
1018.32891	0.15320
1017.04314	0.15260
1015.75737	0.15182
1014.47160	0.15089
1013.18584	0.14980
1011.90007	0.14853
1010.61430	0.14705
1009.32853	0.14538
1008.04276	0.14352
1006.75699	0.14144
1005.47122	0.13908
1004.18545	0.13650
1002.89968	0.13379
1001.61392	0.13106
1000.32815	0.12834
999.04238	0.12556
997.75661	0.12268
996.47084	0.11968
995.18507	0.11662
993.89930	0.11360
992.61353	0.11066
991.32777	0.10775
990.04200	0.10483
988.75623	0.10189
987.47046	0.09900
986.18469	0.09621
984.89892	0.09354
983.61315	0.09101
982.32738	0.08865
981.04161	0.08649
979.75585	0.08448
978.47008	0.08259
977.18431	0.08080
975.89854	0.07911
974.61277	0.07756
973.32700	0.07612
972.04123	0.07482
970.75546	0.07372
969.46970	0.07293
968.18393	0.07249
966.89816	0.07239
965.61239	0.07253
964.32662	0.07276
963.04085	0.07296
961.75508	0.07300
960.46931	0.07276
959.18354	0.07225
957.89778	0.07152
956.61201	0.07063
955.32624	0.06958
954.04047	0.06838
952.75470	0.06706
951.46893	0.06571
950.18316	0.06441
948.89739	0.06321
947.61163	0.06211
946.32586	0.06102
945.04009	0.05991
943.75432	0.05878
942.46855	0.05769
941.18278	0.05665
939.89701	0.05566
938.61124	0.05472
937.32547	0.05382
936.03971	0.05295
934.75394	0.05212
933.46817	0.05135
932.18240	0.05062
930.89663	0.04991
929.61086	0.04920
928.32509	0.04848
927.03932	0.04777
925.75356	0.04710
924.46779	0.04651
923.18202	0.04602
921.89625	0.04565
920.61048	0.04534
919.32471	0.04499
918.03894	0.04458
916.75317	0.04411
915.46740	0.04364
914.18164	0.04321
912.89587	0.04284
911.61010	0.04255
910.32433	0.04234
909.03856	0.04210
907.75279	0.04178
906.46702	0.04136
905.18125	0.04090
903.89549	0.04048
902.60972	0.04008
901.32395	0.03967
900.03818	0.03921
898.75241	0.03876
897.46664	0.03836
896.18087	0.03803
894.89510	0.03777
893.60933	0.03761
892.32357	0.03756
891.03780	0.03759
889.75203	0.03769
888.46626	0.03790
887.18049	0.03827
885.89472	0.03884
884.60895	0.03967
883.32318	0.04084
882.03742	0.04229
880.75165	0.04380
879.46588	0.04509
878.18011	0.04604
876.89434	0.04683
875.60857	0.04772
874.32280	0.04879
873.03703	0.04980
871.75126	0.05039
870.46550	0.05036
869.17973	0.04976
867.89396	0.04878
866.60819	0.04758
865.32242	0.04627
864.03665	0.04489
862.75088	0.04352
861.46511	0.04225
860.17935	0.04118
858.89358	0.04034
857.60781	0.03967
856.32204	0.03903
855.03627	0.03832
853.75050	0.03758
852.46473	0.03688
851.17896	0.03632
849.89319	0.03590
848.60743	0.03556
847.32166	0.03526
846.03589	0.03498
844.75012	0.03471
843.46435	0.03446
842.17858	0.03422
840.89281	0.03402
839.60704	0.03385
838.32128	0.03370
837.03551	0.03353
835.74974	0.03332
834.46397	0.03306
833.17820	0.03279
831.89243	0.03254
830.60666	0.03232
829.32089	0.03209
828.03512	0.03188
826.74936	0.03175
825.46359	0.03177
824.17782	0.03187
822.89205	0.03197
821.60628	0.03198
820.32051	0.03190
819.03474	0.03176
817.74897	0.03158
816.46321	0.03137
815.17744	0.03118
813.89167	0.03109
812.60590	0.03115
811.32013	0.03131
810.03436	0.03146
808.74859	0.03152
807.46282	0.03150
806.17705	0.03147
804.89129	0.03152
803.60552	0.03165
802.31975	0.03182
801.03398	0.03194
799.74821	0.03195
798.46244	0.03182
797.17667	0.03162
795.89090	0.03145
794.60513	0.03135
793.31937	0.03130
792.03360	0.03125
790.74783	0.03118
789.46206	0.03106
788.17629	0.03096
786.89052	0.03095
785.60475	0.03102
784.31898	0.03112
783.03322	0.03114
781.74745	0.03109
780.46168	0.03098
779.17591	0.03081
777.89014	0.03062
776.60437	0.03046
775.31860	0.03036
774.03283	0.03028
772.74706	0.03020
771.46130	0.03015
770.17553	0.03017
768.88976	0.03027
767.60399	0.03036
766.31822	0.03037
765.03245	0.03031
763.74668	0.03024
762.46091	0.03020
761.17515	0.03018
759.88938	0.03015
758.60361	0.03009
757.31784	0.02999
756.03207	0.02988
754.74630	0.02979
753.46053	0.02975
752.17476	0.02974
750.88899	0.02975
749.60323	0.02976
748.31746	0.02979
747.03169	0.02987
745.74592	0.02997
744.46015	0.03001
743.17438	0.02988
741.88861	0.02964
740.60284	0.02940
739.31708	0.02925
738.03131	0.02913
736.74554	0.02895
735.45977	0.02872
734.17400	0.02853
732.88823	0.02845
731.60246	0.02845
730.31669	0.02847
729.03092	0.02846
727.74516	0.02846
726.45939	0.02849
725.17362	0.02854
723.88785	0.02860
722.60208	0.02868
721.31631	0.02874
720.03054	0.02873
718.74477	0.02865
717.45901	0.02850
716.17324	0.02831
714.88747	0.02811
713.60170	0.02794
712.31593	0.02782
711.03016	0.02778
709.74439	0.02776
708.45862	0.02769
707.17285	0.02755
705.88709	0.02738
704.60132	0.02722
703.31555	0.02710
702.02978	0.02702
700.74401	0.02702
699.45824	0.02708
698.17247	0.02719
696.88670	0.02726
695.60094	0.02724
694.31517	0.02716
693.02940	0.02708
691.74363	0.02705
690.45786	0.02705
689.17209	0.02700
687.88632	0.02688
686.60055	0.02671
685.31478	0.02654
684.02902	0.02641
682.74325	0.02629
681.45748	0.02617
680.17171	0.02605
678.88594	0.02594
677.60017	0.02587
676.31440	0.02579
675.02863	0.02572
673.74287	0.02567
672.45710	0.02566
671.17133	0.02571
669.88556	0.02581
668.59979	0.02588
667.31402	0.02587
666.02825	0.02576
664.74248	0.02555
663.45671	0.02530
662.17095	0.02503
660.88518	0.02479
659.59941	0.02463
658.31364	0.02453
657.02787	0.02447
655.74210	0.02442
654.45633	0.02436
653.17056	0.02428
651.88480	0.02420
650.59903	0.02414
649.31326	0.02413
648.02749	0.02414
646.74172	0.02410
645.45595	0.02397
644.17018	0.02379
642.88441	0.02364
641.59864	0.02359
640.31288	0.02365
639.02711	0.02374
637.74134	0.02379
636.45557	0.02385
635.16980	0.02398
633.88403	0.02418
632.59826	0.02442
631.31249	0.02462
630.02673	0.02456
628.74096	0.02437
627.45519	0.02477
626.16942	0.02460
624.88365	0.02414
623.59788	0.02414
622.31211	0.02526
621.02634	0.02767
619.74057	0.03063
618.45481	0.03295
617.16904	0.03422
615.88327	0.03500
614.59750	0.03600
613.31173	0.03747
612.02596	0.03955
610.74019	0.04255
609.45442	0.04666
608.16866	0.05120
606.88289	0.05509
605.59712	0.05777
604.31135	0.05933
603.02558	0.06000
601.73981	0.05992
600.45404	0.05919
599.16827	0.05796
597.88250	0.05641
596.59674	0.05474
595.31097	0.05319
594.02520	0.05205
592.73943	0.05146
591.45366	0.05134
590.16789	0.05142
588.88212	0.05148
587.59635	0.05155
586.31059	0.05180
585.02482	0.05239
583.73905	0.05331
582.45328	0.05443
581.16751	0.05561
579.88174	0.05678
578.59597	0.05800
577.31020	0.05927
576.02443	0.06053
574.73867	0.06164
573.45290	0.06261
572.16713	0.06357
570.88136	0.06471
569.59559	0.06618
568.30982	0.06803
567.02405	0.07019
565.73828	0.07245
564.45251	0.07455
563.16675	0.07625
561.88098	0.07734
560.59521	0.07757
559.30944	0.07680
558.02367	0.07506
556.73790	0.07258
555.45213	0.06964
554.16636	0.06654
552.88060	0.06347
551.59483	0.06051
550.30906	0.05771
549.02329	0.05513
547.73752	0.05283
546.45175	0.05087
545.16598	0.04924
543.88021	0.04791
542.59444	0.04679
541.30868	0.04580
540.02291	0.04492
538.73714	0.04417
537.45137	0.04353
536.16560	0.04289
534.87983	0.04215
533.59406	0.04126
532.30829	0.04027
531.02253	0.03934
529.73676	0.03856
528.45099	0.03798
527.16522	0.03752
525.87945	0.03709
524.59368	0.03657
523.30791	0.03596
522.02214	0.03530
520.73637	0.03468
519.45061	0.03415
518.16484	0.03370
516.87907	0.03329
515.59330	0.03290
514.30753	0.03251
513.02176	0.03215
511.73599	0.03178
510.45022	0.03140
509.16446	0.03101
507.87869	0.03059
506.59292	0.03012
505.30715	0.02964
504.02138	0.02922
502.73561	0.02892
501.44984	0.02874
500.16407	0.02861
498.87830	0.02849
497.59254	0.02836
496.30677	0.02823
495.02100	0.02810
493.73523	0.02798
492.44946	0.02789
491.16369	0.02788
489.87792	0.02791
488.59215	0.02792
487.30639	0.02792
486.02062	0.02794
484.73485	0.02801
483.44908	0.02812
482.16331	0.02828
480.87754	0.02851
479.59177	0.02885
478.30600	0.02923
477.02023	0.02962
475.73447	0.02999
474.44870	0.03038
473.16293	0.03077
471.87716	0.03108
470.59139	0.03121
469.30562	0.03117
468.01985	0.03106
466.73408	0.03096
465.44832	0.03088
464.16255	0.03075
462.87678	0.03054
461.59101	0.03026
460.30524	0.02996
459.01947	0.02973
457.73370	0.02958
456.44793	0.02949
455.16216	0.02941
453.87640	0.02929
452.59063	0.02907
451.30486	0.02873
450.01909	0.02833
448.73332	0.02798
447.44755	0.02774
446.16178	0.02761
444.87601	0.02752
443.59025	0.02742
442.30448	0.02726
441.01871	0.02704
439.73294	0.02681
438.44717	0.02661
437.16140	0.02649
435.87563	0.02642
434.58986	0.02637
433.30409	0.02632
432.01833	0.02628
430.73256	0.02624
429.44679	0.02619
428.16102	0.02613
426.87525	0.02604
425.58948	0.02593
424.30371	0.02581
423.01794	0.02569
421.73218	0.02557
420.44641	0.02541
419.16064	0.02517
417.87487	0.02489
416.58910	0.02463
415.30333	0.02444
414.01756	0.02431
412.73179	0.02422
411.44602	0.02412
410.16026	0.02400
408.87449	0.02386
407.58872	0.02372
406.30295	0.02359
405.01718	0.02348
403.73141	0.02343
402.44564	0.02348
401.15987	0.02364
399.87411	0.02387
