3997.45528	0.05908
3996.16951	0.05860
3994.88374	0.05851
3993.59798	0.05893
3992.31221	0.05962
3991.02644	0.06010
3989.74067	0.05996
3988.45490	0.05934
3987.16913	0.05879
3985.88336	0.05869
3984.59759	0.05894
3983.31183	0.05912
3982.02606	0.05895
3980.74029	0.05844
3979.45452	0.05776
3978.16875	0.05708
3976.88298	0.05645
3975.59721	0.05592
3974.31144	0.05563
3973.02567	0.05584
3971.73991	0.05664
3970.45414	0.05784
3969.16837	0.05901
3967.88260	0.05973
3966.59683	0.05968
3965.31106	0.05886
3964.02529	0.05772
3962.73952	0.05704
3961.45376	0.05726
3960.16799	0.05808
3958.88222	0.05878
3957.59645	0.05888
3956.31068	0.05842
3955.02491	0.05756
3953.73914	0.05635
3952.45337	0.05500
3951.16760	0.05401
3949.88184	0.05379
3948.59607	0.05439
3947.31030	0.05547
3946.02453	0.05658
3944.73876	0.05727
3943.45299	0.05730
3942.16722	0.05673
3940.88145	0.05592
3939.59569	0.05528
3938.30992	0.05499
3937.02415	0.05487
3935.73838	0.05463
3934.45261	0.05417
3933.16684	0.05377
3931.88107	0.05375
3930.59530	0.05421
3929.30953	0.05496
3928.02377	0.05566
3926.73800	0.05595
3925.45223	0.05573
3924.16646	0.05528
3922.88069	0.05507
3921.59492	0.05528
3920.30915	0.05561
3919.02338	0.05555
3917.73762	0.05499
3916.45185	0.05433
3915.16608	0.05406
3913.88031	0.05414
3912.59454	0.05405
3911.30877	0.05349
3910.02300	0.05273
3908.73723	0.05232
3907.45146	0.05242
3906.16570	0.05271
3904.87993	0.05291
3903.59416	0.05313
3902.30839	0.05361
3901.02262	0.05438
3899.73685	0.05516
3898.45108	0.05552
3897.16531	0.05523
3895.87955	0.05443
3894.59378	0.05360
3893.30801	0.05314
3892.02224	0.05305
3890.73647	0.05304
3889.45070	0.05292
3888.16493	0.05279
3886.87916	0.05296
3885.59339	0.05350
3884.30763	0.05408
3883.02186	0.05425
3881.73609	0.05390
3880.45032	0.05327
3879.16455	0.05264
3877.87878	0.05213
3876.59301	0.05180
3875.30724	0.05169
3874.02148	0.05163
3872.73571	0.05130
3871.44994	0.05068
3870.16417	0.05030
3868.87840	0.05069
3867.59263	0.05166
3866.30686	0.05252
3865.02109	0.05290
3863.73532	0.05287
3862.44956	0.05271
3861.16379	0.05261
3859.87802	0.05256
3858.59225	0.05239
3857.30648	0.05195
3856.02071	0.05135
3854.73494	0.05092
3853.44917	0.05097
3852.16341	0.05139
3850.87764	0.05174
3849.59187	0.05184
3848.30610	0.05174
3847.02033	0.05152
3845.73456	0.05118
3844.44879	0.05079
3843.16302	0.05053
3841.87725	0.05040
3840.59149	0.05024
3839.30572	0.05005
3838.01995	0.05007
3836.73418	0.05041
3835.44841	0.05071
3834.16264	0.05053
3832.87687	0.04982
3831.59110	0.04896
3830.30534	0.04830
3829.01957	0.04794
3827.73380	0.04788
3826.44803	0.04813
3825.16226	0.04869
3823.87649	0.04930
3822.59072	0.04970
3821.30495	0.04983
3820.01918	0.04978
3818.73342	0.04957
3817.44765	0.04935
3816.16188	0.04946
3814.87611	0.05005
3813.59034	0.05074
3812.30457	0.05105
3811.01880	0.05075
3809.73303	0.04991
3808.44726	0.04879
3807.16150	0.04795
3805.87573	0.04778
3804.58996	0.04801
3803.30419	0.04799
3802.01842	0.04753
3800.73265	0.04697
3799.44688	0.04664
3798.16111	0.04656
3796.87535	0.04666
3795.58958	0.04687
3794.30381	0.04708
3793.01804	0.04731
3791.73227	0.04771
3790.44650	0.04822
3789.16073	0.04854
3787.87496	0.04839
3786.58919	0.04781
3785.30343	0.04712
3784.01766	0.04665
3782.73189	0.04651
3781.44612	0.04661
3780.16035	0.04677
3778.87458	0.04690
3777.58881	0.04702
3776.30304	0.04725
3775.01728	0.04771
3773.73151	0.04833
3772.44574	0.04892
3771.15997	0.04929
3769.87420	0.04939
3768.58843	0.04919
3767.30266	0.04872
3766.01689	0.04824
3764.73112	0.04808
3763.44536	0.04824
3762.15959	0.04846
3760.87382	0.04858
3759.58805	0.04870
3758.30228	0.04885
3757.01651	0.04894
3755.73074	0.04878
3754.44497	0.04833
3753.15921	0.04778
3751.87344	0.04743
3750.58767	0.04751
3749.30190	0.04806
3748.01613	0.04883
3746.73036	0.04935
3745.44459	0.04938
3744.15882	0.04913
3742.87305	0.04875
3741.58729	0.04812
3740.30152	0.04730
3739.01575	0.04661
3737.72998	0.04628
3736.44421	0.04630
3735.15844	0.04650
3733.87267	0.04662
3732.58690	0.04665
3731.30114	0.04681
3730.01537	0.04715
3728.72960	0.04734
3727.44383	0.04709
3726.15806	0.04642
3724.87229	0.04556
3723.58652	0.04471
3722.30075	0.04406
3721.01498	0.04377
3719.72922	0.04397
3718.44345	0.04457
3717.15768	0.04531
3715.87191	0.04584
3714.58614	0.04589
3713.30037	0.04544
3712.01460	0.04466
3710.72883	0.04385
3709.44307	0.04330
3708.15730	0.04321
3706.87153	0.04362
3705.58576	0.04433
3704.29999	0.04504
3703.01422	0.04556
3701.72845	0.04590
3700.44268	0.04619
3699.15691	0.04653
3697.87115	0.04684
3696.58538	0.04695
3695.29961	0.04675
3694.01384	0.04630
3692.72807	0.04575
3691.44230	0.04518
3690.15653	0.04452
3688.87076	0.04382
3687.58500	0.04327
3686.29923	0.04290
3685.01346	0.04262
3683.72769	0.04236
3682.44192	0.04221
3681.15615	0.04236
3679.87038	0.04285
3678.58461	0.04340
3677.29884	0.04364
3676.01308	0.04363
3674.72731	0.04384
3673.44154	0.04458
3672.15577	0.04557
3670.87000	0.04631
3669.58423	0.04644
3668.29846	0.04582
3667.01269	0.04463
3665.72693	0.04333
3664.44116	0.04247
3663.15539	0.04242
3661.86962	0.04321
3660.58385	0.04443
3659.29808	0.04548
3658.01231	0.04597
3656.72654	0.04597
3655.44077	0.04583
3654.15501	0.04578
3652.86924	0.04576
3651.58347	0.04563
3650.29770	0.04538
3649.01193	0.04515
3647.72616	0.04512
3646.44039	0.04535
3645.15462	0.04575
3643.86886	0.04612
3642.58309	0.04627
3641.29732	0.04623
3640.01155	0.04617
3638.72578	0.04629
3637.44001	0.04647
3636.15424	0.04638
3634.86847	0.04584
3633.58270	0.04506
3632.29694	0.04448
3631.01117	0.04436
3629.72540	0.04481
3628.43963	0.04585
3627.15386	0.04724
3625.86809	0.04845
3624.58232	0.04914
3623.29655	0.04939
3622.01079	0.04950
3620.72502	0.04962
3619.43925	0.04974
3618.15348	0.04977
3616.86771	0.04966
3615.58194	0.04934
3614.29617	0.04877
3613.01040	0.04809
3611.72463	0.04753
3610.43887	0.04734
3609.15310	0.04767
3607.86733	0.04839
3606.58156	0.04904
3605.29579	0.04917
3604.01002	0.04887
3602.72425	0.04872
3601.43848	0.04924
3600.15272	0.05032
3598.86695	0.05138
3597.58118	0.05193
3596.29541	0.05201
3595.00964	0.05194
3593.72387	0.05182
3592.43810	0.05142
3591.15233	0.05065
3589.86656	0.04996
3588.58080	0.04996
3587.29503	0.05077
3586.00926	0.05180
3584.72349	0.05241
3583.43772	0.05243
3582.15195	0.05218
3580.86618	0.05199
3579.58041	0.05193
3578.29464	0.05186
3577.00888	0.05171
3575.72311	0.05169
3574.43734	0.05202
3573.15157	0.05260
3571.86580	0.05307
3570.58003	0.05320
3569.29426	0.05314
3568.00849	0.05330
3566.72273	0.05389
3565.43696	0.05477
3564.15119	0.05558
3562.86542	0.05603
3561.57965	0.05602
3560.29388	0.05562
3559.00811	0.05495
3557.72234	0.05412
3556.43657	0.05325
3555.15081	0.05258
3553.86504	0.05235
3552.57927	0.05256
3551.29350	0.05293
3550.00773	0.05316
3548.72196	0.05334
3547.43619	0.05384
3546.15042	0.05480
3544.86466	0.05590
3543.57889	0.05672
3542.29312	0.05715
3541.00735	0.05737
3539.72158	0.05755
3538.43581	0.05766
3537.15004	0.05760
3535.86427	0.05729
3534.57850	0.05674
3533.29274	0.05608
3532.00697	0.05558
3530.72120	0.05545
3529.43543	0.05564
3528.14966	0.05589
3526.86389	0.05602
3525.57812	0.05611
3524.29235	0.05640
3523.00659	0.05706
3521.72082	0.05796
3520.43505	0.05873
3519.14928	0.05899
3517.86351	0.05875
3516.57774	0.05833
3515.29197	0.05803
3514.00620	0.05790
3512.72043	0.05786
3511.43467	0.05780
3510.14890	0.05765
3508.86313	0.05750
3507.57736	0.05755
3506.29159	0.05798
3505.00582	0.05870
3503.72005	0.05941
3502.43428	0.05982
3501.14852	0.05989
3499.86275	0.05973
3498.57698	0.05950
3497.29121	0.05927
3496.00544	0.05909
3494.71967	0.05899
3493.43390	0.05910
3492.14813	0.05956
3490.86236	0.06040
3489.57660	0.06132
3488.29083	0.06191
3487.00506	0.06197
3485.71929	0.06158
3484.43352	0.06088
3483.14775	0.06000
3481.86198	0.05917
3480.57621	0.05875
3479.29045	0.05894
3478.00468	0.05954
3476.71891	0.06016
3475.43314	0.06055
3474.14737	0.06069
3472.86160	0.06069
3471.57583	0.06073
3470.29006	0.06098
3469.00429	0.06156
3467.71853	0.06232
3466.43276	0.06296
3465.14699	0.06325
3463.86122	0.06318
3462.57545	0.06296
3461.28968	0.06285
3460.00391	0.06299
3458.71814	0.06335
3457.43238	0.06382
3456.14661	0.06428
3454.86084	0.06467
3453.57507	0.06490
3452.28930	0.06490
3451.00353	0.06472
3449.71776	0.06447
3448.43199	0.06426
3447.14622	0.06414
3445.86046	0.06410
3444.57469	0.06412
3443.28892	0.06411
3442.00315	0.06406
3440.71738	0.06402
3439.43161	0.06407
3438.14584	0.06423
3436.86007	0.06440
3435.57431	0.06456
3434.28854	0.06476
3433.00277	0.06504
3431.71700	0.06533
3430.43123	0.06553
3429.14546	0.06558
3427.85969	0.06554
3426.57392	0.06551
3425.28815	0.06560
3424.00239	0.06581
3422.71662	0.06603
3421.43085	0.06605
3420.14508	0.06580
3418.85931	0.06545
3417.57354	0.06518
3416.28777	0.06503
3415.00200	0.06491
3413.71624	0.06478
3412.43047	0.06474
3411.14470	0.06492
3409.85893	0.06535
3408.57316	0.06585
3407.28739	0.06620
3406.00162	0.06627
3404.71585	0.06611
3403.43008	0.06588
3402.14432	0.06570
3400.85855	0.06555
3399.57278	0.06539
3398.28701	0.06527
3397.00124	0.06537
3395.71547	0.06574
3394.42970	0.06628
3393.14393	0.06681
3391.85817	0.06719
3390.57240	0.06738
3389.28663	0.06729
3388.00086	0.06688
3386.71509	0.06619
3385.42932	0.06547
3384.14355	0.06510
3382.85778	0.06527
3381.57201	0.06588
3380.28625	0.06662
3379.00048	0.06717
3377.71471	0.06742
3376.42894	0.06741
3375.14317	0.06723
3373.85740	0.06693
3372.57163	0.06664
3371.28586	0.06649
3370.00010	0.06660
3368.71433	0.06698
3367.42856	0.06750
3366.14279	0.06795
3364.85702	0.06811
3363.57125	0.06789
3362.28548	0.06747
3360.99971	0.06708
3359.71394	0.06686
3358.42818	0.06682
3357.14241	0.06683
3355.85664	0.06682
3354.57087	0.06673
3353.28510	0.06660
3351.99933	0.06655
3350.71356	0.06667
3349.42779	0.06688
3348.14202	0.06701
3346.85626	0.06692
3345.57049	0.06666
3344.28472	0.06640
3342.99895	0.06631
3341.71318	0.06648
3340.42741	0.06689
3339.14164	0.06739
3337.85587	0.06775
3336.57011	0.06772
3335.28434	0.06729
3333.99857	0.06669
3332.71280	0.06625
3331.42703	0.06615
3330.14126	0.06636
3328.85549	0.06680
3327.56972	0.06745
3326.28395	0.06824
3324.99819	0.06895
3323.71242	0.06921
3322.42665	0.06886
3321.14088	0.06809
3319.85511	0.06737
3318.56934	0.06706
3317.28357	0.06717
3315.99780	0.06747
3314.71204	0.06765
3313.42627	0.06760
3312.14050	0.06742
3310.85473	0.06732
3309.56896	0.06737
3308.28319	0.06751
3306.99742	0.06762
3305.71165	0.06759
3304.42588	0.06731
3303.14012	0.06670
3301.85435	0.06592
3300.56858	0.06528
3299.28281	0.06505
3297.99704	0.06524
3296.71127	0.06565
3295.42550	0.06608
3294.13973	0.06642
3292.85397	0.06663
3291.56820	0.06666
3290.28243	0.06650
3288.99666	0.06617
3287.71089	0.06575
3286.42512	0.06533
3285.13935	0.06509
3283.85358	0.06519
3282.56781	0.06561
3281.28205	0.06606
3279.99628	0.06627
3278.71051	0.06619
3277.42474	0.06599
3276.13897	0.06578
3274.85320	0.06554
3273.56743	0.06521
3272.28166	0.06485
3270.99590	0.06463
3269.71013	0.06458
3268.42436	0.06461
3267.13859	0.06467
3265.85282	0.06469
3264.56705	0.06463
3263.28128	0.06449
3261.99551	0.06447
3260.70974	0.06473
3259.42398	0.06520
3258.13821	0.06557
3256.85244	0.06554
3255.56667	0.06509
3254.28090	0.06445
3252.99513	0.06388
3251.70936	0.06355
3250.42359	0.06347
3249.13783	0.06360
3247.85206	0.06382
3246.56629	0.06397
3245.28052	0.06389
3243.99475	0.06356
3242.70898	0.06315
3241.42321	0.06282
3240.13744	0.06261
3238.85167	0.06243
3237.56591	0.06224
3236.28014	0.06203
3234.99437	0.06176
3233.70860	0.06144
3232.42283	0.06119
3231.13706	0.06123
3229.85129	0.06160
3228.56552	0.06206
3227.27976	0.06232
3225.99399	0.06234
3224.70822	0.06236
3223.42245	0.06250
3222.13668	0.06265
3220.85091	0.06266
3219.56514	0.06250
3218.27937	0.06226
3216.99360	0.06209
3215.70784	0.06204
3214.42207	0.06204
3213.13630	0.06188
3211.85053	0.06142
3210.56476	0.06083
3209.27899	0.06036
3207.99322	0.06012
3206.70745	0.05999
3205.42169	0.05985
3204.13592	0.05980
3202.85015	0.05994
3201.56438	0.06018
3200.27861	0.06027
3198.99284	0.06014
3197.70707	0.06005
3196.42130	0.06019
3195.13553	0.06042
3193.84977	0.06036
3192.56400	0.05993
3191.27823	0.05944
3189.99246	0.05924
3188.70669	0.05938
3187.42092	0.05964
3186.13515	0.05969
3184.84938	0.05938
3183.56362	0.05881
3182.27785	0.05830
3180.99208	0.05821
3179.70631	0.05859
3178.42054	0.05915
3177.13477	0.05952
3175.84900	0.05950
3174.56323	0.05918
3173.27746	0.05875
3171.99170	0.05833
3170.70593	0.05795
3169.42016	0.05760
3168.13439	0.05734
3166.84862	0.05726
3165.56285	0.05735
3164.27708	0.05752
3162.99131	0.05760
3161.70555	0.05743
3160.41978	0.05702
3159.13401	0.05654
3157.84824	0.05622
3156.56247	0.05622
3155.27670	0.05650
3153.99093	0.05679
3152.70516	0.05686
3151.41939	0.05674
3150.13363	0.05659
3148.84786	0.05652
3147.56209	0.05642
3146.27632	0.05619
3144.99055	0.05589
3143.70478	0.05558
3142.41901	0.05529
3141.13324	0.05506
3139.84748	0.05502
3138.56171	0.05520
3137.27594	0.05540
3135.99017	0.05539
3134.70440	0.05523
3133.41863	0.05511
3132.13286	0.05512
3130.84709	0.05512
3129.56132	0.05498
3128.27556	0.05472
3126.98979	0.05446
3125.70402	0.05432
3124.41825	0.05436
3123.13248	0.05450
3121.84671	0.05461
3120.56094	0.05460
3119.27517	0.05452
3117.98940	0.05450
3116.70364	0.05458
3115.41787	0.05464
3114.13210	0.05455
3112.84633	0.05425
3111.56056	0.05386
3110.27479	0.05353
3108.98902	0.05333
3107.70325	0.05323
3106.41749	0.05315
3105.13172	0.05304
3103.84595	0.05283
3102.56018	0.05255
3101.27441	0.05230
3099.98864	0.05214
3098.70287	0.05205
3097.41710	0.05198
3096.13133	0.05192
3094.84557	0.05192
3093.55980	0.05199
3092.27403	0.05209
3090.98826	0.05219
3089.70249	0.05233
3088.41672	0.05251
3087.13095	0.05272
3085.84518	0.05286
3084.55942	0.05289
3083.27365	0.05286
3081.98788	0.05275
3080.70211	0.05257
3079.41634	0.05231
3078.13057	0.05202
3076.84480	0.05180
3075.55903	0.05173
3074.27326	0.05180
3072.98750	0.05186
3071.70173	0.05180
3070.41596	0.05164
3069.13019	0.05154
3067.84442	0.05155
3066.55865	0.05150
3065.27288	0.05123
3063.98711	0.05074
3062.70135	0.05023
3061.41558	0.04996
3060.12981	0.05002
3058.84404	0.05031
3057.55827	0.05060
3056.27250	0.05070
3054.98673	0.05059
3053.70096	0.05036
3052.41519	0.05016
3051.12943	0.05010
3049.84366	0.05015
3048.55789	0.05024
3047.27212	0.05024
3045.98635	0.05009
3044.70058	0.04982
3043.41481	0.04959
3042.12904	0.04953
3040.84328	0.04960
3039.55751	0.04964
3038.27174	0.04953
3036.98597	0.04925
3035.70020	0.04887
3034.41443	0.04849
3033.12866	0.04824
3031.84289	0.04819
3030.55712	0.04831
3029.27136	0.04846
3027.98559	0.04855
3026.69982	0.04863
3025.41405	0.04878
3024.12828	0.04895
3022.84251	0.04897
3021.55674	0.04872
3020.27097	0.04828
3018.98521	0.04783
3017.69944	0.04750
3016.41367	0.04733
3015.12790	0.04731
3013.84213	0.04733
3012.55636	0.04728
3011.27059	0.04710
3009.98482	0.04679
3008.69905	0.04644
3007.41329	0.04613
3006.12752	0.04595
3004.84175	0.04592
3003.55598	0.04597
3002.27021	0.04603
3000.98444	0.04604
2999.69867	0.04602
2998.41290	0.04601
2997.12714	0.04601
2995.84137	0.04603
2994.55560	0.04608
2993.26983	0.04623
2991.98406	0.04650
2990.69829	0.04676
2989.41252	0.04689
2988.12675	0.04696
2986.84098	0.04707
2985.55522	0.04721
2984.26945	0.04727
2982.98368	0.04726
2981.69791	0.04730
2980.41214	0.04750
2979.12637	0.04784
2977.84060	0.04819
2976.55483	0.04842
2975.26907	0.04846
2973.98330	0.04838
2972.69753	0.04834
2971.41176	0.04852
2970.12599	0.04900
2968.84022	0.04971
2967.55445	0.05038
2966.26868	0.05075
2964.98291	0.05077
2963.69715	0.05059
2962.41138	0.05052
2961.12561	0.05071
2959.83984	0.05113
2958.55407	0.05159
2957.26830	0.05197
2955.98253	0.05225
2954.69676	0.05247
2953.41100	0.05261
2952.12523	0.05262
2950.83946	0.05249
2949.55369	0.05231
2948.26792	0.05226
2946.98215	0.05244
2945.69638	0.05277
2944.41061	0.05304
2943.12484	0.05311
2941.83908	0.05291
2940.55331	0.05253
2939.26754	0.05212
2937.98177	0.05193
2936.69600	0.05207
2935.41023	0.05244
2934.12446	0.05283
2932.83869	0.05314
2931.55293	0.05346
2930.26716	0.05393
2928.98139	0.05450
2927.69562	0.05487
2926.40985	0.05484
2925.12408	0.05448
2923.83831	0.05408
2922.55254	0.05384
2921.26677	0.05376
2919.98101	0.05370
2918.69524	0.05356
2917.40947	0.05331
2916.12370	0.05295
2914.83793	0.05245
2913.55216	0.05182
2912.26639	0.05124
2910.98062	0.05095
2909.69486	0.05104
2908.40909	0.05126
2907.12332	0.05129
2905.83755	0.05106
2904.55178	0.05077
2903.26601	0.05051
2901.98024	0.05019
2900.69447	0.04975
2899.40870	0.04929
2898.12294	0.04892
2896.83717	0.04862
2895.55140	0.04830
2894.26563	0.04802
2892.97986	0.04791
2891.69409	0.04795
2890.40832	0.04799
2889.12255	0.04793
2887.83678	0.04780
2886.55102	0.04762
2885.26525	0.04742
2883.97948	0.04716
2882.69371	0.04682
2881.40794	0.04655
2880.12217	0.04655
2878.83640	0.04691
2877.55063	0.04744
2876.26487	0.04780
2874.97910	0.04781
2873.69333	0.04755
2872.40756	0.04725
2871.12179	0.04712
2869.83602	0.04718
2868.55025	0.04734
2867.26448	0.04747
2865.97871	0.04753
2864.69295	0.04753
2863.40718	0.04738
2862.12141	0.04697
2860.83564	0.04637
2859.54987	0.04584
2858.26410	0.04562
2856.97833	0.04571
2855.69256	0.04583
2854.40680	0.04570
2853.12103	0.04529
2851.83526	0.04476
2850.54949	0.04434
2849.26372	0.04413
2847.97795	0.04406
2846.69218	0.04395
2845.40641	0.04371
2844.12064	0.04341
2842.83488	0.04313
2841.54911	0.04284
2840.26334	0.04243
2838.97757	0.04190
2837.69180	0.04143
2836.40603	0.04116
2835.12026	0.04106
2833.83449	0.04104
2832.54873	0.04092
2831.26296	0.04063
2829.97719	0.04020
2828.69142	0.03978
2827.40565	0.03949
2826.11988	0.03938
2824.83411	0.03939
2823.54834	0.03941
2822.26257	0.03933
2820.97681	0.03905
2819.69104	0.03861
2818.40527	0.03821
2817.11950	0.03800
2815.83373	0.03799
2814.54796	0.03808
2813.26219	0.03818
2811.97642	0.03823
2810.69066	0.03820
2809.40489	0.03800
2808.11912	0.03763
2806.83335	0.03716
2805.54758	0.03675
2804.26181	0.03651
2802.97604	0.03653
2801.69027	0.03678
2800.40450	0.03711
2799.11874	0.03728
2797.83297	0.03718
2796.54720	0.03695
2795.26143	0.03679
2793.97566	0.03682
2792.68989	0.03695
2791.40412	0.03701
2790.11835	0.03696
2788.83259	0.03684
2787.54682	0.03675
2786.26105	0.03670
2784.97528	0.03665
2783.68951	0.03658
2782.40374	0.03650
2781.11797	0.03644
2779.83220	0.03644
2778.54643	0.03649
2777.26067	0.03652
2775.97490	0.03652
2774.68913	0.03648
2773.40336	0.03643
2772.11759	0.03632
2770.83182	0.03611
2769.54605	0.03584
2768.26028	0.03567
2766.97452	0.03562
2765.68875	0.03560
2764.40298	0.03550
2763.11721	0.03538
2761.83144	0.03533
2760.54567	0.03538
2759.25990	0.03542
2757.97413	0.03535
2756.68836	0.03520
2755.40260	0.03508
2754.11683	0.03510
2752.83106	0.03519
2751.54529	0.03525
2750.25952	0.03523
2748.97375	0.03516
2747.68798	0.03508
2746.40221	0.03501
2745.11645	0.03493
2743.83068	0.03486
2742.54491	0.03479
2741.25914	0.03471
2739.97337	0.03461
2738.68760	0.03447
2737.40183	0.03432
2736.11606	0.03420
2734.83029	0.03410
2733.54453	0.03401
2732.25876	0.03393
2730.97299	0.03395
2729.68722	0.03407
2728.40145	0.03424
2727.11568	0.03439
2725.82991	0.03449
2724.54414	0.03454
2723.25838	0.03446
2721.97261	0.03417
2720.68684	0.03376
2719.40107	0.03338
2718.11530	0.03315
2716.82953	0.03309
2715.54376	0.03317
2714.25799	0.03332
2712.97222	0.03343
2711.68646	0.03344
2710.40069	0.03334
2709.11492	0.03317
2707.82915	0.03304
2706.54338	0.03300
2705.25761	0.03305
2703.97184	0.03316
2702.68607	0.03329
2701.40031	0.03336
2700.11454	0.03335
2698.82877	0.03329
2697.54300	0.03320
2696.25723	0.03309
2694.97146	0.03302
2693.68569	0.03301
2692.39992	0.03305
2691.11415	0.03303
2689.82839	0.03287
2688.54262	0.03264
2687.25685	0.03247
2685.97108	0.03242
2684.68531	0.03240
2683.39954	0.03231
2682.11377	0.03213
2680.82800	0.03202
2679.54224	0.03205
2678.25647	0.03217
2676.97070	0.03227
2675.68493	0.03230
2674.39916	0.03226
2673.11339	0.03218
2671.82762	0.03207
2670.54185	0.03198
2669.25608	0.03201
2667.97032	0.03221
2666.68455	0.03247
2665.39878	0.03260
2664.11301	0.03249
2662.82724	0.03224
2661.54147	0.03205
2660.25570	0.03205
2658.96993	0.03219
2657.68417	0.03234
2656.39840	0.03235
2655.11263	0.03211
2653.82686	0.03173
2652.54109	0.03142
2651.25532	0.03133
2649.96955	0.03136
2648.68378	0.03135
2647.39801	0.03126
2646.11225	0.03115
2644.82648	0.03102
2643.54071	0.03085
2642.25494	0.03062
2640.96917	0.03035
2639.68340	0.03005
2638.39763	0.02977
2637.11186	0.02957
2635.82609	0.02947
2634.54033	0.02945
2633.25456	0.02952
2631.96879	0.02965
2630.68302	0.02984
2629.39725	0.02998
2628.11148	0.03002
2626.82571	0.02992
2625.53994	0.02969
2624.25418	0.02937
2622.96841	0.02904
2621.68264	0.02880
2620.39687	0.02869
2619.11110	0.02869
2617.82533	0.02871
2616.53956	0.02864
2615.25379	0.02849
2613.96802	0.02835
2612.68226	0.02825
2611.39649	0.02813
2610.11072	0.02794
2608.82495	0.02769
2607.53918	0.02752
2606.25341	0.02749
2604.96764	0.02752
2603.68187	0.02743
2602.39611	0.02714
2601.11034	0.02684
2599.82457	0.02682
2598.53880	0.02714
2597.25303	0.02751
2595.96726	0.02753
2594.68149	0.02706
2593.39572	0.02640
2592.10995	0.02603
2590.82419	0.02624
2589.53842	0.02687
2588.25265	0.02755
2586.96688	0.02793
2585.68111	0.02792
2584.39534	0.02757
2583.10957	0.02710
2581.82380	0.02676
2580.53804	0.02668
2579.25227	0.02673
2577.96650	0.02664
2576.68073	0.02633
2575.39496	0.02598
2574.10919	0.02578
2572.82342	0.02576
2571.53765	0.02588
2570.25188	0.02617
2568.96612	0.02659
2567.68035	0.02704
2566.39458	0.02734
2565.10881	0.02739
2563.82304	0.02712
2562.53727	0.02660
2561.25150	0.02600
2559.96573	0.02548
2558.67997	0.02501
2557.39420	0.02452
2556.10843	0.02416
2554.82266	0.02421
2553.53689	0.02474
2552.25112	0.02542
2550.96535	0.02584
2549.67958	0.02592
2548.39381	0.02588
2547.10805	0.02588
2545.82228	0.02588
2544.53651	0.02572
2543.25074	0.02535
2541.96497	0.02487
2540.67920	0.02448
2539.39343	0.02435
2538.10766	0.02458
2536.82190	0.02508
2535.53613	0.02555
2534.25036	0.02563
2532.96459	0.02523
2531.67882	0.02464
2530.39305	0.02421
2529.10728	0.02405
2527.82151	0.02401
2526.53574	0.02397
2525.24998	0.02400
2523.96421	0.02415
2522.67844	0.02437
2521.39267	0.02446
2520.10690	0.02430
2518.82113	0.02398
2517.53536	0.02365
2516.24959	0.02338
2514.96383	0.02321
2513.67806	0.02322
2512.39229	0.02347
2511.10652	0.02386
2509.82075	0.02417
2508.53498	0.02413
2507.24921	0.02369
2505.96344	0.02306
2504.67767	0.02256
2503.39191	0.02242
2502.10614	0.02269
2500.82037	0.02319
2499.53460	0.02368
2498.24883	0.02396
2496.96306	0.02404
2495.67729	0.02404
2494.39152	0.02406
2493.10576	0.02417
2491.81999	0.02435
2490.53422	0.02448
2489.24845	0.02441
2487.96268	0.02417
2486.67691	0.02394
2485.39114	0.02385
2484.10537	0.02385
2482.81960	0.02387
2481.53384	0.02394
2480.24807	0.02409
2478.96230	0.02423
2477.67653	0.02424
2476.39076	0.02409
2475.10499	0.02386
2473.81922	0.02364
2472.53345	0.02340
2471.24769	0.02310
2469.96192	0.02280
2468.67615	0.02261
2467.39038	0.02264
2466.10461	0.02287
2464.81884	0.02326
2463.53307	0.02370
2462.24730	0.02400
2460.96153	0.02397
2459.67577	0.02361
2458.39000	0.02314
2457.10423	0.02283
2455.81846	0.02278
2454.53269	0.02295
2453.24692	0.02315
2451.96115	0.02318
2450.67538	0.02289
2449.38962	0.02238
2448.10385	0.02191
2446.81808	0.02169
2445.53231	0.02178
2444.24654	0.02211
2442.96077	0.02252
2441.67500	0.02282
2440.38923	0.02287
2439.10346	0.02270
2437.81770	0.02248
2436.53193	0.02237
2435.24616	0.02242
2433.96039	0.02257
2432.67462	0.02281
2431.38885	0.02305
2430.10308	0.02316
2428.81731	0.02306
2427.53155	0.02282
2426.24578	0.02248
2424.96001	0.02205
2423.67424	0.02162
2422.38847	0.02133
2421.10270	0.02129
2419.81693	0.02146
2418.53116	0.02175
2417.24539	0.02206
2415.95963	0.02225
2414.67386	0.02218
2413.38809	0.02185
2412.10232	0.02149
2410.81655	0.02135
2409.53078	0.02144
2408.24501	0.02151
2406.95924	0.02134
2405.67347	0.02103
2404.38771	0.02082
2403.10194	0.02081
2401.81617	0.02087
2400.53040	0.02084
2399.24463	0.02069
2397.95886	0.02063
2396.67309	0.02071
2395.38732	0.02093
2394.10156	0.02123
2392.81579	0.02148
2391.53002	0.02155
2390.24425	0.02139
2388.95848	0.02103
2387.67271	0.02064
2386.38694	0.02035
2385.10117	0.02024
2383.81540	0.02030
2382.52964	0.02044
2381.24387	0.02065
2379.95810	0.02095
2378.67233	0.02135
2377.38656	0.02175
2376.10079	0.02203
2374.81502	0.02206
2373.52925	0.02186
2372.24349	0.02154
2370.95772	0.02128
2369.67195	0.02117
2368.38618	0.02124
2367.10041	0.02146
2365.81464	0.02179
2364.52887	0.02211
2363.24310	0.02237
2361.95733	0.02254
2360.67157	0.02266
2359.38580	0.02271
2358.10003	0.02276
2356.81426	0.02280
2355.52849	0.02281
2354.24272	0.02277
2352.95695	0.02267
2351.67118	0.02258
2350.38542	0.02252
2349.09965	0.02246
2347.81388	0.02233
2346.52811	0.02219
2345.24234	0.02207
2343.95657	0.02200
2342.67080	0.02199
2341.38503	0.02217
2340.09926	0.02251
2338.81350	0.02283
2337.52773	0.02303
2336.24196	0.02311
2334.95619	0.02305
2333.67042	0.02283
2332.38465	0.02242
2331.09888	0.02207
2329.81311	0.02190
2328.52735	0.02198
2327.24158	0.02259
2325.95581	0.02346
2324.67004	0.02402
2323.38427	0.02416
2322.09850	0.02394
2320.81273	0.02346
2319.52696	0.02312
2318.24119	0.02295
2316.95543	0.02275
2315.66966	0.02262
2314.38389	0.02251
2313.09812	0.02238
2311.81235	0.02231
2310.52658	0.02224
2309.24081	0.02215
2307.95504	0.02202
2306.66928	0.02183
2305.38351	0.02170
2304.09774	0.02169
2302.81197	0.02174
2301.52620	0.02178
2300.24043	0.02173
2298.95466	0.02157
2297.66889	0.02130
2296.38312	0.02095
2295.09736	0.02064
2293.81159	0.02054
2292.52582	0.02074
2291.24005	0.02113
2289.95428	0.02145
2288.66851	0.02148
2287.38274	0.02115
2286.09697	0.02057
2284.81121	0.01993
2283.52544	0.01949
2282.23967	0.01932
2280.95390	0.01930
2279.66813	0.01922
2278.38236	0.01896
2277.09659	0.01855
2275.81082	0.01810
2274.52505	0.01775
2273.23929	0.01763
2271.95352	0.01778
2270.66775	0.01802
2269.38198	0.01817
2268.09621	0.01823
2266.81044	0.01838
2265.52467	0.01864
2264.23890	0.01887
2262.95314	0.01891
2261.66737	0.01875
2260.38160	0.01849
2259.09583	0.01821
2257.81006	0.01800
2256.52429	0.01798
2255.23852	0.01821
2253.95275	0.01843
2252.66698	0.01828
2251.38122	0.01767
2250.09545	0.01707
2248.80968	0.01705
2247.52391	0.01737
2246.23814	0.01764
2244.95237	0.01741
2243.66660	0.01673
2242.38083	0.01593
2241.09507	0.01518
2239.80930	0.01461
2238.52353	0.01446
2237.23776	0.01493
2235.95199	0.01585
2234.66622	0.01659
2233.38045	0.01668
2232.09468	0.01611
2230.80891	0.01536
2229.52315	0.01489
2228.23738	0.01495
2226.95161	0.01534
2225.66584	0.01555
2224.38007	0.01513
2223.09430	0.01413
2221.80853	0.01315
2220.52276	0.01278
2219.23700	0.01316
2217.95123	0.01401
2216.66546	0.01484
2215.37969	0.01526
2214.09392	0.01521
2212.80815	0.01495
2211.52238	0.01485
2210.23661	0.01499
2208.95084	0.01517
2207.66508	0.01517
2206.37931	0.01489
2205.09354	0.01440
2203.80777	0.01379
2202.52200	0.01315
2201.23623	0.01263
2199.95046	0.01248
2198.66469	0.01293
2197.37893	0.01377
2196.09316	0.01433
2194.80739	0.01399
2193.52162	0.01282
2192.23585	0.01157
2190.95008	0.01111
2189.66431	0.01176
2188.37854	0.01308
2187.09277	0.01414
2185.80701	0.01433
2184.52124	0.01373
2183.23547	0.01275
2181.94970	0.01153
2180.66393	0.01001
2179.37816	0.00847
2178.09239	0.00752
2176.80662	0.00748
2175.52085	0.00816
2174.23509	0.00915
2172.94932	0.01007
2171.66355	0.01069
2170.37778	0.01083
2169.09201	0.01037
2167.80624	0.00944
2166.52047	0.00842
2165.23470	0.00799
2163.94894	0.00858
2162.66317	0.00971
2161.37740	0.01006
2160.09163	0.00856
2158.80586	0.00563
2157.52009	0.00293
2156.23432	0.00183
2154.94855	0.00246
2153.66278	0.00398
2152.37702	0.00539
2151.09125	0.00613
2149.80548	0.00625
2148.51971	0.00621
2147.23394	0.00631
2145.94817	0.00659
2144.66240	0.00700
2143.37663	0.00756
2142.09087	0.00831
2140.80510	0.00903
2139.51933	0.00936
2138.23356	0.00915
2136.94779	0.00865
2135.66202	0.00836
2134.37625	0.00843
2133.09048	0.00860
2131.80471	0.00859
2130.51895	0.00850
2129.23318	0.00861
2127.94741	0.00903
2126.66164	0.00965
2125.37587	0.01024
2124.09010	0.01058
2122.80433	0.01061
2121.51856	0.01040
2120.23280	0.01022
2118.94703	0.01027
2117.66126	0.01055
2116.37549	0.01092
2115.08972	0.01126
2113.80395	0.01148
2112.51818	0.01159
2111.23241	0.01165
2109.94664	0.01181
2108.66088	0.01213
2107.37511	0.01242
2106.08934	0.01243
2104.80357	0.01204
2103.51780	0.01136
2102.23203	0.01060
2100.94626	0.00999
2099.66049	0.00899
2098.37473	0.00867
2097.08896	0.00891
2095.80319	0.00940
2094.51742	0.01011
2093.23165	0.01097
2091.94588	0.01178
2090.66011	0.01228
2089.37434	0.01229
2088.08857	0.01184
2086.80281	0.01117
2085.51704	0.01055
2084.23127	0.01009
2082.94550	0.00978
2081.65973	0.00965
2080.37396	0.00971
2079.08819	0.00973
2077.80242	0.00938
2076.51666	0.00848
2075.23089	0.00733
2073.94512	0.00653
2072.65935	0.00663
2071.37358	0.00764
2070.08781	0.00896
2068.80204	0.00979
2067.51627	0.00972
2066.23050	0.00901
2064.94474	0.00828
2063.65897	0.00796
2062.37320	0.00811
2061.08743	0.00844
2059.80166	0.00863
2058.51589	0.00856
2057.23012	0.00846
2055.94435	0.00865
2054.65859	0.00925
2053.37282	0.00990
2052.08705	0.01002
2050.80128	0.00937
2049.51551	0.00813
2048.22974	0.00671
2046.94397	0.00528
2045.65820	0.00389
2044.37243	0.00278
2043.08667	0.00235
2041.80090	0.00271
2040.51513	0.00348
2039.22936	0.00396
2037.94359	0.00362
2036.65782	0.00257
2035.37205	0.00144
2034.08628	0.00084
2032.80052	0.00086
2031.51475	0.00118
2030.22898	0.00151
2028.94321	0.00195
2027.65744	0.00263
2026.37167	0.00348
2025.08590	0.00412
2023.80013	0.00426
2022.51436	0.00394
2021.22860	0.00348
2019.94283	0.00308
2018.65706	0.00254
2017.37129	0.00149
2016.08552	0.00002
2014.79975	-0.00112
2013.51398	-0.00096
2012.22821	0.00063
2010.94245	0.00267
2009.65668	0.00395
2008.37091	0.00416
2007.08514	0.00400
2005.79937	0.00421
2004.51360	0.00482
2003.22783	0.00545
2001.94206	0.00591
2000.65629	0.00634
1999.37053	0.00697
1998.08476	0.00789
1996.79899	0.00896
1995.51322	0.00985
1994.22745	0.01022
1992.94168	0.00992
1991.65591	0.00904
1990.37014	0.00778
1989.08438	0.00644
1987.79861	0.00542
1986.51284	0.00500
1985.22707	0.00505
1983.94130	0.00509
1982.65553	0.00472
1981.36976	0.00405
1980.08399	0.00356
1978.79822	0.00353
1977.51246	0.00368
1976.22669	0.00355
1974.94092	0.00312
1973.65515	0.00278
1972.36938	0.00285
1971.08361	0.00323
1969.79784	0.00363
1968.51207	0.00388
1967.22631	0.00406
1965.94054	0.00434
1964.65477	0.00480
1963.36900	0.00540
1962.08323	0.00604
1960.79746	0.00660
1959.51169	0.00708
1958.22592	0.00746
1956.94015	0.00765
1955.65439	0.00751
1954.36862	0.00707
1953.08285	0.00655
1951.79708	0.00632
1950.51131	0.00662
1949.22554	0.00731
1947.93977	0.00795
1946.65400	0.00819
1945.36823	0.00811
1944.08247	0.00808
1942.79670	0.00833
1941.51093	0.00864
1940.22516	0.00868
1938.93939	0.00844
1937.65362	0.00816
1936.36785	0.00802
1935.08208	0.00796
1933.79632	0.00802
1932.51055	0.00837
1931.22478	0.00905
1929.93901	0.00977
1928.65324	0.01022
1927.36747	0.01028
1926.08170	0.01015
1924.79593	0.01006
1923.51016	0.01010
1922.22440	0.01023
1920.93863	0.01032
1919.65286	0.01033
1918.36709	0.01035
1917.08132	0.01048
1915.79555	0.01069
1914.50978	0.01084
1913.22401	0.01085
1911.93825	0.01077
1910.65248	0.01064
1909.36671	0.01049
1908.08094	0.01028
1906.79517	0.01005
1905.50940	0.00988
1904.22363	0.00984
1902.93786	0.00991
1901.65209	0.00998
1900.36633	0.01001
1899.08056	0.01005
1897.79479	0.01017
1896.50902	0.01034
1895.22325	0.01045
1893.93748	0.01037
1892.65171	0.01010
1891.36594	0.00978
1890.08018	0.00960
1888.79441	0.00968
1887.50864	0.00998
1886.22287	0.01038
1884.93710	0.01074
1883.65133	0.01099
1882.36556	0.01107
1881.07979	0.01101
1879.79402	0.01092
1878.50826	0.01090
1877.22249	0.01097
1875.93672	0.01104
1874.65095	0.01100
1873.36518	0.01087
1872.07941	0.01074
1870.79364	0.01071
1869.50787	0.01081
1868.22211	0.01090
1866.93634	0.01086
1865.65057	0.01066
1864.36480	0.01043
1863.07903	0.01029
1861.79326	0.01028
1860.50749	0.01035
1859.22172	0.01045
1857.93595	0.01054
1856.65019	0.01063
1855.36442	0.01075
1854.07865	0.01088
1852.79288	0.01098
1851.50711	0.01098
1850.22134	0.01090
1848.93557	0.01080
1847.64980	0.01074
1846.36404	0.01071
1845.07827	0.01072
1843.79250	0.01077
1842.50673	0.01086
1841.22096	0.01090
1839.93519	0.01086
1838.64942	0.01077
1837.36365	0.01072
1836.07788	0.01075
1834.79212	0.01085
1833.50635	0.01093
1832.22058	0.01090
1830.93481	0.01074
1829.64904	0.01054
1828.36327	0.01045
1827.07750	0.01046
1825.79173	0.01047
1824.50597	0.01044
1823.22020	0.01043
1821.93443	0.01049
1820.64866	0.01063
1819.36289	0.01076
1818.07712	0.01087
1816.79135	0.01103
1815.50558	0.01125
1814.21981	0.01149
1812.93405	0.01169
1811.64828	0.01187
1810.36251	0.01207
1809.07674	0.01224
1807.79097	0.01230
1806.50520	0.01223
1805.21943	0.01212
1803.93366	0.01211
1802.64790	0.01218
1801.36213	0.01225
1800.07636	0.01223
1798.79059	0.01214
1797.50482	0.01202
1796.21905	0.01189
1794.93328	0.01175
1793.64751	0.01163
1792.36174	0.01161
1791.07598	0.01168
1789.79021	0.01176
1788.50444	0.01175
1787.21867	0.01170
1785.93290	0.01172
1784.64713	0.01186
1783.36136	0.01206
1782.07559	0.01223
1780.78983	0.01230
1779.50406	0.01228
1778.21829	0.01219
1776.93252	0.01211
1775.64675	0.01208
1774.36098	0.01214
1773.07521	0.01226
1771.78944	0.01243
1770.50367	0.01259
1769.21791	0.01275
1767.93214	0.01292
1766.64637	0.01310
1765.36060	0.01320
1764.07483	0.01317
1762.78906	0.01307
1761.50329	0.01303
1760.21752	0.01308
1758.93176	0.01313
1757.64599	0.01309
1756.36022	0.01297
1755.07445	0.01282
1753.78868	0.01268
1752.50291	0.01258
1751.21714	0.01260
1749.93137	0.01276
1748.64560	0.01299
1747.35984	0.01320
1746.07407	0.01333
1744.78830	0.01334
1743.50253	0.01327
1742.21676	0.01319
1740.93099	0.01317
1739.64522	0.01325
1738.35945	0.01339
1737.07369	0.01343
1735.78792	0.01332
1734.50215	0.01320
1733.21638	0.01325
1731.93061	0.01347
1730.64484	0.01367
1729.35907	0.01377
1728.07330	0.01385
1726.78753	0.01399
1725.50177	0.01422
1724.21600	0.01450
1722.93023	0.01478
1721.64446	0.01498
1720.35869	0.01505
1719.07292	0.01504
1717.78715	0.01513
1716.50138	0.01543
1715.21561	0.01585
1713.92985	0.01626
1712.64408	0.01656
1711.35831	0.01678
1710.07254	0.01697
1708.78677	0.01716
1707.50100	0.01739
1706.21523	0.01769
1704.92946	0.01811
1703.64370	0.01862
1702.35793	0.01912
1701.07216	0.01965
1699.78639	0.02032
1698.50062	0.02104
1697.21485	0.02165
1695.92908	0.02217
1694.64331	0.02279
1693.35754	0.02346
1692.07178	0.02404
1690.78601	0.02455
1689.50024	0.02505
1688.21447	0.02555
1686.92870	0.02596
1685.64293	0.02634
1684.35716	0.02688
1683.07139	0.02764
1681.78563	0.02845
1680.49986	0.02914
1679.21409	0.02975
1677.92832	0.03031
1676.64255	0.03088
1675.35678	0.03149
1674.07101	0.03213
1672.78524	0.03274
1671.49947	0.03324
1670.21371	0.03369
1668.92794	0.03419
1667.64217	0.03474
1666.35640	0.03527
1665.07063	0.03571
1663.78486	0.03608
1662.49909	0.03646
1661.21332	0.03686
1659.92756	0.03724
1658.64179	0.03759
1657.35602	0.03791
1656.07025	0.03812
1654.78448	0.03816
1653.49871	0.03820
1652.21294	0.03842
1650.92717	0.03881
1649.64140	0.03913
1648.35564	0.03927
1647.06987	0.03936
1645.78410	0.03949
1644.49833	0.03962
1643.21256	0.03966
1641.92679	0.03959
1640.64102	0.03948
1639.35525	0.03934
1638.06949	0.03909
1636.78372	0.03874
1635.49795	0.03839
1634.21218	0.03817
1632.92641	0.03802
1631.64064	0.03784
1630.35487	0.03756
1629.06910	0.03723
1627.78333	0.03688
1626.49757	0.03653
1625.21180	0.03614
1623.92603	0.03575
1622.64026	0.03543
1621.35449	0.03519
1620.06872	0.03496
1618.78295	0.03466
1617.49718	0.03432
1616.21142	0.03405
1614.92565	0.03387
1613.63988	0.03369
1612.35411	0.03345
1611.06834	0.03317
1609.78257	0.03292
1608.49680	0.03274
1607.21103	0.03264
1605.92526	0.03257
1604.63950	0.03248
1603.35373	0.03239
1602.06796	0.03239
1600.78219	0.03249
1599.49642	0.03264
1598.21065	0.03275
1596.92488	0.03279
1595.63911	0.03280
1594.35335	0.03281
1593.06758	0.03285
1591.78181	0.03292
1590.49604	0.03304
1589.21027	0.03321
1587.92450	0.03341
1586.63873	0.03363
1585.35296	0.03388
1584.06719	0.03412
1582.78143	0.03434
1581.49566	0.03456
1580.20989	0.03479
1578.92412	0.03502
1577.63835	0.03523
1576.35258	0.03549
1575.06681	0.03585
1573.78104	0.03624
1572.49528	0.03653
1571.20951	0.03674
1569.92374	0.03699
1568.63797	0.03733
1567.35220	0.03770
1566.06643	0.03802
1564.78066	0.03829
1563.49489	0.03852
1562.20912	0.03867
1560.92336	0.03876
1559.63759	0.03894
1558.35182	0.03932
1557.06605	0.03981
1555.78028	0.04022
1554.49451	0.04050
1553.20874	0.04075
1551.92297	0.04100
1550.63721	0.04122
1549.35144	0.04141
1548.06567	0.04157
1546.77990	0.04165
1545.49413	0.04169
1544.20836	0.04171
1542.92259	0.04172
1541.63682	0.04169
1540.35105	0.04169
1539.06529	0.04183
1537.77952	0.04210
1536.49375	0.04236
1535.20798	0.04255
1533.92221	0.04277
1532.63644	0.04311
1531.35067	0.04351
1530.06490	0.04386
1528.77914	0.04416
1527.49337	0.04448
1526.20760	0.04487
1524.92183	0.04536
1523.63606	0.04587
1522.35029	0.04642
1521.06452	0.04706
1519.77875	0.04785
1518.49298	0.04869
1517.20722	0.04952
1515.92145	0.05035
1514.63568	0.05121
1513.34991	0.05207
1512.06414	0.05298
1510.77837	0.05394
1509.49260	0.05489
1508.20683	0.05576
1506.92107	0.05660
1505.63530	0.05753
1504.34953	0.05853
1503.06376	0.05945
1501.77799	0.06022
1500.49222	0.06087
1499.20645	0.06148
1497.92068	0.06208
1496.63491	0.06269
1495.34915	0.06332
1494.06338	0.06393
1492.77761	0.06452
1491.49184	0.06511
1490.20607	0.06576
1488.92030	0.06652
1487.63453	0.06736
1486.34876	0.06826
1485.06299	0.06921
1483.77723	0.07017
1482.49146	0.07114
1481.20569	0.07211
1479.91992	0.07308
1478.63415	0.07402
1477.34838	0.07494
1476.06261	0.07582
1474.77684	0.07659
1473.49108	0.07725
1472.20531	0.07787
1470.91954	0.07846
1469.63377	0.07898
1468.34800	0.07936
1467.06223	0.07961
1465.77646	0.07979
1464.49069	0.07994
1463.20492	0.08012
1461.91916	0.08030
1460.63339	0.08049
1459.34762	0.08070
1458.06185	0.08097
1456.77608	0.08141
1455.49031	0.08200
1454.20454	0.08265
1452.91877	0.08326
1451.63301	0.08379
1450.34724	0.08423
1449.06147	0.08455
1447.77570	0.08474
1446.48993	0.08480
1445.20416	0.08476
1443.91839	0.08461
1442.63262	0.08441
1441.34685	0.08419
1440.06109	0.08400
1438.77532	0.08385
1437.48955	0.08377
1436.20378	0.08380
1434.91801	0.08394
1433.63224	0.08420
1432.34647	0.08464
1431.06070	0.08534
1429.77494	0.08627
1428.48917	0.08735
1427.20340	0.08847
1425.91763	0.08960
1424.63186	0.09076
1423.34609	0.09194
1422.06032	0.09307
1420.77455	0.09407
1419.48878	0.09498
1418.20302	0.09585
1416.91725	0.09666
1415.63148	0.09731
1414.34571	0.09774
1413.05994	0.09796
1411.77417	0.09801
1410.48840	0.09793
1409.20263	0.09773
1407.91687	0.09738
1406.63110	0.09684
1405.34533	0.09609
1404.05956	0.09513
1402.77379	0.09397
1401.48802	0.09265
1400.20225	0.09124
1398.91648	0.08982
1397.63071	0.08839
1396.34495	0.08689
1395.05918	0.08529
1393.77341	0.08363
1392.48764	0.08195
1391.20187	0.08025
1389.91610	0.07851
1388.63033	0.07676
1387.34456	0.07501
1386.05880	0.07327
1384.77303	0.07152
1383.48726	0.06977
1382.20149	0.06803
1380.91572	0.06633
1379.62995	0.06463
1378.34418	0.06292
1377.05841	0.06115
1375.77264	0.05931
1374.48688	0.05742
1373.20111	0.05559
1371.91534	0.05386
1370.62957	0.05220
1369.34380	0.05057
1368.05803	0.04896
1366.77226	0.04743
1365.48649	0.04600
1364.20073	0.04468
1362.91496	0.04348
1361.62919	0.04236
1360.34342	0.04130
1359.05765	0.04026
1357.77188	0.03925
1356.48611	0.03830
1355.20034	0.03745
1353.91457	0.03668
1352.62881	0.03599
1351.34304	0.03533
1350.05727	0.03468
1348.77150	0.03405
1347.48573	0.03347
1346.19996	0.03293
1344.91419	0.03242
1343.62842	0.03191
1342.34266	0.03140
1341.05689	0.03089
1339.77112	0.03043
1338.48535	0.03004
1337.19958	0.02971
1335.91381	0.02940
1334.62804	0.02910
1333.34227	0.02880
1332.05650	0.02852
1330.77074	0.02823
1329.48497	0.02794
1328.19920	0.02761
1326.91343	0.02726
1325.62766	0.02693
1324.34189	0.02663
1323.05612	0.02638
1321.77035	0.02616
1320.48459	0.02592
1319.19882	0.02565
1317.91305	0.02537
1316.62728	0.02510
1315.34151	0.02486
1314.05574	0.02464
1312.76997	0.02442
1311.48420	0.02418
1310.19843	0.02394
1308.91267	0.02371
1307.62690	0.02350
1306.34113	0.02330
1305.05536	0.02311
1303.76959	0.02292
1302.48382	0.02275
1301.19805	0.02260
1299.91228	0.02247
1298.62652	0.02236
1297.34075	0.02223
1296.05498	0.02207
1294.76921	0.02186
1293.48344	0.02165
1292.19767	0.02149
1290.91190	0.02142
1289.62613	0.02142
1288.34036	0.02142
1287.05460	0.02138
1285.76883	0.02126
1284.48306	0.02111
1283.19729	0.02097
1281.91152	0.02086
1280.62575	0.02076
1279.33998	0.02064
1278.05421	0.02049
1276.76845	0.02032
1275.48268	0.02019
1274.19691	0.02011
1272.91114	0.02003
1271.62537	0.01994
1270.33960	0.01983
1269.05383	0.01969
1267.76806	0.01957
1266.48229	0.01949
1265.19653	0.01949
1263.91076	0.01951
1262.62499	0.01949
1261.33922	0.01941
1260.05345	0.01928
1258.76768	0.01918
1257.48191	0.01913
1256.19614	0.01913
1254.91037	0.01910
1253.62461	0.01902
1252.33884	0.01891
1251.05307	0.01882
1249.76730	0.01879
1248.48153	0.01881
1247.19576	0.01884
1245.90999	0.01882
1244.62422	0.01874
1243.33846	0.01861
1242.05269	0.01848
1240.76692	0.01838
1239.48115	0.01829
1238.19538	0.01820
1236.90961	0.01810
1235.62384	0.01799
1234.33807	0.01790
1233.05230	0.01780
1231.76654	0.01768
1230.48077	0.01752
1229.19500	0.01734
1227.90923	0.01717
1226.62346	0.01705
1225.33769	0.01696
1224.05192	0.01689
1222.76615	0.01681
1221.48039	0.01672
1220.19462	0.01658
1218.90885	0.01638
1217.62308	0.01614
1216.33731	0.01589
1215.05154	0.01572
1213.76577	0.01564
1212.48000	0.01561
1211.19423	0.01561
1209.90847	0.01562
1208.62270	0.01562
1207.33693	0.01559
1206.05116	0.01554
1204.76539	0.01551
1203.47962	0.01551
1202.19385	0.01552
1200.90808	0.01553
1199.62232	0.01554
1198.33655	0.01543
1197.05078	0.01536
1195.76501	0.01532
1194.47924	0.01525
1193.19347	0.01513
1191.90770	0.01501
1190.62193	0.01492
1189.33616	0.01487
1188.05040	0.01481
1186.76463	0.01473
1185.47886	0.01466
1184.19309	0.01461
1182.90732	0.01458
1181.62155	0.01453
1180.33578	0.01447
1179.05001	0.01443
1177.76425	0.01441
1176.47848	0.01444
1175.19271	0.01449
1173.90694	0.01458
1172.62117	0.01467
1171.33540	0.01473
1170.04963	0.01477
1168.76386	0.01482
1167.47809	0.01494
1166.19233	0.01512
1164.90656	0.01532
1163.62079	0.01549
1162.33502	0.01561
1161.04925	0.01565
1159.76348	0.01567
1158.47771	0.01576
1157.19194	0.01596
1155.90618	0.01623
1154.62041	0.01651
1153.33464	0.01677
1152.04887	0.01706
1150.76310	0.01740
1149.47733	0.01776
1148.19156	0.01809
1146.90579	0.01837
1145.62002	0.01869
1144.33426	0.01910
1143.04849	0.01963
1141.76272	0.02024
1140.47695	0.02090
1139.19118	0.02164
1137.90541	0.02249
1136.61964	0.02349
1135.33387	0.02462
1134.04811	0.02584
1132.76234	0.02714
1131.47657	0.02853
1130.19080	0.03006
1128.90503	0.03179
1127.61926	0.03374
1126.33349	0.03587
1125.04772	0.03813
1123.76195	0.04050
1122.47619	0.04297
1121.19042	0.04550
1119.90465	0.04806
1118.61888	0.05067
1117.33311	0.05334
1116.04734	0.05606
1114.76157	0.05875
1113.47580	0.06134
1112.19004	0.06383
1110.90427	0.06628
1109.61850	0.06874
1108.33273	0.07120
1107.04696	0.07358
1105.76119	0.07581
1104.47542	0.07795
1103.18965	0.08007
1101.90388	0.08226
1100.61812	0.08451
1099.33235	0.08673
1098.04658	0.08880
1096.76081	0.09072
1095.47504	0.09253
1094.18927	0.09428
1092.90350	0.09597
1091.61773	0.09757
1090.33197	0.09907
1089.04620	0.10049
1087.76043	0.10189
1086.47466	0.10327
1085.18889	0.10467
1083.90312	0.10616
1082.61735	0.10781
1081.33158	0.10964
1080.04581	0.11158
1078.76005	0.11357
1077.47428	0.11558
1076.18851	0.11761
1074.90274	0.11966
1073.61697	0.12177
1072.33120	0.12400
1071.04543	0.12635
1069.75966	0.12875
1068.47390	0.13113
1067.18813	0.13355
1065.90236	0.13606
1064.61659	0.13871
1063.33082	0.14146
1062.04505	0.14423
1060.75928	0.14693
1059.47351	0.14951
1058.18774	0.15196
1056.90198	0.15431
1055.61621	0.15663
1054.33044	0.15892
1053.04467	0.16116
1051.75890	0.16335
1050.47313	0.16557
1049.18736	0.16784
1047.90159	0.17018
1046.61583	0.17256
1045.33006	0.17498
1044.04429	0.17742
1042.75852	0.17987
1041.47275	0.18234
1040.18698	0.18488
1038.90121	0.18749
1037.61544	0.19015
1036.32967	0.19278
1035.04391	0.19529
1033.75814	0.19761
1032.47237	0.19975
1031.18660	0.20173
1029.90083	0.20358
1028.61506	0.20530
1027.32929	0.20685
1026.04352	0.20821
1024.75775	0.20935
1023.47199	0.21023
1022.18622	0.21082
1020.90045	0.21111
1019.61468	0.21111
1018.32891	0.21083
1017.04314	0.21025
1015.75737	0.20933
1014.47160	0.20804
1013.18584	0.20641
1011.90007	0.20447
1010.61430	0.20220
1009.32853	0.19958
1008.04276	0.19662
1006.75699	0.19333
1005.47122	0.18971
1004.18545	0.18573
1002.89968	0.18141
1001.61392	0.17682
1000.32815	0.17204
999.04238	0.16714
997.75661	0.16218
996.47084	0.15720
995.18507	0.15222
993.89930	0.14720
992.61353	0.14213
991.32777	0.13707
990.04200	0.13211
988.75623	0.12732
987.47046	0.12270
986.18469	0.11823
984.89892	0.11392
983.61315	0.10984
982.32738	0.10604
981.04161	0.10246
979.75585	0.09906
978.47008	0.09583
977.18431	0.09281
975.89854	0.09006
974.61277	0.08764
973.32700	0.08561
972.04123	0.08403
970.75546	0.08292
969.46970	0.08230
968.18393	0.08213
966.89816	0.08233
965.61239	0.08281
964.32662	0.08345
963.04085	0.08411
961.75508	0.08461
960.46931	0.08476
959.18354	0.08443
957.89778	0.08361
956.61201	0.08233
955.32624	0.08068
954.04047	0.07878
952.75470	0.07678
951.46893	0.07483
950.18316	0.07299
948.89739	0.07124
947.61163	0.06949
946.32586	0.06770
945.04009	0.06586
943.75432	0.06400
942.46855	0.06220
941.18278	0.06048
939.89701	0.05882
938.61124	0.05726
937.32547	0.05585
936.03971	0.05463
934.75394	0.05358
933.46817	0.05259
932.18240	0.05157
930.89663	0.05054
929.61086	0.04954
928.32509	0.04862
927.03932	0.04777
925.75356	0.04697
924.46779	0.04624
923.18202	0.04556
921.89625	0.04498
920.61048	0.04447
919.32471	0.04398
918.03894	0.04341
916.75317	0.04271
915.46740	0.04198
914.18164	0.04137
912.89587	0.04093
911.61010	0.04057
910.32433	0.04019
909.03856	0.03980
907.75279	0.03941
906.46702	0.03900
905.18125	0.03853
903.89549	0.03804
902.60972	0.03759
901.32395	0.03719
900.03818	0.03682
898.75241	0.03649
897.46664	0.03625
896.18087	0.03612
894.89510	0.03604
893.60933	0.03597
892.32357	0.03591
891.03780	0.03593
889.75203	0.03611
888.46626	0.03651
887.18049	0.03720
885.89472	0.03830
884.60895	0.03994
883.32318	0.04218
882.03742	0.04490
880.75165	0.04769
879.46588	0.05010
878.18011	0.05192
876.89434	0.05331
875.60857	0.05467
874.32280	0.05618
873.03703	0.05761
871.75126	0.05852
870.46550	0.05855
869.17973	0.05762
867.89396	0.05594
866.60819	0.05376
865.32242	0.05133
864.03665	0.04888
862.75088	0.04657
861.46511	0.04448
860.17935	0.04266
858.89358	0.04111
857.60781	0.03982
856.32204	0.03875
855.03627	0.03788
853.75050	0.03718
852.46473	0.03662
851.17896	0.03615
849.89319	0.03570
848.60743	0.03523
847.32166	0.03472
846.03589	0.03421
844.75012	0.03378
843.46435	0.03347
842.17858	0.03325
840.89281	0.03305
839.60704	0.03278
838.32128	0.03242
837.03551	0.03203
835.74974	0.03166
834.46397	0.03134
833.17820	0.03109
831.89243	0.03089
830.60666	0.03074
829.32089	0.03065
828.03512	0.03061
826.74936	0.03060
825.46359	0.03053
824.17782	0.03034
822.89205	0.03008
821.60628	0.02986
820.32051	0.02974
819.03474	0.02967
817.74897	0.02955
816.46321	0.02932
815.17744	0.02904
813.89167	0.02879
812.60590	0.02863
811.32013	0.02856
810.03436	0.02857
808.74859	0.02860
807.46282	0.02860
806.17705	0.02854
804.89129	0.02848
803.60552	0.02843
802.31975	0.02840
801.03398	0.02833
799.74821	0.02822
798.46244	0.02811
797.17667	0.02803
795.89090	0.02800
794.60513	0.02798
793.31937	0.02795
792.03360	0.02791
790.74783	0.02787
789.46206	0.02787
788.17629	0.02794
786.89052	0.02807
785.60475	0.02818
784.31898	0.02815
783.03322	0.02798
781.74745	0.02779
780.46168	0.02767
779.17591	0.02765
777.89014	0.02764
776.60437	0.02760
775.31860	0.02752
774.03283	0.02742
772.74706	0.02730
771.46130	0.02715
770.17553	0.02699
768.88976	0.02686
767.60399	0.02680
766.31822	0.02681
765.03245	0.02687
763.74668	0.02696
762.46091	0.02705
761.17515	0.02716
759.88938	0.02729
758.60361	0.02744
757.31784	0.02760
756.03207	0.02769
754.74630	0.02768
753.46053	0.02760
752.17476	0.02746
750.88899	0.02733
749.60323	0.02724
748.31746	0.02721
747.03169	0.02718
745.74592	0.02705
744.46015	0.02683
743.17438	0.02661
741.88861	0.02648
740.60284	0.02646
739.31708	0.02656
738.03131	0.02668
736.74554	0.02672
735.45977	0.02669
734.17400	0.02670
732.88823	0.02686
731.60246	0.02709
730.31669	0.02725
729.03092	0.02730
727.74516	0.02730
726.45939	0.02728
725.17362	0.02723
723.88785	0.02708
722.60208	0.02706
721.31631	0.02713
720.03054	0.02721
718.74477	0.02727
717.45901	0.02732
716.17324	0.02739
714.88747	0.02747
713.60170	0.02751
712.31593	0.02746
711.03016	0.02733
709.74439	0.02718
708.45862	0.02705
707.17285	0.02697
705.88709	0.02693
704.60132	0.02693
703.31555	0.02695
702.02978	0.02700
700.74401	0.02705
699.45824	0.02710
698.17247	0.02712
696.88670	0.02711
695.60094	0.02706
694.31517	0.02701
693.02940	0.02701
691.74363	0.02706
690.45786	0.02714
689.17209	0.02717
687.88632	0.02712
686.60055	0.02704
685.31478	0.02696
684.02902	0.02689
682.74325	0.02681
681.45748	0.02671
680.17171	0.02659
678.88594	0.02645
677.60017	0.02634
676.31440	0.02627
675.02863	0.02625
673.74287	0.02630
672.45710	0.02643
671.17133	0.02661
669.88556	0.02680
668.59979	0.02687
667.31402	0.02691
666.02825	0.02692
664.74248	0.02672
663.45671	0.02644
662.17095	0.02618
660.88518	0.02596
659.59941	0.02582
658.31364	0.02576
657.02787	0.02576
655.74210	0.02575
654.45633	0.02568
653.17056	0.02553
651.88480	0.02538
650.59903	0.02529
649.31326	0.02526
648.02749	0.02525
646.74172	0.02524
645.45595	0.02522
644.17018	0.02523
642.88441	0.02532
641.59864	0.02546
640.31288	0.02567
639.02711	0.02589
637.74134	0.02610
636.45557	0.02628
635.16980	0.02647
633.88403	0.02668
632.59826	0.02695
631.31249	0.02724
630.02673	0.02716
628.74096	0.02691
627.45519	0.02801
626.16942	0.02749
624.88365	0.02581
623.59788	0.02440
622.31211	0.02422
621.02634	0.02580
619.74057	0.02907
618.45481	0.03348
617.16904	0.03822
615.88327	0.04254
614.59750	0.04611
613.31173	0.04936
612.02596	0.05298
610.74019	0.05708
609.45442	0.06099
608.16866	0.06410
606.88289	0.06657
605.59712	0.06895
604.31135	0.07148
603.02558	0.07394
601.73981	0.07586
600.45404	0.07681
599.16827	0.07667
597.88250	0.07556
596.59674	0.07375
595.31097	0.07159
594.02520	0.06943
592.73943	0.06758
591.45366	0.06626
590.16789	0.06559
588.88212	0.06553
587.59635	0.06595
586.31059	0.06673
585.02482	0.06782
583.73905	0.06924
582.45328	0.07094
581.16751	0.07284
579.88174	0.07481
578.59597	0.07680
577.31020	0.07882
576.02443	0.08088
574.73867	0.08290
573.45290	0.08481
572.16713	0.08662
570.88136	0.08851
569.59559	0.09071
568.30982	0.09326
567.02405	0.09602
565.73828	0.09877
564.45251	0.10130
563.16675	0.10329
561.88098	0.10440
560.59521	0.10433
559.30944	0.10300
558.02367	0.10048
556.73790	0.09697
555.45213	0.09276
554.16636	0.08822
552.88060	0.08369
551.59483	0.07933
550.30906	0.07520
549.02329	0.07132
547.73752	0.06777
546.45175	0.06455
545.16598	0.06162
543.88021	0.05896
542.59444	0.05662
541.30868	0.05461
540.02291	0.05282
538.73714	0.05111
537.45137	0.04947
536.16560	0.04796
534.87983	0.04660
533.59406	0.04532
532.30829	0.04411
531.02253	0.04300
529.73676	0.04207
528.45099	0.04129
527.16522	0.04055
525.87945	0.03975
524.59368	0.03889
523.30791	0.03801
522.02214	0.03719
520.73637	0.03642
519.45061	0.03570
518.16484	0.03497
516.87907	0.03424
515.59330	0.03351
514.30753	0.03283
513.02176	0.03225
511.73599	0.03185
510.45022	0.03159
509.16446	0.03136
507.87869	0.03098
506.59292	0.03039
505.30715	0.02969
504.02138	0.02906
502.73561	0.02864
501.44984	0.02840
500.16407	0.02821
498.87830	0.02795
497.59254	0.02760
496.30677	0.02723
495.02100	0.02689
493.73523	0.02659
492.44946	0.02635
491.16369	0.02617
489.87792	0.02606
488.59215	0.02597
487.30639	0.02586
486.02062	0.02570
484.73485	0.02551
483.44908	0.02537
482.16331	0.02533
480.87754	0.02539
479.59177	0.02553
478.30600	0.02571
477.02023	0.02589
475.73447	0.02606
474.44870	0.02624
473.16293	0.02646
471.87716	0.02669
470.59139	0.02687
469.30562	0.02693
468.01985	0.02685
466.73408	0.02663
465.44832	0.02632
464.16255	0.02597
462.87678	0.02559
461.59101	0.02519
460.30524	0.02477
459.01947	0.02435
457.73370	0.02397
456.44793	0.02365
455.16216	0.02336
453.87640	0.02306
452.59063	0.02278
451.30486	0.02257
450.01909	0.02243
448.73332	0.02232
447.44755	0.02221
446.16178	0.02207
444.87601	0.02189
443.59025	0.02171
442.30448	0.02155
441.01871	0.02139
439.73294	0.02124
438.44717	0.02110
437.16140	0.02099
435.87563	0.02093
434.58986	0.02088
433.30409	0.02080
432.01833	0.02072
430.73256	0.02065
429.44679	0.02061
428.16102	0.02055
426.87525	0.02043
425.58948	0.02026
424.30371	0.02008
423.01794	0.01993
421.73218	0.01978
420.44641	0.01961
419.16064	0.01945
417.87487	0.01931
416.58910	0.01918
415.30333	0.01903
414.01756	0.01889
412.73179	0.01881
411.44602	0.01881
410.16026	0.01883
408.87449	0.01884
407.58872	0.01885
406.30295	0.01887
405.01718	0.01894
403.73141	0.01906
402.44564	0.01920
401.15987	0.01933
399.87411	0.01944
