3997.45528	0.04644
3996.16951	0.04669
3994.88374	0.04740
3993.59798	0.04820
3992.31221	0.04848
3991.02644	0.04792
3989.74067	0.04678
3988.45490	0.04555
3987.16913	0.04456
3985.88336	0.04390
3984.59759	0.04361
3983.31183	0.04381
3982.02606	0.04453
3980.74029	0.04557
3979.45452	0.04658
3978.16875	0.04724
3976.88298	0.04737
3975.59721	0.04703
3974.31144	0.04652
3973.02567	0.04617
3971.73991	0.04609
3970.45414	0.04611
3969.16837	0.04603
3967.88260	0.04591
3966.59683	0.04611
3965.31106	0.04694
3964.02529	0.04823
3962.73952	0.04937
3961.45376	0.04978
3960.16799	0.04930
3958.88222	0.04829
3957.59645	0.04724
3956.31068	0.04651
3955.02491	0.04612
3953.73914	0.04588
3952.45337	0.04556
3951.16760	0.04519
3949.88184	0.04502
3948.59607	0.04520
3947.31030	0.04550
3946.02453	0.04550
3944.73876	0.04499
3943.45299	0.04422
3942.16722	0.04359
3940.88145	0.04330
3939.59569	0.04315
3938.30992	0.04284
3937.02415	0.04230
3935.73838	0.04180
3934.45261	0.04170
3933.16684	0.04215
3931.88107	0.04295
3930.59530	0.04375
3929.30953	0.04430
3928.02377	0.04448
3926.73800	0.04423
3925.45223	0.04368
3924.16646	0.04318
3922.88069	0.04304
3921.59492	0.04322
3920.30915	0.04336
3919.02338	0.04314
3917.73762	0.04268
3916.45185	0.04242
3915.16608	0.04252
3913.88031	0.04264
3912.59454	0.04241
3911.30877	0.04193
3910.02300	0.04164
3908.73723	0.04185
3907.45146	0.04240
3906.16570	0.04298
3904.87993	0.04341
3903.59416	0.04372
3902.30839	0.04385
3901.02262	0.04367
3899.73685	0.04313
3898.45108	0.04247
3897.16531	0.04206
3895.87955	0.04208
3894.59378	0.04236
3893.30801	0.04254
3892.02224	0.04243
3890.73647	0.04219
3889.45070	0.04203
3888.16493	0.04192
3886.87916	0.04189
3885.59339	0.04203
3884.30763	0.04227
3883.02186	0.04229
3881.73609	0.04192
3880.45032	0.04147
3879.16455	0.04138
3877.87878	0.04168
3876.59301	0.04196
3875.30724	0.04194
3874.02148	0.04177
3872.73571	0.04170
3871.44994	0.04173
3870.16417	0.04180
3868.87840	0.04188
3867.59263	0.04179
3866.30686	0.04146
3865.02109	0.04103
3863.73532	0.04077
3862.44956	0.04072
3861.16379	0.04084
3859.87802	0.04114
3858.59225	0.04172
3857.30648	0.04253
3856.02071	0.04321
3854.73494	0.04340
3853.44917	0.04318
3852.16341	0.04295
3850.87764	0.04294
3849.59187	0.04304
3848.30610	0.04303
3847.02033	0.04272
3845.73456	0.04214
3844.44879	0.04149
3843.16302	0.04108
3841.87725	0.04103
3840.59149	0.04114
3839.30572	0.04107
3838.01995	0.04076
3836.73418	0.04040
3835.44841	0.04006
3834.16264	0.03975
3832.87687	0.03963
3831.59110	0.03988
3830.30534	0.04046
3829.01957	0.04106
3827.73380	0.04150
3826.44803	0.04193
3825.16226	0.04238
3823.87649	0.04241
3822.59072	0.04155
3821.30495	0.04009
3820.01918	0.03887
3818.73342	0.03837
3817.44765	0.03846
3816.16188	0.03886
3814.87611	0.03934
3813.59034	0.03955
3812.30457	0.03930
3811.01880	0.03875
3809.73303	0.03816
3808.44726	0.03777
3807.16150	0.03785
3805.87573	0.03841
3804.58996	0.03885
3803.30419	0.03858
3802.01842	0.03784
3800.73265	0.03756
3799.44688	0.03821
3798.16111	0.03941
3796.87535	0.04049
3795.58958	0.04098
3794.30381	0.04079
3793.01804	0.04021
3791.73227	0.03973
3790.44650	0.03960
3789.16073	0.03974
3787.87496	0.04001
3786.58919	0.04027
3785.30343	0.04032
3784.01766	0.03998
3782.73189	0.03925
3781.44612	0.03846
3780.16035	0.03811
3778.87458	0.03840
3777.58881	0.03905
3776.30304	0.03955
3775.01728	0.03962
3773.73151	0.03930
3772.44574	0.03877
3771.15997	0.03820
3769.87420	0.03778
3768.58843	0.03749
3767.30266	0.03724
3766.01689	0.03714
3764.73112	0.03755
3763.44536	0.03855
3762.15959	0.03964
3760.87382	0.04015
3759.58805	0.03985
3758.30228	0.03917
3757.01651	0.03876
3755.73074	0.03895
3754.44497	0.03948
3753.15921	0.03993
3751.87344	0.04018
3750.58767	0.04049
3749.30190	0.04119
3748.01613	0.04202
3746.73036	0.04207
3745.44459	0.04092
3744.15882	0.03939
3742.87305	0.03864
3741.58729	0.03892
3740.30152	0.03972
3739.01575	0.04028
3737.72998	0.04020
3736.44421	0.03964
3735.15844	0.03907
3733.87267	0.03873
3732.58690	0.03857
3731.30114	0.03850
3730.01537	0.03839
3728.72960	0.03811
3727.44383	0.03771
3726.15806	0.03742
3724.87229	0.03739
3723.58652	0.03761
3722.30075	0.03801
3721.01498	0.03840
3719.72922	0.03853
3718.44345	0.03833
3717.15768	0.03798
3715.87191	0.03761
3714.58614	0.03711
3713.30037	0.03643
3712.01460	0.03580
3710.72883	0.03566
3709.44307	0.03610
3708.15730	0.03673
3706.87153	0.03706
3705.58576	0.03692
3704.29999	0.03656
3703.01422	0.03629
3701.72845	0.03627
3700.44268	0.03648
3699.15691	0.03677
3697.87115	0.03694
3696.58538	0.03694
3695.29961	0.03693
3694.01384	0.03708
3692.72807	0.03732
3691.44230	0.03742
3690.15653	0.03716
3688.87076	0.03666
3687.58500	0.03627
3686.29923	0.03620
3685.01346	0.03630
3683.72769	0.03644
3682.44192	0.03667
3681.15615	0.03708
3679.87038	0.03770
3678.58461	0.03824
3677.29884	0.03838
3676.01308	0.03823
3674.72731	0.03815
3673.44154	0.03811
3672.15577	0.03778
3670.87000	0.03719
3669.58423	0.03668
3668.29846	0.03641
3667.01269	0.03628
3665.72693	0.03635
3664.44116	0.03680
3663.15539	0.03771
3661.86962	0.03882
3660.58385	0.03970
3659.29808	0.03995
3658.01231	0.03953
3656.72654	0.03883
3655.44077	0.03844
3654.15501	0.03846
3652.86924	0.03857
3651.58347	0.03839
3650.29770	0.03784
3649.01193	0.03703
3647.72616	0.03611
3646.44039	0.03518
3645.15462	0.03437
3643.86886	0.03382
3642.58309	0.03371
3641.29732	0.03414
3640.01155	0.03499
3638.72578	0.03594
3637.44001	0.03659
3636.15424	0.03669
3634.86847	0.03645
3633.58270	0.03634
3632.29694	0.03662
3631.01117	0.03713
3629.72540	0.03767
3628.43963	0.03826
3627.15386	0.03892
3625.86809	0.03961
3624.58232	0.04033
3623.29655	0.04101
3622.01079	0.04121
3620.72502	0.04047
3619.43925	0.03903
3618.15348	0.03772
3616.86771	0.03716
3615.58194	0.03735
3614.29617	0.03796
3613.01040	0.03872
3611.72463	0.03939
3610.43887	0.03969
3609.15310	0.03963
3607.86733	0.03965
3606.58156	0.04018
3605.29579	0.04106
3604.01002	0.04171
3602.72425	0.04170
3601.43848	0.04124
3600.15272	0.04078
3598.86695	0.04055
3597.58118	0.04041
3596.29541	0.04017
3595.00964	0.03982
3593.72387	0.03945
3592.43810	0.03918
3591.15233	0.03913
3589.86656	0.03936
3588.58080	0.03975
3587.29503	0.04008
3586.00926	0.04028
3584.72349	0.04046
3583.43772	0.04070
3582.15195	0.04091
3580.86618	0.04103
3579.58041	0.04114
3578.29464	0.04148
3577.00888	0.04216
3575.72311	0.04299
3574.43734	0.04363
3573.15157	0.04392
3571.86580	0.04400
3570.58003	0.04414
3569.29426	0.04454
3568.00849	0.04521
3566.72273	0.04604
3565.43696	0.04674
3564.15119	0.04696
3562.86542	0.04650
3561.57965	0.04547
3560.29388	0.04431
3559.00811	0.04356
3557.72234	0.04354
3556.43657	0.04422
3555.15081	0.04521
3553.86504	0.04595
3552.57927	0.04612
3551.29350	0.04576
3550.00773	0.04524
3548.72196	0.04497
3547.43619	0.04512
3546.15042	0.04560
3544.86466	0.04603
3543.57889	0.04612
3542.29312	0.04595
3541.00735	0.04580
3539.72158	0.04581
3538.43581	0.04577
3537.15004	0.04536
3535.86427	0.04455
3534.57850	0.04368
3533.29274	0.04320
3532.00697	0.04325
3530.72120	0.04362
3529.43543	0.04392
3528.14966	0.04401
3526.86389	0.04403
3525.57812	0.04424
3524.29235	0.04469
3523.00659	0.04522
3521.72082	0.04561
3520.43505	0.04580
3519.14928	0.04585
3517.86351	0.04589
3516.57774	0.04601
3515.29197	0.04630
3514.00620	0.04677
3512.72043	0.04724
3511.43467	0.04739
3510.14890	0.04716
3508.86313	0.04679
3507.57736	0.04664
3506.29159	0.04679
3505.00582	0.04710
3503.72005	0.04745
3502.43428	0.04779
3501.14852	0.04810
3499.86275	0.04830
3498.57698	0.04836
3497.29121	0.04828
3496.00544	0.04811
3494.71967	0.04796
3493.43390	0.04807
3492.14813	0.04868
3490.86236	0.04975
3489.57660	0.05089
3488.29083	0.05156
3487.00506	0.05143
3485.71929	0.05061
3484.43352	0.04955
3483.14775	0.04874
3481.86198	0.04839
3480.57621	0.04842
3479.29045	0.04858
3478.00468	0.04874
3476.71891	0.04888
3475.43314	0.04900
3474.14737	0.04909
3472.86160	0.04916
3471.57583	0.04924
3470.29006	0.04935
3469.00429	0.04942
3467.71853	0.04929
3466.43276	0.04881
3465.14699	0.04811
3463.86122	0.04756
3462.57545	0.04751
3461.28968	0.04799
3460.00391	0.04879
3458.71814	0.04965
3457.43238	0.05041
3456.14661	0.05087
3454.86084	0.05088
3453.57507	0.05063
3452.28930	0.05051
3451.00353	0.05072
3449.71776	0.05102
3448.43199	0.05103
3447.14622	0.05075
3445.86046	0.05047
3444.57469	0.05043
3443.28892	0.05053
3442.00315	0.05049
3440.71738	0.05019
3439.43161	0.04988
3438.14584	0.04995
3436.86007	0.05052
3435.57431	0.05138
3434.28854	0.05215
3433.00277	0.05254
3431.71700	0.05250
3430.43123	0.05216
3429.14546	0.05177
3427.85969	0.05148
3426.57392	0.05133
3425.28815	0.05125
3424.00239	0.05119
3422.71662	0.05113
3421.43085	0.05111
3420.14508	0.05121
3418.85931	0.05140
3417.57354	0.05155
3416.28777	0.05154
3415.00200	0.05141
3413.71624	0.05129
3412.43047	0.05130
3411.14470	0.05151
3409.85893	0.05194
3408.57316	0.05252
3407.28739	0.05305
3406.00162	0.05326
3404.71585	0.05296
3403.43008	0.05229
3402.14432	0.05165
3400.85855	0.05141
3399.57278	0.05167
3398.28701	0.05225
3397.00124	0.05288
3395.71547	0.05320
3394.42970	0.05300
3393.14393	0.05232
3391.85817	0.05148
3390.57240	0.05083
3389.28663	0.05060
3388.00086	0.05077
3386.71509	0.05115
3385.42932	0.05159
3384.14355	0.05199
3382.85778	0.05229
3381.57201	0.05238
3380.28625	0.05212
3379.00048	0.05156
3377.71471	0.05098
3376.42894	0.05079
3375.14317	0.05128
3373.85740	0.05232
3372.57163	0.05341
3371.28586	0.05405
3370.00010	0.05409
3368.71433	0.05377
3367.42856	0.05343
3366.14279	0.05327
3364.85702	0.05331
3363.57125	0.05342
3362.28548	0.05342
3360.99971	0.05318
3359.71394	0.05273
3358.42818	0.05225
3357.14241	0.05192
3355.85664	0.05175
3354.57087	0.05169
3353.28510	0.05166
3351.99933	0.05169
3350.71356	0.05179
3349.42779	0.05194
3348.14202	0.05206
3346.85626	0.05206
3345.57049	0.05191
3344.28472	0.05172
3342.99895	0.05162
3341.71318	0.05171
3340.42741	0.05201
3339.14164	0.05248
3337.85587	0.05300
3336.57011	0.05340
3335.28434	0.05347
3333.99857	0.05321
3332.71280	0.05283
3331.42703	0.05256
3330.14126	0.05244
3328.85549	0.05237
3327.56972	0.05221
3326.28395	0.05197
3324.99819	0.05182
3323.71242	0.05186
3322.42665	0.05202
3321.14088	0.05207
3319.85511	0.05193
3318.56934	0.05180
3317.28357	0.05191
3315.99780	0.05223
3314.71204	0.05245
3313.42627	0.05233
3312.14050	0.05188
3310.85473	0.05138
3309.56896	0.05116
3308.28319	0.05127
3306.99742	0.05152
3305.71165	0.05164
3304.42588	0.05153
3303.14012	0.05124
3301.85435	0.05091
3300.56858	0.05070
3299.28281	0.05072
3297.99704	0.05100
3296.71127	0.05138
3295.42550	0.05172
3294.13973	0.05190
3292.85397	0.05187
3291.56820	0.05168
3290.28243	0.05145
3288.99666	0.05130
3287.71089	0.05123
3286.42512	0.05113
3285.13935	0.05097
3283.85358	0.05080
3282.56781	0.05064
3281.28205	0.05046
3279.99628	0.05028
3278.71051	0.05025
3277.42474	0.05043
3276.13897	0.05063
3274.85320	0.05064
3273.56743	0.05042
3272.28166	0.05010
3270.99590	0.04974
3269.71013	0.04932
3268.42436	0.04897
3267.13859	0.04895
3265.85282	0.04937
3264.56705	0.04997
3263.28128	0.05033
3261.99551	0.05026
3260.70974	0.04998
3259.42398	0.04982
3258.13821	0.04995
3256.85244	0.05030
3255.56667	0.05067
3254.28090	0.05085
3252.99513	0.05069
3251.70936	0.05022
3250.42359	0.04961
3249.13783	0.04905
3247.85206	0.04870
3246.56629	0.04858
3245.28052	0.04868
3243.99475	0.04892
3242.70898	0.04913
3241.42321	0.04913
3240.13744	0.04892
3238.85167	0.04863
3237.56591	0.04845
3236.28014	0.04830
3234.99437	0.04803
3233.70860	0.04764
3232.42283	0.04737
3231.13706	0.04747
3229.85129	0.04794
3228.56552	0.04850
3227.27976	0.04881
3225.99399	0.04876
3224.70822	0.04851
3223.42245	0.04837
3222.13668	0.04842
3220.85091	0.04848
3219.56514	0.04832
3218.27937	0.04795
3216.99360	0.04761
3215.70784	0.04757
3214.42207	0.04779
3213.13630	0.04801
3211.85053	0.04797
3210.56476	0.04768
3209.27899	0.04735
3207.99322	0.04715
3206.70745	0.04709
3205.42169	0.04707
3204.13592	0.04699
3202.85015	0.04680
3201.56438	0.04663
3200.27861	0.04665
3198.99284	0.04689
3197.70707	0.04722
3196.42130	0.04742
3195.13553	0.04744
3193.84977	0.04730
3192.56400	0.04711
3191.27823	0.04691
3189.99246	0.04673
3188.70669	0.04653
3187.42092	0.04627
3186.13515	0.04600
3184.84938	0.04581
3183.56362	0.04576
3182.27785	0.04577
3180.99208	0.04568
3179.70631	0.04542
3178.42054	0.04506
3177.13477	0.04477
3175.84900	0.04465
3174.56323	0.04469
3173.27746	0.04482
3171.99170	0.04497
3170.70593	0.04510
3169.42016	0.04527
3168.13439	0.04554
3166.84862	0.04591
3165.56285	0.04622
3164.27708	0.04621
3162.99131	0.04582
3161.70555	0.04521
3160.41978	0.04464
3159.13401	0.04426
3157.84824	0.04409
3156.56247	0.04406
3155.27670	0.04403
3153.99093	0.04388
3152.70516	0.04370
3151.41939	0.04374
3150.13363	0.04412
3148.84786	0.04460
3147.56209	0.04478
3146.27632	0.04452
3144.99055	0.04402
3143.70478	0.04361
3142.41901	0.04339
3141.13324	0.04330
3139.84748	0.04320
3138.56171	0.04308
3137.27594	0.04296
3135.99017	0.04291
3134.70440	0.04294
3133.41863	0.04308
3132.13286	0.04333
3130.84709	0.04356
3129.56132	0.04364
3128.27556	0.04353
3126.98979	0.04331
3125.70402	0.04307
3124.41825	0.04283
3123.13248	0.04258
3121.84671	0.04237
3120.56094	0.04224
3119.27517	0.04220
3117.98940	0.04220
3116.70364	0.04223
3115.41787	0.04225
3114.13210	0.04219
3112.84633	0.04200
3111.56056	0.04179
3110.27479	0.04175
3108.98902	0.04197
3107.70325	0.04227
3106.41749	0.04240
3105.13172	0.04220
3103.84595	0.04178
3102.56018	0.04138
3101.27441	0.04117
3099.98864	0.04121
3098.70287	0.04133
3097.41710	0.04137
3096.13133	0.04126
3094.84557	0.04110
3093.55980	0.04107
3092.27403	0.04122
3090.98826	0.04139
3089.70249	0.04136
3088.41672	0.04104
3087.13095	0.04068
3085.84518	0.04065
3084.55942	0.04102
3083.27365	0.04145
3081.98788	0.04155
3080.70211	0.04131
3079.41634	0.04108
3078.13057	0.04111
3076.84480	0.04128
3075.55903	0.04136
3074.27326	0.04124
3072.98750	0.04102
3071.70173	0.04083
3070.41596	0.04069
3069.13019	0.04056
3067.84442	0.04041
3066.55865	0.04025
3065.27288	0.04008
3063.98711	0.03993
3062.70135	0.03973
3061.41558	0.03944
3060.12981	0.03907
3058.84404	0.03871
3057.55827	0.03854
3056.27250	0.03871
3054.98673	0.03918
3053.70096	0.03976
3052.41519	0.04026
3051.12943	0.04059
3049.84366	0.04078
3048.55789	0.04079
3047.27212	0.04053
3045.98635	0.03995
3044.70058	0.03919
3043.41481	0.03855
3042.12904	0.03827
3040.84328	0.03838
3039.55751	0.03871
3038.27174	0.03903
3036.98597	0.03923
3035.70020	0.03929
3034.41443	0.03920
3033.12866	0.03896
3031.84289	0.03856
3030.55712	0.03806
3029.27136	0.03758
3027.98559	0.03730
3026.69982	0.03729
3025.41405	0.03751
3024.12828	0.03783
3022.84251	0.03812
3021.55674	0.03822
3020.27097	0.03802
3018.98521	0.03758
3017.69944	0.03712
3016.41367	0.03688
3015.12790	0.03692
3013.84213	0.03712
3012.55636	0.03727
3011.27059	0.03729
3009.98482	0.03719
3008.69905	0.03704
3007.41329	0.03696
3006.12752	0.03693
3004.84175	0.03689
3003.55598	0.03683
3002.27021	0.03686
3000.98444	0.03710
2999.69867	0.03753
2998.41290	0.03807
2997.12714	0.03841
2995.84137	0.03848
2994.55560	0.03838
2993.26983	0.03821
2991.98406	0.03799
2990.69829	0.03774
2989.41252	0.03754
2988.12675	0.03746
2986.84098	0.03745
2985.55522	0.03742
2984.26945	0.03742
2982.98368	0.03759
2981.69791	0.03796
2980.41214	0.03840
2979.12637	0.03881
2977.84060	0.03924
2976.55483	0.03978
2975.26907	0.04049
2973.98330	0.04124
2972.69753	0.04185
2971.41176	0.04218
2970.12599	0.04228
2968.84022	0.04240
2967.55445	0.04286
2966.26868	0.04372
2964.98291	0.04477
2963.69715	0.04575
2962.41138	0.04651
2961.12561	0.04700
2959.83984	0.04718
2958.55407	0.04702
2957.26830	0.04665
2955.98253	0.04633
2954.69676	0.04629
2953.41100	0.04653
2952.12523	0.04684
2950.83946	0.04699
2949.55369	0.04696
2948.26792	0.04690
2946.98215	0.04695
2945.69638	0.04709
2944.41061	0.04726
2943.12484	0.04746
2941.83908	0.04768
2940.55331	0.04786
2939.26754	0.04795
2937.98177	0.04801
2936.69600	0.04822
2935.41023	0.04866
2934.12446	0.04930
2932.83869	0.05006
2931.55293	0.05089
2930.26716	0.05166
2928.98139	0.05221
2927.69562	0.05246
2926.40985	0.05248
2925.12408	0.05238
2923.83831	0.05221
2922.55254	0.05192
2921.26677	0.05150
2919.98101	0.05104
2918.69524	0.05064
2917.40947	0.05029
2916.12370	0.04985
2914.83793	0.04916
2913.55216	0.04828
2912.26639	0.04739
2910.98062	0.04664
2909.69486	0.04608
2908.40909	0.04570
2907.12332	0.04551
2905.83755	0.04536
2904.55178	0.04508
2903.26601	0.04461
2901.98024	0.04409
2900.69447	0.04372
2899.40870	0.04349
2898.12294	0.04324
2896.83717	0.04286
2895.55140	0.04239
2894.26563	0.04197
2892.97986	0.04167
2891.69409	0.04143
2890.40832	0.04112
2889.12255	0.04074
2887.83678	0.04049
2886.55102	0.04051
2885.26525	0.04064
2883.97948	0.04059
2882.69371	0.04027
2881.40794	0.03993
2880.12217	0.03982
2878.83640	0.03999
2877.55063	0.04031
2876.26487	0.04065
2874.97910	0.04097
2873.69333	0.04134
2872.40756	0.04173
2871.12179	0.04199
2869.83602	0.04202
2868.55025	0.04186
2867.26448	0.04168
2865.97871	0.04154
2864.69295	0.04141
2863.40718	0.04127
2862.12141	0.04122
2860.83564	0.04137
2859.54987	0.04159
2858.26410	0.04169
2856.97833	0.04153
2855.69256	0.04118
2854.40680	0.04084
2853.12103	0.04061
2851.83526	0.04042
2850.54949	0.04020
2849.26372	0.03994
2847.97795	0.03965
2846.69218	0.03925
2845.40641	0.03867
2844.12064	0.03799
2842.83488	0.03738
2841.54911	0.03693
2840.26334	0.03658
2838.97757	0.03619
2837.69180	0.03579
2836.40603	0.03543
2835.12026	0.03509
2833.83449	0.03468
2832.54873	0.03422
2831.26296	0.03385
2829.97719	0.03365
2828.69142	0.03359
2827.40565	0.03356
2826.11988	0.03345
2824.83411	0.03318
2823.54834	0.03276
2822.26257	0.03236
2820.97681	0.03217
2819.69104	0.03219
2818.40527	0.03217
2817.11950	0.03194
2815.83373	0.03156
2814.54796	0.03124
2813.26219	0.03112
2811.97642	0.03115
2810.69066	0.03114
2809.40489	0.03096
2808.11912	0.03068
2806.83335	0.03050
2805.54758	0.03046
2804.26181	0.03045
2802.97604	0.03033
2801.69027	0.03012
2800.40450	0.02993
2799.11874	0.02980
2797.83297	0.02973
2796.54720	0.02971
2795.26143	0.02978
2793.97566	0.02989
2792.68989	0.02991
2791.40412	0.02980
2790.11835	0.02965
2788.83259	0.02964
2787.54682	0.02982
2786.26105	0.03007
2784.97528	0.03020
2783.68951	0.03011
2782.40374	0.02990
2781.11797	0.02974
2779.83220	0.02974
2778.54643	0.02987
2777.26067	0.03002
2775.97490	0.03008
2774.68913	0.03005
2773.40336	0.02997
2772.11759	0.02988
2770.83182	0.02978
2769.54605	0.02966
2768.26028	0.02951
2766.97452	0.02936
2765.68875	0.02923
2764.40298	0.02909
2763.11721	0.02892
2761.83144	0.02875
2760.54567	0.02866
2759.25990	0.02868
2757.97413	0.02884
2756.68836	0.02906
2755.40260	0.02924
2754.11683	0.02924
2752.83106	0.02909
2751.54529	0.02885
2750.25952	0.02861
2748.97375	0.02839
2747.68798	0.02824
2746.40221	0.02817
2745.11645	0.02817
2743.83068	0.02819
2742.54491	0.02816
2741.25914	0.02811
2739.97337	0.02808
2738.68760	0.02814
2737.40183	0.02824
2736.11606	0.02826
2734.83029	0.02812
2733.54453	0.02792
2732.25876	0.02787
2730.97299	0.02804
2729.68722	0.02829
2728.40145	0.02840
2727.11568	0.02828
2725.82991	0.02802
2724.54414	0.02777
2723.25838	0.02764
2721.97261	0.02761
2720.68684	0.02760
2719.40107	0.02762
2718.11530	0.02771
2716.82953	0.02785
2715.54376	0.02793
2714.25799	0.02788
2712.97222	0.02777
2711.68646	0.02769
2710.40069	0.02768
2709.11492	0.02768
2707.82915	0.02761
2706.54338	0.02744
2705.25761	0.02724
2703.97184	0.02710
2702.68607	0.02709
2701.40031	0.02715
2700.11454	0.02717
2698.82877	0.02705
2697.54300	0.02684
2696.25723	0.02667
2694.97146	0.02662
2693.68569	0.02664
2692.39992	0.02666
2691.11415	0.02665
2689.82839	0.02662
2688.54262	0.02659
2687.25685	0.02651
2685.97108	0.02638
2684.68531	0.02627
2683.39954	0.02621
2682.11377	0.02616
2680.82800	0.02611
2679.54224	0.02609
2678.25647	0.02614
2676.97070	0.02628
2675.68493	0.02643
2674.39916	0.02655
2673.11339	0.02662
2671.82762	0.02661
2670.54185	0.02646
2669.25608	0.02618
2667.97032	0.02593
2666.68455	0.02593
2665.39878	0.02623
2664.11301	0.02662
2662.82724	0.02683
2661.54147	0.02678
2660.25570	0.02657
2658.96993	0.02635
2657.68417	0.02622
2656.39840	0.02622
2655.11263	0.02637
2653.82686	0.02655
2652.54109	0.02658
2651.25532	0.02639
2649.96955	0.02611
2648.68378	0.02592
2647.39801	0.02590
2646.11225	0.02591
2644.82648	0.02579
2643.54071	0.02553
2642.25494	0.02527
2640.96917	0.02513
2639.68340	0.02511
2638.39763	0.02515
2637.11186	0.02526
2635.82609	0.02544
2634.54033	0.02555
2633.25456	0.02546
2631.96879	0.02516
2630.68302	0.02485
2629.39725	0.02466
2628.11148	0.02459
2626.82571	0.02453
2625.53994	0.02443
2624.25418	0.02429
2622.96841	0.02412
2621.68264	0.02402
2620.39687	0.02403
2619.11110	0.02410
2617.82533	0.02405
2616.53956	0.02379
2615.25379	0.02339
2613.96802	0.02306
2612.68226	0.02291
2611.39649	0.02293
2610.11072	0.02305
2608.82495	0.02316
2607.53918	0.02314
2606.25341	0.02292
2604.96764	0.02249
2603.68187	0.02202
2602.39611	0.02173
2601.11034	0.02174
2599.82457	0.02201
2598.53880	0.02238
2597.25303	0.02274
2595.96726	0.02301
2594.68149	0.02312
2593.39572	0.02310
2592.10995	0.02302
2590.82419	0.02289
2589.53842	0.02262
2588.25265	0.02223
2586.96688	0.02188
2585.68111	0.02174
2584.39534	0.02182
2583.10957	0.02195
2581.82380	0.02195
2580.53804	0.02184
2579.25227	0.02175
2577.96650	0.02179
2576.68073	0.02193
2575.39496	0.02203
2574.10919	0.02195
2572.82342	0.02165
2571.53765	0.02119
2570.25188	0.02072
2568.96612	0.02041
2567.68035	0.02036
2566.39458	0.02052
2565.10881	0.02071
2563.82304	0.02071
2562.53727	0.02049
2561.25150	0.02023
2559.96573	0.02018
2558.67997	0.02035
2557.39420	0.02056
2556.10843	0.02068
2554.82266	0.02070
2553.53689	0.02071
2552.25112	0.02076
2550.96535	0.02081
2549.67958	0.02080
2548.39381	0.02073
2547.10805	0.02070
2545.82228	0.02071
2544.53651	0.02067
2543.25074	0.02054
2541.96497	0.02045
2540.67920	0.02052
2539.39343	0.02072
2538.10766	0.02092
2536.82190	0.02096
2535.53613	0.02090
2534.25036	0.02091
2532.96459	0.02108
2531.67882	0.02126
2530.39305	0.02116
2529.10728	0.02071
2527.82151	0.02018
2526.53574	0.01993
2525.24998	0.02001
2523.96421	0.02017
2522.67844	0.02011
2521.39267	0.01979
2520.10690	0.01948
2518.82113	0.01946
2517.53536	0.01970
2516.24959	0.01992
2514.96383	0.01993
2513.67806	0.01978
2512.39229	0.01966
2511.10652	0.01965
2509.82075	0.01971
2508.53498	0.01982
2507.24921	0.01990
2505.96344	0.01992
2504.67767	0.01984
2503.39191	0.01967
2502.10614	0.01938
2500.82037	0.01906
2499.53460	0.01889
2498.24883	0.01900
2496.96306	0.01935
2495.67729	0.01976
2494.39152	0.01999
2493.10576	0.01989
2491.81999	0.01950
2490.53422	0.01905
2489.24845	0.01880
2487.96268	0.01884
2486.67691	0.01910
2485.39114	0.01944
2484.10537	0.01977
2482.81960	0.01999
2481.53384	0.02004
2480.24807	0.01993
2478.96230	0.01972
2477.67653	0.01950
2476.39076	0.01934
2475.10499	0.01929
2473.81922	0.01940
2472.53345	0.01963
2471.24769	0.01984
2469.96192	0.01982
2468.67615	0.01949
2467.39038	0.01903
2466.10461	0.01876
2464.81884	0.01889
2463.53307	0.01932
2462.24730	0.01975
2460.96153	0.01991
2459.67577	0.01976
2458.39000	0.01945
2457.10423	0.01909
2455.81846	0.01875
2454.53269	0.01848
2453.24692	0.01840
2451.96115	0.01850
2450.67538	0.01865
2449.38962	0.01875
2448.10385	0.01883
2446.81808	0.01889
2445.53231	0.01882
2444.24654	0.01854
2442.96077	0.01817
2441.67500	0.01788
2440.38923	0.01777
2439.10346	0.01778
2437.81770	0.01791
2436.53193	0.01816
2435.24616	0.01847
2433.96039	0.01879
2432.67462	0.01904
2431.38885	0.01916
2430.10308	0.01907
2428.81731	0.01879
2427.53155	0.01850
2426.24578	0.01838
2424.96001	0.01844
2423.67424	0.01854
2422.38847	0.01859
2421.10270	0.01861
2419.81693	0.01865
2418.53116	0.01862
2417.24539	0.01842
2415.95963	0.01818
2414.67386	0.01817
2413.38809	0.01842
2412.10232	0.01864
2410.81655	0.01850
2409.53078	0.01801
2408.24501	0.01750
2406.95924	0.01726
2405.67347	0.01734
2404.38771	0.01756
2403.10194	0.01775
2401.81617	0.01779
2400.53040	0.01771
2399.24463	0.01765
2397.95886	0.01751
2396.67309	0.01749
2395.38732	0.01760
2394.10156	0.01774
2392.81579	0.01786
2391.53002	0.01789
2390.24425	0.01787
2388.95848	0.01786
2387.67271	0.01787
2386.38694	0.01785
2385.10117	0.01775
2383.81540	0.01754
2382.52964	0.01729
2381.24387	0.01713
2379.95810	0.01715
2378.67233	0.01734
2377.38656	0.01759
2376.10079	0.01771
2374.81502	0.01765
2373.52925	0.01745
2372.24349	0.01724
2370.95772	0.01708
2369.67195	0.01700
2368.38618	0.01700
2367.10041	0.01708
2365.81464	0.01719
2364.52887	0.01732
2363.24310	0.01741
2361.95733	0.01744
2360.67157	0.01740
2359.38580	0.01746
2358.10003	0.01769
2356.81426	0.01794
2355.52849	0.01804
2354.24272	0.01796
2352.95695	0.01773
2351.67118	0.01743
2350.38542	0.01730
2349.09965	0.01750
2347.81388	0.01784
2346.52811	0.01788
2345.24234	0.01776
2343.95657	0.01795
2342.67080	0.01835
2341.38503	0.01823
2340.09926	0.01765
2338.81350	0.01766
2337.52773	0.01829
2336.24196	0.01824
2334.95619	0.01758
2333.67042	0.01754
2332.38465	0.01783
2331.09888	0.01739
2329.81311	0.01714
2328.52735	0.01796
2327.24158	0.01860
2325.95581	0.01905
2324.67004	0.01997
2323.38427	0.02035
2322.09850	0.01994
2320.81273	0.01970
2319.52696	0.01924
2318.24119	0.01861
2316.95543	0.01831
2315.66966	0.01802
2314.38389	0.01785
2313.09812	0.01798
2311.81235	0.01794
2310.52658	0.01772
2309.24081	0.01739
2307.95504	0.01710
2306.66928	0.01711
2305.38351	0.01729
2304.09774	0.01749
2302.81197	0.01761
2301.52620	0.01763
2300.24043	0.01766
2298.95466	0.01767
2297.66889	0.01762
2296.38312	0.01750
2295.09736	0.01741
2293.81159	0.01751
2292.52582	0.01778
2291.24005	0.01812
2289.95428	0.01835
2288.66851	0.01841
2287.38274	0.01826
2286.09697	0.01795
2284.81121	0.01758
2283.52544	0.01731
2282.23967	0.01725
2280.95390	0.01738
2279.66813	0.01753
2278.38236	0.01742
2277.09659	0.01692
2275.81082	0.01613
2274.52505	0.01537
2273.23929	0.01494
2271.95352	0.01493
2270.66775	0.01513
2269.38198	0.01525
2268.09621	0.01514
2266.81044	0.01491
2265.52467	0.01472
2264.23890	0.01463
2262.95314	0.01451
2261.66737	0.01433
2260.38160	0.01425
2259.09583	0.01441
2257.81006	0.01465
2256.52429	0.01464
2255.23852	0.01429
2253.95275	0.01377
2252.66698	0.01333
2251.38122	0.01298
2250.09545	0.01267
2248.80968	0.01259
2247.52391	0.01249
2246.23814	0.01263
2244.95237	0.01278
2243.66660	0.01263
2242.38083	0.01224
2241.09507	0.01192
2239.80930	0.01185
2238.52353	0.01195
2237.23776	0.01225
2235.95199	0.01294
2234.66622	0.01400
2233.38045	0.01501
2232.09468	0.01557
2230.80891	0.01574
2229.52315	0.01575
2228.23738	0.01553
2226.95161	0.01478
2225.66584	0.01356
2224.38007	0.01239
2223.09430	0.01179
2221.80853	0.01185
2220.52276	0.01235
2219.23700	0.01299
2217.95123	0.01354
2216.66546	0.01382
2215.37969	0.01375
2214.09392	0.01344
2212.80815	0.01308
2211.52238	0.01277
2210.23661	0.01258
2208.95084	0.01260
2207.66508	0.01286
2206.37931	0.01312
2205.09354	0.01300
2203.80777	0.01231
2202.52200	0.01124
2201.23623	0.01026
2199.95046	0.00962
2198.66469	0.00924
2197.37893	0.00893
2196.09316	0.00871
2194.80739	0.00878
2193.52162	0.00919
2192.23585	0.00974
2190.95008	0.01013
2189.66431	0.01009
2188.37854	0.00960
2187.09277	0.00893
2185.80701	0.00846
2184.52124	0.00825
2183.23547	0.00807
2181.94970	0.00779
2180.66393	0.00762
2179.37816	0.00761
2178.09239	0.00738
2176.80662	0.00671
2175.52085	0.00599
2174.23509	0.00592
2172.94932	0.00651
2171.66355	0.00707
2170.37778	0.00696
2169.09201	0.00628
2167.80624	0.00558
2166.52047	0.00534
2165.23470	0.00575
2163.94894	0.00668
2162.66317	0.00763
2161.37740	0.00787
2160.09163	0.00705
2158.80586	0.00562
2157.52009	0.00463
2156.23432	0.00479
2154.94855	0.00595
2153.66278	0.00731
2152.37702	0.00815
2151.09125	0.00827
2149.80548	0.00794
2148.51971	0.00747
2147.23394	0.00697
2145.94817	0.00639
2144.66240	0.00569
2143.37663	0.00481
2142.09087	0.00372
2140.80510	0.00262
2139.51933	0.00198
2138.23356	0.00238
2136.94779	0.00392
2135.66202	0.00597
2134.37625	0.00753
2133.09048	0.00808
2131.80471	0.00794
2130.51895	0.00773
2129.23318	0.00774
2127.94741	0.00793
2126.66164	0.00833
2125.37587	0.00904
2124.09010	0.00984
2122.80433	0.01025
2121.51856	0.00997
2120.23280	0.00929
2118.94703	0.00884
2117.66126	0.00893
2116.37549	0.00933
2115.08972	0.00957
2113.80395	0.00946
2112.51818	0.00917
2111.23241	0.00899
2109.94664	0.00907
2108.66088	0.00932
2107.37511	0.00954
2106.08934	0.00966
2104.80357	0.00975
2103.51780	0.00988
2102.23203	0.00989
2100.94626	0.00952
2099.66049	0.00877
2098.37473	0.00801
2097.08896	0.00740
2095.80319	0.00703
2094.51742	0.00701
2093.23165	0.00735
2091.94588	0.00786
2090.66011	0.00815
2089.37434	0.00812
2088.08857	0.00811
2086.80281	0.00852
2085.51704	0.00936
2084.23127	0.01015
2082.94550	0.01040
2081.65973	0.01006
2080.37396	0.00948
2079.08819	0.00908
2077.80242	0.00892
2076.51666	0.00877
2075.23089	0.00836
2073.94512	0.00763
2072.65935	0.00675
2071.37358	0.00599
2070.08781	0.00549
2068.80204	0.00529
2067.51627	0.00538
2066.23050	0.00572
2064.94474	0.00618
2063.65897	0.00656
2062.37320	0.00668
2061.08743	0.00652
2059.80166	0.00627
2058.51589	0.00613
2057.23012	0.00616
2055.94435	0.00630
2054.65859	0.00644
2053.37282	0.00638
2052.08705	0.00593
2050.80128	0.00509
2049.51551	0.00417
2048.22974	0.00349
2046.94397	0.00314
2045.65820	0.00300
2044.37243	0.00312
2043.08667	0.00371
2041.80090	0.00471
2040.51513	0.00564
2039.22936	0.00588
2037.94359	0.00527
2036.65782	0.00426
2035.37205	0.00345
2034.08628	0.00308
2032.80052	0.00291
2031.51475	0.00272
2030.22898	0.00266
2028.94321	0.00310
2027.65744	0.00401
2026.37167	0.00478
2025.08590	0.00480
2023.80013	0.00406
2022.51436	0.00313
2021.22860	0.00257
2019.94283	0.00251
2018.65706	0.00273
2017.37129	0.00292
2016.08552	0.00290
2014.79975	0.00274
2013.51398	0.00268
2012.22821	0.00280
2010.94245	0.00276
2009.65668	0.00210
2008.37091	0.00087
2007.08514	-0.00032
2005.79937	-0.00078
2004.51360	-0.00029
2003.22783	0.00092
2001.94206	0.00237
2000.65629	0.00353
1999.37053	0.00407
1998.08476	0.00420
1996.79899	0.00451
1995.51322	0.00531
1994.22745	0.00623
1992.94168	0.00663
1991.65591	0.00636
1990.37014	0.00590
1989.08438	0.00583
1987.79861	0.00624
1986.51284	0.00671
1985.22707	0.00683
1983.94130	0.00663
1982.65553	0.00651
1981.36976	0.00680
1980.08399	0.00731
1978.79822	0.00760
1977.51246	0.00741
1976.22669	0.00690
1974.94092	0.00642
1973.65515	0.00616
1972.36938	0.00613
1971.08361	0.00625
1969.79784	0.00643
1968.51207	0.00653
1967.22631	0.00632
1965.94054	0.00563
1964.65477	0.00465
1963.36900	0.00385
1962.08323	0.00367
1960.79746	0.00418
1959.51169	0.00515
1958.22592	0.00624
1956.94015	0.00720
1955.65439	0.00788
1954.36862	0.00830
1953.08285	0.00852
1951.79708	0.00860
1950.51131	0.00853
1949.22554	0.00835
1947.93977	0.00824
1946.65400	0.00839
1945.36823	0.00873
1944.08247	0.00894
1942.79670	0.00880
1941.51093	0.00843
1940.22516	0.00822
1938.93939	0.00840
1937.65362	0.00876
1936.36785	0.00900
1935.08208	0.00901
1933.79632	0.00898
1932.51055	0.00899
1931.22478	0.00892
1929.93901	0.00868
1928.65324	0.00835
1927.36747	0.00807
1926.08170	0.00793
1924.79593	0.00795
1923.51016	0.00824
1922.22440	0.00885
1920.93863	0.00951
1919.65286	0.00981
1918.36709	0.00957
1917.08132	0.00902
1915.79555	0.00855
1914.50978	0.00842
1913.22401	0.00861
1911.93825	0.00891
1910.65248	0.00912
1909.36671	0.00919
1908.08094	0.00926
1906.79517	0.00945
1905.50940	0.00972
1904.22363	0.00987
1902.93786	0.00982
1901.65209	0.00961
1900.36633	0.00936
1899.08056	0.00916
1897.79479	0.00901
1896.50902	0.00890
1895.22325	0.00885
1893.93748	0.00886
1892.65171	0.00888
1891.36594	0.00891
1890.08018	0.00894
1888.79441	0.00900
1887.50864	0.00908
1886.22287	0.00919
1884.93710	0.00935
1883.65133	0.00954
1882.36556	0.00968
1881.07979	0.00972
1879.79402	0.00969
1878.50826	0.00966
1877.22249	0.00968
1875.93672	0.00973
1874.65095	0.00977
1873.36518	0.00976
1872.07941	0.00969
1870.79364	0.00957
1869.50787	0.00945
1868.22211	0.00942
1866.93634	0.00954
1865.65057	0.00978
1864.36480	0.01005
1863.07903	0.01022
1861.79326	0.01022
1860.50749	0.01008
1859.22172	0.00997
1857.93595	0.00999
1856.65019	0.01010
1855.36442	0.01015
1854.07865	0.01013
1852.79288	0.01017
1851.50711	0.01038
1850.22134	0.01071
1848.93557	0.01099
1847.64980	0.01104
1846.36404	0.01081
1845.07827	0.01043
1843.79250	0.01009
1842.50673	0.00990
1841.22096	0.00985
1839.93519	0.00989
1838.64942	0.00998
1837.36365	0.01006
1836.07788	0.01006
1834.79212	0.01002
1833.50635	0.01005
1832.22058	0.01024
1830.93481	0.01057
1829.64904	0.01091
1828.36327	0.01106
1827.07750	0.01094
1825.79173	0.01067
1824.50597	0.01048
1823.22020	0.01046
1821.93443	0.01050
1820.64866	0.01042
1819.36289	0.01017
1818.07712	0.00986
1816.79135	0.00968
1815.50558	0.00970
1814.21981	0.00987
1812.93405	0.01004
1811.64828	0.01016
1810.36251	0.01026
1809.07674	0.01039
1807.79097	0.01054
1806.50520	0.01067
1805.21943	0.01078
1803.93366	0.01090
1802.64790	0.01102
1801.36213	0.01109
1800.07636	0.01104
1798.79059	0.01094
1797.50482	0.01092
1796.21905	0.01099
1794.93328	0.01106
1793.64751	0.01105
1792.36174	0.01096
1791.07598	0.01089
1789.79021	0.01084
1788.50444	0.01083
1787.21867	0.01083
1785.93290	0.01087
1784.64713	0.01094
1783.36136	0.01104
1782.07559	0.01115
1780.78983	0.01123
1779.50406	0.01129
1778.21829	0.01138
1776.93252	0.01150
1775.64675	0.01158
1774.36098	0.01155
1773.07521	0.01147
1771.78944	0.01147
1770.50367	0.01155
1769.21791	0.01161
1767.93214	0.01164
1766.64637	0.01171
1765.36060	0.01179
1764.07483	0.01182
1762.78906	0.01183
1761.50329	0.01188
1760.21752	0.01199
1758.93176	0.01207
1757.64599	0.01211
1756.36022	0.01216
1755.07445	0.01226
1753.78868	0.01233
1752.50291	0.01227
1751.21714	0.01214
1749.93137	0.01201
1748.64560	0.01192
1747.35984	0.01185
1746.07407	0.01180
1744.78830	0.01182
1743.50253	0.01190
1742.21676	0.01202
1740.93099	0.01216
1739.64522	0.01237
1738.35945	0.01267
1737.07369	0.01292
1735.78792	0.01296
1734.50215	0.01286
1733.21638	0.01281
1731.93061	0.01287
1730.64484	0.01296
1729.35907	0.01301
1728.07330	0.01305
1726.78753	0.01309
1725.50177	0.01317
1724.21600	0.01331
1722.93023	0.01355
1721.64446	0.01385
1720.35869	0.01412
1719.07292	0.01431
1717.78715	0.01446
1716.50138	0.01463
1715.21561	0.01482
1713.92985	0.01504
1712.64408	0.01534
1711.35831	0.01572
1710.07254	0.01611
1708.78677	0.01638
1707.50100	0.01654
1706.21523	0.01669
1704.92946	0.01698
1703.64370	0.01738
1702.35793	0.01769
1701.07216	0.01789
1699.78639	0.01818
1698.50062	0.01856
1697.21485	0.01888
1695.92908	0.01915
1694.64331	0.01950
1693.35754	0.01989
1692.07178	0.02022
1690.78601	0.02052
1689.50024	0.02094
1688.21447	0.02145
1686.92870	0.02182
1685.64293	0.02197
1684.35716	0.02208
1683.07139	0.02233
1681.78563	0.02271
1680.49986	0.02311
1679.21409	0.02350
1677.92832	0.02388
1676.64255	0.02420
1675.35678	0.02450
1674.07101	0.02485
1672.78524	0.02520
1671.49947	0.02549
1670.21371	0.02576
1668.92794	0.02608
1667.64217	0.02645
1666.35640	0.02677
1665.07063	0.02699
1663.78486	0.02716
1662.49909	0.02736
1661.21332	0.02760
1659.92756	0.02786
1658.64179	0.02815
1657.35602	0.02845
1656.07025	0.02863
1654.78448	0.02855
1653.49871	0.02836
1652.21294	0.02839
1650.92717	0.02867
1649.64140	0.02893
1648.35564	0.02900
1647.06987	0.02891
1645.78410	0.02882
1644.49833	0.02881
1643.21256	0.02885
1641.92679	0.02890
1640.64102	0.02895
1639.35525	0.02896
1638.06949	0.02884
1636.78372	0.02861
1635.49795	0.02838
1634.21218	0.02826
1632.92641	0.02819
1631.64064	0.02804
1630.35487	0.02778
1629.06910	0.02752
1627.78333	0.02733
1626.49757	0.02720
1625.21180	0.02706
1623.92603	0.02691
1622.64026	0.02683
1621.35449	0.02684
1620.06872	0.02681
1618.78295	0.02659
1617.49718	0.02624
1616.21142	0.02597
1614.92565	0.02588
1613.63988	0.02587
1612.35411	0.02581
1611.06834	0.02572
1609.78257	0.02564
1608.49680	0.02559
1607.21103	0.02557
1605.92526	0.02557
1604.63950	0.02560
1603.35373	0.02564
1602.06796	0.02569
1600.78219	0.02572
1599.49642	0.02574
1598.21065	0.02574
1596.92488	0.02574
1595.63911	0.02577
1594.35335	0.02582
1593.06758	0.02589
1591.78181	0.02598
1590.49604	0.02608
1589.21027	0.02619
1587.92450	0.02630
1586.63873	0.02640
1585.35296	0.02651
1584.06719	0.02665
1582.78143	0.02686
1581.49566	0.02715
1580.20989	0.02746
1578.92412	0.02769
1577.63835	0.02781
1576.35258	0.02795
1575.06681	0.02827
1573.78104	0.02875
1572.49528	0.02917
1571.20951	0.02943
1569.92374	0.02958
1568.63797	0.02973
1567.35220	0.02989
1566.06643	0.03008
1564.78066	0.03030
1563.49489	0.03054
1562.20912	0.03064
1560.92336	0.03052
1559.63759	0.03030
1558.35182	0.03027
1557.06605	0.03045
1555.78028	0.03069
1554.49451	0.03088
1553.20874	0.03106
1551.92297	0.03125
1550.63721	0.03141
1549.35144	0.03157
1548.06567	0.03168
1546.77990	0.03169
1545.49413	0.03157
1544.20836	0.03138
1542.92259	0.03116
1541.63682	0.03090
1540.35105	0.03061
1539.06529	0.03039
1537.77952	0.03025
1536.49375	0.03008
1535.20798	0.02980
1533.92221	0.02947
1532.63644	0.02921
1531.35067	0.02905
1530.06490	0.02895
1528.77914	0.02889
1527.49337	0.02886
1526.20760	0.02889
1524.92183	0.02897
1523.63606	0.02903
1522.35029	0.02907
1521.06452	0.02919
1519.77875	0.02942
1518.49298	0.02966
1517.20722	0.02987
1515.92145	0.03016
1514.63568	0.03057
1513.34991	0.03106
1512.06414	0.03162
1510.77837	0.03224
1509.49260	0.03284
1508.20683	0.03335
1506.92107	0.03382
1505.63530	0.03439
1504.34953	0.03508
1503.06376	0.03574
1501.77799	0.03629
1500.49222	0.03671
1499.20645	0.03697
1497.92068	0.03707
1496.63491	0.03710
1495.34915	0.03719
1494.06338	0.03739
1492.77761	0.03762
1491.49184	0.03786
1490.20607	0.03815
1488.92030	0.03858
1487.63453	0.03920
1486.34876	0.03998
1485.06299	0.04085
1483.77723	0.04176
1482.49146	0.04270
1481.20569	0.04373
1479.91992	0.04486
1478.63415	0.04603
1477.34838	0.04721
1476.06261	0.04839
1474.77684	0.04958
1473.49108	0.05082
1472.20531	0.05212
1470.91954	0.05339
1469.63377	0.05449
1468.34800	0.05535
1467.06223	0.05600
1465.77646	0.05655
1464.49069	0.05714
1463.20492	0.05784
1461.91916	0.05867
1460.63339	0.05958
1459.34762	0.06050
1458.06185	0.06139
1456.77608	0.06228
1455.49031	0.06315
1454.20454	0.06385
1452.91877	0.06424
1451.63301	0.06433
1450.34724	0.06417
1449.06147	0.06377
1447.77570	0.06315
1446.48993	0.06231
1445.20416	0.06129
1443.91839	0.06009
1442.63262	0.05879
1441.34685	0.05743
1440.06109	0.05603
1438.77532	0.05466
1437.48955	0.05343
1436.20378	0.05253
1434.91801	0.05201
1433.63224	0.05178
1432.34647	0.05177
1431.06070	0.05200
1429.77494	0.05252
1428.48917	0.05334
1427.20340	0.05436
1425.91763	0.05547
1424.63186	0.05661
1423.34609	0.05781
1422.06032	0.05903
1420.77455	0.06019
1419.48878	0.06126
1418.20302	0.06221
1416.91725	0.06295
1415.63148	0.06344
1414.34571	0.06367
1413.05994	0.06369
1411.77417	0.06350
1410.48840	0.06309
1409.20263	0.06244
1407.91687	0.06154
1406.63110	0.06038
1405.34533	0.05902
1404.05956	0.05752
1402.77379	0.05592
1401.48802	0.05423
1400.20225	0.05249
1398.91648	0.05077
1397.63071	0.04910
1396.34495	0.04748
1395.05918	0.04593
1393.77341	0.04452
1392.48764	0.04327
1391.20187	0.04211
1389.91610	0.04097
1388.63033	0.03984
1387.34456	0.03882
1386.05880	0.03794
1384.77303	0.03715
1383.48726	0.03638
1382.20149	0.03558
1380.91572	0.03476
1379.62995	0.03392
1378.34418	0.03305
1377.05841	0.03214
1375.77264	0.03115
1374.48688	0.03011
1373.20111	0.02908
1371.91534	0.02812
1370.62957	0.02725
1369.34380	0.02648
1368.05803	0.02578
1366.77226	0.02509
1365.48649	0.02438
1364.20073	0.02368
1362.91496	0.02301
1361.62919	0.02242
1360.34342	0.02191
1359.05765	0.02150
1357.77188	0.02116
1356.48611	0.02087
1355.20034	0.02060
1353.91457	0.02034
1352.62881	0.02009
1351.34304	0.01983
1350.05727	0.01956
1348.77150	0.01928
1347.48573	0.01905
1346.19996	0.01887
1344.91419	0.01875
1343.62842	0.01867
1342.34266	0.01859
1341.05689	0.01849
1339.77112	0.01839
1338.48535	0.01829
1337.19958	0.01819
1335.91381	0.01808
1334.62804	0.01795
1333.34227	0.01780
1332.05650	0.01766
1330.77074	0.01755
1329.48497	0.01748
1328.19920	0.01743
1326.91343	0.01736
1325.62766	0.01728
1324.34189	0.01720
1323.05612	0.01714
1321.77035	0.01709
1320.48459	0.01702
1319.19882	0.01693
1317.91305	0.01682
1316.62728	0.01671
1315.34151	0.01661
1314.05574	0.01652
1312.76997	0.01642
1311.48420	0.01630
1310.19843	0.01616
1308.91267	0.01602
1307.62690	0.01591
1306.34113	0.01585
1305.05536	0.01582
1303.76959	0.01581
1302.48382	0.01578
1301.19805	0.01572
1299.91228	0.01566
1298.62652	0.01563
1297.34075	0.01562
1296.05498	0.01561
1294.76921	0.01558
1293.48344	0.01553
1292.19767	0.01548
1290.91190	0.01542
1289.62613	0.01536
1288.34036	0.01531
1287.05460	0.01525
1285.76883	0.01521
1284.48306	0.01517
1283.19729	0.01513
1281.91152	0.01507
1280.62575	0.01500
1279.33998	0.01493
1278.05421	0.01489
1276.76845	0.01486
1275.48268	0.01486
1274.19691	0.01485
1272.91114	0.01482
1271.62537	0.01473
1270.33960	0.01460
1269.05383	0.01447
1267.76806	0.01437
1266.48229	0.01432
1265.19653	0.01431
1263.91076	0.01431
1262.62499	0.01431
1261.33922	0.01432
1260.05345	0.01434
1258.76768	0.01436
1257.48191	0.01434
1256.19614	0.01427
1254.91037	0.01417
1253.62461	0.01407
1252.33884	0.01396
1251.05307	0.01384
1249.76730	0.01375
1248.48153	0.01373
1247.19576	0.01378
1245.90999	0.01390
1244.62422	0.01401
1243.33846	0.01407
1242.05269	0.01408
1240.76692	0.01405
1239.48115	0.01402
1238.19538	0.01397
1236.90961	0.01390
1235.62384	0.01383
1234.33807	0.01376
1233.05230	0.01372
1231.76654	0.01369
1230.48077	0.01366
1229.19500	0.01364
1227.90923	0.01362
1226.62346	0.01358
1225.33769	0.01352
1224.05192	0.01344
1222.76615	0.01337
1221.48039	0.01332
1220.19462	0.01331
1218.90885	0.01333
1217.62308	0.01336
1216.33731	0.01336
1215.05154	0.01333
1213.76577	0.01327
1212.48000	0.01319
1211.19423	0.01313
1209.90847	0.01311
1208.62270	0.01313
1207.33693	0.01318
1206.05116	0.01323
1204.76539	0.01326
1203.47962	0.01326
1202.19385	0.01326
1200.90808	0.01327
1199.62232	0.01334
1198.33655	0.01338
1197.05078	0.01339
1195.76501	0.01337
1194.47924	0.01335
1193.19347	0.01333
1191.90770	0.01330
1190.62193	0.01328
1189.33616	0.01329
1188.05040	0.01334
1186.76463	0.01342
1185.47886	0.01349
1184.19309	0.01354
1182.90732	0.01359
1181.62155	0.01366
1180.33578	0.01374
1179.05001	0.01382
1177.76425	0.01393
1176.47848	0.01406
1175.19271	0.01421
1173.90694	0.01433
1172.62117	0.01443
1171.33540	0.01452
1170.04963	0.01465
1168.76386	0.01481
1167.47809	0.01501
1166.19233	0.01525
1164.90656	0.01552
1163.62079	0.01582
1162.33502	0.01613
1161.04925	0.01646
1159.76348	0.01680
1158.47771	0.01708
1157.19194	0.01728
1155.90618	0.01746
1154.62041	0.01771
1153.33464	0.01810
1152.04887	0.01857
1150.76310	0.01905
1149.47733	0.01949
1148.19156	0.01993
1146.90579	0.02044
1145.62002	0.02103
1144.33426	0.02162
1143.04849	0.02218
1141.76272	0.02271
1140.47695	0.02328
1139.19118	0.02398
1137.90541	0.02484
1136.61964	0.02590
1135.33387	0.02711
1134.04811	0.02840
1132.76234	0.02975
1131.47657	0.03121
1130.19080	0.03284
1128.90503	0.03468
1127.61926	0.03673
1126.33349	0.03904
1125.04772	0.04166
1123.76195	0.04458
1122.47619	0.04773
1121.19042	0.05102
1119.90465	0.05443
1118.61888	0.05801
1117.33311	0.06176
1116.04734	0.06562
1114.76157	0.06945
1113.47580	0.07316
1112.19004	0.07671
1110.90427	0.08014
1109.61850	0.08352
1108.33273	0.08687
1107.04696	0.09021
1105.76119	0.09353
1104.47542	0.09683
1103.18965	0.10007
1101.90388	0.10323
1100.61812	0.10628
1099.33235	0.10925
1098.04658	0.11214
1096.76081	0.11495
1095.47504	0.11766
1094.18927	0.12021
1092.90350	0.12255
1091.61773	0.12463
1090.33197	0.12639
1089.04620	0.12775
1087.76043	0.12875
1086.47466	0.12948
1085.18889	0.13013
1083.90312	0.13085
1082.61735	0.13178
1081.33158	0.13302
1080.04581	0.13465
1078.76005	0.13676
1077.47428	0.13934
1076.18851	0.14232
1074.90274	0.14557
1073.61697	0.14895
1072.33120	0.15238
1071.04543	0.15587
1069.75966	0.15949
1068.47390	0.16330
1067.18813	0.16736
1065.90236	0.17164
1064.61659	0.17606
1063.33082	0.18053
1062.04505	0.18500
1060.75928	0.18945
1059.47351	0.19388
1058.18774	0.19827
1056.90198	0.20257
1055.61621	0.20677
1054.33044	0.21091
1053.04467	0.21507
1051.75890	0.21930
1050.47313	0.22368
1049.18736	0.22821
1047.90159	0.23289
1046.61583	0.23769
1045.33006	0.24258
1044.04429	0.24748
1042.75852	0.25227
1041.47275	0.25688
1040.18698	0.26129
1038.90121	0.26549
1037.61544	0.26956
1036.32967	0.27356
1035.04391	0.27753
1033.75814	0.28138
1032.47237	0.28497
1031.18660	0.28821
1029.90083	0.29112
1028.61506	0.29369
1027.32929	0.29583
1026.04352	0.29740
1024.75775	0.29826
1023.47199	0.29831
1022.18622	0.29741
1020.90045	0.29545
1019.61468	0.29237
1018.32891	0.28826
1017.04314	0.28327
1015.75737	0.27754
1014.47160	0.27117
1013.18584	0.26431
1011.90007	0.25710
1010.61430	0.24964
1009.32853	0.24197
1008.04276	0.23413
1006.75699	0.22613
1005.47122	0.21799
1004.18545	0.20977
1002.89968	0.20156
1001.61392	0.19347
1000.32815	0.18554
999.04238	0.17773
997.75661	0.17004
996.47084	0.16253
995.18507	0.15532
993.89930	0.14850
992.61353	0.14209
991.32777	0.13603
990.04200	0.13025
988.75623	0.12470
987.47046	0.11942
986.18469	0.11445
984.89892	0.10982
983.61315	0.10548
982.32738	0.10136
981.04161	0.09738
979.75585	0.09354
978.47008	0.08986
977.18431	0.08647
975.89854	0.08350
974.61277	0.08103
973.32700	0.07908
972.04123	0.07760
970.75546	0.07663
969.46970	0.07628
968.18393	0.07668
966.89816	0.07788
965.61239	0.07980
964.32662	0.08216
963.04085	0.08445
961.75508	0.08602
960.46931	0.08634
959.18354	0.08529
957.89778	0.08314
956.61201	0.08033
955.32624	0.07727
954.04047	0.07423
952.75470	0.07136
951.46893	0.06876
950.18316	0.06642
948.89739	0.06431
947.61163	0.06236
946.32586	0.06048
945.04009	0.05859
943.75432	0.05672
942.46855	0.05490
941.18278	0.05317
939.89701	0.05155
938.61124	0.05005
937.32547	0.04870
936.03971	0.04749
934.75394	0.04640
933.46817	0.04539
932.18240	0.04445
930.89663	0.04357
929.61086	0.04274
928.32509	0.04194
927.03932	0.04118
925.75356	0.04048
924.46779	0.03981
923.18202	0.03919
921.89625	0.03861
920.61048	0.03809
919.32471	0.03767
918.03894	0.03733
916.75317	0.03706
915.46740	0.03681
914.18164	0.03650
912.89587	0.03608
911.61010	0.03555
910.32433	0.03502
909.03856	0.03464
907.75279	0.03448
906.46702	0.03441
905.18125	0.03428
903.89549	0.03405
902.60972	0.03378
901.32395	0.03354
900.03818	0.03331
898.75241	0.03307
897.46664	0.03285
896.18087	0.03270
894.89510	0.03259
893.60933	0.03243
892.32357	0.03216
891.03780	0.03182
889.75203	0.03158
888.46626	0.03159
887.18049	0.03198
885.89472	0.03288
884.60895	0.03436
883.32318	0.03638
882.03742	0.03863
880.75165	0.04057
879.46588	0.04172
878.18011	0.04212
876.89434	0.04232
875.60857	0.04287
874.32280	0.04380
873.03703	0.04459
871.75126	0.04464
870.46550	0.04382
869.17973	0.04235
867.89396	0.04055
866.60819	0.03860
865.32242	0.03666
864.03665	0.03490
862.75088	0.03345
861.46511	0.03231
860.17935	0.03138
858.89358	0.03057
857.60781	0.02982
856.32204	0.02911
855.03627	0.02849
853.75050	0.02798
852.46473	0.02762
851.17896	0.02740
849.89319	0.02728
848.60743	0.02717
847.32166	0.02698
846.03589	0.02669
844.75012	0.02633
843.46435	0.02598
842.17858	0.02568
840.89281	0.02549
839.60704	0.02541
838.32128	0.02541
837.03551	0.02537
835.74974	0.02523
834.46397	0.02502
833.17820	0.02482
831.89243	0.02466
830.60666	0.02450
829.32089	0.02430
828.03512	0.02407
826.74936	0.02385
825.46359	0.02373
824.17782	0.02371
822.89205	0.02375
821.60628	0.02376
820.32051	0.02371
819.03474	0.02360
817.74897	0.02349
816.46321	0.02340
815.17744	0.02336
813.89167	0.02334
812.60590	0.02330
811.32013	0.02323
810.03436	0.02317
808.74859	0.02314
807.46282	0.02314
806.17705	0.02312
804.89129	0.02305
803.60552	0.02295
802.31975	0.02285
801.03398	0.02278
799.74821	0.02271
798.46244	0.02263
797.17667	0.02250
795.89090	0.02234
794.60513	0.02217
793.31937	0.02204
792.03360	0.02200
790.74783	0.02203
789.46206	0.02208
788.17629	0.02209
786.89052	0.02205
785.60475	0.02200
784.31898	0.02200
783.03322	0.02199
781.74745	0.02192
780.46168	0.02174
779.17591	0.02156
777.89014	0.02148
776.60437	0.02152
775.31860	0.02158
774.03283	0.02161
772.74706	0.02165
771.46130	0.02176
770.17553	0.02190
768.88976	0.02196
767.60399	0.02192
766.31822	0.02187
765.03245	0.02193
763.74668	0.02209
762.46091	0.02221
761.17515	0.02216
759.88938	0.02193
758.60361	0.02164
757.31784	0.02138
756.03207	0.02120
754.74630	0.02113
753.46053	0.02123
752.17476	0.02146
750.88899	0.02167
749.60323	0.02174
748.31746	0.02163
747.03169	0.02145
745.74592	0.02131
744.46015	0.02126
743.17438	0.02125
741.88861	0.02127
740.60284	0.02125
739.31708	0.02116
738.03131	0.02093
736.74554	0.02064
735.45977	0.02043
734.17400	0.02045
732.88823	0.02066
731.60246	0.02092
730.31669	0.02108
729.03092	0.02110
727.74516	0.02105
726.45939	0.02098
725.17362	0.02095
723.88785	0.02098
722.60208	0.02108
721.31631	0.02124
720.03054	0.02138
718.74477	0.02143
717.45901	0.02138
716.17324	0.02126
714.88747	0.02112
713.60170	0.02100
712.31593	0.02093
711.03016	0.02091
709.74439	0.02096
708.45862	0.02103
707.17285	0.02105
705.88709	0.02101
704.60132	0.02093
703.31555	0.02087
702.02978	0.02086
700.74401	0.02088
699.45824	0.02091
698.17247	0.02096
696.88670	0.02105
695.60094	0.02117
694.31517	0.02128
693.02940	0.02132
691.74363	0.02130
690.45786	0.02126
689.17209	0.02127
687.88632	0.02132
686.60055	0.02136
685.31478	0.02136
684.02902	0.02131
682.74325	0.02126
681.45748	0.02126
680.17171	0.02133
678.88594	0.02146
677.60017	0.02163
676.31440	0.02179
675.02863	0.02191
673.74287	0.02200
672.45710	0.02210
671.17133	0.02226
669.88556	0.02251
668.59979	0.02283
667.31402	0.02315
666.02825	0.02332
664.74248	0.02337
663.45671	0.02333
662.17095	0.02329
660.88518	0.02329
659.59941	0.02334
658.31364	0.02341
657.02787	0.02353
655.74210	0.02372
654.45633	0.02404
653.17056	0.02447
651.88480	0.02498
650.59903	0.02551
649.31326	0.02607
648.02749	0.02666
646.74172	0.02731
645.45595	0.02803
644.17018	0.02884
642.88441	0.02970
641.59864	0.03055
640.31288	0.03136
639.02711	0.03213
637.74134	0.03289
636.45557	0.03365
635.16980	0.03439
633.88403	0.03507
632.59826	0.03567
631.31249	0.03614
630.02673	0.03641
628.74096	0.03674
627.45519	0.03724
626.16942	0.03757
624.88365	0.03800
623.59788	0.03900
622.31211	0.04062
621.02634	0.04239
619.74057	0.04368
618.45481	0.04445
617.16904	0.04527
615.88327	0.04664
614.59750	0.04858
613.31173	0.05088
612.02596	0.05379
610.74019	0.05797
609.45442	0.06380
608.16866	0.07082
606.88289	0.07830
605.59712	0.08554
604.31135	0.09174
603.02558	0.09604
601.73981	0.09785
600.45404	0.09708
599.16827	0.09406
597.88250	0.08945
596.59674	0.08412
595.31097	0.07896
594.02520	0.07455
592.73943	0.07113
591.45366	0.06875
590.16789	0.06732
588.88212	0.06671
587.59635	0.06677
586.31059	0.06746
585.02482	0.06883
583.73905	0.07091
582.45328	0.07364
581.16751	0.07689
579.88174	0.08057
578.59597	0.08465
577.31020	0.08907
576.02443	0.09365
574.73867	0.09815
573.45290	0.10246
572.16713	0.10668
570.88136	0.11099
569.59559	0.11555
568.30982	0.12035
567.02405	0.12523
565.73828	0.12983
564.45251	0.13365
563.16675	0.13608
561.88098	0.13650
560.59521	0.13452
559.30944	0.13013
558.02367	0.12375
556.73790	0.11607
555.45213	0.10782
554.16636	0.09965
552.88060	0.09198
551.59483	0.08507
550.30906	0.07901
549.02329	0.07383
547.73752	0.06942
546.45175	0.06560
545.16598	0.06216
543.88021	0.05906
542.59444	0.05633
541.30868	0.05398
540.02291	0.05192
538.73714	0.05000
537.45137	0.04816
536.16560	0.04647
534.87983	0.04498
533.59406	0.04365
532.30829	0.04235
531.02253	0.04099
529.73676	0.03962
528.45099	0.03834
527.16522	0.03725
525.87945	0.03635
524.59368	0.03553
523.30791	0.03463
522.02214	0.03360
520.73637	0.03252
519.45061	0.03151
518.16484	0.03066
516.87907	0.02995
515.59330	0.02931
514.30753	0.02865
513.02176	0.02793
511.73599	0.02720
510.45022	0.02655
509.16446	0.02606
507.87869	0.02566
506.59292	0.02527
505.30715	0.02482
504.02138	0.02435
502.73561	0.02394
501.44984	0.02360
500.16407	0.02329
498.87830	0.02300
497.59254	0.02274
496.30677	0.02252
495.02100	0.02226
493.73523	0.02193
492.44946	0.02160
491.16369	0.02139
489.87792	0.02136
488.59215	0.02143
487.30639	0.02148
486.02062	0.02142
484.73485	0.02126
483.44908	0.02111
482.16331	0.02111
480.87754	0.02130
479.59177	0.02164
478.30600	0.02205
477.02023	0.02247
475.73447	0.02288
474.44870	0.02326
473.16293	0.02358
471.87716	0.02379
470.59139	0.02384
469.30562	0.02373
468.01985	0.02347
466.73408	0.02312
465.44832	0.02272
464.16255	0.02236
462.87678	0.02207
461.59101	0.02184
460.30524	0.02162
459.01947	0.02130
457.73370	0.02090
456.44793	0.02048
455.16216	0.02008
453.87640	0.01971
452.59063	0.01934
451.30486	0.01899
450.01909	0.01870
448.73332	0.01849
447.44755	0.01839
446.16178	0.01835
444.87601	0.01830
443.59025	0.01822
442.30448	0.01808
441.01871	0.01795
439.73294	0.01784
438.44717	0.01775
437.16140	0.01766
435.87563	0.01753
434.58986	0.01740
433.30409	0.01728
432.01833	0.01721
430.73256	0.01716
429.44679	0.01711
428.16102	0.01703
426.87525	0.01693
425.58948	0.01679
424.30371	0.01661
423.01794	0.01642
421.73218	0.01624
420.44641	0.01609
419.16064	0.01598
417.87487	0.01592
416.58910	0.01585
415.30333	0.01573
414.01756	0.01559
412.73179	0.01547
411.44602	0.01541
410.16026	0.01542
408.87449	0.01547
407.58872	0.01553
406.30295	0.01557
405.01718	0.01561
403.73141	0.01568
402.44564	0.01579
401.15987	0.01592
399.87411	0.01605
