3997.45528	0.03350
3996.16951	0.03298
3994.88374	0.03239
3993.59798	0.03194
3992.31221	0.03189
3991.02644	0.03230
3989.74067	0.03305
3988.45490	0.03389
3987.16913	0.03451
3985.88336	0.03459
3984.59759	0.03402
3983.31183	0.03311
3982.02606	0.03238
3980.74029	0.03218
3979.45452	0.03251
3978.16875	0.03315
3976.88298	0.03379
3975.59721	0.03411
3974.31144	0.03393
3973.02567	0.03339
3971.73991	0.03289
3970.45414	0.03278
3969.16837	0.03315
3967.88260	0.03375
3966.59683	0.03413
3965.31106	0.03391
3964.02529	0.03303
3962.73952	0.03185
3961.45376	0.03085
3960.16799	0.03036
3958.88222	0.03042
3957.59645	0.03081
3956.31068	0.03126
3955.02491	0.03157
3953.73914	0.03174
3952.45337	0.03188
3951.16760	0.03205
3949.88184	0.03214
3948.59607	0.03193
3947.31030	0.03139
3946.02453	0.03079
3944.73876	0.03052
3943.45299	0.03073
3942.16722	0.03121
3940.88145	0.03154
3939.59569	0.03146
3938.30992	0.03097
3937.02415	0.03041
3935.73838	0.03014
3934.45261	0.03032
3933.16684	0.03078
3931.88107	0.03119
3930.59530	0.03140
3929.30953	0.03156
3928.02377	0.03186
3926.73800	0.03224
3925.45223	0.03242
3924.16646	0.03225
3922.88069	0.03183
3921.59492	0.03144
3920.30915	0.03124
3919.02338	0.03127
3917.73762	0.03135
3916.45185	0.03127
3915.16608	0.03097
3913.88031	0.03059
3912.59454	0.03024
3911.30877	0.02994
3910.02300	0.02988
3908.73723	0.03034
3907.45146	0.03130
3906.16570	0.03228
3904.87993	0.03278
3903.59416	0.03276
3902.30839	0.03258
3901.02262	0.03244
3899.73685	0.03217
3898.45108	0.03153
3897.16531	0.03068
3895.87955	0.03012
3894.59378	0.03022
3893.30801	0.03090
3892.02224	0.03166
3890.73647	0.03201
3889.45070	0.03197
3888.16493	0.03189
3886.87916	0.03199
3885.59339	0.03215
3884.30763	0.03219
3883.02186	0.03207
3881.73609	0.03175
3880.45032	0.03121
3879.16455	0.03062
3877.87878	0.03027
3876.59301	0.03027
3875.30724	0.03054
3874.02148	0.03087
3872.73571	0.03102
3871.44994	0.03084
3870.16417	0.03039
3868.87840	0.03003
3867.59263	0.03015
3866.30686	0.03063
3865.02109	0.03094
3863.73532	0.03084
3862.44956	0.03056
3861.16379	0.03042
3859.87802	0.03045
3858.59225	0.03055
3857.30648	0.03074
3856.02071	0.03116
3854.73494	0.03168
3853.44917	0.03193
3852.16341	0.03172
3850.87764	0.03134
3849.59187	0.03115
3848.30610	0.03125
3847.02033	0.03151
3845.73456	0.03164
3844.44879	0.03141
3843.16302	0.03080
3841.87725	0.02998
3840.59149	0.02924
3839.30572	0.02875
3838.01995	0.02847
3836.73418	0.02839
3835.44841	0.02870
3834.16264	0.02952
3832.87687	0.03059
3831.59110	0.03137
3830.30534	0.03156
3829.01957	0.03134
3827.73380	0.03104
3826.44803	0.03075
3825.16226	0.03046
3823.87649	0.03030
3822.59072	0.03039
3821.30495	0.03055
3820.01918	0.03057
3818.73342	0.03053
3817.44765	0.03059
3816.16188	0.03065
3814.87611	0.03055
3813.59034	0.03041
3812.30457	0.03031
3811.01880	0.03023
3809.73303	0.03016
3808.44726	0.03006
3807.16150	0.02974
3805.87573	0.02914
3804.58996	0.02870
3803.30419	0.02885
3802.01842	0.02927
3800.73265	0.02928
3799.44688	0.02878
3798.16111	0.02832
3796.87535	0.02835
3795.58958	0.02883
3794.30381	0.02953
3793.01804	0.03007
3791.73227	0.03005
3790.44650	0.02943
3789.16073	0.02866
3787.87496	0.02833
3786.58919	0.02855
3785.30343	0.02897
3784.01766	0.02920
3782.73189	0.02927
3781.44612	0.02939
3780.16035	0.02959
3778.87458	0.02980
3777.58881	0.02994
3776.30304	0.03002
3775.01728	0.03005
3773.73151	0.03004
3772.44574	0.03005
3771.15997	0.02994
3769.87420	0.02951
3768.58843	0.02880
3767.30266	0.02818
3766.01689	0.02791
3764.73112	0.02795
3763.44536	0.02810
3762.15959	0.02818
3760.87382	0.02800
3759.58805	0.02749
3758.30228	0.02686
3757.01651	0.02650
3755.73074	0.02670
3754.44497	0.02740
3753.15921	0.02824
3751.87344	0.02885
3750.58767	0.02912
3749.30190	0.02905
3748.01613	0.02865
3746.73036	0.02812
3745.44459	0.02766
3744.15882	0.02722
3742.87305	0.02695
3741.58729	0.02712
3740.30152	0.02763
3739.01575	0.02810
3737.72998	0.02830
3736.44421	0.02829
3735.15844	0.02827
3733.87267	0.02848
3732.58690	0.02890
3731.30114	0.02912
3730.01537	0.02882
3728.72960	0.02817
3727.44383	0.02751
3726.15806	0.02704
3724.87229	0.02679
3723.58652	0.02667
3722.30075	0.02663
3721.01498	0.02666
3719.72922	0.02683
3718.44345	0.02716
3717.15768	0.02763
3715.87191	0.02809
3714.58614	0.02827
3713.30037	0.02781
3712.01460	0.02676
3710.72883	0.02578
3709.44307	0.02557
3708.15730	0.02615
3706.87153	0.02681
3705.58576	0.02687
3704.29999	0.02636
3703.01422	0.02584
3701.72845	0.02573
3700.44268	0.02591
3699.15691	0.02613
3697.87115	0.02638
3696.58538	0.02675
3695.29961	0.02710
3694.01384	0.02710
3692.72807	0.02672
3691.44230	0.02630
3690.15653	0.02627
3688.87076	0.02657
3687.58500	0.02689
3686.29923	0.02714
3685.01346	0.02745
3683.72769	0.02781
3682.44192	0.02796
3681.15615	0.02776
3679.87038	0.02725
3678.58461	0.02676
3677.29884	0.02667
3676.01308	0.02698
3674.72731	0.02737
3673.44154	0.02771
3672.15577	0.02817
3670.87000	0.02877
3669.58423	0.02919
3668.29846	0.02914
3667.01269	0.02861
3665.72693	0.02783
3664.44116	0.02716
3663.15539	0.02683
3661.86962	0.02686
3660.58385	0.02710
3659.29808	0.02742
3658.01231	0.02768
3656.72654	0.02782
3655.44077	0.02783
3654.15501	0.02787
3652.86924	0.02803
3651.58347	0.02827
3650.29770	0.02841
3649.01193	0.02837
3647.72616	0.02819
3646.44039	0.02799
3645.15462	0.02779
3643.86886	0.02756
3642.58309	0.02739
3641.29732	0.02752
3640.01155	0.02811
3638.72578	0.02899
3637.44001	0.02972
3636.15424	0.02993
3634.86847	0.02949
3633.58270	0.02857
3632.29694	0.02760
3631.01117	0.02703
3629.72540	0.02701
3628.43963	0.02730
3627.15386	0.02768
3625.86809	0.02819
3624.58232	0.02883
3623.29655	0.02944
3622.01079	0.02989
3620.72502	0.03013
3619.43925	0.03015
3618.15348	0.02985
3616.86771	0.02916
3615.58194	0.02829
3614.29617	0.02769
3613.01040	0.02770
3611.72463	0.02828
3610.43887	0.02899
3609.15310	0.02945
3607.86733	0.02963
3606.58156	0.02984
3605.29579	0.03026
3604.01002	0.03082
3602.72425	0.03129
3601.43848	0.03148
3600.15272	0.03125
3598.86695	0.03059
3597.58118	0.02981
3596.29541	0.02937
3595.00964	0.02957
3593.72387	0.03030
3592.43810	0.03115
3591.15233	0.03180
3589.86656	0.03207
3588.58080	0.03188
3587.29503	0.03119
3586.00926	0.03030
3584.72349	0.02978
3583.43772	0.03010
3582.15195	0.03120
3580.86618	0.03255
3579.58041	0.03368
3578.29464	0.03439
3577.00888	0.03467
3575.72311	0.03462
3574.43734	0.03452
3573.15157	0.03470
3571.86580	0.03524
3570.58003	0.03584
3569.29426	0.03620
3568.00849	0.03623
3566.72273	0.03603
3565.43696	0.03570
3564.15119	0.03528
3562.86542	0.03491
3561.57965	0.03481
3560.29388	0.03519
3559.00811	0.03599
3557.72234	0.03687
3556.43657	0.03734
3555.15081	0.03711
3553.86504	0.03626
3552.57927	0.03520
3551.29350	0.03434
3550.00773	0.03384
3548.72196	0.03368
3547.43619	0.03389
3546.15042	0.03454
3544.86466	0.03548
3543.57889	0.03628
3542.29312	0.03664
3541.00735	0.03662
3539.72158	0.03655
3538.43581	0.03667
3537.15004	0.03697
3535.86427	0.03734
3534.57850	0.03771
3533.29274	0.03797
3532.00697	0.03799
3530.72120	0.03774
3529.43543	0.03741
3528.14966	0.03724
3526.86389	0.03728
3525.57812	0.03741
3524.29235	0.03754
3523.00659	0.03766
3521.72082	0.03774
3520.43505	0.03771
3519.14928	0.03757
3517.86351	0.03741
3516.57774	0.03732
3515.29197	0.03738
3514.00620	0.03765
3512.72043	0.03811
3511.43467	0.03861
3510.14890	0.03898
3508.86313	0.03913
3507.57736	0.03917
3506.29159	0.03926
3505.00582	0.03940
3503.72005	0.03949
3502.43428	0.03946
3501.14852	0.03939
3499.86275	0.03939
3498.57698	0.03954
3497.29121	0.03982
3496.00544	0.04013
3494.71967	0.04043
3493.43390	0.04062
3492.14813	0.04054
3490.86236	0.04012
3489.57660	0.03955
3488.29083	0.03917
3487.00506	0.03914
3485.71929	0.03930
3484.43352	0.03942
3483.14775	0.03941
3481.86198	0.03944
3480.57621	0.03974
3479.29045	0.04045
3478.00468	0.04140
3476.71891	0.04221
3475.43314	0.04254
3474.14737	0.04238
3472.86160	0.04197
3471.57583	0.04161
3470.29006	0.04152
3469.00429	0.04177
3467.71853	0.04233
3466.43276	0.04298
3465.14699	0.04336
3463.86122	0.04322
3462.57545	0.04275
3461.28968	0.04245
3460.00391	0.04273
3458.71814	0.04342
3457.43238	0.04397
3456.14661	0.04404
3454.86084	0.04382
3453.57507	0.04374
3452.28930	0.04395
3451.00353	0.04427
3449.71776	0.04444
3448.43199	0.04437
3447.14622	0.04403
3445.86046	0.04356
3444.57469	0.04319
3443.28892	0.04314
3442.00315	0.04339
3440.71738	0.04380
3439.43161	0.04422
3438.14584	0.04455
3436.86007	0.04466
3435.57431	0.04448
3434.28854	0.04415
3433.00277	0.04391
3431.71700	0.04384
3430.43123	0.04378
3429.14546	0.04355
3427.85969	0.04327
3426.57392	0.04325
3425.28815	0.04362
3424.00239	0.04416
3422.71662	0.04456
3421.43085	0.04467
3420.14508	0.04457
3418.85931	0.04441
3417.57354	0.04428
3416.28777	0.04428
3415.00200	0.04436
3413.71624	0.04443
3412.43047	0.04440
3411.14470	0.04434
3409.85893	0.04430
3408.57316	0.04431
3407.28739	0.04443
3406.00162	0.04475
3404.71585	0.04528
3403.43008	0.04575
3402.14432	0.04585
3400.85855	0.04557
3399.57278	0.04525
3398.28701	0.04518
3397.00124	0.04528
3395.71547	0.04529
3394.42970	0.04521
3393.14393	0.04527
3391.85817	0.04561
3390.57240	0.04601
3389.28663	0.04611
3388.00086	0.04589
3386.71509	0.04568
3385.42932	0.04577
3384.14355	0.04612
3382.85778	0.04653
3381.57201	0.04685
3380.28625	0.04705
3379.00048	0.04713
3377.71471	0.04702
3376.42894	0.04667
3375.14317	0.04607
3373.85740	0.04538
3372.57163	0.04487
3371.28586	0.04481
3370.00010	0.04531
3368.71433	0.04615
3367.42856	0.04701
3366.14279	0.04767
3364.85702	0.04804
3363.57125	0.04809
3362.28548	0.04783
3360.99971	0.04732
3359.71394	0.04673
3358.42818	0.04629
3357.14241	0.04621
3355.85664	0.04659
3354.57087	0.04726
3353.28510	0.04785
3351.99933	0.04804
3350.71356	0.04785
3349.42779	0.04755
3348.14202	0.04737
3346.85626	0.04732
3345.57049	0.04733
3344.28472	0.04733
3342.99895	0.04731
3341.71318	0.04723
3340.42741	0.04711
3339.14164	0.04704
3337.85587	0.04711
3336.57011	0.04729
3335.28434	0.04739
3333.99857	0.04727
3332.71280	0.04704
3331.42703	0.04695
3330.14126	0.04712
3328.85549	0.04737
3327.56972	0.04737
3326.28395	0.04704
3324.99819	0.04662
3323.71242	0.04645
3322.42665	0.04665
3321.14088	0.04700
3319.85511	0.04718
3318.56934	0.04707
3317.28357	0.04681
3315.99780	0.04671
3314.71204	0.04692
3313.42627	0.04727
3312.14050	0.04748
3310.85473	0.04750
3309.56896	0.04741
3308.28319	0.04730
3306.99742	0.04714
3305.71165	0.04690
3304.42588	0.04668
3303.14012	0.04660
3301.85435	0.04679
3300.56858	0.04722
3299.28281	0.04766
3297.99704	0.04784
3296.71127	0.04763
3295.42550	0.04723
3294.13973	0.04699
3292.85397	0.04709
3291.56820	0.04744
3290.28243	0.04777
3288.99666	0.04792
3287.71089	0.04790
3286.42512	0.04776
3285.13935	0.04744
3283.85358	0.04695
3282.56781	0.04646
3281.28205	0.04622
3279.99628	0.04634
3278.71051	0.04672
3277.42474	0.04728
3276.13897	0.04786
3274.85320	0.04827
3273.56743	0.04828
3272.28166	0.04782
3270.99590	0.04715
3269.71013	0.04664
3268.42436	0.04653
3267.13859	0.04675
3265.85282	0.04693
3264.56705	0.04680
3263.28128	0.04640
3261.99551	0.04598
3260.70974	0.04574
3259.42398	0.04569
3258.13821	0.04571
3256.85244	0.04570
3255.56667	0.04562
3254.28090	0.04550
3252.99513	0.04543
3251.70936	0.04550
3250.42359	0.04570
3249.13783	0.04591
3247.85206	0.04599
3246.56629	0.04596
3245.28052	0.04589
3243.99475	0.04579
3242.70898	0.04560
3241.42321	0.04532
3240.13744	0.04510
3238.85167	0.04512
3237.56591	0.04545
3236.28014	0.04595
3234.99437	0.04632
3233.70860	0.04635
3232.42283	0.04605
3231.13706	0.04567
3229.85129	0.04545
3228.56552	0.04539
3227.27976	0.04533
3225.99399	0.04525
3224.70822	0.04527
3223.42245	0.04546
3222.13668	0.04576
3220.85091	0.04593
3219.56514	0.04573
3218.27937	0.04506
3216.99360	0.04416
3215.70784	0.04344
3214.42207	0.04315
3213.13630	0.04316
3211.85053	0.04322
3210.56476	0.04323
3209.27899	0.04333
3207.99322	0.04356
3206.70745	0.04385
3205.42169	0.04411
3204.13592	0.04432
3202.85015	0.04444
3201.56438	0.04444
3200.27861	0.04433
3198.99284	0.04425
3197.70707	0.04423
3196.42130	0.04424
3195.13553	0.04420
3193.84977	0.04411
3192.56400	0.04396
3191.27823	0.04374
3189.99246	0.04347
3188.70669	0.04323
3187.42092	0.04303
3186.13515	0.04278
3184.84938	0.04241
3183.56362	0.04206
3182.27785	0.04197
3180.99208	0.04229
3179.70631	0.04292
3178.42054	0.04359
3177.13477	0.04398
3175.84900	0.04388
3174.56323	0.04334
3173.27746	0.04263
3171.99170	0.04204
3170.70593	0.04169
3169.42016	0.04149
3168.13439	0.04131
3166.84862	0.04118
3165.56285	0.04111
3164.27708	0.04115
3162.99131	0.04132
3161.70555	0.04162
3160.41978	0.04194
3159.13401	0.04210
3157.84824	0.04193
3156.56247	0.04144
3155.27670	0.04088
3153.99093	0.04054
3152.70516	0.04062
3151.41939	0.04107
3150.13363	0.04164
3148.84786	0.04198
3147.56209	0.04184
3146.27632	0.04128
3144.99055	0.04065
3143.70478	0.04030
3142.41901	0.04030
3141.13324	0.04036
3139.84748	0.04018
3138.56171	0.03969
3137.27594	0.03913
3135.99017	0.03882
3134.70440	0.03889
3133.41863	0.03926
3132.13286	0.03970
3130.84709	0.04002
3129.56132	0.04017
3128.27556	0.04019
3126.98979	0.04013
3125.70402	0.04004
3124.41825	0.03993
3123.13248	0.03985
3121.84671	0.03983
3120.56094	0.03985
3119.27517	0.03984
3117.98940	0.03982
3116.70364	0.03981
3115.41787	0.03979
3114.13210	0.03969
3112.84633	0.03951
3111.56056	0.03929
3110.27479	0.03908
3108.98902	0.03883
3107.70325	0.03859
3106.41749	0.03844
3105.13172	0.03848
3103.84595	0.03867
3102.56018	0.03887
3101.27441	0.03897
3099.98864	0.03896
3098.70287	0.03891
3097.41710	0.03889
3096.13133	0.03891
3094.84557	0.03902
3093.55980	0.03921
3092.27403	0.03935
3090.98826	0.03931
3089.70249	0.03910
3088.41672	0.03888
3087.13095	0.03879
3085.84518	0.03881
3084.55942	0.03886
3083.27365	0.03890
3081.98788	0.03889
3080.70211	0.03881
3079.41634	0.03871
3078.13057	0.03866
3076.84480	0.03879
3075.55903	0.03908
3074.27326	0.03935
3072.98750	0.03940
3071.70173	0.03918
3070.41596	0.03885
3069.13019	0.03862
3067.84442	0.03855
3066.55865	0.03847
3065.27288	0.03826
3063.98711	0.03794
3062.70135	0.03768
3061.41558	0.03766
3060.12981	0.03784
3058.84404	0.03798
3057.55827	0.03782
3056.27250	0.03729
3054.98673	0.03667
3053.70096	0.03631
3052.41519	0.03641
3051.12943	0.03689
3049.84366	0.03748
3048.55789	0.03788
3047.27212	0.03793
3045.98635	0.03768
3044.70058	0.03734
3043.41481	0.03707
3042.12904	0.03690
3040.84328	0.03679
3039.55751	0.03674
3038.27174	0.03677
3036.98597	0.03685
3035.70020	0.03688
3034.41443	0.03685
3033.12866	0.03688
3031.84289	0.03705
3030.55712	0.03727
3029.27136	0.03731
3027.98559	0.03703
3026.69982	0.03655
3025.41405	0.03613
3024.12828	0.03595
3022.84251	0.03596
3021.55674	0.03605
3020.27097	0.03619
3018.98521	0.03640
3017.69944	0.03664
3016.41367	0.03678
3015.12790	0.03668
3013.84213	0.03631
3012.55636	0.03582
3011.27059	0.03540
3009.98482	0.03517
3008.69905	0.03507
3007.41329	0.03497
3006.12752	0.03482
3004.84175	0.03466
3003.55598	0.03459
3002.27021	0.03460
3000.98444	0.03463
2999.69867	0.03468
2998.41290	0.03485
2997.12714	0.03522
2995.84137	0.03567
2994.55560	0.03597
2993.26983	0.03607
2991.98406	0.03603
2990.69829	0.03591
2989.41252	0.03573
2988.12675	0.03547
2986.84098	0.03514
2985.55522	0.03488
2984.26945	0.03480
2982.98368	0.03493
2981.69791	0.03514
2980.41214	0.03529
2979.12637	0.03528
2977.84060	0.03511
2976.55483	0.03489
2975.26907	0.03477
2973.98330	0.03486
2972.69753	0.03514
2971.41176	0.03548
2970.12599	0.03579
2968.84022	0.03605
2967.55445	0.03628
2966.26868	0.03654
2964.98291	0.03691
2963.69715	0.03733
2962.41138	0.03763
2961.12561	0.03767
2959.83984	0.03753
2958.55407	0.03746
2957.26830	0.03756
2955.98253	0.03767
2954.69676	0.03760
2953.41100	0.03739
2952.12523	0.03726
2950.83946	0.03736
2949.55369	0.03758
2948.26792	0.03775
2946.98215	0.03775
2945.69638	0.03760
2944.41061	0.03738
2943.12484	0.03717
2941.83908	0.03702
2940.55331	0.03694
2939.26754	0.03692
2937.98177	0.03691
2936.69600	0.03694
2935.41023	0.03710
2934.12446	0.03742
2932.83869	0.03785
2931.55293	0.03822
2930.26716	0.03838
2928.98139	0.03829
2927.69562	0.03804
2926.40985	0.03775
2925.12408	0.03753
2923.83831	0.03743
2922.55254	0.03741
2921.26677	0.03738
2919.98101	0.03727
2918.69524	0.03706
2917.40947	0.03676
2916.12370	0.03647
2914.83793	0.03629
2913.55216	0.03631
2912.26639	0.03650
2910.98062	0.03669
2909.69486	0.03678
2908.40909	0.03669
2907.12332	0.03645
2905.83755	0.03610
2904.55178	0.03575
2903.26601	0.03544
2901.98024	0.03516
2900.69447	0.03491
2899.40870	0.03481
2898.12294	0.03495
2896.83717	0.03519
2895.55140	0.03526
2894.26563	0.03511
2892.97986	0.03490
2891.69409	0.03483
2890.40832	0.03497
2889.12255	0.03518
2887.83678	0.03530
2886.55102	0.03527
2885.26525	0.03517
2883.97948	0.03509
2882.69371	0.03496
2881.40794	0.03473
2880.12217	0.03445
2878.83640	0.03427
2877.55063	0.03430
2876.26487	0.03449
2874.97910	0.03472
2873.69333	0.03490
2872.40756	0.03497
2871.12179	0.03490
2869.83602	0.03468
2868.55025	0.03433
2867.26448	0.03394
2865.97871	0.03358
2864.69295	0.03333
2863.40718	0.03321
2862.12141	0.03321
2860.83564	0.03327
2859.54987	0.03329
2858.26410	0.03320
2856.97833	0.03309
2855.69256	0.03306
2854.40680	0.03315
2853.12103	0.03325
2851.83526	0.03321
2850.54949	0.03301
2849.26372	0.03273
2847.97795	0.03245
2846.69218	0.03224
2845.40641	0.03213
2844.12064	0.03213
2842.83488	0.03221
2841.54911	0.03225
2840.26334	0.03216
2838.97757	0.03196
2837.69180	0.03168
2836.40603	0.03143
2835.12026	0.03128
2833.83449	0.03122
2832.54873	0.03118
2831.26296	0.03117
2829.97719	0.03123
2828.69142	0.03130
2827.40565	0.03123
2826.11988	0.03096
2824.83411	0.03062
2823.54834	0.03039
2822.26257	0.03027
2820.97681	0.03023
2819.69104	0.03025
2818.40527	0.03037
2817.11950	0.03050
2815.83373	0.03047
2814.54796	0.03020
2813.26219	0.02981
2811.97642	0.02949
2810.69066	0.02939
2809.40489	0.02950
2808.11912	0.02970
2806.83335	0.02984
2805.54758	0.02982
2804.26181	0.02966
2802.97604	0.02943
2801.69027	0.02924
2800.40450	0.02913
2799.11874	0.02906
2797.83297	0.02899
2796.54720	0.02895
2795.26143	0.02898
2793.97566	0.02898
2792.68989	0.02884
2791.40412	0.02859
2790.11835	0.02839
2788.83259	0.02837
2787.54682	0.02845
2786.26105	0.02851
2784.97528	0.02849
2783.68951	0.02842
2782.40374	0.02836
2781.11797	0.02833
2779.83220	0.02828
2778.54643	0.02821
2777.26067	0.02818
2775.97490	0.02823
2774.68913	0.02831
2773.40336	0.02835
2772.11759	0.02835
2770.83182	0.02835
2769.54605	0.02833
2768.26028	0.02828
2766.97452	0.02819
2765.68875	0.02811
2764.40298	0.02807
2763.11721	0.02808
2761.83144	0.02807
2760.54567	0.02801
2759.25990	0.02797
2757.97413	0.02804
2756.68836	0.02819
2755.40260	0.02828
2754.11683	0.02822
2752.83106	0.02806
2751.54529	0.02794
2750.25952	0.02788
2748.97375	0.02780
2747.68798	0.02760
2746.40221	0.02735
2745.11645	0.02719
2743.83068	0.02720
2742.54491	0.02734
2741.25914	0.02754
2739.97337	0.02777
2738.68760	0.02795
2737.40183	0.02793
2736.11606	0.02769
2734.83029	0.02735
2733.54453	0.02708
2732.25876	0.02698
2730.97299	0.02703
2729.68722	0.02718
2728.40145	0.02730
2727.11568	0.02726
2725.82991	0.02701
2724.54414	0.02668
2723.25838	0.02648
2721.97261	0.02650
2720.68684	0.02666
2719.40107	0.02679
2718.11530	0.02680
2716.82953	0.02674
2715.54376	0.02670
2714.25799	0.02678
2712.97222	0.02694
2711.68646	0.02708
2710.40069	0.02705
2709.11492	0.02683
2707.82915	0.02653
2706.54338	0.02625
2705.25761	0.02610
2703.97184	0.02610
2702.68607	0.02619
2701.40031	0.02626
2700.11454	0.02627
2698.82877	0.02626
2697.54300	0.02632
2696.25723	0.02649
2694.97146	0.02668
2693.68569	0.02681
2692.39992	0.02679
2691.11415	0.02665
2689.82839	0.02651
2688.54262	0.02644
2687.25685	0.02644
2685.97108	0.02645
2684.68531	0.02644
2683.39954	0.02635
2682.11377	0.02618
2680.82800	0.02593
2679.54224	0.02569
2678.25647	0.02556
2676.97070	0.02556
2675.68493	0.02567
2674.39916	0.02578
2673.11339	0.02578
2671.82762	0.02568
2670.54185	0.02557
2669.25608	0.02548
2667.97032	0.02537
2666.68455	0.02519
2665.39878	0.02503
2664.11301	0.02500
2662.82724	0.02519
2661.54147	0.02554
2660.25570	0.02589
2658.96993	0.02603
2657.68417	0.02589
2656.39840	0.02557
2655.11263	0.02529
2653.82686	0.02517
2652.54109	0.02518
2651.25532	0.02522
2649.96955	0.02523
2648.68378	0.02518
2647.39801	0.02510
2646.11225	0.02502
2644.82648	0.02496
2643.54071	0.02488
2642.25494	0.02473
2640.96917	0.02449
2639.68340	0.02423
2638.39763	0.02403
2637.11186	0.02400
2635.82609	0.02417
2634.54033	0.02446
2633.25456	0.02465
2631.96879	0.02457
2630.68302	0.02425
2629.39725	0.02385
2628.11148	0.02354
2626.82571	0.02336
2625.53994	0.02332
2624.25418	0.02339
2622.96841	0.02348
2621.68264	0.02343
2620.39687	0.02316
2619.11110	0.02275
2617.82533	0.02247
2616.53956	0.02251
2615.25379	0.02280
2613.96802	0.02309
2612.68226	0.02321
2611.39649	0.02312
2610.11072	0.02293
2608.82495	0.02275
2607.53918	0.02261
2606.25341	0.02248
2604.96764	0.02230
2603.68187	0.02209
2602.39611	0.02197
2601.11034	0.02205
2599.82457	0.02229
2598.53880	0.02255
2597.25303	0.02272
2595.96726	0.02282
2594.68149	0.02287
2593.39572	0.02279
2592.10995	0.02251
2590.82419	0.02212
2589.53842	0.02182
2588.25265	0.02169
2586.96688	0.02167
2585.68111	0.02168
2584.39534	0.02174
2583.10957	0.02187
2581.82380	0.02206
2580.53804	0.02216
2579.25227	0.02205
2577.96650	0.02172
2576.68073	0.02138
2575.39496	0.02119
2574.10919	0.02114
2572.82342	0.02110
2571.53765	0.02104
2570.25188	0.02101
2568.96612	0.02101
2567.68035	0.02088
2566.39458	0.02054
2565.10881	0.02017
2563.82304	0.02002
2562.53727	0.02012
2561.25150	0.02019
2559.96573	0.01995
2558.67997	0.01946
2557.39420	0.01902
2556.10843	0.01886
2554.82266	0.01898
2553.53689	0.01925
2552.25112	0.01962
2550.96535	0.02005
2549.67958	0.02038
2548.39381	0.02043
2547.10805	0.02024
2545.82228	0.02008
2544.53651	0.02019
2543.25074	0.02051
2541.96497	0.02070
2540.67920	0.02060
2539.39343	0.02037
2538.10766	0.02020
2536.82190	0.02013
2535.53613	0.02005
2534.25036	0.01989
2532.96459	0.01967
2531.67882	0.01945
2530.39305	0.01930
2529.10728	0.01926
2527.82151	0.01931
2526.53574	0.01935
2525.24998	0.01935
2523.96421	0.01940
2522.67844	0.01959
2521.39267	0.01976
2520.10690	0.01965
2518.82113	0.01927
2517.53536	0.01893
2516.24959	0.01891
2514.96383	0.01917
2513.67806	0.01948
2512.39229	0.01972
2511.10652	0.01984
2509.82075	0.01977
2508.53498	0.01942
2507.24921	0.01893
2505.96344	0.01865
2504.67767	0.01883
2503.39191	0.01933
2502.10614	0.01977
2500.82037	0.01990
2499.53460	0.01977
2498.24883	0.01966
2496.96306	0.01969
2495.67729	0.01966
2494.39152	0.01929
2493.10576	0.01858
2491.81999	0.01786
2490.53422	0.01745
2489.24845	0.01743
2487.96268	0.01766
2486.67691	0.01805
2485.39114	0.01849
2484.10537	0.01888
2482.81960	0.01910
2481.53384	0.01911
2480.24807	0.01901
2478.96230	0.01890
2477.67653	0.01881
2476.39076	0.01872
2475.10499	0.01867
2473.81922	0.01872
2472.53345	0.01882
2471.24769	0.01890
2469.96192	0.01894
2468.67615	0.01898
2467.39038	0.01908
2466.10461	0.01925
2464.81884	0.01948
2463.53307	0.01968
2462.24730	0.01971
2460.96153	0.01951
2459.67577	0.01916
2458.39000	0.01879
2457.10423	0.01846
2455.81846	0.01828
2454.53269	0.01841
2453.24692	0.01889
2451.96115	0.01952
2450.67538	0.01994
2449.38962	0.01995
2448.10385	0.01964
2446.81808	0.01929
2445.53231	0.01906
2444.24654	0.01889
2442.96077	0.01862
2441.67500	0.01820
2440.38923	0.01780
2439.10346	0.01761
2437.81770	0.01769
2436.53193	0.01793
2435.24616	0.01820
2433.96039	0.01843
2432.67462	0.01850
2431.38885	0.01838
2430.10308	0.01809
2428.81731	0.01774
2427.53155	0.01743
2426.24578	0.01730
2424.96001	0.01743
2423.67424	0.01775
2422.38847	0.01803
2421.10270	0.01807
2419.81693	0.01786
2418.53116	0.01761
2417.24539	0.01755
2415.95963	0.01774
2414.67386	0.01804
2413.38809	0.01827
2412.10232	0.01833
2410.81655	0.01828
2409.53078	0.01818
2408.24501	0.01802
2406.95924	0.01778
2405.67347	0.01758
2404.38771	0.01757
2403.10194	0.01778
2401.81617	0.01806
2400.53040	0.01813
2399.24463	0.01790
2397.95886	0.01749
2396.67309	0.01716
2395.38732	0.01707
2394.10156	0.01721
2392.81579	0.01744
2391.53002	0.01758
2390.24425	0.01760
2388.95848	0.01759
2387.67271	0.01766
2386.38694	0.01783
2385.10117	0.01799
2383.81540	0.01806
2382.52964	0.01809
2381.24387	0.01817
2379.95810	0.01834
2378.67233	0.01853
2377.38656	0.01865
2376.10079	0.01863
2374.81502	0.01848
2373.52925	0.01823
2372.24349	0.01793
2370.95772	0.01769
2369.67195	0.01756
2368.38618	0.01764
2367.10041	0.01792
2365.81464	0.01830
2364.52887	0.01857
2363.24310	0.01867
2361.95733	0.01867
2360.67157	0.01867
2359.38580	0.01859
2358.10003	0.01845
2356.81426	0.01830
2355.52849	0.01825
2354.24272	0.01836
2352.95695	0.01856
2351.67118	0.01871
2350.38542	0.01875
2349.09965	0.01863
2347.81388	0.01839
2346.52811	0.01821
2345.24234	0.01821
2343.95657	0.01840
2342.67080	0.01863
2341.38503	0.01880
2340.09926	0.01887
2338.81350	0.01884
2337.52773	0.01886
2336.24196	0.01890
2334.95619	0.01890
2333.67042	0.01885
2332.38465	0.01864
2331.09888	0.01843
2329.81311	0.01841
2328.52735	0.01865
2327.24158	0.01922
2325.95581	0.01987
2324.67004	0.02023
2323.38427	0.02025
2322.09850	0.02006
2320.81273	0.01978
2319.52696	0.01957
2318.24119	0.01933
2316.95543	0.01894
2315.66966	0.01851
2314.38389	0.01817
2313.09812	0.01809
2311.81235	0.01833
2310.52658	0.01868
2309.24081	0.01890
2307.95504	0.01888
2306.66928	0.01867
2305.38351	0.01844
2304.09774	0.01822
2302.81197	0.01789
2301.52620	0.01742
2300.24043	0.01691
2298.95466	0.01651
2297.66889	0.01628
2296.38312	0.01621
2295.09736	0.01631
2293.81159	0.01659
2292.52582	0.01698
2291.24005	0.01730
2289.95428	0.01739
2288.66851	0.01720
2287.38274	0.01677
2286.09697	0.01621
2284.81121	0.01567
2283.52544	0.01527
2282.23967	0.01514
2280.95390	0.01536
2279.66813	0.01582
2278.38236	0.01631
2277.09659	0.01663
2275.81082	0.01677
2274.52505	0.01673
2273.23929	0.01652
2271.95352	0.01616
2270.66775	0.01569
2269.38198	0.01519
2268.09621	0.01475
2266.81044	0.01448
2265.52467	0.01437
2264.23890	0.01434
2262.95314	0.01426
2261.66737	0.01416
2260.38160	0.01424
2259.09583	0.01462
2257.81006	0.01513
2256.52429	0.01535
2255.23852	0.01500
2253.95275	0.01428
2252.66698	0.01362
2251.38122	0.01323
2250.09545	0.01297
2248.80968	0.01262
2247.52391	0.01223
2246.23814	0.01223
2244.95237	0.01285
2243.66660	0.01383
2242.38083	0.01449
2241.09507	0.01436
2239.80930	0.01367
2238.52353	0.01311
2237.23776	0.01318
2235.95199	0.01367
2234.66622	0.01399
2233.38045	0.01376
2232.09468	0.01314
2230.80891	0.01258
2229.52315	0.01228
2228.23738	0.01203
2226.95161	0.01170
2225.66584	0.01141
2224.38007	0.01138
2223.09430	0.01159
2221.80853	0.01176
2220.52276	0.01174
2219.23700	0.01154
2217.95123	0.01124
2216.66546	0.01084
2215.37969	0.01040
2214.09392	0.00998
2212.80815	0.00967
2211.52238	0.00967
2210.23661	0.01008
2208.95084	0.01066
2207.66508	0.01092
2206.37931	0.01049
2205.09354	0.00963
2203.80777	0.00899
2202.52200	0.00906
2201.23623	0.00978
2199.95046	0.01066
2198.66469	0.01123
2197.37893	0.01121
2196.09316	0.01051
2194.80739	0.00917
2193.52162	0.00750
2192.23585	0.00610
2190.95008	0.00565
2189.66431	0.00638
2188.37854	0.00780
2187.09277	0.00898
2185.80701	0.00926
2184.52124	0.00878
2183.23547	0.00824
2181.94970	0.00813
2180.66393	0.00838
2179.37816	0.00869
2178.09239	0.00889
2176.80662	0.00891
2175.52085	0.00876
2174.23509	0.00853
2172.94932	0.00849
2171.66355	0.00874
2170.37778	0.00898
2169.09201	0.00883
2167.80624	0.00832
2166.52047	0.00784
2165.23470	0.00767
2163.94894	0.00770
2162.66317	0.00786
2161.37740	0.00821
2160.09163	0.00858
2158.80586	0.00834
2157.52009	0.00722
2156.23432	0.00588
2154.94855	0.00514
2153.66278	0.00505
2152.37702	0.00499
2151.09125	0.00467
2149.80548	0.00444
2148.51971	0.00475
2147.23394	0.00559
2145.94817	0.00650
2144.66240	0.00707
2143.37663	0.00713
2142.09087	0.00677
2140.80510	0.00638
2139.51933	0.00650
2138.23356	0.00743
2136.94779	0.00875
2135.66202	0.00971
2134.37625	0.00988
2133.09048	0.00953
2131.80471	0.00912
2130.51895	0.00881
2129.23318	0.00846
2127.94741	0.00813
2126.66164	0.00808
2125.37587	0.00845
2124.09010	0.00903
2122.80433	0.00948
2121.51856	0.00973
2120.23280	0.00994
2118.94703	0.01026
2117.66126	0.01058
2116.37549	0.01068
2115.08972	0.01047
2113.80395	0.01009
2112.51818	0.00984
2111.23241	0.00986
2109.94664	0.00996
2108.66088	0.00970
2107.37511	0.00890
2106.08934	0.00793
2104.80357	0.00739
2103.51780	0.00755
2102.23203	0.00817
2100.94626	0.00882
2099.66049	0.00880
2098.37473	0.00873
2097.08896	0.00872
2095.80319	0.00879
2094.51742	0.00906
2093.23165	0.00950
2091.94588	0.00984
2090.66011	0.00988
2089.37434	0.00968
2088.08857	0.00945
2086.80281	0.00929
2085.51704	0.00912
2084.23127	0.00898
2082.94550	0.00900
2081.65973	0.00928
2080.37396	0.00960
2079.08819	0.00968
2077.80242	0.00941
2076.51666	0.00891
2075.23089	0.00825
2073.94512	0.00749
2072.65935	0.00690
2071.37358	0.00688
2070.08781	0.00745
2068.80204	0.00805
2067.51627	0.00807
2066.23050	0.00750
2064.94474	0.00686
2063.65897	0.00665
2062.37320	0.00685
2061.08743	0.00711
2059.80166	0.00716
2058.51589	0.00700
2057.23012	0.00680
2055.94435	0.00670
2054.65859	0.00670
2053.37282	0.00665
2052.08705	0.00629
2050.80128	0.00547
2049.51551	0.00447
2048.22974	0.00387
2046.94397	0.00404
2045.65820	0.00471
2044.37243	0.00526
2043.08667	0.00516
2041.80090	0.00443
2040.51513	0.00346
2039.22936	0.00270
2037.94359	0.00222
2036.65782	0.00179
2035.37205	0.00126
2034.08628	0.00082
2032.80052	0.00079
2031.51475	0.00131
2030.22898	0.00224
2028.94321	0.00325
2027.65744	0.00396
2026.37167	0.00412
2025.08590	0.00364
2023.80013	0.00276
2022.51436	0.00195
2021.22860	0.00159
2019.94283	0.00170
2018.65706	0.00194
2017.37129	0.00201
2016.08552	0.00187
2014.79975	0.00164
2013.51398	0.00139
2012.22821	0.00115
2010.94245	0.00093
2009.65668	0.00069
2008.37091	0.00040
2007.08514	0.00019
2005.79937	0.00028
2004.51360	0.00080
2003.22783	0.00175
2001.94206	0.00310
2000.65629	0.00463
1999.37053	0.00584
1998.08476	0.00635
1996.79899	0.00633
1995.51322	0.00638
1994.22745	0.00679
1992.94168	0.00726
1991.65591	0.00741
1990.37014	0.00721
1989.08438	0.00684
1987.79861	0.00630
1986.51284	0.00555
1985.22707	0.00467
1983.94130	0.00397
1982.65553	0.00376
1981.36976	0.00411
1980.08399	0.00469
1978.79822	0.00496
1977.51246	0.00460
1976.22669	0.00377
1974.94092	0.00283
1973.65515	0.00206
1972.36938	0.00168
1971.08361	0.00186
1969.79784	0.00255
1968.51207	0.00347
1967.22631	0.00434
1965.94054	0.00514
1964.65477	0.00602
1963.36900	0.00692
1962.08323	0.00758
1960.79746	0.00781
1959.51169	0.00770
1958.22592	0.00750
1956.94015	0.00736
1955.65439	0.00724
1954.36862	0.00705
1953.08285	0.00686
1951.79708	0.00688
1950.51131	0.00727
1949.22554	0.00795
1947.93977	0.00866
1946.65400	0.00907
1945.36823	0.00902
1944.08247	0.00867
1942.79670	0.00831
1941.51093	0.00818
1940.22516	0.00834
1938.93939	0.00866
1937.65362	0.00890
1936.36785	0.00892
1935.08208	0.00874
1933.79632	0.00847
1932.51055	0.00827
1931.22478	0.00818
1929.93901	0.00823
1928.65324	0.00840
1927.36747	0.00869
1926.08170	0.00896
1924.79593	0.00904
1923.51016	0.00896
1922.22440	0.00893
1920.93863	0.00916
1919.65286	0.00956
1918.36709	0.00988
1917.08132	0.01000
1915.79555	0.01001
1914.50978	0.00999
1913.22401	0.00991
1911.93825	0.00975
1910.65248	0.00955
1909.36671	0.00936
1908.08094	0.00925
1906.79517	0.00926
1905.50940	0.00935
1904.22363	0.00940
1902.93786	0.00930
1901.65209	0.00909
1900.36633	0.00889
1899.08056	0.00879
1897.79479	0.00880
1896.50902	0.00883
1895.22325	0.00886
1893.93748	0.00892
1892.65171	0.00912
1891.36594	0.00942
1890.08018	0.00963
1888.79441	0.00955
1887.50864	0.00927
1886.22287	0.00909
1884.93710	0.00917
1883.65133	0.00935
1882.36556	0.00936
1881.07979	0.00919
1879.79402	0.00903
1878.50826	0.00908
1877.22249	0.00932
1875.93672	0.00956
1874.65095	0.00963
1873.36518	0.00944
1872.07941	0.00905
1870.79364	0.00866
1869.50787	0.00849
1868.22211	0.00863
1866.93634	0.00897
1865.65057	0.00933
1864.36480	0.00953
1863.07903	0.00948
1861.79326	0.00926
1860.50749	0.00903
1859.22172	0.00895
1857.93595	0.00906
1856.65019	0.00930
1855.36442	0.00954
1854.07865	0.00968
1852.79288	0.00973
1851.50711	0.00976
1850.22134	0.00985
1848.93557	0.00994
1847.64980	0.01000
1846.36404	0.01009
1845.07827	0.01027
1843.79250	0.01041
1842.50673	0.01034
1841.22096	0.01009
1839.93519	0.00983
1838.64942	0.00968
1837.36365	0.00963
1836.07788	0.00959
1834.79212	0.00953
1833.50635	0.00957
1832.22058	0.00977
1830.93481	0.01009
1829.64904	0.01034
1828.36327	0.01039
1827.07750	0.01029
1825.79173	0.01013
1824.50597	0.00998
1823.22020	0.00983
1821.93443	0.00965
1820.64866	0.00942
1819.36289	0.00927
1818.07712	0.00934
1816.79135	0.00963
1815.50558	0.00998
1814.21981	0.01023
1812.93405	0.01034
1811.64828	0.01036
1810.36251	0.01038
1809.07674	0.01045
1807.79097	0.01057
1806.50520	0.01069
1805.21943	0.01077
1803.93366	0.01078
1802.64790	0.01069
1801.36213	0.01050
1800.07636	0.01030
1798.79059	0.01022
1797.50482	0.01029
1796.21905	0.01043
1794.93328	0.01052
1793.64751	0.01057
1792.36174	0.01058
1791.07598	0.01059
1789.79021	0.01059
1788.50444	0.01063
1787.21867	0.01069
1785.93290	0.01074
1784.64713	0.01074
1783.36136	0.01066
1782.07559	0.01053
1780.78983	0.01039
1779.50406	0.01023
1778.21829	0.01008
1776.93252	0.01000
1775.64675	0.01005
1774.36098	0.01022
1773.07521	0.01041
1771.78944	0.01054
1770.50367	0.01063
1769.21791	0.01072
1767.93214	0.01079
1766.64637	0.01079
1765.36060	0.01078
1764.07483	0.01087
1762.78906	0.01105
1761.50329	0.01119
1760.21752	0.01122
1758.93176	0.01114
1757.64599	0.01105
1756.36022	0.01099
1755.07445	0.01097
1753.78868	0.01102
1752.50291	0.01108
1751.21714	0.01110
1749.93137	0.01108
1748.64560	0.01109
1747.35984	0.01117
1746.07407	0.01128
1744.78830	0.01135
1743.50253	0.01138
1742.21676	0.01141
1740.93099	0.01144
1739.64522	0.01144
1738.35945	0.01136
1737.07369	0.01129
1735.78792	0.01134
1734.50215	0.01147
1733.21638	0.01156
1731.93061	0.01163
1730.64484	0.01175
1729.35907	0.01191
1728.07330	0.01201
1726.78753	0.01204
1725.50177	0.01205
1724.21600	0.01206
1722.93023	0.01207
1721.64446	0.01212
1720.35869	0.01227
1719.07292	0.01254
1717.78715	0.01283
1716.50138	0.01305
1715.21561	0.01320
1713.92985	0.01338
1712.64408	0.01360
1711.35831	0.01383
1710.07254	0.01409
1708.78677	0.01436
1707.50100	0.01465
1706.21523	0.01491
1704.92946	0.01512
1703.64370	0.01537
1702.35793	0.01575
1701.07216	0.01625
1699.78639	0.01672
1698.50062	0.01719
1697.21485	0.01779
1695.92908	0.01846
1694.64331	0.01903
1693.35754	0.01954
1692.07178	0.02011
1690.78601	0.02071
1689.50024	0.02123
1688.21447	0.02168
1686.92870	0.02219
1685.64293	0.02282
1684.35716	0.02344
1683.07139	0.02396
1681.78563	0.02448
1680.49986	0.02505
1679.21409	0.02562
1677.92832	0.02614
1676.64255	0.02663
1675.35678	0.02709
1674.07101	0.02749
1672.78524	0.02795
1671.49947	0.02854
1670.21371	0.02922
1668.92794	0.02986
1667.64217	0.03042
1666.35640	0.03097
1665.07063	0.03153
1663.78486	0.03206
1662.49909	0.03248
1661.21332	0.03282
1659.92756	0.03315
1658.64179	0.03349
1657.35602	0.03382
1656.07025	0.03418
1654.78448	0.03463
1653.49871	0.03505
1652.21294	0.03526
1650.92717	0.03531
1649.64140	0.03544
1648.35564	0.03575
1647.06987	0.03608
1645.78410	0.03627
1644.49833	0.03631
1643.21256	0.03629
1641.92679	0.03625
1640.64102	0.03619
1639.35525	0.03610
1638.06949	0.03603
1636.78372	0.03598
1635.49795	0.03587
1634.21218	0.03566
1632.92641	0.03542
1631.64064	0.03526
1630.35487	0.03515
1629.06910	0.03501
1627.78333	0.03481
1626.49757	0.03454
1625.21180	0.03426
1623.92603	0.03399
1622.64026	0.03373
1621.35449	0.03347
1620.06872	0.03326
1618.78295	0.03315
1617.49718	0.03306
1616.21142	0.03289
1614.92565	0.03268
1613.63988	0.03259
1612.35411	0.03265
1611.06834	0.03275
1609.78257	0.03280
1608.49680	0.03281
1607.21103	0.03282
1605.92526	0.03287
1604.63950	0.03294
1603.35373	0.03301
1602.06796	0.03308
1600.78219	0.03317
1599.49642	0.03328
1598.21065	0.03339
1596.92488	0.03350
1595.63911	0.03361
1594.35335	0.03376
1593.06758	0.03394
1591.78181	0.03412
1590.49604	0.03429
1589.21027	0.03446
1587.92450	0.03462
1586.63873	0.03478
1585.35296	0.03491
1584.06719	0.03501
1582.78143	0.03509
1581.49566	0.03516
1580.20989	0.03522
1578.92412	0.03533
1577.63835	0.03555
1576.35258	0.03582
1575.06681	0.03601
1573.78104	0.03616
1572.49528	0.03634
1571.20951	0.03660
1569.92374	0.03685
1568.63797	0.03709
1567.35220	0.03733
1566.06643	0.03759
1564.78066	0.03783
1563.49489	0.03799
1562.20912	0.03814
1560.92336	0.03833
1559.63759	0.03848
1558.35182	0.03846
1557.06605	0.03835
1555.78028	0.03830
1554.49451	0.03837
1553.20874	0.03844
1551.92297	0.03849
1550.63721	0.03852
1549.35144	0.03848
1548.06567	0.03836
1546.77990	0.03823
1545.49413	0.03811
1544.20836	0.03797
1542.92259	0.03782
1541.63682	0.03771
1540.35105	0.03763
1539.06529	0.03749
1537.77952	0.03730
1536.49375	0.03715
1535.20798	0.03716
1533.92221	0.03726
1532.63644	0.03731
1531.35067	0.03730
1530.06490	0.03727
1528.77914	0.03727
1527.49337	0.03731
1526.20760	0.03736
1524.92183	0.03744
1523.63606	0.03760
1522.35029	0.03784
1521.06452	0.03811
1519.77875	0.03834
1518.49298	0.03859
1517.20722	0.03891
1515.92145	0.03924
1514.63568	0.03959
1513.34991	0.04000
1512.06414	0.04044
1510.77837	0.04087
1509.49260	0.04133
1508.20683	0.04183
1506.92107	0.04233
1505.63530	0.04273
1504.34953	0.04304
1503.06376	0.04337
1501.77799	0.04371
1500.49222	0.04399
1499.20645	0.04421
1497.92068	0.04442
1496.63491	0.04464
1495.34915	0.04489
1494.06338	0.04518
1492.77761	0.04555
1491.49184	0.04598
1490.20607	0.04643
1488.92030	0.04682
1487.63453	0.04718
1486.34876	0.04752
1485.06299	0.04790
1483.77723	0.04832
1482.49146	0.04878
1481.20569	0.04924
1479.91992	0.04968
1478.63415	0.05009
1477.34838	0.05051
1476.06261	0.05095
1474.77684	0.05141
1473.49108	0.05190
1472.20531	0.05236
1470.91954	0.05277
1469.63377	0.05315
1468.34800	0.05351
1467.06223	0.05384
1465.77646	0.05409
1464.49069	0.05425
1463.20492	0.05435
1461.91916	0.05450
1460.63339	0.05477
1459.34762	0.05523
1458.06185	0.05582
1456.77608	0.05640
1455.49031	0.05685
1454.20454	0.05719
1452.91877	0.05749
1451.63301	0.05775
1450.34724	0.05799
1449.06147	0.05822
1447.77570	0.05842
1446.48993	0.05855
1445.20416	0.05864
1443.91839	0.05872
1442.63262	0.05879
1441.34685	0.05883
1440.06109	0.05882
1438.77532	0.05884
1437.48955	0.05893
1436.20378	0.05906
1434.91801	0.05923
1433.63224	0.05947
1432.34647	0.05980
1431.06070	0.06020
1429.77494	0.06066
1428.48917	0.06120
1427.20340	0.06180
1425.91763	0.06248
1424.63186	0.06320
1423.34609	0.06393
1422.06032	0.06465
1420.77455	0.06536
1419.48878	0.06598
1418.20302	0.06647
1416.91725	0.06686
1415.63148	0.06721
1414.34571	0.06747
1413.05994	0.06757
1411.77417	0.06750
1410.48840	0.06732
1409.20263	0.06709
1407.91687	0.06680
1406.63110	0.06642
1405.34533	0.06593
1404.05956	0.06532
1402.77379	0.06463
1401.48802	0.06384
1400.20225	0.06298
1398.91648	0.06204
1397.63071	0.06104
1396.34495	0.06001
1395.05918	0.05894
1393.77341	0.05782
1392.48764	0.05670
1391.20187	0.05563
1389.91610	0.05462
1388.63033	0.05364
1387.34456	0.05261
1386.05880	0.05152
1384.77303	0.05042
1383.48726	0.04930
1382.20149	0.04819
1380.91572	0.04708
1379.62995	0.04600
1378.34418	0.04496
1377.05841	0.04392
1375.77264	0.04286
1374.48688	0.04178
1373.20111	0.04070
1371.91534	0.03968
1370.62957	0.03873
1369.34380	0.03782
1368.05803	0.03690
1366.77226	0.03597
1365.48649	0.03509
1364.20073	0.03430
1362.91496	0.03361
1361.62919	0.03301
1360.34342	0.03246
1359.05765	0.03196
1357.77188	0.03147
1356.48611	0.03096
1355.20034	0.03043
1353.91457	0.02991
1352.62881	0.02941
1351.34304	0.02896
1350.05727	0.02859
1348.77150	0.02828
1347.48573	0.02801
1346.19996	0.02775
1344.91419	0.02750
1343.62842	0.02726
1342.34266	0.02699
1341.05689	0.02667
1339.77112	0.02627
1338.48535	0.02584
1337.19958	0.02546
1335.91381	0.02519
1334.62804	0.02498
1333.34227	0.02478
1332.05650	0.02454
1330.77074	0.02427
1329.48497	0.02397
1328.19920	0.02363
1326.91343	0.02328
1325.62766	0.02295
1324.34189	0.02272
1323.05612	0.02259
1321.77035	0.02252
1320.48459	0.02245
1319.19882	0.02232
1317.91305	0.02213
1316.62728	0.02191
1315.34151	0.02169
1314.05574	0.02148
1312.76997	0.02127
1311.48420	0.02103
1310.19843	0.02078
1308.91267	0.02055
1307.62690	0.02035
1306.34113	0.02016
1305.05536	0.01999
1303.76959	0.01984
1302.48382	0.01969
1301.19805	0.01953
1299.91228	0.01937
1298.62652	0.01921
1297.34075	0.01907
1296.05498	0.01897
1294.76921	0.01889
1293.48344	0.01883
1292.19767	0.01876
1290.91190	0.01867
1289.62613	0.01858
1288.34036	0.01849
1287.05460	0.01842
1285.76883	0.01839
1284.48306	0.01838
1283.19729	0.01837
1281.91152	0.01835
1280.62575	0.01831
1279.33998	0.01822
1278.05421	0.01810
1276.76845	0.01797
1275.48268	0.01785
1274.19691	0.01779
1272.91114	0.01779
1271.62537	0.01784
1270.33960	0.01789
1269.05383	0.01793
1267.76806	0.01794
1266.48229	0.01794
1265.19653	0.01793
1263.91076	0.01789
1262.62499	0.01782
1261.33922	0.01774
1260.05345	0.01768
1258.76768	0.01765
1257.48191	0.01766
1256.19614	0.01769
1254.91037	0.01774
1253.62461	0.01776
1252.33884	0.01773
1251.05307	0.01769
1249.76730	0.01767
1248.48153	0.01768
1247.19576	0.01770
1245.90999	0.01769
1244.62422	0.01763
1243.33846	0.01755
1242.05269	0.01746
1240.76692	0.01740
1239.48115	0.01738
1238.19538	0.01738
1236.90961	0.01737
1235.62384	0.01734
1234.33807	0.01728
1233.05230	0.01720
1231.76654	0.01709
1230.48077	0.01695
1229.19500	0.01677
1227.90923	0.01659
1226.62346	0.01647
1225.33769	0.01640
1224.05192	0.01633
1222.76615	0.01623
1221.48039	0.01613
1220.19462	0.01604
1218.90885	0.01599
1217.62308	0.01595
1216.33731	0.01590
1215.05154	0.01587
1213.76577	0.01584
1212.48000	0.01584
1211.19423	0.01583
1209.90847	0.01581
1208.62270	0.01576
1207.33693	0.01569
1206.05116	0.01563
1204.76539	0.01561
1203.47962	0.01563
1202.19385	0.01567
1200.90808	0.01571
1199.62232	0.01576
1198.33655	0.01574
1197.05078	0.01572
1195.76501	0.01571
1194.47924	0.01570
1193.19347	0.01568
1191.90770	0.01566
1190.62193	0.01563
1189.33616	0.01559
1188.05040	0.01553
1186.76463	0.01549
1185.47886	0.01549
1184.19309	0.01553
1182.90732	0.01559
1181.62155	0.01560
1180.33578	0.01556
1179.05001	0.01550
1177.76425	0.01547
1176.47848	0.01552
1175.19271	0.01565
1173.90694	0.01586
1172.62117	0.01612
1171.33540	0.01641
1170.04963	0.01666
1168.76386	0.01684
1167.47809	0.01693
1166.19233	0.01697
1164.90656	0.01703
1163.62079	0.01714
1162.33502	0.01727
1161.04925	0.01738
1159.76348	0.01746
1158.47771	0.01753
1157.19194	0.01765
1155.90618	0.01781
1154.62041	0.01803
1153.33464	0.01830
1152.04887	0.01859
1150.76310	0.01890
1149.47733	0.01924
1148.19156	0.01961
1146.90579	0.02000
1145.62002	0.02040
1144.33426	0.02085
1143.04849	0.02138
1141.76272	0.02199
1140.47695	0.02262
1139.19118	0.02328
1137.90541	0.02400
1136.61964	0.02484
1135.33387	0.02576
1134.04811	0.02672
1132.76234	0.02771
1131.47657	0.02876
1130.19080	0.02993
1128.90503	0.03126
1127.61926	0.03273
1126.33349	0.03429
1125.04772	0.03591
1123.76195	0.03760
1122.47619	0.03938
1121.19042	0.04127
1119.90465	0.04325
1118.61888	0.04530
1117.33311	0.04736
1116.04734	0.04941
1114.76157	0.05147
1113.47580	0.05358
1112.19004	0.05575
1110.90427	0.05792
1109.61850	0.06003
1108.33273	0.06205
1107.04696	0.06406
1105.76119	0.06608
1104.47542	0.06810
1103.18965	0.07008
1101.90388	0.07204
1100.61812	0.07398
1099.33235	0.07585
1098.04658	0.07760
1096.76081	0.07920
1095.47504	0.08072
1094.18927	0.08223
1092.90350	0.08374
1091.61773	0.08519
1090.33197	0.08657
1089.04620	0.08789
1087.76043	0.08922
1086.47466	0.09060
1085.18889	0.09201
1083.90312	0.09341
1082.61735	0.09478
1081.33158	0.09614
1080.04581	0.09755
1078.76005	0.09904
1077.47428	0.10064
1076.18851	0.10232
1074.90274	0.10411
1073.61697	0.10601
1072.33120	0.10800
1071.04543	0.10999
1069.75966	0.11191
1068.47390	0.11376
1067.18813	0.11561
1065.90236	0.11753
1064.61659	0.11957
1063.33082	0.12167
1062.04505	0.12380
1060.75928	0.12590
1059.47351	0.12794
1058.18774	0.12990
1056.90198	0.13179
1055.61621	0.13362
1054.33044	0.13541
1053.04467	0.13722
1051.75890	0.13907
1050.47313	0.14095
1049.18736	0.14286
1047.90159	0.14480
1046.61583	0.14673
1045.33006	0.14862
1044.04429	0.15048
1042.75852	0.15235
1041.47275	0.15425
1040.18698	0.15615
1038.90121	0.15800
1037.61544	0.15976
1036.32967	0.16144
1035.04391	0.16308
1033.75814	0.16468
1032.47237	0.16622
1031.18660	0.16763
1029.90083	0.16883
1028.61506	0.16981
1027.32929	0.17060
1026.04352	0.17123
1024.75775	0.17175
1023.47199	0.17214
1022.18622	0.17233
1020.90045	0.17229
1019.61468	0.17200
1018.32891	0.17143
1017.04314	0.17051
1015.75737	0.16924
1014.47160	0.16766
1013.18584	0.16591
1011.90007	0.16410
1010.61430	0.16218
1009.32853	0.16010
1008.04276	0.15776
1006.75699	0.15513
1005.47122	0.15224
1004.18545	0.14915
1002.89968	0.14593
1001.61392	0.14259
1000.32815	0.13908
999.04238	0.13542
997.75661	0.13167
996.47084	0.12789
995.18507	0.12412
993.89930	0.12034
992.61353	0.11653
991.32777	0.11273
990.04200	0.10904
988.75623	0.10551
987.47046	0.10212
986.18469	0.09880
984.89892	0.09552
983.61315	0.09229
982.32738	0.08918
981.04161	0.08628
979.75585	0.08361
978.47008	0.08112
977.18431	0.07873
975.89854	0.07643
974.61277	0.07429
973.32700	0.07240
972.04123	0.07085
970.75546	0.06968
969.46970	0.06889
968.18393	0.06843
966.89816	0.06823
965.61239	0.06823
964.32662	0.06835
963.04085	0.06845
961.75508	0.06843
960.46931	0.06820
959.18354	0.06774
957.89778	0.06706
956.61201	0.06618
955.32624	0.06511
954.04047	0.06388
952.75470	0.06256
951.46893	0.06122
950.18316	0.05986
948.89739	0.05848
947.61163	0.05712
946.32586	0.05581
945.04009	0.05459
943.75432	0.05347
942.46855	0.05241
941.18278	0.05138
939.89701	0.05033
938.61124	0.04926
937.32547	0.04818
936.03971	0.04714
934.75394	0.04623
933.46817	0.04547
932.18240	0.04481
930.89663	0.04419
929.61086	0.04355
928.32509	0.04289
927.03932	0.04222
925.75356	0.04156
924.46779	0.04090
923.18202	0.04028
921.89625	0.03976
920.61048	0.03935
919.32471	0.03896
918.03894	0.03852
916.75317	0.03802
915.46740	0.03753
914.18164	0.03710
912.89587	0.03677
911.61010	0.03651
910.32433	0.03629
909.03856	0.03604
907.75279	0.03572
906.46702	0.03532
905.18125	0.03492
903.89549	0.03461
902.60972	0.03435
901.32395	0.03404
900.03818	0.03365
898.75241	0.03323
897.46664	0.03283
896.18087	0.03243
894.89510	0.03203
893.60933	0.03173
892.32357	0.03158
891.03780	0.03159
889.75203	0.03172
888.46626	0.03200
887.18049	0.03248
885.89472	0.03318
884.60895	0.03416
883.32318	0.03543
882.03742	0.03693
880.75165	0.03844
879.46588	0.03974
878.18011	0.04075
876.89434	0.04161
875.60857	0.04254
874.32280	0.04359
873.03703	0.04459
871.75126	0.04526
870.46550	0.04538
869.17973	0.04490
867.89396	0.04391
866.60819	0.04255
865.32242	0.04106
864.03665	0.03960
862.75088	0.03830
861.46511	0.03713
860.17935	0.03606
858.89358	0.03505
857.60781	0.03412
856.32204	0.03329
855.03627	0.03259
853.75050	0.03204
852.46473	0.03159
851.17896	0.03120
849.89319	0.03080
848.60743	0.03043
847.32166	0.03012
846.03589	0.02988
844.75012	0.02968
843.46435	0.02951
842.17858	0.02932
840.89281	0.02910
839.60704	0.02886
838.32128	0.02862
837.03551	0.02840
835.74974	0.02822
834.46397	0.02807
833.17820	0.02794
831.89243	0.02783
830.60666	0.02770
829.32089	0.02753
828.03512	0.02736
826.74936	0.02724
825.46359	0.02723
824.17782	0.02731
822.89205	0.02739
821.60628	0.02738
820.32051	0.02722
819.03474	0.02692
817.74897	0.02662
816.46321	0.02643
815.17744	0.02635
813.89167	0.02640
812.60590	0.02658
811.32013	0.02683
810.03436	0.02703
808.74859	0.02708
807.46282	0.02701
806.17705	0.02694
804.89129	0.02696
803.60552	0.02704
802.31975	0.02714
801.03398	0.02719
799.74821	0.02719
798.46244	0.02715
797.17667	0.02714
795.89090	0.02721
794.60513	0.02732
793.31937	0.02739
792.03360	0.02739
790.74783	0.02734
789.46206	0.02725
788.17629	0.02713
786.89052	0.02703
785.60475	0.02699
784.31898	0.02700
783.03322	0.02703
781.74745	0.02707
780.46168	0.02707
779.17591	0.02701
777.89014	0.02691
776.60437	0.02686
775.31860	0.02693
774.03283	0.02705
772.74706	0.02714
771.46130	0.02717
770.17553	0.02715
768.88976	0.02711
767.60399	0.02705
766.31822	0.02700
765.03245	0.02703
763.74668	0.02712
762.46091	0.02717
761.17515	0.02709
759.88938	0.02692
758.60361	0.02677
757.31784	0.02668
756.03207	0.02663
754.74630	0.02660
753.46053	0.02664
752.17476	0.02673
750.88899	0.02681
749.60323	0.02677
748.31746	0.02662
747.03169	0.02651
745.74592	0.02656
744.46015	0.02672
743.17438	0.02685
741.88861	0.02684
740.60284	0.02671
739.31708	0.02656
738.03131	0.02645
736.74554	0.02638
735.45977	0.02631
734.17400	0.02626
732.88823	0.02623
731.60246	0.02624
730.31669	0.02626
729.03092	0.02627
727.74516	0.02626
726.45939	0.02626
725.17362	0.02629
723.88785	0.02634
722.60208	0.02638
721.31631	0.02640
720.03054	0.02640
718.74477	0.02639
717.45901	0.02639
716.17324	0.02642
714.88747	0.02644
713.60170	0.02646
712.31593	0.02646
711.03016	0.02647
709.74439	0.02649
708.45862	0.02647
707.17285	0.02643
705.88709	0.02638
704.60132	0.02637
703.31555	0.02640
702.02978	0.02646
700.74401	0.02655
699.45824	0.02668
698.17247	0.02680
696.88670	0.02685
695.60094	0.02678
694.31517	0.02665
693.02940	0.02655
691.74363	0.02655
690.45786	0.02660
689.17209	0.02666
687.88632	0.02665
686.60055	0.02660
685.31478	0.02654
684.02902	0.02647
682.74325	0.02638
681.45748	0.02628
680.17171	0.02620
678.88594	0.02617
677.60017	0.02620
676.31440	0.02626
675.02863	0.02632
673.74287	0.02638
672.45710	0.02647
671.17133	0.02662
669.88556	0.02681
668.59979	0.02692
667.31402	0.02702
666.02825	0.02708
664.74248	0.02693
663.45671	0.02671
662.17095	0.02651
660.88518	0.02633
659.59941	0.02619
658.31364	0.02605
657.02787	0.02591
655.74210	0.02578
654.45633	0.02566
653.17056	0.02558
651.88480	0.02557
650.59903	0.02562
649.31326	0.02570
648.02749	0.02575
646.74172	0.02572
645.45595	0.02562
644.17018	0.02549
642.88441	0.02540
641.59864	0.02539
640.31288	0.02545
639.02711	0.02553
637.74134	0.02564
636.45557	0.02580
635.16980	0.02605
633.88403	0.02636
632.59826	0.02669
631.31249	0.02694
630.02673	0.02685
628.74096	0.02656
627.45519	0.02721
626.16942	0.02706
624.88365	0.02656
623.59788	0.02666
622.31211	0.02789
621.02634	0.03021
619.74057	0.03296
618.45481	0.03537
617.16904	0.03735
615.88327	0.03930
614.59750	0.04148
613.31173	0.04383
612.02596	0.04643
610.74019	0.04968
609.45442	0.05366
608.16866	0.05765
606.88289	0.06074
605.59712	0.06272
604.31135	0.06407
603.02558	0.06521
601.73981	0.06602
600.45404	0.06617
599.16827	0.06554
597.88250	0.06436
596.59674	0.06300
595.31097	0.06178
594.02520	0.06082
592.73943	0.06009
591.45366	0.05950
590.16789	0.05909
588.88212	0.05893
587.59635	0.05917
586.31059	0.05986
585.02482	0.06097
583.73905	0.06239
582.45328	0.06398
581.16751	0.06564
579.88174	0.06731
578.59597	0.06900
577.31020	0.07068
576.02443	0.07229
574.73867	0.07379
573.45290	0.07513
572.16713	0.07639
570.88136	0.07773
569.59559	0.07932
568.30982	0.08123
567.02405	0.08336
565.73828	0.08549
564.45251	0.08734
563.16675	0.08865
561.88098	0.08920
560.59521	0.08883
559.30944	0.08744
558.02367	0.08510
556.73790	0.08201
555.45213	0.07847
554.16636	0.07480
552.88060	0.07119
551.59483	0.06779
550.30906	0.06464
549.02329	0.06180
547.73752	0.05928
546.45175	0.05706
545.16598	0.05509
543.88021	0.05332
542.59444	0.05177
541.30868	0.05043
540.02291	0.04927
538.73714	0.04821
537.45137	0.04720
536.16560	0.04619
534.87983	0.04516
533.59406	0.04412
532.30829	0.04309
531.02253	0.04214
529.73676	0.04131
528.45099	0.04058
527.16522	0.03991
525.87945	0.03928
524.59368	0.03865
523.30791	0.03802
522.02214	0.03737
520.73637	0.03675
519.45061	0.03623
518.16484	0.03584
516.87907	0.03553
515.59330	0.03518
514.30753	0.03473
513.02176	0.03423
511.73599	0.03376
510.45022	0.03337
509.16446	0.03302
507.87869	0.03263
506.59292	0.03224
505.30715	0.03191
504.02138	0.03166
502.73561	0.03141
501.44984	0.03112
500.16407	0.03081
498.87830	0.03059
497.59254	0.03050
496.30677	0.03047
495.02100	0.03041
493.73523	0.03027
492.44946	0.03013
491.16369	0.03001
489.87792	0.02987
488.59215	0.02964
487.30639	0.02936
486.02062	0.02913
484.73485	0.02907
483.44908	0.02920
482.16331	0.02943
480.87754	0.02969
479.59177	0.02994
478.30600	0.03023
477.02023	0.03059
475.73447	0.03100
474.44870	0.03138
473.16293	0.03160
471.87716	0.03164
470.59139	0.03154
469.30562	0.03138
468.01985	0.03122
466.73408	0.03111
465.44832	0.03098
464.16255	0.03080
462.87678	0.03053
461.59101	0.03017
460.30524	0.02976
459.01947	0.02934
457.73370	0.02896
456.44793	0.02864
455.16216	0.02836
453.87640	0.02809
452.59063	0.02780
451.30486	0.02747
450.01909	0.02711
448.73332	0.02677
447.44755	0.02650
446.16178	0.02632
444.87601	0.02623
443.59025	0.02618
442.30448	0.02610
441.01871	0.02595
439.73294	0.02577
438.44717	0.02563
437.16140	0.02555
435.87563	0.02552
434.58986	0.02548
433.30409	0.02541
432.01833	0.02533
430.73256	0.02526
429.44679	0.02516
428.16102	0.02503
426.87525	0.02489
425.58948	0.02473
424.30371	0.02456
423.01794	0.02438
421.73218	0.02420
420.44641	0.02405
419.16064	0.02391
417.87487	0.02373
416.58910	0.02349
415.30333	0.02322
414.01756	0.02296
412.73179	0.02274
411.44602	0.02258
410.16026	0.02248
408.87449	0.02241
407.58872	0.02236
406.30295	0.02228
405.01718	0.02216
403.73141	0.02201
402.44564	0.02189
401.15987	0.02190
399.87411	0.02202
