3997.45528	0.04603
3996.16951	0.04525
3994.88374	0.04410
3993.59798	0.04292
3992.31221	0.04229
3991.02644	0.04243
3989.74067	0.04309
3988.45490	0.04383
3987.16913	0.04430
3985.88336	0.04435
3984.59759	0.04408
3983.31183	0.04384
3982.02606	0.04392
3980.74029	0.04427
3979.45452	0.04450
3978.16875	0.04434
3976.88298	0.04389
3975.59721	0.04355
3974.31144	0.04366
3973.02567	0.04422
3971.73991	0.04499
3970.45414	0.04555
3969.16837	0.04548
3967.88260	0.04462
3966.59683	0.04332
3965.31106	0.04230
3964.02529	0.04218
3962.73952	0.04306
3961.45376	0.04444
3960.16799	0.04555
3958.88222	0.04576
3957.59645	0.04498
3956.31068	0.04366
3955.02491	0.04246
3953.73914	0.04184
3952.45337	0.04183
3951.16760	0.04224
3949.88184	0.04286
3948.59607	0.04355
3947.31030	0.04413
3946.02453	0.04439
3944.73876	0.04425
3943.45299	0.04390
3942.16722	0.04357
3940.88145	0.04335
3939.59569	0.04316
3938.30992	0.04306
3937.02415	0.04319
3935.73838	0.04352
3934.45261	0.04373
3933.16684	0.04352
3931.88107	0.04295
3930.59530	0.04238
3929.30953	0.04213
3928.02377	0.04220
3926.73800	0.04245
3925.45223	0.04275
3924.16646	0.04308
3922.88069	0.04342
3921.59492	0.04362
3920.30915	0.04359
3919.02338	0.04354
3917.73762	0.04378
3916.45185	0.04426
3915.16608	0.04459
3913.88031	0.04446
3912.59454	0.04386
3911.30877	0.04301
3910.02300	0.04218
3908.73723	0.04164
3907.45146	0.04162
3906.16570	0.04211
3904.87993	0.04275
3903.59416	0.04305
3902.30839	0.04283
3901.02262	0.04236
3899.73685	0.04198
3898.45108	0.04181
3897.16531	0.04190
3895.87955	0.04228
3894.59378	0.04289
3893.30801	0.04345
3892.02224	0.04364
3890.73647	0.04336
3889.45070	0.04291
3888.16493	0.04263
3886.87916	0.04237
3885.59339	0.04175
3884.30763	0.04099
3883.02186	0.04072
3881.73609	0.04108
3880.45032	0.04149
3879.16455	0.04150
3877.87878	0.04136
3876.59301	0.04154
3875.30724	0.04212
3874.02148	0.04286
3872.73571	0.04362
3871.44994	0.04434
3870.16417	0.04473
3868.87840	0.04461
3867.59263	0.04432
3866.30686	0.04417
3865.02109	0.04404
3863.73532	0.04379
3862.44956	0.04360
3861.16379	0.04354
3859.87802	0.04340
3858.59225	0.04297
3857.30648	0.04252
3856.02071	0.04254
3854.73494	0.04312
3853.44917	0.04377
3852.16341	0.04405
3850.87764	0.04392
3849.59187	0.04349
3848.30610	0.04288
3847.02033	0.04226
3845.73456	0.04176
3844.44879	0.04130
3843.16302	0.04085
3841.87725	0.04059
3840.59149	0.04076
3839.30572	0.04116
3838.01995	0.04121
3836.73418	0.04067
3835.44841	0.04011
3834.16264	0.04024
3832.87687	0.04116
3831.59110	0.04229
3830.30534	0.04304
3829.01957	0.04319
3827.73380	0.04284
3826.44803	0.04213
3825.16226	0.04127
3823.87649	0.04053
3822.59072	0.03997
3821.30495	0.03928
3820.01918	0.03846
3818.73342	0.03809
3817.44765	0.03857
3816.16188	0.03938
3814.87611	0.03991
3813.59034	0.04029
3812.30457	0.04085
3811.01880	0.04143
3809.73303	0.04166
3808.44726	0.04145
3807.16150	0.04077
3805.87573	0.03970
3804.58996	0.03868
3803.30419	0.03821
3802.01842	0.03828
3800.73265	0.03856
3799.44688	0.03912
3798.16111	0.04009
3796.87535	0.04111
3795.58958	0.04161
3794.30381	0.04145
3793.01804	0.04099
3791.73227	0.04060
3790.44650	0.04044
3789.16073	0.04044
3787.87496	0.04043
3786.58919	0.04027
3785.30343	0.03994
3784.01766	0.03955
3782.73189	0.03931
3781.44612	0.03928
3780.16035	0.03935
3778.87458	0.03931
3777.58881	0.03915
3776.30304	0.03893
3775.01728	0.03864
3773.73151	0.03826
3772.44574	0.03797
3771.15997	0.03790
3769.87420	0.03798
3768.58843	0.03810
3767.30266	0.03825
3766.01689	0.03836
3764.73112	0.03832
3763.44536	0.03831
3762.15959	0.03857
3760.87382	0.03905
3759.58805	0.03933
3758.30228	0.03914
3757.01651	0.03856
3755.73074	0.03796
3754.44497	0.03768
3753.15921	0.03766
3751.87344	0.03750
3750.58767	0.03695
3749.30190	0.03624
3748.01613	0.03595
3746.73036	0.03659
3745.44459	0.03778
3744.15882	0.03844
3742.87305	0.03816
3741.58729	0.03759
3740.30152	0.03721
3739.01575	0.03700
3737.72998	0.03694
3736.44421	0.03709
3735.15844	0.03736
3733.87267	0.03757
3732.58690	0.03746
3731.30114	0.03696
3730.01537	0.03649
3728.72960	0.03665
3727.44383	0.03753
3726.15806	0.03861
3724.87229	0.03931
3723.58652	0.03948
3722.30075	0.03933
3721.01498	0.03911
3719.72922	0.03890
3718.44345	0.03856
3717.15768	0.03808
3715.87191	0.03773
3714.58614	0.03787
3713.30037	0.03835
3712.01460	0.03853
3710.72883	0.03801
3709.44307	0.03711
3708.15730	0.03649
3706.87153	0.03649
3705.58576	0.03697
3704.29999	0.03759
3703.01422	0.03803
3701.72845	0.03813
3700.44268	0.03796
3699.15691	0.03766
3697.87115	0.03733
3696.58538	0.03699
3695.29961	0.03671
3694.01384	0.03663
3692.72807	0.03671
3691.44230	0.03688
3690.15653	0.03705
3688.87076	0.03708
3687.58500	0.03681
3686.29923	0.03638
3685.01346	0.03605
3683.72769	0.03581
3682.44192	0.03555
3681.15615	0.03534
3679.87038	0.03539
3678.58461	0.03591
3677.29884	0.03673
3676.01308	0.03709
3674.72731	0.03636
3673.44154	0.03502
3672.15577	0.03420
3670.87000	0.03423
3669.58423	0.03452
3668.29846	0.03468
3667.01269	0.03497
3665.72693	0.03561
3664.44116	0.03635
3663.15539	0.03678
3661.86962	0.03676
3660.58385	0.03661
3659.29808	0.03681
3658.01231	0.03738
3656.72654	0.03786
3655.44077	0.03785
3654.15501	0.03759
3652.86924	0.03761
3651.58347	0.03805
3650.29770	0.03862
3649.01193	0.03898
3647.72616	0.03901
3646.44039	0.03872
3645.15462	0.03819
3643.86886	0.03755
3642.58309	0.03690
3641.29732	0.03635
3640.01155	0.03601
3638.72578	0.03596
3637.44001	0.03627
3636.15424	0.03696
3634.86847	0.03785
3633.58270	0.03868
3632.29694	0.03938
3631.01117	0.03999
3629.72540	0.04037
3628.43963	0.04022
3627.15386	0.03969
3625.86809	0.03925
3624.58232	0.03914
3623.29655	0.03931
3622.01079	0.03984
3620.72502	0.04083
3619.43925	0.04199
3618.15348	0.04279
3616.86771	0.04292
3615.58194	0.04260
3614.29617	0.04224
3613.01040	0.04209
3611.72463	0.04214
3610.43887	0.04223
3609.15310	0.04221
3607.86733	0.04218
3606.58156	0.04239
3605.29579	0.04290
3604.01002	0.04338
3602.72425	0.04356
3601.43848	0.04355
3600.15272	0.04374
3598.86695	0.04435
3597.58118	0.04519
3596.29541	0.04592
3595.00964	0.04637
3593.72387	0.04658
3592.43810	0.04660
3591.15233	0.04653
3589.86656	0.04650
3588.58080	0.04654
3587.29503	0.04662
3586.00926	0.04673
3584.72349	0.04692
3583.43772	0.04715
3582.15195	0.04725
3580.86618	0.04715
3579.58041	0.04699
3578.29464	0.04704
3577.00888	0.04742
3575.72311	0.04801
3574.43734	0.04853
3573.15157	0.04883
3571.86580	0.04900
3570.58003	0.04924
3569.29426	0.04966
3568.00849	0.05004
3566.72273	0.05012
3565.43696	0.04997
3564.15119	0.04987
3562.86542	0.05001
3561.57965	0.05028
3560.29388	0.05057
3559.00811	0.05082
3557.72234	0.05101
3556.43657	0.05117
3555.15081	0.05142
3553.86504	0.05178
3552.57927	0.05202
3551.29350	0.05182
3550.00773	0.05133
3548.72196	0.05106
3547.43619	0.05134
3546.15042	0.05198
3544.86466	0.05270
3543.57889	0.05336
3542.29312	0.05388
3541.00735	0.05411
3539.72158	0.05405
3538.43581	0.05403
3537.15004	0.05437
3535.86427	0.05498
3534.57850	0.05542
3533.29274	0.05538
3532.00697	0.05504
3530.72120	0.05478
3529.43543	0.05486
3528.14966	0.05518
3526.86389	0.05549
3525.57812	0.05561
3524.29235	0.05563
3523.00659	0.05575
3521.72082	0.05610
3520.43505	0.05657
3519.14928	0.05689
3517.86351	0.05691
3516.57774	0.05683
3515.29197	0.05702
3514.00620	0.05768
3512.72043	0.05857
3511.43467	0.05920
3510.14890	0.05920
3508.86313	0.05862
3507.57736	0.05789
3506.29159	0.05744
3505.00582	0.05748
3503.72005	0.05795
3502.43428	0.05863
3501.14852	0.05935
3499.86275	0.06005
3498.57698	0.06061
3497.29121	0.06088
3496.00544	0.06076
3494.71967	0.06042
3493.43390	0.06019
3492.14813	0.06033
3490.86236	0.06091
3489.57660	0.06186
3488.29083	0.06291
3487.00506	0.06367
3485.71929	0.06382
3484.43352	0.06331
3483.14775	0.06246
3481.86198	0.06166
3480.57621	0.06118
3479.29045	0.06116
3478.00468	0.06156
3476.71891	0.06225
3475.43314	0.06298
3474.14737	0.06350
3472.86160	0.06366
3471.57583	0.06352
3470.29006	0.06328
3469.00429	0.06323
3467.71853	0.06343
3466.43276	0.06366
3465.14699	0.06364
3463.86122	0.06342
3462.57545	0.06327
3461.28968	0.06342
3460.00391	0.06386
3458.71814	0.06453
3457.43238	0.06535
3456.14661	0.06609
3454.86084	0.06631
3453.57507	0.06584
3452.28930	0.06503
3451.00353	0.06452
3449.71776	0.06468
3448.43199	0.06535
3447.14622	0.06601
3445.86046	0.06624
3444.57469	0.06594
3443.28892	0.06537
3442.00315	0.06501
3440.71738	0.06517
3439.43161	0.06575
3438.14584	0.06632
3436.86007	0.06660
3435.57431	0.06662
3434.28854	0.06664
3433.00277	0.06684
3431.71700	0.06712
3430.43123	0.06733
3429.14546	0.06734
3427.85969	0.06723
3426.57392	0.06720
3425.28815	0.06735
3424.00239	0.06759
3422.71662	0.06780
3421.43085	0.06791
3420.14508	0.06792
3418.85931	0.06789
3417.57354	0.06791
3416.28777	0.06808
3415.00200	0.06838
3413.71624	0.06863
3412.43047	0.06873
3411.14470	0.06882
3409.85893	0.06917
3408.57316	0.06975
3407.28739	0.07029
3406.00162	0.07058
3404.71585	0.07063
3403.43008	0.07067
3402.14432	0.07080
3400.85855	0.07104
3399.57278	0.07132
3398.28701	0.07156
3397.00124	0.07169
3395.71547	0.07163
3394.42970	0.07142
3393.14393	0.07117
3391.85817	0.07104
3390.57240	0.07112
3389.28663	0.07142
3388.00086	0.07188
3386.71509	0.07243
3385.42932	0.07296
3384.14355	0.07337
3382.85778	0.07360
3381.57201	0.07364
3380.28625	0.07352
3379.00048	0.07334
3377.71471	0.07319
3376.42894	0.07313
3375.14317	0.07309
3373.85740	0.07296
3372.57163	0.07277
3371.28586	0.07268
3370.00010	0.07281
3368.71433	0.07311
3367.42856	0.07341
3366.14279	0.07359
3364.85702	0.07363
3363.57125	0.07361
3362.28548	0.07357
3360.99971	0.07362
3359.71394	0.07386
3358.42818	0.07428
3357.14241	0.07475
3355.85664	0.07509
3354.57087	0.07523
3353.28510	0.07523
3351.99933	0.07515
3350.71356	0.07507
3349.42779	0.07506
3348.14202	0.07506
3346.85626	0.07496
3345.57049	0.07467
3344.28472	0.07425
3342.99895	0.07389
3341.71318	0.07378
3340.42741	0.07395
3339.14164	0.07425
3337.85587	0.07444
3336.57011	0.07438
3335.28434	0.07410
3333.99857	0.07375
3332.71280	0.07359
3331.42703	0.07379
3330.14126	0.07436
3328.85549	0.07502
3327.56972	0.07543
3326.28395	0.07547
3324.99819	0.07534
3323.71242	0.07527
3322.42665	0.07531
3321.14088	0.07545
3319.85511	0.07570
3318.56934	0.07603
3317.28357	0.07630
3315.99780	0.07637
3314.71204	0.07632
3313.42627	0.07634
3312.14050	0.07662
3310.85473	0.07713
3309.56896	0.07757
3308.28319	0.07759
3306.99742	0.07713
3305.71165	0.07655
3304.42588	0.07626
3303.14012	0.07633
3301.85435	0.07647
3300.56858	0.07644
3299.28281	0.07630
3297.99704	0.07623
3296.71127	0.07629
3295.42550	0.07639
3294.13973	0.07641
3292.85397	0.07636
3291.56820	0.07633
3290.28243	0.07638
3288.99666	0.07648
3287.71089	0.07648
3286.42512	0.07631
3285.13935	0.07603
3283.85358	0.07587
3282.56781	0.07595
3281.28205	0.07619
3279.99628	0.07643
3278.71051	0.07652
3277.42474	0.07644
3276.13897	0.07621
3274.85320	0.07588
3273.56743	0.07551
3272.28166	0.07521
3270.99590	0.07505
3269.71013	0.07499
3268.42436	0.07488
3267.13859	0.07472
3265.85282	0.07469
3264.56705	0.07495
3263.28128	0.07543
3261.99551	0.07584
3260.70974	0.07594
3259.42398	0.07574
3258.13821	0.07536
3256.85244	0.07492
3255.56667	0.07449
3254.28090	0.07413
3252.99513	0.07392
3251.70936	0.07388
3250.42359	0.07400
3249.13783	0.07420
3247.85206	0.07441
3246.56629	0.07460
3245.28052	0.07478
3243.99475	0.07496
3242.70898	0.07503
3241.42321	0.07492
3240.13744	0.07466
3238.85167	0.07443
3237.56591	0.07436
3236.28014	0.07440
3234.99437	0.07440
3233.70860	0.07423
3232.42283	0.07388
3231.13706	0.07348
3229.85129	0.07315
3228.56552	0.07293
3227.27976	0.07279
3225.99399	0.07262
3224.70822	0.07241
3223.42245	0.07234
3222.13668	0.07251
3220.85091	0.07281
3219.56514	0.07297
3218.27937	0.07279
3216.99360	0.07229
3215.70784	0.07167
3214.42207	0.07121
3213.13630	0.07106
3211.85053	0.07122
3210.56476	0.07149
3209.27899	0.07169
3207.99322	0.07180
3206.70745	0.07190
3205.42169	0.07198
3204.13592	0.07197
3202.85015	0.07182
3201.56438	0.07153
3200.27861	0.07121
3198.99284	0.07096
3197.70707	0.07078
3196.42130	0.07059
3195.13553	0.07033
3193.84977	0.07005
3192.56400	0.06980
3191.27823	0.06965
3189.99246	0.06967
3188.70669	0.06994
3187.42092	0.07041
3186.13515	0.07088
3184.84938	0.07109
3183.56362	0.07087
3182.27785	0.07026
3180.99208	0.06948
3179.70631	0.06873
3178.42054	0.06806
3177.13477	0.06741
3175.84900	0.06681
3174.56323	0.06643
3173.27746	0.06641
3171.99170	0.06671
3170.70593	0.06714
3169.42016	0.06745
3168.13439	0.06750
3166.84862	0.06727
3165.56285	0.06686
3164.27708	0.06635
3162.99131	0.06586
3161.70555	0.06555
3160.41978	0.06552
3159.13401	0.06568
3157.84824	0.06577
3156.56247	0.06566
3155.27670	0.06545
3153.99093	0.06533
3152.70516	0.06542
3151.41939	0.06567
3150.13363	0.06585
3148.84786	0.06579
3147.56209	0.06542
3146.27632	0.06493
3144.99055	0.06456
3143.70478	0.06439
3142.41901	0.06429
3141.13324	0.06416
3139.84748	0.06401
3138.56171	0.06396
3137.27594	0.06404
3135.99017	0.06414
3134.70440	0.06414
3133.41863	0.06395
3132.13286	0.06362
3130.84709	0.06327
3129.56132	0.06304
3128.27556	0.06292
3126.98979	0.06280
3125.70402	0.06253
3124.41825	0.06213
3123.13248	0.06186
3121.84671	0.06196
3120.56094	0.06240
3119.27517	0.06289
3117.98940	0.06321
3116.70364	0.06330
3115.41787	0.06324
3114.13210	0.06307
3112.84633	0.06286
3111.56056	0.06268
3110.27479	0.06258
3108.98902	0.06247
3107.70325	0.06226
3106.41749	0.06205
3105.13172	0.06202
3103.84595	0.06226
3102.56018	0.06268
3101.27441	0.06305
3099.98864	0.06319
3098.70287	0.06303
3097.41710	0.06266
3096.13133	0.06225
3094.84557	0.06193
3093.55980	0.06173
3092.27403	0.06162
3090.98826	0.06160
3089.70249	0.06170
3088.41672	0.06190
3087.13095	0.06207
3085.84518	0.06205
3084.55942	0.06179
3083.27365	0.06143
3081.98788	0.06117
3080.70211	0.06112
3079.41634	0.06126
3078.13057	0.06151
3076.84480	0.06189
3075.55903	0.06235
3074.27326	0.06272
3072.98750	0.06274
3071.70173	0.06231
3070.41596	0.06161
3069.13019	0.06096
3067.84442	0.06057
3066.55865	0.06047
3065.27288	0.06059
3063.98711	0.06081
3062.70135	0.06101
3061.41558	0.06107
3060.12981	0.06095
3058.84404	0.06076
3057.55827	0.06061
3056.27250	0.06053
3054.98673	0.06044
3053.70096	0.06028
3052.41519	0.06015
3051.12943	0.06013
3049.84366	0.06012
3048.55789	0.05998
3047.27212	0.05966
3045.98635	0.05932
3044.70058	0.05909
3043.41481	0.05890
3042.12904	0.05863
3040.84328	0.05825
3039.55751	0.05791
3038.27174	0.05771
3036.98597	0.05761
3035.70020	0.05746
3034.41443	0.05726
3033.12866	0.05709
3031.84289	0.05697
3030.55712	0.05680
3029.27136	0.05659
3027.98559	0.05644
3026.69982	0.05645
3025.41405	0.05653
3024.12828	0.05650
3022.84251	0.05634
3021.55674	0.05618
3020.27097	0.05613
3018.98521	0.05620
3017.69944	0.05630
3016.41367	0.05639
3015.12790	0.05649
3013.84213	0.05660
3012.55636	0.05666
3011.27059	0.05663
3009.98482	0.05650
3008.69905	0.05636
3007.41329	0.05631
3006.12752	0.05630
3004.84175	0.05619
3003.55598	0.05588
3002.27021	0.05542
3000.98444	0.05497
2999.69867	0.05468
2998.41290	0.05460
2997.12714	0.05468
2995.84137	0.05482
2994.55560	0.05492
2993.26983	0.05498
2991.98406	0.05501
2990.69829	0.05501
2989.41252	0.05498
2988.12675	0.05490
2986.84098	0.05479
2985.55522	0.05470
2984.26945	0.05475
2982.98368	0.05504
2981.69791	0.05562
2980.41214	0.05636
2979.12637	0.05698
2977.84060	0.05719
2976.55483	0.05694
2975.26907	0.05651
2973.98330	0.05625
2972.69753	0.05633
2971.41176	0.05658
2970.12599	0.05672
2968.84022	0.05668
2967.55445	0.05660
2966.26868	0.05669
2964.98291	0.05696
2963.69715	0.05728
2962.41138	0.05750
2961.12561	0.05759
2959.83984	0.05764
2958.55407	0.05780
2957.26830	0.05814
2955.98253	0.05863
2954.69676	0.05909
2953.41100	0.05943
2952.12523	0.05960
2950.83946	0.05960
2949.55369	0.05949
2948.26792	0.05935
2946.98215	0.05921
2945.69638	0.05904
2944.41061	0.05883
2943.12484	0.05870
2941.83908	0.05870
2940.55331	0.05881
2939.26754	0.05896
2937.98177	0.05911
2936.69600	0.05927
2935.41023	0.05948
2934.12446	0.05980
2932.83869	0.06026
2931.55293	0.06074
2930.26716	0.06115
2928.98139	0.06143
2927.69562	0.06157
2926.40985	0.06153
2925.12408	0.06123
2923.83831	0.06071
2922.55254	0.06008
2921.26677	0.05945
2919.98101	0.05891
2918.69524	0.05858
2917.40947	0.05844
2916.12370	0.05839
2914.83793	0.05829
2913.55216	0.05815
2912.26639	0.05803
2910.98062	0.05793
2909.69486	0.05781
2908.40909	0.05767
2907.12332	0.05756
2905.83755	0.05745
2904.55178	0.05726
2903.26601	0.05695
2901.98024	0.05662
2900.69447	0.05636
2899.40870	0.05617
2898.12294	0.05603
2896.83717	0.05592
2895.55140	0.05583
2894.26563	0.05567
2892.97986	0.05541
2891.69409	0.05507
2890.40832	0.05471
2889.12255	0.05442
2887.83678	0.05430
2886.55102	0.05435
2885.26525	0.05442
2883.97948	0.05436
2882.69371	0.05415
2881.40794	0.05390
2880.12217	0.05372
2878.83640	0.05363
2877.55063	0.05364
2876.26487	0.05370
2874.97910	0.05378
2873.69333	0.05383
2872.40756	0.05390
2871.12179	0.05403
2869.83602	0.05421
2868.55025	0.05434
2867.26448	0.05433
2865.97871	0.05416
2864.69295	0.05386
2863.40718	0.05356
2862.12141	0.05335
2860.83564	0.05325
2859.54987	0.05319
2858.26410	0.05307
2856.97833	0.05285
2855.69256	0.05254
2854.40680	0.05223
2853.12103	0.05197
2851.83526	0.05174
2850.54949	0.05147
2849.26372	0.05114
2847.97795	0.05080
2846.69218	0.05047
2845.40641	0.05008
2844.12064	0.04966
2842.83488	0.04935
2841.54911	0.04933
2840.26334	0.04958
2838.97757	0.04986
2837.69180	0.04997
2836.40603	0.04979
2835.12026	0.04937
2833.83449	0.04881
2832.54873	0.04827
2831.26296	0.04793
2829.97719	0.04777
2828.69142	0.04769
2827.40565	0.04764
2826.11988	0.04768
2824.83411	0.04783
2823.54834	0.04790
2822.26257	0.04774
2820.97681	0.04737
2819.69104	0.04699
2818.40527	0.04667
2817.11950	0.04634
2815.83373	0.04593
2814.54796	0.04553
2813.26219	0.04535
2811.97642	0.04549
2810.69066	0.04584
2809.40489	0.04618
2808.11912	0.04634
2806.83335	0.04629
2805.54758	0.04612
2804.26181	0.04594
2802.97604	0.04581
2801.69027	0.04565
2800.40450	0.04539
2799.11874	0.04505
2797.83297	0.04478
2796.54720	0.04471
2795.26143	0.04483
2793.97566	0.04504
2792.68989	0.04521
2791.40412	0.04523
2790.11835	0.04509
2788.83259	0.04491
2787.54682	0.04478
2786.26105	0.04467
2784.97528	0.04454
2783.68951	0.04441
2782.40374	0.04438
2781.11797	0.04439
2779.83220	0.04427
2778.54643	0.04395
2777.26067	0.04356
2775.97490	0.04331
2774.68913	0.04327
2773.40336	0.04342
2772.11759	0.04367
2770.83182	0.04393
2769.54605	0.04401
2768.26028	0.04379
2766.97452	0.04338
2765.68875	0.04302
2764.40298	0.04295
2763.11721	0.04318
2761.83144	0.04350
2760.54567	0.04367
2759.25990	0.04362
2757.97413	0.04344
2756.68836	0.04325
2755.40260	0.04311
2754.11683	0.04303
2752.83106	0.04293
2751.54529	0.04276
2750.25952	0.04253
2748.97375	0.04233
2747.68798	0.04222
2746.40221	0.04224
2745.11645	0.04232
2743.83068	0.04235
2742.54491	0.04225
2741.25914	0.04207
2739.97337	0.04190
2738.68760	0.04180
2737.40183	0.04178
2736.11606	0.04184
2734.83029	0.04192
2733.54453	0.04193
2732.25876	0.04183
2730.97299	0.04169
2729.68722	0.04165
2728.40145	0.04167
2727.11568	0.04164
2725.82991	0.04148
2724.54414	0.04128
2723.25838	0.04118
2721.97261	0.04117
2720.68684	0.04114
2719.40107	0.04099
2718.11530	0.04077
2716.82953	0.04063
2715.54376	0.04062
2714.25799	0.04065
2712.97222	0.04063
2711.68646	0.04056
2710.40069	0.04051
2709.11492	0.04050
2707.82915	0.04051
2706.54338	0.04050
2705.25761	0.04043
2703.97184	0.04030
2702.68607	0.04013
2701.40031	0.03995
2700.11454	0.03981
2698.82877	0.03973
2697.54300	0.03972
2696.25723	0.03980
2694.97146	0.03994
2693.68569	0.04004
2692.39992	0.04001
2691.11415	0.03981
2689.82839	0.03950
2688.54262	0.03923
2687.25685	0.03913
2685.97108	0.03925
2684.68531	0.03950
2683.39954	0.03973
2682.11377	0.03981
2680.82800	0.03969
2679.54224	0.03946
2678.25647	0.03921
2676.97070	0.03901
2675.68493	0.03881
2674.39916	0.03862
2673.11339	0.03851
2671.82762	0.03853
2670.54185	0.03866
2669.25608	0.03882
2667.97032	0.03894
2666.68455	0.03903
2665.39878	0.03913
2664.11301	0.03924
2662.82724	0.03930
2661.54147	0.03925
2660.25570	0.03912
2658.96993	0.03897
2657.68417	0.03885
2656.39840	0.03872
2655.11263	0.03851
2653.82686	0.03817
2652.54109	0.03778
2651.25532	0.03745
2649.96955	0.03734
2648.68378	0.03752
2647.39801	0.03785
2646.11225	0.03811
2644.82648	0.03809
2643.54071	0.03776
2642.25494	0.03730
2640.96917	0.03696
2639.68340	0.03691
2638.39763	0.03698
2637.11186	0.03690
2635.82609	0.03657
2634.54033	0.03614
2633.25456	0.03582
2631.96879	0.03564
2630.68302	0.03554
2629.39725	0.03550
2628.11148	0.03556
2626.82571	0.03562
2625.53994	0.03554
2624.25418	0.03523
2622.96841	0.03484
2621.68264	0.03462
2620.39687	0.03465
2619.11110	0.03481
2617.82533	0.03492
2616.53956	0.03489
2615.25379	0.03472
2613.96802	0.03444
2612.68226	0.03411
2611.39649	0.03380
2610.11072	0.03356
2608.82495	0.03339
2607.53918	0.03324
2606.25341	0.03318
2604.96764	0.03329
2603.68187	0.03348
2602.39611	0.03352
2601.11034	0.03326
2599.82457	0.03293
2598.53880	0.03286
2597.25303	0.03311
2595.96726	0.03337
2594.68149	0.03333
2593.39572	0.03298
2592.10995	0.03256
2590.82419	0.03232
2589.53842	0.03232
2588.25265	0.03237
2586.96688	0.03225
2585.68111	0.03191
2584.39534	0.03144
2583.10957	0.03092
2581.82380	0.03040
2580.53804	0.03002
2579.25227	0.02992
2577.96650	0.03013
2576.68073	0.03053
2575.39496	0.03095
2574.10919	0.03119
2572.82342	0.03115
2571.53765	0.03089
2570.25188	0.03061
2568.96612	0.03041
2567.68035	0.03028
2566.39458	0.03012
2565.10881	0.02998
2563.82304	0.03002
2562.53727	0.03028
2561.25150	0.03055
2559.96573	0.03062
2558.67997	0.03055
2557.39420	0.03055
2556.10843	0.03071
2554.82266	0.03094
2553.53689	0.03112
2552.25112	0.03121
2550.96535	0.03111
2549.67958	0.03081
2548.39381	0.03049
2547.10805	0.03045
2545.82228	0.03075
2544.53651	0.03115
2543.25074	0.03135
2541.96497	0.03120
2540.67920	0.03083
2539.39343	0.03048
2538.10766	0.03033
2536.82190	0.03034
2535.53613	0.03034
2534.25036	0.03018
2532.96459	0.02989
2531.67882	0.02955
2530.39305	0.02919
2529.10728	0.02882
2527.82151	0.02854
2526.53574	0.02854
2525.24998	0.02884
2523.96421	0.02929
2522.67844	0.02972
2521.39267	0.02999
2520.10690	0.03002
2518.82113	0.02979
2517.53536	0.02942
2516.24959	0.02918
2514.96383	0.02920
2513.67806	0.02944
2512.39229	0.02974
2511.10652	0.02987
2509.82075	0.02970
2508.53498	0.02932
2507.24921	0.02902
2505.96344	0.02903
2504.67767	0.02932
2503.39191	0.02966
2502.10614	0.02984
2500.82037	0.02979
2499.53460	0.02961
2498.24883	0.02935
2496.96306	0.02897
2495.67729	0.02846
2494.39152	0.02797
2493.10576	0.02776
2491.81999	0.02799
2490.53422	0.02849
2489.24845	0.02890
2487.96268	0.02890
2486.67691	0.02852
2485.39114	0.02810
2484.10537	0.02800
2482.81960	0.02826
2481.53384	0.02855
2480.24807	0.02860
2478.96230	0.02840
2477.67653	0.02815
2476.39076	0.02799
2475.10499	0.02794
2473.81922	0.02791
2472.53345	0.02783
2471.24769	0.02769
2469.96192	0.02753
2468.67615	0.02742
2467.39038	0.02746
2466.10461	0.02766
2464.81884	0.02782
2463.53307	0.02780
2462.24730	0.02772
2460.96153	0.02784
2459.67577	0.02822
2458.39000	0.02857
2457.10423	0.02855
2455.81846	0.02816
2454.53269	0.02774
2453.24692	0.02758
2451.96115	0.02765
2450.67538	0.02773
2449.38962	0.02780
2448.10385	0.02801
2446.81808	0.02835
2445.53231	0.02851
2444.24654	0.02825
2442.96077	0.02773
2441.67500	0.02728
2440.38923	0.02700
2439.10346	0.02671
2437.81770	0.02632
2436.53193	0.02603
2435.24616	0.02602
2433.96039	0.02630
2432.67462	0.02674
2431.38885	0.02725
2430.10308	0.02768
2428.81731	0.02787
2427.53155	0.02782
2426.24578	0.02766
2424.96001	0.02746
2423.67424	0.02725
2422.38847	0.02707
2421.10270	0.02701
2419.81693	0.02697
2418.53116	0.02682
2417.24539	0.02657
2415.95963	0.02632
2414.67386	0.02613
2413.38809	0.02596
2412.10232	0.02587
2410.81655	0.02600
2409.53078	0.02634
2408.24501	0.02674
2406.95924	0.02710
2405.67347	0.02731
2404.38771	0.02732
2403.10194	0.02712
2401.81617	0.02682
2400.53040	0.02659
2399.24463	0.02637
2397.95886	0.02642
2396.67309	0.02664
2395.38732	0.02686
2394.10156	0.02700
2392.81579	0.02704
2391.53002	0.02699
2390.24425	0.02686
2388.95848	0.02672
2387.67271	0.02663
2386.38694	0.02659
2385.10117	0.02657
2383.81540	0.02655
2382.52964	0.02658
2381.24387	0.02670
2379.95810	0.02693
2378.67233	0.02713
2377.38656	0.02725
2376.10079	0.02732
2374.81502	0.02735
2373.52925	0.02700
2372.24349	0.02692
2370.95772	0.02699
2369.67195	0.02696
2368.38618	0.02676
2367.10041	0.02646
2365.81464	0.02615
2364.52887	0.02592
2363.24310	0.02584
2361.95733	0.02597
2360.67157	0.02624
2359.38580	0.02648
2358.10003	0.02665
2356.81426	0.02682
2355.52849	0.02701
2354.24272	0.02727
2352.95695	0.02765
2351.67118	0.02772
2350.38542	0.02767
2349.09965	0.02768
2347.81388	0.02769
2346.52811	0.02776
2345.24234	0.02783
2343.95657	0.02794
2342.67080	0.02801
2341.38503	0.02768
2340.09926	0.02757
2338.81350	0.02730
2337.52773	0.02683
2336.24196	0.02676
2334.95619	0.02696
2333.67042	0.02708
2332.38465	0.02701
2331.09888	0.02634
2329.81311	0.02562
2328.52735	0.02506
2327.24158	0.02521
2325.95581	0.02599
2324.67004	0.02695
2323.38427	0.02786
2322.09850	0.02863
2320.81273	0.02888
2319.52696	0.02881
2318.24119	0.02861
2316.95543	0.02831
2315.66966	0.02810
2314.38389	0.02796
2313.09812	0.02782
2311.81235	0.02773
2310.52658	0.02749
2309.24081	0.02698
2307.95504	0.02639
2306.66928	0.02584
2305.38351	0.02550
2304.09774	0.02539
2302.81197	0.02540
2301.52620	0.02540
2300.24043	0.02526
2298.95466	0.02495
2297.66889	0.02457
2296.38312	0.02426
2295.09736	0.02418
2293.81159	0.02427
2292.52582	0.02439
2291.24005	0.02445
2289.95428	0.02452
2288.66851	0.02473
2287.38274	0.02508
2286.09697	0.02536
2284.81121	0.02537
2283.52544	0.02507
2282.23967	0.02466
2280.95390	0.02435
2279.66813	0.02419
2278.38236	0.02404
2277.09659	0.02380
2275.81082	0.02356
2274.52505	0.02347
2273.23929	0.02356
2271.95352	0.02372
2270.66775	0.02383
2269.38198	0.02380
2268.09621	0.02355
2266.81044	0.02304
2265.52467	0.02234
2264.23890	0.02163
2262.95314	0.02119
2261.66737	0.02126
2260.38160	0.02182
2259.09583	0.02257
2257.81006	0.02299
2256.52429	0.02271
2255.23852	0.02184
2253.95275	0.02088
2252.66698	0.02019
2251.38122	0.01981
2250.09545	0.01990
2248.80968	0.02061
2247.52391	0.02095
2246.23814	0.02139
2244.95237	0.02155
2243.66660	0.02120
2242.38083	0.02060
2241.09507	0.02011
2239.80930	0.01987
2238.52353	0.01975
2237.23776	0.01956
2235.95199	0.01921
2234.66622	0.01880
2233.38045	0.01853
2232.09468	0.01849
2230.80891	0.01864
2229.52315	0.01891
2228.23738	0.01926
2226.95161	0.01960
2225.66584	0.01968
2224.38007	0.01923
2223.09430	0.01830
2221.80853	0.01716
2220.52276	0.01627
2219.23700	0.01596
2217.95123	0.01637
2216.66546	0.01729
2215.37969	0.01826
2214.09392	0.01891
2212.80815	0.01913
2211.52238	0.01889
2210.23661	0.01817
2208.95084	0.01709
2207.66508	0.01612
2206.37931	0.01576
2205.09354	0.01597
2203.80777	0.01615
2202.52200	0.01577
2201.23623	0.01491
2199.95046	0.01416
2198.66469	0.01397
2197.37893	0.01428
2196.09316	0.01476
2194.80739	0.01518
2193.52162	0.01545
2192.23585	0.01561
2190.95008	0.01574
2189.66431	0.01588
2188.37854	0.01607
2187.09277	0.01642
2185.80701	0.01699
2184.52124	0.01753
2183.23547	0.01752
2181.94970	0.01669
2180.66393	0.01540
2179.37816	0.01416
2178.09239	0.01315
2176.80662	0.01238
2175.52085	0.01203
2174.23509	0.01229
2172.94932	0.01297
2171.66355	0.01364
2170.37778	0.01405
2169.09201	0.01423
2167.80624	0.01439
2166.52047	0.01467
2165.23470	0.01505
2163.94894	0.01525
2162.66317	0.01472
2161.37740	0.01281
2160.09163	0.00953
2158.80586	0.00598
2157.52009	0.00384
2156.23432	0.00387
2154.94855	0.00539
2153.66278	0.00711
2152.37702	0.00830
2151.09125	0.00901
2149.80548	0.00967
2148.51971	0.01050
2147.23394	0.01137
2145.94817	0.01197
2144.66240	0.01214
2143.37663	0.01219
2142.09087	0.01264
2140.80510	0.01366
2139.51933	0.01473
2138.23356	0.01502
2136.94779	0.01422
2135.66202	0.01284
2134.37625	0.01176
2133.09048	0.01149
2131.80471	0.01191
2130.51895	0.01255
2129.23318	0.01303
2127.94741	0.01324
2126.66164	0.01333
2125.37587	0.01354
2124.09010	0.01393
2122.80433	0.01433
2121.51856	0.01450
2120.23280	0.01433
2118.94703	0.01401
2117.66126	0.01391
2116.37549	0.01426
2115.08972	0.01494
2113.80395	0.01551
2112.51818	0.01557
2111.23241	0.01522
2109.94664	0.01488
2108.66088	0.01482
2107.37511	0.01487
2106.08934	0.01479
2104.80357	0.01450
2103.51780	0.01412
2102.23203	0.01380
2100.94626	0.01378
2099.66049	0.01440
2098.37473	0.01492
2097.08896	0.01497
2095.80319	0.01459
2094.51742	0.01409
2093.23165	0.01381
2091.94588	0.01381
2090.66011	0.01395
2089.37434	0.01412
2088.08857	0.01428
2086.80281	0.01449
2085.51704	0.01474
2084.23127	0.01494
2082.94550	0.01498
2081.65973	0.01482
2080.37396	0.01456
2079.08819	0.01428
2077.80242	0.01394
2076.51666	0.01351
2075.23089	0.01307
2073.94512	0.01289
2072.65935	0.01315
2071.37358	0.01372
2070.08781	0.01419
2068.80204	0.01415
2067.51627	0.01356
2066.23050	0.01267
2064.94474	0.01180
2063.65897	0.01122
2062.37320	0.01106
2061.08743	0.01122
2059.80166	0.01139
2058.51589	0.01130
2057.23012	0.01089
2055.94435	0.01036
2054.65859	0.01004
2053.37282	0.01022
2052.08705	0.01084
2050.80128	0.01141
2049.51551	0.01138
2048.22974	0.01058
2046.94397	0.00935
2045.65820	0.00818
2044.37243	0.00743
2043.08667	0.00712
2041.80090	0.00692
2040.51513	0.00645
2039.22936	0.00566
2037.94359	0.00506
2036.65782	0.00518
2035.37205	0.00597
2034.08628	0.00677
2032.80052	0.00694
2031.51475	0.00647
2030.22898	0.00595
2028.94321	0.00609
2027.65744	0.00719
2026.37167	0.00881
2025.08590	0.00998
2023.80013	0.00988
2022.51436	0.00864
2021.22860	0.00727
2019.94283	0.00674
2018.65706	0.00713
2017.37129	0.00783
2016.08552	0.00821
2014.79975	0.00821
2013.51398	0.00812
2012.22821	0.00821
2010.94245	0.00849
2009.65668	0.00877
2008.37091	0.00889
2007.08514	0.00886
2005.79937	0.00883
2004.51360	0.00899
2003.22783	0.00940
2001.94206	0.00992
2000.65629	0.01029
1999.37053	0.01033
1998.08476	0.01001
1996.79899	0.00961
1995.51322	0.00956
1994.22745	0.01021
1992.94168	0.01139
1991.65591	0.01247
1990.37014	0.01289
1989.08438	0.01258
1987.79861	0.01181
1986.51284	0.01090
1985.22707	0.01024
1983.94130	0.01021
1982.65553	0.01088
1981.36976	0.01173
1980.08399	0.01195
1978.79822	0.01113
1977.51246	0.00963
1976.22669	0.00820
1974.94092	0.00749
1973.65515	0.00769
1972.36938	0.00860
1971.08361	0.00970
1969.79784	0.01035
1968.51207	0.01030
1967.22631	0.00988
1965.94054	0.00974
1964.65477	0.01016
1963.36900	0.01075
1962.08323	0.01095
1960.79746	0.01065
1959.51169	0.01026
1958.22592	0.01022
1956.94015	0.01056
1955.65439	0.01104
1954.36862	0.01141
1953.08285	0.01159
1951.79708	0.01156
1950.51131	0.01141
1949.22554	0.01135
1947.93977	0.01154
1946.65400	0.01193
1945.36823	0.01241
1944.08247	0.01290
1942.79670	0.01334
1941.51093	0.01360
1940.22516	0.01354
1938.93939	0.01313
1937.65362	0.01258
1936.36785	0.01224
1935.08208	0.01235
1933.79632	0.01285
1932.51055	0.01345
1931.22478	0.01388
1929.93901	0.01405
1928.65324	0.01392
1927.36747	0.01356
1926.08170	0.01316
1924.79593	0.01301
1923.51016	0.01322
1922.22440	0.01363
1920.93863	0.01400
1919.65286	0.01427
1918.36709	0.01451
1917.08132	0.01474
1915.79555	0.01487
1914.50978	0.01476
1913.22401	0.01440
1911.93825	0.01393
1910.65248	0.01358
1909.36671	0.01350
1908.08094	0.01371
1906.79517	0.01409
1905.50940	0.01441
1904.22363	0.01449
1902.93786	0.01431
1901.65209	0.01401
1900.36633	0.01378
1899.08056	0.01374
1897.79479	0.01389
1896.50902	0.01417
1895.22325	0.01448
1893.93748	0.01471
1892.65171	0.01474
1891.36594	0.01454
1890.08018	0.01418
1888.79441	0.01382
1887.50864	0.01365
1886.22287	0.01371
1884.93710	0.01393
1883.65133	0.01418
1882.36556	0.01443
1881.07979	0.01470
1879.79402	0.01497
1878.50826	0.01517
1877.22249	0.01517
1875.93672	0.01494
1874.65095	0.01455
1873.36518	0.01417
1872.07941	0.01401
1870.79364	0.01412
1869.50787	0.01430
1868.22211	0.01434
1866.93634	0.01425
1865.65057	0.01423
1864.36480	0.01438
1863.07903	0.01462
1861.79326	0.01479
1860.50749	0.01483
1859.22172	0.01481
1857.93595	0.01480
1856.65019	0.01479
1855.36442	0.01475
1854.07865	0.01468
1852.79288	0.01463
1851.50711	0.01463
1850.22134	0.01467
1848.93557	0.01471
1847.64980	0.01474
1846.36404	0.01482
1845.07827	0.01492
1843.79250	0.01494
1842.50673	0.01486
1841.22096	0.01476
1839.93519	0.01469
1838.64942	0.01460
1837.36365	0.01443
1836.07788	0.01426
1834.79212	0.01420
1833.50635	0.01432
1832.22058	0.01460
1830.93481	0.01491
1829.64904	0.01507
1828.36327	0.01500
1827.07750	0.01484
1825.79173	0.01471
1824.50597	0.01467
1823.22020	0.01468
1821.93443	0.01476
1820.64866	0.01486
1819.36289	0.01491
1818.07712	0.01488
1816.79135	0.01483
1815.50558	0.01487
1814.21981	0.01502
1812.93405	0.01520
1811.64828	0.01530
1810.36251	0.01530
1809.07674	0.01528
1807.79097	0.01529
1806.50520	0.01534
1805.21943	0.01538
1803.93366	0.01542
1802.64790	0.01546
1801.36213	0.01547
1800.07636	0.01543
1798.79059	0.01536
1797.50482	0.01532
1796.21905	0.01532
1794.93328	0.01536
1793.64751	0.01545
1792.36174	0.01555
1791.07598	0.01560
1789.79021	0.01560
1788.50444	0.01557
1787.21867	0.01551
1785.93290	0.01542
1784.64713	0.01528
1783.36136	0.01516
1782.07559	0.01515
1780.78983	0.01525
1779.50406	0.01539
1778.21829	0.01548
1776.93252	0.01549
1775.64675	0.01541
1774.36098	0.01529
1773.07521	0.01514
1771.78944	0.01498
1770.50367	0.01487
1769.21791	0.01489
1767.93214	0.01496
1766.64637	0.01500
1765.36060	0.01504
1764.07483	0.01514
1762.78906	0.01525
1761.50329	0.01529
1760.21752	0.01528
1758.93176	0.01531
1757.64599	0.01538
1756.36022	0.01536
1755.07445	0.01523
1753.78868	0.01511
1752.50291	0.01510
1751.21714	0.01512
1749.93137	0.01510
1748.64560	0.01507
1747.35984	0.01507
1746.07407	0.01513
1744.78830	0.01522
1743.50253	0.01531
1742.21676	0.01540
1740.93099	0.01547
1739.64522	0.01546
1738.35945	0.01534
1737.07369	0.01528
1735.78792	0.01545
1734.50215	0.01571
1733.21638	0.01581
1731.93061	0.01575
1730.64484	0.01572
1729.35907	0.01576
1728.07330	0.01575
1726.78753	0.01568
1725.50177	0.01563
1724.21600	0.01568
1722.93023	0.01576
1721.64446	0.01586
1720.35869	0.01602
1719.07292	0.01629
1717.78715	0.01656
1716.50138	0.01674
1715.21561	0.01689
1713.92985	0.01713
1712.64408	0.01746
1711.35831	0.01784
1710.07254	0.01824
1708.78677	0.01867
1707.50100	0.01919
1706.21523	0.01977
1704.92946	0.02038
1703.64370	0.02108
1702.35793	0.02199
1701.07216	0.02297
1699.78639	0.02378
1698.50062	0.02450
1697.21485	0.02545
1695.92908	0.02659
1694.64331	0.02762
1693.35754	0.02856
1692.07178	0.02962
1690.78601	0.03075
1689.50024	0.03179
1688.21447	0.03278
1686.92870	0.03391
1685.64293	0.03522
1684.35716	0.03645
1683.07139	0.03744
1681.78563	0.03837
1680.49986	0.03941
1679.21409	0.04053
1677.92832	0.04167
1676.64255	0.04283
1675.35678	0.04392
1674.07101	0.04488
1672.78524	0.04585
1671.49947	0.04696
1670.21371	0.04814
1668.92794	0.04925
1667.64217	0.05022
1666.35640	0.05120
1665.07063	0.05231
1663.78486	0.05346
1662.49909	0.05449
1661.21332	0.05536
1659.92756	0.05610
1658.64179	0.05674
1657.35602	0.05732
1656.07025	0.05802
1654.78448	0.05899
1653.49871	0.05998
1652.21294	0.06054
1650.92717	0.06068
1649.64140	0.06084
1648.35564	0.06128
1647.06987	0.06183
1645.78410	0.06224
1644.49833	0.06246
1643.21256	0.06256
1641.92679	0.06257
1640.64102	0.06243
1639.35525	0.06216
1638.06949	0.06194
1636.78372	0.06181
1635.49795	0.06159
1634.21218	0.06114
1632.92641	0.06051
1631.64064	0.05987
1630.35487	0.05927
1629.06910	0.05862
1627.78333	0.05786
1626.49757	0.05700
1625.21180	0.05608
1623.92603	0.05509
1622.64026	0.05396
1621.35449	0.05274
1620.06872	0.05160
1618.78295	0.05064
1617.49718	0.04977
1616.21142	0.04880
1614.92565	0.04775
1613.63988	0.04678
1612.35411	0.04599
1611.06834	0.04529
1609.78257	0.04461
1608.49680	0.04393
1607.21103	0.04323
1605.92526	0.04254
1604.63950	0.04189
1603.35373	0.04134
1602.06796	0.04090
1600.78219	0.04055
1599.49642	0.04024
1598.21065	0.03995
1596.92488	0.03972
1595.63911	0.03955
1594.35335	0.03945
1593.06758	0.03942
1591.78181	0.03942
1590.49604	0.03945
1589.21027	0.03951
1587.92450	0.03959
1586.63873	0.03971
1585.35296	0.03988
1584.06719	0.04008
1582.78143	0.04032
1581.49566	0.04060
1580.20989	0.04093
1578.92412	0.04137
1577.63835	0.04195
1576.35258	0.04249
1575.06681	0.04285
1573.78104	0.04311
1572.49528	0.04351
1571.20951	0.04408
1569.92374	0.04469
1568.63797	0.04524
1567.35220	0.04576
1566.06643	0.04628
1564.78066	0.04672
1563.49489	0.04706
1562.20912	0.04749
1560.92336	0.04813
1559.63759	0.04879
1558.35182	0.04919
1557.06605	0.04938
1555.78028	0.04966
1554.49451	0.05011
1553.20874	0.05058
1551.92297	0.05101
1550.63721	0.05145
1549.35144	0.05188
1548.06567	0.05224
1546.77990	0.05250
1545.49413	0.05264
1544.20836	0.05269
1542.92259	0.05277
1541.63682	0.05301
1540.35105	0.05334
1539.06529	0.05354
1537.77952	0.05356
1536.49375	0.05360
1535.20798	0.05378
1533.92221	0.05401
1532.63644	0.05414
1531.35067	0.05419
1530.06490	0.05429
1528.77914	0.05448
1527.49337	0.05471
1526.20760	0.05492
1524.92183	0.05511
1523.63606	0.05539
1522.35029	0.05576
1521.06452	0.05609
1519.77875	0.05633
1518.49298	0.05658
1517.20722	0.05693
1515.92145	0.05732
1514.63568	0.05770
1513.34991	0.05805
1512.06414	0.05835
1510.77837	0.05862
1509.49260	0.05903
1508.20683	0.05966
1506.92107	0.06037
1505.63530	0.06089
1504.34953	0.06118
1503.06376	0.06141
1501.77799	0.06170
1500.49222	0.06202
1499.20645	0.06233
1497.92068	0.06262
1496.63491	0.06286
1495.34915	0.06300
1494.06338	0.06308
1492.77761	0.06323
1491.49184	0.06346
1490.20607	0.06369
1488.92030	0.06391
1487.63453	0.06417
1486.34876	0.06450
1485.06299	0.06490
1483.77723	0.06536
1482.49146	0.06589
1481.20569	0.06648
1479.91992	0.06712
1478.63415	0.06779
1477.34838	0.06844
1476.06261	0.06908
1474.77684	0.06976
1473.49108	0.07049
1472.20531	0.07119
1470.91954	0.07177
1469.63377	0.07225
1468.34800	0.07272
1467.06223	0.07319
1465.77646	0.07364
1464.49069	0.07404
1463.20492	0.07440
1461.91916	0.07479
1460.63339	0.07528
1459.34762	0.07595
1458.06185	0.07675
1456.77608	0.07753
1455.49031	0.07815
1454.20454	0.07868
1452.91877	0.07919
1451.63301	0.07964
1450.34724	0.07999
1449.06147	0.08023
1447.77570	0.08037
1446.48993	0.08042
1445.20416	0.08041
1443.91839	0.08040
1442.63262	0.08036
1441.34685	0.08025
1440.06109	0.08010
1438.77532	0.08004
1437.48955	0.08007
1436.20378	0.08010
1434.91801	0.08014
1433.63224	0.08029
1432.34647	0.08063
1431.06070	0.08109
1429.77494	0.08159
1428.48917	0.08210
1427.20340	0.08269
1425.91763	0.08341
1424.63186	0.08424
1423.34609	0.08512
1422.06032	0.08602
1420.77455	0.08695
1419.48878	0.08779
1418.20302	0.08845
1416.91725	0.08899
1415.63148	0.08949
1414.34571	0.08998
1413.05994	0.09039
1411.77417	0.09068
1410.48840	0.09083
1409.20263	0.09082
1407.91687	0.09067
1406.63110	0.09042
1405.34533	0.09007
1404.05956	0.08959
1402.77379	0.08895
1401.48802	0.08820
1400.20225	0.08731
1398.91648	0.08626
1397.63071	0.08505
1396.34495	0.08377
1395.05918	0.08248
1393.77341	0.08115
1392.48764	0.07979
1391.20187	0.07844
1389.91610	0.07714
1388.63033	0.07584
1387.34456	0.07449
1386.05880	0.07303
1384.77303	0.07148
1383.48726	0.06992
1382.20149	0.06838
1380.91572	0.06687
1379.62995	0.06537
1378.34418	0.06384
1377.05841	0.06228
1375.77264	0.06071
1374.48688	0.05916
1373.20111	0.05763
1371.91534	0.05612
1370.62957	0.05463
1369.34380	0.05319
1368.05803	0.05180
1366.77226	0.05049
1365.48649	0.04927
1364.20073	0.04812
1362.91496	0.04701
1361.62919	0.04594
1360.34342	0.04489
1359.05765	0.04392
1357.77188	0.04303
1356.48611	0.04224
1355.20034	0.04153
1353.91457	0.04088
1352.62881	0.04027
1351.34304	0.03972
1350.05727	0.03923
1348.77150	0.03878
1347.48573	0.03834
1346.19996	0.03791
1344.91419	0.03753
1343.62842	0.03721
1342.34266	0.03695
1341.05689	0.03671
1339.77112	0.03645
1338.48535	0.03617
1337.19958	0.03589
1335.91381	0.03560
1334.62804	0.03532
1333.34227	0.03503
1332.05650	0.03474
1330.77074	0.03443
1329.48497	0.03408
1328.19920	0.03369
1326.91343	0.03332
1325.62766	0.03297
1324.34189	0.03266
1323.05612	0.03235
1321.77035	0.03206
1320.48459	0.03179
1319.19882	0.03155
1317.91305	0.03134
1316.62728	0.03116
1315.34151	0.03097
1314.05574	0.03073
1312.76997	0.03043
1311.48420	0.03011
1310.19843	0.02980
1308.91267	0.02950
1307.62690	0.02919
1306.34113	0.02887
1305.05536	0.02858
1303.76959	0.02834
1302.48382	0.02815
1301.19805	0.02796
1299.91228	0.02775
1298.62652	0.02753
1297.34075	0.02732
1296.05498	0.02713
1294.76921	0.02694
1293.48344	0.02676
1292.19767	0.02659
1290.91190	0.02647
1289.62613	0.02642
1288.34036	0.02640
1287.05460	0.02639
1285.76883	0.02635
1284.48306	0.02627
1283.19729	0.02620
1281.91152	0.02613
1280.62575	0.02606
1279.33998	0.02598
1278.05421	0.02588
1276.76845	0.02577
1275.48268	0.02564
1274.19691	0.02551
1272.91114	0.02540
1271.62537	0.02533
1270.33960	0.02531
1269.05383	0.02532
1267.76806	0.02532
1266.48229	0.02528
1265.19653	0.02521
1263.91076	0.02513
1262.62499	0.02506
1261.33922	0.02500
1260.05345	0.02495
1258.76768	0.02489
1257.48191	0.02484
1256.19614	0.02482
1254.91037	0.02484
1253.62461	0.02490
1252.33884	0.02497
1251.05307	0.02500
1249.76730	0.02499
1248.48153	0.02494
1247.19576	0.02487
1245.90999	0.02483
1244.62422	0.02482
1243.33846	0.02479
1242.05269	0.02473
1240.76692	0.02463
1239.48115	0.02452
1238.19538	0.02438
1236.90961	0.02423
1235.62384	0.02406
1234.33807	0.02390
1233.05230	0.02374
1231.76654	0.02355
1230.48077	0.02330
1229.19500	0.02302
1227.90923	0.02273
1226.62346	0.02246
1225.33769	0.02221
1224.05192	0.02193
1222.76615	0.02161
1221.48039	0.02127
1220.19462	0.02094
1218.90885	0.02063
1217.62308	0.02032
1216.33731	0.02004
1215.05154	0.01980
1213.76577	0.01960
1212.48000	0.01944
1211.19423	0.01932
1209.90847	0.01923
1208.62270	0.01920
1207.33693	0.01919
1206.05116	0.01919
1204.76539	0.01916
1203.47962	0.01911
1202.19385	0.01903
1200.90808	0.01894
1199.62232	0.01882
1198.33655	0.01872
1197.05078	0.01858
1195.76501	0.01839
1194.47924	0.01818
1193.19347	0.01796
1191.90770	0.01775
1190.62193	0.01755
1189.33616	0.01736
1188.05040	0.01719
1186.76463	0.01704
1185.47886	0.01688
1184.19309	0.01672
1182.90732	0.01658
1181.62155	0.01649
1180.33578	0.01647
1179.05001	0.01650
1177.76425	0.01654
1176.47848	0.01655
1175.19271	0.01652
1173.90694	0.01645
1172.62117	0.01640
1171.33540	0.01638
1170.04963	0.01640
1168.76386	0.01646
1167.47809	0.01656
1166.19233	0.01669
1164.90656	0.01683
1163.62079	0.01694
1162.33502	0.01701
1161.04925	0.01706
1159.76348	0.01712
1158.47771	0.01721
1157.19194	0.01733
1155.90618	0.01745
1154.62041	0.01758
1153.33464	0.01772
1152.04887	0.01790
1150.76310	0.01814
1149.47733	0.01843
1148.19156	0.01878
1146.90579	0.01918
1145.62002	0.01960
1144.33426	0.02004
1143.04849	0.02049
1141.76272	0.02095
1140.47695	0.02145
1139.19118	0.02202
1137.90541	0.02271
1136.61964	0.02355
1135.33387	0.02453
1134.04811	0.02562
1132.76234	0.02683
1131.47657	0.02818
1130.19080	0.02970
1128.90503	0.03135
1127.61926	0.03309
1126.33349	0.03490
1125.04772	0.03681
1123.76195	0.03887
1122.47619	0.04109
1121.19042	0.04340
1119.90465	0.04572
1118.61888	0.04801
1117.33311	0.05032
1116.04734	0.05271
1114.76157	0.05522
1113.47580	0.05779
1112.19004	0.06036
1110.90427	0.06286
1109.61850	0.06527
1108.33273	0.06761
1107.04696	0.06988
1105.76119	0.07207
1104.47542	0.07418
1103.18965	0.07623
1101.90388	0.07823
1100.61812	0.08020
1099.33235	0.08210
1098.04658	0.08387
1096.76081	0.08552
1095.47504	0.08714
1094.18927	0.08877
1092.90350	0.09039
1091.61773	0.09191
1090.33197	0.09331
1089.04620	0.09464
1087.76043	0.09594
1086.47466	0.09726
1085.18889	0.09863
1083.90312	0.10007
1082.61735	0.10156
1081.33158	0.10310
1080.04581	0.10466
1078.76005	0.10630
1077.47428	0.10803
1076.18851	0.10990
1074.90274	0.11191
1073.61697	0.11402
1072.33120	0.11617
1071.04543	0.11833
1069.75966	0.12048
1068.47390	0.12266
1067.18813	0.12491
1065.90236	0.12730
1064.61659	0.12980
1063.33082	0.13236
1062.04505	0.13489
1060.75928	0.13731
1059.47351	0.13961
1058.18774	0.14185
1056.90198	0.14411
1055.61621	0.14639
1054.33044	0.14870
1053.04467	0.15101
1051.75890	0.15336
1050.47313	0.15574
1049.18736	0.15813
1047.90159	0.16048
1046.61583	0.16277
1045.33006	0.16499
1044.04429	0.16721
1042.75852	0.16945
1041.47275	0.17173
1040.18698	0.17406
1038.90121	0.17648
1037.61544	0.17904
1036.32967	0.18170
1035.04391	0.18437
1033.75814	0.18688
1032.47237	0.18913
1031.18660	0.19115
1029.90083	0.19298
1028.61506	0.19469
1027.32929	0.19626
1026.04352	0.19769
1024.75775	0.19898
1023.47199	0.20011
1022.18622	0.20102
1020.90045	0.20161
1019.61468	0.20181
1018.32891	0.20162
1017.04314	0.20115
1015.75737	0.20050
1014.47160	0.19967
1013.18584	0.19860
1011.90007	0.19721
1010.61430	0.19548
1009.32853	0.19342
1008.04276	0.19107
1006.75699	0.18850
1005.47122	0.18574
1004.18545	0.18280
1002.89968	0.17965
1001.61392	0.17627
1000.32815	0.17266
999.04238	0.16890
997.75661	0.16506
996.47084	0.16116
995.18507	0.15717
993.89930	0.15312
992.61353	0.14901
991.32777	0.14486
990.04200	0.14071
988.75623	0.13661
987.47046	0.13257
986.18469	0.12860
984.89892	0.12471
983.61315	0.12100
982.32738	0.11744
981.04161	0.11397
979.75585	0.11054
978.47008	0.10725
977.18431	0.10421
975.89854	0.10143
974.61277	0.09885
973.32700	0.09649
972.04123	0.09448
970.75546	0.09290
969.46970	0.09173
968.18393	0.09093
966.89816	0.09045
965.61239	0.09034
964.32662	0.09056
963.04085	0.09097
961.75508	0.09135
960.46931	0.09149
959.18354	0.09124
957.89778	0.09055
956.61201	0.08944
955.32624	0.08801
954.04047	0.08640
952.75470	0.08470
951.46893	0.08297
950.18316	0.08121
948.89739	0.07940
947.61163	0.07758
946.32586	0.07581
945.04009	0.07418
943.75432	0.07270
942.46855	0.07129
941.18278	0.06983
939.89701	0.06828
938.61124	0.06671
937.32547	0.06522
936.03971	0.06388
934.75394	0.06269
933.46817	0.06163
932.18240	0.06060
930.89663	0.05955
929.61086	0.05848
928.32509	0.05750
927.03932	0.05663
925.75356	0.05583
924.46779	0.05502
923.18202	0.05419
921.89625	0.05341
920.61048	0.05269
919.32471	0.05201
918.03894	0.05132
916.75317	0.05060
915.46740	0.04989
914.18164	0.04926
912.89587	0.04875
911.61010	0.04834
910.32433	0.04795
909.03856	0.04749
907.75279	0.04691
906.46702	0.04625
905.18125	0.04560
903.89549	0.04509
902.60972	0.04476
901.32395	0.04452
900.03818	0.04420
898.75241	0.04377
897.46664	0.04329
896.18087	0.04290
894.89510	0.04264
893.60933	0.04248
892.32357	0.04235
891.03780	0.04220
889.75203	0.04203
888.46626	0.04190
887.18049	0.04193
885.89472	0.04235
884.60895	0.04341
883.32318	0.04516
882.03742	0.04741
880.75165	0.04975
879.46588	0.05179
878.18011	0.05335
876.89434	0.05451
875.60857	0.05554
874.32280	0.05658
873.03703	0.05758
871.75126	0.05828
870.46550	0.05849
869.17973	0.05814
867.89396	0.05735
866.60819	0.05623
865.32242	0.05488
864.03665	0.05336
862.75088	0.05174
861.46511	0.05012
860.17935	0.04863
858.89358	0.04737
857.60781	0.04637
856.32204	0.04556
855.03627	0.04481
853.75050	0.04403
852.46473	0.04326
851.17896	0.04260
849.89319	0.04208
848.60743	0.04166
847.32166	0.04122
846.03589	0.04072
844.75012	0.04021
843.46435	0.03976
842.17858	0.03945
840.89281	0.03926
839.60704	0.03909
838.32128	0.03883
837.03551	0.03844
835.74974	0.03803
834.46397	0.03775
833.17820	0.03761
831.89243	0.03751
830.60666	0.03733
829.32089	0.03710
828.03512	0.03690
826.74936	0.03676
825.46359	0.03664
824.17782	0.03647
822.89205	0.03628
821.60628	0.03616
820.32051	0.03609
819.03474	0.03603
817.74897	0.03591
816.46321	0.03578
815.17744	0.03572
813.89167	0.03573
812.60590	0.03575
811.32013	0.03573
810.03436	0.03561
808.74859	0.03543
807.46282	0.03526
806.17705	0.03519
804.89129	0.03522
803.60552	0.03525
802.31975	0.03521
801.03398	0.03511
799.74821	0.03500
798.46244	0.03492
797.17667	0.03483
795.89090	0.03475
794.60513	0.03469
793.31937	0.03468
792.03360	0.03472
790.74783	0.03480
789.46206	0.03490
788.17629	0.03498
786.89052	0.03497
785.60475	0.03486
784.31898	0.03468
783.03322	0.03448
781.74745	0.03431
780.46168	0.03422
779.17591	0.03423
777.89014	0.03431
776.60437	0.03437
775.31860	0.03436
774.03283	0.03431
772.74706	0.03427
771.46130	0.03427
770.17553	0.03432
768.88976	0.03439
767.60399	0.03446
766.31822	0.03451
765.03245	0.03453
763.74668	0.03450
762.46091	0.03444
761.17515	0.03442
759.88938	0.03449
758.60361	0.03463
757.31784	0.03476
756.03207	0.03479
754.74630	0.03473
753.46053	0.03464
752.17476	0.03460
750.88899	0.03465
749.60323	0.03475
748.31746	0.03485
747.03169	0.03492
745.74592	0.03496
744.46015	0.03494
743.17438	0.03488
741.88861	0.03477
740.60284	0.03465
739.31708	0.03456
738.03131	0.03454
736.74554	0.03465
735.45977	0.03486
734.17400	0.03501
732.88823	0.03498
731.60246	0.03479
730.31669	0.03461
729.03092	0.03455
727.74516	0.03460
726.45939	0.03468
725.17362	0.03473
723.88785	0.03456
722.60208	0.03477
721.31631	0.03515
720.03054	0.03543
718.74477	0.03560
717.45901	0.03568
716.17324	0.03567
714.88747	0.03558
713.60170	0.03543
712.31593	0.03528
711.03016	0.03515
709.74439	0.03506
708.45862	0.03504
707.17285	0.03506
705.88709	0.03508
704.60132	0.03510
703.31555	0.03511
702.02978	0.03513
700.74401	0.03517
699.45824	0.03525
698.17247	0.03537
696.88670	0.03551
695.60094	0.03565
694.31517	0.03575
693.02940	0.03578
691.74363	0.03577
690.45786	0.03576
689.17209	0.03577
687.88632	0.03577
686.60055	0.03571
685.31478	0.03555
684.02902	0.03533
682.74325	0.03509
681.45748	0.03490
680.17171	0.03475
678.88594	0.03459
677.60017	0.03441
676.31440	0.03424
675.02863	0.03415
673.74287	0.03416
672.45710	0.03423
671.17133	0.03434
669.88556	0.03446
668.59979	0.03455
667.31402	0.03456
666.02825	0.03451
664.74248	0.03439
663.45671	0.03425
662.17095	0.03409
660.88518	0.03392
659.59941	0.03375
658.31364	0.03359
657.02787	0.03347
655.74210	0.03342
654.45633	0.03340
653.17056	0.03336
651.88480	0.03328
650.59903	0.03318
649.31326	0.03312
648.02749	0.03311
646.74172	0.03312
645.45595	0.03310
644.17018	0.03302
642.88441	0.03293
641.59864	0.03290
640.31288	0.03295
639.02711	0.03305
637.74134	0.03315
636.45557	0.03323
635.16980	0.03331
633.88403	0.03340
632.59826	0.03350
631.31249	0.03367
630.02673	0.03413
628.74096	0.03483
627.45519	0.03510
626.16942	0.03588
624.88365	0.03674
623.59788	0.03728
622.31211	0.03814
621.02634	0.04053
619.74057	0.04479
618.45481	0.04978
617.16904	0.05384
615.88327	0.05605
614.59750	0.05674
613.31173	0.05726
612.02596	0.05912
610.74019	0.06275
609.45442	0.06713
608.16866	0.07102
606.88289	0.07415
605.59712	0.07689
604.31135	0.07943
603.02558	0.08147
601.73981	0.08259
600.45404	0.08258
599.16827	0.08161
597.88250	0.08004
596.59674	0.07825
595.31097	0.07652
594.02520	0.07508
592.73943	0.07404
591.45366	0.07333
590.16789	0.07283
588.88212	0.07250
587.59635	0.07240
586.31059	0.07264
585.02482	0.07330
583.73905	0.07436
582.45328	0.07579
581.16751	0.07754
579.88174	0.07955
578.59597	0.08169
577.31020	0.08380
576.02443	0.08573
574.73867	0.08748
573.45290	0.08917
572.16713	0.09096
570.88136	0.09298
569.59559	0.09529
568.30982	0.09794
567.02405	0.10082
565.73828	0.10372
564.45251	0.10633
563.16675	0.10844
561.88098	0.10983
560.59521	0.11033
559.30944	0.10971
558.02367	0.10787
556.73790	0.10500
555.45213	0.10152
554.16636	0.09785
552.88060	0.09421
551.59483	0.09061
550.30906	0.08708
549.02329	0.08369
547.73752	0.08058
546.45175	0.07779
545.16598	0.07525
543.88021	0.07280
542.59444	0.07039
541.30868	0.06806
540.02291	0.06593
538.73714	0.06401
537.45137	0.06224
536.16560	0.06056
534.87983	0.05900
533.59406	0.05759
532.30829	0.05636
531.02253	0.05531
529.73676	0.05438
528.45099	0.05352
527.16522	0.05264
525.87945	0.05171
524.59368	0.05077
523.30791	0.04981
522.02214	0.04879
520.73637	0.04772
519.45061	0.04669
518.16484	0.04580
516.87907	0.04507
515.59330	0.04445
514.30753	0.04390
513.02176	0.04338
511.73599	0.04285
510.45022	0.04228
509.16446	0.04169
507.87869	0.04111
506.59292	0.04053
505.30715	0.03997
504.02138	0.03947
502.73561	0.03907
501.44984	0.03872
500.16407	0.03828
498.87830	0.03769
497.59254	0.03699
496.30677	0.03628
495.02100	0.03568
493.73523	0.03526
492.44946	0.03504
491.16369	0.03495
489.87792	0.03485
488.59215	0.03463
487.30639	0.03429
486.02062	0.03393
484.73485	0.03362
483.44908	0.03338
482.16331	0.03317
480.87754	0.03299
479.59177	0.03287
478.30600	0.03285
477.02023	0.03292
475.73447	0.03303
474.44870	0.03313
473.16293	0.03320
471.87716	0.03326
470.59139	0.03332
469.30562	0.03338
468.01985	0.03338
466.73408	0.03325
465.44832	0.03297
464.16255	0.03259
462.87678	0.03214
461.59101	0.03167
460.30524	0.03122
459.01947	0.03084
457.73370	0.03054
456.44793	0.03031
455.16216	0.03010
453.87640	0.02983
452.59063	0.02943
451.30486	0.02891
450.01909	0.02838
448.73332	0.02799
447.44755	0.02776
446.16178	0.02764
444.87601	0.02752
443.59025	0.02734
442.30448	0.02709
441.01871	0.02679
439.73294	0.02651
438.44717	0.02628
437.16140	0.02610
435.87563	0.02597
434.58986	0.02586
433.30409	0.02572
432.01833	0.02553
430.73256	0.02533
429.44679	0.02518
428.16102	0.02508
426.87525	0.02498
425.58948	0.02483
424.30371	0.02461
423.01794	0.02436
421.73218	0.02411
420.44641	0.02387
419.16064	0.02362
417.87487	0.02334
416.58910	0.02309
415.30333	0.02287
414.01756	0.02266
412.73179	0.02245
411.44602	0.02229
410.16026	0.02222
408.87449	0.02224
407.58872	0.02229
406.30295	0.02231
405.01718	0.02227
403.73141	0.02221
402.44564	0.02219
401.15987	0.02223
399.87411	0.02229
