3997.45528	0.03081
3996.16951	0.03035
3994.88374	0.03005
3993.59798	0.02998
3992.31221	0.03013
3991.02644	0.03042
3989.74067	0.03084
3988.45490	0.03150
3987.16913	0.03239
3985.88336	0.03326
3984.59759	0.03376
3983.31183	0.03374
3982.02606	0.03343
3980.74029	0.03313
3979.45452	0.03302
3978.16875	0.03306
3976.88298	0.03308
3975.59721	0.03300
3974.31144	0.03296
3973.02567	0.03311
3971.73991	0.03334
3970.45414	0.03323
3969.16837	0.03262
3967.88260	0.03180
3966.59683	0.03127
3965.31106	0.03125
3964.02529	0.03155
3962.73952	0.03186
3961.45376	0.03203
3960.16799	0.03205
3958.88222	0.03189
3957.59645	0.03149
3956.31068	0.03086
3955.02491	0.03026
3953.73914	0.03009
3952.45337	0.03053
3951.16760	0.03142
3949.88184	0.03235
3948.59607	0.03290
3947.31030	0.03297
3946.02453	0.03282
3944.73876	0.03277
3943.45299	0.03296
3942.16722	0.03331
3940.88145	0.03360
3939.59569	0.03362
3938.30992	0.03325
3937.02415	0.03253
3935.73838	0.03167
3934.45261	0.03097
3933.16684	0.03062
3931.88107	0.03067
3930.59530	0.03100
3929.30953	0.03141
3928.02377	0.03166
3926.73800	0.03153
3925.45223	0.03106
3924.16646	0.03052
3922.88069	0.03024
3921.59492	0.03035
3920.30915	0.03080
3919.02338	0.03147
3917.73762	0.03217
3916.45185	0.03260
3915.16608	0.03252
3913.88031	0.03196
3912.59454	0.03123
3911.30877	0.03067
3910.02300	0.03040
3908.73723	0.03033
3907.45146	0.03031
3906.16570	0.03026
3904.87993	0.03016
3903.59416	0.03004
3902.30839	0.02993
3901.02262	0.02989
3899.73685	0.02997
3898.45108	0.03017
3897.16531	0.03049
3895.87955	0.03089
3894.59378	0.03122
3893.30801	0.03119
3892.02224	0.03069
3890.73647	0.02997
3889.45070	0.02955
3888.16493	0.02976
3886.87916	0.03048
3885.59339	0.03127
3884.30763	0.03175
3883.02186	0.03181
3881.73609	0.03157
3880.45032	0.03123
3879.16455	0.03092
3877.87878	0.03067
3876.59301	0.03057
3875.30724	0.03076
3874.02148	0.03122
3872.73571	0.03160
3871.44994	0.03146
3870.16417	0.03080
3868.87840	0.03012
3867.59263	0.02987
3866.30686	0.03002
3865.02109	0.03023
3863.73532	0.03035
3862.44956	0.03052
3861.16379	0.03083
3859.87802	0.03105
3858.59225	0.03092
3857.30648	0.03052
3856.02071	0.03020
3854.73494	0.03018
3853.44917	0.03038
3852.16341	0.03054
3850.87764	0.03054
3849.59187	0.03040
3848.30610	0.03016
3847.02033	0.02982
3845.73456	0.02946
3844.44879	0.02915
3843.16302	0.02896
3841.87725	0.02888
3840.59149	0.02890
3839.30572	0.02900
3838.01995	0.02907
3836.73418	0.02898
3835.44841	0.02870
3834.16264	0.02841
3832.87687	0.02839
3831.59110	0.02875
3830.30534	0.02929
3829.01957	0.02972
3827.73380	0.02991
3826.44803	0.03002
3825.16226	0.03021
3823.87649	0.03041
3822.59072	0.03044
3821.30495	0.03030
3820.01918	0.03018
3818.73342	0.03016
3817.44765	0.03011
3816.16188	0.02987
3814.87611	0.02955
3813.59034	0.02933
3812.30457	0.02929
3811.01880	0.02941
3809.73303	0.02960
3808.44726	0.02977
3807.16150	0.02981
3805.87573	0.02973
3804.58996	0.02976
3803.30419	0.03007
3802.01842	0.03049
3800.73265	0.03063
3799.44688	0.03031
3798.16111	0.02973
3796.87535	0.02924
3795.58958	0.02904
3794.30381	0.02917
3793.01804	0.02949
3791.73227	0.02971
3790.44650	0.02954
3789.16073	0.02901
3787.87496	0.02855
3786.58919	0.02855
3785.30343	0.02895
3784.01766	0.02935
3782.73189	0.02944
3781.44612	0.02923
3780.16035	0.02883
3778.87458	0.02831
3777.58881	0.02781
3776.30304	0.02760
3775.01728	0.02796
3773.73151	0.02886
3772.44574	0.02986
3771.15997	0.03040
3769.87420	0.03016
3768.58843	0.02930
3767.30266	0.02819
3766.01689	0.02721
3764.73112	0.02662
3763.44536	0.02657
3762.15959	0.02706
3760.87382	0.02784
3759.58805	0.02855
3758.30228	0.02897
3757.01651	0.02915
3755.73074	0.02932
3754.44497	0.02966
3753.15921	0.03012
3751.87344	0.03042
3750.58767	0.03030
3749.30190	0.02978
3748.01613	0.02917
3746.73036	0.02883
3745.44459	0.02887
3744.15882	0.02914
3742.87305	0.02931
3741.58729	0.02918
3740.30152	0.02883
3739.01575	0.02855
3737.72998	0.02858
3736.44421	0.02889
3735.15844	0.02927
3733.87267	0.02953
3732.58690	0.02955
3731.30114	0.02927
3730.01537	0.02870
3728.72960	0.02805
3727.44383	0.02762
3726.15806	0.02762
3724.87229	0.02801
3723.58652	0.02854
3722.30075	0.02887
3721.01498	0.02881
3719.72922	0.02839
3718.44345	0.02791
3717.15768	0.02769
3715.87191	0.02788
3714.58614	0.02841
3713.30037	0.02901
3712.01460	0.02939
3710.72883	0.02943
3709.44307	0.02919
3708.15730	0.02874
3706.87153	0.02813
3705.58576	0.02756
3704.29999	0.02742
3703.01422	0.02785
3701.72845	0.02845
3700.44268	0.02859
3699.15691	0.02807
3697.87115	0.02724
3696.58538	0.02662
3695.29961	0.02648
3694.01384	0.02660
3692.72807	0.02661
3691.44230	0.02646
3690.15653	0.02639
3688.87076	0.02654
3687.58500	0.02668
3686.29923	0.02658
3685.01346	0.02631
3683.72769	0.02611
3682.44192	0.02618
3681.15615	0.02645
3679.87038	0.02677
3678.58461	0.02710
3677.29884	0.02739
3676.01308	0.02760
3674.72731	0.02780
3673.44154	0.02809
3672.15577	0.02841
3670.87000	0.02858
3669.58423	0.02849
3668.29846	0.02831
3667.01269	0.02819
3665.72693	0.02812
3664.44116	0.02791
3663.15539	0.02752
3661.86962	0.02703
3660.58385	0.02661
3659.29808	0.02636
3658.01231	0.02627
3656.72654	0.02628
3655.44077	0.02634
3654.15501	0.02655
3652.86924	0.02704
3651.58347	0.02785
3650.29770	0.02878
3649.01193	0.02940
3647.72616	0.02944
3646.44039	0.02901
3645.15462	0.02850
3643.86886	0.02823
3642.58309	0.02830
3641.29732	0.02879
3640.01155	0.02962
3638.72578	0.03044
3637.44001	0.03083
3636.15424	0.03067
3634.86847	0.03031
3633.58270	0.03018
3632.29694	0.03038
3631.01117	0.03070
3629.72540	0.03089
3628.43963	0.03077
3627.15386	0.03031
3625.86809	0.02972
3624.58232	0.02925
3623.29655	0.02902
3622.01079	0.02894
3620.72502	0.02887
3619.43925	0.02878
3618.15348	0.02868
3616.86771	0.02856
3615.58194	0.02857
3614.29617	0.02890
3613.01040	0.02957
3611.72463	0.03031
3610.43887	0.03083
3609.15310	0.03103
3607.86733	0.03103
3606.58156	0.03098
3605.29579	0.03091
3604.01002	0.03076
3602.72425	0.03051
3601.43848	0.03025
3600.15272	0.03024
3598.86695	0.03064
3597.58118	0.03133
3596.29541	0.03203
3595.00964	0.03252
3593.72387	0.03276
3592.43810	0.03272
3591.15233	0.03244
3589.86656	0.03211
3588.58080	0.03193
3587.29503	0.03185
3586.00926	0.03166
3584.72349	0.03129
3583.43772	0.03103
3582.15195	0.03134
3580.86618	0.03228
3579.58041	0.03331
3578.29464	0.03377
3577.00888	0.03356
3575.72311	0.03314
3574.43734	0.03308
3573.15157	0.03357
3571.86580	0.03437
3570.58003	0.03512
3569.29426	0.03564
3568.00849	0.03593
3566.72273	0.03604
3565.43696	0.03601
3564.15119	0.03587
3562.86542	0.03557
3561.57965	0.03513
3560.29388	0.03463
3559.00811	0.03422
3557.72234	0.03396
3556.43657	0.03382
3555.15081	0.03389
3553.86504	0.03431
3552.57927	0.03508
3551.29350	0.03587
3550.00773	0.03626
3548.72196	0.03612
3547.43619	0.03566
3546.15042	0.03517
3544.86466	0.03483
3543.57889	0.03468
3542.29312	0.03480
3541.00735	0.03518
3539.72158	0.03560
3538.43581	0.03574
3537.15004	0.03552
3535.86427	0.03522
3534.57850	0.03512
3533.29274	0.03521
3532.00697	0.03534
3530.72120	0.03549
3529.43543	0.03588
3528.14966	0.03661
3526.86389	0.03750
3525.57812	0.03826
3524.29235	0.03865
3523.00659	0.03868
3521.72082	0.03851
3520.43505	0.03840
3519.14928	0.03846
3517.86351	0.03856
3516.57774	0.03844
3515.29197	0.03809
3514.00620	0.03780
3512.72043	0.03790
3511.43467	0.03835
3510.14890	0.03879
3508.86313	0.03897
3507.57736	0.03894
3506.29159	0.03895
3505.00582	0.03910
3503.72005	0.03929
3502.43428	0.03938
3501.14852	0.03931
3499.86275	0.03918
3498.57698	0.03917
3497.29121	0.03941
3496.00544	0.03976
3494.71967	0.03994
3493.43390	0.03984
3492.14813	0.03962
3490.86236	0.03950
3489.57660	0.03948
3488.29083	0.03937
3487.00506	0.03905
3485.71929	0.03871
3484.43352	0.03870
3483.14775	0.03920
3481.86198	0.03999
3480.57621	0.04072
3479.29045	0.04117
3478.00468	0.04132
3476.71891	0.04121
3475.43314	0.04093
3474.14737	0.04068
3472.86160	0.04066
3471.57583	0.04087
3470.29006	0.04118
3469.00429	0.04142
3467.71853	0.04150
3466.43276	0.04143
3465.14699	0.04126
3463.86122	0.04111
3462.57545	0.04116
3461.28968	0.04146
3460.00391	0.04194
3458.71814	0.04238
3457.43238	0.04260
3456.14661	0.04263
3454.86084	0.04261
3453.57507	0.04264
3452.28930	0.04262
3451.00353	0.04244
3449.71776	0.04211
3448.43199	0.04182
3447.14622	0.04169
3445.86046	0.04169
3444.57469	0.04168
3443.28892	0.04161
3442.00315	0.04153
3440.71738	0.04154
3439.43161	0.04176
3438.14584	0.04221
3436.86007	0.04275
3435.57431	0.04316
3434.28854	0.04334
3433.00277	0.04336
3431.71700	0.04344
3430.43123	0.04372
3429.14546	0.04414
3427.85969	0.04452
3426.57392	0.04462
3425.28815	0.04438
3424.00239	0.04401
3422.71662	0.04379
3421.43085	0.04385
3420.14508	0.04415
3418.85931	0.04453
3417.57354	0.04478
3416.28777	0.04471
3415.00200	0.04420
3413.71624	0.04342
3412.43047	0.04276
3411.14470	0.04261
3409.85893	0.04299
3408.57316	0.04356
3407.28739	0.04401
3406.00162	0.04427
3404.71585	0.04447
3403.43008	0.04471
3402.14432	0.04495
3400.85855	0.04509
3399.57278	0.04513
3398.28701	0.04518
3397.00124	0.04538
3395.71547	0.04574
3394.42970	0.04607
3393.14393	0.04617
3391.85817	0.04605
3390.57240	0.04593
3389.28663	0.04596
3388.00086	0.04613
3386.71509	0.04625
3385.42932	0.04614
3384.14355	0.04576
3382.85778	0.04527
3381.57201	0.04488
3380.28625	0.04475
3379.00048	0.04482
3377.71471	0.04496
3376.42894	0.04502
3375.14317	0.04502
3373.85740	0.04501
3372.57163	0.04495
3371.28586	0.04481
3370.00010	0.04466
3368.71433	0.04469
3367.42856	0.04497
3366.14279	0.04546
3364.85702	0.04601
3363.57125	0.04642
3362.28548	0.04647
3360.99971	0.04608
3359.71394	0.04549
3358.42818	0.04510
3357.14241	0.04507
3355.85664	0.04525
3354.57087	0.04540
3353.28510	0.04547
3351.99933	0.04556
3350.71356	0.04573
3349.42779	0.04585
3348.14202	0.04577
3346.85626	0.04544
3345.57049	0.04505
3344.28472	0.04486
3342.99895	0.04499
3341.71318	0.04533
3340.42741	0.04566
3339.14164	0.04587
3337.85587	0.04605
3336.57011	0.04624
3335.28434	0.04636
3333.99857	0.04636
3332.71280	0.04629
3331.42703	0.04624
3330.14126	0.04621
3328.85549	0.04607
3327.56972	0.04575
3326.28395	0.04534
3324.99819	0.04509
3323.71242	0.04521
3322.42665	0.04566
3321.14088	0.04619
3319.85511	0.04649
3318.56934	0.04641
3317.28357	0.04606
3315.99780	0.04566
3314.71204	0.04544
3313.42627	0.04545
3312.14050	0.04569
3310.85473	0.04616
3309.56896	0.04682
3308.28319	0.04746
3306.99742	0.04777
3305.71165	0.04760
3304.42588	0.04711
3303.14012	0.04657
3301.85435	0.04626
3300.56858	0.04623
3299.28281	0.04636
3297.99704	0.04643
3296.71127	0.04635
3295.42550	0.04623
3294.13973	0.04627
3292.85397	0.04652
3291.56820	0.04678
3290.28243	0.04689
3288.99666	0.04679
3287.71089	0.04655
3286.42512	0.04622
3285.13935	0.04582
3283.85358	0.04544
3282.56781	0.04519
3281.28205	0.04516
3279.99628	0.04530
3278.71051	0.04557
3277.42474	0.04594
3276.13897	0.04634
3274.85320	0.04664
3273.56743	0.04674
3272.28166	0.04662
3270.99590	0.04638
3269.71013	0.04611
3268.42436	0.04584
3267.13859	0.04555
3265.85282	0.04528
3264.56705	0.04517
3263.28128	0.04527
3261.99551	0.04551
3260.70974	0.04578
3259.42398	0.04605
3258.13821	0.04628
3256.85244	0.04635
3255.56667	0.04613
3254.28090	0.04564
3252.99513	0.04504
3251.70936	0.04456
3250.42359	0.04431
3249.13783	0.04424
3247.85206	0.04420
3246.56629	0.04405
3245.28052	0.04377
3243.99475	0.04348
3242.70898	0.04339
3241.42321	0.04361
3240.13744	0.04404
3238.85167	0.04438
3237.56591	0.04441
3236.28014	0.04413
3234.99437	0.04372
3233.70860	0.04333
3232.42283	0.04297
3231.13706	0.04266
3229.85129	0.04249
3228.56552	0.04261
3227.27976	0.04298
3225.99399	0.04342
3224.70822	0.04376
3223.42245	0.04391
3222.13668	0.04383
3220.85091	0.04358
3219.56514	0.04339
3218.27937	0.04350
3216.99360	0.04390
3215.70784	0.04428
3214.42207	0.04434
3213.13630	0.04403
3211.85053	0.04358
3210.56476	0.04330
3209.27899	0.04336
3207.99322	0.04365
3206.70745	0.04399
3205.42169	0.04418
3204.13592	0.04407
3202.85015	0.04357
3201.56438	0.04280
3200.27861	0.04206
3198.99284	0.04171
3197.70707	0.04183
3196.42130	0.04221
3195.13553	0.04250
3193.84977	0.04250
3192.56400	0.04227
3191.27823	0.04204
3189.99246	0.04203
3188.70669	0.04231
3187.42092	0.04282
3186.13515	0.04335
3184.84938	0.04362
3183.56362	0.04350
3182.27785	0.04316
3180.99208	0.04286
3179.70631	0.04266
3178.42054	0.04244
3177.13477	0.04221
3175.84900	0.04217
3174.56323	0.04236
3173.27746	0.04251
3171.99170	0.04231
3170.70593	0.04177
3169.42016	0.04122
3168.13439	0.04106
3166.84862	0.04135
3165.56285	0.04185
3164.27708	0.04214
3162.99131	0.04201
3161.70555	0.04152
3160.41978	0.04097
3159.13401	0.04059
3157.84824	0.04046
3156.56247	0.04057
3155.27670	0.04092
3153.99093	0.04149
3152.70516	0.04211
3151.41939	0.04252
3150.13363	0.04257
3148.84786	0.04234
3147.56209	0.04198
3146.27632	0.04158
3144.99055	0.04114
3143.70478	0.04069
3142.41901	0.04030
3141.13324	0.04004
3139.84748	0.03992
3138.56171	0.03995
3137.27594	0.04016
3135.99017	0.04054
3134.70440	0.04094
3133.41863	0.04111
3132.13286	0.04088
3130.84709	0.04031
3129.56132	0.03968
3128.27556	0.03920
3126.98979	0.03892
3125.70402	0.03885
3124.41825	0.03901
3123.13248	0.03934
3121.84671	0.03962
3120.56094	0.03964
3119.27517	0.03941
3117.98940	0.03915
3116.70364	0.03903
3115.41787	0.03903
3114.13210	0.03900
3112.84633	0.03885
3111.56056	0.03862
3110.27479	0.03845
3108.98902	0.03844
3107.70325	0.03859
3106.41749	0.03878
3105.13172	0.03894
3103.84595	0.03907
3102.56018	0.03924
3101.27441	0.03942
3099.98864	0.03952
3098.70287	0.03942
3097.41710	0.03915
3096.13133	0.03881
3094.84557	0.03857
3093.55980	0.03852
3092.27403	0.03867
3090.98826	0.03890
3089.70249	0.03910
3088.41672	0.03922
3087.13095	0.03934
3085.84518	0.03951
3084.55942	0.03960
3083.27365	0.03948
3081.98788	0.03908
3080.70211	0.03856
3079.41634	0.03815
3078.13057	0.03799
3076.84480	0.03806
3075.55903	0.03821
3074.27326	0.03825
3072.98750	0.03813
3071.70173	0.03792
3070.41596	0.03777
3069.13019	0.03787
3067.84442	0.03826
3066.55865	0.03873
3065.27288	0.03896
3063.98711	0.03874
3062.70135	0.03820
3061.41558	0.03766
3060.12981	0.03739
3058.84404	0.03742
3057.55827	0.03760
3056.27250	0.03778
3054.98673	0.03791
3053.70096	0.03797
3052.41519	0.03796
3051.12943	0.03785
3049.84366	0.03759
3048.55789	0.03723
3047.27212	0.03689
3045.98635	0.03673
3044.70058	0.03677
3043.41481	0.03690
3042.12904	0.03707
3040.84328	0.03728
3039.55751	0.03757
3038.27174	0.03787
3036.98597	0.03803
3035.70020	0.03795
3034.41443	0.03765
3033.12866	0.03725
3031.84289	0.03686
3030.55712	0.03653
3029.27136	0.03633
3027.98559	0.03631
3026.69982	0.03642
3025.41405	0.03650
3024.12828	0.03637
3022.84251	0.03600
3021.55674	0.03554
3020.27097	0.03518
3018.98521	0.03500
3017.69944	0.03500
3016.41367	0.03517
3015.12790	0.03540
3013.84213	0.03554
3012.55636	0.03547
3011.27059	0.03526
3009.98482	0.03510
3008.69905	0.03513
3007.41329	0.03527
3006.12752	0.03540
3004.84175	0.03544
3003.55598	0.03542
3002.27021	0.03540
3000.98444	0.03536
2999.69867	0.03531
2998.41290	0.03526
2997.12714	0.03524
2995.84137	0.03522
2994.55560	0.03524
2993.26983	0.03536
2991.98406	0.03559
2990.69829	0.03582
2989.41252	0.03594
2988.12675	0.03600
2986.84098	0.03612
2985.55522	0.03633
2984.26945	0.03648
2982.98368	0.03642
2981.69791	0.03621
2980.41214	0.03607
2979.12637	0.03615
2977.84060	0.03641
2976.55483	0.03667
2975.26907	0.03684
2973.98330	0.03698
2972.69753	0.03712
2971.41176	0.03726
2970.12599	0.03733
2968.84022	0.03733
2967.55445	0.03731
2966.26868	0.03736
2964.98291	0.03748
2963.69715	0.03760
2962.41138	0.03766
2961.12561	0.03770
2959.83984	0.03784
2958.55407	0.03809
2957.26830	0.03837
2955.98253	0.03857
2954.69676	0.03869
2953.41100	0.03881
2952.12523	0.03903
2950.83946	0.03931
2949.55369	0.03949
2948.26792	0.03947
2946.98215	0.03932
2945.69638	0.03922
2944.41061	0.03921
2943.12484	0.03915
2941.83908	0.03895
2940.55331	0.03870
2939.26754	0.03861
2937.98177	0.03886
2936.69600	0.03940
2935.41023	0.03997
2934.12446	0.04023
2932.83869	0.04003
2931.55293	0.03957
2930.26716	0.03916
2928.98139	0.03900
2927.69562	0.03911
2926.40985	0.03937
2925.12408	0.03965
2923.83831	0.03987
2922.55254	0.04002
2921.26677	0.04015
2919.98101	0.04023
2918.69524	0.04016
2917.40947	0.03987
2916.12370	0.03942
2914.83793	0.03900
2913.55216	0.03874
2912.26639	0.03869
2910.98062	0.03874
2909.69486	0.03873
2908.40909	0.03855
2907.12332	0.03830
2905.83755	0.03810
2904.55178	0.03804
2903.26601	0.03805
2901.98024	0.03804
2900.69447	0.03792
2899.40870	0.03770
2898.12294	0.03745
2896.83717	0.03723
2895.55140	0.03705
2894.26563	0.03690
2892.97986	0.03675
2891.69409	0.03654
2890.40832	0.03624
2889.12255	0.03587
2887.83678	0.03548
2886.55102	0.03514
2885.26525	0.03491
2883.97948	0.03481
2882.69371	0.03477
2881.40794	0.03471
2880.12217	0.03474
2878.83640	0.03497
2877.55063	0.03537
2876.26487	0.03573
2874.97910	0.03591
2873.69333	0.03593
2872.40756	0.03586
2871.12179	0.03577
2869.83602	0.03568
2868.55025	0.03552
2867.26448	0.03530
2865.97871	0.03512
2864.69295	0.03510
2863.40718	0.03523
2862.12141	0.03531
2860.83564	0.03519
2859.54987	0.03489
2858.26410	0.03452
2856.97833	0.03423
2855.69256	0.03414
2854.40680	0.03429
2853.12103	0.03458
2851.83526	0.03486
2850.54949	0.03503
2849.26372	0.03511
2847.97795	0.03511
2846.69218	0.03498
2845.40641	0.03463
2844.12064	0.03414
2842.83488	0.03363
2841.54911	0.03324
2840.26334	0.03295
2838.97757	0.03271
2837.69180	0.03251
2836.40603	0.03241
2835.12026	0.03238
2833.83449	0.03229
2832.54873	0.03202
2831.26296	0.03166
2829.97719	0.03135
2828.69142	0.03117
2827.40565	0.03106
2826.11988	0.03098
2824.83411	0.03095
2823.54834	0.03099
2822.26257	0.03107
2820.97681	0.03109
2819.69104	0.03099
2818.40527	0.03082
2817.11950	0.03071
2815.83373	0.03068
2814.54796	0.03068
2813.26219	0.03065
2811.97642	0.03061
2810.69066	0.03057
2809.40489	0.03052
2808.11912	0.03044
2806.83335	0.03037
2805.54758	0.03030
2804.26181	0.03017
2802.97604	0.03000
2801.69027	0.02986
2800.40450	0.02984
2799.11874	0.02996
2797.83297	0.03011
2796.54720	0.03015
2795.26143	0.03000
2793.97566	0.02973
2792.68989	0.02946
2791.40412	0.02926
2790.11835	0.02909
2788.83259	0.02888
2787.54682	0.02865
2786.26105	0.02853
2784.97528	0.02862
2783.68951	0.02884
2782.40374	0.02901
2781.11797	0.02902
2779.83220	0.02892
2778.54643	0.02883
2777.26067	0.02881
2775.97490	0.02883
2774.68913	0.02883
2773.40336	0.02877
2772.11759	0.02872
2770.83182	0.02876
2769.54605	0.02891
2768.26028	0.02911
2766.97452	0.02924
2765.68875	0.02921
2764.40298	0.02907
2763.11721	0.02898
2761.83144	0.02904
2760.54567	0.02916
2759.25990	0.02915
2757.97413	0.02891
2756.68836	0.02851
2755.40260	0.02811
2754.11683	0.02784
2752.83106	0.02778
2751.54529	0.02790
2750.25952	0.02810
2748.97375	0.02825
2747.68798	0.02824
2746.40221	0.02809
2745.11645	0.02797
2743.83068	0.02802
2742.54491	0.02821
2741.25914	0.02836
2739.97337	0.02838
2738.68760	0.02832
2737.40183	0.02823
2736.11606	0.02811
2734.83029	0.02795
2733.54453	0.02780
2732.25876	0.02775
2730.97299	0.02778
2729.68722	0.02780
2728.40145	0.02777
2727.11568	0.02766
2725.82991	0.02751
2724.54414	0.02736
2723.25838	0.02731
2721.97261	0.02736
2720.68684	0.02744
2719.40107	0.02747
2718.11530	0.02742
2716.82953	0.02732
2715.54376	0.02727
2714.25799	0.02731
2712.97222	0.02740
2711.68646	0.02742
2710.40069	0.02731
2709.11492	0.02714
2707.82915	0.02700
2706.54338	0.02692
2705.25761	0.02683
2703.97184	0.02672
2702.68607	0.02662
2701.40031	0.02663
2700.11454	0.02679
2698.82877	0.02703
2697.54300	0.02723
2696.25723	0.02733
2694.97146	0.02729
2693.68569	0.02716
2692.39992	0.02697
2691.11415	0.02674
2689.82839	0.02647
2688.54262	0.02618
2687.25685	0.02596
2685.97108	0.02590
2684.68531	0.02598
2683.39954	0.02609
2682.11377	0.02611
2680.82800	0.02605
2679.54224	0.02606
2678.25647	0.02622
2676.97070	0.02650
2675.68493	0.02676
2674.39916	0.02686
2673.11339	0.02675
2671.82762	0.02652
2670.54185	0.02631
2669.25608	0.02621
2667.97032	0.02624
2666.68455	0.02628
2665.39878	0.02622
2664.11301	0.02608
2662.82724	0.02591
2661.54147	0.02577
2660.25570	0.02565
2658.96993	0.02555
2657.68417	0.02546
2656.39840	0.02544
2655.11263	0.02549
2653.82686	0.02555
2652.54109	0.02554
2651.25532	0.02542
2649.96955	0.02532
2648.68378	0.02534
2647.39801	0.02548
2646.11225	0.02557
2644.82648	0.02551
2643.54071	0.02535
2642.25494	0.02526
2640.96917	0.02528
2639.68340	0.02528
2638.39763	0.02511
2637.11186	0.02478
2635.82609	0.02442
2634.54033	0.02416
2633.25456	0.02398
2631.96879	0.02386
2630.68302	0.02377
2629.39725	0.02375
2628.11148	0.02385
2626.82571	0.02408
2625.53994	0.02436
2624.25418	0.02456
2622.96841	0.02459
2621.68264	0.02447
2620.39687	0.02430
2619.11110	0.02411
2617.82533	0.02386
2616.53956	0.02350
2615.25379	0.02304
2613.96802	0.02259
2612.68226	0.02233
2611.39649	0.02238
2610.11072	0.02271
2608.82495	0.02319
2607.53918	0.02359
2606.25341	0.02375
2604.96764	0.02358
2603.68187	0.02315
2602.39611	0.02265
2601.11034	0.02226
2599.82457	0.02208
2598.53880	0.02205
2597.25303	0.02217
2595.96726	0.02244
2594.68149	0.02287
2593.39572	0.02328
2592.10995	0.02340
2590.82419	0.02304
2589.53842	0.02236
2588.25265	0.02176
2586.96688	0.02152
2585.68111	0.02168
2584.39534	0.02205
2583.10957	0.02240
2581.82380	0.02250
2580.53804	0.02232
2579.25227	0.02212
2577.96650	0.02215
2576.68073	0.02241
2575.39496	0.02260
2574.10919	0.02254
2572.82342	0.02226
2571.53765	0.02190
2570.25188	0.02154
2568.96612	0.02125
2567.68035	0.02112
2566.39458	0.02115
2565.10881	0.02117
2563.82304	0.02106
2562.53727	0.02092
2561.25150	0.02094
2559.96573	0.02116
2558.67997	0.02139
2557.39420	0.02149
2556.10843	0.02146
2554.82266	0.02139
2553.53689	0.02134
2552.25112	0.02133
2550.96535	0.02137
2549.67958	0.02139
2548.39381	0.02130
2547.10805	0.02113
2545.82228	0.02098
2544.53651	0.02088
2543.25074	0.02079
2541.96497	0.02076
2540.67920	0.02090
2539.39343	0.02115
2538.10766	0.02128
2536.82190	0.02119
2535.53613	0.02101
2534.25036	0.02093
2532.96459	0.02097
2531.67882	0.02099
2530.39305	0.02087
2529.10728	0.02062
2527.82151	0.02038
2526.53574	0.02029
2525.24998	0.02045
2523.96421	0.02081
2522.67844	0.02121
2521.39267	0.02140
2520.10690	0.02124
2518.82113	0.02075
2517.53536	0.02015
2516.24959	0.01971
2514.96383	0.01960
2513.67806	0.01976
2512.39229	0.01994
2511.10652	0.01990
2509.82075	0.01971
2508.53498	0.01961
2507.24921	0.01980
2505.96344	0.02026
2504.67767	0.02077
2503.39191	0.02114
2502.10614	0.02131
2500.82037	0.02128
2499.53460	0.02106
2498.24883	0.02071
2496.96306	0.02035
2495.67729	0.02014
2494.39152	0.02008
2493.10576	0.02004
2491.81999	0.01988
2490.53422	0.01958
2489.24845	0.01924
2487.96268	0.01898
2486.67691	0.01894
2485.39114	0.01916
2484.10537	0.01951
2482.81960	0.01975
2481.53384	0.01969
2480.24807	0.01934
2478.96230	0.01891
2477.67653	0.01863
2476.39076	0.01856
2475.10499	0.01859
2473.81922	0.01855
2472.53345	0.01847
2471.24769	0.01857
2469.96192	0.01899
2468.67615	0.01959
2467.39038	0.02006
2466.10461	0.02022
2464.81884	0.02012
2463.53307	0.01995
2462.24730	0.01986
2460.96153	0.01990
2459.67577	0.02006
2458.39000	0.02018
2457.10423	0.02006
2455.81846	0.01966
2454.53269	0.01923
2453.24692	0.01899
2451.96115	0.01896
2450.67538	0.01900
2449.38962	0.01903
2448.10385	0.01904
2446.81808	0.01909
2445.53231	0.01921
2444.24654	0.01933
2442.96077	0.01935
2441.67500	0.01922
2440.38923	0.01905
2439.10346	0.01888
2437.81770	0.01871
2436.53193	0.01860
2435.24616	0.01871
2433.96039	0.01907
2432.67462	0.01951
2431.38885	0.01972
2430.10308	0.01961
2428.81731	0.01928
2427.53155	0.01888
2426.24578	0.01850
2424.96001	0.01816
2423.67424	0.01790
2422.38847	0.01775
2421.10270	0.01775
2419.81693	0.01788
2418.53116	0.01808
2417.24539	0.01826
2415.95963	0.01842
2414.67386	0.01860
2413.38809	0.01879
2412.10232	0.01894
2410.81655	0.01899
2409.53078	0.01890
2408.24501	0.01872
2406.95924	0.01851
2405.67347	0.01838
2404.38771	0.01834
2403.10194	0.01833
2401.81617	0.01828
2400.53040	0.01820
2399.24463	0.01816
2397.95886	0.01817
2396.67309	0.01822
2395.38732	0.01831
2394.10156	0.01844
2392.81579	0.01858
2391.53002	0.01873
2390.24425	0.01889
2388.95848	0.01903
2387.67271	0.01904
2386.38694	0.01883
2385.10117	0.01850
2383.81540	0.01829
2382.52964	0.01835
2381.24387	0.01859
2379.95810	0.01880
2378.67233	0.01875
2377.38656	0.01859
2376.10079	0.01850
2374.81502	0.01847
2373.52925	0.01818
2372.24349	0.01764
2370.95772	0.01719
2369.67195	0.01714
2368.38618	0.01745
2367.10041	0.01786
2365.81464	0.01828
2364.52887	0.01848
2363.24310	0.01847
2361.95733	0.01830
2360.67157	0.01798
2359.38580	0.01774
2358.10003	0.01779
2356.81426	0.01808
2355.52849	0.01848
2354.24272	0.01891
2352.95695	0.01918
2351.67118	0.01907
2350.38542	0.01884
2349.09965	0.01885
2347.81388	0.01900
2346.52811	0.01896
2345.24234	0.01894
2343.95657	0.01936
2342.67080	0.01997
2341.38503	0.01963
2340.09926	0.01865
2338.81350	0.01861
2337.52773	0.01939
2336.24196	0.01925
2334.95619	0.01850
2333.67042	0.01862
2332.38465	0.01926
2331.09888	0.01875
2329.81311	0.01840
2328.52735	0.01894
2327.24158	0.01911
2325.95581	0.01915
2324.67004	0.01963
2323.38427	0.01990
2322.09850	0.01951
2320.81273	0.01930
2319.52696	0.01909
2318.24119	0.01885
2316.95543	0.01879
2315.66966	0.01863
2314.38389	0.01850
2313.09812	0.01846
2311.81235	0.01832
2310.52658	0.01833
2309.24081	0.01847
2307.95504	0.01846
2306.66928	0.01828
2305.38351	0.01788
2304.09774	0.01752
2302.81197	0.01737
2301.52620	0.01740
2300.24043	0.01756
2298.95466	0.01777
2297.66889	0.01802
2296.38312	0.01823
2295.09736	0.01825
2293.81159	0.01804
2292.52582	0.01765
2291.24005	0.01721
2289.95428	0.01684
2288.66851	0.01664
2287.38274	0.01665
2286.09697	0.01681
2284.81121	0.01693
2283.52544	0.01683
2282.23967	0.01653
2280.95390	0.01624
2279.66813	0.01615
2278.38236	0.01625
2277.09659	0.01640
2275.81082	0.01650
2274.52505	0.01655
2273.23929	0.01655
2271.95352	0.01649
2270.66775	0.01636
2269.38198	0.01620
2268.09621	0.01607
2266.81044	0.01602
2265.52467	0.01603
2264.23890	0.01595
2262.95314	0.01563
2261.66737	0.01511
2260.38160	0.01471
2259.09583	0.01468
2257.81006	0.01503
2256.52429	0.01552
2255.23852	0.01597
2253.95275	0.01622
2252.66698	0.01622
2251.38122	0.01599
2250.09545	0.01563
2248.80968	0.01532
2247.52391	0.01519
2246.23814	0.01528
2244.95237	0.01539
2243.66660	0.01528
2242.38083	0.01476
2241.09507	0.01400
2239.80930	0.01350
2238.52353	0.01368
2237.23776	0.01437
2235.95199	0.01486
2234.66622	0.01464
2233.38045	0.01393
2232.09468	0.01326
2230.80891	0.01277
2229.52315	0.01224
2228.23738	0.01160
2226.95161	0.01118
2225.66584	0.01131
2224.38007	0.01192
2223.09430	0.01268
2221.80853	0.01332
2220.52276	0.01375
2219.23700	0.01403
2217.95123	0.01417
2216.66546	0.01411
2215.37969	0.01377
2214.09392	0.01307
2212.80815	0.01209
2211.52238	0.01116
2210.23661	0.01071
2208.95084	0.01089
2207.66508	0.01147
2206.37931	0.01202
2205.09354	0.01227
2203.80777	0.01221
2202.52200	0.01201
2201.23623	0.01195
2199.95046	0.01214
2198.66469	0.01241
2197.37893	0.01255
2196.09316	0.01262
2194.80739	0.01285
2193.52162	0.01314
2192.23585	0.01309
2190.95008	0.01246
2189.66431	0.01156
2188.37854	0.01096
2187.09277	0.01098
2185.80701	0.01142
2184.52124	0.01173
2183.23547	0.01146
2181.94970	0.01071
2180.66393	0.01005
2179.37816	0.00991
2178.09239	0.00998
2176.80662	0.00960
2175.52085	0.00859
2174.23509	0.00758
2172.94932	0.00725
2171.66355	0.00757
2170.37778	0.00798
2169.09201	0.00815
2167.80624	0.00820
2166.52047	0.00841
2165.23470	0.00890
2163.94894	0.00957
2162.66317	0.01018
2161.37740	0.01022
2160.09163	0.00939
2158.80586	0.00805
2157.52009	0.00714
2156.23432	0.00717
2154.94855	0.00776
2153.66278	0.00820
2152.37702	0.00808
2151.09125	0.00754
2149.80548	0.00705
2148.51971	0.00694
2147.23394	0.00712
2145.94817	0.00723
2144.66240	0.00714
2143.37663	0.00710
2142.09087	0.00735
2140.80510	0.00787
2139.51933	0.00849
2138.23356	0.00913
2136.94779	0.00972
2135.66202	0.01013
2134.37625	0.01019
2133.09048	0.00992
2131.80471	0.00948
2130.51895	0.00910
2129.23318	0.00887
2127.94741	0.00894
2126.66164	0.00946
2125.37587	0.01037
2124.09010	0.01127
2122.80433	0.01165
2121.51856	0.01140
2120.23280	0.01085
2118.94703	0.01037
2117.66126	0.01007
2116.37549	0.00994
2115.08972	0.01000
2113.80395	0.01023
2112.51818	0.01047
2111.23241	0.01055
2109.94664	0.01038
2108.66088	0.01004
2107.37511	0.00969
2106.08934	0.00947
2104.80357	0.00950
2103.51780	0.00977
2102.23203	0.01019
2100.94626	0.01061
2099.66049	0.01142
2098.37473	0.01181
2097.08896	0.01174
2095.80319	0.01139
2094.51742	0.01087
2093.23165	0.01032
2091.94588	0.00995
2090.66011	0.00986
2089.37434	0.01006
2088.08857	0.01037
2086.80281	0.01049
2085.51704	0.01025
2084.23127	0.00981
2082.94550	0.00946
2081.65973	0.00937
2080.37396	0.00948
2079.08819	0.00966
2077.80242	0.00983
2076.51666	0.00989
2075.23089	0.00984
2073.94512	0.00979
2072.65935	0.00983
2071.37358	0.00983
2070.08781	0.00956
2068.80204	0.00900
2067.51627	0.00832
2066.23050	0.00778
2064.94474	0.00752
2063.65897	0.00761
2062.37320	0.00800
2061.08743	0.00847
2059.80166	0.00874
2058.51589	0.00863
2057.23012	0.00820
2055.94435	0.00764
2054.65859	0.00720
2053.37282	0.00700
2052.08705	0.00697
2050.80128	0.00688
2049.51551	0.00655
2048.22974	0.00594
2046.94397	0.00519
2045.65820	0.00448
2044.37243	0.00413
2043.08667	0.00442
2041.80090	0.00535
2040.51513	0.00646
2039.22936	0.00722
2037.94359	0.00754
2036.65782	0.00777
2035.37205	0.00827
2034.08628	0.00892
2032.80052	0.00919
2031.51475	0.00865
2030.22898	0.00750
2028.94321	0.00653
2027.65744	0.00634
2026.37167	0.00670
2025.08590	0.00687
2023.80013	0.00647
2022.51436	0.00584
2021.22860	0.00542
2019.94283	0.00516
2018.65706	0.00477
2017.37129	0.00427
2016.08552	0.00403
2014.79975	0.00436
2013.51398	0.00512
2012.22821	0.00585
2010.94245	0.00606
2009.65668	0.00564
2008.37091	0.00491
2007.08514	0.00439
2005.79937	0.00443
2004.51360	0.00493
2003.22783	0.00559
2001.94206	0.00614
2000.65629	0.00654
1999.37053	0.00692
1998.08476	0.00735
1996.79899	0.00769
1995.51322	0.00772
1994.22745	0.00744
1992.94168	0.00722
1991.65591	0.00741
1990.37014	0.00790
1989.08438	0.00820
1987.79861	0.00793
1986.51284	0.00726
1985.22707	0.00677
1983.94130	0.00690
1982.65553	0.00762
1981.36976	0.00849
1980.08399	0.00912
1978.79822	0.00942
1977.51246	0.00950
1976.22669	0.00941
1974.94092	0.00904
1973.65515	0.00832
1972.36938	0.00736
1971.08361	0.00645
1969.79784	0.00594
1968.51207	0.00603
1967.22631	0.00660
1965.94054	0.00724
1964.65477	0.00757
1963.36900	0.00750
1962.08323	0.00732
1960.79746	0.00740
1959.51169	0.00787
1958.22592	0.00851
1956.94015	0.00896
1955.65439	0.00899
1954.36862	0.00873
1953.08285	0.00845
1951.79708	0.00836
1950.51131	0.00848
1949.22554	0.00878
1947.93977	0.00913
1946.65400	0.00932
1945.36823	0.00917
1944.08247	0.00880
1942.79670	0.00866
1941.51093	0.00909
1940.22516	0.00996
1938.93939	0.01074
1937.65362	0.01098
1936.36785	0.01070
1935.08208	0.01024
1933.79632	0.00992
1932.51055	0.00986
1931.22478	0.00997
1929.93901	0.01012
1928.65324	0.01015
1927.36747	0.00997
1926.08170	0.00974
1924.79593	0.00967
1923.51016	0.00989
1922.22440	0.01030
1920.93863	0.01068
1919.65286	0.01085
1918.36709	0.01083
1917.08132	0.01076
1915.79555	0.01075
1914.50978	0.01076
1913.22401	0.01067
1911.93825	0.01045
1910.65248	0.01026
1909.36671	0.01025
1908.08094	0.01039
1906.79517	0.01052
1905.50940	0.01054
1904.22363	0.01051
1902.93786	0.01053
1901.65209	0.01062
1900.36633	0.01079
1899.08056	0.01105
1897.79479	0.01132
1896.50902	0.01145
1895.22325	0.01132
1893.93748	0.01105
1892.65171	0.01082
1891.36594	0.01071
1890.08018	0.01063
1888.79441	0.01048
1887.50864	0.01026
1886.22287	0.01003
1884.93710	0.00980
1883.65133	0.00961
1882.36556	0.00957
1881.07979	0.00982
1879.79402	0.01034
1878.50826	0.01088
1877.22249	0.01117
1875.93672	0.01115
1874.65095	0.01098
1873.36518	0.01086
1872.07941	0.01084
1870.79364	0.01083
1869.50787	0.01081
1868.22211	0.01080
1866.93634	0.01082
1865.65057	0.01082
1864.36480	0.01075
1863.07903	0.01062
1861.79326	0.01050
1860.50749	0.01044
1859.22172	0.01044
1857.93595	0.01047
1856.65019	0.01056
1855.36442	0.01066
1854.07865	0.01072
1852.79288	0.01070
1851.50711	0.01064
1850.22134	0.01055
1848.93557	0.01047
1847.64980	0.01040
1846.36404	0.01039
1845.07827	0.01047
1843.79250	0.01063
1842.50673	0.01079
1841.22096	0.01087
1839.93519	0.01082
1838.64942	0.01066
1837.36365	0.01050
1836.07788	0.01047
1834.79212	0.01064
1833.50635	0.01092
1832.22058	0.01112
1830.93481	0.01112
1829.64904	0.01096
1828.36327	0.01084
1827.07750	0.01088
1825.79173	0.01103
1824.50597	0.01114
1823.22020	0.01115
1821.93443	0.01114
1820.64866	0.01122
1819.36289	0.01137
1818.07712	0.01146
1816.79135	0.01141
1815.50558	0.01127
1814.21981	0.01114
1812.93405	0.01106
1811.64828	0.01100
1810.36251	0.01091
1809.07674	0.01083
1807.79097	0.01078
1806.50520	0.01081
1805.21943	0.01087
1803.93366	0.01095
1802.64790	0.01103
1801.36213	0.01113
1800.07636	0.01122
1798.79059	0.01127
1797.50482	0.01126
1796.21905	0.01124
1794.93328	0.01127
1793.64751	0.01130
1792.36174	0.01128
1791.07598	0.01117
1789.79021	0.01104
1788.50444	0.01097
1787.21867	0.01098
1785.93290	0.01101
1784.64713	0.01102
1783.36136	0.01102
1782.07559	0.01106
1780.78983	0.01114
1779.50406	0.01122
1778.21829	0.01129
1776.93252	0.01134
1775.64675	0.01137
1774.36098	0.01136
1773.07521	0.01128
1771.78944	0.01117
1770.50367	0.01108
1769.21791	0.01105
1767.93214	0.01109
1766.64637	0.01118
1765.36060	0.01127
1764.07483	0.01135
1762.78906	0.01140
1761.50329	0.01141
1760.21752	0.01139
1758.93176	0.01137
1757.64599	0.01139
1756.36022	0.01147
1755.07445	0.01153
1753.78868	0.01153
1752.50291	0.01146
1751.21714	0.01137
1749.93137	0.01130
1748.64560	0.01124
1747.35984	0.01120
1746.07407	0.01120
1744.78830	0.01126
1743.50253	0.01139
1742.21676	0.01152
1740.93099	0.01162
1739.64522	0.01168
1738.35945	0.01172
1737.07369	0.01176
1735.78792	0.01180
1734.50215	0.01184
1733.21638	0.01186
1731.93061	0.01186
1730.64484	0.01184
1729.35907	0.01181
1728.07330	0.01178
1726.78753	0.01177
1725.50177	0.01178
1724.21600	0.01181
1722.93023	0.01188
1721.64446	0.01200
1720.35869	0.01220
1719.07292	0.01247
1717.78715	0.01273
1716.50138	0.01293
1715.21561	0.01305
1713.92985	0.01316
1712.64408	0.01331
1711.35831	0.01351
1710.07254	0.01377
1708.78677	0.01410
1707.50100	0.01446
1706.21523	0.01483
1704.92946	0.01520
1703.64370	0.01560
1702.35793	0.01604
1701.07216	0.01651
1699.78639	0.01700
1698.50062	0.01750
1697.21485	0.01807
1695.92908	0.01868
1694.64331	0.01929
1693.35754	0.01983
1692.07178	0.02031
1690.78601	0.02079
1689.50024	0.02132
1688.21447	0.02192
1686.92870	0.02258
1685.64293	0.02322
1684.35716	0.02375
1683.07139	0.02415
1681.78563	0.02450
1680.49986	0.02490
1679.21409	0.02542
1677.92832	0.02606
1676.64255	0.02672
1675.35678	0.02731
1674.07101	0.02778
1672.78524	0.02818
1671.49947	0.02861
1670.21371	0.02912
1668.92794	0.02970
1667.64217	0.03029
1666.35640	0.03085
1665.07063	0.03139
1663.78486	0.03188
1662.49909	0.03232
1661.21332	0.03268
1659.92756	0.03300
1658.64179	0.03333
1657.35602	0.03374
1656.07025	0.03424
1654.78448	0.03476
1653.49871	0.03518
1652.21294	0.03540
1650.92717	0.03547
1649.64140	0.03550
1648.35564	0.03558
1647.06987	0.03570
1645.78410	0.03578
1644.49833	0.03576
1643.21256	0.03563
1641.92679	0.03547
1640.64102	0.03534
1639.35525	0.03530
1638.06949	0.03527
1636.78372	0.03513
1635.49795	0.03479
1634.21218	0.03431
1632.92641	0.03382
1631.64064	0.03341
1630.35487	0.03308
1629.06910	0.03274
1627.78333	0.03234
1626.49757	0.03191
1625.21180	0.03143
1623.92603	0.03092
1622.64026	0.03038
1621.35449	0.02986
1620.06872	0.02943
1618.78295	0.02908
1617.49718	0.02876
1616.21142	0.02840
1614.92565	0.02799
1613.63988	0.02756
1612.35411	0.02717
1611.06834	0.02680
1609.78257	0.02644
1608.49680	0.02610
1607.21103	0.02582
1605.92526	0.02564
1604.63950	0.02554
1603.35373	0.02547
1602.06796	0.02540
1600.78219	0.02532
1599.49642	0.02525
1598.21065	0.02520
1596.92488	0.02517
1595.63911	0.02519
1594.35335	0.02526
1593.06758	0.02536
1591.78181	0.02544
1590.49604	0.02549
1589.21027	0.02553
1587.92450	0.02562
1586.63873	0.02576
1585.35296	0.02592
1584.06719	0.02608
1582.78143	0.02626
1581.49566	0.02648
1580.20989	0.02679
1578.92412	0.02713
1577.63835	0.02745
1576.35258	0.02770
1575.06681	0.02789
1573.78104	0.02807
1572.49528	0.02831
1571.20951	0.02862
1569.92374	0.02895
1568.63797	0.02927
1567.35220	0.02956
1566.06643	0.02984
1564.78066	0.03012
1563.49489	0.03040
1562.20912	0.03074
1560.92336	0.03115
1559.63759	0.03156
1558.35182	0.03189
1557.06605	0.03209
1555.78028	0.03224
1554.49451	0.03244
1553.20874	0.03270
1551.92297	0.03301
1550.63721	0.03329
1549.35144	0.03351
1548.06567	0.03369
1546.77990	0.03389
1545.49413	0.03415
1544.20836	0.03448
1542.92259	0.03481
1541.63682	0.03511
1540.35105	0.03530
1539.06529	0.03539
1537.77952	0.03541
1536.49375	0.03548
1535.20798	0.03566
1533.92221	0.03593
1532.63644	0.03623
1531.35067	0.03653
1530.06490	0.03686
1528.77914	0.03725
1527.49337	0.03769
1526.20760	0.03817
1524.92183	0.03869
1523.63606	0.03927
1522.35029	0.03987
1521.06452	0.04043
1519.77875	0.04094
1518.49298	0.04142
1517.20722	0.04192
1515.92145	0.04247
1514.63568	0.04306
1513.34991	0.04368
1512.06414	0.04436
1510.77837	0.04512
1509.49260	0.04601
1508.20683	0.04696
1506.92107	0.04786
1505.63530	0.04860
1504.34953	0.04921
1503.06376	0.04977
1501.77799	0.05036
1500.49222	0.05097
1499.20645	0.05153
1497.92068	0.05201
1496.63491	0.05241
1495.34915	0.05279
1494.06338	0.05320
1492.77761	0.05368
1491.49184	0.05421
1490.20607	0.05477
1488.92030	0.05535
1487.63453	0.05598
1486.34876	0.05670
1485.06299	0.05749
1483.77723	0.05833
1482.49146	0.05920
1481.20569	0.06007
1479.91992	0.06094
1478.63415	0.06177
1477.34838	0.06256
1476.06261	0.06331
1474.77684	0.06404
1473.49108	0.06472
1472.20531	0.06531
1470.91954	0.06579
1469.63377	0.06618
1468.34800	0.06650
1467.06223	0.06681
1465.77646	0.06709
1464.49069	0.06733
1463.20492	0.06752
1461.91916	0.06774
1460.63339	0.06807
1459.34762	0.06852
1458.06185	0.06904
1456.77608	0.06954
1455.49031	0.06998
1454.20454	0.07037
1452.91877	0.07073
1451.63301	0.07105
1450.34724	0.07129
1449.06147	0.07147
1447.77570	0.07162
1446.48993	0.07171
1445.20416	0.07172
1443.91839	0.07161
1442.63262	0.07140
1441.34685	0.07117
1440.06109	0.07094
1438.77532	0.07073
1437.48955	0.07057
1436.20378	0.07050
1434.91801	0.07056
1433.63224	0.07078
1432.34647	0.07113
1431.06070	0.07161
1429.77494	0.07220
1428.48917	0.07289
1427.20340	0.07367
1425.91763	0.07452
1424.63186	0.07544
1423.34609	0.07642
1422.06032	0.07742
1420.77455	0.07840
1419.48878	0.07928
1418.20302	0.08002
1416.91725	0.08062
1415.63148	0.08104
1414.34571	0.08132
1413.05994	0.08148
1411.77417	0.08160
1410.48840	0.08167
1409.20263	0.08161
1407.91687	0.08137
1406.63110	0.08093
1405.34533	0.08034
1404.05956	0.07964
1402.77379	0.07885
1401.48802	0.07796
1400.20225	0.07695
1398.91648	0.07586
1397.63071	0.07471
1396.34495	0.07352
1395.05918	0.07228
1393.77341	0.07096
1392.48764	0.06956
1391.20187	0.06810
1389.91610	0.06666
1388.63033	0.06523
1387.34456	0.06382
1386.05880	0.06238
1384.77303	0.06093
1383.48726	0.05949
1382.20149	0.05808
1380.91572	0.05669
1379.62995	0.05528
1378.34418	0.05382
1377.05841	0.05232
1375.77264	0.05081
1374.48688	0.04935
1373.20111	0.04791
1371.91534	0.04648
1370.62957	0.04504
1369.34380	0.04362
1368.05803	0.04226
1366.77226	0.04099
1365.48649	0.03981
1364.20073	0.03870
1362.91496	0.03765
1361.62919	0.03665
1360.34342	0.03572
1359.05765	0.03490
1357.77188	0.03416
1356.48611	0.03347
1355.20034	0.03282
1353.91457	0.03218
1352.62881	0.03159
1351.34304	0.03102
1350.05727	0.03049
1348.77150	0.03001
1347.48573	0.02957
1346.19996	0.02916
1344.91419	0.02874
1343.62842	0.02829
1342.34266	0.02782
1341.05689	0.02740
1339.77112	0.02706
1338.48535	0.02681
1337.19958	0.02661
1335.91381	0.02638
1334.62804	0.02609
1333.34227	0.02575
1332.05650	0.02541
1330.77074	0.02509
1329.48497	0.02482
1328.19920	0.02457
1326.91343	0.02434
1325.62766	0.02414
1324.34189	0.02395
1323.05612	0.02378
1321.77035	0.02362
1320.48459	0.02344
1319.19882	0.02324
1317.91305	0.02300
1316.62728	0.02274
1315.34151	0.02247
1314.05574	0.02220
1312.76997	0.02195
1311.48420	0.02170
1310.19843	0.02148
1308.91267	0.02129
1307.62690	0.02113
1306.34113	0.02099
1305.05536	0.02083
1303.76959	0.02066
1302.48382	0.02045
1301.19805	0.02024
1299.91228	0.02004
1298.62652	0.01985
1297.34075	0.01969
1296.05498	0.01957
1294.76921	0.01948
1293.48344	0.01944
1292.19767	0.01940
1290.91190	0.01932
1289.62613	0.01920
1288.34036	0.01902
1287.05460	0.01882
1285.76883	0.01863
1284.48306	0.01850
1283.19729	0.01842
1281.91152	0.01839
1280.62575	0.01837
1279.33998	0.01834
1278.05421	0.01830
1276.76845	0.01827
1275.48268	0.01823
1274.19691	0.01816
1272.91114	0.01804
1271.62537	0.01790
1270.33960	0.01780
1269.05383	0.01774
1267.76806	0.01771
1266.48229	0.01768
1265.19653	0.01765
1263.91076	0.01760
1262.62499	0.01753
1261.33922	0.01746
1260.05345	0.01740
1258.76768	0.01739
1257.48191	0.01740
1256.19614	0.01740
1254.91037	0.01738
1253.62461	0.01734
1252.33884	0.01731
1251.05307	0.01729
1249.76730	0.01726
1248.48153	0.01723
1247.19576	0.01719
1245.90999	0.01717
1244.62422	0.01715
1243.33846	0.01713
1242.05269	0.01708
1240.76692	0.01700
1239.48115	0.01690
1238.19538	0.01678
1236.90961	0.01667
1235.62384	0.01659
1234.33807	0.01652
1233.05230	0.01644
1231.76654	0.01630
1230.48077	0.01612
1229.19500	0.01593
1227.90923	0.01574
1226.62346	0.01556
1225.33769	0.01538
1224.05192	0.01520
1222.76615	0.01505
1221.48039	0.01493
1220.19462	0.01484
1218.90885	0.01474
1217.62308	0.01461
1216.33731	0.01448
1215.05154	0.01437
1213.76577	0.01432
1212.48000	0.01429
1211.19423	0.01425
1209.90847	0.01417
1208.62270	0.01408
1207.33693	0.01400
1206.05116	0.01395
1204.76539	0.01394
1203.47962	0.01395
1202.19385	0.01398
1200.90808	0.01396
1199.62232	0.01388
1198.33655	0.01386
1197.05078	0.01384
1195.76501	0.01379
1194.47924	0.01371
1193.19347	0.01360
1191.90770	0.01348
1190.62193	0.01335
1189.33616	0.01318
1188.05040	0.01299
1186.76463	0.01283
1185.47886	0.01274
1184.19309	0.01273
1182.90732	0.01276
1181.62155	0.01275
1180.33578	0.01268
1179.05001	0.01259
1177.76425	0.01253
1176.47848	0.01252
1175.19271	0.01255
1173.90694	0.01259
1172.62117	0.01265
1171.33540	0.01272
1170.04963	0.01282
1168.76386	0.01294
1167.47809	0.01306
1166.19233	0.01311
1164.90656	0.01309
1163.62079	0.01305
1162.33502	0.01301
1161.04925	0.01300
1159.76348	0.01304
1158.47771	0.01315
1157.19194	0.01334
1155.90618	0.01354
1154.62041	0.01368
1153.33464	0.01375
1152.04887	0.01378
1150.76310	0.01384
1149.47733	0.01397
1148.19156	0.01418
1146.90579	0.01447
1145.62002	0.01482
1144.33426	0.01521
1143.04849	0.01561
1141.76272	0.01603
1140.47695	0.01650
1139.19118	0.01706
1137.90541	0.01773
1136.61964	0.01846
1135.33387	0.01922
1134.04811	0.02004
1132.76234	0.02097
1131.47657	0.02206
1130.19080	0.02335
1128.90503	0.02485
1127.61926	0.02649
1126.33349	0.02821
1125.04772	0.02995
1123.76195	0.03175
1122.47619	0.03365
1121.19042	0.03566
1119.90465	0.03771
1118.61888	0.03973
1117.33311	0.04174
1116.04734	0.04382
1114.76157	0.04600
1113.47580	0.04824
1112.19004	0.05049
1110.90427	0.05271
1109.61850	0.05492
1108.33273	0.05713
1107.04696	0.05932
1105.76119	0.06145
1104.47542	0.06348
1103.18965	0.06545
1101.90388	0.06740
1100.61812	0.06936
1099.33235	0.07125
1098.04658	0.07300
1096.76081	0.07460
1095.47504	0.07613
1094.18927	0.07766
1092.90350	0.07918
1091.61773	0.08066
1090.33197	0.08206
1089.04620	0.08337
1087.76043	0.08460
1086.47466	0.08580
1085.18889	0.08704
1083.90312	0.08833
1082.61735	0.08970
1081.33158	0.09112
1080.04581	0.09262
1078.76005	0.09423
1077.47428	0.09595
1076.18851	0.09778
1074.90274	0.09967
1073.61697	0.10162
1072.33120	0.10362
1071.04543	0.10564
1069.75966	0.10769
1068.47390	0.10975
1067.18813	0.11188
1065.90236	0.11406
1064.61659	0.11627
1063.33082	0.11844
1062.04505	0.12053
1060.75928	0.12256
1059.47351	0.12459
1058.18774	0.12660
1056.90198	0.12857
1055.61621	0.13049
1054.33044	0.13236
1053.04467	0.13422
1051.75890	0.13609
1050.47313	0.13797
1049.18736	0.13984
1047.90159	0.14168
1046.61583	0.14351
1045.33006	0.14536
1044.04429	0.14726
1042.75852	0.14920
1041.47275	0.15116
1040.18698	0.15311
1038.90121	0.15505
1037.61544	0.15698
1036.32967	0.15887
1035.04391	0.16068
1033.75814	0.16240
1032.47237	0.16400
1031.18660	0.16546
1029.90083	0.16679
1028.61506	0.16798
1027.32929	0.16903
1026.04352	0.16988
1024.75775	0.17051
1023.47199	0.17094
1022.18622	0.17119
1020.90045	0.17121
1019.61468	0.17099
1018.32891	0.17055
1017.04314	0.16987
1015.75737	0.16892
1014.47160	0.16766
1013.18584	0.16613
1011.90007	0.16436
1010.61430	0.16237
1009.32853	0.16010
1008.04276	0.15748
1006.75699	0.15449
1005.47122	0.15120
1004.18545	0.14769
1002.89968	0.14404
1001.61392	0.14026
1000.32815	0.13638
999.04238	0.13244
997.75661	0.12846
996.47084	0.12442
995.18507	0.12031
993.89930	0.11620
992.61353	0.11217
991.32777	0.10830
990.04200	0.10456
988.75623	0.10088
987.47046	0.09722
986.18469	0.09360
984.89892	0.09014
983.61315	0.08691
982.32738	0.08390
981.04161	0.08104
979.75585	0.07831
978.47008	0.07578
977.18431	0.07351
975.89854	0.07151
974.61277	0.06977
973.32700	0.06829
972.04123	0.06705
970.75546	0.06606
969.46970	0.06535
968.18393	0.06500
966.89816	0.06506
965.61239	0.06548
964.32662	0.06610
963.04085	0.06675
961.75508	0.06725
960.46931	0.06746
959.18354	0.06727
957.89778	0.06660
956.61201	0.06547
955.32624	0.06399
954.04047	0.06238
952.75470	0.06079
951.46893	0.05926
950.18316	0.05777
948.89739	0.05632
947.61163	0.05494
946.32586	0.05364
945.04009	0.05237
943.75432	0.05106
942.46855	0.04969
941.18278	0.04832
939.89701	0.04703
938.61124	0.04590
937.32547	0.04494
936.03971	0.04407
934.75394	0.04323
933.46817	0.04236
932.18240	0.04149
930.89663	0.04065
929.61086	0.03983
928.32509	0.03907
927.03932	0.03840
925.75356	0.03783
924.46779	0.03735
923.18202	0.03691
921.89625	0.03652
920.61048	0.03617
919.32471	0.03582
918.03894	0.03540
916.75317	0.03488
915.46740	0.03432
914.18164	0.03378
912.89587	0.03332
911.61010	0.03292
910.32433	0.03255
909.03856	0.03223
907.75279	0.03199
906.46702	0.03180
905.18125	0.03162
903.89549	0.03139
902.60972	0.03108
901.32395	0.03076
900.03818	0.03047
898.75241	0.03024
897.46664	0.03006
896.18087	0.02990
894.89510	0.02979
893.60933	0.02969
892.32357	0.02958
891.03780	0.02946
889.75203	0.02941
888.46626	0.02957
887.18049	0.03009
885.89472	0.03113
884.60895	0.03280
883.32318	0.03503
882.03742	0.03754
880.75165	0.03998
879.46588	0.04212
878.18011	0.04388
876.89434	0.04535
875.60857	0.04669
874.32280	0.04791
873.03703	0.04884
871.75126	0.04920
870.46550	0.04886
869.17973	0.04785
867.89396	0.04631
866.60819	0.04438
865.32242	0.04224
864.03665	0.04007
862.75088	0.03803
861.46511	0.03622
860.17935	0.03470
858.89358	0.03350
857.60781	0.03260
856.32204	0.03189
855.03627	0.03123
853.75050	0.03059
852.46473	0.03002
851.17896	0.02955
849.89319	0.02920
848.60743	0.02891
847.32166	0.02866
846.03589	0.02844
844.75012	0.02822
843.46435	0.02794
842.17858	0.02763
840.89281	0.02732
839.60704	0.02706
838.32128	0.02683
837.03551	0.02658
835.74974	0.02629
834.46397	0.02599
833.17820	0.02574
831.89243	0.02553
830.60666	0.02535
829.32089	0.02518
828.03512	0.02502
826.74936	0.02490
825.46359	0.02483
824.17782	0.02479
822.89205	0.02471
821.60628	0.02458
820.32051	0.02448
819.03474	0.02450
817.74897	0.02461
816.46321	0.02467
815.17744	0.02459
813.89167	0.02441
812.60590	0.02423
811.32013	0.02410
810.03436	0.02397
808.74859	0.02382
807.46282	0.02367
806.17705	0.02361
804.89129	0.02361
803.60552	0.02361
802.31975	0.02359
801.03398	0.02355
799.74821	0.02354
798.46244	0.02357
797.17667	0.02365
795.89090	0.02372
794.60513	0.02372
793.31937	0.02364
792.03360	0.02352
790.74783	0.02341
789.46206	0.02332
788.17629	0.02323
786.89052	0.02313
785.60475	0.02307
784.31898	0.02305
783.03322	0.02303
781.74745	0.02301
780.46168	0.02303
779.17591	0.02310
777.89014	0.02317
776.60437	0.02320
775.31860	0.02317
774.03283	0.02310
772.74706	0.02295
771.46130	0.02270
770.17553	0.02240
768.88976	0.02219
767.60399	0.02211
766.31822	0.02213
765.03245	0.02217
763.74668	0.02221
762.46091	0.02229
761.17515	0.02244
759.88938	0.02261
758.60361	0.02271
757.31784	0.02272
756.03207	0.02271
754.74630	0.02273
753.46053	0.02280
752.17476	0.02290
750.88899	0.02296
749.60323	0.02290
748.31746	0.02271
747.03169	0.02248
745.74592	0.02229
744.46015	0.02220
743.17438	0.02220
741.88861	0.02222
740.60284	0.02219
739.31708	0.02214
738.03131	0.02212
736.74554	0.02220
735.45977	0.02231
734.17400	0.02238
732.88823	0.02240
731.60246	0.02241
730.31669	0.02240
729.03092	0.02239
727.74516	0.02244
726.45939	0.02255
725.17362	0.02267
723.88785	0.02271
722.60208	0.02270
721.31631	0.02270
720.03054	0.02277
718.74477	0.02290
717.45901	0.02305
716.17324	0.02320
714.88747	0.02329
713.60170	0.02330
712.31593	0.02322
711.03016	0.02308
709.74439	0.02296
708.45862	0.02289
707.17285	0.02284
705.88709	0.02278
704.60132	0.02267
703.31555	0.02255
702.02978	0.02243
700.74401	0.02238
699.45824	0.02240
698.17247	0.02247
696.88670	0.02254
695.60094	0.02259
694.31517	0.02261
693.02940	0.02261
691.74363	0.02258
690.45786	0.02253
689.17209	0.02246
687.88632	0.02241
686.60055	0.02239
685.31478	0.02238
684.02902	0.02235
682.74325	0.02229
681.45748	0.02226
680.17171	0.02228
678.88594	0.02234
677.60017	0.02237
676.31440	0.02236
675.02863	0.02232
673.74287	0.02230
672.45710	0.02235
671.17133	0.02242
669.88556	0.02249
668.59979	0.02252
667.31402	0.02257
666.02825	0.02255
664.74248	0.02249
663.45671	0.02238
662.17095	0.02221
660.88518	0.02201
659.59941	0.02182
658.31364	0.02166
657.02787	0.02155
655.74210	0.02149
654.45633	0.02148
653.17056	0.02152
651.88480	0.02160
650.59903	0.02167
649.31326	0.02170
648.02749	0.02165
646.74172	0.02152
645.45595	0.02139
644.17018	0.02137
642.88441	0.02149
641.59864	0.02171
640.31288	0.02195
639.02711	0.02213
637.74134	0.02226
636.45557	0.02237
635.16980	0.02252
633.88403	0.02273
632.59826	0.02294
631.31249	0.02318
630.02673	0.02377
628.74096	0.02459
627.45519	0.02448
626.16942	0.02553
624.88365	0.02735
623.59788	0.02922
622.31211	0.03107
621.02634	0.03291
619.74057	0.03440
618.45481	0.03524
617.16904	0.03568
615.88327	0.03630
614.59750	0.03763
613.31173	0.04016
612.02596	0.04434
610.74019	0.05006
609.45442	0.05613
608.16866	0.06121
606.88289	0.06500
605.59712	0.06794
604.31135	0.07022
603.02558	0.07156
601.73981	0.07176
600.45404	0.07092
599.16827	0.06933
597.88250	0.06721
596.59674	0.06484
595.31097	0.06253
594.02520	0.06055
592.73943	0.05901
591.45366	0.05791
590.16789	0.05723
588.88212	0.05700
587.59635	0.05724
586.31059	0.05794
585.02482	0.05901
583.73905	0.06034
582.45328	0.06187
581.16751	0.06358
579.88174	0.06549
578.59597	0.06754
577.31020	0.06960
576.02443	0.07155
574.73867	0.07336
573.45290	0.07509
572.16713	0.07680
570.88136	0.07855
569.59559	0.08042
568.30982	0.08249
567.02405	0.08477
565.73828	0.08706
564.45251	0.08896
563.16675	0.09008
561.88098	0.09013
560.59521	0.08904
559.30944	0.08696
558.02367	0.08414
556.73790	0.08083
555.45213	0.07720
554.16636	0.07340
552.88060	0.06959
551.59483	0.06592
550.30906	0.06248
549.02329	0.05928
547.73752	0.05635
546.45175	0.05372
545.16598	0.05136
543.88021	0.04920
542.59444	0.04718
541.30868	0.04532
540.02291	0.04368
538.73714	0.04229
537.45137	0.04107
536.16560	0.03993
534.87983	0.03884
533.59406	0.03781
532.30829	0.03683
531.02253	0.03587
529.73676	0.03494
528.45099	0.03409
527.16522	0.03336
525.87945	0.03275
524.59368	0.03223
523.30791	0.03173
522.02214	0.03122
520.73637	0.03069
519.45061	0.03014
518.16484	0.02959
516.87907	0.02906
515.59330	0.02856
514.30753	0.02801
513.02176	0.02734
511.73599	0.02663
510.45022	0.02602
509.16446	0.02563
507.87869	0.02545
506.59292	0.02535
505.30715	0.02523
504.02138	0.02504
502.73561	0.02482
501.44984	0.02458
500.16407	0.02437
498.87830	0.02416
497.59254	0.02393
496.30677	0.02363
495.02100	0.02328
493.73523	0.02290
492.44946	0.02254
491.16369	0.02221
489.87792	0.02193
488.59215	0.02168
487.30639	0.02145
486.02062	0.02125
484.73485	0.02114
483.44908	0.02114
482.16331	0.02123
480.87754	0.02135
479.59177	0.02146
478.30600	0.02156
477.02023	0.02165
475.73447	0.02173
474.44870	0.02181
473.16293	0.02193
471.87716	0.02210
470.59139	0.02227
469.30562	0.02232
468.01985	0.02215
466.73408	0.02177
465.44832	0.02134
464.16255	0.02100
462.87678	0.02078
461.59101	0.02061
460.30524	0.02039
459.01947	0.02011
457.73370	0.01981
456.44793	0.01954
455.16216	0.01928
453.87640	0.01904
452.59063	0.01881
451.30486	0.01859
450.01909	0.01838
448.73332	0.01821
447.44755	0.01809
446.16178	0.01801
444.87601	0.01793
443.59025	0.01782
442.30448	0.01767
441.01871	0.01751
439.73294	0.01737
438.44717	0.01727
437.16140	0.01719
435.87563	0.01711
434.58986	0.01702
433.30409	0.01691
432.01833	0.01680
430.73256	0.01671
429.44679	0.01666
428.16102	0.01662
426.87525	0.01658
425.58948	0.01651
424.30371	0.01642
423.01794	0.01630
421.73218	0.01617
420.44641	0.01603
419.16064	0.01591
417.87487	0.01583
416.58910	0.01578
415.30333	0.01574
414.01756	0.01568
412.73179	0.01558
411.44602	0.01551
410.16026	0.01549
408.87449	0.01554
407.58872	0.01558
406.30295	0.01558
405.01718	0.01554
403.73141	0.01555
402.44564	0.01568
401.15987	0.01588
399.87411	0.01609
