3997.45528	0.07290
3996.16951	0.07249
3994.88374	0.07264
3993.59798	0.07325
3992.31221	0.07391
3991.02644	0.07417
3989.74067	0.07383
3988.45490	0.07305
3987.16913	0.07230
3985.88336	0.07212
3984.59759	0.07264
3983.31183	0.07347
3982.02606	0.07403
3980.74029	0.07401
3979.45452	0.07347
3978.16875	0.07273
3976.88298	0.07203
3975.59721	0.07152
3974.31144	0.07121
3973.02567	0.07110
3971.73991	0.07112
3970.45414	0.07122
3969.16837	0.07142
3967.88260	0.07187
3966.59683	0.07265
3965.31106	0.07363
3964.02529	0.07448
3962.73952	0.07487
3961.45376	0.07463
3960.16799	0.07386
3958.88222	0.07297
3957.59645	0.07242
3956.31068	0.07245
3955.02491	0.07288
3953.73914	0.07334
3952.45337	0.07360
3951.16760	0.07365
3949.88184	0.07357
3948.59607	0.07340
3947.31030	0.07307
3946.02453	0.07250
3944.73876	0.07163
3943.45299	0.07054
3942.16722	0.06955
3940.88145	0.06907
3939.59569	0.06922
3938.30992	0.06969
3937.02415	0.06999
3935.73838	0.06993
3934.45261	0.06967
3933.16684	0.06943
3931.88107	0.06931
3930.59530	0.06940
3929.30953	0.06971
3928.02377	0.07011
3926.73800	0.07040
3925.45223	0.07047
3924.16646	0.07037
3922.88069	0.07021
3921.59492	0.07009
3920.30915	0.07003
3919.02338	0.06998
3917.73762	0.06973
3916.45185	0.06918
3915.16608	0.06854
3913.88031	0.06813
3912.59454	0.06801
3911.30877	0.06790
3910.02300	0.06763
3908.73723	0.06734
3907.45146	0.06741
3906.16570	0.06804
3904.87993	0.06912
3903.59416	0.07020
3902.30839	0.07086
3901.02262	0.07084
3899.73685	0.07008
3898.45108	0.06873
3897.16531	0.06729
3895.87955	0.06637
3894.59378	0.06622
3893.30801	0.06652
3892.02224	0.06672
3890.73647	0.06658
3889.45070	0.06636
3888.16493	0.06641
3886.87916	0.06666
3885.59339	0.06680
3884.30763	0.06676
3883.02186	0.06676
3881.73609	0.06684
3880.45032	0.06682
3879.16455	0.06671
3877.87878	0.06678
3876.59301	0.06716
3875.30724	0.06755
3874.02148	0.06764
3872.73571	0.06749
3871.44994	0.06737
3870.16417	0.06729
3868.87840	0.06715
3867.59263	0.06703
3866.30686	0.06699
3865.02109	0.06691
3863.73532	0.06673
3862.44956	0.06656
3861.16379	0.06635
3859.87802	0.06596
3858.59225	0.06555
3857.30648	0.06569
3856.02071	0.06667
3854.73494	0.06787
3853.44917	0.06823
3852.16341	0.06748
3850.87764	0.06641
3849.59187	0.06591
3848.30610	0.06624
3847.02033	0.06699
3845.73456	0.06752
3844.44879	0.06730
3843.16302	0.06641
3841.87725	0.06544
3840.59149	0.06499
3839.30572	0.06502
3838.01995	0.06499
3836.73418	0.06460
3835.44841	0.06416
3834.16264	0.06419
3832.87687	0.06479
3831.59110	0.06568
3830.30534	0.06650
3829.01957	0.06707
3827.73380	0.06741
3826.44803	0.06758
3825.16226	0.06761
3823.87649	0.06739
3822.59072	0.06665
3821.30495	0.06529
3820.01918	0.06388
3818.73342	0.06339
3817.44765	0.06407
3816.16188	0.06508
3814.87611	0.06549
3813.59034	0.06516
3812.30457	0.06449
3811.01880	0.06374
3809.73303	0.06314
3808.44726	0.06294
3807.16150	0.06318
3805.87573	0.06368
3804.58996	0.06433
3803.30419	0.06491
3802.01842	0.06501
3800.73265	0.06450
3799.44688	0.06391
3798.16111	0.06380
3796.87535	0.06413
3795.58958	0.06447
3794.30381	0.06464
3793.01804	0.06469
3791.73227	0.06459
3790.44650	0.06431
3789.16073	0.06401
3787.87496	0.06386
3786.58919	0.06388
3785.30343	0.06398
3784.01766	0.06403
3782.73189	0.06400
3781.44612	0.06388
3780.16035	0.06360
3778.87458	0.06315
3777.58881	0.06272
3776.30304	0.06245
3775.01728	0.06233
3773.73151	0.06221
3772.44574	0.06197
3771.15997	0.06161
3769.87420	0.06121
3768.58843	0.06098
3767.30266	0.06115
3766.01689	0.06167
3764.73112	0.06229
3763.44536	0.06280
3762.15959	0.06312
3760.87382	0.06312
3759.58805	0.06273
3758.30228	0.06214
3757.01651	0.06174
3755.73074	0.06186
3754.44497	0.06245
3753.15921	0.06303
3751.87344	0.06311
3750.58767	0.06271
3749.30190	0.06233
3748.01613	0.06242
3746.73036	0.06293
3745.44459	0.06319
3744.15882	0.06256
3742.87305	0.06138
3741.58729	0.06064
3740.30152	0.06074
3739.01575	0.06115
3737.72998	0.06119
3736.44421	0.06064
3735.15844	0.05985
3733.87267	0.05941
3732.58690	0.05950
3731.30114	0.05980
3730.01537	0.05996
3728.72960	0.05997
3727.44383	0.05992
3726.15806	0.05987
3724.87229	0.05994
3723.58652	0.06017
3722.30075	0.06044
3721.01498	0.06058
3719.72922	0.06066
3718.44345	0.06089
3717.15768	0.06131
3715.87191	0.06158
3714.58614	0.06125
3713.30037	0.06021
3712.01460	0.05891
3710.72883	0.05810
3709.44307	0.05814
3708.15730	0.05865
3706.87153	0.05899
3705.58576	0.05901
3704.29999	0.05911
3703.01422	0.05960
3701.72845	0.06026
3700.44268	0.06067
3699.15691	0.06052
3697.87115	0.05979
3696.58538	0.05869
3695.29961	0.05772
3694.01384	0.05732
3692.72807	0.05753
3691.44230	0.05802
3690.15653	0.05840
3688.87076	0.05838
3687.58500	0.05797
3686.29923	0.05752
3685.01346	0.05736
3683.72769	0.05744
3682.44192	0.05758
3681.15615	0.05762
3679.87038	0.05756
3678.58461	0.05759
3677.29884	0.05786
3676.01308	0.05821
3674.72731	0.05828
3673.44154	0.05810
3672.15577	0.05801
3670.87000	0.05817
3669.58423	0.05840
3668.29846	0.05858
3667.01269	0.05867
3665.72693	0.05862
3664.44116	0.05840
3663.15539	0.05826
3661.86962	0.05846
3660.58385	0.05901
3659.29808	0.05954
3658.01231	0.05965
3656.72654	0.05927
3655.44077	0.05870
3654.15501	0.05844
3652.86924	0.05876
3651.58347	0.05946
3650.29770	0.06010
3649.01193	0.06032
3647.72616	0.06006
3646.44039	0.05941
3645.15462	0.05851
3643.86886	0.05751
3642.58309	0.05664
3641.29732	0.05620
3640.01155	0.05629
3638.72578	0.05683
3637.44001	0.05757
3636.15424	0.05831
3634.86847	0.05886
3633.58270	0.05912
3632.29694	0.05917
3631.01117	0.05918
3629.72540	0.05918
3628.43963	0.05915
3627.15386	0.05924
3625.86809	0.05973
3624.58232	0.06060
3623.29655	0.06147
3622.01079	0.06191
3620.72502	0.06173
3619.43925	0.06108
3618.15348	0.06043
3616.86771	0.06024
3615.58194	0.06055
3614.29617	0.06098
3613.01040	0.06113
3611.72463	0.06093
3610.43887	0.06063
3609.15310	0.06060
3607.86733	0.06107
3606.58156	0.06200
3605.29579	0.06303
3604.01002	0.06366
3602.72425	0.06372
3601.43848	0.06346
3600.15272	0.06321
3598.86695	0.06304
3597.58118	0.06288
3596.29541	0.06273
3595.00964	0.06266
3593.72387	0.06266
3592.43810	0.06269
3591.15233	0.06284
3589.86656	0.06321
3588.58080	0.06363
3587.29503	0.06380
3586.00926	0.06377
3584.72349	0.06389
3583.43772	0.06435
3582.15195	0.06495
3580.86618	0.06537
3579.58041	0.06555
3578.29464	0.06571
3577.00888	0.06611
3575.72311	0.06670
3574.43734	0.06714
3573.15157	0.06714
3571.86580	0.06681
3570.58003	0.06658
3569.29426	0.06680
3568.00849	0.06744
3566.72273	0.06818
3565.43696	0.06862
3564.15119	0.06857
3562.86542	0.06815
3561.57965	0.06772
3560.29388	0.06769
3559.00811	0.06822
3557.72234	0.06917
3556.43657	0.07019
3555.15081	0.07097
3553.86504	0.07133
3552.57927	0.07128
3551.29350	0.07094
3550.00773	0.07052
3548.72196	0.07027
3547.43619	0.07037
3546.15042	0.07080
3544.86466	0.07135
3543.57889	0.07179
3542.29312	0.07214
3541.00735	0.07256
3539.72158	0.07302
3538.43581	0.07333
3537.15004	0.07328
3535.86427	0.07291
3534.57850	0.07246
3533.29274	0.07213
3532.00697	0.07197
3530.72120	0.07191
3529.43543	0.07184
3528.14966	0.07179
3526.86389	0.07191
3525.57812	0.07237
3524.29235	0.07312
3523.00659	0.07400
3521.72082	0.07479
3520.43505	0.07530
3519.14928	0.07535
3517.86351	0.07492
3516.57774	0.07435
3515.29197	0.07411
3514.00620	0.07446
3512.72043	0.07523
3511.43467	0.07592
3510.14890	0.07611
3508.86313	0.07585
3507.57736	0.07553
3506.29159	0.07553
3505.00582	0.07589
3503.72005	0.07639
3502.43428	0.07683
3501.14852	0.07713
3499.86275	0.07726
3498.57698	0.07726
3497.29121	0.07720
3496.00544	0.07720
3494.71967	0.07737
3493.43390	0.07771
3492.14813	0.07815
3490.86236	0.07856
3489.57660	0.07891
3488.29083	0.07924
3487.00506	0.07959
3485.71929	0.07993
3484.43352	0.08018
3483.14775	0.08024
3481.86198	0.08009
3480.57621	0.07986
3479.29045	0.07979
3478.00468	0.08000
3476.71891	0.08031
3475.43314	0.08043
3474.14737	0.08025
3472.86160	0.07991
3471.57583	0.07965
3470.29006	0.07965
3469.00429	0.07993
3467.71853	0.08041
3466.43276	0.08101
3465.14699	0.08157
3463.86122	0.08195
3462.57545	0.08206
3461.28968	0.08196
3460.00391	0.08180
3458.71814	0.08174
3457.43238	0.08178
3456.14661	0.08179
3454.86084	0.08171
3453.57507	0.08170
3452.28930	0.08192
3451.00353	0.08233
3449.71776	0.08271
3448.43199	0.08288
3447.14622	0.08289
3445.86046	0.08295
3444.57469	0.08322
3443.28892	0.08361
3442.00315	0.08390
3440.71738	0.08398
3439.43161	0.08394
3438.14584	0.08395
3436.86007	0.08414
3435.57431	0.08453
3434.28854	0.08500
3433.00277	0.08534
3431.71700	0.08541
3430.43123	0.08523
3429.14546	0.08499
3427.85969	0.08488
3426.57392	0.08500
3425.28815	0.08529
3424.00239	0.08557
3422.71662	0.08568
3421.43085	0.08565
3420.14508	0.08569
3418.85931	0.08596
3417.57354	0.08644
3416.28777	0.08700
3415.00200	0.08752
3413.71624	0.08792
3412.43047	0.08815
3411.14470	0.08822
3409.85893	0.08821
3408.57316	0.08825
3407.28739	0.08842
3406.00162	0.08871
3404.71585	0.08890
3403.43008	0.08886
3402.14432	0.08864
3400.85855	0.08848
3399.57278	0.08851
3398.28701	0.08867
3397.00124	0.08880
3395.71547	0.08880
3394.42970	0.08869
3393.14393	0.08860
3391.85817	0.08864
3390.57240	0.08884
3389.28663	0.08916
3388.00086	0.08946
3386.71509	0.08964
3385.42932	0.08975
3384.14355	0.08986
3382.85778	0.08994
3381.57201	0.08992
3380.28625	0.08985
3379.00048	0.08987
3377.71471	0.09007
3376.42894	0.09042
3375.14317	0.09083
3373.85740	0.09129
3372.57163	0.09173
3371.28586	0.09204
3370.00010	0.09212
3368.71433	0.09206
3367.42856	0.09206
3366.14279	0.09222
3364.85702	0.09249
3363.57125	0.09275
3362.28548	0.09292
3360.99971	0.09297
3359.71394	0.09284
3358.42818	0.09248
3357.14241	0.09197
3355.85664	0.09147
3354.57087	0.09121
3353.28510	0.09128
3351.99933	0.09163
3350.71356	0.09207
3349.42779	0.09249
3348.14202	0.09280
3346.85626	0.09298
3345.57049	0.09304
3344.28472	0.09302
3342.99895	0.09301
3341.71318	0.09310
3340.42741	0.09325
3339.14164	0.09338
3337.85587	0.09345
3336.57011	0.09348
3335.28434	0.09348
3333.99857	0.09343
3332.71280	0.09334
3331.42703	0.09335
3330.14126	0.09352
3328.85549	0.09376
3327.56972	0.09387
3326.28395	0.09378
3324.99819	0.09357
3323.71242	0.09342
3322.42665	0.09343
3321.14088	0.09361
3319.85511	0.09386
3318.56934	0.09410
3317.28357	0.09432
3315.99780	0.09455
3314.71204	0.09472
3313.42627	0.09473
3312.14050	0.09459
3310.85473	0.09448
3309.56896	0.09462
3308.28319	0.09496
3306.99742	0.09527
3305.71165	0.09536
3304.42588	0.09528
3303.14012	0.09516
3301.85435	0.09501
3300.56858	0.09477
3299.28281	0.09445
3297.99704	0.09415
3296.71127	0.09399
3295.42550	0.09409
3294.13973	0.09445
3292.85397	0.09487
3291.56820	0.09515
3290.28243	0.09522
3288.99666	0.09519
3287.71089	0.09516
3286.42512	0.09516
3285.13935	0.09511
3283.85358	0.09499
3282.56781	0.09484
3281.28205	0.09477
3279.99628	0.09494
3278.71051	0.09534
3277.42474	0.09579
3276.13897	0.09596
3274.85320	0.09567
3273.56743	0.09498
3272.28166	0.09411
3270.99590	0.09327
3269.71013	0.09261
3268.42436	0.09224
3267.13859	0.09218
3265.85282	0.09232
3264.56705	0.09250
3263.28128	0.09269
3261.99551	0.09298
3260.70974	0.09339
3259.42398	0.09379
3258.13821	0.09394
3256.85244	0.09382
3255.56667	0.09362
3254.28090	0.09352
3252.99513	0.09339
3251.70936	0.09303
3250.42359	0.09239
3249.13783	0.09167
3247.85206	0.09110
3246.56629	0.09081
3245.28052	0.09079
3243.99475	0.09096
3242.70898	0.09113
3241.42321	0.09105
3240.13744	0.09059
3238.85167	0.08992
3237.56591	0.08941
3236.28014	0.08927
3234.99437	0.08941
3233.70860	0.08957
3232.42283	0.08967
3231.13706	0.08978
3229.85129	0.08998
3228.56552	0.09017
3227.27976	0.09021
3225.99399	0.09008
3224.70822	0.08989
3223.42245	0.08972
3222.13668	0.08952
3220.85091	0.08918
3219.56514	0.08866
3218.27937	0.08809
3216.99360	0.08767
3215.70784	0.08757
3214.42207	0.08779
3213.13630	0.08816
3211.85053	0.08843
3210.56476	0.08847
3209.27899	0.08828
3207.99322	0.08796
3206.70745	0.08765
3205.42169	0.08747
3204.13592	0.08740
3202.85015	0.08730
3201.56438	0.08703
3200.27861	0.08668
3198.99284	0.08650
3197.70707	0.08659
3196.42130	0.08678
3195.13553	0.08677
3193.84977	0.08643
3192.56400	0.08590
3191.27823	0.08540
3189.99246	0.08506
3188.70669	0.08487
3187.42092	0.08471
3186.13515	0.08454
3184.84938	0.08433
3183.56362	0.08416
3182.27785	0.08405
3180.99208	0.08397
3179.70631	0.08383
3178.42054	0.08358
3177.13477	0.08322
3175.84900	0.08279
3174.56323	0.08237
3173.27746	0.08207
3171.99170	0.08200
3170.70593	0.08217
3169.42016	0.08244
3168.13439	0.08259
3166.84862	0.08250
3165.56285	0.08220
3164.27708	0.08183
3162.99131	0.08147
3161.70555	0.08110
3160.41978	0.08069
3159.13401	0.08028
3157.84824	0.07995
3156.56247	0.07973
3155.27670	0.07953
3153.99093	0.07926
3152.70516	0.07901
3151.41939	0.07895
3150.13363	0.07915
3148.84786	0.07942
3147.56209	0.07952
3146.27632	0.07936
3144.99055	0.07904
3143.70478	0.07871
3142.41901	0.07839
3141.13324	0.07801
3139.84748	0.07757
3138.56171	0.07724
3137.27594	0.07724
3135.99017	0.07757
3134.70440	0.07797
3133.41863	0.07813
3132.13286	0.07797
3130.84709	0.07767
3129.56132	0.07748
3128.27556	0.07751
3126.98979	0.07762
3125.70402	0.07755
3124.41825	0.07721
3123.13248	0.07677
3121.84671	0.07642
3120.56094	0.07625
3119.27517	0.07617
3117.98940	0.07613
3116.70364	0.07614
3115.41787	0.07615
3114.13210	0.07603
3112.84633	0.07574
3111.56056	0.07551
3110.27479	0.07555
3108.98902	0.07583
3107.70325	0.07602
3106.41749	0.07592
3105.13172	0.07562
3103.84595	0.07530
3102.56018	0.07508
3101.27441	0.07493
3099.98864	0.07487
3098.70287	0.07488
3097.41710	0.07491
3096.13133	0.07497
3094.84557	0.07509
3093.55980	0.07533
3092.27403	0.07564
3090.98826	0.07586
3089.70249	0.07584
3088.41672	0.07553
3087.13095	0.07510
3085.84518	0.07477
3084.55942	0.07464
3083.27365	0.07459
3081.98788	0.07441
3080.70211	0.07411
3079.41634	0.07386
3078.13057	0.07377
3076.84480	0.07380
3075.55903	0.07384
3074.27326	0.07385
3072.98750	0.07382
3071.70173	0.07378
3070.41596	0.07379
3069.13019	0.07398
3067.84442	0.07437
3066.55865	0.07482
3065.27288	0.07505
3063.98711	0.07485
3062.70135	0.07424
3061.41558	0.07349
3060.12981	0.07294
3058.84404	0.07276
3057.55827	0.07292
3056.27250	0.07324
3054.98673	0.07352
3053.70096	0.07366
3052.41519	0.07364
3051.12943	0.07349
3049.84366	0.07326
3048.55789	0.07298
3047.27212	0.07268
3045.98635	0.07232
3044.70058	0.07192
3043.41481	0.07152
3042.12904	0.07121
3040.84328	0.07101
3039.55751	0.07085
3038.27174	0.07064
3036.98597	0.07035
3035.70020	0.07006
3034.41443	0.06986
3033.12866	0.06976
3031.84289	0.06972
3030.55712	0.06965
3029.27136	0.06950
3027.98559	0.06929
3026.69982	0.06904
3025.41405	0.06877
3024.12828	0.06854
3022.84251	0.06844
3021.55674	0.06849
3020.27097	0.06857
3018.98521	0.06852
3017.69944	0.06836
3016.41367	0.06824
3015.12790	0.06833
3013.84213	0.06857
3012.55636	0.06881
3011.27059	0.06889
3009.98482	0.06881
3008.69905	0.06868
3007.41329	0.06861
3006.12752	0.06855
3004.84175	0.06838
3003.55598	0.06812
3002.27021	0.06789
3000.98444	0.06788
2999.69867	0.06808
2998.41290	0.06848
2997.12714	0.06884
2995.84137	0.06905
2994.55560	0.06911
2993.26983	0.06906
2991.98406	0.06892
2990.69829	0.06878
2989.41252	0.06869
2988.12675	0.06867
2986.84098	0.06871
2985.55522	0.06881
2984.26945	0.06897
2982.98368	0.06907
2981.69791	0.06899
2980.41214	0.06883
2979.12637	0.06890
2977.84060	0.06937
2976.55483	0.07007
2975.26907	0.07073
2973.98330	0.07115
2972.69753	0.07132
2971.41176	0.07132
2970.12599	0.07131
2968.84022	0.07146
2967.55445	0.07185
2966.26868	0.07238
2964.98291	0.07292
2963.69715	0.07346
2962.41138	0.07405
2961.12561	0.07468
2959.83984	0.07514
2958.55407	0.07523
2957.26830	0.07488
2955.98253	0.07430
2954.69676	0.07385
2953.41100	0.07377
2952.12523	0.07402
2950.83946	0.07427
2949.55369	0.07429
2948.26792	0.07415
2946.98215	0.07408
2945.69638	0.07417
2944.41061	0.07431
2943.12484	0.07440
2941.83908	0.07446
2940.55331	0.07458
2939.26754	0.07476
2937.98177	0.07499
2936.69600	0.07527
2935.41023	0.07557
2934.12446	0.07589
2932.83869	0.07621
2931.55293	0.07650
2930.26716	0.07674
2928.98139	0.07691
2927.69562	0.07701
2926.40985	0.07704
2925.12408	0.07699
2923.83831	0.07685
2922.55254	0.07659
2921.26677	0.07627
2919.98101	0.07596
2918.69524	0.07565
2917.40947	0.07525
2916.12370	0.07470
2914.83793	0.07408
2913.55216	0.07353
2912.26639	0.07310
2910.98062	0.07277
2909.69486	0.07243
2908.40909	0.07203
2907.12332	0.07154
2905.83755	0.07096
2904.55178	0.07027
2903.26601	0.06958
2901.98024	0.06903
2900.69447	0.06868
2899.40870	0.06846
2898.12294	0.06822
2896.83717	0.06793
2895.55140	0.06762
2894.26563	0.06735
2892.97986	0.06712
2891.69409	0.06688
2890.40832	0.06660
2889.12255	0.06632
2887.83678	0.06616
2886.55102	0.06620
2885.26525	0.06635
2883.97948	0.06646
2882.69371	0.06649
2881.40794	0.06651
2880.12217	0.06659
2878.83640	0.06673
2877.55063	0.06684
2876.26487	0.06682
2874.97910	0.06668
2873.69333	0.06653
2872.40756	0.06646
2871.12179	0.06643
2869.83602	0.06633
2868.55025	0.06608
2867.26448	0.06576
2865.97871	0.06545
2864.69295	0.06523
2863.40718	0.06511
2862.12141	0.06512
2860.83564	0.06520
2859.54987	0.06524
2858.26410	0.06514
2856.97833	0.06491
2855.69256	0.06464
2854.40680	0.06440
2853.12103	0.06413
2851.83526	0.06378
2850.54949	0.06340
2849.26372	0.06313
2847.97795	0.06300
2846.69218	0.06281
2845.40641	0.06240
2844.12064	0.06180
2842.83488	0.06124
2841.54911	0.06087
2840.26334	0.06061
2838.97757	0.06032
2837.69180	0.05998
2836.40603	0.05971
2835.12026	0.05953
2833.83449	0.05939
2832.54873	0.05919
2831.26296	0.05890
2829.97719	0.05855
2828.69142	0.05827
2827.40565	0.05815
2826.11988	0.05817
2824.83411	0.05821
2823.54834	0.05811
2822.26257	0.05784
2820.97681	0.05755
2819.69104	0.05732
2818.40527	0.05708
2817.11950	0.05675
2815.83373	0.05639
2814.54796	0.05614
2813.26219	0.05607
2811.97642	0.05604
2810.69066	0.05589
2809.40489	0.05554
2808.11912	0.05512
2806.83335	0.05480
2805.54758	0.05465
2804.26181	0.05457
2802.97604	0.05443
2801.69027	0.05420
2800.40450	0.05394
2799.11874	0.05374
2797.83297	0.05362
2796.54720	0.05356
2795.26143	0.05354
2793.97566	0.05350
2792.68989	0.05338
2791.40412	0.05319
2790.11835	0.05306
2788.83259	0.05315
2787.54682	0.05344
2786.26105	0.05368
2784.97528	0.05364
2783.68951	0.05332
2782.40374	0.05290
2781.11797	0.05256
2779.83220	0.05233
2778.54643	0.05219
2777.26067	0.05208
2775.97490	0.05201
2774.68913	0.05199
2773.40336	0.05206
2772.11759	0.05219
2770.83182	0.05232
2769.54605	0.05236
2768.26028	0.05227
2766.97452	0.05209
2765.68875	0.05188
2764.40298	0.05161
2763.11721	0.05129
2761.83144	0.05100
2760.54567	0.05084
2759.25990	0.05083
2757.97413	0.05086
2756.68836	0.05088
2755.40260	0.05093
2754.11683	0.05102
2752.83106	0.05109
2751.54529	0.05107
2750.25952	0.05095
2748.97375	0.05082
2747.68798	0.05071
2746.40221	0.05063
2745.11645	0.05051
2743.83068	0.05032
2742.54491	0.05007
2741.25914	0.04984
2739.97337	0.04967
2738.68760	0.04954
2737.40183	0.04941
2736.11606	0.04928
2734.83029	0.04921
2733.54453	0.04920
2732.25876	0.04917
2730.97299	0.04908
2729.68722	0.04898
2728.40145	0.04896
2727.11568	0.04900
2725.82991	0.04903
2724.54414	0.04897
2723.25838	0.04881
2721.97261	0.04861
2720.68684	0.04852
2719.40107	0.04865
2718.11530	0.04894
2716.82953	0.04921
2715.54376	0.04929
2714.25799	0.04916
2712.97222	0.04894
2711.68646	0.04874
2710.40069	0.04858
2709.11492	0.04840
2707.82915	0.04813
2706.54338	0.04783
2705.25761	0.04759
2703.97184	0.04746
2702.68607	0.04739
2701.40031	0.04735
2700.11454	0.04736
2698.82877	0.04739
2697.54300	0.04740
2696.25723	0.04739
2694.97146	0.04736
2693.68569	0.04733
2692.39992	0.04730
2691.11415	0.04726
2689.82839	0.04720
2688.54262	0.04708
2687.25685	0.04687
2685.97108	0.04660
2684.68531	0.04634
2683.39954	0.04617
2682.11377	0.04612
2680.82800	0.04623
2679.54224	0.04645
2678.25647	0.04666
2676.97070	0.04674
2675.68493	0.04662
2674.39916	0.04641
2673.11339	0.04625
2671.82762	0.04618
2670.54185	0.04612
2669.25608	0.04599
2667.97032	0.04585
2666.68455	0.04583
2665.39878	0.04596
2664.11301	0.04612
2662.82724	0.04621
2661.54147	0.04620
2660.25570	0.04615
2658.96993	0.04602
2657.68417	0.04581
2656.39840	0.04558
2655.11263	0.04543
2653.82686	0.04542
2652.54109	0.04545
2651.25532	0.04544
2649.96955	0.04540
2648.68378	0.04538
2647.39801	0.04533
2646.11225	0.04516
2644.82648	0.04483
2643.54071	0.04443
2642.25494	0.04413
2640.96917	0.04398
2639.68340	0.04397
2638.39763	0.04400
2637.11186	0.04404
2635.82609	0.04405
2634.54033	0.04397
2633.25456	0.04377
2631.96879	0.04353
2630.68302	0.04336
2629.39725	0.04337
2628.11148	0.04346
2626.82571	0.04344
2625.53994	0.04316
2624.25418	0.04267
2622.96841	0.04221
2621.68264	0.04199
2620.39687	0.04201
2619.11110	0.04207
2617.82533	0.04195
2616.53956	0.04159
2615.25379	0.04116
2613.96802	0.04086
2612.68226	0.04075
2611.39649	0.04079
2610.11072	0.04085
2608.82495	0.04085
2607.53918	0.04076
2606.25341	0.04066
2604.96764	0.04061
2603.68187	0.04060
2602.39611	0.04051
2601.11034	0.04026
2599.82457	0.03989
2598.53880	0.03955
2597.25303	0.03937
2595.96726	0.03934
2594.68149	0.03942
2593.39572	0.03957
2592.10995	0.03971
2590.82419	0.03969
2589.53842	0.03938
2588.25265	0.03882
2586.96688	0.03829
2585.68111	0.03804
2584.39534	0.03813
2583.10957	0.03840
2581.82380	0.03864
2580.53804	0.03876
2579.25227	0.03883
2577.96650	0.03887
2576.68073	0.03882
2575.39496	0.03860
2574.10919	0.03829
2572.82342	0.03805
2571.53765	0.03791
2570.25188	0.03777
2568.96612	0.03754
2567.68035	0.03724
2566.39458	0.03701
2565.10881	0.03699
2563.82304	0.03714
2562.53727	0.03726
2561.25150	0.03724
2559.96573	0.03712
2558.67997	0.03707
2557.39420	0.03706
2556.10843	0.03694
2554.82266	0.03664
2553.53689	0.03632
2552.25112	0.03614
2550.96535	0.03606
2549.67958	0.03591
2548.39381	0.03569
2547.10805	0.03557
2545.82228	0.03569
2544.53651	0.03598
2543.25074	0.03624
2541.96497	0.03634
2540.67920	0.03624
2539.39343	0.03602
2538.10766	0.03576
2536.82190	0.03546
2535.53613	0.03517
2534.25036	0.03500
2532.96459	0.03507
2531.67882	0.03528
2530.39305	0.03536
2529.10728	0.03515
2527.82151	0.03477
2526.53574	0.03448
2525.24998	0.03445
2523.96421	0.03464
2522.67844	0.03486
2521.39267	0.03499
2520.10690	0.03505
2518.82113	0.03510
2517.53536	0.03510
2516.24959	0.03492
2514.96383	0.03458
2513.67806	0.03421
2512.39229	0.03392
2511.10652	0.03369
2509.82075	0.03349
2508.53498	0.03343
2507.24921	0.03357
2505.96344	0.03384
2504.67767	0.03407
2503.39191	0.03409
2502.10614	0.03387
2500.82037	0.03356
2499.53460	0.03341
2498.24883	0.03351
2496.96306	0.03374
2495.67729	0.03386
2494.39152	0.03378
2493.10576	0.03355
2491.81999	0.03329
2490.53422	0.03313
2489.24845	0.03308
2487.96268	0.03313
2486.67691	0.03330
2485.39114	0.03353
2484.10537	0.03372
2482.81960	0.03377
2481.53384	0.03372
2480.24807	0.03364
2478.96230	0.03356
2477.67653	0.03344
2476.39076	0.03332
2475.10499	0.03322
2473.81922	0.03315
2472.53345	0.03316
2471.24769	0.03332
2469.96192	0.03355
2468.67615	0.03369
2467.39038	0.03365
2466.10461	0.03352
2464.81884	0.03343
2463.53307	0.03344
2462.24730	0.03352
2460.96153	0.03363
2459.67577	0.03369
2458.39000	0.03365
2457.10423	0.03341
2455.81846	0.03297
2454.53269	0.03241
2453.24692	0.03198
2451.96115	0.03182
2450.67538	0.03187
2449.38962	0.03196
2448.10385	0.03193
2446.81808	0.03172
2445.53231	0.03137
2444.24654	0.03102
2442.96077	0.03090
2441.67500	0.03102
2440.38923	0.03117
2439.10346	0.03118
2437.81770	0.03117
2436.53193	0.03134
2435.24616	0.03171
2433.96039	0.03202
2432.67462	0.03209
2431.38885	0.03195
2430.10308	0.03176
2428.81731	0.03164
2427.53155	0.03161
2426.24578	0.03162
2424.96001	0.03162
2423.67424	0.03159
2422.38847	0.03158
2421.10270	0.03170
2419.81693	0.03193
2418.53116	0.03203
2417.24539	0.03185
2415.95963	0.03148
2414.67386	0.03119
2413.38809	0.03115
2412.10232	0.03127
2410.81655	0.03131
2409.53078	0.03109
2408.24501	0.03067
2406.95924	0.03024
2405.67347	0.03009
2404.38771	0.03028
2403.10194	0.03069
2401.81617	0.03107
2400.53040	0.03133
2399.24463	0.03150
2397.95886	0.03144
2396.67309	0.03128
2395.38732	0.03111
2394.10156	0.03097
2392.81579	0.03090
2391.53002	0.03084
2390.24425	0.03070
2388.95848	0.03050
2387.67271	0.03034
2386.38694	0.03027
2385.10117	0.03028
2383.81540	0.03026
2382.52964	0.03017
2381.24387	0.03002
2379.95810	0.02988
2378.67233	0.02983
2377.38656	0.02995
2376.10079	0.03023
2374.81502	0.03056
2373.52925	0.03068
2372.24349	0.03051
2370.95772	0.03020
2369.67195	0.03004
2368.38618	0.03017
2367.10041	0.03050
2365.81464	0.03088
2364.52887	0.03108
2363.24310	0.03100
2361.95733	0.03070
2360.67157	0.03030
2359.38580	0.03011
2358.10003	0.03029
2356.81426	0.03067
2355.52849	0.03098
2354.24272	0.03113
2352.95695	0.03111
2351.67118	0.03095
2350.38542	0.03092
2349.09965	0.03124
2347.81388	0.03168
2346.52811	0.03176
2345.24234	0.03173
2343.95657	0.03215
2342.67080	0.03277
2341.38503	0.03255
2340.09926	0.03165
2338.81350	0.03161
2337.52773	0.03236
2336.24196	0.03215
2334.95619	0.03120
2333.67042	0.03120
2332.38465	0.03172
2331.09888	0.03117
2329.81311	0.03076
2328.52735	0.03157
2327.24158	0.03207
2325.95581	0.03235
2324.67004	0.03321
2323.38427	0.03359
2322.09850	0.03310
2320.81273	0.03279
2319.52696	0.03226
2318.24119	0.03161
2316.95543	0.03136
2315.66966	0.03110
2314.38389	0.03089
2313.09812	0.03086
2311.81235	0.03066
2310.52658	0.03050
2309.24081	0.03039
2307.95504	0.03021
2306.66928	0.03010
2305.38351	0.02997
2304.09774	0.02982
2302.81197	0.02966
2301.52620	0.02950
2300.24043	0.02952
2298.95466	0.02970
2297.66889	0.02987
2296.38312	0.02988
2295.09736	0.02971
2293.81159	0.02953
2292.52582	0.02947
2291.24005	0.02956
2289.95428	0.02982
2288.66851	0.03015
2287.38274	0.03033
2286.09697	0.03014
2284.81121	0.02955
2283.52544	0.02884
2282.23967	0.02833
2280.95390	0.02812
2279.66813	0.02799
2278.38236	0.02767
2277.09659	0.02706
2275.81082	0.02633
2274.52505	0.02574
2273.23929	0.02552
2271.95352	0.02571
2270.66775	0.02610
2269.38198	0.02636
2268.09621	0.02620
2266.81044	0.02563
2265.52467	0.02495
2264.23890	0.02445
2262.95314	0.02418
2261.66737	0.02399
2260.38160	0.02385
2259.09583	0.02379
2257.81006	0.02376
2256.52429	0.02362
2255.23852	0.02335
2253.95275	0.02309
2252.66698	0.02293
2251.38122	0.02272
2250.09545	0.02244
2248.80968	0.02246
2247.52391	0.02273
2246.23814	0.02346
2244.95237	0.02412
2243.66660	0.02418
2242.38083	0.02359
2241.09507	0.02267
2239.80930	0.02174
2238.52353	0.02108
2237.23776	0.02099
2235.95199	0.02159
2234.66622	0.02261
2233.38045	0.02351
2232.09468	0.02399
2230.80891	0.02416
2229.52315	0.02431
2228.23738	0.02444
2226.95161	0.02435
2225.66584	0.02385
2224.38007	0.02302
2223.09430	0.02211
2221.80853	0.02148
2220.52276	0.02147
2219.23700	0.02219
2217.95123	0.02327
2216.66546	0.02409
2215.37969	0.02424
2214.09392	0.02376
2212.80815	0.02299
2211.52238	0.02221
2210.23661	0.02163
2208.95084	0.02140
2207.66508	0.02145
2206.37931	0.02145
2205.09354	0.02094
2203.80777	0.01977
2202.52200	0.01833
2201.23623	0.01728
2199.95046	0.01694
2198.66469	0.01706
2197.37893	0.01728
2196.09316	0.01755
2194.80739	0.01804
2193.52162	0.01878
2192.23585	0.01945
2190.95008	0.01962
2189.66431	0.01909
2188.37854	0.01817
2187.09277	0.01741
2185.80701	0.01703
2184.52124	0.01670
2183.23547	0.01603
2181.94970	0.01515
2180.66393	0.01461
2179.37816	0.01465
2178.09239	0.01496
2176.80662	0.01509
2175.52085	0.01503
2174.23509	0.01504
2172.94932	0.01512
2171.66355	0.01504
2170.37778	0.01468
2169.09201	0.01426
2167.80624	0.01410
2166.52047	0.01443
2165.23470	0.01526
2163.94894	0.01620
2162.66317	0.01652
2161.37740	0.01554
2160.09163	0.01334
2158.80586	0.01090
2157.52009	0.00934
2156.23432	0.00916
2154.94855	0.01013
2153.66278	0.01163
2152.37702	0.01297
2151.09125	0.01372
2149.80548	0.01389
2148.51971	0.01374
2147.23394	0.01340
2145.94817	0.01296
2144.66240	0.01262
2143.37663	0.01250
2142.09087	0.01239
2140.80510	0.01189
2139.51933	0.01106
2138.23356	0.01049
2136.94779	0.01071
2135.66202	0.01162
2134.37625	0.01261
2133.09048	0.01329
2131.80471	0.01378
2130.51895	0.01440
2129.23318	0.01519
2127.94741	0.01598
2126.66164	0.01662
2125.37587	0.01712
2124.09010	0.01745
2122.80433	0.01758
2121.51856	0.01755
2120.23280	0.01757
2118.94703	0.01776
2117.66126	0.01803
2116.37549	0.01814
2115.08972	0.01801
2113.80395	0.01779
2112.51818	0.01779
2111.23241	0.01815
2109.94664	0.01866
2108.66088	0.01895
2107.37511	0.01887
2106.08934	0.01855
2104.80357	0.01817
2103.51780	0.01772
2102.23203	0.01718
2100.94626	0.01668
2099.66049	0.01630
2098.37473	0.01629
2097.08896	0.01646
2095.80319	0.01665
2094.51742	0.01682
2093.23165	0.01703
2091.94588	0.01720
2090.66011	0.01717
2089.37434	0.01696
2088.08857	0.01687
2086.80281	0.01717
2085.51704	0.01770
2084.23127	0.01794
2082.94550	0.01759
2081.65973	0.01692
2080.37396	0.01642
2079.08819	0.01629
2077.80242	0.01638
2076.51666	0.01656
2075.23089	0.01683
2073.94512	0.01720
2072.65935	0.01743
2071.37358	0.01722
2070.08781	0.01650
2068.80204	0.01550
2067.51627	0.01460
2066.23050	0.01411
2064.94474	0.01413
2063.65897	0.01453
2062.37320	0.01498
2061.08743	0.01516
2059.80166	0.01498
2058.51589	0.01461
2057.23012	0.01432
2055.94435	0.01427
2054.65859	0.01442
2053.37282	0.01448
2052.08705	0.01418
2050.80128	0.01339
2049.51551	0.01227
2048.22974	0.01106
2046.94397	0.01006
2045.65820	0.00969
2044.37243	0.01030
2043.08667	0.01175
2041.80090	0.01334
2040.51513	0.01426
2039.22936	0.01417
2037.94359	0.01323
2036.65782	0.01181
2035.37205	0.01028
2034.08628	0.00901
2032.80052	0.00833
2031.51475	0.00825
2030.22898	0.00848
2028.94321	0.00869
2027.65744	0.00868
2026.37167	0.00855
2025.08590	0.00859
2023.80013	0.00904
2022.51436	0.00988
2021.22860	0.01075
2019.94283	0.01129
2018.65706	0.01136
2017.37129	0.01095
2016.08552	0.01012
2014.79975	0.00897
2013.51398	0.00778
2012.22821	0.00685
2010.94245	0.00628
2009.65668	0.00593
2008.37091	0.00574
2007.08514	0.00587
2005.79937	0.00651
2004.51360	0.00761
2003.22783	0.00891
2001.94206	0.01013
2000.65629	0.01113
1999.37053	0.01182
1998.08476	0.01220
1996.79899	0.01245
1995.51322	0.01273
1994.22745	0.01302
1992.94168	0.01328
1991.65591	0.01360
1990.37014	0.01414
1989.08438	0.01475
1987.79861	0.01496
1986.51284	0.01437
1985.22707	0.01315
1983.94130	0.01203
1982.65553	0.01167
1981.36976	0.01208
1980.08399	0.01266
1978.79822	0.01283
1977.51246	0.01248
1976.22669	0.01198
1974.94092	0.01164
1973.65515	0.01151
1972.36938	0.01147
1971.08361	0.01145
1969.79784	0.01140
1968.51207	0.01120
1967.22631	0.01063
1965.94054	0.00965
1964.65477	0.00854
1963.36900	0.00776
1962.08323	0.00761
1960.79746	0.00812
1959.51169	0.00910
1958.22592	0.01028
1956.94015	0.01143
1955.65439	0.01239
1954.36862	0.01301
1953.08285	0.01327
1951.79708	0.01337
1950.51131	0.01359
1949.22554	0.01403
1947.93977	0.01454
1946.65400	0.01490
1945.36823	0.01495
1944.08247	0.01461
1942.79670	0.01398
1941.51093	0.01335
1940.22516	0.01305
1938.93939	0.01319
1937.65362	0.01355
1936.36785	0.01381
1935.08208	0.01384
1933.79632	0.01376
1932.51055	0.01366
1931.22478	0.01353
1929.93901	0.01330
1928.65324	0.01307
1927.36747	0.01301
1926.08170	0.01320
1924.79593	0.01364
1923.51016	0.01422
1922.22440	0.01485
1920.93863	0.01532
1919.65286	0.01552
1918.36709	0.01545
1917.08132	0.01534
1915.79555	0.01544
1914.50978	0.01577
1913.22401	0.01613
1911.93825	0.01626
1910.65248	0.01609
1909.36671	0.01574
1908.08094	0.01540
1906.79517	0.01521
1905.50940	0.01514
1904.22363	0.01509
1902.93786	0.01499
1901.65209	0.01482
1900.36633	0.01465
1899.08056	0.01455
1897.79479	0.01458
1896.50902	0.01475
1895.22325	0.01496
1893.93748	0.01508
1892.65171	0.01510
1891.36594	0.01517
1890.08018	0.01548
1888.79441	0.01597
1887.50864	0.01642
1886.22287	0.01665
1884.93710	0.01663
1883.65133	0.01649
1882.36556	0.01629
1881.07979	0.01607
1879.79402	0.01582
1878.50826	0.01560
1877.22249	0.01549
1875.93672	0.01546
1874.65095	0.01545
1873.36518	0.01542
1872.07941	0.01536
1870.79364	0.01528
1869.50787	0.01522
1868.22211	0.01527
1866.93634	0.01551
1865.65057	0.01591
1864.36480	0.01627
1863.07903	0.01639
1861.79326	0.01622
1860.50749	0.01593
1859.22172	0.01574
1857.93595	0.01575
1856.65019	0.01588
1855.36442	0.01596
1854.07865	0.01593
1852.79288	0.01588
1851.50711	0.01588
1850.22134	0.01595
1848.93557	0.01602
1847.64980	0.01608
1846.36404	0.01615
1845.07827	0.01618
1843.79250	0.01608
1842.50673	0.01582
1841.22096	0.01557
1839.93519	0.01547
1838.64942	0.01554
1837.36365	0.01567
1836.07788	0.01574
1834.79212	0.01572
1833.50635	0.01569
1832.22058	0.01574
1830.93481	0.01592
1829.64904	0.01612
1828.36327	0.01623
1827.07750	0.01624
1825.79173	0.01622
1824.50597	0.01617
1823.22020	0.01607
1821.93443	0.01586
1820.64866	0.01559
1819.36289	0.01534
1818.07712	0.01523
1816.79135	0.01530
1815.50558	0.01548
1814.21981	0.01565
1812.93405	0.01576
1811.64828	0.01583
1810.36251	0.01594
1809.07674	0.01611
1807.79097	0.01629
1806.50520	0.01638
1805.21943	0.01641
1803.93366	0.01649
1802.64790	0.01665
1801.36213	0.01680
1800.07636	0.01680
1798.79059	0.01662
1797.50482	0.01644
1796.21905	0.01640
1794.93328	0.01652
1793.64751	0.01669
1792.36174	0.01676
1791.07598	0.01668
1789.79021	0.01659
1788.50444	0.01658
1787.21867	0.01663
1785.93290	0.01662
1784.64713	0.01653
1783.36136	0.01640
1782.07559	0.01633
1780.78983	0.01634
1779.50406	0.01637
1778.21829	0.01642
1776.93252	0.01651
1775.64675	0.01661
1774.36098	0.01671
1773.07521	0.01672
1771.78944	0.01661
1770.50367	0.01644
1769.21791	0.01630
1767.93214	0.01624
1766.64637	0.01626
1765.36060	0.01636
1764.07483	0.01654
1762.78906	0.01669
1761.50329	0.01672
1760.21752	0.01662
1758.93176	0.01653
1757.64599	0.01649
1756.36022	0.01649
1755.07445	0.01651
1753.78868	0.01655
1752.50291	0.01658
1751.21714	0.01650
1749.93137	0.01632
1748.64560	0.01621
1747.35984	0.01625
1746.07407	0.01643
1744.78830	0.01663
1743.50253	0.01676
1742.21676	0.01682
1740.93099	0.01685
1739.64522	0.01691
1738.35945	0.01701
1737.07369	0.01719
1735.78792	0.01741
1734.50215	0.01749
1733.21638	0.01737
1731.93061	0.01720
1730.64484	0.01717
1729.35907	0.01729
1728.07330	0.01741
1726.78753	0.01747
1725.50177	0.01751
1724.21600	0.01756
1722.93023	0.01765
1721.64446	0.01781
1720.35869	0.01812
1719.07292	0.01853
1717.78715	0.01887
1716.50138	0.01906
1715.21561	0.01922
1713.92985	0.01953
1712.64408	0.02005
1711.35831	0.02072
1710.07254	0.02142
1708.78677	0.02212
1707.50100	0.02285
1706.21523	0.02368
1704.92946	0.02462
1703.64370	0.02571
1702.35793	0.02696
1701.07216	0.02825
1699.78639	0.02946
1698.50062	0.03072
1697.21485	0.03221
1695.92908	0.03384
1694.64331	0.03535
1693.35754	0.03675
1692.07178	0.03820
1690.78601	0.03970
1689.50024	0.04118
1688.21447	0.04262
1686.92870	0.04411
1685.64293	0.04561
1684.35716	0.04697
1683.07139	0.04817
1681.78563	0.04941
1680.49986	0.05080
1679.21409	0.05230
1677.92832	0.05384
1676.64255	0.05540
1675.35678	0.05690
1674.07101	0.05827
1672.78524	0.05959
1671.49947	0.06099
1670.21371	0.06250
1668.92794	0.06400
1667.64217	0.06540
1666.35640	0.06668
1665.07063	0.06789
1663.78486	0.06907
1662.49909	0.07023
1661.21332	0.07142
1659.92756	0.07264
1658.64179	0.07386
1657.35602	0.07500
1656.07025	0.07610
1654.78448	0.07719
1653.49871	0.07811
1652.21294	0.07870
1650.92717	0.07909
1649.64140	0.07957
1648.35564	0.08019
1647.06987	0.08074
1645.78410	0.08105
1644.49833	0.08118
1643.21256	0.08127
1641.92679	0.08133
1640.64102	0.08129
1639.35525	0.08109
1638.06949	0.08076
1636.78372	0.08030
1635.49795	0.07963
1634.21218	0.07872
1632.92641	0.07769
1631.64064	0.07666
1630.35487	0.07562
1629.06910	0.07450
1627.78333	0.07325
1626.49757	0.07189
1625.21180	0.07048
1623.92603	0.06906
1622.64026	0.06763
1621.35449	0.06620
1620.06872	0.06480
1618.78295	0.06343
1617.49718	0.06204
1616.21142	0.06058
1614.92565	0.05913
1613.63988	0.05781
1612.35411	0.05666
1611.06834	0.05560
1609.78257	0.05458
1608.49680	0.05362
1607.21103	0.05274
1605.92526	0.05194
1604.63950	0.05123
1603.35373	0.05062
1602.06796	0.05012
1600.78219	0.04969
1599.49642	0.04931
1598.21065	0.04899
1596.92488	0.04873
1595.63911	0.04853
1594.35335	0.04840
1593.06758	0.04834
1591.78181	0.04837
1590.49604	0.04848
1589.21027	0.04864
1587.92450	0.04884
1586.63873	0.04909
1585.35296	0.04939
1584.06719	0.04973
1582.78143	0.05011
1581.49566	0.05052
1580.20989	0.05098
1578.92412	0.05152
1577.63835	0.05214
1576.35258	0.05273
1575.06681	0.05321
1573.78104	0.05368
1572.49528	0.05427
1571.20951	0.05496
1569.92374	0.05558
1568.63797	0.05609
1567.35220	0.05658
1566.06643	0.05717
1564.78066	0.05784
1563.49489	0.05855
1562.20912	0.05932
1560.92336	0.06011
1559.63759	0.06078
1558.35182	0.06122
1557.06605	0.06156
1555.78028	0.06202
1554.49451	0.06260
1553.20874	0.06320
1551.92297	0.06376
1550.63721	0.06432
1549.35144	0.06486
1548.06567	0.06532
1546.77990	0.06569
1545.49413	0.06596
1544.20836	0.06616
1542.92259	0.06634
1541.63682	0.06658
1540.35105	0.06683
1539.06529	0.06695
1537.77952	0.06697
1536.49375	0.06702
1535.20798	0.06719
1533.92221	0.06738
1532.63644	0.06751
1531.35067	0.06761
1530.06490	0.06777
1528.77914	0.06797
1527.49337	0.06818
1526.20760	0.06835
1524.92183	0.06851
1523.63606	0.06871
1522.35029	0.06893
1521.06452	0.06909
1519.77875	0.06916
1518.49298	0.06924
1517.20722	0.06939
1515.92145	0.06960
1514.63568	0.06983
1513.34991	0.07012
1512.06414	0.07045
1510.77837	0.07078
1509.49260	0.07110
1508.20683	0.07141
1506.92107	0.07162
1505.63530	0.07171
1504.34953	0.07179
1503.06376	0.07197
1501.77799	0.07223
1500.49222	0.07245
1499.20645	0.07257
1497.92068	0.07258
1496.63491	0.07249
1495.34915	0.07232
1494.06338	0.07216
1492.77761	0.07212
1491.49184	0.07221
1490.20607	0.07236
1488.92030	0.07255
1487.63453	0.07281
1486.34876	0.07318
1485.06299	0.07364
1483.77723	0.07421
1482.49146	0.07487
1481.20569	0.07562
1479.91992	0.07643
1478.63415	0.07728
1477.34838	0.07816
1476.06261	0.07907
1474.77684	0.08005
1473.49108	0.08104
1472.20531	0.08194
1470.91954	0.08269
1469.63377	0.08332
1468.34800	0.08391
1467.06223	0.08448
1465.77646	0.08501
1464.49069	0.08548
1463.20492	0.08594
1461.91916	0.08648
1460.63339	0.08716
1459.34762	0.08801
1458.06185	0.08894
1456.77608	0.08978
1455.49031	0.09045
1454.20454	0.09099
1452.91877	0.09144
1451.63301	0.09178
1450.34724	0.09200
1449.06147	0.09214
1447.77570	0.09223
1446.48993	0.09222
1445.20416	0.09208
1443.91839	0.09183
1442.63262	0.09148
1441.34685	0.09108
1440.06109	0.09071
1438.77532	0.09043
1437.48955	0.09026
1436.20378	0.09015
1434.91801	0.09015
1433.63224	0.09032
1432.34647	0.09067
1431.06070	0.09115
1429.77494	0.09170
1428.48917	0.09233
1427.20340	0.09306
1425.91763	0.09392
1424.63186	0.09485
1423.34609	0.09581
1422.06032	0.09681
1420.77455	0.09779
1419.48878	0.09865
1418.20302	0.09931
1416.91725	0.09981
1415.63148	0.10024
1414.34571	0.10061
1413.05994	0.10088
1411.77417	0.10103
1410.48840	0.10106
1409.20263	0.10095
1407.91687	0.10063
1406.63110	0.10006
1405.34533	0.09921
1404.05956	0.09813
1402.77379	0.09691
1401.48802	0.09564
1400.20225	0.09430
1398.91648	0.09287
1397.63071	0.09134
1396.34495	0.08976
1395.05918	0.08816
1393.77341	0.08655
1392.48764	0.08493
1391.20187	0.08334
1389.91610	0.08179
1388.63033	0.08022
1387.34456	0.07856
1386.05880	0.07681
1384.77303	0.07503
1383.48726	0.07328
1382.20149	0.07156
1380.91572	0.06982
1379.62995	0.06809
1378.34418	0.06637
1377.05841	0.06469
1375.77264	0.06306
1374.48688	0.06143
1373.20111	0.05977
1371.91534	0.05810
1370.62957	0.05647
1369.34380	0.05492
1368.05803	0.05345
1366.77226	0.05207
1365.48649	0.05079
1364.20073	0.04960
1362.91496	0.04848
1361.62919	0.04737
1360.34342	0.04632
1359.05765	0.04535
1357.77188	0.04451
1356.48611	0.04381
1355.20034	0.04321
1353.91457	0.04270
1352.62881	0.04224
1351.34304	0.04181
1350.05727	0.04136
1348.77150	0.04091
1347.48573	0.04049
1346.19996	0.04015
1344.91419	0.03990
1343.62842	0.03972
1342.34266	0.03958
1341.05689	0.03943
1339.77112	0.03923
1338.48535	0.03897
1337.19958	0.03868
1335.91381	0.03841
1334.62804	0.03813
1333.34227	0.03783
1332.05650	0.03750
1330.77074	0.03717
1329.48497	0.03688
1328.19920	0.03660
1326.91343	0.03633
1325.62766	0.03605
1324.34189	0.03577
1323.05612	0.03550
1321.77035	0.03522
1320.48459	0.03495
1319.19882	0.03467
1317.91305	0.03441
1316.62728	0.03417
1315.34151	0.03393
1314.05574	0.03368
1312.76997	0.03340
1311.48420	0.03309
1310.19843	0.03276
1308.91267	0.03244
1307.62690	0.03213
1306.34113	0.03186
1305.05536	0.03160
1303.76959	0.03135
1302.48382	0.03109
1301.19805	0.03084
1299.91228	0.03060
1298.62652	0.03038
1297.34075	0.03019
1296.05498	0.03001
1294.76921	0.02985
1293.48344	0.02971
1292.19767	0.02963
1290.91190	0.02959
1289.62613	0.02957
1288.34036	0.02956
1287.05460	0.02955
1285.76883	0.02953
1284.48306	0.02948
1283.19729	0.02939
1281.91152	0.02929
1280.62575	0.02921
1279.33998	0.02918
1278.05421	0.02917
1276.76845	0.02912
1275.48268	0.02902
1274.19691	0.02890
1272.91114	0.02880
1271.62537	0.02873
1270.33960	0.02869
1269.05383	0.02864
1267.76806	0.02857
1266.48229	0.02850
1265.19653	0.02848
1263.91076	0.02852
1262.62499	0.02860
1261.33922	0.02865
1260.05345	0.02867
1258.76768	0.02866
1257.48191	0.02864
1256.19614	0.02863
1254.91037	0.02863
1253.62461	0.02863
1252.33884	0.02864
1251.05307	0.02867
1249.76730	0.02873
1248.48153	0.02883
1247.19576	0.02894
1245.90999	0.02904
1244.62422	0.02909
1243.33846	0.02908
1242.05269	0.02902
1240.76692	0.02892
1239.48115	0.02882
1238.19538	0.02872
1236.90961	0.02862
1235.62384	0.02852
1234.33807	0.02840
1233.05230	0.02824
1231.76654	0.02804
1230.48077	0.02778
1229.19500	0.02750
1227.90923	0.02718
1226.62346	0.02682
1225.33769	0.02643
1224.05192	0.02604
1222.76615	0.02567
1221.48039	0.02532
1220.19462	0.02500
1218.90885	0.02469
1217.62308	0.02442
1216.33731	0.02421
1215.05154	0.02404
1213.76577	0.02388
1212.48000	0.02368
1211.19423	0.02348
1209.90847	0.02331
1208.62270	0.02320
1207.33693	0.02316
1206.05116	0.02318
1204.76539	0.02322
1203.47962	0.02326
1202.19385	0.02325
1200.90808	0.02318
1199.62232	0.02307
1198.33655	0.02287
1197.05078	0.02260
1195.76501	0.02231
1194.47924	0.02202
1193.19347	0.02174
1191.90770	0.02146
1190.62193	0.02123
1189.33616	0.02105
1188.05040	0.02090
1186.76463	0.02077
1185.47886	0.02065
1184.19309	0.02056
1182.90732	0.02049
1181.62155	0.02043
1180.33578	0.02038
1179.05001	0.02037
1177.76425	0.02041
1176.47848	0.02046
1175.19271	0.02051
1173.90694	0.02056
1172.62117	0.02062
1171.33540	0.02070
1170.04963	0.02078
1168.76386	0.02088
1167.47809	0.02101
1166.19233	0.02117
1164.90656	0.02133
1163.62079	0.02148
1162.33502	0.02161
1161.04925	0.02175
1159.76348	0.02190
1158.47771	0.02204
1157.19194	0.02214
1155.90618	0.02220
1154.62041	0.02229
1153.33464	0.02246
1152.04887	0.02271
1150.76310	0.02303
1149.47733	0.02338
1148.19156	0.02376
1146.90579	0.02418
1145.62002	0.02464
1144.33426	0.02515
1143.04849	0.02570
1141.76272	0.02634
1140.47695	0.02710
1139.19118	0.02800
1137.90541	0.02904
1136.61964	0.03020
1135.33387	0.03147
1134.04811	0.03286
1132.76234	0.03439
1131.47657	0.03608
1130.19080	0.03798
1128.90503	0.04013
1127.61926	0.04251
1126.33349	0.04511
1125.04772	0.04787
1123.76195	0.05080
1122.47619	0.05385
1121.19042	0.05702
1119.90465	0.06028
1118.61888	0.06361
1117.33311	0.06697
1116.04734	0.07031
1114.76157	0.07360
1113.47580	0.07682
1112.19004	0.07994
1110.90427	0.08295
1109.61850	0.08587
1108.33273	0.08875
1107.04696	0.09161
1105.76119	0.09443
1104.47542	0.09714
1103.18965	0.09972
1101.90388	0.10213
1100.61812	0.10442
1099.33235	0.10660
1098.04658	0.10870
1096.76081	0.11073
1095.47504	0.11269
1094.18927	0.11456
1092.90350	0.11631
1091.61773	0.11799
1090.33197	0.11966
1089.04620	0.12131
1087.76043	0.12292
1086.47466	0.12444
1085.18889	0.12592
1083.90312	0.12744
1082.61735	0.12910
1081.33158	0.13095
1080.04581	0.13302
1078.76005	0.13526
1077.47428	0.13764
1076.18851	0.14009
1074.90274	0.14258
1073.61697	0.14515
1072.33120	0.14784
1071.04543	0.15068
1069.75966	0.15363
1068.47390	0.15665
1067.18813	0.15974
1065.90236	0.16292
1064.61659	0.16615
1063.33082	0.16941
1062.04505	0.17265
1060.75928	0.17584
1059.47351	0.17904
1058.18774	0.18225
1056.90198	0.18548
1055.61621	0.18863
1054.33044	0.19167
1053.04467	0.19463
1051.75890	0.19759
1050.47313	0.20063
1049.18736	0.20379
1047.90159	0.20708
1046.61583	0.21046
1045.33006	0.21389
1044.04429	0.21731
1042.75852	0.22067
1041.47275	0.22398
1040.18698	0.22728
1038.90121	0.23063
1037.61544	0.23415
1036.32967	0.23790
1035.04391	0.24175
1033.75814	0.24529
1032.47237	0.24813
1031.18660	0.25019
1029.90083	0.25175
1028.61506	0.25303
1027.32929	0.25406
1026.04352	0.25475
1024.75775	0.25510
1023.47199	0.25512
1022.18622	0.25479
1020.90045	0.25406
1019.61468	0.25286
1018.32891	0.25116
1017.04314	0.24894
1015.75737	0.24620
1014.47160	0.24304
1013.18584	0.23953
1011.90007	0.23573
1010.61430	0.23161
1009.32853	0.22718
1008.04276	0.22247
1006.75699	0.21748
1005.47122	0.21222
1004.18545	0.20668
1002.89968	0.20090
1001.61392	0.19491
1000.32815	0.18878
999.04238	0.18257
997.75661	0.17637
996.47084	0.17023
995.18507	0.16420
993.89930	0.15830
992.61353	0.15253
991.32777	0.14686
990.04200	0.14132
988.75623	0.13594
987.47046	0.13077
986.18469	0.12585
984.89892	0.12121
983.61315	0.11686
982.32738	0.11277
981.04161	0.10889
979.75585	0.10517
978.47008	0.10163
977.18431	0.09834
975.89854	0.09536
974.61277	0.09277
973.32700	0.09063
972.04123	0.08899
970.75546	0.08786
969.46970	0.08726
968.18393	0.08713
966.89816	0.08739
965.61239	0.08789
964.32662	0.08850
963.04085	0.08902
961.75508	0.08928
960.46931	0.08906
959.18354	0.08825
957.89778	0.08693
956.61201	0.08524
955.32624	0.08332
954.04047	0.08126
952.75470	0.07913
951.46893	0.07702
950.18316	0.07504
948.89739	0.07319
947.61163	0.07139
946.32586	0.06961
945.04009	0.06783
943.75432	0.06608
942.46855	0.06434
941.18278	0.06264
939.89701	0.06103
938.61124	0.05956
937.32547	0.05824
936.03971	0.05703
934.75394	0.05594
933.46817	0.05498
932.18240	0.05413
930.89663	0.05330
929.61086	0.05246
928.32509	0.05161
927.03932	0.05082
925.75356	0.05011
924.46779	0.04943
923.18202	0.04873
921.89625	0.04801
920.61048	0.04732
919.32471	0.04672
918.03894	0.04621
916.75317	0.04573
915.46740	0.04525
914.18164	0.04476
912.89587	0.04424
911.61010	0.04365
910.32433	0.04303
909.03856	0.04251
907.75279	0.04222
906.46702	0.04208
905.18125	0.04189
903.89549	0.04154
902.60972	0.04107
901.32395	0.04058
900.03818	0.04018
898.75241	0.03988
897.46664	0.03968
896.18087	0.03952
894.89510	0.03935
893.60933	0.03918
892.32357	0.03911
891.03780	0.03915
889.75203	0.03930
888.46626	0.03958
887.18049	0.04013
885.89472	0.04115
884.60895	0.04276
883.32318	0.04496
882.03742	0.04748
880.75165	0.04990
879.46588	0.05180
878.18011	0.05311
876.89434	0.05409
875.60857	0.05506
874.32280	0.05612
873.03703	0.05706
871.75126	0.05756
870.46550	0.05745
869.17973	0.05675
867.89396	0.05558
866.60819	0.05406
865.32242	0.05231
864.03665	0.05049
862.75088	0.04872
861.46511	0.04712
860.17935	0.04571
858.89358	0.04446
857.60781	0.04328
856.32204	0.04214
855.03627	0.04109
853.75050	0.04023
852.46473	0.03962
851.17896	0.03922
849.89319	0.03893
848.60743	0.03866
847.32166	0.03835
846.03589	0.03795
844.75012	0.03748
843.46435	0.03701
842.17858	0.03661
840.89281	0.03635
839.60704	0.03622
838.32128	0.03615
837.03551	0.03606
835.74974	0.03589
834.46397	0.03568
833.17820	0.03551
831.89243	0.03540
830.60666	0.03530
829.32089	0.03517
828.03512	0.03500
826.74936	0.03483
825.46359	0.03468
824.17782	0.03457
822.89205	0.03454
821.60628	0.03457
820.32051	0.03460
819.03474	0.03455
817.74897	0.03439
816.46321	0.03419
815.17744	0.03406
813.89167	0.03406
812.60590	0.03414
811.32013	0.03424
810.03436	0.03430
808.74859	0.03431
807.46282	0.03428
806.17705	0.03422
804.89129	0.03413
803.60552	0.03405
802.31975	0.03401
801.03398	0.03399
799.74821	0.03398
798.46244	0.03397
797.17667	0.03397
795.89090	0.03399
794.60513	0.03405
793.31937	0.03412
792.03360	0.03417
790.74783	0.03423
789.46206	0.03431
788.17629	0.03442
786.89052	0.03450
785.60475	0.03449
784.31898	0.03442
783.03322	0.03433
781.74745	0.03426
780.46168	0.03424
779.17591	0.03427
777.89014	0.03434
776.60437	0.03440
775.31860	0.03442
774.03283	0.03439
772.74706	0.03435
771.46130	0.03434
770.17553	0.03439
768.88976	0.03450
767.60399	0.03465
766.31822	0.03480
765.03245	0.03496
763.74668	0.03510
762.46091	0.03518
761.17515	0.03515
759.88938	0.03506
758.60361	0.03495
757.31784	0.03488
756.03207	0.03489
754.74630	0.03499
753.46053	0.03521
752.17476	0.03552
750.88899	0.03582
749.60323	0.03602
748.31746	0.03606
747.03169	0.03603
745.74592	0.03602
744.46015	0.03601
743.17438	0.03591
741.88861	0.03571
740.60284	0.03551
739.31708	0.03537
738.03131	0.03529
736.74554	0.03526
735.45977	0.03531
734.17400	0.03552
732.88823	0.03584
731.60246	0.03614
730.31669	0.03631
729.03092	0.03635
727.74516	0.03635
726.45939	0.03641
725.17362	0.03652
723.88785	0.03667
722.60208	0.03688
721.31631	0.03710
720.03054	0.03727
718.74477	0.03734
717.45901	0.03734
716.17324	0.03731
714.88747	0.03725
713.60170	0.03716
712.31593	0.03706
711.03016	0.03702
709.74439	0.03707
708.45862	0.03721
707.17285	0.03738
705.88709	0.03751
704.60132	0.03758
703.31555	0.03761
702.02978	0.03764
700.74401	0.03766
699.45824	0.03768
698.17247	0.03771
696.88670	0.03774
695.60094	0.03779
694.31517	0.03783
693.02940	0.03784
691.74363	0.03782
690.45786	0.03781
689.17209	0.03782
687.88632	0.03785
686.60055	0.03787
685.31478	0.03784
684.02902	0.03770
682.74325	0.03749
681.45748	0.03730
680.17171	0.03722
678.88594	0.03727
677.60017	0.03739
676.31440	0.03749
675.02863	0.03753
673.74287	0.03751
672.45710	0.03747
671.17133	0.03746
669.88556	0.03751
668.59979	0.03760
667.31402	0.03773
666.02825	0.03777
664.74248	0.03773
663.45671	0.03763
662.17095	0.03751
660.88518	0.03736
659.59941	0.03717
658.31364	0.03696
657.02787	0.03676
655.74210	0.03662
654.45633	0.03655
653.17056	0.03653
651.88480	0.03656
650.59903	0.03665
649.31326	0.03679
648.02749	0.03693
646.74172	0.03700
645.45595	0.03700
644.17018	0.03697
642.88441	0.03698
641.59864	0.03705
640.31288	0.03716
639.02711	0.03731
637.74134	0.03750
636.45557	0.03772
635.16980	0.03800
633.88403	0.03836
632.59826	0.03879
631.31249	0.03923
630.02673	0.03956
628.74096	0.04003
627.45519	0.04090
626.16942	0.04135
624.88365	0.04170
623.59788	0.04273
622.31211	0.04491
621.02634	0.04797
619.74057	0.05118
618.45481	0.05427
617.16904	0.05750
615.88327	0.06094
614.59750	0.06415
613.31173	0.06667
612.02596	0.06871
610.74019	0.07121
609.45442	0.07507
608.16866	0.08014
606.88289	0.08528
605.59712	0.08937
604.31135	0.09213
603.02558	0.09391
601.73981	0.09509
600.45404	0.09561
599.16827	0.09520
597.88250	0.09376
596.59674	0.09153
595.31097	0.08899
594.02520	0.08659
592.73943	0.08461
591.45366	0.08313
590.16789	0.08218
588.88212	0.08177
587.59635	0.08197
586.31059	0.08281
585.02482	0.08428
583.73905	0.08627
582.45328	0.08861
581.16751	0.09110
579.88174	0.09360
578.59597	0.09602
577.31020	0.09834
576.02443	0.10059
574.73867	0.10280
573.45290	0.10505
572.16713	0.10742
570.88136	0.11006
569.59559	0.11310
568.30982	0.11658
567.02405	0.12035
565.73828	0.12410
564.45251	0.12736
563.16675	0.12966
561.88098	0.13052
560.59521	0.12958
559.30944	0.12676
558.02367	0.12238
556.73790	0.11703
555.45213	0.11134
554.16636	0.10573
552.88060	0.10041
551.59483	0.09547
550.30906	0.09099
549.02329	0.08701
547.73752	0.08351
546.45175	0.08039
545.16598	0.07751
543.88021	0.07477
542.59444	0.07210
541.30868	0.06953
540.02291	0.06711
538.73714	0.06491
537.45137	0.06299
536.16560	0.06141
534.87983	0.06013
533.59406	0.05901
532.30829	0.05788
531.02253	0.05667
529.73676	0.05541
528.45099	0.05420
527.16522	0.05313
525.87945	0.05219
524.59368	0.05133
523.30791	0.05048
522.02214	0.04957
520.73637	0.04862
519.45061	0.04766
518.16484	0.04672
516.87907	0.04586
515.59330	0.04512
514.30753	0.04447
513.02176	0.04385
511.73599	0.04323
510.45022	0.04266
509.16446	0.04219
507.87869	0.04175
506.59292	0.04118
505.30715	0.04046
504.02138	0.03968
502.73561	0.03902
501.44984	0.03855
500.16407	0.03822
498.87830	0.03797
497.59254	0.03772
496.30677	0.03746
495.02100	0.03715
493.73523	0.03674
492.44946	0.03629
491.16369	0.03589
489.87792	0.03565
488.59215	0.03557
487.30639	0.03556
486.02062	0.03548
484.73485	0.03525
483.44908	0.03497
482.16331	0.03477
480.87754	0.03475
479.59177	0.03489
478.30600	0.03512
477.02023	0.03538
475.73447	0.03566
474.44870	0.03594
473.16293	0.03621
471.87716	0.03640
470.59139	0.03645
469.30562	0.03632
468.01985	0.03601
466.73408	0.03564
465.44832	0.03532
464.16255	0.03505
462.87678	0.03475
461.59101	0.03435
460.30524	0.03390
459.01947	0.03350
457.73370	0.03317
456.44793	0.03284
455.16216	0.03244
453.87640	0.03199
452.59063	0.03155
451.30486	0.03120
450.01909	0.03095
448.73332	0.03075
447.44755	0.03056
446.16178	0.03036
444.87601	0.03015
443.59025	0.02998
442.30448	0.02988
441.01871	0.02989
439.73294	0.02996
438.44717	0.02999
437.16140	0.02993
435.87563	0.02977
434.58986	0.02959
433.30409	0.02941
432.01833	0.02924
430.73256	0.02907
429.44679	0.02889
428.16102	0.02875
426.87525	0.02869
425.58948	0.02870
424.30371	0.02870
423.01794	0.02862
421.73218	0.02846
420.44641	0.02824
419.16064	0.02804
417.87487	0.02788
416.58910	0.02777
415.30333	0.02771
414.01756	0.02768
412.73179	0.02766
411.44602	0.02762
410.16026	0.02754
408.87449	0.02744
407.58872	0.02736
406.30295	0.02735
405.01718	0.02743
403.73141	0.02754
402.44564	0.02765
401.15987	0.02774
399.87411	0.02782
