3997.45528	0.03086
3996.16951	0.03044
3994.88374	0.03014
3993.59798	0.03012
3992.31221	0.03043
3991.02644	0.03084
3989.74067	0.03092
3988.45490	0.03049
3987.16913	0.02973
3985.88336	0.02913
3984.59759	0.02913
3983.31183	0.02990
3982.02606	0.03119
3980.74029	0.03252
3979.45452	0.03345
3978.16875	0.03394
3976.88298	0.03416
3975.59721	0.03429
3974.31144	0.03435
3973.02567	0.03438
3971.73991	0.03448
3970.45414	0.03462
3969.16837	0.03459
3967.88260	0.03421
3966.59683	0.03349
3965.31106	0.03257
3964.02529	0.03167
3962.73952	0.03109
3961.45376	0.03108
3960.16799	0.03160
3958.88222	0.03229
3957.59645	0.03282
3956.31068	0.03319
3955.02491	0.03355
3953.73914	0.03401
3952.45337	0.03450
3951.16760	0.03483
3949.88184	0.03488
3948.59607	0.03456
3947.31030	0.03389
3946.02453	0.03297
3944.73876	0.03216
3943.45299	0.03182
3942.16722	0.03202
3940.88145	0.03240
3939.59569	0.03250
3938.30992	0.03228
3937.02415	0.03206
3935.73838	0.03215
3934.45261	0.03250
3933.16684	0.03287
3931.88107	0.03307
3930.59530	0.03306
3929.30953	0.03292
3928.02377	0.03279
3926.73800	0.03284
3925.45223	0.03315
3924.16646	0.03368
3922.88069	0.03428
3921.59492	0.03483
3920.30915	0.03519
3919.02338	0.03526
3917.73762	0.03502
3916.45185	0.03453
3915.16608	0.03394
3913.88031	0.03345
3912.59454	0.03317
3911.30877	0.03310
3910.02300	0.03308
3908.73723	0.03294
3907.45146	0.03269
3906.16570	0.03248
3904.87993	0.03249
3903.59416	0.03275
3902.30839	0.03303
3901.02262	0.03307
3899.73685	0.03274
3898.45108	0.03216
3897.16531	0.03153
3895.87955	0.03111
3894.59378	0.03111
3893.30801	0.03166
3892.02224	0.03266
3890.73647	0.03384
3889.45070	0.03487
3888.16493	0.03554
3886.87916	0.03579
3885.59339	0.03568
3884.30763	0.03544
3883.02186	0.03528
3881.73609	0.03521
3880.45032	0.03503
3879.16455	0.03459
3877.87878	0.03397
3876.59301	0.03342
3875.30724	0.03313
3874.02148	0.03310
3872.73571	0.03321
3871.44994	0.03330
3870.16417	0.03330
3868.87840	0.03333
3867.59263	0.03356
3866.30686	0.03398
3865.02109	0.03434
3863.73532	0.03439
3862.44956	0.03421
3861.16379	0.03412
3859.87802	0.03424
3858.59225	0.03442
3857.30648	0.03454
3856.02071	0.03467
3854.73494	0.03493
3853.44917	0.03523
3852.16341	0.03536
3850.87764	0.03534
3849.59187	0.03537
3848.30610	0.03556
3847.02033	0.03571
3845.73456	0.03562
3844.44879	0.03530
3843.16302	0.03488
3841.87725	0.03429
3840.59149	0.03348
3839.30572	0.03271
3838.01995	0.03250
3836.73418	0.03308
3835.44841	0.03409
3834.16264	0.03487
3832.87687	0.03503
3831.59110	0.03463
3830.30534	0.03401
3829.01957	0.03353
3827.73380	0.03330
3826.44803	0.03317
3825.16226	0.03289
3823.87649	0.03248
3822.59072	0.03219
3821.30495	0.03225
3820.01918	0.03263
3818.73342	0.03315
3817.44765	0.03370
3816.16188	0.03421
3814.87611	0.03453
3813.59034	0.03436
3812.30457	0.03354
3811.01880	0.03235
3809.73303	0.03136
3808.44726	0.03106
3807.16150	0.03150
3805.87573	0.03233
3804.58996	0.03304
3803.30419	0.03339
3802.01842	0.03346
3800.73265	0.03356
3799.44688	0.03390
3798.16111	0.03442
3796.87535	0.03485
3795.58958	0.03501
3794.30381	0.03489
3793.01804	0.03467
3791.73227	0.03452
3790.44650	0.03441
3789.16073	0.03425
3787.87496	0.03408
3786.58919	0.03400
3785.30343	0.03408
3784.01766	0.03425
3782.73189	0.03447
3781.44612	0.03476
3780.16035	0.03505
3778.87458	0.03507
3777.58881	0.03462
3776.30304	0.03386
3775.01728	0.03321
3773.73151	0.03294
3772.44574	0.03295
3771.15997	0.03295
3769.87420	0.03282
3768.58843	0.03268
3767.30266	0.03263
3766.01689	0.03261
3764.73112	0.03243
3763.44536	0.03204
3762.15959	0.03165
3760.87382	0.03156
3759.58805	0.03191
3758.30228	0.03253
3757.01651	0.03312
3755.73074	0.03350
3754.44497	0.03372
3753.15921	0.03400
3751.87344	0.03445
3750.58767	0.03488
3749.30190	0.03492
3748.01613	0.03437
3746.73036	0.03356
3745.44459	0.03300
3744.15882	0.03293
3742.87305	0.03314
3741.58729	0.03330
3740.30152	0.03316
3739.01575	0.03268
3737.72998	0.03193
3736.44421	0.03118
3735.15844	0.03077
3733.87267	0.03081
3732.58690	0.03107
3731.30114	0.03107
3730.01537	0.03054
3728.72960	0.02975
3727.44383	0.02915
3726.15806	0.02902
3724.87229	0.02930
3723.58652	0.02966
3722.30075	0.02983
3721.01498	0.02973
3719.72922	0.02951
3718.44345	0.02947
3717.15768	0.02974
3715.87191	0.03010
3714.58614	0.03031
3713.30037	0.03035
3712.01460	0.03048
3710.72883	0.03076
3709.44307	0.03099
3708.15730	0.03101
3706.87153	0.03059
3705.58576	0.02977
3704.29999	0.02889
3703.01422	0.02841
3701.72845	0.02851
3700.44268	0.02901
3699.15691	0.02970
3697.87115	0.03050
3696.58538	0.03132
3695.29961	0.03193
3694.01384	0.03207
3692.72807	0.03181
3691.44230	0.03149
3690.15653	0.03142
3688.87076	0.03174
3687.58500	0.03230
3686.29923	0.03285
3685.01346	0.03334
3683.72769	0.03384
3682.44192	0.03442
3681.15615	0.03485
3679.87038	0.03462
3678.58461	0.03357
3677.29884	0.03233
3676.01308	0.03176
3674.72731	0.03216
3673.44154	0.03296
3672.15577	0.03343
3670.87000	0.03333
3669.58423	0.03297
3668.29846	0.03272
3667.01269	0.03275
3665.72693	0.03302
3664.44116	0.03343
3663.15539	0.03384
3661.86962	0.03413
3660.58385	0.03431
3659.29808	0.03460
3658.01231	0.03512
3656.72654	0.03577
3655.44077	0.03625
3654.15501	0.03649
3652.86924	0.03669
3651.58347	0.03714
3650.29770	0.03789
3649.01193	0.03875
3647.72616	0.03948
3646.44039	0.03979
3645.15462	0.03944
3643.86886	0.03847
3642.58309	0.03722
3641.29732	0.03628
3640.01155	0.03607
3638.72578	0.03662
3637.44001	0.03757
3636.15424	0.03842
3634.86847	0.03873
3633.58270	0.03841
3632.29694	0.03785
3631.01117	0.03772
3629.72540	0.03850
3628.43963	0.03990
3627.15386	0.04114
3625.86809	0.04164
3624.58232	0.04152
3623.29655	0.04124
3622.01079	0.04120
3620.72502	0.04142
3619.43925	0.04167
3618.15348	0.04158
3616.86771	0.04109
3615.58194	0.04063
3614.29617	0.04079
3613.01040	0.04168
3611.72463	0.04275
3610.43887	0.04337
3609.15310	0.04341
3607.86733	0.04320
3606.58156	0.04323
3605.29579	0.04373
3604.01002	0.04460
3602.72425	0.04558
3601.43848	0.04649
3600.15272	0.04718
3598.86695	0.04750
3597.58118	0.04741
3596.29541	0.04716
3595.00964	0.04700
3593.72387	0.04708
3592.43810	0.04740
3591.15233	0.04765
3589.86656	0.04764
3588.58080	0.04752
3587.29503	0.04747
3586.00926	0.04753
3584.72349	0.04756
3583.43772	0.04761
3582.15195	0.04793
3580.86618	0.04863
3579.58041	0.04946
3578.29464	0.05017
3577.00888	0.05079
3575.72311	0.05139
3574.43734	0.05186
3573.15157	0.05203
3571.86580	0.05203
3570.58003	0.05215
3569.29426	0.05247
3568.00849	0.05277
3566.72273	0.05294
3565.43696	0.05316
3564.15119	0.05365
3562.86542	0.05435
3561.57965	0.05495
3560.29388	0.05525
3559.00811	0.05534
3557.72234	0.05541
3556.43657	0.05548
3555.15081	0.05548
3553.86504	0.05534
3552.57927	0.05517
3551.29350	0.05516
3550.00773	0.05543
3548.72196	0.05589
3547.43619	0.05630
3546.15042	0.05644
3544.86466	0.05624
3543.57889	0.05581
3542.29312	0.05543
3541.00735	0.05547
3539.72158	0.05615
3538.43581	0.05735
3537.15004	0.05865
3535.86427	0.05964
3534.57850	0.06016
3533.29274	0.06029
3532.00697	0.06018
3530.72120	0.05999
3529.43543	0.05988
3528.14966	0.06001
3526.86389	0.06045
3525.57812	0.06108
3524.29235	0.06168
3523.00659	0.06203
3521.72082	0.06200
3520.43505	0.06150
3519.14928	0.06065
3517.86351	0.05983
3516.57774	0.05950
3515.29197	0.05995
3514.00620	0.06103
3512.72043	0.06233
3511.43467	0.06341
3510.14890	0.06405
3508.86313	0.06419
3507.57736	0.06403
3506.29159	0.06399
3505.00582	0.06437
3503.72005	0.06499
3502.43428	0.06534
3501.14852	0.06516
3499.86275	0.06475
3498.57698	0.06456
3497.29121	0.06478
3496.00544	0.06534
3494.71967	0.06614
3493.43390	0.06704
3492.14813	0.06780
3490.86236	0.06819
3489.57660	0.06817
3488.29083	0.06794
3487.00506	0.06781
3485.71929	0.06800
3484.43352	0.06849
3483.14775	0.06909
3481.86198	0.06953
3480.57621	0.06963
3479.29045	0.06934
3478.00468	0.06886
3476.71891	0.06852
3475.43314	0.06859
3474.14737	0.06907
3472.86160	0.06966
3471.57583	0.07006
3470.29006	0.07017
3469.00429	0.07009
3467.71853	0.06991
3466.43276	0.06960
3465.14699	0.06924
3463.86122	0.06905
3462.57545	0.06925
3461.28968	0.06976
3460.00391	0.07030
3458.71814	0.07075
3457.43238	0.07122
3456.14661	0.07186
3454.86084	0.07260
3453.57507	0.07316
3452.28930	0.07335
3451.00353	0.07327
3449.71776	0.07311
3448.43199	0.07297
3447.14622	0.07280
3445.86046	0.07259
3444.57469	0.07255
3443.28892	0.07287
3442.00315	0.07345
3440.71738	0.07386
3439.43161	0.07381
3438.14584	0.07332
3436.86007	0.07271
3435.57431	0.07236
3434.28854	0.07254
3433.00277	0.07326
3431.71700	0.07419
3430.43123	0.07492
3429.14546	0.07531
3427.85969	0.07561
3426.57392	0.07609
3425.28815	0.07676
3424.00239	0.07734
3422.71662	0.07755
3421.43085	0.07739
3420.14508	0.07709
3418.85931	0.07692
3417.57354	0.07695
3416.28777	0.07710
3415.00200	0.07732
3413.71624	0.07768
3412.43047	0.07830
3411.14470	0.07912
3409.85893	0.07986
3408.57316	0.08023
3407.28739	0.08023
3406.00162	0.08010
3404.71585	0.08001
3403.43008	0.07983
3402.14432	0.07935
3400.85855	0.07864
3399.57278	0.07797
3398.28701	0.07760
3397.00124	0.07754
3395.71547	0.07772
3394.42970	0.07807
3393.14393	0.07857
3391.85817	0.07914
3390.57240	0.07965
3389.28663	0.08001
3388.00086	0.08022
3386.71509	0.08026
3385.42932	0.08006
3384.14355	0.07967
3382.85778	0.07927
3381.57201	0.07908
3380.28625	0.07922
3379.00048	0.07955
3377.71471	0.07985
3376.42894	0.07990
3375.14317	0.07966
3373.85740	0.07935
3372.57163	0.07922
3371.28586	0.07938
3370.00010	0.07976
3368.71433	0.08023
3367.42856	0.08068
3366.14279	0.08095
3364.85702	0.08089
3363.57125	0.08051
3362.28548	0.08012
3360.99971	0.08001
3359.71394	0.08018
3358.42818	0.08033
3357.14241	0.08026
3355.85664	0.08014
3354.57087	0.08023
3353.28510	0.08061
3351.99933	0.08104
3350.71356	0.08128
3349.42779	0.08124
3348.14202	0.08099
3346.85626	0.08056
3345.57049	0.08009
3344.28472	0.07985
3342.99895	0.08009
3341.71318	0.08076
3340.42741	0.08151
3339.14164	0.08189
3337.85587	0.08175
3336.57011	0.08131
3335.28434	0.08097
3333.99857	0.08094
3332.71280	0.08113
3331.42703	0.08125
3330.14126	0.08113
3328.85549	0.08089
3327.56972	0.08080
3326.28395	0.08109
3324.99819	0.08178
3323.71242	0.08253
3322.42665	0.08298
3321.14088	0.08302
3319.85511	0.08288
3318.56934	0.08281
3317.28357	0.08278
3315.99780	0.08257
3314.71204	0.08217
3313.42627	0.08179
3312.14050	0.08163
3310.85473	0.08168
3309.56896	0.08175
3308.28319	0.08170
3306.99742	0.08153
3305.71165	0.08128
3304.42588	0.08096
3303.14012	0.08059
3301.85435	0.08026
3300.56858	0.08013
3299.28281	0.08022
3297.99704	0.08038
3296.71127	0.08040
3295.42550	0.08030
3294.13973	0.08029
3292.85397	0.08057
3291.56820	0.08107
3290.28243	0.08151
3288.99666	0.08160
3287.71089	0.08125
3286.42512	0.08062
3285.13935	0.08006
3283.85358	0.07985
3282.56781	0.07999
3281.28205	0.08024
3279.99628	0.08038
3278.71051	0.08039
3277.42474	0.08036
3276.13897	0.08030
3274.85320	0.08020
3273.56743	0.08011
3272.28166	0.08016
3270.99590	0.08036
3269.71013	0.08057
3268.42436	0.08060
3267.13859	0.08045
3265.85282	0.08030
3264.56705	0.08026
3263.28128	0.08021
3261.99551	0.08006
3260.70974	0.07991
3259.42398	0.07999
3258.13821	0.08033
3256.85244	0.08067
3255.56667	0.08064
3254.28090	0.08010
3252.99513	0.07924
3251.70936	0.07845
3250.42359	0.07803
3249.13783	0.07800
3247.85206	0.07817
3246.56629	0.07838
3245.28052	0.07857
3243.99475	0.07881
3242.70898	0.07908
3241.42321	0.07925
3240.13744	0.07910
3238.85167	0.07864
3237.56591	0.07813
3236.28014	0.07783
3234.99437	0.07784
3233.70860	0.07802
3232.42283	0.07817
3231.13706	0.07819
3229.85129	0.07803
3228.56552	0.07774
3227.27976	0.07734
3225.99399	0.07689
3224.70822	0.07641
3223.42245	0.07593
3222.13668	0.07545
3220.85091	0.07502
3219.56514	0.07470
3218.27937	0.07452
3216.99360	0.07448
3215.70784	0.07463
3214.42207	0.07496
3213.13630	0.07537
3211.85053	0.07570
3210.56476	0.07587
3209.27899	0.07587
3207.99322	0.07570
3206.70745	0.07539
3205.42169	0.07506
3204.13592	0.07489
3202.85015	0.07486
3201.56438	0.07482
3200.27861	0.07468
3198.99284	0.07446
3197.70707	0.07424
3196.42130	0.07409
3195.13553	0.07404
3193.84977	0.07414
3192.56400	0.07437
3191.27823	0.07458
3189.99246	0.07457
3188.70669	0.07423
3187.42092	0.07367
3186.13515	0.07303
3184.84938	0.07246
3183.56362	0.07201
3182.27785	0.07187
3180.99208	0.07221
3179.70631	0.07295
3178.42054	0.07374
3177.13477	0.07416
3175.84900	0.07406
3174.56323	0.07363
3173.27746	0.07313
3171.99170	0.07266
3170.70593	0.07223
3169.42016	0.07181
3168.13439	0.07153
3166.84862	0.07154
3165.56285	0.07189
3164.27708	0.07235
3162.99131	0.07255
3161.70555	0.07224
3160.41978	0.07153
3159.13401	0.07077
3157.84824	0.07028
3156.56247	0.07014
3155.27670	0.07015
3153.99093	0.07008
3152.70516	0.06979
3151.41939	0.06936
3150.13363	0.06893
3148.84786	0.06868
3147.56209	0.06869
3146.27632	0.06889
3144.99055	0.06915
3143.70478	0.06933
3142.41901	0.06937
3141.13324	0.06918
3139.84748	0.06876
3138.56171	0.06819
3137.27594	0.06768
3135.99017	0.06741
3134.70440	0.06741
3133.41863	0.06761
3132.13286	0.06780
3130.84709	0.06783
3129.56132	0.06774
3128.27556	0.06771
3126.98979	0.06788
3125.70402	0.06814
3124.41825	0.06841
3123.13248	0.06866
3121.84671	0.06888
3120.56094	0.06889
3119.27517	0.06854
3117.98940	0.06787
3116.70364	0.06723
3115.41787	0.06690
3114.13210	0.06691
3112.84633	0.06702
3111.56056	0.06702
3110.27479	0.06693
3108.98902	0.06689
3107.70325	0.06697
3106.41749	0.06707
3105.13172	0.06704
3103.84595	0.06690
3102.56018	0.06669
3101.27441	0.06647
3099.98864	0.06623
3098.70287	0.06594
3097.41710	0.06562
3096.13133	0.06532
3094.84557	0.06511
3093.55980	0.06506
3092.27403	0.06515
3090.98826	0.06531
3089.70249	0.06552
3088.41672	0.06578
3087.13095	0.06604
3085.84518	0.06621
3084.55942	0.06627
3083.27365	0.06623
3081.98788	0.06614
3080.70211	0.06599
3079.41634	0.06583
3078.13057	0.06570
3076.84480	0.06561
3075.55903	0.06548
3074.27326	0.06514
3072.98750	0.06450
3071.70173	0.06371
3070.41596	0.06305
3069.13019	0.06284
3067.84442	0.06319
3066.55865	0.06390
3065.27288	0.06456
3063.98711	0.06481
3062.70135	0.06459
3061.41558	0.06410
3060.12981	0.06364
3058.84404	0.06339
3057.55827	0.06331
3056.27250	0.06327
3054.98673	0.06312
3053.70096	0.06288
3052.41519	0.06264
3051.12943	0.06250
3049.84366	0.06244
3048.55789	0.06234
3047.27212	0.06211
3045.98635	0.06179
3044.70058	0.06148
3043.41481	0.06124
3042.12904	0.06109
3040.84328	0.06108
3039.55751	0.06121
3038.27174	0.06137
3036.98597	0.06144
3035.70020	0.06142
3034.41443	0.06139
3033.12866	0.06139
3031.84289	0.06135
3030.55712	0.06125
3029.27136	0.06113
3027.98559	0.06100
3026.69982	0.06078
3025.41405	0.06040
3024.12828	0.05996
3022.84251	0.05967
3021.55674	0.05970
3020.27097	0.06000
3018.98521	0.06038
3017.69944	0.06062
3016.41367	0.06060
3015.12790	0.06034
3013.84213	0.05998
3012.55636	0.05965
3011.27059	0.05946
3009.98482	0.05942
3008.69905	0.05949
3007.41329	0.05962
3006.12752	0.05970
3004.84175	0.05958
3003.55598	0.05919
3002.27021	0.05865
3000.98444	0.05818
2999.69867	0.05793
2998.41290	0.05788
2997.12714	0.05788
2995.84137	0.05784
2994.55560	0.05778
2993.26983	0.05776
2991.98406	0.05789
2990.69829	0.05816
2989.41252	0.05849
2988.12675	0.05874
2986.84098	0.05894
2985.55522	0.05918
2984.26945	0.05954
2982.98368	0.05995
2981.69791	0.06034
2980.41214	0.06080
2979.12637	0.06147
2977.84060	0.06238
2976.55483	0.06341
2975.26907	0.06441
2973.98330	0.06525
2972.69753	0.06598
2971.41176	0.06674
2970.12599	0.06761
2968.84022	0.06852
2967.55445	0.06943
2966.26868	0.07038
2964.98291	0.07146
2963.69715	0.07266
2962.41138	0.07393
2961.12561	0.07527
2959.83984	0.07663
2958.55407	0.07786
2957.26830	0.07879
2955.98253	0.07944
2954.69676	0.07990
2953.41100	0.08023
2952.12523	0.08045
2950.83946	0.08066
2949.55369	0.08102
2948.26792	0.08152
2946.98215	0.08189
2945.69638	0.08184
2944.41061	0.08141
2943.12484	0.08092
2941.83908	0.08073
2940.55331	0.08100
2939.26754	0.08171
2937.98177	0.08272
2936.69600	0.08388
2935.41023	0.08504
2934.12446	0.08613
2932.83869	0.08721
2931.55293	0.08833
2930.26716	0.08950
2928.98139	0.09063
2927.69562	0.09170
2926.40985	0.09263
2925.12408	0.09333
2923.83831	0.09369
2922.55254	0.09376
2921.26677	0.09369
2919.98101	0.09353
2918.69524	0.09312
2917.40947	0.09230
2916.12370	0.09108
2914.83793	0.08964
2913.55216	0.08818
2912.26639	0.08684
2910.98062	0.08576
2909.69486	0.08501
2908.40909	0.08458
2907.12332	0.08432
2905.83755	0.08397
2904.55178	0.08334
2903.26601	0.08244
2901.98024	0.08144
2900.69447	0.08046
2899.40870	0.07953
2898.12294	0.07870
2896.83717	0.07810
2895.55140	0.07776
2894.26563	0.07745
2892.97986	0.07691
2891.69409	0.07607
2890.40832	0.07511
2889.12255	0.07429
2887.83678	0.07373
2886.55102	0.07338
2885.26525	0.07316
2883.97948	0.07291
2882.69371	0.07251
2881.40794	0.07199
2880.12217	0.07157
2878.83640	0.07152
2877.55063	0.07184
2876.26487	0.07230
2874.97910	0.07269
2873.69333	0.07301
2872.40756	0.07337
2871.12179	0.07376
2869.83602	0.07410
2868.55025	0.07428
2867.26448	0.07435
2865.97871	0.07442
2864.69295	0.07460
2863.40718	0.07486
2862.12141	0.07515
2860.83564	0.07537
2859.54987	0.07552
2858.26410	0.07563
2856.97833	0.07571
2855.69256	0.07578
2854.40680	0.07576
2853.12103	0.07556
2851.83526	0.07513
2850.54949	0.07448
2849.26372	0.07366
2847.97795	0.07276
2846.69218	0.07182
2845.40641	0.07086
2844.12064	0.06985
2842.83488	0.06878
2841.54911	0.06773
2840.26334	0.06676
2838.97757	0.06588
2837.69180	0.06505
2836.40603	0.06418
2835.12026	0.06323
2833.83449	0.06224
2832.54873	0.06127
2831.26296	0.06041
2829.97719	0.05968
2828.69142	0.05910
2827.40565	0.05865
2826.11988	0.05831
2824.83411	0.05797
2823.54834	0.05760
2822.26257	0.05721
2820.97681	0.05683
2819.69104	0.05645
2818.40527	0.05600
2817.11950	0.05557
2815.83373	0.05530
2814.54796	0.05525
2813.26219	0.05528
2811.97642	0.05521
2810.69066	0.05498
2809.40489	0.05466
2808.11912	0.05430
2806.83335	0.05398
2805.54758	0.05372
2804.26181	0.05351
2802.97604	0.05327
2801.69027	0.05298
2800.40450	0.05268
2799.11874	0.05245
2797.83297	0.05234
2796.54720	0.05232
2795.26143	0.05229
2793.97566	0.05219
2792.68989	0.05202
2791.40412	0.05188
2790.11835	0.05184
2788.83259	0.05188
2787.54682	0.05185
2786.26105	0.05165
2784.97528	0.05131
2783.68951	0.05101
2782.40374	0.05085
2781.11797	0.05086
2779.83220	0.05092
2778.54643	0.05088
2777.26067	0.05065
2775.97490	0.05027
2774.68913	0.04993
2773.40336	0.04975
2772.11759	0.04969
2770.83182	0.04959
2769.54605	0.04936
2768.26028	0.04906
2766.97452	0.04887
2765.68875	0.04896
2764.40298	0.04928
2763.11721	0.04959
2761.83144	0.04963
2760.54567	0.04936
2759.25990	0.04898
2757.97413	0.04872
2756.68836	0.04861
2755.40260	0.04855
2754.11683	0.04847
2752.83106	0.04838
2751.54529	0.04829
2750.25952	0.04819
2748.97375	0.04811
2747.68798	0.04809
2746.40221	0.04816
2745.11645	0.04827
2743.83068	0.04839
2742.54491	0.04847
2741.25914	0.04845
2739.97337	0.04827
2738.68760	0.04801
2737.40183	0.04779
2736.11606	0.04767
2734.83029	0.04763
2733.54453	0.04764
2732.25876	0.04766
2730.97299	0.04756
2729.68722	0.04733
2728.40145	0.04709
2727.11568	0.04700
2725.82991	0.04701
2724.54414	0.04698
2723.25838	0.04689
2721.97261	0.04684
2720.68684	0.04690
2719.40107	0.04698
2718.11530	0.04701
2716.82953	0.04699
2715.54376	0.04701
2714.25799	0.04705
2712.97222	0.04704
2711.68646	0.04691
2710.40069	0.04666
2709.11492	0.04631
2707.82915	0.04597
2706.54338	0.04578
2705.25761	0.04580
2703.97184	0.04591
2702.68607	0.04588
2701.40031	0.04563
2700.11454	0.04536
2698.82877	0.04525
2697.54300	0.04531
2696.25723	0.04540
2694.97146	0.04543
2693.68569	0.04540
2692.39992	0.04536
2691.11415	0.04532
2689.82839	0.04522
2688.54262	0.04504
2687.25685	0.04484
2685.97108	0.04470
2684.68531	0.04459
2683.39954	0.04445
2682.11377	0.04429
2680.82800	0.04418
2679.54224	0.04417
2678.25647	0.04420
2676.97070	0.04423
2675.68493	0.04426
2674.39916	0.04429
2673.11339	0.04425
2671.82762	0.04411
2670.54185	0.04400
2669.25608	0.04403
2667.97032	0.04418
2666.68455	0.04427
2665.39878	0.04417
2664.11301	0.04395
2662.82724	0.04380
2661.54147	0.04384
2660.25570	0.04399
2658.96993	0.04410
2657.68417	0.04410
2656.39840	0.04397
2655.11263	0.04375
2653.82686	0.04352
2652.54109	0.04337
2651.25532	0.04335
2649.96955	0.04342
2648.68378	0.04345
2647.39801	0.04335
2646.11225	0.04312
2644.82648	0.04283
2643.54071	0.04252
2642.25494	0.04218
2640.96917	0.04189
2639.68340	0.04172
2638.39763	0.04162
2637.11186	0.04144
2635.82609	0.04111
2634.54033	0.04078
2633.25456	0.04067
2631.96879	0.04082
2630.68302	0.04107
2629.39725	0.04117
2628.11148	0.04097
2626.82571	0.04050
2625.53994	0.03994
2624.25418	0.03947
2622.96841	0.03917
2621.68264	0.03898
2620.39687	0.03889
2619.11110	0.03886
2617.82533	0.03884
2616.53956	0.03878
2615.25379	0.03877
2613.96802	0.03888
2612.68226	0.03903
2611.39649	0.03905
2610.11072	0.03891
2608.82495	0.03871
2607.53918	0.03850
2606.25341	0.03823
2604.96764	0.03782
2603.68187	0.03742
2602.39611	0.03718
2601.11034	0.03711
2599.82457	0.03711
2598.53880	0.03712
2597.25303	0.03719
2595.96726	0.03732
2594.68149	0.03737
2593.39572	0.03725
2592.10995	0.03698
2590.82419	0.03668
2589.53842	0.03647
2588.25265	0.03635
2586.96688	0.03625
2585.68111	0.03612
2584.39534	0.03607
2583.10957	0.03624
2581.82380	0.03655
2580.53804	0.03669
2579.25227	0.03638
2577.96650	0.03575
2576.68073	0.03522
2575.39496	0.03515
2574.10919	0.03551
2572.82342	0.03587
2571.53765	0.03580
2570.25188	0.03530
2568.96612	0.03471
2567.68035	0.03440
2566.39458	0.03443
2565.10881	0.03462
2563.82304	0.03485
2562.53727	0.03513
2561.25150	0.03550
2559.96573	0.03581
2558.67997	0.03582
2557.39420	0.03548
2556.10843	0.03497
2554.82266	0.03456
2553.53689	0.03436
2552.25112	0.03428
2550.96535	0.03420
2549.67958	0.03405
2548.39381	0.03385
2547.10805	0.03361
2545.82228	0.03334
2544.53651	0.03309
2543.25074	0.03296
2541.96497	0.03305
2540.67920	0.03330
2539.39343	0.03353
2538.10766	0.03362
2536.82190	0.03356
2535.53613	0.03342
2534.25036	0.03334
2532.96459	0.03338
2531.67882	0.03347
2530.39305	0.03348
2529.10728	0.03333
2527.82151	0.03311
2526.53574	0.03295
2525.24998	0.03297
2523.96421	0.03324
2522.67844	0.03362
2521.39267	0.03381
2520.10690	0.03356
2518.82113	0.03298
2517.53536	0.03244
2516.24959	0.03223
2514.96383	0.03232
2513.67806	0.03240
2512.39229	0.03229
2511.10652	0.03211
2509.82075	0.03206
2508.53498	0.03220
2507.24921	0.03235
2505.96344	0.03242
2504.67767	0.03247
2503.39191	0.03261
2502.10614	0.03272
2500.82037	0.03260
2499.53460	0.03227
2498.24883	0.03198
2496.96306	0.03188
2495.67729	0.03190
2494.39152	0.03198
2493.10576	0.03216
2491.81999	0.03241
2490.53422	0.03257
2489.24845	0.03250
2487.96268	0.03234
2486.67691	0.03220
2485.39114	0.03206
2484.10537	0.03187
2482.81960	0.03163
2481.53384	0.03137
2480.24807	0.03113
2478.96230	0.03101
2477.67653	0.03109
2476.39076	0.03126
2475.10499	0.03127
2473.81922	0.03104
2472.53345	0.03082
2471.24769	0.03089
2469.96192	0.03121
2468.67615	0.03153
2467.39038	0.03167
2466.10461	0.03170
2464.81884	0.03174
2463.53307	0.03178
2462.24730	0.03169
2460.96153	0.03139
2459.67577	0.03098
2458.39000	0.03071
2457.10423	0.03076
2455.81846	0.03107
2454.53269	0.03138
2453.24692	0.03149
2451.96115	0.03145
2450.67538	0.03144
2449.38962	0.03154
2448.10385	0.03164
2446.81808	0.03158
2445.53231	0.03134
2444.24654	0.03098
2442.96077	0.03059
2441.67500	0.03025
2440.38923	0.03004
2439.10346	0.02996
2437.81770	0.02987
2436.53193	0.02968
2435.24616	0.02945
2433.96039	0.02943
2432.67462	0.02966
2431.38885	0.02996
2430.10308	0.03012
2428.81731	0.03015
2427.53155	0.03016
2426.24578	0.03016
2424.96001	0.03010
2423.67424	0.02998
2422.38847	0.02989
2421.10270	0.02993
2419.81693	0.03005
2418.53116	0.03011
2417.24539	0.03006
2415.95963	0.02993
2414.67386	0.02983
2413.38809	0.02978
2412.10232	0.02981
2410.81655	0.02992
2409.53078	0.03010
2408.24501	0.03025
2406.95924	0.03025
2405.67347	0.03008
2404.38771	0.02981
2403.10194	0.02964
2401.81617	0.02974
2400.53040	0.03018
2399.24463	0.03130
2397.95886	0.03216
2396.67309	0.03234
2395.38732	0.03194
2394.10156	0.03111
2392.81579	0.03015
2391.53002	0.02936
2390.24425	0.02898
2388.95848	0.02903
2387.67271	0.02932
2386.38694	0.02961
2385.10117	0.02966
2383.81540	0.02936
2382.52964	0.02880
2381.24387	0.02818
2379.95810	0.02768
2378.67233	0.02739
2377.38656	0.02734
2376.10079	0.02723
2374.81502	0.02693
2373.52925	0.02645
2372.24349	0.02575
2370.95772	0.02508
2369.67195	0.02445
2368.38618	0.02416
2367.10041	0.02452
2365.81464	0.02503
2364.52887	0.02500
2363.24310	0.02484
2361.95733	0.02532
2360.67157	0.02632
2359.38580	0.02692
2358.10003	0.02690
2356.81426	0.02630
2355.52849	0.02521
2354.24272	0.02423
2352.95695	0.02372
2351.67118	0.02404
2350.38542	0.02530
2349.09965	0.02605
2347.81388	0.02510
2346.52811	0.02355
2345.24234	0.02291
2343.95657	0.02316
2342.67080	0.02359
2341.38503	0.02429
2340.09926	0.02521
2338.81350	0.02574
2337.52773	0.02566
2336.24196	0.02494
2334.95619	0.02429
2333.67042	0.02431
2332.38465	0.02470
2331.09888	0.02534
2329.81311	0.02612
2328.52735	0.02657
2327.24158	0.02692
2325.95581	0.02733
2324.67004	0.02758
2323.38427	0.02786
2322.09850	0.02816
2320.81273	0.02808
2319.52696	0.02775
2318.24119	0.02740
2316.95543	0.02706
2315.66966	0.02689
2314.38389	0.02701
2313.09812	0.02735
2311.81235	0.02767
2310.52658	0.02786
2309.24081	0.02799
2307.95504	0.02804
2306.66928	0.02795
2305.38351	0.02776
2304.09774	0.02755
2302.81197	0.02736
2301.52620	0.02720
2300.24043	0.02701
2298.95466	0.02668
2297.66889	0.02620
2296.38312	0.02574
2295.09736	0.02548
2293.81159	0.02557
2292.52582	0.02596
2291.24005	0.02640
2289.95428	0.02670
2288.66851	0.02677
2287.38274	0.02668
2286.09697	0.02654
2284.81121	0.02644
2283.52544	0.02641
2282.23967	0.02647
2280.95390	0.02663
2279.66813	0.02681
2278.38236	0.02686
2277.09659	0.02667
2275.81082	0.02620
2274.52505	0.02555
2273.23929	0.02489
2271.95352	0.02442
2270.66775	0.02425
2269.38198	0.02430
2268.09621	0.02432
2266.81044	0.02414
2265.52467	0.02378
2264.23890	0.02339
2262.95314	0.02309
2261.66737	0.02282
2260.38160	0.02255
2259.09583	0.02232
2257.81006	0.02220
2256.52429	0.02218
2255.23852	0.02211
2253.95275	0.02194
2252.66698	0.02178
2251.38122	0.02181
2250.09545	0.02213
2248.80968	0.02250
2247.52391	0.02218
2246.23814	0.02146
2244.95237	0.02086
2243.66660	0.02083
2242.38083	0.02136
2241.09507	0.02198
2239.80930	0.02223
2238.52353	0.02213
2237.23776	0.02200
2235.95199	0.02192
2234.66622	0.02162
2233.38045	0.02088
2232.09468	0.02003
2230.80891	0.01964
2229.52315	0.01990
2228.23738	0.02037
2226.95161	0.02067
2225.66584	0.02086
2224.38007	0.02113
2223.09430	0.02129
2221.80853	0.02090
2220.52276	0.02008
2219.23700	0.01966
2217.95123	0.02029
2216.66546	0.02158
2215.37969	0.02239
2214.09392	0.02194
2212.80815	0.02052
2211.52238	0.01910
2210.23661	0.01846
2208.95084	0.01858
2207.66508	0.01886
2206.37931	0.01883
2205.09354	0.01846
2203.80777	0.01790
2202.52200	0.01715
2201.23623	0.01619
2199.95046	0.01523
2198.66469	0.01455
2197.37893	0.01439
2196.09316	0.01470
2194.80739	0.01525
2193.52162	0.01576
2192.23585	0.01606
2190.95008	0.01612
2189.66431	0.01581
2188.37854	0.01507
2187.09277	0.01417
2185.80701	0.01359
2184.52124	0.01349
2183.23547	0.01364
2181.94970	0.01376
2180.66393	0.01368
2179.37816	0.01326
2178.09239	0.01248
2176.80662	0.01159
2175.52085	0.01105
2174.23509	0.01111
2172.94932	0.01174
2171.66355	0.01268
2170.37778	0.01352
2169.09201	0.01372
2167.80624	0.01301
2166.52047	0.01189
2165.23470	0.01138
2163.94894	0.01187
2162.66317	0.01259
2161.37740	0.01232
2160.09163	0.01079
2158.80586	0.00888
2157.52009	0.00764
2156.23432	0.00743
2154.94855	0.00801
2153.66278	0.00892
2152.37702	0.00975
2151.09125	0.01041
2149.80548	0.01114
2148.51971	0.01220
2147.23394	0.01355
2145.94817	0.01468
2144.66240	0.01508
2143.37663	0.01478
2142.09087	0.01443
2140.80510	0.01469
2139.51933	0.01543
2138.23356	0.01597
2136.94779	0.01589
2135.66202	0.01549
2134.37625	0.01525
2133.09048	0.01528
2131.80471	0.01537
2130.51895	0.01543
2129.23318	0.01557
2127.94741	0.01581
2126.66164	0.01601
2125.37587	0.01604
2124.09010	0.01607
2122.80433	0.01642
2121.51856	0.01723
2120.23280	0.01824
2118.94703	0.01896
2117.66126	0.01902
2116.37549	0.01859
2115.08972	0.01826
2113.80395	0.01841
2112.51818	0.01882
2111.23241	0.01899
2109.94664	0.01870
2108.66088	0.01822
2107.37511	0.01794
2106.08934	0.01797
2104.80357	0.01813
2103.51780	0.01817
2102.23203	0.01795
2100.94626	0.01750
2099.66049	0.01706
2098.37473	0.01649
2097.08896	0.01606
2095.80319	0.01606
2094.51742	0.01648
2093.23165	0.01695
2091.94588	0.01702
2090.66011	0.01648
2089.37434	0.01562
2088.08857	0.01502
2086.80281	0.01515
2085.51704	0.01592
2084.23127	0.01677
2082.94550	0.01725
2081.65973	0.01729
2080.37396	0.01709
2079.08819	0.01672
2077.80242	0.01610
2076.51666	0.01530
2075.23089	0.01454
2073.94512	0.01405
2072.65935	0.01391
2071.37358	0.01398
2070.08781	0.01408
2068.80204	0.01413
2067.51627	0.01421
2066.23050	0.01439
2064.94474	0.01464
2063.65897	0.01486
2062.37320	0.01504
2061.08743	0.01522
2059.80166	0.01537
2058.51589	0.01535
2057.23012	0.01501
2055.94435	0.01436
2054.65859	0.01358
2053.37282	0.01288
2052.08705	0.01243
2050.80128	0.01237
2049.51551	0.01266
2048.22974	0.01307
2046.94397	0.01322
2045.65820	0.01288
2044.37243	0.01210
2043.08667	0.01122
2041.80090	0.01066
2040.51513	0.01063
2039.22936	0.01097
2037.94359	0.01123
2036.65782	0.01106
2035.37205	0.01048
2034.08628	0.00986
2032.80052	0.00948
2031.51475	0.00919
2030.22898	0.00862
2028.94321	0.00766
2027.65744	0.00667
2026.37167	0.00620
2025.08590	0.00646
2023.80013	0.00725
2022.51436	0.00817
2021.22860	0.00891
2019.94283	0.00934
2018.65706	0.00955
2017.37129	0.00968
2016.08552	0.00983
2014.79975	0.00990
2013.51398	0.00966
2012.22821	0.00909
2010.94245	0.00846
2009.65668	0.00810
2008.37091	0.00816
2007.08514	0.00856
2005.79937	0.00915
2004.51360	0.00980
2003.22783	0.01037
2001.94206	0.01083
2000.65629	0.01133
1999.37053	0.01207
1998.08476	0.01304
1996.79899	0.01390
1995.51322	0.01423
1994.22745	0.01398
1992.94168	0.01353
1991.65591	0.01338
1990.37014	0.01368
1989.08438	0.01424
1987.79861	0.01468
1986.51284	0.01467
1985.22707	0.01412
1983.94130	0.01321
1982.65553	0.01232
1981.36976	0.01175
1980.08399	0.01149
1978.79822	0.01136
1977.51246	0.01114
1976.22669	0.01084
1974.94092	0.01066
1973.65515	0.01081
1972.36938	0.01129
1971.08361	0.01189
1969.79784	0.01245
1968.51207	0.01298
1967.22631	0.01347
1965.94054	0.01374
1964.65477	0.01348
1963.36900	0.01262
1962.08323	0.01165
1960.79746	0.01116
1959.51169	0.01134
1958.22592	0.01182
1956.94015	0.01221
1955.65439	0.01254
1954.36862	0.01308
1953.08285	0.01393
1951.79708	0.01484
1950.51131	0.01548
1949.22554	0.01567
1947.93977	0.01547
1946.65400	0.01512
1945.36823	0.01489
1944.08247	0.01492
1942.79670	0.01516
1941.51093	0.01538
1940.22516	0.01543
1938.93939	0.01538
1937.65362	0.01543
1936.36785	0.01570
1935.08208	0.01609
1933.79632	0.01644
1932.51055	0.01662
1931.22478	0.01662
1929.93901	0.01651
1928.65324	0.01639
1927.36747	0.01635
1926.08170	0.01634
1924.79593	0.01624
1923.51016	0.01604
1922.22440	0.01584
1920.93863	0.01583
1919.65286	0.01601
1918.36709	0.01621
1917.08132	0.01624
1915.79555	0.01609
1914.50978	0.01600
1913.22401	0.01613
1911.93825	0.01642
1910.65248	0.01664
1909.36671	0.01668
1908.08094	0.01666
1906.79517	0.01673
1905.50940	0.01688
1904.22363	0.01700
1902.93786	0.01708
1901.65209	0.01720
1900.36633	0.01741
1899.08056	0.01758
1897.79479	0.01762
1896.50902	0.01755
1895.22325	0.01746
1893.93748	0.01739
1892.65171	0.01733
1891.36594	0.01728
1890.08018	0.01729
1888.79441	0.01740
1887.50864	0.01757
1886.22287	0.01767
1884.93710	0.01758
1883.65133	0.01733
1882.36556	0.01710
1881.07979	0.01705
1879.79402	0.01716
1878.50826	0.01733
1877.22249	0.01749
1875.93672	0.01760
1874.65095	0.01767
1873.36518	0.01774
1872.07941	0.01783
1870.79364	0.01795
1869.50787	0.01803
1868.22211	0.01802
1866.93634	0.01790
1865.65057	0.01771
1864.36480	0.01753
1863.07903	0.01743
1861.79326	0.01746
1860.50749	0.01761
1859.22172	0.01784
1857.93595	0.01811
1856.65019	0.01830
1855.36442	0.01833
1854.07865	0.01817
1852.79288	0.01792
1851.50711	0.01773
1850.22134	0.01768
1848.93557	0.01777
1847.64980	0.01798
1846.36404	0.01825
1845.07827	0.01854
1843.79250	0.01877
1842.50673	0.01887
1841.22096	0.01882
1839.93519	0.01860
1838.64942	0.01826
1837.36365	0.01791
1836.07788	0.01768
1834.79212	0.01765
1833.50635	0.01778
1832.22058	0.01796
1830.93481	0.01806
1829.64904	0.01805
1828.36327	0.01795
1827.07750	0.01784
1825.79173	0.01773
1824.50597	0.01768
1823.22020	0.01771
1821.93443	0.01780
1820.64866	0.01787
1819.36289	0.01784
1818.07712	0.01772
1816.79135	0.01764
1815.50558	0.01770
1814.21981	0.01790
1812.93405	0.01815
1811.64828	0.01834
1810.36251	0.01843
1809.07674	0.01839
1807.79097	0.01827
1806.50520	0.01812
1805.21943	0.01802
1803.93366	0.01800
1802.64790	0.01803
1801.36213	0.01809
1800.07636	0.01816
1798.79059	0.01826
1797.50482	0.01838
1796.21905	0.01849
1794.93328	0.01859
1793.64751	0.01868
1792.36174	0.01876
1791.07598	0.01880
1789.79021	0.01880
1788.50444	0.01876
1787.21867	0.01869
1785.93290	0.01862
1784.64713	0.01854
1783.36136	0.01850
1782.07559	0.01854
1780.78983	0.01870
1779.50406	0.01892
1778.21829	0.01910
1776.93252	0.01924
1775.64675	0.01935
1774.36098	0.01945
1773.07521	0.01949
1771.78944	0.01946
1770.50367	0.01944
1769.21791	0.01947
1767.93214	0.01958
1766.64637	0.01970
1765.36060	0.01981
1764.07483	0.01990
1762.78906	0.01997
1761.50329	0.02003
1760.21752	0.02010
1758.93176	0.02017
1757.64599	0.02022
1756.36022	0.02024
1755.07445	0.02021
1753.78868	0.02018
1752.50291	0.02015
1751.21714	0.02013
1749.93137	0.02013
1748.64560	0.02016
1747.35984	0.02025
1746.07407	0.02035
1744.78830	0.02041
1743.50253	0.02042
1742.21676	0.02047
1740.93099	0.02062
1739.64522	0.02086
1738.35945	0.02115
1737.07369	0.02145
1735.78792	0.02175
1734.50215	0.02202
1733.21638	0.02220
1731.93061	0.02231
1730.64484	0.02237
1729.35907	0.02241
1728.07330	0.02246
1726.78753	0.02255
1725.50177	0.02268
1724.21600	0.02282
1722.93023	0.02296
1721.64446	0.02313
1720.35869	0.02341
1719.07292	0.02379
1717.78715	0.02421
1716.50138	0.02457
1715.21561	0.02486
1713.92985	0.02509
1712.64408	0.02531
1711.35831	0.02556
1710.07254	0.02587
1708.78677	0.02626
1707.50100	0.02671
1706.21523	0.02722
1704.92946	0.02779
1703.64370	0.02842
1702.35793	0.02908
1701.07216	0.02970
1699.78639	0.03025
1698.50062	0.03070
1697.21485	0.03108
1695.92908	0.03140
1694.64331	0.03170
1693.35754	0.03202
1692.07178	0.03239
1690.78601	0.03282
1689.50024	0.03328
1688.21447	0.03377
1686.92870	0.03432
1685.64293	0.03491
1684.35716	0.03545
1683.07139	0.03584
1681.78563	0.03612
1680.49986	0.03640
1679.21409	0.03679
1677.92832	0.03731
1676.64255	0.03792
1675.35678	0.03856
1674.07101	0.03921
1672.78524	0.03985
1671.49947	0.04047
1670.21371	0.04104
1668.92794	0.04157
1667.64217	0.04205
1666.35640	0.04252
1665.07063	0.04302
1663.78486	0.04353
1662.49909	0.04403
1661.21332	0.04451
1659.92756	0.04497
1658.64179	0.04543
1657.35602	0.04591
1656.07025	0.04644
1654.78448	0.04699
1653.49871	0.04745
1652.21294	0.04775
1650.92717	0.04789
1649.64140	0.04800
1648.35564	0.04815
1647.06987	0.04834
1645.78410	0.04844
1644.49833	0.04841
1643.21256	0.04833
1641.92679	0.04828
1640.64102	0.04827
1639.35525	0.04830
1638.06949	0.04832
1636.78372	0.04832
1635.49795	0.04824
1634.21218	0.04805
1632.92641	0.04780
1631.64064	0.04752
1630.35487	0.04728
1629.06910	0.04706
1627.78333	0.04687
1626.49757	0.04667
1625.21180	0.04643
1623.92603	0.04611
1622.64026	0.04570
1621.35449	0.04524
1620.06872	0.04483
1618.78295	0.04453
1617.49718	0.04430
1616.21142	0.04406
1614.92565	0.04375
1613.63988	0.04341
1612.35411	0.04310
1611.06834	0.04291
1609.78257	0.04280
1608.49680	0.04273
1607.21103	0.04264
1605.92526	0.04253
1604.63950	0.04239
1603.35373	0.04222
1602.06796	0.04204
1600.78219	0.04189
1599.49642	0.04178
1598.21065	0.04171
1596.92488	0.04168
1595.63911	0.04168
1594.35335	0.04170
1593.06758	0.04174
1591.78181	0.04178
1590.49604	0.04181
1589.21027	0.04184
1587.92450	0.04194
1586.63873	0.04213
1585.35296	0.04239
1584.06719	0.04262
1582.78143	0.04279
1581.49566	0.04291
1580.20989	0.04305
1578.92412	0.04327
1577.63835	0.04357
1576.35258	0.04388
1575.06681	0.04415
1573.78104	0.04437
1572.49528	0.04461
1571.20951	0.04490
1569.92374	0.04523
1568.63797	0.04551
1567.35220	0.04571
1566.06643	0.04585
1564.78066	0.04599
1563.49489	0.04622
1562.20912	0.04659
1560.92336	0.04707
1559.63759	0.04751
1558.35182	0.04779
1557.06605	0.04788
1555.78028	0.04784
1554.49451	0.04777
1553.20874	0.04775
1551.92297	0.04780
1550.63721	0.04789
1549.35144	0.04799
1548.06567	0.04808
1546.77990	0.04817
1545.49413	0.04822
1544.20836	0.04824
1542.92259	0.04823
1541.63682	0.04819
1540.35105	0.04812
1539.06529	0.04797
1537.77952	0.04776
1536.49375	0.04756
1535.20798	0.04743
1533.92221	0.04737
1532.63644	0.04736
1531.35067	0.04738
1530.06490	0.04746
1528.77914	0.04763
1527.49337	0.04787
1526.20760	0.04815
1524.92183	0.04847
1523.63606	0.04885
1522.35029	0.04927
1521.06452	0.04971
1519.77875	0.05014
1518.49298	0.05057
1517.20722	0.05105
1515.92145	0.05160
1514.63568	0.05222
1513.34991	0.05288
1512.06414	0.05358
1510.77837	0.05434
1509.49260	0.05515
1508.20683	0.05599
1506.92107	0.05678
1505.63530	0.05743
1504.34953	0.05795
1503.06376	0.05842
1501.77799	0.05894
1500.49222	0.05954
1499.20645	0.06016
1497.92068	0.06072
1496.63491	0.06117
1495.34915	0.06153
1494.06338	0.06186
1492.77761	0.06224
1491.49184	0.06271
1490.20607	0.06322
1488.92030	0.06371
1487.63453	0.06418
1486.34876	0.06470
1485.06299	0.06533
1483.77723	0.06610
1482.49146	0.06698
1481.20569	0.06790
1479.91992	0.06877
1478.63415	0.06960
1477.34838	0.07041
1476.06261	0.07124
1474.77684	0.07213
1473.49108	0.07303
1472.20531	0.07388
1470.91954	0.07464
1469.63377	0.07535
1468.34800	0.07606
1467.06223	0.07678
1465.77646	0.07745
1464.49069	0.07800
1463.20492	0.07844
1461.91916	0.07885
1460.63339	0.07933
1459.34762	0.07995
1458.06185	0.08066
1456.77608	0.08133
1455.49031	0.08181
1454.20454	0.08211
1452.91877	0.08232
1451.63301	0.08255
1450.34724	0.08285
1449.06147	0.08318
1447.77570	0.08343
1446.48993	0.08351
1445.20416	0.08341
1443.91839	0.08320
1442.63262	0.08295
1441.34685	0.08273
1440.06109	0.08254
1438.77532	0.08238
1437.48955	0.08225
1436.20378	0.08214
1434.91801	0.08206
1433.63224	0.08203
1432.34647	0.08209
1431.06070	0.08227
1429.77494	0.08259
1428.48917	0.08304
1427.20340	0.08360
1425.91763	0.08428
1424.63186	0.08504
1423.34609	0.08581
1422.06032	0.08656
1420.77455	0.08730
1419.48878	0.08799
1418.20302	0.08859
1416.91725	0.08905
1415.63148	0.08937
1414.34571	0.08957
1413.05994	0.08965
1411.77417	0.08964
1410.48840	0.08952
1409.20263	0.08931
1407.91687	0.08897
1406.63110	0.08852
1405.34533	0.08792
1404.05956	0.08721
1402.77379	0.08639
1401.48802	0.08550
1400.20225	0.08453
1398.91648	0.08350
1397.63071	0.08240
1396.34495	0.08126
1395.05918	0.08007
1393.77341	0.07883
1392.48764	0.07753
1391.20187	0.07622
1389.91610	0.07493
1388.63033	0.07372
1387.34456	0.07260
1386.05880	0.07158
1384.77303	0.07066
1383.48726	0.06982
1382.20149	0.06901
1380.91572	0.06819
1379.62995	0.06729
1378.34418	0.06628
1377.05841	0.06512
1375.77264	0.06382
1374.48688	0.06238
1373.20111	0.06084
1371.91534	0.05927
1370.62957	0.05774
1369.34380	0.05633
1368.05803	0.05506
1366.77226	0.05387
1365.48649	0.05268
1364.20073	0.05146
1362.91496	0.05022
1361.62919	0.04904
1360.34342	0.04795
1359.05765	0.04696
1357.77188	0.04603
1356.48611	0.04515
1355.20034	0.04432
1353.91457	0.04355
1352.62881	0.04286
1351.34304	0.04225
1350.05727	0.04168
1348.77150	0.04113
1347.48573	0.04059
1346.19996	0.04006
1344.91419	0.03957
1343.62842	0.03911
1342.34266	0.03868
1341.05689	0.03827
1339.77112	0.03792
1338.48535	0.03761
1337.19958	0.03734
1335.91381	0.03708
1334.62804	0.03680
1333.34227	0.03646
1332.05650	0.03611
1330.77074	0.03575
1329.48497	0.03541
1328.19920	0.03508
1326.91343	0.03476
1325.62766	0.03445
1324.34189	0.03415
1323.05612	0.03388
1321.77035	0.03363
1320.48459	0.03341
1319.19882	0.03318
1317.91305	0.03294
1316.62728	0.03268
1315.34151	0.03244
1314.05574	0.03223
1312.76997	0.03207
1311.48420	0.03194
1310.19843	0.03178
1308.91267	0.03158
1307.62690	0.03134
1306.34113	0.03109
1305.05536	0.03086
1303.76959	0.03067
1302.48382	0.03052
1301.19805	0.03040
1299.91228	0.03029
1298.62652	0.03018
1297.34075	0.03004
1296.05498	0.02987
1294.76921	0.02967
1293.48344	0.02947
1292.19767	0.02929
1290.91190	0.02913
1289.62613	0.02901
1288.34036	0.02896
1287.05460	0.02898
1285.76883	0.02899
1284.48306	0.02896
1283.19729	0.02886
1281.91152	0.02875
1280.62575	0.02864
1279.33998	0.02851
1278.05421	0.02837
1276.76845	0.02823
1275.48268	0.02809
1274.19691	0.02800
1272.91114	0.02800
1271.62537	0.02806
1270.33960	0.02811
1269.05383	0.02810
1267.76806	0.02802
1266.48229	0.02792
1265.19653	0.02786
1263.91076	0.02783
1262.62499	0.02783
1261.33922	0.02784
1260.05345	0.02787
1258.76768	0.02790
1257.48191	0.02793
1256.19614	0.02795
1254.91037	0.02800
1253.62461	0.02807
1252.33884	0.02812
1251.05307	0.02816
1249.76730	0.02817
1248.48153	0.02817
1247.19576	0.02815
1245.90999	0.02807
1244.62422	0.02799
1243.33846	0.02794
1242.05269	0.02796
1240.76692	0.02800
1239.48115	0.02801
1238.19538	0.02796
1236.90961	0.02792
1235.62384	0.02794
1234.33807	0.02799
1233.05230	0.02802
1231.76654	0.02799
1230.48077	0.02790
1229.19500	0.02780
1227.90923	0.02771
1226.62346	0.02766
1225.33769	0.02765
1224.05192	0.02768
1222.76615	0.02769
1221.48039	0.02767
1220.19462	0.02762
1218.90885	0.02757
1217.62308	0.02756
1216.33731	0.02759
1215.05154	0.02766
1213.76577	0.02774
1212.48000	0.02780
1211.19423	0.02787
1209.90847	0.02794
1208.62270	0.02803
1207.33693	0.02810
1206.05116	0.02813
1204.76539	0.02813
1203.47962	0.02814
1202.19385	0.02817
1200.90808	0.02824
1199.62232	0.02832
1198.33655	0.02842
1197.05078	0.02851
1195.76501	0.02858
1194.47924	0.02863
1193.19347	0.02868
1191.90770	0.02874
1190.62193	0.02879
1189.33616	0.02884
1188.05040	0.02890
1186.76463	0.02899
1185.47886	0.02911
1184.19309	0.02926
1182.90732	0.02942
1181.62155	0.02958
1180.33578	0.02972
1179.05001	0.02986
1177.76425	0.03002
1176.47848	0.03022
1175.19271	0.03049
1173.90694	0.03079
1172.62117	0.03109
1171.33540	0.03137
1170.04963	0.03161
1168.76386	0.03181
1167.47809	0.03198
1166.19233	0.03217
1164.90656	0.03240
1163.62079	0.03265
1162.33502	0.03287
1161.04925	0.03298
1159.76348	0.03302
1158.47771	0.03308
1157.19194	0.03326
1155.90618	0.03353
1154.62041	0.03381
1153.33464	0.03403
1152.04887	0.03424
1150.76310	0.03449
1149.47733	0.03483
1148.19156	0.03526
1146.90579	0.03576
1145.62002	0.03627
1144.33426	0.03672
1143.04849	0.03712
1141.76272	0.03757
1140.47695	0.03815
1139.19118	0.03888
1137.90541	0.03968
1136.61964	0.04054
1135.33387	0.04145
1134.04811	0.04245
1132.76234	0.04358
1131.47657	0.04485
1130.19080	0.04626
1128.90503	0.04777
1127.61926	0.04934
1126.33349	0.05102
1125.04772	0.05291
1123.76195	0.05502
1122.47619	0.05730
1121.19042	0.05968
1119.90465	0.06213
1118.61888	0.06463
1117.33311	0.06714
1116.04734	0.06963
1114.76157	0.07208
1113.47580	0.07447
1112.19004	0.07677
1110.90427	0.07896
1109.61850	0.08104
1108.33273	0.08302
1107.04696	0.08492
1105.76119	0.08674
1104.47542	0.08846
1103.18965	0.09009
1101.90388	0.09164
1100.61812	0.09316
1099.33235	0.09463
1098.04658	0.09603
1096.76081	0.09735
1095.47504	0.09863
1094.18927	0.09990
1092.90350	0.10113
1091.61773	0.10229
1090.33197	0.10332
1089.04620	0.10423
1087.76043	0.10508
1086.47466	0.10593
1085.18889	0.10685
1083.90312	0.10782
1082.61735	0.10881
1081.33158	0.10983
1080.04581	0.11089
1078.76005	0.11201
1077.47428	0.11318
1076.18851	0.11442
1074.90274	0.11576
1073.61697	0.11719
1072.33120	0.11877
1071.04543	0.12050
1069.75966	0.12239
1068.47390	0.12433
1067.18813	0.12627
1065.90236	0.12821
1064.61659	0.13020
1063.33082	0.13225
1062.04505	0.13429
1060.75928	0.13630
1059.47351	0.13831
1058.18774	0.14039
1056.90198	0.14251
1055.61621	0.14461
1054.33044	0.14664
1053.04467	0.14861
1051.75890	0.15057
1050.47313	0.15257
1049.18736	0.15468
1047.90159	0.15693
1046.61583	0.15931
1045.33006	0.16176
1044.04429	0.16419
1042.75852	0.16652
1041.47275	0.16873
1040.18698	0.17094
1038.90121	0.17328
1037.61544	0.17579
1036.32967	0.17837
1035.04391	0.18085
1033.75814	0.18310
1032.47237	0.18508
1031.18660	0.18683
1029.90083	0.18842
1028.61506	0.18987
1027.32929	0.19124
1026.04352	0.19251
1024.75775	0.19366
1023.47199	0.19464
1022.18622	0.19537
1020.90045	0.19586
1019.61468	0.19612
1018.32891	0.19617
1017.04314	0.19599
1015.75737	0.19558
1014.47160	0.19491
1013.18584	0.19393
1011.90007	0.19261
1010.61430	0.19099
1009.32853	0.18914
1008.04276	0.18712
1006.75699	0.18489
1005.47122	0.18244
1004.18545	0.17976
1002.89968	0.17692
1001.61392	0.17392
1000.32815	0.17074
999.04238	0.16740
997.75661	0.16393
996.47084	0.16035
995.18507	0.15665
993.89930	0.15286
992.61353	0.14908
991.32777	0.14543
990.04200	0.14193
988.75623	0.13853
987.47046	0.13519
986.18469	0.13188
984.89892	0.12860
983.61315	0.12538
982.32738	0.12227
981.04161	0.11934
979.75585	0.11661
978.47008	0.11401
977.18431	0.11148
975.89854	0.10905
974.61277	0.10681
973.32700	0.10483
972.04123	0.10312
970.75546	0.10168
969.46970	0.10054
968.18393	0.09975
966.89816	0.09930
965.61239	0.09911
964.32662	0.09905
963.04085	0.09903
961.75508	0.09892
960.46931	0.09857
959.18354	0.09790
957.89778	0.09688
956.61201	0.09557
955.32624	0.09406
954.04047	0.09246
952.75470	0.09084
951.46893	0.08923
950.18316	0.08760
948.89739	0.08596
947.61163	0.08431
946.32586	0.08270
945.04009	0.08114
943.75432	0.07965
942.46855	0.07826
941.18278	0.07697
939.89701	0.07579
938.61124	0.07465
937.32547	0.07348
936.03971	0.07230
934.75394	0.07116
933.46817	0.07012
932.18240	0.06915
930.89663	0.06822
929.61086	0.06729
928.32509	0.06637
927.03932	0.06551
925.75356	0.06472
924.46779	0.06399
923.18202	0.06329
921.89625	0.06264
920.61048	0.06209
919.32471	0.06165
918.03894	0.06122
916.75317	0.06070
915.46740	0.06005
914.18164	0.05933
912.89587	0.05864
911.61010	0.05799
910.32433	0.05738
909.03856	0.05681
907.75279	0.05628
906.46702	0.05582
905.18125	0.05538
903.89549	0.05490
902.60972	0.05432
901.32395	0.05367
900.03818	0.05305
898.75241	0.05253
897.46664	0.05212
896.18087	0.05174
894.89510	0.05132
893.60933	0.05085
892.32357	0.05041
891.03780	0.05010
889.75203	0.05001
888.46626	0.05016
887.18049	0.05052
885.89472	0.05110
884.60895	0.05202
883.32318	0.05340
882.03742	0.05520
880.75165	0.05714
879.46588	0.05887
878.18011	0.06023
876.89434	0.06134
875.60857	0.06237
874.32280	0.06337
873.03703	0.06413
871.75126	0.06441
870.46550	0.06407
869.17973	0.06319
867.89396	0.06191
866.60819	0.06034
865.32242	0.05851
864.03665	0.05653
862.75088	0.05459
861.46511	0.05290
860.17935	0.05154
858.89358	0.05044
857.60781	0.04951
856.32204	0.04866
855.03627	0.04788
853.75050	0.04718
852.46473	0.04652
851.17896	0.04588
849.89319	0.04528
848.60743	0.04475
847.32166	0.04431
846.03589	0.04394
844.75012	0.04362
843.46435	0.04331
842.17858	0.04302
840.89281	0.04271
839.60704	0.04239
838.32128	0.04209
837.03551	0.04181
835.74974	0.04155
834.46397	0.04128
833.17820	0.04099
831.89243	0.04073
830.60666	0.04054
829.32089	0.04043
828.03512	0.04036
826.74936	0.04028
825.46359	0.04015
824.17782	0.03997
822.89205	0.03978
821.60628	0.03961
820.32051	0.03952
819.03474	0.03952
817.74897	0.03955
816.46321	0.03955
815.17744	0.03951
813.89167	0.03949
812.60590	0.03955
811.32013	0.03968
810.03436	0.03984
808.74859	0.03998
807.46282	0.04010
806.17705	0.04026
804.89129	0.04049
803.60552	0.04078
802.31975	0.04108
801.03398	0.04137
799.74821	0.04163
798.46244	0.04182
797.17667	0.04188
795.89090	0.04182
794.60513	0.04169
793.31937	0.04157
792.03360	0.04148
790.74783	0.04141
789.46206	0.04135
788.17629	0.04130
786.89052	0.04131
785.60475	0.04137
784.31898	0.04142
783.03322	0.04143
781.74745	0.04140
780.46168	0.04138
779.17591	0.04138
777.89014	0.04137
776.60437	0.04131
775.31860	0.04119
774.03283	0.04102
772.74706	0.04086
771.46130	0.04076
770.17553	0.04074
768.88976	0.04072
767.60399	0.04063
766.31822	0.04045
765.03245	0.04026
763.74668	0.04010
762.46091	0.03996
761.17515	0.03986
759.88938	0.03982
758.60361	0.03982
757.31784	0.03986
756.03207	0.03988
754.74630	0.03990
753.46053	0.03990
752.17476	0.03991
750.88899	0.03997
749.60323	0.04007
748.31746	0.04010
747.03169	0.03998
745.74592	0.03968
744.46015	0.03933
743.17438	0.03903
741.88861	0.03880
740.60284	0.03863
739.31708	0.03856
738.03131	0.03863
736.74554	0.03877
735.45977	0.03886
734.17400	0.03882
732.88823	0.03873
731.60246	0.03870
730.31669	0.03880
729.03092	0.03896
727.74516	0.03910
726.45939	0.03916
725.17362	0.03910
723.88785	0.03888
722.60208	0.03876
721.31631	0.03874
720.03054	0.03876
718.74477	0.03880
717.45901	0.03873
716.17324	0.03854
714.88747	0.03829
713.60170	0.03802
712.31593	0.03776
711.03016	0.03754
709.74439	0.03736
708.45862	0.03723
707.17285	0.03714
705.88709	0.03709
704.60132	0.03706
703.31555	0.03706
702.02978	0.03708
700.74401	0.03713
699.45824	0.03723
698.17247	0.03736
696.88670	0.03749
695.60094	0.03761
694.31517	0.03768
693.02940	0.03768
691.74363	0.03762
690.45786	0.03750
689.17209	0.03733
687.88632	0.03711
686.60055	0.03687
685.31478	0.03665
684.02902	0.03650
682.74325	0.03645
681.45748	0.03645
680.17171	0.03644
678.88594	0.03636
677.60017	0.03623
676.31440	0.03606
675.02863	0.03594
673.74287	0.03604
672.45710	0.03657
671.17133	0.03728
669.88556	0.03722
668.59979	0.03612
667.31402	0.03598
666.02825	0.03668
664.74248	0.03643
663.45671	0.03563
662.17095	0.03507
660.88518	0.03485
659.59941	0.03481
658.31364	0.03486
657.02787	0.03493
655.74210	0.03499
654.45633	0.03502
653.17056	0.03502
651.88480	0.03501
650.59903	0.03501
649.31326	0.03498
648.02749	0.03492
646.74172	0.03481
645.45595	0.03469
644.17018	0.03462
642.88441	0.03460
641.59864	0.03462
640.31288	0.03462
639.02711	0.03462
637.74134	0.03463
636.45557	0.03466
635.16980	0.03471
633.88403	0.03478
632.59826	0.03489
631.31249	0.03513
630.02673	0.03553
628.74096	0.03597
627.45519	0.03619
626.16942	0.03682
624.88365	0.03752
623.59788	0.03813
622.31211	0.03919
621.02634	0.04124
619.74057	0.04397
618.45481	0.04655
617.16904	0.04850
615.88327	0.04982
614.59750	0.05088
613.31173	0.05230
612.02596	0.05471
610.74019	0.05800
609.45442	0.06115
608.16866	0.06339
606.88289	0.06524
605.59712	0.06763
604.31135	0.07066
603.02558	0.07349
601.73981	0.07530
600.45404	0.07590
599.16827	0.07548
597.88250	0.07435
596.59674	0.07279
595.31097	0.07106
594.02520	0.06936
592.73943	0.06783
591.45366	0.06658
590.16789	0.06572
588.88212	0.06533
587.59635	0.06538
586.31059	0.06577
585.02482	0.06638
583.73905	0.06721
582.45328	0.06830
581.16751	0.06966
579.88174	0.07119
578.59597	0.07277
577.31020	0.07427
576.02443	0.07556
574.73867	0.07662
573.45290	0.07751
572.16713	0.07845
570.88136	0.07968
569.59559	0.08136
568.30982	0.08353
567.02405	0.08610
565.73828	0.08880
564.45251	0.09124
563.16675	0.09300
561.88098	0.09385
560.59521	0.09374
559.30944	0.09279
558.02367	0.09113
556.73790	0.08892
555.45213	0.08630
554.16636	0.08340
552.88060	0.08039
551.59483	0.07748
550.30906	0.07485
549.02329	0.07257
547.73752	0.07058
546.45175	0.06878
545.16598	0.06708
543.88021	0.06546
542.59444	0.06397
541.30868	0.06264
540.02291	0.06150
538.73714	0.06050
537.45137	0.05962
536.16560	0.05885
534.87983	0.05824
533.59406	0.05780
532.30829	0.05745
531.02253	0.05711
529.73676	0.05672
528.45099	0.05632
527.16522	0.05590
525.87945	0.05544
524.59368	0.05490
523.30791	0.05422
522.02214	0.05342
520.73637	0.05257
519.45061	0.05184
518.16484	0.05132
516.87907	0.05095
515.59330	0.05062
514.30753	0.05027
513.02176	0.04994
511.73599	0.04963
510.45022	0.04931
509.16446	0.04892
507.87869	0.04848
506.59292	0.04804
505.30715	0.04762
504.02138	0.04718
502.73561	0.04666
501.44984	0.04614
500.16407	0.04573
498.87830	0.04552
497.59254	0.04548
496.30677	0.04547
495.02100	0.04541
493.73523	0.04529
492.44946	0.04521
491.16369	0.04518
489.87792	0.04515
488.59215	0.04507
487.30639	0.04498
486.02062	0.04499
484.73485	0.04522
483.44908	0.04566
482.16331	0.04622
480.87754	0.04679
479.59177	0.04737
478.30600	0.04799
477.02023	0.04869
475.73447	0.04945
474.44870	0.05021
473.16293	0.05085
471.87716	0.05130
470.59139	0.05156
469.30562	0.05170
468.01985	0.05180
466.73408	0.05184
465.44832	0.05171
464.16255	0.05139
462.87678	0.05091
461.59101	0.05038
460.30524	0.04990
459.01947	0.04950
457.73370	0.04916
456.44793	0.04880
455.16216	0.04834
453.87640	0.04779
452.59063	0.04718
451.30486	0.04658
450.01909	0.04603
448.73332	0.04553
447.44755	0.04512
446.16178	0.04478
444.87601	0.04451
443.59025	0.04430
442.30448	0.04411
441.01871	0.04387
439.73294	0.04356
438.44717	0.04321
437.16140	0.04290
435.87563	0.04268
434.58986	0.04255
433.30409	0.04250
432.01833	0.04251
430.73256	0.04255
429.44679	0.04257
428.16102	0.04251
426.87525	0.04235
425.58948	0.04211
424.30371	0.04182
423.01794	0.04150
421.73218	0.04114
420.44641	0.04072
419.16064	0.04028
417.87487	0.03984
416.58910	0.03941
415.30333	0.03895
414.01756	0.03846
412.73179	0.03793
411.44602	0.03740
410.16026	0.03691
408.87449	0.03645
407.58872	0.03603
406.30295	0.03569
405.01718	0.03546
403.73141	0.03537
402.44564	0.03542
401.15987	0.03559
399.87411	0.03583
