3997.45528	-0.03903
3996.16951	-0.03942
3994.88374	-0.03987
3993.59798	-0.04024
3992.31221	-0.04027
3991.02644	-0.03987
3989.74067	-0.03924
3988.45490	-0.03865
3987.16913	-0.03827
3985.88336	-0.03804
3984.59759	-0.03778
3983.31183	-0.03730
3982.02606	-0.03659
3980.74029	-0.03587
3979.45452	-0.03533
3978.16875	-0.03495
3976.88298	-0.03450
3975.59721	-0.03392
3974.31144	-0.03338
3973.02567	-0.03299
3971.73991	-0.03266
3970.45414	-0.03233
3969.16837	-0.03214
3967.88260	-0.03234
3966.59683	-0.03294
3965.31106	-0.03368
3964.02529	-0.03432
3962.73952	-0.03468
3961.45376	-0.03466
3960.16799	-0.03428
3958.88222	-0.03366
3957.59645	-0.03299
3956.31068	-0.03240
3955.02491	-0.03186
3953.73914	-0.03122
3952.45337	-0.03041
3951.16760	-0.02949
3949.88184	-0.02880
3948.59607	-0.02871
3947.31030	-0.02934
3946.02453	-0.03034
3944.73876	-0.03105
3943.45299	-0.03113
3942.16722	-0.03072
3940.88145	-0.03022
3939.59569	-0.02995
3938.30992	-0.02995
3937.02415	-0.03006
3935.73838	-0.03010
3934.45261	-0.03003
3933.16684	-0.02996
3931.88107	-0.02993
3930.59530	-0.02975
3929.30953	-0.02922
3928.02377	-0.02846
3926.73800	-0.02778
3925.45223	-0.02738
3924.16646	-0.02723
3922.88069	-0.02728
3921.59492	-0.02759
3920.30915	-0.02821
3919.02338	-0.02887
3917.73762	-0.02914
3916.45185	-0.02886
3915.16608	-0.02830
3913.88031	-0.02790
3912.59454	-0.02780
3911.30877	-0.02785
3910.02300	-0.02788
3908.73723	-0.02798
3907.45146	-0.02834
3906.16570	-0.02897
3904.87993	-0.02958
3903.59416	-0.02981
3902.30839	-0.02954
3901.02262	-0.02897
3899.73685	-0.02839
3898.45108	-0.02798
3897.16531	-0.02769
3895.87955	-0.02736
3894.59378	-0.02681
3893.30801	-0.02603
3892.02224	-0.02525
3890.73647	-0.02474
3889.45070	-0.02462
3888.16493	-0.02472
3886.87916	-0.02471
3885.59339	-0.02433
3884.30763	-0.02366
3883.02186	-0.02307
3881.73609	-0.02297
3880.45032	-0.02336
3879.16455	-0.02394
3877.87878	-0.02441
3876.59301	-0.02478
3875.30724	-0.02518
3874.02148	-0.02563
3872.73571	-0.02590
3871.44994	-0.02585
3870.16417	-0.02563
3868.87840	-0.02548
3867.59263	-0.02535
3866.30686	-0.02502
3865.02109	-0.02444
3863.73532	-0.02391
3862.44956	-0.02365
3861.16379	-0.02354
3859.87802	-0.02334
3858.59225	-0.02312
3857.30648	-0.02310
3856.02071	-0.02328
3854.73494	-0.02340
3853.44917	-0.02325
3852.16341	-0.02293
3850.87764	-0.02257
3849.59187	-0.02214
3848.30610	-0.02162
3847.02033	-0.02117
3845.73456	-0.02107
3844.44879	-0.02140
3843.16302	-0.02191
3841.87725	-0.02234
3840.59149	-0.02259
3839.30572	-0.02273
3838.01995	-0.02279
3836.73418	-0.02271
3835.44841	-0.02243
3834.16264	-0.02201
3832.87687	-0.02153
3831.59110	-0.02116
3830.30534	-0.02099
3829.01957	-0.02105
3827.73380	-0.02127
3826.44803	-0.02150
3825.16226	-0.02162
3823.87649	-0.02149
3822.59072	-0.02112
3821.30495	-0.02066
3820.01918	-0.02043
3818.73342	-0.02051
3817.44765	-0.02066
3816.16188	-0.02049
3814.87611	-0.02002
3813.59034	-0.01978
3812.30457	-0.02031
3811.01880	-0.02154
3809.73303	-0.02286
3808.44726	-0.02360
3807.16150	-0.02353
3805.87573	-0.02292
3804.58996	-0.02223
3803.30419	-0.02176
3802.01842	-0.02146
3800.73265	-0.02102
3799.44688	-0.02028
3798.16111	-0.01949
3796.87535	-0.01909
3795.58958	-0.01929
3794.30381	-0.01982
3793.01804	-0.02023
3791.73227	-0.02024
3790.44650	-0.01987
3789.16073	-0.01928
3787.87496	-0.01873
3786.58919	-0.01845
3785.30343	-0.01857
3784.01766	-0.01902
3782.73189	-0.01952
3781.44612	-0.01984
3780.16035	-0.01998
3778.87458	-0.02007
3777.58881	-0.02017
3776.30304	-0.02010
3775.01728	-0.01964
3773.73151	-0.01889
3772.44574	-0.01834
3771.15997	-0.01838
3769.87420	-0.01882
3768.58843	-0.01906
3767.30266	-0.01872
3766.01689	-0.01812
3764.73112	-0.01793
3763.44536	-0.01852
3762.15959	-0.01967
3760.87382	-0.02081
3759.58805	-0.02154
3758.30228	-0.02187
3757.01651	-0.02199
3755.73074	-0.02201
3754.44497	-0.02187
3753.15921	-0.02150
3751.87344	-0.02092
3750.58767	-0.02027
3749.30190	-0.01964
3748.01613	-0.01908
3746.73036	-0.01860
3745.44459	-0.01828
3744.15882	-0.01842
3742.87305	-0.01910
3741.58729	-0.01998
3740.30152	-0.02068
3739.01575	-0.02101
3737.72998	-0.02094
3736.44421	-0.02053
3735.15844	-0.01989
3733.87267	-0.01947
3732.58690	-0.01952
3731.30114	-0.02009
3730.01537	-0.02106
3728.72960	-0.02199
3727.44383	-0.02263
3726.15806	-0.02280
3724.87229	-0.02256
3723.58652	-0.02238
3722.30075	-0.02254
3721.01498	-0.02305
3719.72922	-0.02352
3718.44345	-0.02322
3717.15768	-0.02203
3715.87191	-0.02059
3714.58614	-0.01976
3713.30037	-0.01995
3712.01460	-0.02063
3710.72883	-0.02125
3709.44307	-0.02166
3708.15730	-0.02160
3706.87153	-0.02139
3705.58576	-0.02133
3704.29999	-0.02144
3703.01422	-0.02156
3701.72845	-0.02157
3700.44268	-0.02145
3699.15691	-0.02130
3697.87115	-0.02113
3696.58538	-0.02099
3695.29961	-0.02087
3694.01384	-0.02083
3692.72807	-0.02057
3691.44230	-0.01998
3690.15653	-0.01930
3688.87076	-0.01882
3687.58500	-0.01873
3686.29923	-0.01890
3685.01346	-0.01894
3683.72769	-0.01878
3682.44192	-0.01849
3681.15615	-0.01810
3679.87038	-0.01781
3678.58461	-0.01776
3677.29884	-0.01763
3676.01308	-0.01712
3674.72731	-0.01636
3673.44154	-0.01587
3672.15577	-0.01600
3670.87000	-0.01650
3669.58423	-0.01683
3668.29846	-0.01675
3667.01269	-0.01650
3665.72693	-0.01641
3664.44116	-0.01652
3663.15539	-0.01664
3661.86962	-0.01651
3660.58385	-0.01602
3659.29808	-0.01524
3658.01231	-0.01436
3656.72654	-0.01360
3655.44077	-0.01320
3654.15501	-0.01326
3652.86924	-0.01374
3651.58347	-0.01447
3650.29770	-0.01513
3649.01193	-0.01532
3647.72616	-0.01481
3646.44039	-0.01384
3645.15462	-0.01305
3643.86886	-0.01286
3642.58309	-0.01323
3641.29732	-0.01365
3640.01155	-0.01365
3638.72578	-0.01319
3637.44001	-0.01254
3636.15424	-0.01195
3634.86847	-0.01154
3633.58270	-0.01133
3632.29694	-0.01150
3631.01117	-0.01220
3629.72540	-0.01316
3628.43963	-0.01409
3627.15386	-0.01466
3625.86809	-0.01478
3624.58232	-0.01435
3623.29655	-0.01367
3622.01079	-0.01284
3620.72502	-0.01211
3619.43925	-0.01146
3618.15348	-0.01102
3616.86771	-0.01082
3615.58194	-0.01056
3614.29617	-0.01000
3613.01040	-0.00936
3611.72463	-0.00920
3610.43887	-0.00965
3609.15310	-0.01045
3607.86733	-0.01116
3606.58156	-0.01152
3605.29579	-0.01140
3604.01002	-0.01075
3602.72425	-0.00974
3601.43848	-0.00852
3600.15272	-0.00742
3598.86695	-0.00684
3597.58118	-0.00704
3596.29541	-0.00767
3595.00964	-0.00847
3593.72387	-0.00910
3592.43810	-0.00920
3591.15233	-0.00905
3589.86656	-0.00887
3588.58080	-0.00849
3587.29503	-0.00804
3586.00926	-0.00766
3584.72349	-0.00742
3583.43772	-0.00719
3582.15195	-0.00677
3580.86618	-0.00608
3579.58041	-0.00542
3578.29464	-0.00495
3577.00888	-0.00464
3575.72311	-0.00432
3574.43734	-0.00397
3573.15157	-0.00363
3571.86580	-0.00338
3570.58003	-0.00329
3569.29426	-0.00334
3568.00849	-0.00345
3566.72273	-0.00344
3565.43696	-0.00315
3564.15119	-0.00269
3562.86542	-0.00224
3561.57965	-0.00201
3560.29388	-0.00198
3559.00811	-0.00191
3557.72234	-0.00159
3556.43657	-0.00105
3555.15081	-0.00053
3553.86504	-0.00027
3552.57927	-0.00032
3551.29350	-0.00058
3550.00773	-0.00086
3548.72196	-0.00108
3547.43619	-0.00127
3546.15042	-0.00149
3544.86466	-0.00167
3543.57889	-0.00170
3542.29312	-0.00156
3541.00735	-0.00130
3539.72158	-0.00090
3538.43581	-0.00027
3537.15004	0.00067
3535.86427	0.00178
3534.57850	0.00267
3533.29274	0.00297
3532.00697	0.00270
3530.72120	0.00234
3529.43543	0.00234
3528.14966	0.00271
3526.86389	0.00311
3525.57812	0.00334
3524.29235	0.00355
3523.00659	0.00388
3521.72082	0.00416
3520.43505	0.00405
3519.14928	0.00347
3517.86351	0.00276
3516.57774	0.00242
3515.29197	0.00272
3514.00620	0.00347
3512.72043	0.00431
3511.43467	0.00490
3510.14890	0.00513
3508.86313	0.00501
3507.57736	0.00472
3506.29159	0.00454
3505.00582	0.00466
3503.72005	0.00500
3502.43428	0.00530
3501.14852	0.00545
3499.86275	0.00554
3498.57698	0.00567
3497.29121	0.00586
3496.00544	0.00612
3494.71967	0.00648
3493.43390	0.00683
3492.14813	0.00694
3490.86236	0.00667
3489.57660	0.00621
3488.29083	0.00594
3487.00506	0.00615
3485.71929	0.00688
3484.43352	0.00787
3483.14775	0.00874
3481.86198	0.00912
3480.57621	0.00895
3479.29045	0.00850
3478.00468	0.00819
3476.71891	0.00829
3475.43314	0.00874
3474.14737	0.00934
3472.86160	0.00990
3471.57583	0.01034
3470.29006	0.01069
3469.00429	0.01100
3467.71853	0.01128
3466.43276	0.01132
3465.14699	0.01096
3463.86122	0.01028
3462.57545	0.00964
3461.28968	0.00927
3460.00391	0.00908
3458.71814	0.00888
3457.43238	0.00875
3456.14661	0.00893
3454.86084	0.00943
3453.57507	0.00995
3452.28930	0.01020
3451.00353	0.01022
3449.71776	0.01022
3448.43199	0.01024
3447.14622	0.01022
3445.86046	0.01019
3444.57469	0.01039
3443.28892	0.01100
3442.00315	0.01182
3440.71738	0.01234
3439.43161	0.01215
3438.14584	0.01132
3436.86007	0.01027
3435.57431	0.00949
3434.28854	0.00928
3433.00277	0.00967
3431.71700	0.01052
3430.43123	0.01158
3429.14546	0.01259
3427.85969	0.01338
3426.57392	0.01391
3425.28815	0.01421
3424.00239	0.01429
3422.71662	0.01413
3421.43085	0.01380
3420.14508	0.01354
3418.85931	0.01352
3417.57354	0.01366
3416.28777	0.01376
3415.00200	0.01373
3413.71624	0.01373
3412.43047	0.01391
3411.14470	0.01428
3409.85893	0.01470
3408.57316	0.01503
3407.28739	0.01525
3406.00162	0.01540
3404.71585	0.01547
3403.43008	0.01538
3402.14432	0.01511
3400.85855	0.01474
3399.57278	0.01440
3398.28701	0.01423
3397.00124	0.01429
3395.71547	0.01456
3394.42970	0.01487
3393.14393	0.01501
3391.85817	0.01495
3390.57240	0.01493
3389.28663	0.01519
3388.00086	0.01573
3386.71509	0.01633
3385.42932	0.01669
3384.14355	0.01665
3382.85778	0.01624
3381.57201	0.01567
3380.28625	0.01525
3379.00048	0.01517
3377.71471	0.01533
3376.42894	0.01548
3375.14317	0.01554
3373.85740	0.01568
3372.57163	0.01607
3371.28586	0.01660
3370.00010	0.01697
3368.71433	0.01696
3367.42856	0.01664
3366.14279	0.01620
3364.85702	0.01582
3363.57125	0.01559
3362.28548	0.01552
3360.99971	0.01557
3359.71394	0.01569
3358.42818	0.01581
3357.14241	0.01598
3355.85664	0.01627
3354.57087	0.01670
3353.28510	0.01717
3351.99933	0.01754
3350.71356	0.01772
3349.42779	0.01772
3348.14202	0.01758
3346.85626	0.01739
3345.57049	0.01727
3344.28472	0.01734
3342.99895	0.01766
3341.71318	0.01803
3340.42741	0.01816
3339.14164	0.01786
3337.85587	0.01734
3336.57011	0.01700
3335.28434	0.01711
3333.99857	0.01755
3332.71280	0.01796
3331.42703	0.01801
3330.14126	0.01763
3328.85549	0.01708
3327.56972	0.01672
3326.28395	0.01678
3324.99819	0.01716
3323.71242	0.01762
3322.42665	0.01809
3321.14088	0.01871
3319.85511	0.01949
3318.56934	0.02012
3317.28357	0.02025
3315.99780	0.01979
3314.71204	0.01908
3313.42627	0.01862
3312.14050	0.01867
3310.85473	0.01913
3309.56896	0.01952
3308.28319	0.01940
3306.99742	0.01870
3305.71165	0.01784
3304.42588	0.01735
3303.14012	0.01739
3301.85435	0.01772
3300.56858	0.01796
3299.28281	0.01801
3297.99704	0.01805
3296.71127	0.01825
3295.42550	0.01858
3294.13973	0.01883
3292.85397	0.01889
3291.56820	0.01881
3290.28243	0.01874
3288.99666	0.01871
3287.71089	0.01862
3286.42512	0.01845
3285.13935	0.01837
3283.85358	0.01854
3282.56781	0.01885
3281.28205	0.01903
3279.99628	0.01892
3278.71051	0.01861
3277.42474	0.01834
3276.13897	0.01833
3274.85320	0.01865
3273.56743	0.01917
3272.28166	0.01968
3270.99590	0.02000
3269.71013	0.02006
3268.42436	0.01995
3267.13859	0.01983
3265.85282	0.01984
3264.56705	0.01998
3263.28128	0.02007
3261.99551	0.01999
3260.70974	0.01979
3259.42398	0.01966
3258.13821	0.01971
3256.85244	0.01988
3255.56667	0.01999
3254.28090	0.01995
3252.99513	0.01982
3251.70936	0.01969
3250.42359	0.01956
3249.13783	0.01936
3247.85206	0.01905
3246.56629	0.01872
3245.28052	0.01851
3243.99475	0.01847
3242.70898	0.01851
3241.42321	0.01858
3240.13744	0.01871
3238.85167	0.01893
3237.56591	0.01914
3236.28014	0.01921
3234.99437	0.01911
3233.70860	0.01900
3232.42283	0.01907
3231.13706	0.01936
3229.85129	0.01969
3228.56552	0.01991
3227.27976	0.01992
3225.99399	0.01981
3224.70822	0.01970
3223.42245	0.01962
3222.13668	0.01952
3220.85091	0.01933
3219.56514	0.01908
3218.27937	0.01885
3216.99360	0.01869
3215.70784	0.01861
3214.42207	0.01864
3213.13630	0.01872
3211.85053	0.01875
3210.56476	0.01868
3209.27899	0.01857
3207.99322	0.01843
3206.70745	0.01822
3205.42169	0.01794
3204.13592	0.01770
3202.85015	0.01761
3201.56438	0.01768
3200.27861	0.01787
3198.99284	0.01816
3197.70707	0.01859
3196.42130	0.01909
3195.13553	0.01952
3193.84977	0.01976
3192.56400	0.01980
3191.27823	0.01966
3189.99246	0.01935
3188.70669	0.01890
3187.42092	0.01840
3186.13515	0.01799
3184.84938	0.01772
3183.56362	0.01758
3182.27785	0.01759
3180.99208	0.01778
3179.70631	0.01805
3178.42054	0.01819
3177.13477	0.01808
3175.84900	0.01778
3174.56323	0.01754
3173.27746	0.01756
3171.99170	0.01785
3170.70593	0.01820
3169.42016	0.01840
3168.13439	0.01847
3166.84862	0.01864
3165.56285	0.01901
3164.27708	0.01940
3162.99131	0.01951
3161.70555	0.01928
3160.41978	0.01892
3159.13401	0.01878
3157.84824	0.01897
3156.56247	0.01932
3155.27670	0.01954
3153.99093	0.01948
3152.70516	0.01924
3151.41939	0.01901
3150.13363	0.01885
3148.84786	0.01869
3147.56209	0.01846
3146.27632	0.01822
3144.99055	0.01810
3143.70478	0.01816
3142.41901	0.01833
3141.13324	0.01846
3139.84748	0.01844
3138.56171	0.01823
3137.27594	0.01789
3135.99017	0.01756
3134.70440	0.01743
3133.41863	0.01755
3132.13286	0.01772
3130.84709	0.01768
3129.56132	0.01743
3128.27556	0.01726
3126.98979	0.01744
3125.70402	0.01791
3124.41825	0.01843
3123.13248	0.01880
3121.84671	0.01898
3120.56094	0.01899
3119.27517	0.01891
3117.98940	0.01884
3116.70364	0.01892
3115.41787	0.01922
3114.13210	0.01963
3112.84633	0.01985
3111.56056	0.01964
3110.27479	0.01908
3108.98902	0.01858
3107.70325	0.01845
3106.41749	0.01860
3105.13172	0.01871
3103.84595	0.01861
3102.56018	0.01848
3101.27441	0.01860
3099.98864	0.01903
3098.70287	0.01946
3097.41710	0.01951
3096.13133	0.01912
3094.84557	0.01858
3093.55980	0.01827
3092.27403	0.01829
3090.98826	0.01849
3089.70249	0.01868
3088.41672	0.01887
3087.13095	0.01912
3085.84518	0.01949
3084.55942	0.01989
3083.27365	0.02019
3081.98788	0.02024
3080.70211	0.02002
3079.41634	0.01959
3078.13057	0.01912
3076.84480	0.01873
3075.55903	0.01850
3074.27326	0.01843
3072.98750	0.01848
3071.70173	0.01854
3070.41596	0.01849
3069.13019	0.01830
3067.84442	0.01808
3066.55865	0.01797
3065.27288	0.01801
3063.98711	0.01810
3062.70135	0.01819
3061.41558	0.01826
3060.12981	0.01838
3058.84404	0.01858
3057.55827	0.01879
3056.27250	0.01888
3054.98673	0.01871
3053.70096	0.01828
3052.41519	0.01773
3051.12943	0.01730
3049.84366	0.01718
3048.55789	0.01740
3047.27212	0.01782
3045.98635	0.01825
3044.70058	0.01858
3043.41481	0.01874
3042.12904	0.01869
3040.84328	0.01847
3039.55751	0.01822
3038.27174	0.01805
3036.98597	0.01798
3035.70020	0.01792
3034.41443	0.01785
3033.12866	0.01781
3031.84289	0.01785
3030.55712	0.01795
3029.27136	0.01805
3027.98559	0.01812
3026.69982	0.01821
3025.41405	0.01830
3024.12828	0.01834
3022.84251	0.01837
3021.55674	0.01844
3020.27097	0.01859
3018.98521	0.01869
3017.69944	0.01867
3016.41367	0.01854
3015.12790	0.01838
3013.84213	0.01821
3012.55636	0.01803
3011.27059	0.01788
3009.98482	0.01785
3008.69905	0.01797
3007.41329	0.01818
3006.12752	0.01838
3004.84175	0.01848
3003.55598	0.01845
3002.27021	0.01831
3000.98444	0.01811
2999.69867	0.01792
2998.41290	0.01783
2997.12714	0.01786
2995.84137	0.01794
2994.55560	0.01802
2993.26983	0.01811
2991.98406	0.01828
2990.69829	0.01855
2989.41252	0.01876
2988.12675	0.01876
2986.84098	0.01866
2985.55522	0.01870
2984.26945	0.01893
2982.98368	0.01916
2981.69791	0.01929
2980.41214	0.01941
2979.12637	0.01964
2977.84060	0.01997
2976.55483	0.02030
2975.26907	0.02053
2973.98330	0.02059
2972.69753	0.02046
2971.41176	0.02028
2970.12599	0.02020
2968.84022	0.02026
2967.55445	0.02041
2966.26868	0.02063
2964.98291	0.02088
2963.69715	0.02113
2962.41138	0.02134
2961.12561	0.02152
2959.83984	0.02174
2958.55407	0.02204
2957.26830	0.02232
2955.98253	0.02250
2954.69676	0.02253
2953.41100	0.02252
2952.12523	0.02261
2950.83946	0.02282
2949.55369	0.02308
2948.26792	0.02329
2946.98215	0.02338
2945.69638	0.02331
2944.41061	0.02311
2943.12484	0.02287
2941.83908	0.02274
2940.55331	0.02277
2939.26754	0.02289
2937.98177	0.02297
2936.69600	0.02300
2935.41023	0.02303
2934.12446	0.02316
2932.83869	0.02346
2931.55293	0.02395
2930.26716	0.02449
2928.98139	0.02487
2927.69562	0.02499
2926.40985	0.02496
2925.12408	0.02493
2923.83831	0.02494
2922.55254	0.02499
2921.26677	0.02512
2919.98101	0.02523
2918.69524	0.02515
2917.40947	0.02480
2916.12370	0.02434
2914.83793	0.02395
2913.55216	0.02366
2912.26639	0.02345
2910.98062	0.02336
2909.69486	0.02345
2908.40909	0.02369
2907.12332	0.02389
2905.83755	0.02389
2904.55178	0.02366
2903.26601	0.02331
2901.98024	0.02305
2900.69447	0.02294
2899.40870	0.02289
2898.12294	0.02277
2896.83717	0.02263
2895.55140	0.02253
2894.26563	0.02242
2892.97986	0.02209
2891.69409	0.02155
2890.40832	0.02100
2889.12255	0.02069
2887.83678	0.02064
2886.55102	0.02072
2885.26525	0.02078
2883.97948	0.02078
2882.69371	0.02073
2881.40794	0.02071
2880.12217	0.02083
2878.83640	0.02113
2877.55063	0.02150
2876.26487	0.02171
2874.97910	0.02168
2873.69333	0.02147
2872.40756	0.02127
2871.12179	0.02122
2869.83602	0.02132
2868.55025	0.02147
2867.26448	0.02155
2865.97871	0.02153
2864.69295	0.02146
2863.40718	0.02142
2862.12141	0.02146
2860.83564	0.02161
2859.54987	0.02187
2858.26410	0.02215
2856.97833	0.02231
2855.69256	0.02221
2854.40680	0.02192
2853.12103	0.02165
2851.83526	0.02158
2850.54949	0.02164
2849.26372	0.02162
2847.97795	0.02138
2846.69218	0.02093
2845.40641	0.02039
2844.12064	0.01987
2842.83488	0.01948
2841.54911	0.01930
2840.26334	0.01931
2838.97757	0.01937
2837.69180	0.01933
2836.40603	0.01916
2835.12026	0.01891
2833.83449	0.01865
2832.54873	0.01836
2831.26296	0.01806
2829.97719	0.01785
2828.69142	0.01780
2827.40565	0.01788
2826.11988	0.01793
2824.83411	0.01785
2823.54834	0.01774
2822.26257	0.01777
2820.97681	0.01795
2819.69104	0.01812
2818.40527	0.01809
2817.11950	0.01782
2815.83373	0.01749
2814.54796	0.01730
2813.26219	0.01734
2811.97642	0.01754
2810.69066	0.01773
2809.40489	0.01785
2808.11912	0.01786
2806.83335	0.01777
2805.54758	0.01758
2804.26181	0.01737
2802.97604	0.01722
2801.69027	0.01716
2800.40450	0.01716
2799.11874	0.01725
2797.83297	0.01739
2796.54720	0.01752
2795.26143	0.01753
2793.97566	0.01739
2792.68989	0.01716
2791.40412	0.01696
2790.11835	0.01690
2788.83259	0.01701
2787.54682	0.01719
2786.26105	0.01729
2784.97528	0.01726
2783.68951	0.01713
2782.40374	0.01701
2781.11797	0.01691
2779.83220	0.01682
2778.54643	0.01670
2777.26067	0.01659
2775.97490	0.01651
2774.68913	0.01645
2773.40336	0.01642
2772.11759	0.01641
2770.83182	0.01639
2769.54605	0.01631
2768.26028	0.01621
2766.97452	0.01618
2765.68875	0.01633
2764.40298	0.01664
2763.11721	0.01692
2761.83144	0.01697
2760.54567	0.01676
2759.25990	0.01650
2757.97413	0.01642
2756.68836	0.01660
2755.40260	0.01685
2754.11683	0.01693
2752.83106	0.01676
2751.54529	0.01649
2750.25952	0.01631
2748.97375	0.01631
2747.68798	0.01643
2746.40221	0.01655
2745.11645	0.01658
2743.83068	0.01655
2742.54491	0.01651
2741.25914	0.01647
2739.97337	0.01634
2738.68760	0.01613
2737.40183	0.01598
2736.11606	0.01601
2734.83029	0.01622
2733.54453	0.01646
2732.25876	0.01658
2730.97299	0.01649
2729.68722	0.01626
2728.40145	0.01607
2727.11568	0.01605
2725.82991	0.01613
2724.54414	0.01613
2723.25838	0.01598
2721.97261	0.01581
2720.68684	0.01580
2719.40107	0.01598
2718.11530	0.01621
2716.82953	0.01636
2715.54376	0.01645
2714.25799	0.01654
2712.97222	0.01658
2711.68646	0.01646
2710.40069	0.01619
2709.11492	0.01588
2707.82915	0.01564
2706.54338	0.01553
2705.25761	0.01552
2703.97184	0.01557
2702.68607	0.01559
2701.40031	0.01558
2700.11454	0.01556
2698.82877	0.01555
2697.54300	0.01561
2696.25723	0.01576
2694.97146	0.01597
2693.68569	0.01614
2692.39992	0.01621
2691.11415	0.01618
2689.82839	0.01613
2688.54262	0.01610
2687.25685	0.01609
2685.97108	0.01603
2684.68531	0.01586
2683.39954	0.01561
2682.11377	0.01539
2680.82800	0.01525
2679.54224	0.01522
2678.25647	0.01528
2676.97070	0.01540
2675.68493	0.01556
2674.39916	0.01567
2673.11339	0.01572
2671.82762	0.01572
2670.54185	0.01567
2669.25608	0.01561
2667.97032	0.01555
2666.68455	0.01552
2665.39878	0.01551
2664.11301	0.01555
2662.82724	0.01568
2661.54147	0.01589
2660.25570	0.01612
2658.96993	0.01629
2657.68417	0.01635
2656.39840	0.01628
2655.11263	0.01613
2653.82686	0.01599
2652.54109	0.01589
2651.25532	0.01583
2649.96955	0.01577
2648.68378	0.01564
2647.39801	0.01545
2646.11225	0.01523
2644.82648	0.01500
2643.54071	0.01474
2642.25494	0.01442
2640.96917	0.01414
2639.68340	0.01402
2638.39763	0.01408
2637.11186	0.01415
2635.82609	0.01409
2634.54033	0.01389
2633.25456	0.01373
2631.96879	0.01378
2630.68302	0.01401
2629.39725	0.01423
2628.11148	0.01423
2626.82571	0.01398
2625.53994	0.01364
2624.25418	0.01338
2622.96841	0.01320
2621.68264	0.01300
2620.39687	0.01272
2619.11110	0.01241
2617.82533	0.01217
2616.53956	0.01204
2615.25379	0.01206
2613.96802	0.01216
2612.68226	0.01221
2611.39649	0.01216
2610.11072	0.01212
2608.82495	0.01227
2607.53918	0.01257
2606.25341	0.01279
2604.96764	0.01277
2603.68187	0.01258
2602.39611	0.01236
2601.11034	0.01220
2599.82457	0.01215
2598.53880	0.01225
2597.25303	0.01244
2595.96726	0.01258
2594.68149	0.01257
2593.39572	0.01240
2592.10995	0.01223
2590.82419	0.01217
2589.53842	0.01224
2588.25265	0.01230
2586.96688	0.01229
2585.68111	0.01228
2584.39534	0.01239
2583.10957	0.01260
2581.82380	0.01270
2580.53804	0.01248
2579.25227	0.01191
2577.96650	0.01124
2576.68073	0.01079
2575.39496	0.01072
2574.10919	0.01095
2572.82342	0.01123
2571.53765	0.01128
2570.25188	0.01100
2568.96612	0.01057
2567.68035	0.01030
2566.39458	0.01037
2565.10881	0.01067
2563.82304	0.01095
2562.53727	0.01110
2561.25150	0.01114
2559.96573	0.01110
2558.67997	0.01098
2557.39420	0.01080
2556.10843	0.01064
2554.82266	0.01058
2553.53689	0.01066
2552.25112	0.01086
2550.96535	0.01100
2549.67958	0.01085
2548.39381	0.01039
2547.10805	0.00983
2545.82228	0.00942
2544.53651	0.00921
2543.25074	0.00917
2541.96497	0.00925
2540.67920	0.00946
2539.39343	0.00975
2538.10766	0.01008
2536.82190	0.01030
2535.53613	0.01032
2534.25036	0.01018
2532.96459	0.01010
2531.67882	0.01018
2530.39305	0.01034
2529.10728	0.01048
2527.82151	0.01056
2526.53574	0.01063
2525.24998	0.01069
2523.96421	0.01070
2522.67844	0.01068
2521.39267	0.01063
2520.10690	0.01054
2518.82113	0.01038
2517.53536	0.01015
2516.24959	0.00990
2514.96383	0.00969
2513.67806	0.00954
2512.39229	0.00946
2511.10652	0.00944
2509.82075	0.00949
2508.53498	0.00956
2507.24921	0.00952
2505.96344	0.00941
2504.67767	0.00944
2503.39191	0.00977
2502.10614	0.01026
2500.82037	0.01055
2499.53460	0.01050
2498.24883	0.01031
2496.96306	0.01028
2495.67729	0.01040
2494.39152	0.01051
2493.10576	0.01054
2491.81999	0.01053
2490.53422	0.01053
2489.24845	0.01061
2487.96268	0.01081
2486.67691	0.01107
2485.39114	0.01123
2484.10537	0.01115
2482.81960	0.01086
2481.53384	0.01051
2480.24807	0.01023
2478.96230	0.01008
2477.67653	0.01002
2476.39076	0.01000
2475.10499	0.00988
2473.81922	0.00967
2472.53345	0.00950
2471.24769	0.00949
2469.96192	0.00966
2468.67615	0.00991
2467.39038	0.01016
2466.10461	0.01035
2464.81884	0.01042
2463.53307	0.01036
2462.24730	0.01023
2460.96153	0.01012
2459.67577	0.01010
2458.39000	0.01028
2457.10423	0.01075
2455.81846	0.01136
2454.53269	0.01176
2453.24692	0.01171
2451.96115	0.01131
2450.67538	0.01090
2449.38962	0.01059
2448.10385	0.01029
2446.81808	0.00991
2445.53231	0.00948
2444.24654	0.00914
2442.96077	0.00896
2441.67500	0.00899
2440.38923	0.00920
2439.10346	0.00946
2437.81770	0.00965
2436.53193	0.00970
2435.24616	0.00971
2433.96039	0.00983
2432.67462	0.01014
2431.38885	0.01057
2430.10308	0.01089
2428.81731	0.01090
2427.53155	0.01061
2426.24578	0.01025
2424.96001	0.01006
2423.67424	0.01006
2422.38847	0.01009
2421.10270	0.01008
2419.81693	0.01010
2418.53116	0.01021
2417.24539	0.01032
2415.95963	0.01033
2414.67386	0.01024
2413.38809	0.01017
2412.10232	0.01018
2410.81655	0.01030
2409.53078	0.01049
2408.24501	0.01061
2406.95924	0.01054
2405.67347	0.01028
2404.38771	0.00996
2403.10194	0.00972
2401.81617	0.00961
2400.53040	0.00964
2399.24463	0.01062
2397.95886	0.01125
2396.67309	0.01121
2395.38732	0.01083
2394.10156	0.01039
2392.81579	0.00998
2391.53002	0.00963
2390.24425	0.00933
2388.95848	0.00914
2387.67271	0.00911
2386.38694	0.00923
2385.10117	0.00936
2383.81540	0.00931
2382.52964	0.00903
2381.24387	0.00873
2379.95810	0.00850
2378.67233	0.00849
2377.38656	0.00884
2376.10079	0.00888
2374.81502	0.00849
2373.52925	0.00800
2372.24349	0.00723
2370.95772	0.00654
2369.67195	0.00514
2368.38618	0.00358
2367.10041	0.00317
2365.81464	0.00330
2364.52887	0.00203
2363.24310	0.00021
2361.95733	-0.00037
2360.67157	0.00025
2359.38580	0.00041
2358.10003	0.00073
2356.81426	0.00141
2355.52849	0.00154
2354.24272	0.00144
2352.95695	0.00135
2351.67118	0.00253
2350.38542	0.00608
2349.09965	0.00833
2347.81388	0.00556
2346.52811	0.00133
2345.24234	0.00029
2343.95657	0.00203
2342.67080	0.00338
2341.38503	0.00411
2340.09926	0.00512
2338.81350	0.00604
2337.52773	0.00680
2336.24196	0.00640
2334.95619	0.00584
2333.67042	0.00634
2332.38465	0.00660
2331.09888	0.00667
2329.81311	0.00706
2328.52735	0.00677
2327.24158	0.00674
2325.95581	0.00742
2324.67004	0.00792
2323.38427	0.00858
2322.09850	0.00937
2320.81273	0.00918
2319.52696	0.00881
2318.24119	0.00870
2316.95543	0.00841
2315.66966	0.00813
2314.38389	0.00810
2313.09812	0.00847
2311.81235	0.00904
2310.52658	0.00937
2309.24081	0.00967
2307.95504	0.00990
2306.66928	0.00979
2305.38351	0.00969
2304.09774	0.00948
2302.81197	0.00913
2301.52620	0.00886
2300.24043	0.00879
2298.95466	0.00893
2297.66889	0.00901
2296.38312	0.00903
2295.09736	0.00901
2293.81159	0.00901
2292.52582	0.00901
2291.24005	0.00885
2289.95428	0.00856
2288.66851	0.00830
2287.38274	0.00827
2286.09697	0.00856
2284.81121	0.00917
2283.52544	0.00988
2282.23967	0.01039
2280.95390	0.01049
2279.66813	0.01010
2278.38236	0.00946
2277.09659	0.00889
2275.81082	0.00863
2274.52505	0.00865
2273.23929	0.00868
2271.95352	0.00861
2270.66775	0.00845
2269.38198	0.00827
2268.09621	0.00806
2266.81044	0.00784
2265.52467	0.00763
2264.23890	0.00747
2262.95314	0.00744
2261.66737	0.00750
2260.38160	0.00766
2259.09583	0.00793
2257.81006	0.00812
2256.52429	0.00812
2255.23852	0.00797
2253.95275	0.00784
2252.66698	0.00773
2251.38122	0.00751
2250.09545	0.00720
2248.80968	0.00685
2247.52391	0.00590
2246.23814	0.00505
2244.95237	0.00461
2243.66660	0.00476
2242.38083	0.00536
2241.09507	0.00594
2239.80930	0.00605
2238.52353	0.00566
2237.23776	0.00523
2235.95199	0.00526
2234.66622	0.00576
2233.38045	0.00638
2232.09468	0.00680
2230.80891	0.00704
2229.52315	0.00727
2228.23738	0.00750
2226.95161	0.00755
2225.66584	0.00724
2224.38007	0.00651
2223.09430	0.00545
2221.80853	0.00429
2220.52276	0.00343
2219.23700	0.00321
2217.95123	0.00367
2216.66546	0.00447
2215.37969	0.00504
2214.09392	0.00502
2212.80815	0.00454
2211.52238	0.00410
2210.23661	0.00410
2208.95084	0.00444
2207.66508	0.00470
2206.37931	0.00449
2205.09354	0.00380
2203.80777	0.00298
2202.52200	0.00257
2201.23623	0.00291
2199.95046	0.00385
2198.66469	0.00471
2197.37893	0.00495
2196.09316	0.00464
2194.80739	0.00435
2193.52162	0.00448
2192.23585	0.00487
2190.95008	0.00486
2189.66431	0.00389
2188.37854	0.00203
2187.09277	0.00010
2185.80701	-0.00100
2184.52124	-0.00108
2183.23547	-0.00062
2181.94970	-0.00005
2180.66393	0.00058
2179.37816	0.00127
2178.09239	0.00168
2176.80662	0.00149
2175.52085	0.00082
2174.23509	0.00016
2172.94932	-0.00010
2171.66355	0.00009
2170.37778	0.00046
2169.09201	0.00073
2167.80624	0.00068
2166.52047	0.00038
2165.23470	0.00031
2163.94894	0.00093
2162.66317	0.00203
2161.37740	0.00264
2160.09163	0.00180
2158.80586	-0.00036
2157.52009	-0.00266
2156.23432	-0.00382
2154.94855	-0.00344
2153.66278	-0.00196
2152.37702	-0.00009
2151.09125	0.00169
2149.80548	0.00321
2148.51971	0.00433
2147.23394	0.00476
2145.94817	0.00442
2144.66240	0.00352
2143.37663	0.00251
2142.09087	0.00191
2140.80510	0.00217
2139.51933	0.00334
2138.23356	0.00477
2136.94779	0.00554
2135.66202	0.00527
2134.37625	0.00440
2133.09048	0.00357
2131.80471	0.00315
2130.51895	0.00320
2129.23318	0.00357
2127.94741	0.00400
2126.66164	0.00416
2125.37587	0.00395
2124.09010	0.00355
2122.80433	0.00333
2121.51856	0.00353
2120.23280	0.00416
2118.94703	0.00488
2117.66126	0.00522
2116.37549	0.00503
2115.08972	0.00461
2113.80395	0.00436
2112.51818	0.00435
2111.23241	0.00442
2109.94664	0.00456
2108.66088	0.00492
2107.37511	0.00550
2106.08934	0.00601
2104.80357	0.00617
2103.51780	0.00599
2102.23203	0.00570
2100.94626	0.00544
2099.66049	0.00535
2098.37473	0.00484
2097.08896	0.00413
2095.80319	0.00377
2094.51742	0.00408
2093.23165	0.00484
2091.94588	0.00549
2090.66011	0.00555
2089.37434	0.00502
2088.08857	0.00432
2086.80281	0.00393
2085.51704	0.00390
2084.23127	0.00397
2082.94550	0.00399
2081.65973	0.00410
2080.37396	0.00447
2079.08819	0.00492
2077.80242	0.00503
2076.51666	0.00461
2075.23089	0.00393
2073.94512	0.00343
2072.65935	0.00338
2071.37358	0.00366
2070.08781	0.00408
2068.80204	0.00450
2067.51627	0.00483
2066.23050	0.00497
2064.94474	0.00487
2063.65897	0.00460
2062.37320	0.00425
2061.08743	0.00377
2059.80166	0.00310
2058.51589	0.00233
2057.23012	0.00176
2055.94435	0.00170
2054.65859	0.00222
2053.37282	0.00307
2052.08705	0.00391
2050.80128	0.00454
2049.51551	0.00493
2048.22974	0.00499
2046.94397	0.00452
2045.65820	0.00356
2044.37243	0.00264
2043.08667	0.00247
2041.80090	0.00330
2040.51513	0.00456
2039.22936	0.00531
2037.94359	0.00496
2036.65782	0.00383
2035.37205	0.00278
2034.08628	0.00240
2032.80052	0.00248
2031.51475	0.00246
2030.22898	0.00202
2028.94321	0.00124
2027.65744	0.00042
2026.37167	-0.00011
2025.08590	-0.00014
2023.80013	0.00021
2022.51436	0.00055
2021.22860	0.00068
2019.94283	0.00080
2018.65706	0.00119
2017.37129	0.00187
2016.08552	0.00255
2014.79975	0.00303
2013.51398	0.00348
2012.22821	0.00417
2010.94245	0.00493
2009.65668	0.00512
2008.37091	0.00438
2007.08514	0.00320
2005.79937	0.00237
2004.51360	0.00219
2003.22783	0.00228
2001.94206	0.00226
2000.65629	0.00214
1999.37053	0.00217
1998.08476	0.00243
1996.79899	0.00277
1995.51322	0.00301
1994.22745	0.00313
1992.94168	0.00319
1991.65591	0.00322
1990.37014	0.00328
1989.08438	0.00347
1987.79861	0.00390
1986.51284	0.00448
1985.22707	0.00493
1983.94130	0.00498
1982.65553	0.00458
1981.36976	0.00394
1980.08399	0.00334
1978.79822	0.00293
1977.51246	0.00267
1976.22669	0.00259
1974.94092	0.00280
1973.65515	0.00342
1972.36938	0.00437
1971.08361	0.00546
1969.79784	0.00645
1968.51207	0.00715
1967.22631	0.00742
1965.94054	0.00717
1964.65477	0.00637
1963.36900	0.00516
1962.08323	0.00395
1960.79746	0.00326
1959.51169	0.00327
1958.22592	0.00369
1956.94015	0.00412
1955.65439	0.00442
1954.36862	0.00474
1953.08285	0.00518
1951.79708	0.00561
1950.51131	0.00579
1949.22554	0.00558
1947.93977	0.00496
1946.65400	0.00413
1945.36823	0.00351
1944.08247	0.00352
1942.79670	0.00419
1941.51093	0.00509
1940.22516	0.00569
1938.93939	0.00586
1937.65362	0.00580
1936.36785	0.00574
1935.08208	0.00580
1933.79632	0.00600
1932.51055	0.00629
1931.22478	0.00646
1929.93901	0.00633
1928.65324	0.00582
1927.36747	0.00513
1926.08170	0.00451
1924.79593	0.00423
1923.51016	0.00436
1922.22440	0.00479
1920.93863	0.00530
1919.65286	0.00566
1918.36709	0.00579
1917.08132	0.00577
1915.79555	0.00579
1914.50978	0.00596
1913.22401	0.00621
1911.93825	0.00633
1910.65248	0.00618
1909.36671	0.00584
1908.08094	0.00556
1906.79517	0.00556
1905.50940	0.00584
1904.22363	0.00619
1902.93786	0.00641
1901.65209	0.00649
1900.36633	0.00655
1899.08056	0.00671
1897.79479	0.00689
1896.50902	0.00695
1895.22325	0.00679
1893.93748	0.00652
1892.65171	0.00634
1891.36594	0.00639
1890.08018	0.00660
1888.79441	0.00680
1887.50864	0.00693
1886.22287	0.00704
1884.93710	0.00717
1883.65133	0.00724
1882.36556	0.00713
1881.07979	0.00682
1879.79402	0.00641
1878.50826	0.00611
1877.22249	0.00607
1875.93672	0.00628
1874.65095	0.00657
1873.36518	0.00683
1872.07941	0.00706
1870.79364	0.00729
1869.50787	0.00742
1868.22211	0.00732
1866.93634	0.00698
1865.65057	0.00655
1864.36480	0.00627
1863.07903	0.00623
1861.79326	0.00640
1860.50749	0.00662
1859.22172	0.00679
1857.93595	0.00691
1856.65019	0.00704
1855.36442	0.00720
1854.07865	0.00730
1852.79288	0.00728
1851.50711	0.00714
1850.22134	0.00703
1848.93557	0.00707
1847.64980	0.00731
1846.36404	0.00765
1845.07827	0.00787
1843.79250	0.00783
1842.50673	0.00755
1841.22096	0.00719
1839.93519	0.00693
1838.64942	0.00683
1837.36365	0.00679
1836.07788	0.00667
1834.79212	0.00645
1833.50635	0.00624
1832.22058	0.00619
1830.93481	0.00633
1829.64904	0.00657
1828.36327	0.00679
1827.07750	0.00692
1825.79173	0.00697
1824.50597	0.00699
1823.22020	0.00706
1821.93443	0.00718
1820.64866	0.00728
1819.36289	0.00725
1818.07712	0.00705
1816.79135	0.00683
1815.50558	0.00675
1814.21981	0.00685
1812.93405	0.00699
1811.64828	0.00704
1810.36251	0.00702
1809.07674	0.00703
1807.79097	0.00713
1806.50520	0.00726
1805.21943	0.00732
1803.93366	0.00733
1802.64790	0.00732
1801.36213	0.00729
1800.07636	0.00716
1798.79059	0.00696
1797.50482	0.00683
1796.21905	0.00690
1794.93328	0.00720
1793.64751	0.00759
1792.36174	0.00790
1791.07598	0.00801
1789.79021	0.00795
1788.50444	0.00779
1787.21867	0.00764
1785.93290	0.00753
1784.64713	0.00746
1783.36136	0.00744
1782.07559	0.00746
1780.78983	0.00750
1779.50406	0.00754
1778.21829	0.00756
1776.93252	0.00762
1775.64675	0.00773
1774.36098	0.00785
1773.07521	0.00789
1771.78944	0.00780
1770.50367	0.00768
1769.21791	0.00762
1767.93214	0.00765
1766.64637	0.00773
1765.36060	0.00784
1764.07483	0.00796
1762.78906	0.00803
1761.50329	0.00801
1760.21752	0.00794
1758.93176	0.00785
1757.64599	0.00776
1756.36022	0.00768
1755.07445	0.00765
1753.78868	0.00773
1752.50291	0.00787
1751.21714	0.00798
1749.93137	0.00797
1748.64560	0.00785
1747.35984	0.00774
1746.07407	0.00770
1744.78830	0.00774
1743.50253	0.00781
1742.21676	0.00789
1740.93099	0.00793
1739.64522	0.00796
1738.35945	0.00802
1737.07369	0.00819
1735.78792	0.00844
1734.50215	0.00868
1733.21638	0.00877
1731.93061	0.00868
1730.64484	0.00849
1729.35907	0.00829
1728.07330	0.00814
1726.78753	0.00809
1725.50177	0.00814
1724.21600	0.00823
1722.93023	0.00835
1721.64446	0.00853
1720.35869	0.00881
1719.07292	0.00911
1717.78715	0.00933
1716.50138	0.00936
1715.21561	0.00927
1713.92985	0.00916
1712.64408	0.00914
1711.35831	0.00925
1710.07254	0.00946
1708.78677	0.00975
1707.50100	0.01007
1706.21523	0.01039
1704.92946	0.01073
1703.64370	0.01115
1702.35793	0.01164
1701.07216	0.01211
1699.78639	0.01246
1698.50062	0.01268
1697.21485	0.01285
1695.92908	0.01296
1694.64331	0.01300
1693.35754	0.01302
1692.07178	0.01313
1690.78601	0.01340
1689.50024	0.01382
1688.21447	0.01435
1686.92870	0.01493
1685.64293	0.01548
1684.35716	0.01585
1683.07139	0.01599
1681.78563	0.01601
1680.49986	0.01610
1679.21409	0.01637
1677.92832	0.01679
1676.64255	0.01726
1675.35678	0.01767
1674.07101	0.01800
1672.78524	0.01829
1671.49947	0.01862
1670.21371	0.01895
1668.92794	0.01925
1667.64217	0.01950
1666.35640	0.01975
1665.07063	0.02007
1663.78486	0.02042
1662.49909	0.02071
1661.21332	0.02087
1659.92756	0.02098
1658.64179	0.02117
1657.35602	0.02159
1656.07025	0.02225
1654.78448	0.02296
1653.49871	0.02343
1652.21294	0.02348
1650.92717	0.02324
1649.64140	0.02302
1648.35564	0.02298
1647.06987	0.02300
1645.78410	0.02292
1644.49833	0.02270
1643.21256	0.02245
1641.92679	0.02229
1640.64102	0.02225
1639.35525	0.02232
1638.06949	0.02247
1636.78372	0.02261
1635.49795	0.02259
1634.21218	0.02233
1632.92641	0.02193
1631.64064	0.02154
1630.35487	0.02126
1629.06910	0.02106
1627.78333	0.02086
1626.49757	0.02063
1625.21180	0.02041
1623.92603	0.02019
1622.64026	0.01994
1621.35449	0.01966
1620.06872	0.01942
1618.78295	0.01923
1617.49718	0.01905
1616.21142	0.01879
1614.92565	0.01841
1613.63988	0.01803
1612.35411	0.01775
1611.06834	0.01761
1609.78257	0.01757
1608.49680	0.01754
1607.21103	0.01749
1605.92526	0.01739
1604.63950	0.01725
1603.35373	0.01712
1602.06796	0.01702
1600.78219	0.01696
1599.49642	0.01694
1598.21065	0.01694
1596.92488	0.01695
1595.63911	0.01696
1594.35335	0.01697
1593.06758	0.01699
1591.78181	0.01700
1590.49604	0.01703
1589.21027	0.01710
1587.92450	0.01722
1586.63873	0.01738
1585.35296	0.01754
1584.06719	0.01768
1582.78143	0.01778
1581.49566	0.01790
1580.20989	0.01811
1578.92412	0.01845
1577.63835	0.01886
1576.35258	0.01920
1575.06681	0.01934
1573.78104	0.01935
1572.49528	0.01940
1571.20951	0.01957
1569.92374	0.01984
1568.63797	0.02009
1567.35220	0.02026
1566.06643	0.02038
1564.78066	0.02054
1563.49489	0.02086
1562.20912	0.02138
1560.92336	0.02203
1559.63759	0.02258
1558.35182	0.02283
1557.06605	0.02277
1555.78028	0.02257
1554.49451	0.02236
1553.20874	0.02221
1551.92297	0.02210
1550.63721	0.02206
1549.35144	0.02209
1548.06567	0.02221
1546.77990	0.02243
1545.49413	0.02274
1544.20836	0.02311
1542.92259	0.02348
1541.63682	0.02375
1540.35105	0.02381
1539.06529	0.02364
1537.77952	0.02334
1536.49375	0.02308
1535.20798	0.02297
1533.92221	0.02296
1532.63644	0.02294
1531.35067	0.02290
1530.06490	0.02290
1528.77914	0.02302
1527.49337	0.02325
1526.20760	0.02355
1524.92183	0.02389
1523.63606	0.02427
1522.35029	0.02465
1521.06452	0.02494
1519.77875	0.02511
1518.49298	0.02522
1517.20722	0.02536
1515.92145	0.02554
1514.63568	0.02576
1513.34991	0.02602
1512.06414	0.02635
1510.77837	0.02683
1509.49260	0.02747
1508.20683	0.02817
1506.92107	0.02873
1505.63530	0.02900
1504.34953	0.02905
1503.06376	0.02910
1501.77799	0.02933
1500.49222	0.02974
1499.20645	0.03021
1497.92068	0.03059
1496.63491	0.03082
1495.34915	0.03094
1494.06338	0.03105
1492.77761	0.03128
1491.49184	0.03165
1490.20607	0.03209
1488.92030	0.03249
1487.63453	0.03280
1486.34876	0.03305
1485.06299	0.03334
1483.77723	0.03372
1482.49146	0.03421
1481.20569	0.03475
1479.91992	0.03530
1478.63415	0.03584
1477.34838	0.03641
1476.06261	0.03701
1474.77684	0.03763
1473.49108	0.03816
1472.20531	0.03853
1470.91954	0.03872
1469.63377	0.03882
1468.34800	0.03893
1467.06223	0.03908
1465.77646	0.03924
1464.49069	0.03935
1463.20492	0.03945
1461.91916	0.03964
1460.63339	0.04000
1459.34762	0.04054
1458.06185	0.04108
1456.77608	0.04141
1455.49031	0.04147
1454.20454	0.04140
1452.91877	0.04137
1451.63301	0.04146
1450.34724	0.04161
1449.06147	0.04171
1447.77570	0.04169
1446.48993	0.04155
1445.20416	0.04133
1443.91839	0.04110
1442.63262	0.04089
1441.34685	0.04074
1440.06109	0.04068
1438.77532	0.04069
1437.48955	0.04068
1436.20378	0.04059
1434.91801	0.04042
1433.63224	0.04029
1432.34647	0.04028
1431.06070	0.04042
1429.77494	0.04071
1428.48917	0.04110
1427.20340	0.04156
1425.91763	0.04206
1424.63186	0.04258
1423.34609	0.04316
1422.06032	0.04380
1420.77455	0.04446
1419.48878	0.04503
1418.20302	0.04543
1416.91725	0.04564
1415.63148	0.04574
1414.34571	0.04579
1413.05994	0.04582
1411.77417	0.04581
1410.48840	0.04575
1409.20263	0.04563
1407.91687	0.04543
1406.63110	0.04515
1405.34533	0.04480
1404.05956	0.04436
1402.77379	0.04384
1401.48802	0.04324
1400.20225	0.04260
1398.91648	0.04194
1397.63071	0.04129
1396.34495	0.04062
1395.05918	0.03987
1393.77341	0.03901
1392.48764	0.03805
1391.20187	0.03709
1389.91610	0.03619
1388.63033	0.03539
1387.34456	0.03464
1386.05880	0.03388
1384.77303	0.03309
1383.48726	0.03230
1382.20149	0.03155
1380.91572	0.03086
1379.62995	0.03021
1378.34418	0.02955
1377.05841	0.02887
1375.77264	0.02813
1374.48688	0.02732
1373.20111	0.02644
1371.91534	0.02554
1370.62957	0.02468
1369.34380	0.02393
1368.05803	0.02328
1366.77226	0.02274
1365.48649	0.02225
1364.20073	0.02178
1362.91496	0.02127
1361.62919	0.02072
1360.34342	0.02016
1359.05765	0.01963
1357.77188	0.01918
1356.48611	0.01879
1355.20034	0.01846
1353.91457	0.01816
1352.62881	0.01788
1351.34304	0.01761
1350.05727	0.01734
1348.77150	0.01706
1347.48573	0.01678
1346.19996	0.01653
1344.91419	0.01630
1343.62842	0.01612
1342.34266	0.01597
1341.05689	0.01584
1339.77112	0.01572
1338.48535	0.01562
1337.19958	0.01554
1335.91381	0.01551
1334.62804	0.01547
1333.34227	0.01538
1332.05650	0.01520
1330.77074	0.01499
1329.48497	0.01479
1328.19920	0.01463
1326.91343	0.01448
1325.62766	0.01432
1324.34189	0.01416
1323.05612	0.01402
1321.77035	0.01391
1320.48459	0.01383
1319.19882	0.01375
1317.91305	0.01363
1316.62728	0.01348
1315.34151	0.01334
1314.05574	0.01327
1312.76997	0.01326
1311.48420	0.01329
1310.19843	0.01327
1308.91267	0.01318
1307.62690	0.01306
1306.34113	0.01292
1305.05536	0.01280
1303.76959	0.01270
1302.48382	0.01260
1301.19805	0.01251
1299.91228	0.01242
1298.62652	0.01233
1297.34075	0.01224
1296.05498	0.01216
1294.76921	0.01207
1293.48344	0.01200
1292.19767	0.01197
1290.91190	0.01197
1289.62613	0.01197
1288.34036	0.01195
1287.05460	0.01194
1285.76883	0.01194
1284.48306	0.01194
1283.19729	0.01190
1281.91152	0.01182
1280.62575	0.01171
1279.33998	0.01158
1278.05421	0.01146
1276.76845	0.01140
1275.48268	0.01137
1274.19691	0.01136
1272.91114	0.01135
1271.62537	0.01132
1270.33960	0.01130
1269.05383	0.01127
1267.76806	0.01124
1266.48229	0.01120
1265.19653	0.01114
1263.91076	0.01107
1262.62499	0.01100
1261.33922	0.01096
1260.05345	0.01093
1258.76768	0.01092
1257.48191	0.01091
1256.19614	0.01092
1254.91037	0.01095
1253.62461	0.01099
1252.33884	0.01103
1251.05307	0.01104
1249.76730	0.01102
1248.48153	0.01094
1247.19576	0.01082
1245.90999	0.01066
1244.62422	0.01053
1243.33846	0.01045
1242.05269	0.01042
1240.76692	0.01041
1239.48115	0.01036
1238.19538	0.01029
1236.90961	0.01023
1235.62384	0.01018
1234.33807	0.01013
1233.05230	0.01004
1231.76654	0.00992
1230.48077	0.00983
1229.19500	0.00979
1227.90923	0.00976
1226.62346	0.00972
1225.33769	0.00966
1224.05192	0.00962
1222.76615	0.00959
1221.48039	0.00954
1220.19462	0.00943
1218.90885	0.00928
1217.62308	0.00912
1216.33731	0.00900
1215.05154	0.00894
1213.76577	0.00895
1212.48000	0.00900
1211.19423	0.00906
1209.90847	0.00908
1208.62270	0.00908
1207.33693	0.00907
1206.05116	0.00905
1204.76539	0.00904
1203.47962	0.00903
1202.19385	0.00900
1200.90808	0.00894
1199.62232	0.00883
1198.33655	0.00878
1197.05078	0.00874
1195.76501	0.00870
1194.47924	0.00866
1193.19347	0.00860
1191.90770	0.00854
1190.62193	0.00848
1189.33616	0.00841
1188.05040	0.00835
1186.76463	0.00835
1185.47886	0.00840
1184.19309	0.00847
1182.90732	0.00850
1181.62155	0.00848
1180.33578	0.00842
1179.05001	0.00835
1177.76425	0.00827
1176.47848	0.00822
1175.19271	0.00821
1173.90694	0.00823
1172.62117	0.00829
1171.33540	0.00836
1170.04963	0.00842
1168.76386	0.00846
1167.47809	0.00851
1166.19233	0.00862
1164.90656	0.00876
1163.62079	0.00889
1162.33502	0.00896
1161.04925	0.00898
1159.76348	0.00898
1158.47771	0.00900
1157.19194	0.00905
1155.90618	0.00913
1154.62041	0.00920
1153.33464	0.00927
1152.04887	0.00935
1150.76310	0.00944
1149.47733	0.00957
1148.19156	0.00971
1146.90579	0.00987
1145.62002	0.01008
1144.33426	0.01034
1143.04849	0.01064
1141.76272	0.01094
1140.47695	0.01123
1139.19118	0.01158
1137.90541	0.01203
1136.61964	0.01259
1135.33387	0.01318
1134.04811	0.01376
1132.76234	0.01436
1131.47657	0.01501
1130.19080	0.01577
1128.90503	0.01664
1127.61926	0.01765
1126.33349	0.01882
1125.04772	0.02016
1123.76195	0.02163
1122.47619	0.02315
1121.19042	0.02464
1119.90465	0.02610
1118.61888	0.02755
1117.33311	0.02906
1116.04734	0.03067
1114.76157	0.03235
1113.47580	0.03407
1112.19004	0.03575
1110.90427	0.03733
1109.61850	0.03880
1108.33273	0.04020
1107.04696	0.04153
1105.76119	0.04281
1104.47542	0.04399
1103.18965	0.04512
1101.90388	0.04629
1100.61812	0.04752
1099.33235	0.04876
1098.04658	0.04990
1096.76081	0.05092
1095.47504	0.05187
1094.18927	0.05279
1092.90350	0.05369
1091.61773	0.05457
1090.33197	0.05541
1089.04620	0.05621
1087.76043	0.05697
1086.47466	0.05772
1085.18889	0.05850
1083.90312	0.05932
1082.61735	0.06012
1081.33158	0.06089
1080.04581	0.06166
1078.76005	0.06252
1077.47428	0.06349
1076.18851	0.06457
1074.90274	0.06576
1073.61697	0.06702
1072.33120	0.06836
1071.04543	0.06975
1069.75966	0.07118
1068.47390	0.07260
1067.18813	0.07400
1065.90236	0.07539
1064.61659	0.07679
1063.33082	0.07816
1062.04505	0.07947
1060.75928	0.08073
1059.47351	0.08200
1058.18774	0.08334
1056.90198	0.08473
1055.61621	0.08614
1054.33044	0.08752
1053.04467	0.08886
1051.75890	0.09012
1050.47313	0.09127
1049.18736	0.09237
1047.90159	0.09349
1046.61583	0.09473
1045.33006	0.09605
1044.04429	0.09736
1042.75852	0.09855
1041.47275	0.09965
1040.18698	0.10074
1038.90121	0.10191
1037.61544	0.10316
1036.32967	0.10437
1035.04391	0.10545
1033.75814	0.10639
1032.47237	0.10720
1031.18660	0.10792
1029.90083	0.10852
1028.61506	0.10898
1027.32929	0.10929
1026.04352	0.10946
1024.75775	0.10953
1023.47199	0.10947
1022.18622	0.10923
1020.90045	0.10878
1019.61468	0.10815
1018.32891	0.10732
1017.04314	0.10626
1015.75737	0.10497
1014.47160	0.10352
1013.18584	0.10197
1011.90007	0.10033
1010.61430	0.09856
1009.32853	0.09662
1008.04276	0.09449
1006.75699	0.09214
1005.47122	0.08965
1004.18545	0.08714
1002.89968	0.08468
1001.61392	0.08227
1000.32815	0.07983
999.04238	0.07734
997.75661	0.07480
996.47084	0.07223
995.18507	0.06965
993.89930	0.06710
992.61353	0.06462
991.32777	0.06222
990.04200	0.05993
988.75623	0.05775
987.47046	0.05568
986.18469	0.05370
984.89892	0.05177
983.61315	0.04992
982.32738	0.04817
981.04161	0.04653
979.75585	0.04501
978.47008	0.04363
977.18431	0.04240
975.89854	0.04135
974.61277	0.04047
973.32700	0.03975
972.04123	0.03910
970.75546	0.03850
969.46970	0.03803
968.18393	0.03783
966.89816	0.03798
965.61239	0.03840
964.32662	0.03893
963.04085	0.03945
961.75508	0.03986
960.46931	0.04008
959.18354	0.04003
957.89778	0.03965
956.61201	0.03894
955.32624	0.03796
954.04047	0.03685
952.75470	0.03576
951.46893	0.03478
950.18316	0.03391
948.89739	0.03313
947.61163	0.03243
946.32586	0.03174
945.04009	0.03103
943.75432	0.03026
942.46855	0.02946
941.18278	0.02873
939.89701	0.02810
938.61124	0.02755
937.32547	0.02704
936.03971	0.02652
934.75394	0.02598
933.46817	0.02546
932.18240	0.02497
930.89663	0.02449
929.61086	0.02403
928.32509	0.02362
927.03932	0.02323
925.75356	0.02286
924.46779	0.02250
923.18202	0.02219
921.89625	0.02198
920.61048	0.02183
919.32471	0.02168
918.03894	0.02149
916.75317	0.02126
915.46740	0.02097
914.18164	0.02063
912.89587	0.02027
911.61010	0.01995
910.32433	0.01972
909.03856	0.01957
907.75279	0.01946
906.46702	0.01934
905.18125	0.01917
903.89549	0.01894
902.60972	0.01869
901.32395	0.01850
900.03818	0.01844
898.75241	0.01847
897.46664	0.01853
896.18087	0.01853
894.89510	0.01846
893.60933	0.01836
892.32357	0.01829
891.03780	0.01828
889.75203	0.01837
888.46626	0.01858
887.18049	0.01892
885.89472	0.01938
884.60895	0.02004
883.32318	0.02101
882.03742	0.02228
880.75165	0.02363
879.46588	0.02480
878.18011	0.02567
876.89434	0.02635
875.60857	0.02705
874.32280	0.02777
873.03703	0.02827
871.75126	0.02834
870.46550	0.02798
869.17973	0.02736
867.89396	0.02659
866.60819	0.02566
865.32242	0.02455
864.03665	0.02337
862.75088	0.02233
861.46511	0.02155
860.17935	0.02101
858.89358	0.02059
857.60781	0.02021
856.32204	0.01983
855.03627	0.01942
853.75050	0.01900
852.46473	0.01858
851.17896	0.01821
849.89319	0.01792
848.60743	0.01771
847.32166	0.01756
846.03589	0.01740
844.75012	0.01722
843.46435	0.01704
842.17858	0.01690
840.89281	0.01681
839.60704	0.01672
838.32128	0.01666
837.03551	0.01661
835.74974	0.01659
834.46397	0.01653
833.17820	0.01642
831.89243	0.01626
830.60666	0.01611
829.32089	0.01600
828.03512	0.01594
826.74936	0.01589
825.46359	0.01583
824.17782	0.01574
822.89205	0.01563
821.60628	0.01552
820.32051	0.01545
819.03474	0.01542
817.74897	0.01542
816.46321	0.01541
815.17744	0.01537
813.89167	0.01536
812.60590	0.01538
811.32013	0.01541
810.03436	0.01535
808.74859	0.01520
807.46282	0.01507
806.17705	0.01506
804.89129	0.01514
803.60552	0.01522
802.31975	0.01525
801.03398	0.01527
799.74821	0.01528
798.46244	0.01522
797.17667	0.01508
795.89090	0.01492
794.60513	0.01488
793.31937	0.01501
792.03360	0.01522
790.74783	0.01538
789.46206	0.01541
788.17629	0.01532
786.89052	0.01520
785.60475	0.01509
784.31898	0.01502
783.03322	0.01500
781.74745	0.01501
780.46168	0.01501
779.17591	0.01493
777.89014	0.01477
776.60437	0.01461
775.31860	0.01455
774.03283	0.01459
772.74706	0.01466
771.46130	0.01471
770.17553	0.01477
768.88976	0.01484
767.60399	0.01490
766.31822	0.01489
765.03245	0.01481
763.74668	0.01472
762.46091	0.01466
761.17515	0.01468
759.88938	0.01475
758.60361	0.01480
757.31784	0.01475
756.03207	0.01466
754.74630	0.01459
753.46053	0.01459
752.17476	0.01465
750.88899	0.01474
749.60323	0.01482
748.31746	0.01483
747.03169	0.01475
745.74592	0.01465
744.46015	0.01458
743.17438	0.01457
741.88861	0.01458
740.60284	0.01461
739.31708	0.01469
738.03131	0.01484
736.74554	0.01500
735.45977	0.01512
734.17400	0.01518
732.88823	0.01521
731.60246	0.01522
730.31669	0.01520
729.03092	0.01514
727.74516	0.01508
726.45939	0.01506
725.17362	0.01505
723.88785	0.01500
722.60208	0.01521
721.31631	0.01546
720.03054	0.01571
718.74477	0.01596
717.45901	0.01594
716.17324	0.01575
714.88747	0.01553
713.60170	0.01532
712.31593	0.01515
711.03016	0.01505
709.74439	0.01501
708.45862	0.01499
707.17285	0.01498
705.88709	0.01497
704.60132	0.01498
703.31555	0.01500
702.02978	0.01505
700.74401	0.01513
699.45824	0.01524
698.17247	0.01539
696.88670	0.01557
695.60094	0.01575
694.31517	0.01594
693.02940	0.01609
691.74363	0.01619
690.45786	0.01622
689.17209	0.01622
687.88632	0.01619
686.60055	0.01615
685.31478	0.01609
684.02902	0.01603
682.74325	0.01601
681.45748	0.01606
680.17171	0.01613
678.88594	0.01614
677.60017	0.01602
676.31440	0.01579
675.02863	0.01565
673.74287	0.01606
672.45710	0.01753
671.17133	0.01943
669.88556	0.01906
668.59979	0.01568
667.31402	0.01561
666.02825	0.01819
664.74248	0.01790
663.45671	0.01617
662.17095	0.01512
660.88518	0.01488
659.59941	0.01500
658.31364	0.01517
657.02787	0.01530
655.74210	0.01539
654.45633	0.01546
653.17056	0.01548
651.88480	0.01546
650.59903	0.01543
649.31326	0.01537
648.02749	0.01537
646.74172	0.01537
645.45595	0.01532
644.17018	0.01527
642.88441	0.01526
641.59864	0.01530
640.31288	0.01537
639.02711	0.01544
637.74134	0.01546
636.45557	0.01545
635.16980	0.01543
633.88403	0.01544
632.59826	0.01554
631.31249	0.01577
630.02673	0.01620
628.74096	0.01654
627.45519	0.01634
626.16942	0.01694
624.88365	0.01799
623.59788	0.01919
622.31211	0.02082
621.02634	0.02284
619.74057	0.02444
618.45481	0.02507
617.16904	0.02530
615.88327	0.02600
614.59750	0.02731
613.31173	0.02886
612.02596	0.03053
610.74019	0.03267
609.45442	0.03539
608.16866	0.03818
606.88289	0.04037
605.59712	0.04182
604.31135	0.04293
603.02558	0.04416
601.73981	0.04545
600.45404	0.04624
599.16827	0.04600
597.88250	0.04474
596.59674	0.04295
595.31097	0.04115
594.02520	0.03962
592.73943	0.03833
591.45366	0.03722
590.16789	0.03636
588.88212	0.03594
587.59635	0.03604
586.31059	0.03661
585.02482	0.03752
583.73905	0.03865
582.45328	0.03990
581.16751	0.04118
579.88174	0.04240
578.59597	0.04352
577.31020	0.04457
576.02443	0.04558
574.73867	0.04658
573.45290	0.04759
572.16713	0.04864
570.88136	0.04981
569.59559	0.05117
568.30982	0.05274
567.02405	0.05441
565.73828	0.05596
564.45251	0.05711
563.16675	0.05766
561.88098	0.05752
560.59521	0.05666
559.30944	0.05512
558.02367	0.05299
556.73790	0.05049
555.45213	0.04784
554.16636	0.04520
552.88060	0.04267
551.59483	0.04036
550.30906	0.03832
549.02329	0.03653
547.73752	0.03491
546.45175	0.03338
545.16598	0.03187
543.88021	0.03040
542.59444	0.02904
541.30868	0.02788
540.02291	0.02695
538.73714	0.02621
537.45137	0.02557
536.16560	0.02496
534.87983	0.02437
533.59406	0.02378
532.30829	0.02314
531.02253	0.02244
529.73676	0.02176
528.45099	0.02119
527.16522	0.02077
525.87945	0.02045
524.59368	0.02012
523.30791	0.01973
522.02214	0.01929
520.73637	0.01888
519.45061	0.01859
518.16484	0.01843
516.87907	0.01827
515.59330	0.01803
514.30753	0.01771
513.02176	0.01739
511.73599	0.01713
510.45022	0.01692
509.16446	0.01669
507.87869	0.01644
506.59292	0.01619
505.30715	0.01598
504.02138	0.01577
502.73561	0.01554
501.44984	0.01530
500.16407	0.01510
498.87830	0.01497
497.59254	0.01487
496.30677	0.01471
495.02100	0.01447
493.73523	0.01422
492.44946	0.01409
491.16369	0.01407
489.87792	0.01405
488.59215	0.01390
487.30639	0.01362
486.02062	0.01333
484.73485	0.01314
483.44908	0.01311
482.16331	0.01322
480.87754	0.01341
479.59177	0.01361
478.30600	0.01372
477.02023	0.01374
475.73447	0.01374
474.44870	0.01380
473.16293	0.01391
471.87716	0.01401
470.59139	0.01403
469.30562	0.01399
468.01985	0.01395
466.73408	0.01389
465.44832	0.01375
464.16255	0.01353
462.87678	0.01331
461.59101	0.01316
460.30524	0.01309
459.01947	0.01308
457.73370	0.01308
456.44793	0.01304
455.16216	0.01293
453.87640	0.01277
452.59063	0.01260
451.30486	0.01244
450.01909	0.01231
448.73332	0.01217
447.44755	0.01201
446.16178	0.01182
444.87601	0.01164
443.59025	0.01151
442.30448	0.01142
441.01871	0.01135
439.73294	0.01129
438.44717	0.01123
437.16140	0.01116
435.87563	0.01108
434.58986	0.01099
433.30409	0.01091
432.01833	0.01089
430.73256	0.01094
429.44679	0.01100
428.16102	0.01102
426.87525	0.01096
425.58948	0.01087
424.30371	0.01081
423.01794	0.01079
421.73218	0.01079
420.44641	0.01077
419.16064	0.01072
417.87487	0.01065
416.58910	0.01060
415.30333	0.01058
414.01756	0.01054
412.73179	0.01046
411.44602	0.01032
410.16026	0.01018
408.87449	0.01010
407.58872	0.01011
406.30295	0.01019
405.01718	0.01029
403.73141	0.01037
402.44564	0.01041
401.15987	0.01043
399.87411	0.01046
