3997.45528	0.05165
3996.16951	0.05211
3994.88374	0.05238
3993.59798	0.05224
3992.31221	0.05160
3991.02644	0.05064
3989.74067	0.04970
3988.45490	0.04918
3987.16913	0.04935
3985.88336	0.05011
3984.59759	0.05100
3983.31183	0.05151
3982.02606	0.05136
3980.74029	0.05062
3979.45452	0.04959
3978.16875	0.04859
3976.88298	0.04783
3975.59721	0.04732
3974.31144	0.04702
3973.02567	0.04700
3971.73991	0.04736
3970.45414	0.04802
3969.16837	0.04865
3967.88260	0.04897
3966.59683	0.04889
3965.31106	0.04858
3964.02529	0.04822
3962.73952	0.04801
3961.45376	0.04802
3960.16799	0.04820
3958.88222	0.04839
3957.59645	0.04846
3956.31068	0.04826
3955.02491	0.04765
3953.73914	0.04658
3952.45337	0.04529
3951.16760	0.04428
3949.88184	0.04404
3948.59607	0.04481
3947.31030	0.04646
3946.02453	0.04843
3944.73876	0.04984
3943.45299	0.05000
3942.16722	0.04898
3940.88145	0.04764
3939.59569	0.04695
3938.30992	0.04730
3937.02415	0.04821
3935.73838	0.04881
3934.45261	0.04862
3933.16684	0.04791
3931.88107	0.04726
3930.59530	0.04700
3929.30953	0.04703
3928.02377	0.04711
3926.73800	0.04716
3925.45223	0.04717
3924.16646	0.04710
3922.88069	0.04697
3921.59492	0.04687
3920.30915	0.04684
3919.02338	0.04683
3917.73762	0.04680
3916.45185	0.04676
3915.16608	0.04669
3913.88031	0.04643
3912.59454	0.04589
3911.30877	0.04533
3910.02300	0.04517
3908.73723	0.04553
3907.45146	0.04607
3906.16570	0.04624
3904.87993	0.04590
3903.59416	0.04536
3902.30839	0.04504
3901.02262	0.04508
3899.73685	0.04522
3898.45108	0.04520
3897.16531	0.04493
3895.87955	0.04458
3894.59378	0.04439
3893.30801	0.04447
3892.02224	0.04471
3890.73647	0.04486
3889.45070	0.04479
3888.16493	0.04464
3886.87916	0.04469
3885.59339	0.04506
3884.30763	0.04569
3883.02186	0.04628
3881.73609	0.04649
3880.45032	0.04617
3879.16455	0.04548
3877.87878	0.04482
3876.59301	0.04448
3875.30724	0.04445
3874.02148	0.04438
3872.73571	0.04394
3871.44994	0.04313
3870.16417	0.04237
3868.87840	0.04214
3867.59263	0.04248
3866.30686	0.04304
3865.02109	0.04348
3863.73532	0.04373
3862.44956	0.04393
3861.16379	0.04418
3859.87802	0.04445
3858.59225	0.04457
3857.30648	0.04441
3856.02071	0.04403
3854.73494	0.04365
3853.44917	0.04349
3852.16341	0.04359
3850.87764	0.04381
3849.59187	0.04397
3848.30610	0.04398
3847.02033	0.04385
3845.73456	0.04362
3844.44879	0.04345
3843.16302	0.04352
3841.87725	0.04384
3840.59149	0.04416
3839.30572	0.04420
3838.01995	0.04400
3836.73418	0.04389
3835.44841	0.04406
3834.16264	0.04428
3832.87687	0.04423
3831.59110	0.04396
3830.30534	0.04380
3829.01957	0.04393
3827.73380	0.04414
3826.44803	0.04407
3825.16226	0.04361
3823.87649	0.04299
3822.59072	0.04259
3821.30495	0.04259
3820.01918	0.04286
3818.73342	0.04316
3817.44765	0.04339
3816.16188	0.04358
3814.87611	0.04368
3813.59034	0.04363
3812.30457	0.04342
3811.01880	0.04311
3809.73303	0.04264
3808.44726	0.04193
3807.16150	0.04107
3805.87573	0.04033
3804.58996	0.03989
3803.30419	0.03979
3802.01842	0.04008
3800.73265	0.04082
3799.44688	0.04182
3798.16111	0.04259
3796.87535	0.04272
3795.58958	0.04223
3794.30381	0.04157
3793.01804	0.04125
3791.73227	0.04137
3790.44650	0.04155
3789.16073	0.04125
3787.87496	0.04025
3786.58919	0.03890
3785.30343	0.03788
3784.01766	0.03764
3782.73189	0.03811
3781.44612	0.03880
3780.16035	0.03921
3778.87458	0.03919
3777.58881	0.03891
3776.30304	0.03869
3775.01728	0.03893
3773.73151	0.03981
3772.44574	0.04110
3771.15997	0.04224
3769.87420	0.04272
3768.58843	0.04247
3767.30266	0.04180
3766.01689	0.04115
3764.73112	0.04077
3763.44536	0.04061
3762.15959	0.04055
3760.87382	0.04059
3759.58805	0.04087
3758.30228	0.04136
3757.01651	0.04176
3755.73074	0.04179
3754.44497	0.04146
3753.15921	0.04108
3751.87344	0.04089
3750.58767	0.04090
3749.30190	0.04101
3748.01613	0.04126
3746.73036	0.04172
3745.44459	0.04229
3744.15882	0.04265
3742.87305	0.04261
3741.58729	0.04235
3740.30152	0.04214
3739.01575	0.04202
3737.72998	0.04187
3736.44421	0.04162
3735.15844	0.04134
3733.87267	0.04115
3732.58690	0.04106
3731.30114	0.04109
3730.01537	0.04114
3728.72960	0.04106
3727.44383	0.04076
3726.15806	0.04032
3724.87229	0.03998
3723.58652	0.03993
3722.30075	0.04024
3721.01498	0.04078
3719.72922	0.04131
3718.44345	0.04150
3717.15768	0.04115
3715.87191	0.04037
3714.58614	0.03949
3713.30037	0.03871
3712.01460	0.03808
3710.72883	0.03762
3709.44307	0.03734
3708.15730	0.03732
3706.87153	0.03759
3705.58576	0.03817
3704.29999	0.03890
3703.01422	0.03946
3701.72845	0.03969
3700.44268	0.03978
3699.15691	0.04004
3697.87115	0.04042
3696.58538	0.04065
3695.29961	0.04061
3694.01384	0.04050
3692.72807	0.04044
3691.44230	0.04021
3690.15653	0.03954
3688.87076	0.03861
3687.58500	0.03798
3686.29923	0.03804
3685.01346	0.03850
3683.72769	0.03882
3682.44192	0.03874
3681.15615	0.03840
3679.87038	0.03806
3678.58461	0.03796
3677.29884	0.03824
3676.01308	0.03894
3674.72731	0.03997
3673.44154	0.04109
3672.15577	0.04191
3670.87000	0.04198
3669.58423	0.04114
3668.29846	0.03966
3667.01269	0.03808
3665.72693	0.03690
3664.44116	0.03642
3663.15539	0.03668
3661.86962	0.03749
3660.58385	0.03849
3659.29808	0.03936
3658.01231	0.03999
3656.72654	0.04046
3655.44077	0.04085
3654.15501	0.04109
3652.86924	0.04107
3651.58347	0.04083
3650.29770	0.04064
3649.01193	0.04069
3647.72616	0.04098
3646.44039	0.04134
3645.15462	0.04170
3643.86886	0.04204
3642.58309	0.04229
3641.29732	0.04240
3640.01155	0.04244
3638.72578	0.04246
3637.44001	0.04236
3636.15424	0.04199
3634.86847	0.04143
3633.58270	0.04099
3632.29694	0.04095
3631.01117	0.04134
3629.72540	0.04189
3628.43963	0.04232
3627.15386	0.04245
3625.86809	0.04223
3624.58232	0.04185
3623.29655	0.04175
3622.01079	0.04238
3620.72502	0.04362
3619.43925	0.04481
3618.15348	0.04530
3616.86771	0.04504
3615.58194	0.04447
3614.29617	0.04391
3613.01040	0.04343
3611.72463	0.04306
3610.43887	0.04300
3609.15310	0.04338
3607.86733	0.04403
3606.58156	0.04460
3605.29579	0.04488
3604.01002	0.04498
3602.72425	0.04525
3601.43848	0.04590
3600.15272	0.04682
3598.86695	0.04763
3597.58118	0.04802
3596.29541	0.04796
3595.00964	0.04770
3593.72387	0.04742
3592.43810	0.04708
3591.15233	0.04667
3589.86656	0.04644
3588.58080	0.04658
3587.29503	0.04698
3586.00926	0.04731
3584.72349	0.04742
3583.43772	0.04746
3582.15195	0.04757
3580.86618	0.04779
3579.58041	0.04797
3578.29464	0.04798
3577.00888	0.04782
3575.72311	0.04766
3574.43734	0.04771
3573.15157	0.04790
3571.86580	0.04809
3570.58003	0.04826
3569.29426	0.04855
3568.00849	0.04897
3566.72273	0.04938
3565.43696	0.04967
3564.15119	0.04992
3562.86542	0.05025
3561.57965	0.05057
3560.29388	0.05065
3559.00811	0.05038
3557.72234	0.04994
3556.43657	0.04965
3555.15081	0.04973
3553.86504	0.05014
3552.57927	0.05061
3551.29350	0.05081
3550.00773	0.05066
3548.72196	0.05039
3547.43619	0.05033
3546.15042	0.05059
3544.86466	0.05099
3543.57889	0.05139
3542.29312	0.05177
3541.00735	0.05217
3539.72158	0.05252
3538.43581	0.05274
3537.15004	0.05287
3535.86427	0.05301
3534.57850	0.05323
3533.29274	0.05349
3532.00697	0.05371
3530.72120	0.05378
3529.43543	0.05362
3528.14966	0.05325
3526.86389	0.05284
3525.57812	0.05264
3524.29235	0.05281
3523.00659	0.05328
3521.72082	0.05380
3520.43505	0.05414
3519.14928	0.05427
3517.86351	0.05436
3516.57774	0.05454
3515.29197	0.05469
3514.00620	0.05456
3512.72043	0.05411
3511.43467	0.05361
3510.14890	0.05344
3508.86313	0.05373
3507.57736	0.05436
3506.29159	0.05507
3505.00582	0.05566
3503.72005	0.05601
3502.43428	0.05617
3501.14852	0.05623
3499.86275	0.05619
3498.57698	0.05600
3497.29121	0.05564
3496.00544	0.05515
3494.71967	0.05463
3493.43390	0.05431
3492.14813	0.05448
3490.86236	0.05532
3489.57660	0.05658
3488.29083	0.05773
3487.00506	0.05830
3485.71929	0.05824
3484.43352	0.05782
3483.14775	0.05735
3481.86198	0.05700
3480.57621	0.05682
3479.29045	0.05676
3478.00468	0.05684
3476.71891	0.05702
3475.43314	0.05722
3474.14737	0.05730
3472.86160	0.05728
3471.57583	0.05726
3470.29006	0.05737
3469.00429	0.05761
3467.71853	0.05793
3466.43276	0.05824
3465.14699	0.05846
3463.86122	0.05851
3462.57545	0.05847
3461.28968	0.05849
3460.00391	0.05870
3458.71814	0.05916
3457.43238	0.05980
3456.14661	0.06044
3454.86084	0.06083
3453.57507	0.06083
3452.28930	0.06044
3451.00353	0.05992
3449.71776	0.05957
3448.43199	0.05956
3447.14622	0.05983
3445.86046	0.06020
3444.57469	0.06062
3443.28892	0.06113
3442.00315	0.06164
3440.71738	0.06196
3439.43161	0.06194
3438.14584	0.06163
3436.86007	0.06119
3435.57431	0.06087
3434.28854	0.06085
3433.00277	0.06119
3431.71700	0.06174
3430.43123	0.06229
3429.14546	0.06273
3427.85969	0.06297
3426.57392	0.06297
3425.28815	0.06270
3424.00239	0.06224
3422.71662	0.06181
3421.43085	0.06155
3420.14508	0.06150
3418.85931	0.06166
3417.57354	0.06196
3416.28777	0.06231
3415.00200	0.06259
3413.71624	0.06270
3412.43047	0.06262
3411.14470	0.06240
3409.85893	0.06219
3408.57316	0.06212
3407.28739	0.06223
3406.00162	0.06244
3404.71585	0.06266
3403.43008	0.06279
3402.14432	0.06277
3400.85855	0.06257
3399.57278	0.06227
3398.28701	0.06202
3397.00124	0.06202
3395.71547	0.06236
3394.42970	0.06297
3393.14393	0.06367
3391.85817	0.06425
3390.57240	0.06442
3389.28663	0.06404
3388.00086	0.06326
3386.71509	0.06252
3385.42932	0.06227
3384.14355	0.06259
3382.85778	0.06324
3381.57201	0.06379
3380.28625	0.06395
3379.00048	0.06376
3377.71471	0.06347
3376.42894	0.06334
3375.14317	0.06342
3373.85740	0.06353
3372.57163	0.06343
3371.28586	0.06308
3370.00010	0.06264
3368.71433	0.06244
3367.42856	0.06275
3366.14279	0.06359
3364.85702	0.06453
3363.57125	0.06507
3362.28548	0.06501
3360.99971	0.06465
3359.71394	0.06441
3358.42818	0.06447
3357.14241	0.06466
3355.85664	0.06468
3354.57087	0.06437
3353.28510	0.06378
3351.99933	0.06317
3350.71356	0.06276
3349.42779	0.06258
3348.14202	0.06251
3346.85626	0.06239
3345.57049	0.06219
3344.28472	0.06200
3342.99895	0.06193
3341.71318	0.06205
3340.42741	0.06238
3339.14164	0.06294
3337.85587	0.06360
3336.57011	0.06408
3335.28434	0.06422
3333.99857	0.06409
3332.71280	0.06393
3331.42703	0.06390
3330.14126	0.06393
3328.85549	0.06384
3327.56972	0.06358
3326.28395	0.06325
3324.99819	0.06304
3323.71242	0.06299
3322.42665	0.06295
3321.14088	0.06276
3319.85511	0.06242
3318.56934	0.06210
3317.28357	0.06197
3315.99780	0.06209
3314.71204	0.06239
3313.42627	0.06269
3312.14050	0.06281
3310.85473	0.06273
3309.56896	0.06255
3308.28319	0.06239
3306.99742	0.06229
3305.71165	0.06218
3304.42588	0.06202
3303.14012	0.06184
3301.85435	0.06167
3300.56858	0.06154
3299.28281	0.06142
3297.99704	0.06131
3296.71127	0.06122
3295.42550	0.06115
3294.13973	0.06108
3292.85397	0.06104
3291.56820	0.06107
3290.28243	0.06117
3288.99666	0.06125
3287.71089	0.06124
3286.42512	0.06117
3285.13935	0.06114
3283.85358	0.06120
3282.56781	0.06131
3281.28205	0.06143
3279.99628	0.06149
3278.71051	0.06151
3277.42474	0.06150
3276.13897	0.06148
3274.85320	0.06142
3273.56743	0.06125
3272.28166	0.06099
3270.99590	0.06072
3269.71013	0.06056
3268.42436	0.06058
3267.13859	0.06069
3265.85282	0.06075
3264.56705	0.06063
3263.28128	0.06035
3261.99551	0.06013
3260.70974	0.06018
3259.42398	0.06056
3258.13821	0.06101
3256.85244	0.06117
3255.56667	0.06093
3254.28090	0.06052
3252.99513	0.06033
3251.70936	0.06043
3250.42359	0.06065
3249.13783	0.06079
3247.85206	0.06084
3246.56629	0.06091
3245.28052	0.06099
3243.99475	0.06096
3242.70898	0.06074
3241.42321	0.06044
3240.13744	0.06023
3238.85167	0.06026
3237.56591	0.06043
3236.28014	0.06050
3234.99437	0.06029
3233.70860	0.05980
3232.42283	0.05928
3231.13706	0.05893
3229.85129	0.05882
3228.56552	0.05888
3227.27976	0.05900
3225.99399	0.05911
3224.70822	0.05921
3223.42245	0.05925
3222.13668	0.05921
3220.85091	0.05907
3219.56514	0.05889
3218.27937	0.05871
3216.99360	0.05862
3215.70784	0.05868
3214.42207	0.05887
3213.13630	0.05903
3211.85053	0.05895
3210.56476	0.05858
3209.27899	0.05809
3207.99322	0.05765
3206.70745	0.05734
3205.42169	0.05725
3204.13592	0.05750
3202.85015	0.05808
3201.56438	0.05870
3200.27861	0.05897
3198.99284	0.05876
3197.70707	0.05831
3196.42130	0.05796
3195.13553	0.05782
3193.84977	0.05774
3192.56400	0.05757
3191.27823	0.05736
3189.99246	0.05724
3188.70669	0.05729
3187.42092	0.05735
3186.13515	0.05723
3184.84938	0.05685
3183.56362	0.05633
3182.27785	0.05594
3180.99208	0.05590
3179.70631	0.05621
3178.42054	0.05663
3177.13477	0.05685
3175.84900	0.05674
3174.56323	0.05639
3173.27746	0.05596
3171.99170	0.05564
3170.70593	0.05553
3169.42016	0.05562
3168.13439	0.05584
3166.84862	0.05606
3165.56285	0.05622
3164.27708	0.05631
3162.99131	0.05631
3161.70555	0.05618
3160.41978	0.05589
3159.13401	0.05559
3157.84824	0.05552
3156.56247	0.05588
3155.27670	0.05655
3153.99093	0.05714
3152.70516	0.05730
3151.41939	0.05702
3150.13363	0.05650
3148.84786	0.05594
3147.56209	0.05540
3146.27632	0.05485
3144.99055	0.05436
3143.70478	0.05397
3142.41901	0.05377
3141.13324	0.05376
3139.84748	0.05392
3138.56171	0.05416
3137.27594	0.05434
3135.99017	0.05445
3134.70440	0.05452
3133.41863	0.05458
3132.13286	0.05458
3130.84709	0.05451
3129.56132	0.05436
3128.27556	0.05411
3126.98979	0.05380
3125.70402	0.05349
3124.41825	0.05331
3123.13248	0.05332
3121.84671	0.05344
3120.56094	0.05351
3119.27517	0.05339
3117.98940	0.05310
3116.70364	0.05283
3115.41787	0.05271
3114.13210	0.05274
3112.84633	0.05281
3111.56056	0.05285
3110.27479	0.05283
3108.98902	0.05275
3107.70325	0.05260
3106.41749	0.05244
3105.13172	0.05233
3103.84595	0.05217
3102.56018	0.05185
3101.27441	0.05143
3099.98864	0.05112
3098.70287	0.05107
3097.41710	0.05123
3096.13133	0.05146
3094.84557	0.05159
3093.55980	0.05148
3092.27403	0.05110
3090.98826	0.05058
3089.70249	0.05014
3088.41672	0.05000
3087.13095	0.05017
3085.84518	0.05050
3084.55942	0.05077
3083.27365	0.05086
3081.98788	0.05081
3080.70211	0.05074
3079.41634	0.05072
3078.13057	0.05072
3076.84480	0.05070
3075.55903	0.05068
3074.27326	0.05076
3072.98750	0.05090
3071.70173	0.05098
3070.41596	0.05089
3069.13019	0.05068
3067.84442	0.05041
3066.55865	0.05004
3065.27288	0.04951
3063.98711	0.04894
3062.70135	0.04859
3061.41558	0.04857
3060.12981	0.04877
3058.84404	0.04892
3057.55827	0.04886
3056.27250	0.04857
3054.98673	0.04817
3053.70096	0.04786
3052.41519	0.04782
3051.12943	0.04808
3049.84366	0.04846
3048.55789	0.04870
3047.27212	0.04865
3045.98635	0.04837
3044.70058	0.04804
3043.41481	0.04781
3042.12904	0.04773
3040.84328	0.04778
3039.55751	0.04786
3038.27174	0.04793
3036.98597	0.04791
3035.70020	0.04778
3034.41443	0.04752
3033.12866	0.04727
3031.84289	0.04715
3030.55712	0.04717
3029.27136	0.04722
3027.98559	0.04718
3026.69982	0.04702
3025.41405	0.04685
3024.12828	0.04676
3022.84251	0.04669
3021.55674	0.04651
3020.27097	0.04618
3018.98521	0.04590
3017.69944	0.04588
3016.41367	0.04612
3015.12790	0.04639
3013.84213	0.04647
3012.55636	0.04631
3011.27059	0.04604
3009.98482	0.04578
3008.69905	0.04555
3007.41329	0.04530
3006.12752	0.04507
3004.84175	0.04491
3003.55598	0.04487
3002.27021	0.04493
3000.98444	0.04503
2999.69867	0.04518
2998.41290	0.04538
2997.12714	0.04561
2995.84137	0.04578
2994.55560	0.04581
2993.26983	0.04570
2991.98406	0.04549
2990.69829	0.04515
2989.41252	0.04470
2988.12675	0.04431
2986.84098	0.04423
2985.55522	0.04451
2984.26945	0.04492
2982.98368	0.04518
2981.69791	0.04524
2980.41214	0.04529
2979.12637	0.04547
2977.84060	0.04579
2976.55483	0.04613
2975.26907	0.04632
2973.98330	0.04633
2972.69753	0.04622
2971.41176	0.04611
2970.12599	0.04615
2968.84022	0.04637
2967.55445	0.04667
2966.26868	0.04690
2964.98291	0.04707
2963.69715	0.04731
2962.41138	0.04768
2961.12561	0.04807
2959.83984	0.04831
2958.55407	0.04832
2957.26830	0.04818
2955.98253	0.04804
2954.69676	0.04804
2953.41100	0.04821
2952.12523	0.04847
2950.83946	0.04863
2949.55369	0.04862
2948.26792	0.04853
2946.98215	0.04851
2945.69638	0.04853
2944.41061	0.04843
2943.12484	0.04814
2941.83908	0.04776
2940.55331	0.04745
2939.26754	0.04733
2937.98177	0.04745
2936.69600	0.04782
2935.41023	0.04828
2934.12446	0.04860
2932.83869	0.04870
2931.55293	0.04872
2930.26716	0.04882
2928.98139	0.04899
2927.69562	0.04912
2926.40985	0.04911
2925.12408	0.04897
2923.83831	0.04874
2922.55254	0.04846
2921.26677	0.04821
2919.98101	0.04809
2918.69524	0.04810
2917.40947	0.04808
2916.12370	0.04789
2914.83793	0.04750
2913.55216	0.04703
2912.26639	0.04667
2910.98062	0.04655
2909.69486	0.04663
2908.40909	0.04675
2907.12332	0.04673
2905.83755	0.04652
2904.55178	0.04621
2903.26601	0.04587
2901.98024	0.04557
2900.69447	0.04533
2899.40870	0.04518
2898.12294	0.04506
2896.83717	0.04486
2895.55140	0.04455
2894.26563	0.04422
2892.97986	0.04399
2891.69409	0.04396
2890.40832	0.04408
2889.12255	0.04417
2887.83678	0.04407
2886.55102	0.04377
2885.26525	0.04340
2883.97948	0.04311
2882.69371	0.04289
2881.40794	0.04271
2880.12217	0.04263
2878.83640	0.04269
2877.55063	0.04276
2876.26487	0.04268
2874.97910	0.04248
2873.69333	0.04236
2872.40756	0.04246
2871.12179	0.04272
2869.83602	0.04297
2868.55025	0.04308
2867.26448	0.04306
2865.97871	0.04301
2864.69295	0.04300
2863.40718	0.04300
2862.12141	0.04286
2860.83564	0.04249
2859.54987	0.04201
2858.26410	0.04166
2856.97833	0.04151
2855.69256	0.04141
2854.40680	0.04121
2853.12103	0.04091
2851.83526	0.04063
2850.54949	0.04039
2849.26372	0.04013
2847.97795	0.03979
2846.69218	0.03943
2845.40641	0.03916
2844.12064	0.03905
2842.83488	0.03904
2841.54911	0.03896
2840.26334	0.03868
2838.97757	0.03825
2837.69180	0.03785
2836.40603	0.03763
2835.12026	0.03759
2833.83449	0.03761
2832.54873	0.03756
2831.26296	0.03735
2829.97719	0.03707
2828.69142	0.03685
2827.40565	0.03674
2826.11988	0.03666
2824.83411	0.03658
2823.54834	0.03658
2822.26257	0.03666
2820.97681	0.03667
2819.69104	0.03643
2818.40527	0.03602
2817.11950	0.03565
2815.83373	0.03545
2814.54796	0.03531
2813.26219	0.03514
2811.97642	0.03499
2810.69066	0.03496
2809.40489	0.03505
2808.11912	0.03512
2806.83335	0.03499
2805.54758	0.03468
2804.26181	0.03436
2802.97604	0.03425
2801.69027	0.03441
2800.40450	0.03468
2799.11874	0.03477
2797.83297	0.03450
2796.54720	0.03401
2795.26143	0.03357
2793.97566	0.03339
2792.68989	0.03342
2791.40412	0.03352
2790.11835	0.03359
2788.83259	0.03363
2787.54682	0.03368
2786.26105	0.03376
2784.97528	0.03381
2783.68951	0.03378
2782.40374	0.03363
2781.11797	0.03345
2779.83220	0.03334
2778.54643	0.03330
2777.26067	0.03332
2775.97490	0.03335
2774.68913	0.03336
2773.40336	0.03333
2772.11759	0.03326
2770.83182	0.03321
2769.54605	0.03321
2768.26028	0.03323
2766.97452	0.03318
2765.68875	0.03297
2764.40298	0.03264
2763.11721	0.03227
2761.83144	0.03202
2760.54567	0.03197
2759.25990	0.03210
2757.97413	0.03225
2756.68836	0.03228
2755.40260	0.03214
2754.11683	0.03196
2752.83106	0.03188
2751.54529	0.03195
2750.25952	0.03211
2748.97375	0.03223
2747.68798	0.03224
2746.40221	0.03216
2745.11645	0.03207
2743.83068	0.03206
2742.54491	0.03207
2741.25914	0.03203
2739.97337	0.03191
2738.68760	0.03172
2737.40183	0.03148
2736.11606	0.03129
2734.83029	0.03122
2733.54453	0.03124
2732.25876	0.03124
2730.97299	0.03118
2729.68722	0.03113
2728.40145	0.03116
2727.11568	0.03127
2725.82991	0.03137
2724.54414	0.03141
2723.25838	0.03134
2721.97261	0.03119
2720.68684	0.03097
2719.40107	0.03076
2718.11530	0.03064
2716.82953	0.03064
2715.54376	0.03077
2714.25799	0.03091
2712.97222	0.03096
2711.68646	0.03088
2710.40069	0.03077
2709.11492	0.03072
2707.82915	0.03073
2706.54338	0.03077
2705.25761	0.03076
2703.97184	0.03070
2702.68607	0.03061
2701.40031	0.03049
2700.11454	0.03038
2698.82877	0.03030
2697.54300	0.03026
2696.25723	0.03026
2694.97146	0.03025
2693.68569	0.03020
2692.39992	0.03012
2691.11415	0.03002
2689.82839	0.02987
2688.54262	0.02966
2687.25685	0.02942
2685.97108	0.02923
2684.68531	0.02911
2683.39954	0.02912
2682.11377	0.02926
2680.82800	0.02948
2679.54224	0.02966
2678.25647	0.02967
2676.97070	0.02956
2675.68493	0.02946
2674.39916	0.02942
2673.11339	0.02941
2671.82762	0.02936
2670.54185	0.02930
2669.25608	0.02930
2667.97032	0.02942
2666.68455	0.02960
2665.39878	0.02972
2664.11301	0.02971
2662.82724	0.02962
2661.54147	0.02959
2660.25570	0.02966
2658.96993	0.02978
2657.68417	0.02987
2656.39840	0.02982
2655.11263	0.02959
2653.82686	0.02924
2652.54109	0.02903
2651.25532	0.02910
2649.96955	0.02924
2648.68378	0.02912
2647.39801	0.02867
2646.11225	0.02819
2644.82648	0.02797
2643.54071	0.02807
2642.25494	0.02830
2640.96917	0.02841
2639.68340	0.02825
2638.39763	0.02785
2637.11186	0.02738
2635.82609	0.02705
2634.54033	0.02694
2633.25456	0.02701
2631.96879	0.02710
2630.68302	0.02710
2629.39725	0.02700
2628.11148	0.02685
2626.82571	0.02668
2625.53994	0.02647
2624.25418	0.02623
2622.96841	0.02597
2621.68264	0.02578
2620.39687	0.02570
2619.11110	0.02581
2617.82533	0.02602
2616.53956	0.02610
2615.25379	0.02589
2613.96802	0.02544
2612.68226	0.02498
2611.39649	0.02472
2610.11072	0.02466
2608.82495	0.02467
2607.53918	0.02475
2606.25341	0.02496
2604.96764	0.02526
2603.68187	0.02548
2602.39611	0.02546
2601.11034	0.02528
2599.82457	0.02517
2598.53880	0.02529
2597.25303	0.02553
2595.96726	0.02560
2594.68149	0.02531
2593.39572	0.02475
2592.10995	0.02424
2590.82419	0.02408
2589.53842	0.02423
2588.25265	0.02440
2586.96688	0.02436
2585.68111	0.02418
2584.39534	0.02401
2583.10957	0.02391
2581.82380	0.02387
2580.53804	0.02386
2579.25227	0.02386
2577.96650	0.02380
2576.68073	0.02356
2575.39496	0.02316
2574.10919	0.02277
2572.82342	0.02257
2571.53765	0.02264
2570.25188	0.02290
2568.96612	0.02322
2567.68035	0.02350
2566.39458	0.02372
2565.10881	0.02383
2563.82304	0.02377
2562.53727	0.02356
2561.25150	0.02332
2559.96573	0.02313
2558.67997	0.02294
2557.39420	0.02268
2556.10843	0.02248
2554.82266	0.02250
2553.53689	0.02276
2552.25112	0.02304
2550.96535	0.02316
2549.67958	0.02313
2548.39381	0.02309
2547.10805	0.02307
2545.82228	0.02304
2544.53651	0.02296
2543.25074	0.02290
2541.96497	0.02294
2540.67920	0.02303
2539.39343	0.02307
2538.10766	0.02302
2536.82190	0.02293
2535.53613	0.02279
2534.25036	0.02253
2532.96459	0.02215
2531.67882	0.02176
2530.39305	0.02150
2529.10728	0.02147
2527.82151	0.02168
2526.53574	0.02198
2525.24998	0.02219
2523.96421	0.02226
2522.67844	0.02229
2521.39267	0.02229
2520.10690	0.02220
2518.82113	0.02201
2517.53536	0.02180
2516.24959	0.02166
2514.96383	0.02169
2513.67806	0.02194
2512.39229	0.02233
2511.10652	0.02262
2509.82075	0.02258
2508.53498	0.02216
2507.24921	0.02156
2505.96344	0.02095
2504.67767	0.02046
2503.39191	0.02020
2502.10614	0.02029
2500.82037	0.02070
2499.53460	0.02120
2498.24883	0.02152
2496.96306	0.02158
2495.67729	0.02147
2494.39152	0.02123
2493.10576	0.02091
2491.81999	0.02064
2490.53422	0.02055
2489.24845	0.02066
2487.96268	0.02088
2486.67691	0.02116
2485.39114	0.02146
2484.10537	0.02162
2482.81960	0.02153
2481.53384	0.02126
2480.24807	0.02107
2478.96230	0.02111
2477.67653	0.02130
2476.39076	0.02146
2475.10499	0.02154
2473.81922	0.02151
2472.53345	0.02135
2471.24769	0.02106
2469.96192	0.02072
2468.67615	0.02046
2467.39038	0.02037
2466.10461	0.02041
2464.81884	0.02046
2463.53307	0.02039
2462.24730	0.02023
2460.96153	0.02014
2459.67577	0.02023
2458.39000	0.02041
2457.10423	0.02052
2455.81846	0.02049
2454.53269	0.02045
2453.24692	0.02050
2451.96115	0.02065
2450.67538	0.02072
2449.38962	0.02059
2448.10385	0.02031
2446.81808	0.02006
2445.53231	0.01994
2444.24654	0.01991
2442.96077	0.01988
2441.67500	0.01981
2440.38923	0.01972
2439.10346	0.01963
2437.81770	0.01962
2436.53193	0.01976
2435.24616	0.01998
2433.96039	0.02010
2432.67462	0.02002
2431.38885	0.01984
2430.10308	0.01977
2428.81731	0.01997
2427.53155	0.02032
2426.24578	0.02055
2424.96001	0.02037
2423.67424	0.01978
2422.38847	0.01909
2421.10270	0.01872
2419.81693	0.01889
2418.53116	0.01941
2417.24539	0.01987
2415.95963	0.01994
2414.67386	0.01956
2413.38809	0.01898
2412.10232	0.01852
2410.81655	0.01841
2409.53078	0.01859
2408.24501	0.01879
2406.95924	0.01881
2405.67347	0.01875
2404.38771	0.01882
2403.10194	0.01907
2401.81617	0.01936
2400.53040	0.01954
2399.24463	0.01951
2397.95886	0.01935
2396.67309	0.01911
2395.38732	0.01887
2394.10156	0.01871
2392.81579	0.01866
2391.53002	0.01865
2390.24425	0.01857
2388.95848	0.01835
2387.67271	0.01807
2386.38694	0.01792
2385.10117	0.01802
2383.81540	0.01831
2382.52964	0.01861
2381.24387	0.01876
2379.95810	0.01879
2378.67233	0.01866
2377.38656	0.01858
2376.10079	0.01876
2374.81502	0.01909
2373.52925	0.01910
2372.24349	0.01882
2370.95772	0.01864
2369.67195	0.01869
2368.38618	0.01886
2367.10041	0.01897
2365.81464	0.01906
2364.52887	0.01913
2363.24310	0.01918
2361.95733	0.01922
2360.67157	0.01926
2359.38580	0.01942
2358.10003	0.01969
2356.81426	0.02001
2355.52849	0.02034
2354.24272	0.02068
2352.95695	0.02088
2351.67118	0.02062
2350.38542	0.02021
2349.09965	0.02003
2347.81388	0.01988
2346.52811	0.01958
2345.24234	0.01943
2343.95657	0.01971
2342.67080	0.02045
2341.38503	0.02046
2340.09926	0.01989
2338.81350	0.01991
2337.52773	0.02042
2336.24196	0.02025
2334.95619	0.01992
2333.67042	0.02012
2332.38465	0.02058
2331.09888	0.01991
2329.81311	0.01964
2328.52735	0.02010
2327.24158	0.02049
2325.95581	0.02104
2324.67004	0.02161
2323.38427	0.02200
2322.09850	0.02167
2320.81273	0.02129
2319.52696	0.02098
2318.24119	0.02072
2316.95543	0.02044
2315.66966	0.02012
2314.38389	0.01999
2313.09812	0.01999
2311.81235	0.02000
2310.52658	0.02008
2309.24081	0.02006
2307.95504	0.01975
2306.66928	0.01924
2305.38351	0.01871
2304.09774	0.01842
2302.81197	0.01841
2301.52620	0.01856
2300.24043	0.01877
2298.95466	0.01895
2297.66889	0.01903
2296.38312	0.01901
2295.09736	0.01895
2293.81159	0.01895
2292.52582	0.01899
2291.24005	0.01905
2289.95428	0.01914
2288.66851	0.01923
2287.38274	0.01924
2286.09697	0.01903
2284.81121	0.01858
2283.52544	0.01808
2282.23967	0.01773
2280.95390	0.01756
2279.66813	0.01748
2278.38236	0.01736
2277.09659	0.01714
2275.81082	0.01673
2274.52505	0.01614
2273.23929	0.01547
2271.95352	0.01496
2270.66775	0.01473
2269.38198	0.01478
2268.09621	0.01503
2266.81044	0.01537
2265.52467	0.01566
2264.23890	0.01587
2262.95314	0.01601
2261.66737	0.01615
2260.38160	0.01632
2259.09583	0.01651
2257.81006	0.01672
2256.52429	0.01690
2255.23852	0.01683
2253.95275	0.01631
2252.66698	0.01536
2251.38122	0.01437
2250.09545	0.01390
2248.80968	0.01420
2247.52391	0.01479
2246.23814	0.01518
2244.95237	0.01506
2243.66660	0.01455
2242.38083	0.01393
2241.09507	0.01342
2239.80930	0.01312
2238.52353	0.01306
2237.23776	0.01312
2235.95199	0.01311
2234.66622	0.01301
2233.38045	0.01302
2232.09468	0.01326
2230.80891	0.01359
2229.52315	0.01377
2228.23738	0.01373
2226.95161	0.01360
2225.66584	0.01349
2224.38007	0.01336
2223.09430	0.01325
2221.80853	0.01329
2220.52276	0.01356
2219.23700	0.01388
2217.95123	0.01396
2216.66546	0.01363
2215.37969	0.01300
2214.09392	0.01240
2212.80815	0.01216
2211.52238	0.01226
2210.23661	0.01244
2208.95084	0.01249
2207.66508	0.01247
2206.37931	0.01252
2205.09354	0.01264
2203.80777	0.01263
2202.52200	0.01237
2201.23623	0.01196
2199.95046	0.01178
2198.66469	0.01218
2197.37893	0.01302
2196.09316	0.01358
2194.80739	0.01331
2193.52162	0.01247
2192.23585	0.01191
2190.95008	0.01222
2189.66431	0.01311
2188.37854	0.01362
2187.09277	0.01301
2185.80701	0.01153
2184.52124	0.01012
2183.23547	0.00930
2181.94970	0.00885
2180.66393	0.00837
2179.37816	0.00790
2178.09239	0.00760
2176.80662	0.00739
2175.52085	0.00725
2174.23509	0.00734
2172.94932	0.00769
2171.66355	0.00816
2170.37778	0.00874
2169.09201	0.00951
2167.80624	0.01040
2166.52047	0.01108
2165.23470	0.01151
2163.94894	0.01188
2162.66317	0.01210
2161.37740	0.01153
2160.09163	0.00972
2158.80586	0.00722
2157.52009	0.00520
2156.23432	0.00435
2154.94855	0.00444
2153.66278	0.00485
2152.37702	0.00497
2151.09125	0.00456
2149.80548	0.00388
2148.51971	0.00360
2147.23394	0.00417
2145.94817	0.00537
2144.66240	0.00658
2143.37663	0.00735
2142.09087	0.00759
2140.80510	0.00739
2139.51933	0.00692
2138.23356	0.00653
2136.94779	0.00656
2135.66202	0.00705
2134.37625	0.00766
2133.09048	0.00806
2131.80471	0.00818
2130.51895	0.00813
2129.23318	0.00809
2127.94741	0.00812
2126.66164	0.00819
2125.37587	0.00829
2124.09010	0.00844
2122.80433	0.00864
2121.51856	0.00890
2120.23280	0.00923
2118.94703	0.00965
2117.66126	0.01006
2116.37549	0.01023
2115.08972	0.01010
2113.80395	0.00987
2112.51818	0.00983
2111.23241	0.01004
2109.94664	0.01034
2108.66088	0.01059
2107.37511	0.01074
2106.08934	0.01070
2104.80357	0.01038
2103.51780	0.00979
2102.23203	0.00912
2100.94626	0.00854
2099.66049	0.00738
2098.37473	0.00672
2097.08896	0.00644
2095.80319	0.00631
2094.51742	0.00645
2093.23165	0.00695
2091.94588	0.00764
2090.66011	0.00816
2089.37434	0.00833
2088.08857	0.00829
2086.80281	0.00825
2085.51704	0.00831
2084.23127	0.00835
2082.94550	0.00829
2081.65973	0.00810
2080.37396	0.00784
2079.08819	0.00751
2077.80242	0.00710
2076.51666	0.00662
2075.23089	0.00608
2073.94512	0.00567
2072.65935	0.00564
2071.37358	0.00609
2070.08781	0.00674
2068.80204	0.00707
2067.51627	0.00687
2066.23050	0.00636
2064.94474	0.00595
2063.65897	0.00584
2062.37320	0.00602
2061.08743	0.00628
2059.80166	0.00642
2058.51589	0.00632
2057.23012	0.00613
2055.94435	0.00615
2054.65859	0.00652
2053.37282	0.00699
2052.08705	0.00704
2050.80128	0.00636
2049.51551	0.00517
2048.22974	0.00398
2046.94397	0.00309
2045.65820	0.00235
2044.37243	0.00143
2043.08667	0.00024
2041.80090	-0.00087
2040.51513	-0.00146
2039.22936	-0.00131
2037.94359	-0.00064
2036.65782	0.00012
2035.37205	0.00055
2034.08628	0.00049
2032.80052	0.00006
2031.51475	-0.00037
2030.22898	-0.00050
2028.94321	-0.00022
2027.65744	0.00032
2026.37167	0.00101
2025.08590	0.00189
2023.80013	0.00291
2022.51436	0.00369
2021.22860	0.00379
2019.94283	0.00315
2018.65706	0.00214
2017.37129	0.00113
2016.08552	0.00018
2014.79975	-0.00071
2013.51398	-0.00134
2012.22821	-0.00144
2010.94245	-0.00109
2009.65668	-0.00048
2008.37091	0.00040
2007.08514	0.00171
2005.79937	0.00314
2004.51360	0.00399
2003.22783	0.00390
2001.94206	0.00338
2000.65629	0.00339
1999.37053	0.00442
1998.08476	0.00615
1996.79899	0.00780
1995.51322	0.00886
1994.22745	0.00924
1992.94168	0.00902
1991.65591	0.00822
1990.37014	0.00686
1989.08438	0.00526
1987.79861	0.00388
1986.51284	0.00311
1985.22707	0.00302
1983.94130	0.00336
1982.65553	0.00379
1981.36976	0.00406
1980.08399	0.00406
1978.79822	0.00380
1977.51246	0.00337
1976.22669	0.00295
1974.94092	0.00275
1973.65515	0.00284
1972.36938	0.00310
1971.08361	0.00334
1969.79784	0.00336
1968.51207	0.00304
1967.22631	0.00247
1965.94054	0.00213
1964.65477	0.00247
1963.36900	0.00354
1962.08323	0.00488
1960.79746	0.00602
1959.51169	0.00680
1958.22592	0.00730
1956.94015	0.00747
1955.65439	0.00720
1954.36862	0.00658
1953.08285	0.00601
1951.79708	0.00595
1950.51131	0.00647
1949.22554	0.00713
1947.93977	0.00739
1946.65400	0.00703
1945.36823	0.00642
1944.08247	0.00614
1942.79670	0.00641
1941.51093	0.00694
1940.22516	0.00729
1938.93939	0.00732
1937.65362	0.00726
1936.36785	0.00726
1935.08208	0.00732
1933.79632	0.00746
1932.51055	0.00785
1931.22478	0.00855
1929.93901	0.00938
1928.65324	0.01003
1927.36747	0.01033
1926.08170	0.01031
1924.79593	0.01011
1923.51016	0.00986
1922.22440	0.00962
1920.93863	0.00942
1919.65286	0.00930
1918.36709	0.00928
1917.08132	0.00933
1915.79555	0.00931
1914.50978	0.00916
1913.22401	0.00898
1911.93825	0.00895
1910.65248	0.00913
1909.36671	0.00937
1908.08094	0.00952
1906.79517	0.00962
1905.50940	0.00980
1904.22363	0.01008
1902.93786	0.01034
1901.65209	0.01039
1900.36633	0.01021
1899.08056	0.00992
1897.79479	0.00965
1896.50902	0.00944
1895.22325	0.00923
1893.93748	0.00897
1892.65171	0.00865
1891.36594	0.00840
1890.08018	0.00835
1888.79441	0.00857
1887.50864	0.00892
1886.22287	0.00921
1884.93710	0.00929
1883.65133	0.00919
1882.36556	0.00904
1881.07979	0.00899
1879.79402	0.00907
1878.50826	0.00918
1877.22249	0.00921
1875.93672	0.00914
1874.65095	0.00907
1873.36518	0.00907
1872.07941	0.00915
1870.79364	0.00925
1869.50787	0.00933
1868.22211	0.00932
1866.93634	0.00919
1865.65057	0.00901
1864.36480	0.00886
1863.07903	0.00883
1861.79326	0.00891
1860.50749	0.00907
1859.22172	0.00926
1857.93595	0.00943
1856.65019	0.00957
1855.36442	0.00973
1854.07865	0.00992
1852.79288	0.01011
1851.50711	0.01021
1850.22134	0.01015
1848.93557	0.00996
1847.64980	0.00972
1846.36404	0.00956
1845.07827	0.00955
1843.79250	0.00971
1842.50673	0.00992
1841.22096	0.01006
1839.93519	0.01005
1838.64942	0.01000
1837.36365	0.01001
1836.07788	0.01009
1834.79212	0.01017
1833.50635	0.01023
1832.22058	0.01025
1830.93481	0.01027
1829.64904	0.01027
1828.36327	0.01023
1827.07750	0.01009
1825.79173	0.00981
1824.50597	0.00946
1823.22020	0.00918
1821.93443	0.00909
1820.64866	0.00919
1819.36289	0.00937
1818.07712	0.00957
1816.79135	0.00982
1815.50558	0.01010
1814.21981	0.01034
1812.93405	0.01050
1811.64828	0.01060
1810.36251	0.01073
1809.07674	0.01091
1807.79097	0.01109
1806.50520	0.01120
1805.21943	0.01126
1803.93366	0.01132
1802.64790	0.01137
1801.36213	0.01136
1800.07636	0.01126
1798.79059	0.01112
1797.50482	0.01102
1796.21905	0.01097
1794.93328	0.01096
1793.64751	0.01095
1792.36174	0.01097
1791.07598	0.01104
1789.79021	0.01113
1788.50444	0.01120
1787.21867	0.01123
1785.93290	0.01125
1784.64713	0.01129
1783.36136	0.01137
1782.07559	0.01145
1780.78983	0.01148
1779.50406	0.01145
1778.21829	0.01138
1776.93252	0.01134
1775.64675	0.01137
1774.36098	0.01144
1773.07521	0.01153
1771.78944	0.01158
1770.50367	0.01166
1769.21791	0.01184
1767.93214	0.01208
1766.64637	0.01230
1765.36060	0.01238
1764.07483	0.01235
1762.78906	0.01231
1761.50329	0.01236
1760.21752	0.01248
1758.93176	0.01255
1757.64599	0.01249
1756.36022	0.01234
1755.07445	0.01223
1753.78868	0.01222
1752.50291	0.01231
1751.21714	0.01244
1749.93137	0.01257
1748.64560	0.01268
1747.35984	0.01278
1746.07407	0.01287
1744.78830	0.01293
1743.50253	0.01296
1742.21676	0.01298
1740.93099	0.01302
1739.64522	0.01309
1738.35945	0.01317
1737.07369	0.01322
1735.78792	0.01323
1734.50215	0.01328
1733.21638	0.01343
1731.93061	0.01366
1730.64484	0.01388
1729.35907	0.01404
1728.07330	0.01416
1726.78753	0.01429
1725.50177	0.01446
1724.21600	0.01468
1722.93023	0.01492
1721.64446	0.01515
1720.35869	0.01532
1719.07292	0.01544
1717.78715	0.01553
1716.50138	0.01565
1715.21561	0.01582
1713.92985	0.01603
1712.64408	0.01623
1711.35831	0.01639
1710.07254	0.01654
1708.78677	0.01674
1707.50100	0.01696
1706.21523	0.01718
1704.92946	0.01735
1703.64370	0.01751
1702.35793	0.01770
1701.07216	0.01795
1699.78639	0.01825
1698.50062	0.01852
1697.21485	0.01873
1695.92908	0.01897
1694.64331	0.01932
1693.35754	0.01979
1692.07178	0.02024
1690.78601	0.02055
1689.50024	0.02072
1688.21447	0.02080
1686.92870	0.02088
1685.64293	0.02102
1684.35716	0.02132
1683.07139	0.02177
1681.78563	0.02229
1680.49986	0.02274
1679.21409	0.02306
1677.92832	0.02326
1676.64255	0.02344
1675.35678	0.02366
1674.07101	0.02394
1672.78524	0.02422
1671.49947	0.02450
1670.21371	0.02479
1668.92794	0.02509
1667.64217	0.02537
1666.35640	0.02558
1665.07063	0.02572
1663.78486	0.02585
1662.49909	0.02604
1661.21332	0.02632
1659.92756	0.02663
1658.64179	0.02686
1657.35602	0.02693
1656.07025	0.02686
1654.78448	0.02673
1653.49871	0.02668
1652.21294	0.02680
1650.92717	0.02706
1649.64140	0.02738
1648.35564	0.02767
1647.06987	0.02791
1645.78410	0.02811
1644.49833	0.02826
1643.21256	0.02834
1641.92679	0.02837
1640.64102	0.02836
1639.35525	0.02832
1638.06949	0.02826
1636.78372	0.02822
1635.49795	0.02824
1634.21218	0.02835
1632.92641	0.02853
1631.64064	0.02868
1630.35487	0.02878
1629.06910	0.02884
1627.78333	0.02890
1626.49757	0.02896
1625.21180	0.02898
1623.92603	0.02900
1622.64026	0.02904
1621.35449	0.02911
1620.06872	0.02915
1618.78295	0.02915
1617.49718	0.02915
1616.21142	0.02919
1614.92565	0.02928
1613.63988	0.02937
1612.35411	0.02944
1611.06834	0.02949
1609.78257	0.02952
1608.49680	0.02957
1607.21103	0.02965
1605.92526	0.02974
1604.63950	0.02985
1603.35373	0.02998
1602.06796	0.03014
1600.78219	0.03032
1599.49642	0.03048
1598.21065	0.03062
1596.92488	0.03075
1595.63911	0.03090
1594.35335	0.03105
1593.06758	0.03114
1591.78181	0.03119
1590.49604	0.03124
1589.21027	0.03133
1587.92450	0.03147
1586.63873	0.03163
1585.35296	0.03177
1584.06719	0.03192
1582.78143	0.03208
1581.49566	0.03227
1580.20989	0.03247
1578.92412	0.03267
1577.63835	0.03285
1576.35258	0.03304
1575.06681	0.03324
1573.78104	0.03345
1572.49528	0.03368
1571.20951	0.03391
1569.92374	0.03413
1568.63797	0.03435
1567.35220	0.03456
1566.06643	0.03475
1564.78066	0.03488
1563.49489	0.03491
1562.20912	0.03488
1560.92336	0.03487
1559.63759	0.03502
1558.35182	0.03536
1557.06605	0.03580
1555.78028	0.03625
1554.49451	0.03666
1553.20874	0.03705
1551.92297	0.03742
1550.63721	0.03775
1549.35144	0.03801
1548.06567	0.03819
1546.77990	0.03828
1545.49413	0.03832
1544.20836	0.03833
1542.92259	0.03835
1541.63682	0.03841
1540.35105	0.03854
1539.06529	0.03873
1537.77952	0.03894
1536.49375	0.03914
1535.20798	0.03931
1533.92221	0.03953
1532.63644	0.03983
1531.35067	0.04022
1530.06490	0.04065
1528.77914	0.04110
1527.49337	0.04158
1526.20760	0.04210
1524.92183	0.04266
1523.63606	0.04326
1522.35029	0.04391
1521.06452	0.04465
1519.77875	0.04552
1518.49298	0.04650
1517.20722	0.04754
1515.92145	0.04863
1514.63568	0.04973
1513.34991	0.05084
1512.06414	0.05199
1510.77837	0.05315
1509.49260	0.05431
1508.20683	0.05545
1506.92107	0.05660
1505.63530	0.05779
1504.34953	0.05902
1503.06376	0.06019
1501.77799	0.06124
1500.49222	0.06213
1499.20645	0.06290
1497.92068	0.06358
1496.63491	0.06424
1495.34915	0.06489
1494.06338	0.06557
1492.77761	0.06624
1491.49184	0.06692
1490.20607	0.06764
1488.92030	0.06846
1487.63453	0.06942
1486.34876	0.07052
1485.06299	0.07173
1483.77723	0.07303
1482.49146	0.07436
1481.20569	0.07566
1479.91992	0.07689
1478.63415	0.07804
1477.34838	0.07914
1476.06261	0.08016
1474.77684	0.08107
1473.49108	0.08183
1472.20531	0.08249
1470.91954	0.08309
1469.63377	0.08363
1468.34800	0.08407
1467.06223	0.08439
1465.77646	0.08460
1464.49069	0.08475
1463.20492	0.08489
1461.91916	0.08505
1460.63339	0.08525
1459.34762	0.08552
1458.06185	0.08588
1456.77608	0.08635
1455.49031	0.08691
1454.20454	0.08752
1452.91877	0.08808
1451.63301	0.08853
1450.34724	0.08879
1449.06147	0.08886
1447.77570	0.08880
1446.48993	0.08865
1445.20416	0.08842
1443.91839	0.08809
1442.63262	0.08765
1441.34685	0.08714
1440.06109	0.08662
1438.77532	0.08618
1437.48955	0.08589
1436.20378	0.08579
1434.91801	0.08591
1433.63224	0.08629
1432.34647	0.08694
1431.06070	0.08788
1429.77494	0.08906
1428.48917	0.09042
1427.20340	0.09189
1425.91763	0.09341
1424.63186	0.09490
1423.34609	0.09631
1422.06032	0.09763
1420.77455	0.09885
1419.48878	0.09998
1418.20302	0.10102
1416.91725	0.10190
1415.63148	0.10257
1414.34571	0.10297
1413.05994	0.10308
1411.77417	0.10291
1410.48840	0.10247
1409.20263	0.10174
1407.91687	0.10077
1406.63110	0.09958
1405.34533	0.09819
1404.05956	0.09661
1402.77379	0.09483
1401.48802	0.09288
1400.20225	0.09083
1398.91648	0.08872
1397.63071	0.08658
1396.34495	0.08441
1395.05918	0.08222
1393.77341	0.08002
1392.48764	0.07783
1391.20187	0.07565
1389.91610	0.07349
1388.63033	0.07132
1387.34456	0.06916
1386.05880	0.06701
1384.77303	0.06489
1383.48726	0.06284
1382.20149	0.06086
1380.91572	0.05890
1379.62995	0.05691
1378.34418	0.05490
1377.05841	0.05287
1375.77264	0.05085
1374.48688	0.04889
1373.20111	0.04701
1371.91534	0.04523
1370.62957	0.04355
1369.34380	0.04195
1368.05803	0.04043
1366.77226	0.03901
1365.48649	0.03768
1364.20073	0.03642
1362.91496	0.03523
1361.62919	0.03410
1360.34342	0.03305
1359.05765	0.03210
1357.77188	0.03124
1356.48611	0.03043
1355.20034	0.02965
1353.91457	0.02888
1352.62881	0.02814
1351.34304	0.02745
1350.05727	0.02685
1348.77150	0.02632
1347.48573	0.02580
1346.19996	0.02526
1344.91419	0.02471
1343.62842	0.02416
1342.34266	0.02364
1341.05689	0.02318
1339.77112	0.02278
1338.48535	0.02247
1337.19958	0.02221
1335.91381	0.02195
1334.62804	0.02170
1333.34227	0.02146
1332.05650	0.02126
1330.77074	0.02108
1329.48497	0.02091
1328.19920	0.02071
1326.91343	0.02047
1325.62766	0.02020
1324.34189	0.01992
1323.05612	0.01966
1321.77035	0.01944
1320.48459	0.01926
1319.19882	0.01912
1317.91305	0.01900
1316.62728	0.01886
1315.34151	0.01872
1314.05574	0.01859
1312.76997	0.01847
1311.48420	0.01836
1310.19843	0.01822
1308.91267	0.01805
1307.62690	0.01786
1306.34113	0.01771
1305.05536	0.01759
1303.76959	0.01751
1302.48382	0.01748
1301.19805	0.01747
1299.91228	0.01745
1298.62652	0.01737
1297.34075	0.01723
1296.05498	0.01705
1294.76921	0.01686
1293.48344	0.01671
1292.19767	0.01661
1290.91190	0.01657
1289.62613	0.01655
1288.34036	0.01652
1287.05460	0.01646
1285.76883	0.01637
1284.48306	0.01627
1283.19729	0.01618
1281.91152	0.01611
1280.62575	0.01606
1279.33998	0.01600
1278.05421	0.01591
1276.76845	0.01582
1275.48268	0.01574
1274.19691	0.01567
1272.91114	0.01560
1271.62537	0.01550
1270.33960	0.01537
1269.05383	0.01525
1267.76806	0.01515
1266.48229	0.01509
1265.19653	0.01508
1263.91076	0.01512
1262.62499	0.01514
1261.33922	0.01513
1260.05345	0.01509
1258.76768	0.01505
1257.48191	0.01504
1256.19614	0.01502
1254.91037	0.01495
1253.62461	0.01483
1252.33884	0.01468
1251.05307	0.01456
1249.76730	0.01448
1248.48153	0.01442
1247.19576	0.01438
1245.90999	0.01433
1244.62422	0.01429
1243.33846	0.01425
1242.05269	0.01422
1240.76692	0.01417
1239.48115	0.01408
1238.19538	0.01396
1236.90961	0.01387
1235.62384	0.01384
1234.33807	0.01388
1233.05230	0.01394
1231.76654	0.01394
1230.48077	0.01389
1229.19500	0.01381
1227.90923	0.01373
1226.62346	0.01369
1225.33769	0.01369
1224.05192	0.01368
1222.76615	0.01364
1221.48039	0.01361
1220.19462	0.01358
1218.90885	0.01356
1217.62308	0.01350
1216.33731	0.01341
1215.05154	0.01334
1213.76577	0.01333
1212.48000	0.01336
1211.19423	0.01337
1209.90847	0.01336
1208.62270	0.01333
1207.33693	0.01332
1206.05116	0.01335
1204.76539	0.01343
1203.47962	0.01352
1202.19385	0.01360
1200.90808	0.01365
1199.62232	0.01368
1198.33655	0.01357
1197.05078	0.01349
1195.76501	0.01347
1194.47924	0.01352
1193.19347	0.01361
1191.90770	0.01370
1190.62193	0.01379
1189.33616	0.01387
1188.05040	0.01393
1186.76463	0.01399
1185.47886	0.01405
1184.19309	0.01410
1182.90732	0.01415
1181.62155	0.01420
1180.33578	0.01426
1179.05001	0.01434
1177.76425	0.01444
1176.47848	0.01456
1175.19271	0.01473
1173.90694	0.01495
1172.62117	0.01521
1171.33540	0.01543
1170.04963	0.01560
1168.76386	0.01574
1167.47809	0.01596
1166.19233	0.01627
1164.90656	0.01662
1163.62079	0.01694
1162.33502	0.01720
1161.04925	0.01743
1159.76348	0.01769
1158.47771	0.01806
1157.19194	0.01853
1155.90618	0.01908
1154.62041	0.01964
1153.33464	0.02016
1152.04887	0.02068
1150.76310	0.02126
1149.47733	0.02194
1148.19156	0.02273
1146.90579	0.02358
1145.62002	0.02447
1144.33426	0.02541
1143.04849	0.02640
1141.76272	0.02746
1140.47695	0.02862
1139.19118	0.02989
1137.90541	0.03131
1136.61964	0.03290
1135.33387	0.03465
1134.04811	0.03655
1132.76234	0.03859
1131.47657	0.04080
1130.19080	0.04325
1128.90503	0.04599
1127.61926	0.04900
1126.33349	0.05219
1125.04772	0.05551
1123.76195	0.05900
1122.47619	0.06267
1121.19042	0.06652
1119.90465	0.07045
1118.61888	0.07438
1117.33311	0.07825
1116.04734	0.08212
1114.76157	0.08603
1113.47580	0.08998
1112.19004	0.09388
1110.90427	0.09764
1109.61850	0.10122
1108.33273	0.10462
1107.04696	0.10790
1105.76119	0.11117
1104.47542	0.11448
1103.18965	0.11785
1101.90388	0.12121
1100.61812	0.12446
1099.33235	0.12754
1098.04658	0.13049
1096.76081	0.13342
1095.47504	0.13636
1094.18927	0.13923
1092.90350	0.14192
1091.61773	0.14445
1090.33197	0.14689
1089.04620	0.14930
1087.76043	0.15169
1086.47466	0.15403
1085.18889	0.15633
1083.90312	0.15869
1082.61735	0.16120
1081.33158	0.16395
1080.04581	0.16691
1078.76005	0.17003
1077.47428	0.17327
1076.18851	0.17662
1074.90274	0.18009
1073.61697	0.18369
1072.33120	0.18744
1071.04543	0.19133
1069.75966	0.19536
1068.47390	0.19952
1067.18813	0.20379
1065.90236	0.20816
1064.61659	0.21263
1063.33082	0.21720
1062.04505	0.22187
1060.75928	0.22654
1059.47351	0.23111
1058.18774	0.23555
1056.90198	0.23989
1055.61621	0.24421
1054.33044	0.24851
1053.04467	0.25280
1051.75890	0.25717
1050.47313	0.26172
1049.18736	0.26651
1047.90159	0.27148
1046.61583	0.27651
1045.33006	0.28153
1044.04429	0.28654
1042.75852	0.29162
1041.47275	0.29685
1040.18698	0.30226
1038.90121	0.30783
1037.61544	0.31348
1036.32967	0.31907
1035.04391	0.32453
1033.75814	0.32980
1032.47237	0.33484
1031.18660	0.33956
1029.90083	0.34383
1028.61506	0.34756
1027.32929	0.35080
1026.04352	0.35360
1024.75775	0.35599
1023.47199	0.35792
1022.18622	0.35930
1020.90045	0.36003
1019.61468	0.36001
1018.32891	0.35925
1017.04314	0.35779
1015.75737	0.35559
1014.47160	0.35255
1013.18584	0.34860
1011.90007	0.34383
1010.61430	0.33835
1009.32853	0.33217
1008.04276	0.32521
1006.75699	0.31744
1005.47122	0.30889
1004.18545	0.29970
1002.89968	0.28998
1001.61392	0.27982
1000.32815	0.26927
999.04238	0.25840
997.75661	0.24731
996.47084	0.23610
995.18507	0.22486
993.89930	0.21371
992.61353	0.20276
991.32777	0.19213
990.04200	0.18195
988.75623	0.17226
987.47046	0.16307
986.18469	0.15438
984.89892	0.14621
983.61315	0.13863
982.32738	0.13169
981.04161	0.12535
979.75585	0.11956
978.47008	0.11429
977.18431	0.10955
975.89854	0.10541
974.61277	0.10195
973.32700	0.09928
972.04123	0.09742
970.75546	0.09633
969.46970	0.09596
968.18393	0.09623
966.89816	0.09704
965.61239	0.09825
964.32662	0.09966
963.04085	0.10097
961.75508	0.10183
960.46931	0.10196
959.18354	0.10120
957.89778	0.09960
956.61201	0.09725
955.32624	0.09433
954.04047	0.09105
952.75470	0.08765
951.46893	0.08430
950.18316	0.08112
948.89739	0.07815
947.61163	0.07538
946.32586	0.07274
945.04009	0.07015
943.75432	0.06760
942.46855	0.06517
941.18278	0.06290
939.89701	0.06082
938.61124	0.05891
937.32547	0.05717
936.03971	0.05560
934.75394	0.05418
933.46817	0.05283
932.18240	0.05153
930.89663	0.05027
929.61086	0.04907
928.32509	0.04795
927.03932	0.04695
925.75356	0.04612
924.46779	0.04544
923.18202	0.04488
921.89625	0.04437
920.61048	0.04389
919.32471	0.04344
918.03894	0.04295
916.75317	0.04241
915.46740	0.04186
914.18164	0.04139
912.89587	0.04099
911.61010	0.04061
910.32433	0.04023
909.03856	0.03989
907.75279	0.03958
906.46702	0.03923
905.18125	0.03887
903.89549	0.03855
902.60972	0.03831
901.32395	0.03808
900.03818	0.03778
898.75241	0.03748
897.46664	0.03735
896.18087	0.03741
894.89510	0.03759
893.60933	0.03776
892.32357	0.03789
891.03780	0.03804
889.75203	0.03830
888.46626	0.03883
887.18049	0.03979
885.89472	0.04134
884.60895	0.04361
883.32318	0.04657
882.03742	0.04995
880.75165	0.05322
879.46588	0.05591
878.18011	0.05782
876.89434	0.05922
875.60857	0.06053
874.32280	0.06195
873.03703	0.06315
871.75126	0.06360
870.46550	0.06299
869.17973	0.06141
867.89396	0.05921
866.60819	0.05669
865.32242	0.05400
864.03665	0.05127
862.75088	0.04867
861.46511	0.04633
860.17935	0.04435
858.89358	0.04274
857.60781	0.04145
856.32204	0.04040
855.03627	0.03950
853.75050	0.03871
852.46473	0.03801
851.17896	0.03738
849.89319	0.03682
848.60743	0.03636
847.32166	0.03606
846.03589	0.03584
844.75012	0.03561
843.46435	0.03528
842.17858	0.03491
840.89281	0.03456
839.60704	0.03425
838.32128	0.03395
837.03551	0.03364
835.74974	0.03336
834.46397	0.03311
833.17820	0.03291
831.89243	0.03274
830.60666	0.03260
829.32089	0.03250
828.03512	0.03246
826.74936	0.03246
825.46359	0.03243
824.17782	0.03231
822.89205	0.03212
821.60628	0.03194
820.32051	0.03189
819.03474	0.03198
817.74897	0.03206
816.46321	0.03198
815.17744	0.03176
813.89167	0.03156
812.60590	0.03153
811.32013	0.03163
810.03436	0.03175
808.74859	0.03178
807.46282	0.03170
806.17705	0.03153
804.89129	0.03136
803.60552	0.03127
802.31975	0.03125
801.03398	0.03123
799.74821	0.03117
798.46244	0.03110
797.17667	0.03108
795.89090	0.03108
794.60513	0.03102
793.31937	0.03088
792.03360	0.03072
790.74783	0.03067
789.46206	0.03077
788.17629	0.03095
786.89052	0.03110
785.60475	0.03113
784.31898	0.03106
783.03322	0.03096
781.74745	0.03093
780.46168	0.03096
779.17591	0.03103
777.89014	0.03109
776.60437	0.03114
775.31860	0.03117
774.03283	0.03114
772.74706	0.03102
771.46130	0.03081
770.17553	0.03054
768.88976	0.03034
767.60399	0.03029
766.31822	0.03041
765.03245	0.03062
763.74668	0.03079
762.46091	0.03086
761.17515	0.03089
759.88938	0.03097
758.60361	0.03116
757.31784	0.03139
756.03207	0.03154
754.74630	0.03153
753.46053	0.03142
752.17476	0.03131
750.88899	0.03127
749.60323	0.03128
748.31746	0.03132
747.03169	0.03136
745.74592	0.03134
744.46015	0.03126
743.17438	0.03109
741.88861	0.03089
740.60284	0.03071
739.31708	0.03066
738.03131	0.03076
736.74554	0.03090
735.45977	0.03098
734.17400	0.03101
732.88823	0.03103
731.60246	0.03104
730.31669	0.03102
729.03092	0.03100
727.74516	0.03107
726.45939	0.03118
725.17362	0.03125
723.88785	0.03118
722.60208	0.03117
721.31631	0.03126
720.03054	0.03142
718.74477	0.03159
717.45901	0.03172
716.17324	0.03179
714.88747	0.03181
713.60170	0.03178
712.31593	0.03169
711.03016	0.03153
709.74439	0.03134
708.45862	0.03119
707.17285	0.03112
705.88709	0.03113
704.60132	0.03118
703.31555	0.03121
702.02978	0.03119
700.74401	0.03114
699.45824	0.03110
698.17247	0.03110
696.88670	0.03114
695.60094	0.03120
694.31517	0.03127
693.02940	0.03140
691.74363	0.03156
690.45786	0.03170
689.17209	0.03175
687.88632	0.03169
686.60055	0.03156
685.31478	0.03139
684.02902	0.03121
682.74325	0.03103
681.45748	0.03088
680.17171	0.03082
678.88594	0.03083
677.60017	0.03089
676.31440	0.03094
675.02863	0.03099
673.74287	0.03103
672.45710	0.03112
671.17133	0.03126
669.88556	0.03146
668.59979	0.03164
667.31402	0.03175
666.02825	0.03170
664.74248	0.03153
663.45671	0.03132
662.17095	0.03114
660.88518	0.03102
659.59941	0.03097
658.31364	0.03096
657.02787	0.03097
655.74210	0.03099
654.45633	0.03102
653.17056	0.03106
651.88480	0.03115
650.59903	0.03132
649.31326	0.03153
648.02749	0.03172
646.74172	0.03185
645.45595	0.03191
644.17018	0.03200
642.88441	0.03220
641.59864	0.03255
640.31288	0.03303
639.02711	0.03354
637.74134	0.03402
636.45557	0.03448
635.16980	0.03497
633.88403	0.03556
632.59826	0.03627
631.31249	0.03703
630.02673	0.03738
628.74096	0.03755
627.45519	0.03929
626.16942	0.03931
624.88365	0.03806
623.59788	0.03715
622.31211	0.03802
621.02634	0.04146
619.74057	0.04674
618.45481	0.05221
617.16904	0.05685
615.88327	0.06082
614.59750	0.06489
613.31173	0.06987
612.02596	0.07626
610.74019	0.08371
609.45442	0.09086
608.16866	0.09656
606.88289	0.10094
605.59712	0.10478
604.31135	0.10836
603.02558	0.11137
601.73981	0.11343
600.45404	0.11420
599.16827	0.11333
597.88250	0.11082
596.59674	0.10719
595.31097	0.10326
594.02520	0.09968
592.73943	0.09675
591.45366	0.09469
590.16789	0.09364
588.88212	0.09357
587.59635	0.09427
586.31059	0.09555
585.02482	0.09740
583.73905	0.09990
582.45328	0.10304
581.16751	0.10660
579.88174	0.11036
578.59597	0.11415
577.31020	0.11793
576.02443	0.12167
574.73867	0.12539
573.45290	0.12905
572.16713	0.13269
570.88136	0.13646
569.59559	0.14062
568.30982	0.14537
567.02405	0.15066
565.73828	0.15607
564.45251	0.16097
563.16675	0.16469
561.88098	0.16664
560.59521	0.16632
559.30944	0.16340
558.02367	0.15786
556.73790	0.15015
555.45213	0.14106
554.16636	0.13148
552.88060	0.12205
551.59483	0.11316
550.30906	0.10501
549.02329	0.09766
547.73752	0.09110
546.45175	0.08525
545.16598	0.08000
543.88021	0.07530
542.59444	0.07119
541.30868	0.06766
540.02291	0.06461
538.73714	0.06186
537.45137	0.05933
536.16560	0.05699
534.87983	0.05486
533.59406	0.05292
532.30829	0.05109
531.02253	0.04938
529.73676	0.04780
528.45099	0.04639
527.16522	0.04510
525.87945	0.04390
524.59368	0.04279
523.30791	0.04179
522.02214	0.04087
520.73637	0.03997
519.45061	0.03900
518.16484	0.03801
516.87907	0.03705
515.59330	0.03623
514.30753	0.03556
513.02176	0.03503
511.73599	0.03459
510.45022	0.03419
509.16446	0.03377
507.87869	0.03327
506.59292	0.03269
505.30715	0.03210
504.02138	0.03159
502.73561	0.03120
501.44984	0.03089
500.16407	0.03058
498.87830	0.03020
497.59254	0.02980
496.30677	0.02946
495.02100	0.02922
493.73523	0.02905
492.44946	0.02890
491.16369	0.02874
489.87792	0.02861
488.59215	0.02850
487.30639	0.02844
486.02062	0.02842
484.73485	0.02846
483.44908	0.02858
482.16331	0.02879
480.87754	0.02907
479.59177	0.02937
478.30600	0.02964
477.02023	0.02984
475.73447	0.03000
474.44870	0.03019
473.16293	0.03043
471.87716	0.03072
470.59139	0.03097
469.30562	0.03108
468.01985	0.03099
466.73408	0.03071
465.44832	0.03029
464.16255	0.02981
462.87678	0.02934
461.59101	0.02893
460.30524	0.02859
459.01947	0.02831
457.73370	0.02806
456.44793	0.02783
455.16216	0.02762
453.87640	0.02741
452.59063	0.02721
451.30486	0.02705
450.01909	0.02694
448.73332	0.02687
447.44755	0.02680
446.16178	0.02673
444.87601	0.02663
443.59025	0.02653
442.30448	0.02642
441.01871	0.02632
439.73294	0.02622
438.44717	0.02613
437.16140	0.02609
435.87563	0.02612
434.58986	0.02618
433.30409	0.02621
432.01833	0.02616
430.73256	0.02608
429.44679	0.02605
428.16102	0.02610
426.87525	0.02617
425.58948	0.02617
424.30371	0.02610
423.01794	0.02598
421.73218	0.02586
420.44641	0.02577
419.16064	0.02572
417.87487	0.02570
416.58910	0.02566
415.30333	0.02557
414.01756	0.02546
412.73179	0.02540
411.44602	0.02546
410.16026	0.02562
408.87449	0.02586
407.58872	0.02610
406.30295	0.02633
405.01718	0.02655
403.73141	0.02675
402.44564	0.02692
401.15987	0.02708
399.87411	0.02722
