3997.45528	0.06143
3996.16951	0.06164
3994.88374	0.06193
3993.59798	0.06217
3992.31221	0.06222
3991.02644	0.06204
3989.74067	0.06173
3988.45490	0.06140
3987.16913	0.06115
3985.88336	0.06097
3984.59759	0.06083
3983.31183	0.06081
3982.02606	0.06095
3980.74029	0.06110
3979.45452	0.06104
3978.16875	0.06077
3976.88298	0.06057
3975.59721	0.06075
3974.31144	0.06140
3973.02567	0.06224
3971.73991	0.06276
3970.45414	0.06261
3969.16837	0.06186
3967.88260	0.06098
3966.59683	0.06050
3965.31106	0.06051
3964.02529	0.06069
3962.73952	0.06070
3961.45376	0.06051
3960.16799	0.06026
3958.88222	0.06000
3957.59645	0.05959
3956.31068	0.05899
3955.02491	0.05836
3953.73914	0.05796
3952.45337	0.05795
3951.16760	0.05831
3949.88184	0.05883
3948.59607	0.05923
3947.31030	0.05938
3946.02453	0.05937
3944.73876	0.05942
3943.45299	0.05963
3942.16722	0.05990
3940.88145	0.06003
3939.59569	0.05993
3938.30992	0.05969
3937.02415	0.05949
3935.73838	0.05946
3934.45261	0.05948
3933.16684	0.05940
3931.88107	0.05926
3930.59530	0.05924
3929.30953	0.05946
3928.02377	0.05977
3926.73800	0.05995
3925.45223	0.05986
3924.16646	0.05958
3922.88069	0.05931
3921.59492	0.05919
3920.30915	0.05911
3919.02338	0.05889
3917.73762	0.05846
3916.45185	0.05797
3915.16608	0.05765
3913.88031	0.05757
3912.59454	0.05765
3911.30877	0.05776
3910.02300	0.05785
3908.73723	0.05793
3907.45146	0.05810
3906.16570	0.05840
3904.87993	0.05865
3903.59416	0.05844
3902.30839	0.05758
3901.02262	0.05651
3899.73685	0.05592
3898.45108	0.05606
3897.16531	0.05661
3895.87955	0.05711
3894.59378	0.05743
3893.30801	0.05781
3892.02224	0.05832
3890.73647	0.05870
3889.45070	0.05871
3888.16493	0.05845
3886.87916	0.05810
3885.59339	0.05766
3884.30763	0.05723
3883.02186	0.05702
3881.73609	0.05707
3880.45032	0.05715
3879.16455	0.05709
3877.87878	0.05701
3876.59301	0.05703
3875.30724	0.05716
3874.02148	0.05742
3872.73571	0.05794
3871.44994	0.05874
3870.16417	0.05942
3868.87840	0.05946
3867.59263	0.05877
3866.30686	0.05768
3865.02109	0.05658
3863.73532	0.05583
3862.44956	0.05556
3861.16379	0.05555
3859.87802	0.05540
3858.59225	0.05492
3857.30648	0.05438
3856.02071	0.05415
3854.73494	0.05427
3853.44917	0.05439
3852.16341	0.05439
3850.87764	0.05457
3849.59187	0.05515
3848.30610	0.05598
3847.02033	0.05674
3845.73456	0.05712
3844.44879	0.05694
3843.16302	0.05630
3841.87725	0.05566
3840.59149	0.05544
3839.30572	0.05563
3838.01995	0.05572
3836.73418	0.05534
3835.44841	0.05472
3834.16264	0.05439
3832.87687	0.05455
3831.59110	0.05498
3830.30534	0.05529
3829.01957	0.05530
3827.73380	0.05508
3826.44803	0.05475
3825.16226	0.05444
3823.87649	0.05430
3822.59072	0.05436
3821.30495	0.05445
3820.01918	0.05454
3818.73342	0.05492
3817.44765	0.05574
3816.16188	0.05643
3814.87611	0.05632
3813.59034	0.05546
3812.30457	0.05443
3811.01880	0.05373
3809.73303	0.05349
3808.44726	0.05354
3807.16150	0.05357
3805.87573	0.05352
3804.58996	0.05372
3803.30419	0.05436
3802.01842	0.05503
3800.73265	0.05516
3799.44688	0.05480
3798.16111	0.05445
3796.87535	0.05438
3795.58958	0.05443
3794.30381	0.05432
3793.01804	0.05384
3791.73227	0.05304
3790.44650	0.05224
3789.16073	0.05185
3787.87496	0.05195
3786.58919	0.05226
3785.30343	0.05242
3784.01766	0.05233
3782.73189	0.05217
3781.44612	0.05213
3780.16035	0.05206
3778.87458	0.05171
3777.58881	0.05108
3776.30304	0.05052
3775.01728	0.05041
3773.73151	0.05083
3772.44574	0.05161
3771.15997	0.05235
3769.87420	0.05268
3768.58843	0.05252
3767.30266	0.05214
3766.01689	0.05178
3764.73112	0.05151
3763.44536	0.05134
3762.15959	0.05142
3760.87382	0.05173
3759.58805	0.05205
3758.30228	0.05207
3757.01651	0.05168
3755.73074	0.05110
3754.44497	0.05068
3753.15921	0.05049
3751.87344	0.05039
3750.58767	0.05030
3749.30190	0.05037
3748.01613	0.05079
3746.73036	0.05150
3745.44459	0.05193
3744.15882	0.05146
3742.87305	0.05040
3741.58729	0.04980
3740.30152	0.05014
3739.01575	0.05093
3737.72998	0.05140
3736.44421	0.05114
3735.15844	0.05034
3733.87267	0.04959
3732.58690	0.04918
3731.30114	0.04890
3730.01537	0.04860
3728.72960	0.04856
3727.44383	0.04907
3726.15806	0.04996
3724.87229	0.05074
3723.58652	0.05104
3722.30075	0.05078
3721.01498	0.05022
3719.72922	0.04980
3718.44345	0.04985
3717.15768	0.05034
3715.87191	0.05090
3714.58614	0.05112
3713.30037	0.05074
3712.01460	0.04989
3710.72883	0.04908
3709.44307	0.04871
3708.15730	0.04866
3706.87153	0.04849
3705.58576	0.04810
3704.29999	0.04796
3703.01422	0.04838
3701.72845	0.04907
3700.44268	0.04947
3699.15691	0.04944
3697.87115	0.04931
3696.58538	0.04939
3695.29961	0.04971
3694.01384	0.05010
3692.72807	0.05035
3691.44230	0.05035
3690.15653	0.05022
3688.87076	0.05007
3687.58500	0.04987
3686.29923	0.04953
3685.01346	0.04907
3683.72769	0.04858
3682.44192	0.04823
3681.15615	0.04800
3679.87038	0.04764
3678.58461	0.04712
3677.29884	0.04681
3676.01308	0.04706
3674.72731	0.04774
3673.44154	0.04846
3672.15577	0.04887
3670.87000	0.04875
3669.58423	0.04813
3668.29846	0.04738
3667.01269	0.04681
3665.72693	0.04653
3664.44116	0.04659
3663.15539	0.04698
3661.86962	0.04741
3660.58385	0.04760
3659.29808	0.04760
3658.01231	0.04767
3656.72654	0.04771
3655.44077	0.04735
3654.15501	0.04660
3652.86924	0.04606
3651.58347	0.04634
3650.29770	0.04742
3649.01193	0.04870
3647.72616	0.04948
3646.44039	0.04942
3645.15462	0.04867
3643.86886	0.04767
3642.58309	0.04688
3641.29732	0.04656
3640.01155	0.04672
3638.72578	0.04711
3637.44001	0.04739
3636.15424	0.04740
3634.86847	0.04722
3633.58270	0.04697
3632.29694	0.04684
3631.01117	0.04692
3629.72540	0.04707
3628.43963	0.04701
3627.15386	0.04670
3625.86809	0.04640
3624.58232	0.04643
3623.29655	0.04689
3622.01079	0.04764
3620.72502	0.04832
3619.43925	0.04864
3618.15348	0.04866
3616.86771	0.04870
3615.58194	0.04883
3614.29617	0.04880
3613.01040	0.04837
3611.72463	0.04769
3610.43887	0.04719
3609.15310	0.04715
3607.86733	0.04758
3606.58156	0.04830
3605.29579	0.04906
3604.01002	0.04963
3602.72425	0.04981
3601.43848	0.04956
3600.15272	0.04907
3598.86695	0.04870
3597.58118	0.04861
3596.29541	0.04865
3595.00964	0.04848
3593.72387	0.04804
3592.43810	0.04769
3591.15233	0.04783
3589.86656	0.04851
3588.58080	0.04919
3587.29503	0.04928
3586.00926	0.04883
3584.72349	0.04848
3583.43772	0.04873
3582.15195	0.04945
3580.86618	0.05010
3579.58041	0.05031
3578.29464	0.05010
3577.00888	0.04973
3575.72311	0.04933
3574.43734	0.04893
3573.15157	0.04861
3571.86580	0.04855
3570.58003	0.04886
3569.29426	0.04942
3568.00849	0.04992
3566.72273	0.05012
3565.43696	0.05004
3564.15119	0.04984
3562.86542	0.04966
3561.57965	0.04957
3560.29388	0.04965
3559.00811	0.04994
3557.72234	0.05035
3556.43657	0.05069
3555.15081	0.05084
3553.86504	0.05084
3552.57927	0.05079
3551.29350	0.05070
3550.00773	0.05061
3548.72196	0.05061
3547.43619	0.05078
3546.15042	0.05097
3544.86466	0.05095
3543.57889	0.05060
3542.29312	0.05013
3541.00735	0.04980
3539.72158	0.04970
3538.43581	0.04970
3537.15004	0.04972
3535.86427	0.04979
3534.57850	0.04995
3533.29274	0.05014
3532.00697	0.05029
3530.72120	0.05032
3529.43543	0.05020
3528.14966	0.04996
3526.86389	0.04977
3525.57812	0.04983
3524.29235	0.05007
3523.00659	0.05023
3521.72082	0.05010
3520.43505	0.04979
3519.14928	0.04964
3517.86351	0.04983
3516.57774	0.05030
3515.29197	0.05075
3514.00620	0.05095
3512.72043	0.05084
3511.43467	0.05061
3510.14890	0.05050
3508.86313	0.05062
3507.57736	0.05089
3506.29159	0.05112
3505.00582	0.05119
3503.72005	0.05112
3502.43428	0.05098
3501.14852	0.05075
3499.86275	0.05043
3498.57698	0.05007
3497.29121	0.04979
3496.00544	0.04962
3494.71967	0.04956
3493.43390	0.04961
3492.14813	0.04987
3490.86236	0.05031
3489.57660	0.05067
3488.29083	0.05075
3487.00506	0.05065
3485.71929	0.05064
3484.43352	0.05091
3483.14775	0.05122
3481.86198	0.05117
3480.57621	0.05056
3479.29045	0.04966
3478.00468	0.04900
3476.71891	0.04892
3475.43314	0.04937
3474.14737	0.05008
3472.86160	0.05073
3471.57583	0.05115
3470.29006	0.05127
3469.00429	0.05108
3467.71853	0.05059
3466.43276	0.04990
3465.14699	0.04923
3463.86122	0.04882
3462.57545	0.04872
3461.28968	0.04877
3460.00391	0.04889
3458.71814	0.04914
3457.43238	0.04957
3456.14661	0.05000
3454.86084	0.05016
3453.57507	0.04996
3452.28930	0.04967
3451.00353	0.04954
3449.71776	0.04958
3448.43199	0.04962
3447.14622	0.04966
3445.86046	0.04983
3444.57469	0.05010
3443.28892	0.05025
3442.00315	0.05007
3440.71738	0.04969
3439.43161	0.04949
3438.14584	0.04970
3436.86007	0.05017
3435.57431	0.05057
3434.28854	0.05068
3433.00277	0.05059
3431.71700	0.05048
3430.43123	0.05050
3429.14546	0.05067
3427.85969	0.05098
3426.57392	0.05135
3425.28815	0.05165
3424.00239	0.05178
3422.71662	0.05171
3421.43085	0.05148
3420.14508	0.05115
3418.85931	0.05073
3417.57354	0.05026
3416.28777	0.04976
3415.00200	0.04937
3413.71624	0.04937
3412.43047	0.04998
3411.14470	0.05099
3409.85893	0.05183
3408.57316	0.05200
3407.28739	0.05164
3406.00162	0.05136
3404.71585	0.05161
3403.43008	0.05224
3402.14432	0.05268
3400.85855	0.05263
3399.57278	0.05230
3398.28701	0.05220
3397.00124	0.05250
3395.71547	0.05298
3394.42970	0.05325
3393.14393	0.05312
3391.85817	0.05262
3390.57240	0.05199
3389.28663	0.05163
3388.00086	0.05181
3386.71509	0.05246
3385.42932	0.05321
3384.14355	0.05371
3382.85778	0.05387
3381.57201	0.05372
3380.28625	0.05327
3379.00048	0.05267
3377.71471	0.05220
3376.42894	0.05216
3375.14317	0.05262
3373.85740	0.05339
3372.57163	0.05417
3371.28586	0.05472
3370.00010	0.05493
3368.71433	0.05487
3367.42856	0.05474
3366.14279	0.05472
3364.85702	0.05480
3363.57125	0.05490
3362.28548	0.05494
3360.99971	0.05496
3359.71394	0.05503
3358.42818	0.05514
3357.14241	0.05521
3355.85664	0.05524
3354.57087	0.05540
3353.28510	0.05578
3351.99933	0.05627
3350.71356	0.05660
3349.42779	0.05662
3348.14202	0.05649
3346.85626	0.05653
3345.57049	0.05684
3344.28472	0.05724
3342.99895	0.05744
3341.71318	0.05733
3340.42741	0.05711
3339.14164	0.05713
3337.85587	0.05751
3336.57011	0.05804
3335.28434	0.05840
3333.99857	0.05848
3332.71280	0.05842
3331.42703	0.05840
3330.14126	0.05850
3328.85549	0.05873
3327.56972	0.05913
3326.28395	0.05968
3324.99819	0.06028
3323.71242	0.06075
3322.42665	0.06086
3321.14088	0.06050
3319.85511	0.05975
3318.56934	0.05896
3317.28357	0.05861
3315.99780	0.05882
3314.71204	0.05923
3313.42627	0.05934
3312.14050	0.05909
3310.85473	0.05890
3309.56896	0.05917
3308.28319	0.05979
3306.99742	0.06040
3305.71165	0.06075
3304.42588	0.06079
3303.14012	0.06064
3301.85435	0.06044
3300.56858	0.06039
3299.28281	0.06059
3297.99704	0.06102
3296.71127	0.06149
3295.42550	0.06186
3294.13973	0.06207
3292.85397	0.06211
3291.56820	0.06195
3290.28243	0.06163
3288.99666	0.06129
3287.71089	0.06103
3286.42512	0.06084
3285.13935	0.06068
3283.85358	0.06062
3282.56781	0.06075
3281.28205	0.06109
3279.99628	0.06150
3278.71051	0.06179
3277.42474	0.06186
3276.13897	0.06179
3274.85320	0.06179
3273.56743	0.06202
3272.28166	0.06243
3270.99590	0.06279
3269.71013	0.06280
3268.42436	0.06239
3267.13859	0.06171
3265.85282	0.06104
3264.56705	0.06055
3263.28128	0.06022
3261.99551	0.05999
3260.70974	0.06000
3259.42398	0.06043
3258.13821	0.06121
3256.85244	0.06201
3255.56667	0.06252
3254.28090	0.06270
3252.99513	0.06268
3251.70936	0.06247
3250.42359	0.06203
3249.13783	0.06140
3247.85206	0.06090
3246.56629	0.06081
3245.28052	0.06118
3243.99475	0.06174
3242.70898	0.06216
3241.42321	0.06234
3240.13744	0.06240
3238.85167	0.06244
3237.56591	0.06237
3236.28014	0.06199
3234.99437	0.06127
3233.70860	0.06050
3232.42283	0.06004
3231.13706	0.06004
3229.85129	0.06031
3228.56552	0.06058
3227.27976	0.06074
3225.99399	0.06083
3224.70822	0.06092
3223.42245	0.06096
3222.13668	0.06096
3220.85091	0.06101
3219.56514	0.06118
3218.27937	0.06142
3216.99360	0.06155
3215.70784	0.06143
3214.42207	0.06104
3213.13630	0.06055
3211.85053	0.06019
3210.56476	0.06013
3209.27899	0.06033
3207.99322	0.06061
3206.70745	0.06085
3205.42169	0.06099
3204.13592	0.06100
3202.85015	0.06086
3201.56438	0.06068
3200.27861	0.06069
3198.99284	0.06104
3197.70707	0.06161
3196.42130	0.06211
3195.13553	0.06226
3193.84977	0.06201
3192.56400	0.06148
3191.27823	0.06087
3189.99246	0.06034
3188.70669	0.05999
3187.42092	0.05984
3186.13515	0.05985
3184.84938	0.06000
3183.56362	0.06029
3182.27785	0.06067
3180.99208	0.06104
3179.70631	0.06124
3178.42054	0.06123
3177.13477	0.06103
3175.84900	0.06077
3174.56323	0.06055
3173.27746	0.06038
3171.99170	0.06013
3170.70593	0.05970
3169.42016	0.05916
3168.13439	0.05873
3166.84862	0.05861
3165.56285	0.05880
3164.27708	0.05916
3162.99131	0.05950
3161.70555	0.05975
3160.41978	0.05995
3159.13401	0.06017
3157.84824	0.06039
3156.56247	0.06056
3155.27670	0.06063
3153.99093	0.06065
3152.70516	0.06066
3151.41939	0.06065
3150.13363	0.06052
3148.84786	0.06020
3147.56209	0.05970
3146.27632	0.05917
3144.99055	0.05880
3143.70478	0.05868
3142.41901	0.05867
3141.13324	0.05852
3139.84748	0.05818
3138.56171	0.05784
3137.27594	0.05775
3135.99017	0.05794
3134.70440	0.05822
3133.41863	0.05832
3132.13286	0.05812
3130.84709	0.05773
3129.56132	0.05741
3128.27556	0.05731
3126.98979	0.05739
3125.70402	0.05747
3124.41825	0.05744
3123.13248	0.05736
3121.84671	0.05734
3120.56094	0.05748
3119.27517	0.05775
3117.98940	0.05803
3116.70364	0.05822
3115.41787	0.05834
3114.13210	0.05850
3112.84633	0.05878
3111.56056	0.05908
3110.27479	0.05924
3108.98902	0.05919
3107.70325	0.05902
3106.41749	0.05891
3105.13172	0.05896
3103.84595	0.05907
3102.56018	0.05904
3101.27441	0.05875
3099.98864	0.05833
3098.70287	0.05810
3097.41710	0.05826
3096.13133	0.05864
3094.84557	0.05894
3093.55980	0.05893
3092.27403	0.05871
3090.98826	0.05847
3089.70249	0.05832
3088.41672	0.05822
3087.13095	0.05807
3085.84518	0.05788
3084.55942	0.05780
3083.27365	0.05794
3081.98788	0.05832
3080.70211	0.05882
3079.41634	0.05927
3078.13057	0.05952
3076.84480	0.05952
3075.55903	0.05936
3074.27326	0.05918
3072.98750	0.05906
3071.70173	0.05901
3070.41596	0.05894
3069.13019	0.05875
3067.84442	0.05843
3066.55865	0.05808
3065.27288	0.05782
3063.98711	0.05778
3062.70135	0.05798
3061.41558	0.05838
3060.12981	0.05882
3058.84404	0.05904
3057.55827	0.05886
3056.27250	0.05838
3054.98673	0.05792
3053.70096	0.05774
3052.41519	0.05777
3051.12943	0.05777
3049.84366	0.05757
3048.55789	0.05721
3047.27212	0.05684
3045.98635	0.05661
3044.70058	0.05653
3043.41481	0.05657
3042.12904	0.05668
3040.84328	0.05683
3039.55751	0.05697
3038.27174	0.05705
3036.98597	0.05699
3035.70020	0.05674
3034.41443	0.05632
3033.12866	0.05587
3031.84289	0.05557
3030.55712	0.05550
3029.27136	0.05562
3027.98559	0.05581
3026.69982	0.05591
3025.41405	0.05586
3024.12828	0.05563
3022.84251	0.05532
3021.55674	0.05503
3020.27097	0.05480
3018.98521	0.05462
3017.69944	0.05446
3016.41367	0.05431
3015.12790	0.05419
3013.84213	0.05416
3012.55636	0.05423
3011.27059	0.05439
3009.98482	0.05460
3008.69905	0.05478
3007.41329	0.05488
3006.12752	0.05485
3004.84175	0.05471
3003.55598	0.05449
3002.27021	0.05421
3000.98444	0.05388
2999.69867	0.05352
2998.41290	0.05317
2997.12714	0.05281
2995.84137	0.05246
2994.55560	0.05218
2993.26983	0.05198
2991.98406	0.05180
2990.69829	0.05159
2989.41252	0.05144
2988.12675	0.05151
2986.84098	0.05184
2985.55522	0.05236
2984.26945	0.05285
2982.98368	0.05311
2981.69791	0.05303
2980.41214	0.05264
2979.12637	0.05210
2977.84060	0.05160
2976.55483	0.05126
2975.26907	0.05108
2973.98330	0.05100
2972.69753	0.05099
2971.41176	0.05107
2970.12599	0.05121
2968.84022	0.05128
2967.55445	0.05119
2966.26868	0.05102
2964.98291	0.05090
2963.69715	0.05086
2962.41138	0.05087
2961.12561	0.05093
2959.83984	0.05105
2958.55407	0.05118
2957.26830	0.05125
2955.98253	0.05125
2954.69676	0.05119
2953.41100	0.05098
2952.12523	0.05061
2950.83946	0.05024
2949.55369	0.05006
2948.26792	0.05008
2946.98215	0.05011
2945.69638	0.04991
2944.41061	0.04942
2943.12484	0.04863
2941.83908	0.04761
2940.55331	0.04646
2939.26754	0.04543
2937.98177	0.04470
2936.69600	0.04423
2935.41023	0.04370
2934.12446	0.04294
2932.83869	0.04199
2931.55293	0.04103
2930.26716	0.04015
2928.98139	0.03934
2927.69562	0.03859
2926.40985	0.03788
2925.12408	0.03717
2923.83831	0.03647
2922.55254	0.03584
2921.26677	0.03545
2919.98101	0.03540
2918.69524	0.03571
2917.40947	0.03641
2916.12370	0.03755
2914.83793	0.03915
2913.55216	0.04099
2912.26639	0.04269
2910.98062	0.04401
2909.69486	0.04489
2908.40909	0.04541
2907.12332	0.04580
2905.83755	0.04627
2904.55178	0.04692
2903.26601	0.04762
2901.98024	0.04815
2900.69447	0.04842
2899.40870	0.04845
2898.12294	0.04833
2896.83717	0.04822
2895.55140	0.04824
2894.26563	0.04837
2892.97986	0.04854
2891.69409	0.04869
2890.40832	0.04877
2889.12255	0.04872
2887.83678	0.04848
2886.55102	0.04816
2885.26525	0.04796
2883.97948	0.04797
2882.69371	0.04815
2881.40794	0.04833
2880.12217	0.04841
2878.83640	0.04840
2877.55063	0.04840
2876.26487	0.04843
2874.97910	0.04842
2873.69333	0.04834
2872.40756	0.04825
2871.12179	0.04824
2869.83602	0.04829
2868.55025	0.04829
2867.26448	0.04815
2865.97871	0.04782
2864.69295	0.04723
2863.40718	0.04630
2862.12141	0.04511
2860.83564	0.04388
2859.54987	0.04286
2858.26410	0.04206
2856.97833	0.04131
2855.69256	0.04048
2854.40680	0.03967
2853.12103	0.03903
2851.83526	0.03870
2850.54949	0.03879
2849.26372	0.03934
2847.97795	0.04039
2846.69218	0.04186
2845.40641	0.04355
2844.12064	0.04516
2842.83488	0.04644
2841.54911	0.04730
2840.26334	0.04782
2838.97757	0.04814
2837.69180	0.04829
2836.40603	0.04825
2835.12026	0.04809
2833.83449	0.04795
2832.54873	0.04797
2831.26296	0.04810
2829.97719	0.04820
2828.69142	0.04815
2827.40565	0.04805
2826.11988	0.04802
2824.83411	0.04808
2823.54834	0.04808
2822.26257	0.04795
2820.97681	0.04781
2819.69104	0.04780
2818.40527	0.04789
2817.11950	0.04793
2815.83373	0.04775
2814.54796	0.04733
2813.26219	0.04683
2811.97642	0.04644
2810.69066	0.04630
2809.40489	0.04637
2808.11912	0.04658
2806.83335	0.04684
2805.54758	0.04710
2804.26181	0.04728
2802.97604	0.04731
2801.69027	0.04712
2800.40450	0.04677
2799.11874	0.04641
2797.83297	0.04610
2796.54720	0.04584
2795.26143	0.04557
2793.97566	0.04532
2792.68989	0.04521
2791.40412	0.04532
2790.11835	0.04553
2788.83259	0.04571
2787.54682	0.04576
2786.26105	0.04573
2784.97528	0.04571
2783.68951	0.04578
2782.40374	0.04588
2781.11797	0.04589
2779.83220	0.04575
2778.54643	0.04556
2777.26067	0.04545
2775.97490	0.04541
2774.68913	0.04542
2773.40336	0.04542
2772.11759	0.04546
2770.83182	0.04547
2769.54605	0.04538
2768.26028	0.04514
2766.97452	0.04483
2765.68875	0.04455
2764.40298	0.04438
2763.11721	0.04432
2761.83144	0.04434
2760.54567	0.04440
2759.25990	0.04445
2757.97413	0.04446
2756.68836	0.04438
2755.40260	0.04419
2754.11683	0.04398
2752.83106	0.04384
2751.54529	0.04379
2750.25952	0.04374
2748.97375	0.04363
2747.68798	0.04351
2746.40221	0.04347
2745.11645	0.04349
2743.83068	0.04351
2742.54491	0.04351
2741.25914	0.04350
2739.97337	0.04350
2738.68760	0.04348
2737.40183	0.04344
2736.11606	0.04345
2734.83029	0.04352
2733.54453	0.04360
2732.25876	0.04360
2730.97299	0.04345
2729.68722	0.04317
2728.40145	0.04289
2727.11568	0.04276
2725.82991	0.04282
2724.54414	0.04298
2723.25838	0.04314
2721.97261	0.04330
2720.68684	0.04347
2719.40107	0.04362
2718.11530	0.04370
2716.82953	0.04364
2715.54376	0.04344
2714.25799	0.04315
2712.97222	0.04289
2711.68646	0.04274
2710.40069	0.04271
2709.11492	0.04274
2707.82915	0.04275
2706.54338	0.04264
2705.25761	0.04246
2703.97184	0.04231
2702.68607	0.04228
2701.40031	0.04232
2700.11454	0.04234
2698.82877	0.04228
2697.54300	0.04215
2696.25723	0.04196
2694.97146	0.04174
2693.68569	0.04158
2692.39992	0.04149
2691.11415	0.04144
2689.82839	0.04141
2688.54262	0.04144
2687.25685	0.04155
2685.97108	0.04163
2684.68531	0.04154
2683.39954	0.04127
2682.11377	0.04095
2680.82800	0.04078
2679.54224	0.04086
2678.25647	0.04114
2676.97070	0.04149
2675.68493	0.04178
2674.39916	0.04187
2673.11339	0.04171
2671.82762	0.04131
2670.54185	0.04084
2669.25608	0.04049
2667.97032	0.04036
2666.68455	0.04041
2665.39878	0.04054
2664.11301	0.04063
2662.82724	0.04064
2661.54147	0.04061
2660.25570	0.04060
2658.96993	0.04067
2657.68417	0.04076
2656.39840	0.04073
2655.11263	0.04051
2653.82686	0.04018
2652.54109	0.03991
2651.25532	0.03976
2649.96955	0.03970
2648.68378	0.03962
2647.39801	0.03948
2646.11225	0.03928
2644.82648	0.03912
2643.54071	0.03909
2642.25494	0.03919
2640.96917	0.03927
2639.68340	0.03921
2638.39763	0.03899
2637.11186	0.03867
2635.82609	0.03834
2634.54033	0.03803
2633.25456	0.03776
2631.96879	0.03756
2630.68302	0.03751
2629.39725	0.03758
2628.11148	0.03765
2626.82571	0.03761
2625.53994	0.03743
2624.25418	0.03721
2622.96841	0.03713
2621.68264	0.03723
2620.39687	0.03738
2619.11110	0.03740
2617.82533	0.03728
2616.53956	0.03712
2615.25379	0.03697
2613.96802	0.03678
2612.68226	0.03652
2611.39649	0.03626
2610.11072	0.03609
2608.82495	0.03604
2607.53918	0.03606
2606.25341	0.03608
2604.96764	0.03604
2603.68187	0.03591
2602.39611	0.03567
2601.11034	0.03542
2599.82457	0.03524
2598.53880	0.03514
2597.25303	0.03500
2595.96726	0.03475
2594.68149	0.03445
2593.39572	0.03423
2592.10995	0.03421
2590.82419	0.03440
2589.53842	0.03463
2588.25265	0.03462
2586.96688	0.03427
2585.68111	0.03375
2584.39534	0.03342
2583.10957	0.03348
2581.82380	0.03375
2580.53804	0.03394
2579.25227	0.03393
2577.96650	0.03386
2576.68073	0.03389
2575.39496	0.03398
2574.10919	0.03397
2572.82342	0.03381
2571.53765	0.03359
2570.25188	0.03341
2568.96612	0.03324
2567.68035	0.03304
2566.39458	0.03284
2565.10881	0.03279
2563.82304	0.03290
2562.53727	0.03307
2561.25150	0.03315
2559.96573	0.03308
2558.67997	0.03290
2557.39420	0.03268
2556.10843	0.03253
2554.82266	0.03259
2553.53689	0.03282
2552.25112	0.03306
2550.96535	0.03315
2549.67958	0.03302
2548.39381	0.03272
2547.10805	0.03237
2545.82228	0.03215
2544.53651	0.03217
2543.25074	0.03231
2541.96497	0.03231
2540.67920	0.03210
2539.39343	0.03185
2538.10766	0.03179
2536.82190	0.03193
2535.53613	0.03204
2534.25036	0.03191
2532.96459	0.03159
2531.67882	0.03127
2530.39305	0.03115
2529.10728	0.03125
2527.82151	0.03145
2526.53574	0.03158
2525.24998	0.03148
2523.96421	0.03116
2522.67844	0.03080
2521.39267	0.03068
2520.10690	0.03089
2518.82113	0.03135
2517.53536	0.03195
2516.24959	0.03256
2514.96383	0.03290
2513.67806	0.03268
2512.39229	0.03200
2511.10652	0.03132
2509.82075	0.03098
2508.53498	0.03094
2507.24921	0.03104
2505.96344	0.03122
2504.67767	0.03144
2503.39191	0.03156
2502.10614	0.03142
2500.82037	0.03104
2499.53460	0.03066
2498.24883	0.03050
2496.96306	0.03061
2495.67729	0.03086
2494.39152	0.03104
2493.10576	0.03101
2491.81999	0.03080
2490.53422	0.03060
2489.24845	0.03057
2487.96268	0.03073
2486.67691	0.03099
2485.39114	0.03119
2484.10537	0.03123
2482.81960	0.03113
2481.53384	0.03098
2480.24807	0.03085
2478.96230	0.03077
2477.67653	0.03078
2476.39076	0.03094
2475.10499	0.03119
2473.81922	0.03130
2472.53345	0.03112
2471.24769	0.03072
2469.96192	0.03032
2468.67615	0.03009
2467.39038	0.03013
2466.10461	0.03039
2464.81884	0.03068
2463.53307	0.03070
2462.24730	0.03035
2460.96153	0.02989
2459.67577	0.02968
2458.39000	0.02989
2457.10423	0.03035
2455.81846	0.03070
2454.53269	0.03071
2453.24692	0.03043
2451.96115	0.03011
2450.67538	0.02993
2449.38962	0.02985
2448.10385	0.02975
2446.81808	0.02957
2445.53231	0.02940
2444.24654	0.02935
2442.96077	0.02944
2441.67500	0.02961
2440.38923	0.02975
2439.10346	0.02982
2437.81770	0.02986
2436.53193	0.02991
2435.24616	0.02997
2433.96039	0.02998
2432.67462	0.02989
2431.38885	0.02973
2430.10308	0.02956
2428.81731	0.02945
2427.53155	0.02942
2426.24578	0.02945
2424.96001	0.02952
2423.67424	0.02967
2422.38847	0.02999
2421.10270	0.03041
2419.81693	0.03070
2418.53116	0.03066
2417.24539	0.03028
2415.95963	0.02973
2414.67386	0.02926
2413.38809	0.02900
2412.10232	0.02897
2410.81655	0.02910
2409.53078	0.02924
2408.24501	0.02934
2406.95924	0.02941
2405.67347	0.02947
2404.38771	0.02946
2403.10194	0.02934
2401.81617	0.02913
2400.53040	0.02897
2399.24463	0.02885
2397.95886	0.02884
2396.67309	0.02889
2395.38732	0.02893
2394.10156	0.02892
2392.81579	0.02883
2391.53002	0.02867
2390.24425	0.02852
2388.95848	0.02838
2387.67271	0.02828
2386.38694	0.02827
2385.10117	0.02838
2383.81540	0.02857
2382.52964	0.02873
2381.24387	0.02883
2379.95810	0.02892
2378.67233	0.02899
2377.38656	0.02905
2376.10079	0.02916
2374.81502	0.02930
2373.52925	0.02929
2372.24349	0.02917
2370.95772	0.02901
2369.67195	0.02886
2368.38618	0.02883
2367.10041	0.02900
2365.81464	0.02926
2364.52887	0.02947
2363.24310	0.02957
2361.95733	0.02965
2360.67157	0.02981
2359.38580	0.03005
2358.10003	0.03021
2356.81426	0.03019
2355.52849	0.03001
2354.24272	0.02979
2352.95695	0.02966
2351.67118	0.02958
2350.38542	0.02966
2349.09965	0.02988
2347.81388	0.03004
2346.52811	0.03007
2345.24234	0.03006
2343.95657	0.03007
2342.67080	0.03017
2341.38503	0.03009
2340.09926	0.02998
2338.81350	0.02998
2337.52773	0.02998
2336.24196	0.02979
2334.95619	0.02958
2333.67042	0.02939
2332.38465	0.02922
2331.09888	0.02884
2329.81311	0.02873
2328.52735	0.02884
2327.24158	0.02910
2325.95581	0.02968
2324.67004	0.03034
2323.38427	0.03090
2322.09850	0.03100
2320.81273	0.03074
2319.52696	0.03034
2318.24119	0.02993
2316.95543	0.02959
2315.66966	0.02940
2314.38389	0.02934
2313.09812	0.02923
2311.81235	0.02900
2310.52658	0.02868
2309.24081	0.02836
2307.95504	0.02814
2306.66928	0.02811
2305.38351	0.02825
2304.09774	0.02844
2302.81197	0.02850
2301.52620	0.02837
2300.24043	0.02811
2298.95466	0.02781
2297.66889	0.02752
2296.38312	0.02726
2295.09736	0.02706
2293.81159	0.02694
2292.52582	0.02687
2291.24005	0.02689
2289.95428	0.02699
2288.66851	0.02713
2287.38274	0.02719
2286.09697	0.02704
2284.81121	0.02663
2283.52544	0.02603
2282.23967	0.02548
2280.95390	0.02515
2279.66813	0.02506
2278.38236	0.02511
2277.09659	0.02518
2275.81082	0.02519
2274.52505	0.02517
2273.23929	0.02517
2271.95352	0.02516
2270.66775	0.02504
2269.38198	0.02477
2268.09621	0.02447
2266.81044	0.02426
2265.52467	0.02409
2264.23890	0.02379
2262.95314	0.02331
2261.66737	0.02281
2260.38160	0.02255
2259.09583	0.02259
2257.81006	0.02275
2256.52429	0.02286
2255.23852	0.02297
2253.95275	0.02320
2252.66698	0.02350
2251.38122	0.02357
2250.09545	0.02328
2248.80968	0.02278
2247.52391	0.02214
2246.23814	0.02188
2244.95237	0.02201
2243.66660	0.02234
2242.38083	0.02268
2241.09507	0.02290
2239.80930	0.02292
2238.52353	0.02286
2237.23776	0.02287
2235.95199	0.02297
2234.66622	0.02289
2233.38045	0.02232
2232.09468	0.02129
2230.80891	0.02017
2229.52315	0.01942
2228.23738	0.01930
2226.95161	0.01973
2225.66584	0.02040
2224.38007	0.02103
2223.09430	0.02141
2221.80853	0.02136
2220.52276	0.02078
2219.23700	0.01986
2217.95123	0.01907
2216.66546	0.01872
2215.37969	0.01872
2214.09392	0.01873
2212.80815	0.01846
2211.52238	0.01777
2210.23661	0.01686
2208.95084	0.01629
2207.66508	0.01653
2206.37931	0.01747
2205.09354	0.01844
2203.80777	0.01885
2202.52200	0.01853
2201.23623	0.01780
2199.95046	0.01712
2198.66469	0.01690
2197.37893	0.01707
2196.09316	0.01713
2194.80739	0.01668
2193.52162	0.01592
2192.23585	0.01542
2190.95008	0.01549
2189.66431	0.01592
2188.37854	0.01639
2187.09277	0.01681
2185.80701	0.01725
2184.52124	0.01775
2183.23547	0.01815
2181.94970	0.01815
2180.66393	0.01746
2179.37816	0.01618
2178.09239	0.01485
2176.80662	0.01399
2175.52085	0.01382
2174.23509	0.01419
2172.94932	0.01476
2171.66355	0.01514
2170.37778	0.01514
2169.09201	0.01484
2167.80624	0.01444
2166.52047	0.01414
2165.23470	0.01412
2163.94894	0.01434
2162.66317	0.01416
2161.37740	0.01288
2160.09163	0.01072
2158.80586	0.00900
2157.52009	0.00862
2156.23432	0.00922
2154.94855	0.00995
2153.66278	0.01039
2152.37702	0.01056
2151.09125	0.01064
2149.80548	0.01092
2148.51971	0.01165
2147.23394	0.01264
2145.94817	0.01330
2144.66240	0.01323
2143.37663	0.01263
2142.09087	0.01209
2140.80510	0.01208
2139.51933	0.01260
2138.23356	0.01321
2136.94779	0.01345
2135.66202	0.01333
2134.37625	0.01328
2133.09048	0.01373
2131.80471	0.01468
2130.51895	0.01585
2129.23318	0.01686
2127.94741	0.01737
2126.66164	0.01718
2125.37587	0.01648
2124.09010	0.01576
2122.80433	0.01544
2121.51856	0.01557
2120.23280	0.01594
2118.94703	0.01639
2117.66126	0.01683
2116.37549	0.01720
2115.08972	0.01741
2113.80395	0.01743
2112.51818	0.01738
2111.23241	0.01743
2109.94664	0.01768
2108.66088	0.01792
2107.37511	0.01787
2106.08934	0.01739
2104.80357	0.01666
2103.51780	0.01611
2102.23203	0.01601
2100.94626	0.01627
2099.66049	0.01675
2098.37473	0.01678
2097.08896	0.01639
2095.80319	0.01588
2094.51742	0.01549
2093.23165	0.01544
2091.94588	0.01579
2090.66011	0.01639
2089.37434	0.01693
2088.08857	0.01713
2086.80281	0.01691
2085.51704	0.01639
2084.23127	0.01587
2082.94550	0.01568
2081.65973	0.01590
2080.37396	0.01631
2079.08819	0.01666
2077.80242	0.01684
2076.51666	0.01681
2075.23089	0.01643
2073.94512	0.01569
2072.65935	0.01486
2071.37358	0.01435
2070.08781	0.01436
2068.80204	0.01477
2067.51627	0.01528
2066.23050	0.01562
2064.94474	0.01561
2063.65897	0.01518
2062.37320	0.01446
2061.08743	0.01373
2059.80166	0.01325
2058.51589	0.01312
2057.23012	0.01329
2055.94435	0.01364
2054.65859	0.01399
2053.37282	0.01407
2052.08705	0.01354
2050.80128	0.01242
2049.51551	0.01123
2048.22974	0.01071
2046.94397	0.01107
2045.65820	0.01179
2044.37243	0.01214
2043.08667	0.01194
2041.80090	0.01153
2040.51513	0.01120
2039.22936	0.01076
2037.94359	0.00970
2036.65782	0.00787
2035.37205	0.00584
2034.08628	0.00453
2032.80052	0.00451
2031.51475	0.00548
2030.22898	0.00664
2028.94321	0.00742
2027.65744	0.00774
2026.37167	0.00761
2025.08590	0.00690
2023.80013	0.00559
2022.51436	0.00426
2021.22860	0.00383
2019.94283	0.00470
2018.65706	0.00636
2017.37129	0.00795
2016.08552	0.00898
2014.79975	0.00948
2013.51398	0.00955
2012.22821	0.00930
2010.94245	0.00910
2009.65668	0.00944
2008.37091	0.01048
2007.08514	0.01181
2005.79937	0.01284
2004.51360	0.01334
2003.22783	0.01343
2001.94206	0.01334
2000.65629	0.01324
1999.37053	0.01327
1998.08476	0.01347
1996.79899	0.01368
1995.51322	0.01368
1994.22745	0.01337
1992.94168	0.01291
1991.65591	0.01262
1990.37014	0.01271
1989.08438	0.01303
1987.79861	0.01310
1986.51284	0.01251
1985.22707	0.01138
1983.94130	0.01037
1982.65553	0.01019
1981.36976	0.01096
1980.08399	0.01220
1978.79822	0.01316
1977.51246	0.01331
1976.22669	0.01274
1974.94092	0.01204
1973.65515	0.01180
1972.36938	0.01215
1971.08361	0.01276
1969.79784	0.01324
1968.51207	0.01344
1967.22631	0.01330
1965.94054	0.01282
1964.65477	0.01208
1963.36900	0.01144
1962.08323	0.01123
1960.79746	0.01147
1959.51169	0.01192
1958.22592	0.01237
1956.94015	0.01279
1955.65439	0.01317
1954.36862	0.01338
1953.08285	0.01328
1951.79708	0.01290
1950.51131	0.01246
1949.22554	0.01222
1947.93977	0.01230
1946.65400	0.01264
1945.36823	0.01304
1944.08247	0.01342
1942.79670	0.01381
1941.51093	0.01424
1940.22516	0.01462
1938.93939	0.01487
1937.65362	0.01500
1936.36785	0.01510
1935.08208	0.01523
1933.79632	0.01533
1932.51055	0.01530
1931.22478	0.01512
1929.93901	0.01490
1928.65324	0.01479
1927.36747	0.01480
1926.08170	0.01490
1924.79593	0.01508
1923.51016	0.01537
1922.22440	0.01565
1920.93863	0.01574
1919.65286	0.01557
1918.36709	0.01529
1917.08132	0.01515
1915.79555	0.01537
1914.50978	0.01587
1913.22401	0.01635
1911.93825	0.01656
1910.65248	0.01647
1909.36671	0.01629
1908.08094	0.01617
1906.79517	0.01616
1905.50940	0.01617
1904.22363	0.01609
1902.93786	0.01581
1901.65209	0.01538
1900.36633	0.01498
1899.08056	0.01482
1897.79479	0.01496
1896.50902	0.01534
1895.22325	0.01579
1893.93748	0.01611
1892.65171	0.01620
1891.36594	0.01607
1890.08018	0.01587
1888.79441	0.01580
1887.50864	0.01597
1886.22287	0.01630
1884.93710	0.01659
1883.65133	0.01665
1882.36556	0.01651
1881.07979	0.01627
1879.79402	0.01606
1878.50826	0.01597
1877.22249	0.01603
1875.93672	0.01621
1874.65095	0.01640
1873.36518	0.01646
1872.07941	0.01635
1870.79364	0.01620
1869.50787	0.01614
1868.22211	0.01619
1866.93634	0.01625
1865.65057	0.01625
1864.36480	0.01623
1863.07903	0.01625
1861.79326	0.01633
1860.50749	0.01637
1859.22172	0.01631
1857.93595	0.01619
1856.65019	0.01608
1855.36442	0.01603
1854.07865	0.01608
1852.79288	0.01618
1851.50711	0.01628
1850.22134	0.01636
1848.93557	0.01639
1847.64980	0.01639
1846.36404	0.01644
1845.07827	0.01652
1843.79250	0.01658
1842.50673	0.01660
1841.22096	0.01661
1839.93519	0.01662
1838.64942	0.01654
1837.36365	0.01632
1836.07788	0.01598
1834.79212	0.01567
1833.50635	0.01553
1832.22058	0.01565
1830.93481	0.01594
1829.64904	0.01621
1828.36327	0.01633
1827.07750	0.01632
1825.79173	0.01630
1824.50597	0.01629
1823.22020	0.01629
1821.93443	0.01627
1820.64866	0.01621
1819.36289	0.01618
1818.07712	0.01621
1816.79135	0.01634
1815.50558	0.01650
1814.21981	0.01665
1812.93405	0.01673
1811.64828	0.01674
1810.36251	0.01670
1809.07674	0.01664
1807.79097	0.01659
1806.50520	0.01653
1805.21943	0.01647
1803.93366	0.01643
1802.64790	0.01639
1801.36213	0.01632
1800.07636	0.01619
1798.79059	0.01603
1797.50482	0.01591
1796.21905	0.01590
1794.93328	0.01602
1793.64751	0.01626
1792.36174	0.01647
1791.07598	0.01657
1789.79021	0.01657
1788.50444	0.01655
1787.21867	0.01652
1785.93290	0.01642
1784.64713	0.01624
1783.36136	0.01604
1782.07559	0.01593
1780.78983	0.01591
1779.50406	0.01592
1778.21829	0.01592
1776.93252	0.01591
1775.64675	0.01590
1774.36098	0.01591
1773.07521	0.01591
1771.78944	0.01584
1770.50367	0.01578
1769.21791	0.01579
1767.93214	0.01587
1766.64637	0.01592
1765.36060	0.01587
1764.07483	0.01573
1762.78906	0.01552
1761.50329	0.01526
1760.21752	0.01502
1758.93176	0.01484
1757.64599	0.01468
1756.36022	0.01446
1755.07445	0.01421
1753.78868	0.01399
1752.50291	0.01381
1751.21714	0.01358
1749.93137	0.01328
1748.64560	0.01293
1747.35984	0.01260
1746.07407	0.01229
1744.78830	0.01203
1743.50253	0.01182
1742.21676	0.01165
1740.93099	0.01147
1739.64522	0.01121
1738.35945	0.01088
1737.07369	0.01061
1735.78792	0.01052
1734.50215	0.01051
1733.21638	0.01039
1731.93061	0.01016
1730.64484	0.01000
1729.35907	0.01000
1728.07330	0.01014
1726.78753	0.01041
1725.50177	0.01079
1724.21600	0.01120
1722.93023	0.01160
1721.64446	0.01202
1720.35869	0.01253
1719.07292	0.01314
1717.78715	0.01367
1716.50138	0.01402
1715.21561	0.01432
1713.92985	0.01473
1712.64408	0.01530
1711.35831	0.01592
1710.07254	0.01649
1708.78677	0.01701
1707.50100	0.01756
1706.21523	0.01819
1704.92946	0.01887
1703.64370	0.01963
1702.35793	0.02055
1701.07216	0.02155
1699.78639	0.02244
1698.50062	0.02324
1697.21485	0.02413
1695.92908	0.02508
1694.64331	0.02597
1693.35754	0.02684
1692.07178	0.02784
1690.78601	0.02889
1689.50024	0.02986
1688.21447	0.03074
1686.92870	0.03169
1685.64293	0.03270
1684.35716	0.03358
1683.07139	0.03424
1681.78563	0.03484
1680.49986	0.03552
1679.21409	0.03626
1677.92832	0.03702
1676.64255	0.03782
1675.35678	0.03864
1674.07101	0.03945
1672.78524	0.04028
1671.49947	0.04115
1670.21371	0.04196
1668.92794	0.04262
1667.64217	0.04317
1666.35640	0.04374
1665.07063	0.04442
1663.78486	0.04521
1662.49909	0.04602
1661.21332	0.04681
1659.92756	0.04756
1658.64179	0.04826
1657.35602	0.04890
1656.07025	0.04960
1654.78448	0.05043
1653.49871	0.05120
1652.21294	0.05164
1650.92717	0.05179
1649.64140	0.05199
1648.35564	0.05241
1647.06987	0.05286
1645.78410	0.05314
1644.49833	0.05327
1643.21256	0.05335
1641.92679	0.05346
1640.64102	0.05357
1639.35525	0.05365
1638.06949	0.05376
1636.78372	0.05391
1635.49795	0.05399
1634.21218	0.05392
1632.92641	0.05372
1631.64064	0.05344
1630.35487	0.05304
1629.06910	0.05251
1627.78333	0.05189
1626.49757	0.05130
1625.21180	0.05080
1623.92603	0.05038
1622.64026	0.04992
1621.35449	0.04939
1620.06872	0.04888
1618.78295	0.04851
1617.49718	0.04822
1616.21142	0.04790
1614.92565	0.04753
1613.63988	0.04719
1612.35411	0.04692
1611.06834	0.04666
1609.78257	0.04637
1608.49680	0.04610
1607.21103	0.04588
1605.92526	0.04572
1604.63950	0.04559
1603.35373	0.04543
1602.06796	0.04525
1600.78219	0.04507
1599.49642	0.04493
1598.21065	0.04485
1596.92488	0.04484
1595.63911	0.04488
1594.35335	0.04496
1593.06758	0.04508
1591.78181	0.04520
1590.49604	0.04531
1589.21027	0.04540
1587.92450	0.04549
1586.63873	0.04563
1585.35296	0.04582
1584.06719	0.04606
1582.78143	0.04632
1581.49566	0.04658
1580.20989	0.04687
1578.92412	0.04725
1577.63835	0.04776
1576.35258	0.04828
1575.06681	0.04869
1573.78104	0.04909
1572.49528	0.04966
1571.20951	0.05040
1569.92374	0.05113
1568.63797	0.05172
1567.35220	0.05220
1566.06643	0.05263
1564.78066	0.05301
1563.49489	0.05336
1562.20912	0.05381
1560.92336	0.05442
1559.63759	0.05503
1558.35182	0.05540
1557.06605	0.05557
1555.78028	0.05574
1554.49451	0.05599
1553.20874	0.05622
1551.92297	0.05639
1550.63721	0.05653
1549.35144	0.05662
1548.06567	0.05662
1546.77990	0.05655
1545.49413	0.05642
1544.20836	0.05625
1542.92259	0.05609
1541.63682	0.05597
1540.35105	0.05581
1539.06529	0.05546
1537.77952	0.05490
1536.49375	0.05434
1535.20798	0.05393
1533.92221	0.05360
1532.63644	0.05322
1531.35067	0.05279
1530.06490	0.05241
1528.77914	0.05211
1527.49337	0.05188
1526.20760	0.05165
1524.92183	0.05139
1523.63606	0.05117
1522.35029	0.05103
1521.06452	0.05091
1519.77875	0.05078
1518.49298	0.05068
1517.20722	0.05064
1515.92145	0.05063
1514.63568	0.05066
1513.34991	0.05079
1512.06414	0.05098
1510.77837	0.05117
1509.49260	0.05142
1508.20683	0.05177
1506.92107	0.05213
1505.63530	0.05235
1504.34953	0.05245
1503.06376	0.05257
1501.77799	0.05276
1500.49222	0.05295
1499.20645	0.05308
1497.92068	0.05315
1496.63491	0.05315
1495.34915	0.05305
1494.06338	0.05289
1492.77761	0.05277
1491.49184	0.05275
1490.20607	0.05280
1488.92030	0.05291
1487.63453	0.05309
1486.34876	0.05336
1485.06299	0.05370
1483.77723	0.05411
1482.49146	0.05457
1481.20569	0.05509
1479.91992	0.05565
1478.63415	0.05630
1477.34838	0.05702
1476.06261	0.05779
1474.77684	0.05857
1473.49108	0.05930
1472.20531	0.05992
1470.91954	0.06042
1469.63377	0.06090
1468.34800	0.06149
1467.06223	0.06222
1465.77646	0.06305
1464.49069	0.06391
1463.20492	0.06476
1461.91916	0.06564
1460.63339	0.06657
1459.34762	0.06763
1458.06185	0.06878
1456.77608	0.06991
1455.49031	0.07089
1454.20454	0.07175
1452.91877	0.07253
1451.63301	0.07324
1450.34724	0.07384
1449.06147	0.07429
1447.77570	0.07454
1446.48993	0.07458
1445.20416	0.07442
1443.91839	0.07412
1442.63262	0.07367
1441.34685	0.07308
1440.06109	0.07241
1438.77532	0.07178
1437.48955	0.07123
1436.20378	0.07072
1434.91801	0.07028
1433.63224	0.07002
1432.34647	0.06999
1431.06070	0.07017
1429.77494	0.07050
1428.48917	0.07099
1427.20340	0.07163
1425.91763	0.07239
1424.63186	0.07318
1423.34609	0.07394
1422.06032	0.07473
1420.77455	0.07560
1419.48878	0.07651
1418.20302	0.07731
1416.91725	0.07798
1415.63148	0.07852
1414.34571	0.07892
1413.05994	0.07916
1411.77417	0.07920
1410.48840	0.07904
1409.20263	0.07873
1407.91687	0.07830
1406.63110	0.07776
1405.34533	0.07705
1404.05956	0.07614
1402.77379	0.07505
1401.48802	0.07385
1400.20225	0.07261
1398.91648	0.07132
1397.63071	0.06995
1396.34495	0.06855
1395.05918	0.06714
1393.77341	0.06571
1392.48764	0.06428
1391.20187	0.06286
1389.91610	0.06151
1388.63033	0.06023
1387.34456	0.05903
1386.05880	0.05784
1384.77303	0.05665
1383.48726	0.05543
1382.20149	0.05421
1380.91572	0.05305
1379.62995	0.05196
1378.34418	0.05089
1377.05841	0.04979
1375.77264	0.04861
1374.48688	0.04737
1373.20111	0.04611
1371.91534	0.04485
1370.62957	0.04367
1369.34380	0.04259
1368.05803	0.04162
1366.77226	0.04075
1365.48649	0.03998
1364.20073	0.03928
1362.91496	0.03864
1361.62919	0.03802
1360.34342	0.03742
1359.05765	0.03686
1357.77188	0.03639
1356.48611	0.03599
1355.20034	0.03561
1353.91457	0.03521
1352.62881	0.03478
1351.34304	0.03439
1350.05727	0.03408
1348.77150	0.03384
1347.48573	0.03361
1346.19996	0.03336
1344.91419	0.03307
1343.62842	0.03280
1342.34266	0.03255
1341.05689	0.03232
1339.77112	0.03205
1338.48535	0.03169
1337.19958	0.03129
1335.91381	0.03089
1334.62804	0.03054
1333.34227	0.03022
1332.05650	0.02993
1330.77074	0.02963
1329.48497	0.02930
1328.19920	0.02894
1326.91343	0.02857
1325.62766	0.02824
1324.34189	0.02793
1323.05612	0.02765
1321.77035	0.02737
1320.48459	0.02707
1319.19882	0.02678
1317.91305	0.02652
1316.62728	0.02630
1315.34151	0.02610
1314.05574	0.02589
1312.76997	0.02568
1311.48420	0.02548
1310.19843	0.02529
1308.91267	0.02511
1307.62690	0.02492
1306.34113	0.02469
1305.05536	0.02441
1303.76959	0.02411
1302.48382	0.02380
1301.19805	0.02353
1299.91228	0.02330
1298.62652	0.02308
1297.34075	0.02280
1296.05498	0.02242
1294.76921	0.02198
1293.48344	0.02153
1292.19767	0.02114
1290.91190	0.02080
1289.62613	0.02050
1288.34036	0.02020
1287.05460	0.01989
1285.76883	0.01955
1284.48306	0.01916
1283.19729	0.01874
1281.91152	0.01834
1280.62575	0.01803
1279.33998	0.01788
1278.05421	0.01790
1276.76845	0.01806
1275.48268	0.01828
1274.19691	0.01851
1272.91114	0.01873
1271.62537	0.01891
1270.33960	0.01903
1269.05383	0.01907
1267.76806	0.01907
1266.48229	0.01907
1265.19653	0.01907
1263.91076	0.01905
1262.62499	0.01904
1261.33922	0.01907
1260.05345	0.01914
1258.76768	0.01924
1257.48191	0.01936
1256.19614	0.01948
1254.91037	0.01960
1253.62461	0.01969
1252.33884	0.01975
1251.05307	0.01978
1249.76730	0.01981
1248.48153	0.01985
1247.19576	0.01992
1245.90999	0.02004
1244.62422	0.02020
1243.33846	0.02035
1242.05269	0.02044
1240.76692	0.02045
1239.48115	0.02040
1238.19538	0.02031
1236.90961	0.02022
1235.62384	0.02013
1234.33807	0.02004
1233.05230	0.01996
1231.76654	0.01986
1230.48077	0.01973
1229.19500	0.01955
1227.90923	0.01931
1226.62346	0.01904
1225.33769	0.01874
1224.05192	0.01847
1222.76615	0.01822
1221.48039	0.01802
1220.19462	0.01785
1218.90885	0.01769
1217.62308	0.01751
1216.33731	0.01734
1215.05154	0.01722
1213.76577	0.01716
1212.48000	0.01714
1211.19423	0.01715
1209.90847	0.01719
1208.62270	0.01724
1207.33693	0.01727
1206.05116	0.01727
1204.76539	0.01722
1203.47962	0.01718
1202.19385	0.01714
1200.90808	0.01709
1199.62232	0.01698
1198.33655	0.01688
1197.05078	0.01676
1195.76501	0.01666
1194.47924	0.01656
1193.19347	0.01644
1191.90770	0.01628
1190.62193	0.01609
1189.33616	0.01591
1188.05040	0.01575
1186.76463	0.01559
1185.47886	0.01543
1184.19309	0.01530
1182.90732	0.01522
1181.62155	0.01519
1180.33578	0.01517
1179.05001	0.01511
1177.76425	0.01497
1176.47848	0.01478
1175.19271	0.01461
1173.90694	0.01454
1172.62117	0.01453
1171.33540	0.01452
1170.04963	0.01444
1168.76386	0.01429
1167.47809	0.01407
1166.19233	0.01383
1164.90656	0.01358
1163.62079	0.01335
1162.33502	0.01318
1161.04925	0.01311
1159.76348	0.01316
1158.47771	0.01333
1157.19194	0.01359
1155.90618	0.01392
1154.62041	0.01432
1153.33464	0.01475
1152.04887	0.01513
1150.76310	0.01546
1149.47733	0.01577
1148.19156	0.01611
1146.90579	0.01649
1145.62002	0.01692
1144.33426	0.01741
1143.04849	0.01798
1141.76272	0.01859
1140.47695	0.01923
1139.19118	0.01991
1137.90541	0.02063
1136.61964	0.02138
1135.33387	0.02218
1134.04811	0.02307
1132.76234	0.02410
1131.47657	0.02524
1130.19080	0.02648
1128.90503	0.02783
1127.61926	0.02936
1126.33349	0.03117
1125.04772	0.03330
1123.76195	0.03570
1122.47619	0.03824
1121.19042	0.04081
1119.90465	0.04339
1118.61888	0.04603
1117.33311	0.04876
1116.04734	0.05158
1114.76157	0.05440
1113.47580	0.05719
1112.19004	0.05993
1110.90427	0.06268
1109.61850	0.06545
1108.33273	0.06823
1107.04696	0.07096
1105.76119	0.07355
1104.47542	0.07597
1103.18965	0.07827
1101.90388	0.08050
1100.61812	0.08267
1099.33235	0.08478
1098.04658	0.08678
1096.76081	0.08867
1095.47504	0.09046
1094.18927	0.09218
1092.90350	0.09382
1091.61773	0.09537
1090.33197	0.09681
1089.04620	0.09814
1087.76043	0.09939
1086.47466	0.10064
1085.18889	0.10193
1083.90312	0.10323
1082.61735	0.10453
1081.33158	0.10588
1080.04581	0.10735
1078.76005	0.10901
1077.47428	0.11086
1076.18851	0.11288
1074.90274	0.11505
1073.61697	0.11732
1072.33120	0.11968
1071.04543	0.12211
1069.75966	0.12460
1068.47390	0.12717
1067.18813	0.12984
1065.90236	0.13262
1064.61659	0.13549
1063.33082	0.13838
1062.04505	0.14128
1060.75928	0.14421
1059.47351	0.14718
1058.18774	0.15020
1056.90198	0.15319
1055.61621	0.15612
1054.33044	0.15899
1053.04467	0.16185
1051.75890	0.16471
1050.47313	0.16756
1049.18736	0.17040
1047.90159	0.17330
1046.61583	0.17632
1045.33006	0.17948
1044.04429	0.18270
1042.75852	0.18590
1041.47275	0.18902
1040.18698	0.19210
1038.90121	0.19520
1037.61544	0.19834
1036.32967	0.20150
1035.04391	0.20466
1033.75814	0.20778
1032.47237	0.21082
1031.18660	0.21369
1029.90083	0.21632
1028.61506	0.21867
1027.32929	0.22075
1026.04352	0.22260
1024.75775	0.22419
1023.47199	0.22552
1022.18622	0.22654
1020.90045	0.22719
1019.61468	0.22743
1018.32891	0.22721
1017.04314	0.22651
1015.75737	0.22532
1014.47160	0.22367
1013.18584	0.22160
1011.90007	0.21913
1010.61430	0.21629
1009.32853	0.21313
1008.04276	0.20971
1006.75699	0.20605
1005.47122	0.20211
1004.18545	0.19785
1002.89968	0.19333
1001.61392	0.18867
1000.32815	0.18393
999.04238	0.17910
997.75661	0.17415
996.47084	0.16906
995.18507	0.16390
993.89930	0.15873
992.61353	0.15361
991.32777	0.14863
990.04200	0.14383
988.75623	0.13921
987.47046	0.13471
986.18469	0.13033
984.89892	0.12606
983.61315	0.12191
982.32738	0.11792
981.04161	0.11413
979.75585	0.11059
978.47008	0.10728
977.18431	0.10416
975.89854	0.10121
974.61277	0.09850
973.32700	0.09612
972.04123	0.09416
970.75546	0.09268
969.46970	0.09175
968.18393	0.09135
966.89816	0.09144
965.61239	0.09190
964.32662	0.09260
963.04085	0.09337
961.75508	0.09403
960.46931	0.09436
959.18354	0.09420
957.89778	0.09344
956.61201	0.09212
955.32624	0.09039
954.04047	0.08845
952.75470	0.08646
951.46893	0.08450
950.18316	0.08252
948.89739	0.08048
947.61163	0.07840
946.32586	0.07637
945.04009	0.07449
943.75432	0.07279
942.46855	0.07118
941.18278	0.06958
939.89701	0.06798
938.61124	0.06646
937.32547	0.06507
936.03971	0.06376
934.75394	0.06245
933.46817	0.06112
932.18240	0.05986
930.89663	0.05873
929.61086	0.05776
928.32509	0.05693
927.03932	0.05615
925.75356	0.05539
924.46779	0.05462
923.18202	0.05388
921.89625	0.05317
920.61048	0.05248
919.32471	0.05177
918.03894	0.05104
916.75317	0.05035
915.46740	0.04974
914.18164	0.04923
912.89587	0.04874
911.61010	0.04820
910.32433	0.04766
909.03856	0.04718
907.75279	0.04679
906.46702	0.04642
905.18125	0.04599
903.89549	0.04551
902.60972	0.04502
901.32395	0.04455
900.03818	0.04409
898.75241	0.04366
897.46664	0.04328
896.18087	0.04295
894.89510	0.04262
893.60933	0.04225
892.32357	0.04187
891.03780	0.04157
889.75203	0.04145
888.46626	0.04153
887.18049	0.04180
885.89472	0.04233
884.60895	0.04327
883.32318	0.04477
882.03742	0.04674
880.75165	0.04877
879.46588	0.05039
878.18011	0.05139
876.89434	0.05201
875.60857	0.05261
874.32280	0.05336
873.03703	0.05404
871.75126	0.05431
870.46550	0.05400
869.17973	0.05317
867.89396	0.05198
866.60819	0.05056
865.32242	0.04898
864.03665	0.04733
862.75088	0.04577
861.46511	0.04446
860.17935	0.04339
858.89358	0.04246
857.60781	0.04153
856.32204	0.04064
855.03627	0.03987
853.75050	0.03930
852.46473	0.03885
851.17896	0.03841
849.89319	0.03794
848.60743	0.03750
847.32166	0.03716
846.03589	0.03688
844.75012	0.03658
843.46435	0.03620
842.17858	0.03577
840.89281	0.03539
839.60704	0.03515
838.32128	0.03505
837.03551	0.03497
835.74974	0.03482
834.46397	0.03459
833.17820	0.03435
831.89243	0.03417
830.60666	0.03407
829.32089	0.03403
828.03512	0.03403
826.74936	0.03402
825.46359	0.03399
824.17782	0.03395
822.89205	0.03387
821.60628	0.03379
820.32051	0.03371
819.03474	0.03365
817.74897	0.03358
816.46321	0.03352
815.17744	0.03348
813.89167	0.03347
812.60590	0.03347
811.32013	0.03343
810.03436	0.03333
808.74859	0.03320
807.46282	0.03311
806.17705	0.03311
804.89129	0.03322
803.60552	0.03343
802.31975	0.03362
801.03398	0.03371
799.74821	0.03366
798.46244	0.03352
797.17667	0.03342
795.89090	0.03338
794.60513	0.03338
793.31937	0.03334
792.03360	0.03327
790.74783	0.03320
789.46206	0.03315
788.17629	0.03308
786.89052	0.03296
785.60475	0.03285
784.31898	0.03278
783.03322	0.03277
781.74745	0.03281
780.46168	0.03285
779.17591	0.03288
777.89014	0.03289
776.60437	0.03291
775.31860	0.03296
774.03283	0.03303
772.74706	0.03302
771.46130	0.03290
770.17553	0.03270
768.88976	0.03252
767.60399	0.03238
766.31822	0.03230
765.03245	0.03225
763.74668	0.03225
762.46091	0.03231
761.17515	0.03242
759.88938	0.03257
758.60361	0.03267
757.31784	0.03271
756.03207	0.03270
754.74630	0.03269
753.46053	0.03267
752.17476	0.03260
750.88899	0.03245
749.60323	0.03227
748.31746	0.03212
747.03169	0.03204
745.74592	0.03199
744.46015	0.03190
743.17438	0.03174
741.88861	0.03153
740.60284	0.03137
739.31708	0.03133
738.03131	0.03139
736.74554	0.03147
735.45977	0.03152
734.17400	0.03155
732.88823	0.03155
731.60246	0.03151
730.31669	0.03141
729.03092	0.03131
727.74516	0.03128
726.45939	0.03132
725.17362	0.03139
723.88785	0.03136
722.60208	0.03140
721.31631	0.03148
720.03054	0.03154
718.74477	0.03155
717.45901	0.03148
716.17324	0.03135
714.88747	0.03117
713.60170	0.03100
712.31593	0.03087
711.03016	0.03082
709.74439	0.03084
708.45862	0.03094
707.17285	0.03106
705.88709	0.03116
704.60132	0.03119
703.31555	0.03114
702.02978	0.03107
700.74401	0.03101
699.45824	0.03099
698.17247	0.03101
696.88670	0.03105
695.60094	0.03110
694.31517	0.03115
693.02940	0.03118
691.74363	0.03119
690.45786	0.03117
689.17209	0.03109
687.88632	0.03096
686.60055	0.03080
685.31478	0.03067
684.02902	0.03058
682.74325	0.03054
681.45748	0.03054
680.17171	0.03057
678.88594	0.03061
677.60017	0.03068
676.31440	0.03074
675.02863	0.03079
673.74287	0.03082
672.45710	0.03086
671.17133	0.03096
669.88556	0.03113
668.59979	0.03132
667.31402	0.03144
666.02825	0.03146
664.74248	0.03139
663.45671	0.03128
662.17095	0.03118
660.88518	0.03112
659.59941	0.03109
658.31364	0.03106
657.02787	0.03100
655.74210	0.03092
654.45633	0.03085
653.17056	0.03084
651.88480	0.03087
650.59903	0.03090
649.31326	0.03093
648.02749	0.03100
646.74172	0.03110
645.45595	0.03121
644.17018	0.03126
642.88441	0.03129
641.59864	0.03136
640.31288	0.03152
639.02711	0.03175
637.74134	0.03198
636.45557	0.03218
635.16980	0.03239
633.88403	0.03261
632.59826	0.03283
631.31249	0.03306
630.02673	0.03347
628.74096	0.03407
627.45519	0.03428
626.16942	0.03522
624.88365	0.03649
623.59788	0.03739
622.31211	0.03780
621.02634	0.03824
619.74057	0.03940
618.45481	0.04175
617.16904	0.04536
615.88327	0.04967
614.59750	0.05352
613.31173	0.05585
612.02596	0.05674
610.74019	0.05760
609.45442	0.06013
608.16866	0.06505
606.88289	0.07173
605.59712	0.07876
604.31135	0.08461
603.02558	0.08824
601.73981	0.08938
600.45404	0.08845
599.16827	0.08614
597.88250	0.08310
596.59674	0.07993
595.31097	0.07700
594.02520	0.07446
592.73943	0.07233
591.45366	0.07070
590.16789	0.06961
588.88212	0.06908
587.59635	0.06904
586.31059	0.06942
585.02482	0.07026
583.73905	0.07154
582.45328	0.07319
581.16751	0.07509
579.88174	0.07717
578.59597	0.07947
577.31020	0.08203
576.02443	0.08478
574.73867	0.08757
573.45290	0.09030
572.16713	0.09294
570.88136	0.09556
569.59559	0.09830
568.30982	0.10127
567.02405	0.10453
565.73828	0.10802
564.45251	0.11147
563.16675	0.11442
561.88098	0.11630
560.59521	0.11672
559.30944	0.11560
558.02367	0.11314
556.73790	0.10964
555.45213	0.10539
554.16636	0.10070
552.88060	0.09588
551.59483	0.09122
550.30906	0.08689
549.02329	0.08295
547.73752	0.07937
546.45175	0.07605
545.16598	0.07299
543.88021	0.07019
542.59444	0.06767
541.30868	0.06537
540.02291	0.06322
538.73714	0.06119
537.45137	0.05937
536.16560	0.05785
534.87983	0.05659
533.59406	0.05547
532.30829	0.05437
531.02253	0.05318
529.73676	0.05192
528.45099	0.05065
527.16522	0.04952
525.87945	0.04856
524.59368	0.04769
523.30791	0.04676
522.02214	0.04572
520.73637	0.04464
519.45061	0.04370
518.16484	0.04300
516.87907	0.04250
515.59330	0.04204
514.30753	0.04143
513.02176	0.04064
511.73599	0.03979
510.45022	0.03902
509.16446	0.03838
507.87869	0.03783
506.59292	0.03728
505.30715	0.03675
504.02138	0.03624
502.73561	0.03577
501.44984	0.03530
500.16407	0.03483
498.87830	0.03436
497.59254	0.03392
496.30677	0.03352
495.02100	0.03318
493.73523	0.03287
492.44946	0.03259
491.16369	0.03233
489.87792	0.03207
488.59215	0.03180
487.30639	0.03148
486.02062	0.03115
484.73485	0.03090
483.44908	0.03080
482.16331	0.03083
480.87754	0.03094
479.59177	0.03108
478.30600	0.03122
477.02023	0.03133
475.73447	0.03140
474.44870	0.03148
473.16293	0.03157
471.87716	0.03163
470.59139	0.03158
469.30562	0.03137
468.01985	0.03102
466.73408	0.03060
465.44832	0.03017
464.16255	0.02975
462.87678	0.02935
461.59101	0.02894
460.30524	0.02855
459.01947	0.02820
457.73370	0.02790
456.44793	0.02763
455.16216	0.02736
453.87640	0.02706
452.59063	0.02672
451.30486	0.02632
450.01909	0.02591
448.73332	0.02552
447.44755	0.02520
446.16178	0.02499
444.87601	0.02490
443.59025	0.02485
442.30448	0.02477
441.01871	0.02460
439.73294	0.02434
438.44717	0.02405
437.16140	0.02379
435.87563	0.02356
434.58986	0.02336
433.30409	0.02318
432.01833	0.02305
430.73256	0.02298
429.44679	0.02292
428.16102	0.02283
426.87525	0.02265
425.58948	0.02239
424.30371	0.02207
423.01794	0.02175
421.73218	0.02150
420.44641	0.02135
419.16064	0.02123
417.87487	0.02106
416.58910	0.02082
415.30333	0.02053
414.01756	0.02026
412.73179	0.02007
411.44602	0.01998
410.16026	0.01998
408.87449	0.02001
407.58872	0.02000
406.30295	0.01994
405.01718	0.01984
403.73141	0.01977
402.44564	0.01975
401.15987	0.01978
399.87411	0.01983
