3997.45528	0.04704
3996.16951	0.04668
3994.88374	0.04620
3993.59798	0.04597
3992.31221	0.04634
3991.02644	0.04705
3989.74067	0.04747
3988.45490	0.04737
3987.16913	0.04703
3985.88336	0.04684
3984.59759	0.04680
3983.31183	0.04671
3982.02606	0.04651
3980.74029	0.04633
3979.45452	0.04625
3978.16875	0.04620
3976.88298	0.04610
3975.59721	0.04591
3974.31144	0.04572
3973.02567	0.04568
3971.73991	0.04588
3970.45414	0.04624
3969.16837	0.04662
3967.88260	0.04684
3966.59683	0.04686
3965.31106	0.04677
3964.02529	0.04673
3962.73952	0.04689
3961.45376	0.04721
3960.16799	0.04742
3958.88222	0.04719
3957.59645	0.04651
3956.31068	0.04561
3955.02491	0.04466
3953.73914	0.04359
3952.45337	0.04239
3951.16760	0.04129
3949.88184	0.04073
3948.59607	0.04097
3947.31030	0.04189
3946.02453	0.04306
3944.73876	0.04386
3943.45299	0.04389
3942.16722	0.04322
3940.88145	0.04238
3939.59569	0.04202
3938.30992	0.04243
3937.02415	0.04338
3935.73838	0.04422
3934.45261	0.04445
3933.16684	0.04418
3931.88107	0.04393
3930.59530	0.04400
3929.30953	0.04424
3928.02377	0.04436
3926.73800	0.04424
3925.45223	0.04382
3924.16646	0.04306
3922.88069	0.04213
3921.59492	0.04142
3920.30915	0.04135
3919.02338	0.04189
3917.73762	0.04270
3916.45185	0.04345
3915.16608	0.04397
3913.88031	0.04411
3912.59454	0.04383
3911.30877	0.04333
3910.02300	0.04306
3908.73723	0.04333
3907.45146	0.04391
3906.16570	0.04426
3904.87993	0.04405
3903.59416	0.04353
3902.30839	0.04323
3901.02262	0.04344
3899.73685	0.04395
3898.45108	0.04419
3897.16531	0.04377
3895.87955	0.04285
3894.59378	0.04202
3893.30801	0.04171
3892.02224	0.04190
3890.73647	0.04228
3889.45070	0.04252
3888.16493	0.04252
3886.87916	0.04249
3885.59339	0.04270
3884.30763	0.04311
3883.02186	0.04334
3881.73609	0.04314
3880.45032	0.04270
3879.16455	0.04239
3877.87878	0.04235
3876.59301	0.04246
3875.30724	0.04249
3874.02148	0.04227
3872.73571	0.04174
3871.44994	0.04114
3870.16417	0.04103
3868.87840	0.04181
3867.59263	0.04315
3866.30686	0.04432
3865.02109	0.04482
3863.73532	0.04464
3862.44956	0.04404
3861.16379	0.04334
3859.87802	0.04279
3858.59225	0.04249
3857.30648	0.04232
3856.02071	0.04215
3854.73494	0.04204
3853.44917	0.04231
3852.16341	0.04297
3850.87764	0.04364
3849.59187	0.04384
3848.30610	0.04335
3847.02033	0.04228
3845.73456	0.04110
3844.44879	0.04034
3843.16302	0.04023
3841.87725	0.04034
3840.59149	0.04006
3839.30572	0.03936
3838.01995	0.03896
3836.73418	0.03940
3835.44841	0.04034
3834.16264	0.04090
3832.87687	0.04068
3831.59110	0.04010
3830.30534	0.03982
3829.01957	0.04021
3827.73380	0.04112
3826.44803	0.04217
3825.16226	0.04287
3823.87649	0.04287
3822.59072	0.04225
3821.30495	0.04149
3820.01918	0.04101
3818.73342	0.04076
3817.44765	0.04052
3816.16188	0.04040
3814.87611	0.04047
3813.59034	0.04062
3812.30457	0.04076
3811.01880	0.04104
3809.73303	0.04138
3808.44726	0.04149
3807.16150	0.04134
3805.87573	0.04113
3804.58996	0.04074
3803.30419	0.03998
3802.01842	0.03916
3800.73265	0.03892
3799.44688	0.03939
3798.16111	0.04001
3796.87535	0.04034
3795.58958	0.04041
3794.30381	0.04046
3793.01804	0.04064
3791.73227	0.04087
3790.44650	0.04091
3789.16073	0.04055
3787.87496	0.03990
3786.58919	0.03934
3785.30343	0.03921
3784.01766	0.03959
3782.73189	0.04018
3781.44612	0.04057
3780.16035	0.04057
3778.87458	0.04029
3777.58881	0.03993
3776.30304	0.03962
3775.01728	0.03949
3773.73151	0.03970
3772.44574	0.04013
3771.15997	0.04047
3769.87420	0.04052
3768.58843	0.04033
3767.30266	0.04008
3766.01689	0.03989
3764.73112	0.03978
3763.44536	0.03962
3762.15959	0.03930
3760.87382	0.03896
3759.58805	0.03892
3758.30228	0.03933
3757.01651	0.03987
3755.73074	0.03998
3754.44497	0.03932
3753.15921	0.03817
3751.87344	0.03730
3750.58767	0.03736
3749.30190	0.03830
3748.01613	0.03948
3746.73036	0.04009
3745.44459	0.03995
3744.15882	0.03954
3742.87305	0.03926
3741.58729	0.03906
3740.30152	0.03886
3739.01575	0.03870
3737.72998	0.03852
3736.44421	0.03830
3735.15844	0.03806
3733.87267	0.03780
3732.58690	0.03761
3731.30114	0.03768
3730.01537	0.03806
3728.72960	0.03848
3727.44383	0.03865
3726.15806	0.03852
3724.87229	0.03817
3723.58652	0.03775
3722.30075	0.03740
3721.01498	0.03720
3719.72922	0.03716
3718.44345	0.03723
3717.15768	0.03734
3715.87191	0.03732
3714.58614	0.03690
3713.30037	0.03602
3712.01460	0.03493
3710.72883	0.03407
3709.44307	0.03387
3708.15730	0.03459
3706.87153	0.03616
3705.58576	0.03801
3704.29999	0.03939
3703.01422	0.03985
3701.72845	0.03947
3700.44268	0.03871
3699.15691	0.03792
3697.87115	0.03721
3696.58538	0.03668
3695.29961	0.03652
3694.01384	0.03679
3692.72807	0.03719
3691.44230	0.03726
3690.15653	0.03686
3688.87076	0.03647
3687.58500	0.03663
3686.29923	0.03709
3685.01346	0.03707
3683.72769	0.03630
3682.44192	0.03539
3681.15615	0.03506
3679.87038	0.03540
3678.58461	0.03580
3677.29884	0.03579
3676.01308	0.03559
3674.72731	0.03583
3673.44154	0.03663
3672.15577	0.03758
3670.87000	0.03831
3669.58423	0.03869
3668.29846	0.03861
3667.01269	0.03802
3665.72693	0.03715
3664.44116	0.03638
3663.15539	0.03604
3661.86962	0.03623
3660.58385	0.03681
3659.29808	0.03738
3658.01231	0.03760
3656.72654	0.03758
3655.44077	0.03767
3654.15501	0.03792
3652.86924	0.03801
3651.58347	0.03778
3650.29770	0.03758
3649.01193	0.03783
3647.72616	0.03849
3646.44039	0.03913
3645.15462	0.03939
3643.86886	0.03931
3642.58309	0.03908
3641.29732	0.03892
3640.01155	0.03900
3638.72578	0.03938
3637.44001	0.03986
3636.15424	0.04011
3634.86847	0.03998
3633.58270	0.03968
3632.29694	0.03937
3631.01117	0.03904
3629.72540	0.03877
3628.43963	0.03892
3627.15386	0.03955
3625.86809	0.04022
3624.58232	0.04040
3623.29655	0.04008
3622.01079	0.03981
3620.72502	0.04009
3619.43925	0.04096
3618.15348	0.04204
3616.86771	0.04285
3615.58194	0.04312
3614.29617	0.04284
3613.01040	0.04224
3611.72463	0.04170
3610.43887	0.04157
3609.15310	0.04198
3607.86733	0.04258
3606.58156	0.04281
3605.29579	0.04235
3604.01002	0.04152
3602.72425	0.04101
3601.43848	0.04137
3600.15272	0.04254
3598.86695	0.04386
3597.58118	0.04456
3596.29541	0.04442
3595.00964	0.04395
3593.72387	0.04383
3592.43810	0.04418
3591.15233	0.04465
3589.86656	0.04500
3588.58080	0.04533
3587.29503	0.04559
3586.00926	0.04554
3584.72349	0.04509
3583.43772	0.04455
3582.15195	0.04429
3580.86618	0.04430
3579.58041	0.04428
3578.29464	0.04406
3577.00888	0.04387
3575.72311	0.04408
3574.43734	0.04487
3573.15157	0.04604
3571.86580	0.04711
3570.58003	0.04774
3569.29426	0.04785
3568.00849	0.04765
3566.72273	0.04748
3565.43696	0.04760
3564.15119	0.04802
3562.86542	0.04844
3561.57965	0.04855
3560.29388	0.04824
3559.00811	0.04761
3557.72234	0.04690
3556.43657	0.04628
3555.15081	0.04589
3553.86504	0.04577
3552.57927	0.04585
3551.29350	0.04597
3550.00773	0.04608
3548.72196	0.04631
3547.43619	0.04678
3546.15042	0.04739
3544.86466	0.04786
3543.57889	0.04809
3542.29312	0.04825
3541.00735	0.04850
3539.72158	0.04875
3538.43581	0.04884
3537.15004	0.04872
3535.86427	0.04847
3534.57850	0.04825
3533.29274	0.04822
3532.00697	0.04852
3530.72120	0.04905
3529.43543	0.04953
3528.14966	0.04981
3526.86389	0.04997
3525.57812	0.05009
3524.29235	0.05020
3523.00659	0.05031
3521.72082	0.05042
3520.43505	0.05044
3519.14928	0.05028
3517.86351	0.04994
3516.57774	0.04962
3515.29197	0.04954
3514.00620	0.04978
3512.72043	0.05028
3511.43467	0.05090
3510.14890	0.05137
3508.86313	0.05158
3507.57736	0.05165
3506.29159	0.05191
3505.00582	0.05251
3503.72005	0.05329
3502.43428	0.05395
3501.14852	0.05422
3499.86275	0.05398
3498.57698	0.05327
3497.29121	0.05228
3496.00544	0.05134
3494.71967	0.05083
3493.43390	0.05092
3492.14813	0.05159
3490.86236	0.05260
3489.57660	0.05360
3488.29083	0.05420
3487.00506	0.05417
3485.71929	0.05362
3484.43352	0.05282
3483.14775	0.05201
3481.86198	0.05137
3480.57621	0.05107
3479.29045	0.05121
3478.00468	0.05171
3476.71891	0.05234
3475.43314	0.05286
3474.14737	0.05325
3472.86160	0.05363
3471.57583	0.05410
3470.29006	0.05467
3469.00429	0.05528
3467.71853	0.05582
3466.43276	0.05621
3465.14699	0.05634
3463.86122	0.05618
3462.57545	0.05582
3461.28968	0.05545
3460.00391	0.05526
3458.71814	0.05534
3457.43238	0.05564
3456.14661	0.05603
3454.86084	0.05638
3453.57507	0.05657
3452.28930	0.05652
3451.00353	0.05625
3449.71776	0.05601
3448.43199	0.05603
3447.14622	0.05632
3445.86046	0.05659
3444.57469	0.05656
3443.28892	0.05629
3442.00315	0.05609
3440.71738	0.05627
3439.43161	0.05686
3438.14584	0.05758
3436.86007	0.05804
3435.57431	0.05802
3434.28854	0.05767
3433.00277	0.05731
3431.71700	0.05721
3430.43123	0.05743
3429.14546	0.05784
3427.85969	0.05819
3426.57392	0.05832
3425.28815	0.05829
3424.00239	0.05823
3422.71662	0.05815
3421.43085	0.05796
3420.14508	0.05766
3418.85931	0.05744
3417.57354	0.05744
3416.28777	0.05763
3415.00200	0.05787
3413.71624	0.05796
3412.43047	0.05777
3411.14470	0.05736
3409.85893	0.05701
3408.57316	0.05702
3407.28739	0.05742
3406.00162	0.05795
3404.71585	0.05841
3403.43008	0.05876
3402.14432	0.05893
3400.85855	0.05876
3399.57278	0.05823
3398.28701	0.05764
3397.00124	0.05745
3395.71547	0.05783
3394.42970	0.05858
3393.14393	0.05941
3391.85817	0.06015
3390.57240	0.06064
3389.28663	0.06072
3388.00086	0.06039
3386.71509	0.05984
3385.42932	0.05933
3384.14355	0.05895
3382.85778	0.05867
3381.57201	0.05854
3380.28625	0.05864
3379.00048	0.05896
3377.71471	0.05937
3376.42894	0.05971
3375.14317	0.05992
3373.85740	0.05996
3372.57163	0.05977
3371.28586	0.05935
3370.00010	0.05892
3368.71433	0.05884
3367.42856	0.05935
3366.14279	0.06025
3364.85702	0.06104
3363.57125	0.06129
3362.28548	0.06094
3360.99971	0.06030
3359.71394	0.05975
3358.42818	0.05955
3357.14241	0.05973
3355.85664	0.06014
3354.57087	0.06051
3353.28510	0.06068
3351.99933	0.06066
3350.71356	0.06055
3349.42779	0.06036
3348.14202	0.06006
3346.85626	0.05964
3345.57049	0.05921
3344.28472	0.05898
3342.99895	0.05911
3341.71318	0.05964
3340.42741	0.06040
3339.14164	0.06104
3337.85587	0.06129
3336.57011	0.06107
3335.28434	0.06055
3333.99857	0.05995
3332.71280	0.05947
3331.42703	0.05923
3330.14126	0.05926
3328.85549	0.05953
3327.56972	0.05994
3326.28395	0.06034
3324.99819	0.06053
3323.71242	0.06039
3322.42665	0.05995
3321.14088	0.05947
3319.85511	0.05927
3318.56934	0.05948
3317.28357	0.05997
3315.99780	0.06043
3314.71204	0.06062
3313.42627	0.06054
3312.14050	0.06035
3310.85473	0.06021
3309.56896	0.06015
3308.28319	0.06011
3306.99742	0.06000
3305.71165	0.05975
3304.42588	0.05934
3303.14012	0.05889
3301.85435	0.05857
3300.56858	0.05852
3299.28281	0.05867
3297.99704	0.05887
3296.71127	0.05898
3295.42550	0.05903
3294.13973	0.05914
3292.85397	0.05947
3291.56820	0.05996
3290.28243	0.06038
3288.99666	0.06040
3287.71089	0.05990
3286.42512	0.05907
3285.13935	0.05832
3283.85358	0.05803
3282.56781	0.05826
3281.28205	0.05875
3279.99628	0.05918
3278.71051	0.05934
3277.42474	0.05927
3276.13897	0.05904
3274.85320	0.05867
3273.56743	0.05822
3272.28166	0.05781
3270.99590	0.05758
3269.71013	0.05751
3268.42436	0.05751
3267.13859	0.05753
3265.85282	0.05757
3264.56705	0.05761
3263.28128	0.05769
3261.99551	0.05792
3260.70974	0.05839
3259.42398	0.05896
3258.13821	0.05928
3256.85244	0.05916
3255.56667	0.05869
3254.28090	0.05814
3252.99513	0.05771
3251.70936	0.05746
3250.42359	0.05731
3249.13783	0.05721
3247.85206	0.05715
3246.56629	0.05720
3245.28052	0.05738
3243.99475	0.05758
3242.70898	0.05766
3241.42321	0.05758
3240.13744	0.05744
3238.85167	0.05734
3237.56591	0.05729
3236.28014	0.05716
3234.99437	0.05688
3233.70860	0.05653
3232.42283	0.05628
3231.13706	0.05629
3229.85129	0.05659
3228.56552	0.05705
3227.27976	0.05744
3225.99399	0.05766
3224.70822	0.05766
3223.42245	0.05738
3222.13668	0.05685
3220.85091	0.05627
3219.56514	0.05589
3218.27937	0.05585
3216.99360	0.05608
3215.70784	0.05639
3214.42207	0.05659
3213.13630	0.05651
3211.85053	0.05610
3210.56476	0.05553
3209.27899	0.05510
3207.99322	0.05492
3206.70745	0.05489
3205.42169	0.05485
3204.13592	0.05483
3202.85015	0.05500
3201.56438	0.05536
3200.27861	0.05570
3198.99284	0.05580
3197.70707	0.05568
3196.42130	0.05552
3195.13553	0.05541
3193.84977	0.05529
3192.56400	0.05508
3191.27823	0.05478
3189.99246	0.05445
3188.70669	0.05419
3187.42092	0.05412
3186.13515	0.05425
3184.84938	0.05439
3183.56362	0.05430
3182.27785	0.05401
3180.99208	0.05383
3179.70631	0.05396
3178.42054	0.05430
3177.13477	0.05456
3175.84900	0.05454
3174.56323	0.05426
3173.27746	0.05385
3171.99170	0.05341
3170.70593	0.05304
3169.42016	0.05286
3168.13439	0.05295
3166.84862	0.05326
3165.56285	0.05362
3164.27708	0.05384
3162.99131	0.05383
3161.70555	0.05361
3160.41978	0.05329
3159.13401	0.05305
3157.84824	0.05308
3156.56247	0.05345
3155.27670	0.05396
3153.99093	0.05426
3152.70516	0.05412
3151.41939	0.05364
3150.13363	0.05316
3148.84786	0.05282
3147.56209	0.05257
3146.27632	0.05227
3144.99055	0.05193
3143.70478	0.05165
3142.41901	0.05149
3141.13324	0.05146
3139.84748	0.05160
3138.56171	0.05190
3137.27594	0.05222
3135.99017	0.05240
3134.70440	0.05237
3133.41863	0.05216
3132.13286	0.05186
3130.84709	0.05159
3129.56132	0.05140
3128.27556	0.05124
3126.98979	0.05105
3125.70402	0.05089
3124.41825	0.05087
3123.13248	0.05096
3121.84671	0.05104
3120.56094	0.05102
3119.27517	0.05098
3117.98940	0.05101
3116.70364	0.05115
3115.41787	0.05130
3114.13210	0.05132
3112.84633	0.05116
3111.56056	0.05089
3110.27479	0.05066
3108.98902	0.05049
3107.70325	0.05036
3106.41749	0.05017
3105.13172	0.04993
3103.84595	0.04963
3102.56018	0.04932
3101.27441	0.04910
3099.98864	0.04904
3098.70287	0.04915
3097.41710	0.04934
3096.13133	0.04948
3094.84557	0.04945
3093.55980	0.04920
3092.27403	0.04877
3090.98826	0.04832
3089.70249	0.04801
3088.41672	0.04792
3087.13095	0.04804
3085.84518	0.04835
3084.55942	0.04882
3083.27365	0.04926
3081.98788	0.04946
3080.70211	0.04925
3079.41634	0.04873
3078.13057	0.04813
3076.84480	0.04773
3075.55903	0.04772
3074.27326	0.04808
3072.98750	0.04861
3071.70173	0.04899
3070.41596	0.04908
3069.13019	0.04895
3067.84442	0.04877
3066.55865	0.04859
3065.27288	0.04836
3063.98711	0.04806
3062.70135	0.04780
3061.41558	0.04768
3060.12981	0.04767
3058.84404	0.04768
3057.55827	0.04761
3056.27250	0.04744
3054.98673	0.04719
3053.70096	0.04700
3052.41519	0.04702
3051.12943	0.04730
3049.84366	0.04771
3048.55789	0.04799
3047.27212	0.04801
3045.98635	0.04786
3044.70058	0.04772
3043.41481	0.04762
3042.12904	0.04743
3040.84328	0.04703
3039.55751	0.04649
3038.27174	0.04599
3036.98597	0.04564
3035.70020	0.04543
3034.41443	0.04532
3033.12866	0.04534
3031.84289	0.04556
3030.55712	0.04591
3029.27136	0.04620
3027.98559	0.04623
3026.69982	0.04598
3025.41405	0.04569
3024.12828	0.04562
3022.84251	0.04582
3021.55674	0.04606
3020.27097	0.04606
3018.98521	0.04575
3017.69944	0.04533
3016.41367	0.04505
3015.12790	0.04499
3013.84213	0.04505
3012.55636	0.04514
3011.27059	0.04521
3009.98482	0.04525
3008.69905	0.04519
3007.41329	0.04497
3006.12752	0.04465
3004.84175	0.04439
3003.55598	0.04429
3002.27021	0.04430
3000.98444	0.04438
2999.69867	0.04458
2998.41290	0.04499
2997.12714	0.04550
2995.84137	0.04580
2994.55560	0.04569
2993.26983	0.04536
2991.98406	0.04517
2990.69829	0.04519
2989.41252	0.04529
2988.12675	0.04537
2986.84098	0.04549
2985.55522	0.04566
2984.26945	0.04580
2982.98368	0.04591
2981.69791	0.04616
2980.41214	0.04657
2979.12637	0.04698
2977.84060	0.04723
2976.55483	0.04735
2975.26907	0.04750
2973.98330	0.04773
2972.69753	0.04805
2971.41176	0.04848
2970.12599	0.04904
2968.84022	0.04970
2967.55445	0.05036
2966.26868	0.05097
2964.98291	0.05156
2963.69715	0.05208
2962.41138	0.05242
2961.12561	0.05254
2959.83984	0.05257
2958.55407	0.05266
2957.26830	0.05292
2955.98253	0.05336
2954.69676	0.05393
2953.41100	0.05451
2952.12523	0.05498
2950.83946	0.05525
2949.55369	0.05534
2948.26792	0.05529
2946.98215	0.05521
2945.69638	0.05517
2944.41061	0.05517
2943.12484	0.05517
2941.83908	0.05513
2940.55331	0.05513
2939.26754	0.05522
2937.98177	0.05544
2936.69600	0.05573
2935.41023	0.05606
2934.12446	0.05643
2932.83869	0.05690
2931.55293	0.05749
2930.26716	0.05819
2928.98139	0.05887
2927.69562	0.05938
2926.40985	0.05967
2925.12408	0.05976
2923.83831	0.05969
2922.55254	0.05956
2921.26677	0.05946
2919.98101	0.05947
2918.69524	0.05950
2917.40947	0.05937
2916.12370	0.05891
2914.83793	0.05817
2913.55216	0.05733
2912.26639	0.05665
2910.98062	0.05623
2909.69486	0.05597
2908.40909	0.05565
2907.12332	0.05515
2905.83755	0.05454
2904.55178	0.05396
2903.26601	0.05352
2901.98024	0.05317
2900.69447	0.05288
2899.40870	0.05264
2898.12294	0.05248
2896.83717	0.05230
2895.55140	0.05201
2894.26563	0.05154
2892.97986	0.05097
2891.69409	0.05046
2890.40832	0.05014
2889.12255	0.05002
2887.83678	0.05000
2886.55102	0.04994
2885.26525	0.04981
2883.97948	0.04960
2882.69371	0.04926
2881.40794	0.04882
2880.12217	0.04846
2878.83640	0.04837
2877.55063	0.04856
2876.26487	0.04889
2874.97910	0.04917
2873.69333	0.04934
2872.40756	0.04942
2871.12179	0.04948
2869.83602	0.04957
2868.55025	0.04971
2867.26448	0.04992
2865.97871	0.05019
2864.69295	0.05046
2863.40718	0.05062
2862.12141	0.05052
2860.83564	0.05013
2859.54987	0.04966
2858.26410	0.04934
2856.97833	0.04920
2855.69256	0.04909
2854.40680	0.04893
2853.12103	0.04874
2851.83526	0.04856
2850.54949	0.04833
2849.26372	0.04798
2847.97795	0.04751
2846.69218	0.04702
2845.40641	0.04658
2844.12064	0.04621
2842.83488	0.04582
2841.54911	0.04530
2840.26334	0.04462
2838.97757	0.04389
2837.69180	0.04329
2836.40603	0.04290
2835.12026	0.04268
2833.83449	0.04256
2832.54873	0.04243
2831.26296	0.04222
2829.97719	0.04186
2828.69142	0.04143
2827.40565	0.04106
2826.11988	0.04082
2824.83411	0.04068
2823.54834	0.04056
2822.26257	0.04042
2820.97681	0.04028
2819.69104	0.04013
2818.40527	0.03995
2817.11950	0.03976
2815.83373	0.03960
2814.54796	0.03947
2813.26219	0.03935
2811.97642	0.03929
2810.69066	0.03931
2809.40489	0.03933
2808.11912	0.03921
2806.83335	0.03893
2805.54758	0.03862
2804.26181	0.03841
2802.97604	0.03838
2801.69027	0.03846
2800.40450	0.03854
2799.11874	0.03846
2797.83297	0.03816
2796.54720	0.03779
2795.26143	0.03754
2793.97566	0.03747
2792.68989	0.03747
2791.40412	0.03746
2790.11835	0.03748
2788.83259	0.03757
2787.54682	0.03771
2786.26105	0.03787
2784.97528	0.03800
2783.68951	0.03798
2782.40374	0.03767
2781.11797	0.03717
2779.83220	0.03679
2778.54643	0.03675
2777.26067	0.03693
2775.97490	0.03708
2774.68913	0.03703
2773.40336	0.03688
2772.11759	0.03679
2770.83182	0.03676
2769.54605	0.03667
2768.26028	0.03644
2766.97452	0.03610
2765.68875	0.03580
2764.40298	0.03564
2763.11721	0.03565
2761.83144	0.03577
2760.54567	0.03591
2759.25990	0.03597
2757.97413	0.03588
2756.68836	0.03565
2755.40260	0.03537
2754.11683	0.03516
2752.83106	0.03509
2751.54529	0.03515
2750.25952	0.03526
2748.97375	0.03536
2747.68798	0.03539
2746.40221	0.03537
2745.11645	0.03537
2743.83068	0.03547
2742.54491	0.03558
2741.25914	0.03558
2739.97337	0.03548
2738.68760	0.03536
2737.40183	0.03531
2736.11606	0.03533
2734.83029	0.03534
2733.54453	0.03526
2732.25876	0.03513
2730.97299	0.03507
2729.68722	0.03518
2728.40145	0.03535
2727.11568	0.03542
2725.82991	0.03534
2724.54414	0.03523
2723.25838	0.03517
2721.97261	0.03513
2720.68684	0.03501
2719.40107	0.03483
2718.11530	0.03470
2716.82953	0.03467
2715.54376	0.03468
2714.25799	0.03463
2712.97222	0.03450
2711.68646	0.03435
2710.40069	0.03424
2709.11492	0.03425
2707.82915	0.03436
2706.54338	0.03446
2705.25761	0.03446
2703.97184	0.03435
2702.68607	0.03418
2701.40031	0.03399
2700.11454	0.03377
2698.82877	0.03355
2697.54300	0.03341
2696.25723	0.03342
2694.97146	0.03353
2693.68569	0.03368
2692.39992	0.03380
2691.11415	0.03387
2689.82839	0.03388
2688.54262	0.03382
2687.25685	0.03370
2685.97108	0.03357
2684.68531	0.03344
2683.39954	0.03329
2682.11377	0.03312
2680.82800	0.03298
2679.54224	0.03291
2678.25647	0.03291
2676.97070	0.03300
2675.68493	0.03313
2674.39916	0.03324
2673.11339	0.03324
2671.82762	0.03316
2670.54185	0.03312
2669.25608	0.03321
2667.97032	0.03345
2666.68455	0.03374
2665.39878	0.03395
2664.11301	0.03399
2662.82724	0.03388
2661.54147	0.03367
2660.25570	0.03349
2658.96993	0.03344
2657.68417	0.03349
2656.39840	0.03348
2655.11263	0.03329
2653.82686	0.03301
2652.54109	0.03278
2651.25532	0.03268
2649.96955	0.03256
2648.68378	0.03233
2647.39801	0.03202
2646.11225	0.03184
2644.82648	0.03184
2643.54071	0.03192
2642.25494	0.03189
2640.96917	0.03166
2639.68340	0.03132
2638.39763	0.03100
2637.11186	0.03083
2635.82609	0.03083
2634.54033	0.03097
2633.25456	0.03110
2631.96879	0.03109
2630.68302	0.03094
2629.39725	0.03071
2628.11148	0.03048
2626.82571	0.03026
2625.53994	0.03002
2624.25418	0.02976
2622.96841	0.02953
2621.68264	0.02934
2620.39687	0.02921
2619.11110	0.02916
2617.82533	0.02922
2616.53956	0.02944
2615.25379	0.02971
2613.96802	0.02985
2612.68226	0.02970
2611.39649	0.02927
2610.11072	0.02875
2608.82495	0.02844
2607.53918	0.02849
2606.25341	0.02878
2604.96764	0.02904
2603.68187	0.02907
2602.39611	0.02886
2601.11034	0.02853
2599.82457	0.02823
2598.53880	0.02807
2597.25303	0.02805
2595.96726	0.02799
2594.68149	0.02777
2593.39572	0.02745
2592.10995	0.02727
2590.82419	0.02735
2589.53842	0.02750
2588.25265	0.02745
2586.96688	0.02717
2585.68111	0.02692
2584.39534	0.02693
2583.10957	0.02723
2581.82380	0.02766
2580.53804	0.02803
2579.25227	0.02821
2577.96650	0.02815
2576.68073	0.02787
2575.39496	0.02747
2574.10919	0.02705
2572.82342	0.02671
2571.53765	0.02654
2570.25188	0.02663
2568.96612	0.02697
2567.68035	0.02738
2566.39458	0.02755
2565.10881	0.02730
2563.82304	0.02680
2562.53727	0.02637
2561.25150	0.02621
2559.96573	0.02624
2558.67997	0.02629
2557.39420	0.02626
2556.10843	0.02625
2554.82266	0.02641
2553.53689	0.02675
2552.25112	0.02704
2550.96535	0.02704
2549.67958	0.02677
2548.39381	0.02640
2547.10805	0.02612
2545.82228	0.02594
2544.53651	0.02581
2543.25074	0.02568
2541.96497	0.02559
2540.67920	0.02562
2539.39343	0.02586
2538.10766	0.02627
2536.82190	0.02667
2535.53613	0.02681
2534.25036	0.02653
2532.96459	0.02601
2531.67882	0.02563
2530.39305	0.02570
2529.10728	0.02617
2527.82151	0.02663
2526.53574	0.02668
2525.24998	0.02620
2523.96421	0.02539
2522.67844	0.02460
2521.39267	0.02413
2520.10690	0.02404
2518.82113	0.02419
2517.53536	0.02437
2516.24959	0.02442
2514.96383	0.02440
2513.67806	0.02448
2512.39229	0.02472
2511.10652	0.02497
2509.82075	0.02501
2508.53498	0.02478
2507.24921	0.02441
2505.96344	0.02406
2504.67767	0.02383
2503.39191	0.02377
2502.10614	0.02392
2500.82037	0.02422
2499.53460	0.02457
2498.24883	0.02487
2496.96306	0.02509
2495.67729	0.02520
2494.39152	0.02515
2493.10576	0.02497
2491.81999	0.02474
2490.53422	0.02453
2489.24845	0.02429
2487.96268	0.02401
2486.67691	0.02381
2485.39114	0.02384
2484.10537	0.02410
2482.81960	0.02445
2481.53384	0.02477
2480.24807	0.02500
2478.96230	0.02511
2477.67653	0.02511
2476.39076	0.02504
2475.10499	0.02497
2473.81922	0.02490
2472.53345	0.02473
2471.24769	0.02444
2469.96192	0.02416
2468.67615	0.02407
2467.39038	0.02417
2466.10461	0.02434
2464.81884	0.02443
2463.53307	0.02439
2462.24730	0.02421
2460.96153	0.02392
2459.67577	0.02361
2458.39000	0.02344
2457.10423	0.02349
2455.81846	0.02370
2454.53269	0.02389
2453.24692	0.02400
2451.96115	0.02401
2450.67538	0.02392
2449.38962	0.02370
2448.10385	0.02342
2446.81808	0.02320
2445.53231	0.02313
2444.24654	0.02317
2442.96077	0.02319
2441.67500	0.02308
2440.38923	0.02282
2439.10346	0.02252
2437.81770	0.02238
2436.53193	0.02245
2435.24616	0.02257
2433.96039	0.02256
2432.67462	0.02247
2431.38885	0.02251
2430.10308	0.02277
2428.81731	0.02318
2427.53155	0.02350
2426.24578	0.02353
2424.96001	0.02321
2423.67424	0.02268
2422.38847	0.02219
2421.10270	0.02196
2419.81693	0.02205
2418.53116	0.02237
2417.24539	0.02274
2415.95963	0.02297
2414.67386	0.02294
2413.38809	0.02266
2412.10232	0.02230
2410.81655	0.02215
2409.53078	0.02230
2408.24501	0.02259
2406.95924	0.02277
2405.67347	0.02282
2404.38771	0.02288
2403.10194	0.02300
2401.81617	0.02303
2400.53040	0.02286
2399.24463	0.02256
2397.95886	0.02240
2396.67309	0.02253
2395.38732	0.02288
2394.10156	0.02320
2392.81579	0.02325
2391.53002	0.02296
2390.24425	0.02244
2388.95848	0.02197
2387.67271	0.02171
2386.38694	0.02171
2385.10117	0.02185
2383.81540	0.02198
2382.52964	0.02198
2381.24387	0.02193
2379.95810	0.02196
2378.67233	0.02211
2377.38656	0.02234
2376.10079	0.02261
2374.81502	0.02280
2373.52925	0.02274
2372.24349	0.02252
2370.95772	0.02238
2369.67195	0.02243
2368.38618	0.02259
2367.10041	0.02271
2365.81464	0.02282
2364.52887	0.02289
2363.24310	0.02292
2361.95733	0.02290
2360.67157	0.02285
2359.38580	0.02294
2358.10003	0.02326
2356.81426	0.02367
2355.52849	0.02392
2354.24272	0.02396
2352.95695	0.02382
2351.67118	0.02354
2350.38542	0.02332
2349.09965	0.02330
2347.81388	0.02329
2346.52811	0.02312
2345.24234	0.02298
2343.95657	0.02320
2342.67080	0.02368
2341.38503	0.02375
2340.09926	0.02344
2338.81350	0.02357
2337.52773	0.02404
2336.24196	0.02392
2334.95619	0.02345
2333.67042	0.02341
2332.38465	0.02363
2331.09888	0.02323
2329.81311	0.02305
2328.52735	0.02350
2327.24158	0.02388
2325.95581	0.02431
2324.67004	0.02492
2323.38427	0.02524
2322.09850	0.02488
2320.81273	0.02434
2319.52696	0.02373
2318.24119	0.02324
2316.95543	0.02301
2315.66966	0.02293
2314.38389	0.02305
2313.09812	0.02334
2311.81235	0.02357
2310.52658	0.02369
2309.24081	0.02360
2307.95504	0.02325
2306.66928	0.02287
2305.38351	0.02256
2304.09774	0.02241
2302.81197	0.02233
2301.52620	0.02221
2300.24043	0.02202
2298.95466	0.02178
2297.66889	0.02156
2296.38312	0.02142
2295.09736	0.02138
2293.81159	0.02148
2292.52582	0.02168
2291.24005	0.02192
2289.95428	0.02207
2288.66851	0.02204
2287.38274	0.02185
2286.09697	0.02154
2284.81121	0.02121
2283.52544	0.02098
2282.23967	0.02094
2280.95390	0.02103
2279.66813	0.02103
2278.38236	0.02084
2277.09659	0.02059
2275.81082	0.02041
2274.52505	0.02029
2273.23929	0.02013
2271.95352	0.01989
2270.66775	0.01965
2269.38198	0.01943
2268.09621	0.01917
2266.81044	0.01881
2265.52467	0.01839
2264.23890	0.01810
2262.95314	0.01804
2261.66737	0.01819
2260.38160	0.01839
2259.09583	0.01851
2257.81006	0.01846
2256.52429	0.01827
2255.23852	0.01814
2253.95275	0.01818
2252.66698	0.01830
2251.38122	0.01831
2250.09545	0.01822
2248.80968	0.01819
2247.52391	0.01818
2246.23814	0.01808
2244.95237	0.01776
2243.66660	0.01714
2242.38083	0.01617
2241.09507	0.01505
2239.80930	0.01436
2238.52353	0.01454
2237.23776	0.01532
2235.95199	0.01595
2234.66622	0.01603
2233.38045	0.01572
2232.09468	0.01539
2230.80891	0.01519
2229.52315	0.01517
2228.23738	0.01534
2226.95161	0.01560
2225.66584	0.01575
2224.38007	0.01554
2223.09430	0.01496
2221.80853	0.01431
2220.52276	0.01407
2219.23700	0.01441
2217.95123	0.01496
2216.66546	0.01521
2215.37969	0.01503
2214.09392	0.01470
2212.80815	0.01464
2211.52238	0.01493
2210.23661	0.01532
2208.95084	0.01548
2207.66508	0.01527
2206.37931	0.01483
2205.09354	0.01431
2203.80777	0.01383
2202.52200	0.01343
2201.23623	0.01317
2199.95046	0.01325
2198.66469	0.01381
2197.37893	0.01469
2196.09316	0.01537
2194.80739	0.01537
2193.52162	0.01467
2192.23585	0.01379
2190.95008	0.01337
2189.66431	0.01362
2188.37854	0.01407
2187.09277	0.01405
2185.80701	0.01345
2184.52124	0.01272
2183.23547	0.01207
2181.94970	0.01116
2180.66393	0.00979
2179.37816	0.00842
2178.09239	0.00767
2176.80662	0.00768
2175.52085	0.00814
2174.23509	0.00869
2172.94932	0.00900
2171.66355	0.00893
2170.37778	0.00864
2169.09201	0.00851
2167.80624	0.00877
2166.52047	0.00935
2165.23470	0.00995
2163.94894	0.01032
2162.66317	0.01028
2161.37740	0.00959
2160.09163	0.00798
2158.80586	0.00578
2157.52009	0.00408
2156.23432	0.00388
2154.94855	0.00508
2153.66278	0.00683
2152.37702	0.00823
2151.09125	0.00878
2149.80548	0.00856
2148.51971	0.00810
2147.23394	0.00794
2145.94817	0.00810
2144.66240	0.00828
2143.37663	0.00845
2142.09087	0.00884
2140.80510	0.00942
2139.51933	0.00980
2138.23356	0.00967
2136.94779	0.00921
2135.66202	0.00889
2134.37625	0.00911
2133.09048	0.00978
2131.80471	0.01046
2130.51895	0.01077
2129.23318	0.01071
2127.94741	0.01050
2126.66164	0.01033
2125.37587	0.01030
2124.09010	0.01044
2122.80433	0.01078
2121.51856	0.01130
2120.23280	0.01187
2118.94703	0.01235
2117.66126	0.01269
2116.37549	0.01296
2115.08972	0.01333
2113.80395	0.01380
2112.51818	0.01412
2111.23241	0.01408
2109.94664	0.01375
2108.66088	0.01341
2107.37511	0.01325
2106.08934	0.01318
2104.80357	0.01301
2103.51780	0.01265
2102.23203	0.01212
2100.94626	0.01145
2099.66049	0.00928
2098.37473	0.00805
2097.08896	0.00769
2095.80319	0.00766
2094.51742	0.00802
2093.23165	0.00889
2091.94588	0.01005
2090.66011	0.01110
2089.37434	0.01176
2088.08857	0.01202
2086.80281	0.01199
2085.51704	0.01175
2084.23127	0.01144
2082.94550	0.01122
2081.65973	0.01119
2080.37396	0.01124
2079.08819	0.01113
2077.80242	0.01062
2076.51666	0.00970
2075.23089	0.00859
2073.94512	0.00768
2072.65935	0.00738
2071.37358	0.00783
2070.08781	0.00868
2068.80204	0.00929
2067.51627	0.00929
2066.23050	0.00889
2064.94474	0.00857
2063.65897	0.00853
2062.37320	0.00864
2061.08743	0.00877
2059.80166	0.00897
2058.51589	0.00923
2057.23012	0.00945
2055.94435	0.00962
2054.65859	0.00980
2053.37282	0.00988
2052.08705	0.00943
2050.80128	0.00816
2049.51551	0.00627
2048.22974	0.00433
2046.94397	0.00281
2045.65820	0.00181
2044.37243	0.00123
2043.08667	0.00108
2041.80090	0.00150
2040.51513	0.00249
2039.22936	0.00350
2037.94359	0.00370
2036.65782	0.00276
2035.37205	0.00133
2034.08628	0.00050
2032.80052	0.00079
2031.51475	0.00176
2030.22898	0.00253
2028.94321	0.00261
2027.65744	0.00225
2026.37167	0.00205
2025.08590	0.00244
2023.80013	0.00339
2022.51436	0.00451
2021.22860	0.00523
2019.94283	0.00506
2018.65706	0.00387
2017.37129	0.00198
2016.08552	-0.00003
2014.79975	-0.00150
2013.51398	-0.00197
2012.22821	-0.00138
2010.94245	-0.00025
2009.65668	0.00072
2008.37091	0.00145
2007.08514	0.00241
2005.79937	0.00389
2004.51360	0.00551
2003.22783	0.00666
2001.94206	0.00726
2000.65629	0.00776
1999.37053	0.00857
1998.08476	0.00970
1996.79899	0.01080
1995.51322	0.01149
1994.22745	0.01151
1992.94168	0.01082
1991.65591	0.00954
1990.37014	0.00802
1989.08438	0.00681
1987.79861	0.00643
1986.51284	0.00693
1985.22707	0.00777
1983.94130	0.00816
1982.65553	0.00760
1981.36976	0.00619
1980.08399	0.00437
1978.79822	0.00263
1977.51246	0.00136
1976.22669	0.00071
1974.94092	0.00055
1973.65515	0.00050
1972.36938	0.00034
1971.08361	0.00021
1969.79784	0.00041
1968.51207	0.00104
1967.22631	0.00202
1965.94054	0.00321
1964.65477	0.00447
1963.36900	0.00567
1962.08323	0.00670
1960.79746	0.00758
1959.51169	0.00830
1958.22592	0.00876
1956.94015	0.00890
1955.65439	0.00876
1954.36862	0.00854
1953.08285	0.00847
1951.79708	0.00874
1950.51131	0.00930
1949.22554	0.00984
1947.93977	0.00994
1946.65400	0.00950
1945.36823	0.00888
1944.08247	0.00851
1942.79670	0.00852
1941.51093	0.00872
1940.22516	0.00890
1938.93939	0.00899
1937.65362	0.00904
1936.36785	0.00904
1935.08208	0.00901
1933.79632	0.00904
1932.51055	0.00927
1931.22478	0.00973
1929.93901	0.01022
1928.65324	0.01053
1927.36747	0.01062
1926.08170	0.01067
1924.79593	0.01090
1923.51016	0.01136
1922.22440	0.01186
1920.93863	0.01214
1919.65286	0.01210
1918.36709	0.01186
1917.08132	0.01164
1915.79555	0.01148
1914.50978	0.01126
1913.22401	0.01086
1911.93825	0.01040
1910.65248	0.01011
1909.36671	0.01006
1908.08094	0.01016
1906.79517	0.01026
1905.50940	0.01034
1904.22363	0.01051
1902.93786	0.01080
1901.65209	0.01109
1900.36633	0.01125
1899.08056	0.01129
1897.79479	0.01135
1896.50902	0.01150
1895.22325	0.01168
1893.93748	0.01172
1892.65171	0.01151
1891.36594	0.01113
1890.08018	0.01079
1888.79441	0.01071
1887.50864	0.01090
1886.22287	0.01120
1884.93710	0.01145
1883.65133	0.01159
1882.36556	0.01165
1881.07979	0.01168
1879.79402	0.01167
1878.50826	0.01158
1877.22249	0.01138
1875.93672	0.01112
1874.65095	0.01092
1873.36518	0.01092
1872.07941	0.01114
1870.79364	0.01144
1869.50787	0.01166
1868.22211	0.01172
1866.93634	0.01163
1865.65057	0.01148
1864.36480	0.01137
1863.07903	0.01136
1861.79326	0.01141
1860.50749	0.01145
1859.22172	0.01144
1857.93595	0.01143
1856.65019	0.01147
1855.36442	0.01157
1854.07865	0.01168
1852.79288	0.01174
1851.50711	0.01176
1850.22134	0.01179
1848.93557	0.01184
1847.64980	0.01187
1846.36404	0.01182
1845.07827	0.01170
1843.79250	0.01161
1842.50673	0.01162
1841.22096	0.01170
1839.93519	0.01181
1838.64942	0.01192
1837.36365	0.01203
1836.07788	0.01214
1834.79212	0.01221
1833.50635	0.01224
1832.22058	0.01220
1830.93481	0.01208
1829.64904	0.01192
1828.36327	0.01175
1827.07750	0.01155
1825.79173	0.01131
1824.50597	0.01106
1823.22020	0.01085
1821.93443	0.01072
1820.64866	0.01069
1819.36289	0.01081
1818.07712	0.01111
1816.79135	0.01159
1815.50558	0.01216
1814.21981	0.01267
1812.93405	0.01301
1811.64828	0.01318
1810.36251	0.01323
1809.07674	0.01325
1807.79097	0.01327
1806.50520	0.01330
1805.21943	0.01329
1803.93366	0.01323
1802.64790	0.01311
1801.36213	0.01299
1800.07636	0.01293
1798.79059	0.01291
1797.50482	0.01290
1796.21905	0.01284
1794.93328	0.01269
1793.64751	0.01253
1792.36174	0.01248
1791.07598	0.01259
1789.79021	0.01276
1788.50444	0.01283
1787.21867	0.01278
1785.93290	0.01268
1784.64713	0.01263
1783.36136	0.01263
1782.07559	0.01263
1780.78983	0.01263
1779.50406	0.01264
1778.21829	0.01267
1776.93252	0.01269
1775.64675	0.01270
1774.36098	0.01270
1773.07521	0.01276
1771.78944	0.01291
1770.50367	0.01312
1769.21791	0.01336
1767.93214	0.01359
1766.64637	0.01379
1765.36060	0.01390
1764.07483	0.01390
1762.78906	0.01389
1761.50329	0.01399
1760.21752	0.01416
1758.93176	0.01421
1757.64599	0.01408
1756.36022	0.01388
1755.07445	0.01374
1753.78868	0.01368
1752.50291	0.01365
1751.21714	0.01367
1749.93137	0.01377
1748.64560	0.01397
1747.35984	0.01416
1746.07407	0.01428
1744.78830	0.01425
1743.50253	0.01411
1742.21676	0.01395
1740.93099	0.01384
1739.64522	0.01387
1738.35945	0.01396
1737.07369	0.01395
1735.78792	0.01377
1734.50215	0.01363
1733.21638	0.01377
1731.93061	0.01416
1730.64484	0.01456
1729.35907	0.01481
1728.07330	0.01495
1726.78753	0.01505
1725.50177	0.01514
1724.21600	0.01527
1722.93023	0.01544
1721.64446	0.01559
1720.35869	0.01558
1719.07292	0.01543
1717.78715	0.01534
1716.50138	0.01549
1715.21561	0.01586
1713.92985	0.01631
1712.64408	0.01671
1711.35831	0.01704
1710.07254	0.01730
1708.78677	0.01755
1707.50100	0.01782
1706.21523	0.01813
1704.92946	0.01850
1703.64370	0.01884
1702.35793	0.01906
1701.07216	0.01923
1699.78639	0.01955
1698.50062	0.02000
1697.21485	0.02043
1695.92908	0.02090
1694.64331	0.02156
1693.35754	0.02232
1692.07178	0.02293
1690.78601	0.02334
1689.50024	0.02367
1688.21447	0.02390
1686.92870	0.02396
1685.64293	0.02399
1684.35716	0.02430
1683.07139	0.02504
1681.78563	0.02597
1680.49986	0.02675
1679.21409	0.02729
1677.92832	0.02765
1676.64255	0.02793
1675.35678	0.02827
1674.07101	0.02871
1672.78524	0.02916
1671.49947	0.02955
1670.21371	0.02993
1668.92794	0.03041
1667.64217	0.03097
1666.35640	0.03147
1665.07063	0.03181
1663.78486	0.03207
1662.49909	0.03237
1661.21332	0.03275
1659.92756	0.03312
1658.64179	0.03340
1657.35602	0.03352
1656.07025	0.03339
1654.78448	0.03306
1653.49871	0.03285
1652.21294	0.03312
1650.92717	0.03376
1649.64140	0.03430
1648.35564	0.03448
1647.06987	0.03445
1645.78410	0.03448
1644.49833	0.03465
1643.21256	0.03482
1641.92679	0.03485
1640.64102	0.03474
1639.35525	0.03449
1638.06949	0.03411
1636.78372	0.03368
1635.49795	0.03339
1634.21218	0.03336
1632.92641	0.03347
1631.64064	0.03350
1630.35487	0.03337
1629.06910	0.03313
1627.78333	0.03287
1626.49757	0.03262
1625.21180	0.03233
1623.92603	0.03205
1622.64026	0.03186
1621.35449	0.03174
1620.06872	0.03159
1618.78295	0.03129
1617.49718	0.03094
1616.21142	0.03072
1614.92565	0.03069
1613.63988	0.03074
1612.35411	0.03075
1611.06834	0.03072
1609.78257	0.03065
1608.49680	0.03058
1607.21103	0.03052
1605.92526	0.03046
1604.63950	0.03042
1603.35373	0.03043
1602.06796	0.03052
1600.78219	0.03068
1599.49642	0.03086
1598.21065	0.03101
1596.92488	0.03112
1595.63911	0.03123
1594.35335	0.03135
1593.06758	0.03145
1591.78181	0.03154
1590.49604	0.03167
1589.21027	0.03187
1587.92450	0.03211
1586.63873	0.03239
1585.35296	0.03267
1584.06719	0.03297
1582.78143	0.03331
1581.49566	0.03365
1580.20989	0.03392
1578.92412	0.03405
1577.63835	0.03408
1576.35258	0.03421
1575.06681	0.03460
1573.78104	0.03515
1572.49528	0.03560
1571.20951	0.03591
1569.92374	0.03617
1568.63797	0.03652
1567.35220	0.03690
1566.06643	0.03724
1564.78066	0.03751
1563.49489	0.03769
1562.20912	0.03769
1560.92336	0.03757
1559.63759	0.03756
1558.35182	0.03789
1557.06605	0.03847
1555.78028	0.03906
1554.49451	0.03954
1553.20874	0.03999
1551.92297	0.04038
1550.63721	0.04067
1549.35144	0.04083
1548.06567	0.04090
1546.77990	0.04088
1545.49413	0.04081
1544.20836	0.04068
1542.92259	0.04050
1541.63682	0.04029
1540.35105	0.04017
1539.06529	0.04033
1537.77952	0.04074
1536.49375	0.04116
1535.20798	0.04143
1533.92221	0.04164
1532.63644	0.04196
1531.35067	0.04239
1530.06490	0.04282
1528.77914	0.04319
1527.49337	0.04354
1526.20760	0.04392
1524.92183	0.04437
1523.63606	0.04486
1522.35029	0.04544
1521.06452	0.04620
1519.77875	0.04714
1518.49298	0.04814
1517.20722	0.04910
1515.92145	0.05006
1514.63568	0.05105
1513.34991	0.05206
1512.06414	0.05309
1510.77837	0.05411
1509.49260	0.05508
1508.20683	0.05598
1506.92107	0.05697
1505.63530	0.05818
1504.34953	0.05954
1503.06376	0.06079
1501.77799	0.06179
1500.49222	0.06260
1499.20645	0.06332
1497.92068	0.06401
1496.63491	0.06475
1495.34915	0.06555
1494.06338	0.06635
1492.77761	0.06706
1491.49184	0.06770
1490.20607	0.06837
1488.92030	0.06917
1487.63453	0.07014
1486.34876	0.07124
1485.06299	0.07243
1483.77723	0.07363
1482.49146	0.07482
1481.20569	0.07598
1479.91992	0.07709
1478.63415	0.07813
1477.34838	0.07910
1476.06261	0.08000
1474.77684	0.08082
1473.49108	0.08158
1472.20531	0.08233
1470.91954	0.08309
1469.63377	0.08378
1468.34800	0.08430
1467.06223	0.08466
1465.77646	0.08495
1464.49069	0.08524
1463.20492	0.08551
1461.91916	0.08571
1460.63339	0.08580
1459.34762	0.08584
1458.06185	0.08596
1456.77608	0.08635
1455.49031	0.08703
1454.20454	0.08784
1452.91877	0.08854
1451.63301	0.08903
1450.34724	0.08934
1449.06147	0.08953
1447.77570	0.08968
1446.48993	0.08981
1445.20416	0.08985
1443.91839	0.08972
1442.63262	0.08947
1441.34685	0.08916
1440.06109	0.08884
1438.77532	0.08851
1437.48955	0.08823
1436.20378	0.08813
1434.91801	0.08827
1433.63224	0.08861
1432.34647	0.08909
1431.06070	0.08974
1429.77494	0.09057
1428.48917	0.09157
1427.20340	0.09267
1425.91763	0.09382
1424.63186	0.09499
1423.34609	0.09616
1422.06032	0.09733
1420.77455	0.09845
1419.48878	0.09954
1418.20302	0.10059
1416.91725	0.10151
1415.63148	0.10223
1414.34571	0.10273
1413.05994	0.10306
1411.77417	0.10325
1410.48840	0.10326
1409.20263	0.10306
1407.91687	0.10262
1406.63110	0.10194
1405.34533	0.10106
1404.05956	0.10003
1402.77379	0.09881
1401.48802	0.09737
1400.20225	0.09572
1398.91648	0.09397
1397.63071	0.09220
1396.34495	0.09039
1395.05918	0.08854
1393.77341	0.08666
1392.48764	0.08482
1391.20187	0.08302
1389.91610	0.08124
1388.63033	0.07946
1387.34456	0.07770
1386.05880	0.07590
1384.77303	0.07405
1383.48726	0.07217
1382.20149	0.07032
1380.91572	0.06853
1379.62995	0.06677
1378.34418	0.06498
1377.05841	0.06309
1375.77264	0.06111
1374.48688	0.05908
1373.20111	0.05708
1371.91534	0.05518
1370.62957	0.05339
1369.34380	0.05167
1368.05803	0.05004
1366.77226	0.04850
1365.48649	0.04704
1364.20073	0.04562
1362.91496	0.04425
1361.62919	0.04297
1360.34342	0.04179
1359.05765	0.04069
1357.77188	0.03965
1356.48611	0.03869
1355.20034	0.03783
1353.91457	0.03704
1352.62881	0.03628
1351.34304	0.03551
1350.05727	0.03477
1348.77150	0.03407
1347.48573	0.03341
1346.19996	0.03280
1344.91419	0.03223
1343.62842	0.03172
1342.34266	0.03123
1341.05689	0.03077
1339.77112	0.03033
1338.48535	0.02995
1337.19958	0.02961
1335.91381	0.02928
1334.62804	0.02895
1333.34227	0.02862
1332.05650	0.02829
1330.77074	0.02797
1329.48497	0.02762
1328.19920	0.02727
1326.91343	0.02692
1325.62766	0.02662
1324.34189	0.02637
1323.05612	0.02616
1321.77035	0.02593
1320.48459	0.02567
1319.19882	0.02541
1317.91305	0.02518
1316.62728	0.02498
1315.34151	0.02481
1314.05574	0.02464
1312.76997	0.02448
1311.48420	0.02432
1310.19843	0.02413
1308.91267	0.02390
1307.62690	0.02364
1306.34113	0.02336
1305.05536	0.02310
1303.76959	0.02288
1302.48382	0.02273
1301.19805	0.02262
1299.91228	0.02252
1298.62652	0.02240
1297.34075	0.02223
1296.05498	0.02204
1294.76921	0.02187
1293.48344	0.02173
1292.19767	0.02162
1290.91190	0.02154
1289.62613	0.02146
1288.34036	0.02136
1287.05460	0.02123
1285.76883	0.02108
1284.48306	0.02094
1283.19729	0.02083
1281.91152	0.02076
1280.62575	0.02072
1279.33998	0.02066
1278.05421	0.02055
1276.76845	0.02040
1275.48268	0.02026
1274.19691	0.02014
1272.91114	0.02004
1271.62537	0.01993
1270.33960	0.01979
1269.05383	0.01964
1267.76806	0.01950
1266.48229	0.01940
1265.19653	0.01934
1263.91076	0.01930
1262.62499	0.01922
1261.33922	0.01910
1260.05345	0.01896
1258.76768	0.01884
1257.48191	0.01878
1256.19614	0.01874
1254.91037	0.01867
1253.62461	0.01855
1252.33884	0.01839
1251.05307	0.01826
1249.76730	0.01817
1248.48153	0.01814
1247.19576	0.01815
1245.90999	0.01817
1244.62422	0.01814
1243.33846	0.01807
1242.05269	0.01798
1240.76692	0.01789
1239.48115	0.01777
1238.19538	0.01761
1236.90961	0.01745
1235.62384	0.01733
1234.33807	0.01728
1233.05230	0.01726
1231.76654	0.01719
1230.48077	0.01705
1229.19500	0.01689
1227.90923	0.01675
1226.62346	0.01668
1225.33769	0.01666
1224.05192	0.01663
1222.76615	0.01655
1221.48039	0.01643
1220.19462	0.01631
1218.90885	0.01619
1217.62308	0.01605
1216.33731	0.01591
1215.05154	0.01580
1213.76577	0.01575
1212.48000	0.01571
1211.19423	0.01566
1209.90847	0.01558
1208.62270	0.01549
1207.33693	0.01538
1206.05116	0.01526
1204.76539	0.01517
1203.47962	0.01511
1202.19385	0.01508
1200.90808	0.01515
1199.62232	0.01533
1198.33655	0.01525
1197.05078	0.01516
1195.76501	0.01509
1194.47924	0.01505
1193.19347	0.01500
1191.90770	0.01492
1190.62193	0.01483
1189.33616	0.01474
1188.05040	0.01465
1186.76463	0.01459
1185.47886	0.01459
1184.19309	0.01466
1182.90732	0.01474
1181.62155	0.01479
1180.33578	0.01479
1179.05001	0.01477
1177.76425	0.01475
1176.47848	0.01474
1175.19271	0.01473
1173.90694	0.01474
1172.62117	0.01479
1171.33540	0.01485
1170.04963	0.01491
1168.76386	0.01496
1167.47809	0.01502
1166.19233	0.01511
1164.90656	0.01522
1163.62079	0.01535
1162.33502	0.01547
1161.04925	0.01556
1159.76348	0.01562
1158.47771	0.01568
1157.19194	0.01577
1155.90618	0.01592
1154.62041	0.01613
1153.33464	0.01638
1152.04887	0.01666
1150.76310	0.01697
1149.47733	0.01729
1148.19156	0.01763
1146.90579	0.01800
1145.62002	0.01842
1144.33426	0.01893
1143.04849	0.01953
1141.76272	0.02021
1140.47695	0.02099
1139.19118	0.02184
1137.90541	0.02278
1136.61964	0.02381
1135.33387	0.02494
1134.04811	0.02616
1132.76234	0.02748
1131.47657	0.02893
1130.19080	0.03057
1128.90503	0.03244
1127.61926	0.03451
1126.33349	0.03677
1125.04772	0.03920
1123.76195	0.04182
1122.47619	0.04464
1121.19042	0.04763
1119.90465	0.05072
1118.61888	0.05384
1117.33311	0.05694
1116.04734	0.06002
1114.76157	0.06314
1113.47580	0.06630
1112.19004	0.06947
1110.90427	0.07256
1109.61850	0.07551
1108.33273	0.07830
1107.04696	0.08096
1105.76119	0.08356
1104.47542	0.08614
1103.18965	0.08875
1101.90388	0.09139
1100.61812	0.09403
1099.33235	0.09662
1098.04658	0.09909
1096.76081	0.10147
1095.47504	0.10375
1094.18927	0.10589
1092.90350	0.10785
1091.61773	0.10962
1090.33197	0.11130
1089.04620	0.11294
1087.76043	0.11456
1086.47466	0.11615
1085.18889	0.11769
1083.90312	0.11929
1082.61735	0.12101
1081.33158	0.12289
1080.04581	0.12490
1078.76005	0.12704
1077.47428	0.12930
1076.18851	0.13165
1074.90274	0.13408
1073.61697	0.13661
1072.33120	0.13932
1071.04543	0.14221
1069.75966	0.14524
1068.47390	0.14833
1067.18813	0.15146
1065.90236	0.15465
1064.61659	0.15784
1063.33082	0.16102
1062.04505	0.16416
1060.75928	0.16726
1059.47351	0.17031
1058.18774	0.17328
1056.90198	0.17617
1055.61621	0.17899
1054.33044	0.18175
1053.04467	0.18445
1051.75890	0.18715
1050.47313	0.18992
1049.18736	0.19282
1047.90159	0.19580
1046.61583	0.19883
1045.33006	0.20190
1044.04429	0.20505
1042.75852	0.20825
1041.47275	0.21144
1040.18698	0.21457
1038.90121	0.21763
1037.61544	0.22066
1036.32967	0.22368
1035.04391	0.22666
1033.75814	0.22953
1032.47237	0.23223
1031.18660	0.23470
1029.90083	0.23689
1028.61506	0.23877
1027.32929	0.24035
1026.04352	0.24166
1024.75775	0.24268
1023.47199	0.24342
1022.18622	0.24385
1020.90045	0.24391
1019.61468	0.24352
1018.32891	0.24262
1017.04314	0.24125
1015.75737	0.23947
1014.47160	0.23730
1013.18584	0.23468
1011.90007	0.23158
1010.61430	0.22802
1009.32853	0.22406
1008.04276	0.21972
1006.75699	0.21498
1005.47122	0.20986
1004.18545	0.20441
1002.89968	0.19872
1001.61392	0.19282
1000.32815	0.18672
999.04238	0.18045
997.75661	0.17405
996.47084	0.16757
995.18507	0.16106
993.89930	0.15458
992.61353	0.14821
991.32777	0.14202
990.04200	0.13604
988.75623	0.13030
987.47046	0.12480
986.18469	0.11957
984.89892	0.11465
983.61315	0.11007
982.32738	0.10582
981.04161	0.10183
979.75585	0.09807
978.47008	0.09456
977.18431	0.09137
975.89854	0.08852
974.61277	0.08606
973.32700	0.08402
972.04123	0.08244
970.75546	0.08137
969.46970	0.08085
968.18393	0.08090
966.89816	0.08147
965.61239	0.08245
964.32662	0.08360
963.04085	0.08465
961.75508	0.08538
960.46931	0.08565
959.18354	0.08534
957.89778	0.08440
956.61201	0.08287
955.32624	0.08085
954.04047	0.07856
952.75470	0.07621
951.46893	0.07393
950.18316	0.07175
948.89739	0.06966
947.61163	0.06766
946.32586	0.06574
945.04009	0.06384
943.75432	0.06194
942.46855	0.06006
941.18278	0.05824
939.89701	0.05656
938.61124	0.05502
937.32547	0.05365
936.03971	0.05244
934.75394	0.05136
933.46817	0.05037
932.18240	0.04942
930.89663	0.04850
929.61086	0.04760
928.32509	0.04672
927.03932	0.04586
925.75356	0.04504
924.46779	0.04429
923.18202	0.04362
921.89625	0.04304
920.61048	0.04256
919.32471	0.04212
918.03894	0.04163
916.75317	0.04102
915.46740	0.04038
914.18164	0.03980
912.89587	0.03931
911.61010	0.03894
910.32433	0.03867
909.03856	0.03843
907.75279	0.03813
906.46702	0.03772
905.18125	0.03725
903.89549	0.03681
902.60972	0.03642
901.32395	0.03607
900.03818	0.03575
898.75241	0.03550
897.46664	0.03539
896.18087	0.03537
894.89510	0.03535
893.60933	0.03526
892.32357	0.03516
891.03780	0.03516
889.75203	0.03537
888.46626	0.03588
887.18049	0.03670
885.89472	0.03789
884.60895	0.03961
883.32318	0.04201
882.03742	0.04499
880.75165	0.04815
879.46588	0.05096
878.18011	0.05316
876.89434	0.05489
875.60857	0.05646
874.32280	0.05803
873.03703	0.05936
871.75126	0.06006
870.46550	0.05981
869.17973	0.05863
867.89396	0.05674
866.60819	0.05440
865.32242	0.05179
864.03665	0.04908
862.75088	0.04648
861.46511	0.04417
860.17935	0.04223
858.89358	0.04058
857.60781	0.03918
856.32204	0.03803
855.03627	0.03718
853.75050	0.03658
852.46473	0.03611
851.17896	0.03564
849.89319	0.03513
848.60743	0.03460
847.32166	0.03411
846.03589	0.03366
844.75012	0.03325
843.46435	0.03290
842.17858	0.03263
840.89281	0.03242
839.60704	0.03219
838.32128	0.03190
837.03551	0.03154
835.74974	0.03120
834.46397	0.03092
833.17820	0.03072
831.89243	0.03054
830.60666	0.03034
829.32089	0.03015
828.03512	0.02999
826.74936	0.02991
825.46359	0.02987
824.17782	0.02981
822.89205	0.02967
821.60628	0.02950
820.32051	0.02937
819.03474	0.02928
817.74897	0.02918
816.46321	0.02898
815.17744	0.02875
813.89167	0.02858
812.60590	0.02853
811.32013	0.02855
810.03436	0.02859
808.74859	0.02856
807.46282	0.02842
806.17705	0.02818
804.89129	0.02796
803.60552	0.02785
802.31975	0.02785
801.03398	0.02782
799.74821	0.02772
798.46244	0.02758
797.17667	0.02748
795.89090	0.02747
794.60513	0.02750
793.31937	0.02751
792.03360	0.02747
790.74783	0.02741
789.46206	0.02737
788.17629	0.02737
786.89052	0.02741
785.60475	0.02742
784.31898	0.02737
783.03322	0.02726
781.74745	0.02717
780.46168	0.02716
779.17591	0.02720
777.89014	0.02721
776.60437	0.02717
775.31860	0.02712
774.03283	0.02711
772.74706	0.02708
771.46130	0.02697
770.17553	0.02677
768.88976	0.02661
767.60399	0.02659
766.31822	0.02668
765.03245	0.02676
763.74668	0.02676
762.46091	0.02673
761.17515	0.02674
759.88938	0.02683
758.60361	0.02696
757.31784	0.02711
756.03207	0.02725
754.74630	0.02735
753.46053	0.02736
752.17476	0.02729
750.88899	0.02715
749.60323	0.02698
748.31746	0.02685
747.03169	0.02675
745.74592	0.02666
744.46015	0.02657
743.17438	0.02650
741.88861	0.02649
740.60284	0.02654
739.31708	0.02661
738.03131	0.02666
736.74554	0.02664
735.45977	0.02652
734.17400	0.02632
732.88823	0.02612
731.60246	0.02597
730.31669	0.02587
729.03092	0.02587
727.74516	0.02601
726.45939	0.02624
725.17362	0.02640
723.88785	0.02634
722.60208	0.02623
721.31631	0.02617
720.03054	0.02622
718.74477	0.02634
717.45901	0.02647
716.17324	0.02658
714.88747	0.02668
713.60170	0.02674
712.31593	0.02673
711.03016	0.02664
709.74439	0.02652
708.45862	0.02641
707.17285	0.02634
705.88709	0.02631
704.60132	0.02629
703.31555	0.02629
702.02978	0.02629
700.74401	0.02629
699.45824	0.02631
698.17247	0.02633
696.88670	0.02634
695.60094	0.02634
694.31517	0.02634
693.02940	0.02638
691.74363	0.02646
690.45786	0.02651
689.17209	0.02649
687.88632	0.02641
686.60055	0.02630
685.31478	0.02621
684.02902	0.02615
682.74325	0.02612
681.45748	0.02608
680.17171	0.02601
678.88594	0.02593
677.60017	0.02585
676.31440	0.02577
675.02863	0.02569
673.74287	0.02565
672.45710	0.02569
671.17133	0.02581
669.88556	0.02597
668.59979	0.02614
667.31402	0.02626
666.02825	0.02627
664.74248	0.02618
663.45671	0.02602
662.17095	0.02584
660.88518	0.02568
659.59941	0.02558
658.31364	0.02552
657.02787	0.02548
655.74210	0.02542
654.45633	0.02533
653.17056	0.02521
651.88480	0.02513
650.59903	0.02511
649.31326	0.02517
648.02749	0.02528
646.74172	0.02537
645.45595	0.02544
644.17018	0.02551
642.88441	0.02561
641.59864	0.02576
640.31288	0.02593
639.02711	0.02610
637.74134	0.02627
636.45557	0.02645
635.16980	0.02668
633.88403	0.02699
632.59826	0.02741
631.31249	0.02773
630.02673	0.02706
628.74096	0.02583
627.45519	0.02762
626.16942	0.02614
624.88365	0.02250
623.59788	0.01948
622.31211	0.01851
621.02634	0.02020
619.74057	0.02437
618.45481	0.03015
617.16904	0.03642
615.88327	0.04230
614.59750	0.04747
613.31173	0.05220
612.02596	0.05702
610.74019	0.06209
609.45442	0.06696
608.16866	0.07095
606.88289	0.07386
605.59712	0.07607
604.31135	0.07803
603.02558	0.07991
601.73981	0.08149
600.45404	0.08233
599.16827	0.08210
597.88250	0.08079
596.59674	0.07876
595.31097	0.07643
594.02520	0.07409
592.73943	0.07195
591.45366	0.07024
590.16789	0.06920
588.88212	0.06896
587.59635	0.06947
586.31059	0.07054
585.02482	0.07199
583.73905	0.07375
582.45328	0.07584
581.16751	0.07825
579.88174	0.08090
578.59597	0.08361
577.31020	0.08621
576.02443	0.08865
574.73867	0.09093
573.45290	0.09309
572.16713	0.09515
570.88136	0.09723
569.59559	0.09965
568.30982	0.10268
567.02405	0.10632
565.73828	0.11007
564.45251	0.11322
563.16675	0.11522
561.88098	0.11584
560.59521	0.11505
559.30944	0.11284
558.02367	0.10928
556.73790	0.10460
555.45213	0.09918
554.16636	0.09339
552.88060	0.08752
551.59483	0.08183
550.30906	0.07648
549.02329	0.07159
547.73752	0.06720
546.45175	0.06334
545.16598	0.06001
543.88021	0.05720
542.59444	0.05485
541.30868	0.05283
540.02291	0.05099
538.73714	0.04923
537.45137	0.04752
536.16560	0.04587
534.87983	0.04427
533.59406	0.04276
532.30829	0.04140
531.02253	0.04023
529.73676	0.03926
528.45099	0.03837
527.16522	0.03748
525.87945	0.03660
524.59368	0.03580
523.30791	0.03513
522.02214	0.03455
520.73637	0.03393
519.45061	0.03319
518.16484	0.03232
516.87907	0.03145
515.59330	0.03072
514.30753	0.03015
513.02176	0.02973
511.73599	0.02941
510.45022	0.02918
509.16446	0.02895
507.87869	0.02863
506.59292	0.02816
505.30715	0.02761
504.02138	0.02709
502.73561	0.02669
501.44984	0.02636
500.16407	0.02607
498.87830	0.02577
497.59254	0.02549
496.30677	0.02525
495.02100	0.02502
493.73523	0.02477
492.44946	0.02449
491.16369	0.02424
489.87792	0.02405
488.59215	0.02393
487.30639	0.02386
486.02062	0.02382
484.73485	0.02384
483.44908	0.02391
482.16331	0.02397
480.87754	0.02401
479.59177	0.02406
478.30600	0.02418
477.02023	0.02437
475.73447	0.02460
474.44870	0.02483
473.16293	0.02503
471.87716	0.02520
470.59139	0.02531
469.30562	0.02532
468.01985	0.02520
466.73408	0.02498
465.44832	0.02469
464.16255	0.02439
462.87678	0.02408
461.59101	0.02373
460.30524	0.02336
459.01947	0.02299
457.73370	0.02269
456.44793	0.02245
455.16216	0.02224
453.87640	0.02198
452.59063	0.02167
451.30486	0.02137
450.01909	0.02113
448.73332	0.02098
447.44755	0.02089
446.16178	0.02080
444.87601	0.02068
443.59025	0.02053
442.30448	0.02037
441.01871	0.02021
439.73294	0.02005
438.44717	0.01992
437.16140	0.01986
435.87563	0.01984
434.58986	0.01982
433.30409	0.01976
432.01833	0.01965
430.73256	0.01953
429.44679	0.01941
428.16102	0.01930
426.87525	0.01918
425.58948	0.01906
424.30371	0.01892
423.01794	0.01873
421.73218	0.01847
420.44641	0.01820
419.16064	0.01801
417.87487	0.01792
416.58910	0.01787
415.30333	0.01779
414.01756	0.01768
412.73179	0.01760
411.44602	0.01757
410.16026	0.01757
408.87449	0.01757
407.58872	0.01758
406.30295	0.01765
405.01718	0.01779
403.73141	0.01796
402.44564	0.01810
401.15987	0.01819
399.87411	0.01825
