3997.45528	0.06027
3996.16951	0.05942
3994.88374	0.05892
3993.59798	0.05891
3992.31221	0.05935
3991.02644	0.06000
3989.74067	0.06071
3988.45490	0.06144
3987.16913	0.06209
3985.88336	0.06231
3984.59759	0.06175
3983.31183	0.06050
3982.02606	0.05917
3980.74029	0.05841
3979.45452	0.05837
3978.16875	0.05867
3976.88298	0.05887
3975.59721	0.05884
3974.31144	0.05880
3973.02567	0.05908
3971.73991	0.05971
3970.45414	0.06040
3969.16837	0.06082
3967.88260	0.06087
3966.59683	0.06077
3965.31106	0.06072
3964.02529	0.06073
3962.73952	0.06069
3961.45376	0.06051
3960.16799	0.06013
3958.88222	0.05943
3957.59645	0.05849
3956.31068	0.05774
3955.02491	0.05770
3953.73914	0.05848
3952.45337	0.05951
3951.16760	0.06004
3949.88184	0.05966
3948.59607	0.05865
3947.31030	0.05755
3946.02453	0.05668
3944.73876	0.05603
3943.45299	0.05561
3942.16722	0.05554
3940.88145	0.05578
3939.59569	0.05605
3938.30992	0.05618
3937.02415	0.05619
3935.73838	0.05617
3934.45261	0.05622
3933.16684	0.05642
3931.88107	0.05677
3930.59530	0.05709
3929.30953	0.05721
3928.02377	0.05725
3926.73800	0.05746
3925.45223	0.05791
3924.16646	0.05836
3922.88069	0.05850
3921.59492	0.05817
3920.30915	0.05750
3919.02338	0.05673
3917.73762	0.05608
3916.45185	0.05568
3915.16608	0.05561
3913.88031	0.05591
3912.59454	0.05657
3911.30877	0.05737
3910.02300	0.05803
3908.73723	0.05841
3907.45146	0.05851
3906.16570	0.05837
3904.87993	0.05813
3903.59416	0.05798
3902.30839	0.05799
3901.02262	0.05801
3899.73685	0.05795
3898.45108	0.05783
3897.16531	0.05772
3895.87955	0.05763
3894.59378	0.05754
3893.30801	0.05747
3892.02224	0.05743
3890.73647	0.05744
3889.45070	0.05732
3888.16493	0.05683
3886.87916	0.05615
3885.59339	0.05591
3884.30763	0.05633
3883.02186	0.05690
3881.73609	0.05709
3880.45032	0.05700
3879.16455	0.05697
3877.87878	0.05696
3876.59301	0.05668
3875.30724	0.05622
3874.02148	0.05595
3872.73571	0.05592
3871.44994	0.05586
3870.16417	0.05578
3868.87840	0.05591
3867.59263	0.05607
3866.30686	0.05586
3865.02109	0.05534
3863.73532	0.05492
3862.44956	0.05481
3861.16379	0.05499
3859.87802	0.05529
3858.59225	0.05553
3857.30648	0.05544
3856.02071	0.05490
3854.73494	0.05423
3853.44917	0.05413
3852.16341	0.05477
3850.87764	0.05549
3849.59187	0.05561
3848.30610	0.05510
3847.02033	0.05440
3845.73456	0.05401
3844.44879	0.05412
3843.16302	0.05445
3841.87725	0.05447
3840.59149	0.05379
3839.30572	0.05263
3838.01995	0.05182
3836.73418	0.05205
3835.44841	0.05315
3834.16264	0.05432
3832.87687	0.05491
3831.59110	0.05484
3830.30534	0.05435
3829.01957	0.05374
3827.73380	0.05322
3826.44803	0.05303
3825.16226	0.05331
3823.87649	0.05388
3822.59072	0.05458
3821.30495	0.05551
3820.01918	0.05650
3818.73342	0.05687
3817.44765	0.05625
3816.16188	0.05538
3814.87611	0.05520
3813.59034	0.05566
3812.30457	0.05612
3811.01880	0.05614
3809.73303	0.05553
3808.44726	0.05442
3807.16150	0.05351
3805.87573	0.05347
3804.58996	0.05402
3803.30419	0.05437
3802.01842	0.05424
3800.73265	0.05400
3799.44688	0.05388
3798.16111	0.05381
3796.87535	0.05392
3795.58958	0.05432
3794.30381	0.05478
3793.01804	0.05495
3791.73227	0.05479
3790.44650	0.05449
3789.16073	0.05426
3787.87496	0.05410
3786.58919	0.05382
3785.30343	0.05343
3784.01766	0.05325
3782.73189	0.05359
3781.44612	0.05424
3780.16035	0.05472
3778.87458	0.05478
3777.58881	0.05458
3776.30304	0.05441
3775.01728	0.05432
3773.73151	0.05414
3772.44574	0.05367
3771.15997	0.05298
3769.87420	0.05239
3768.58843	0.05211
3767.30266	0.05203
3766.01689	0.05206
3764.73112	0.05217
3763.44536	0.05231
3762.15959	0.05237
3760.87382	0.05234
3759.58805	0.05225
3758.30228	0.05214
3757.01651	0.05209
3755.73074	0.05209
3754.44497	0.05185
3753.15921	0.05121
3751.87344	0.05044
3750.58767	0.05006
3749.30190	0.05053
3748.01613	0.05155
3746.73036	0.05204
3745.44459	0.05144
3744.15882	0.05063
3742.87305	0.05052
3741.58729	0.05102
3740.30152	0.05156
3739.01575	0.05169
3737.72998	0.05125
3736.44421	0.05065
3735.15844	0.05051
3733.87267	0.05087
3732.58690	0.05136
3731.30114	0.05172
3730.01537	0.05175
3728.72960	0.05121
3727.44383	0.05020
3726.15806	0.04927
3724.87229	0.04898
3723.58652	0.04944
3722.30075	0.05038
3721.01498	0.05131
3719.72922	0.05182
3718.44345	0.05190
3717.15768	0.05191
3715.87191	0.05201
3714.58614	0.05187
3713.30037	0.05118
3712.01460	0.05020
3710.72883	0.04955
3709.44307	0.04971
3708.15730	0.05062
3706.87153	0.05169
3705.58576	0.05217
3704.29999	0.05173
3703.01422	0.05081
3701.72845	0.05012
3700.44268	0.04990
3699.15691	0.04978
3697.87115	0.04941
3696.58538	0.04891
3695.29961	0.04859
3694.01384	0.04862
3692.72807	0.04888
3691.44230	0.04904
3690.15653	0.04877
3688.87076	0.04825
3687.58500	0.04796
3686.29923	0.04809
3685.01346	0.04844
3683.72769	0.04892
3682.44192	0.04960
3681.15615	0.05048
3679.87038	0.05133
3678.58461	0.05163
3677.29884	0.05102
3676.01308	0.05008
3674.72731	0.04980
3673.44154	0.05038
3672.15577	0.05112
3670.87000	0.05170
3669.58423	0.05221
3668.29846	0.05246
3667.01269	0.05210
3665.72693	0.05121
3664.44116	0.05029
3663.15539	0.04973
3661.86962	0.04963
3660.58385	0.04982
3659.29808	0.04995
3658.01231	0.04976
3656.72654	0.04949
3655.44077	0.04975
3654.15501	0.05068
3652.86924	0.05173
3651.58347	0.05230
3650.29770	0.05232
3649.01193	0.05205
3647.72616	0.05178
3646.44039	0.05166
3645.15462	0.05175
3643.86886	0.05198
3642.58309	0.05215
3641.29732	0.05215
3640.01155	0.05200
3638.72578	0.05190
3637.44001	0.05203
3636.15424	0.05239
3634.86847	0.05286
3633.58270	0.05328
3632.29694	0.05332
3631.01117	0.05268
3629.72540	0.05159
3628.43963	0.05073
3627.15386	0.05053
3625.86809	0.05096
3624.58232	0.05186
3623.29655	0.05297
3622.01079	0.05381
3620.72502	0.05419
3619.43925	0.05439
3618.15348	0.05470
3616.86771	0.05490
3615.58194	0.05468
3614.29617	0.05425
3613.01040	0.05419
3611.72463	0.05468
3610.43887	0.05546
3609.15310	0.05626
3607.86733	0.05703
3606.58156	0.05762
3605.29579	0.05783
3604.01002	0.05773
3602.72425	0.05765
3601.43848	0.05782
3600.15272	0.05807
3598.86695	0.05799
3597.58118	0.05736
3596.29541	0.05648
3595.00964	0.05584
3593.72387	0.05572
3592.43810	0.05603
3591.15233	0.05642
3589.86656	0.05666
3588.58080	0.05676
3587.29503	0.05682
3586.00926	0.05690
3584.72349	0.05702
3583.43772	0.05723
3582.15195	0.05755
3580.86618	0.05802
3579.58041	0.05869
3578.29464	0.05960
3577.00888	0.06055
3575.72311	0.06121
3574.43734	0.06150
3573.15157	0.06173
3571.86580	0.06214
3570.58003	0.06258
3569.29426	0.06269
3568.00849	0.06246
3566.72273	0.06217
3565.43696	0.06201
3564.15119	0.06192
3562.86542	0.06189
3561.57965	0.06204
3560.29388	0.06240
3559.00811	0.06279
3557.72234	0.06307
3556.43657	0.06324
3555.15081	0.06331
3553.86504	0.06316
3552.57927	0.06282
3551.29350	0.06258
3550.00773	0.06270
3548.72196	0.06318
3547.43619	0.06386
3546.15042	0.06469
3544.86466	0.06562
3543.57889	0.06650
3542.29312	0.06715
3541.00735	0.06754
3539.72158	0.06779
3538.43581	0.06800
3537.15004	0.06813
3535.86427	0.06812
3534.57850	0.06809
3533.29274	0.06820
3532.00697	0.06843
3530.72120	0.06856
3529.43543	0.06845
3528.14966	0.06822
3526.86389	0.06806
3525.57812	0.06801
3524.29235	0.06800
3523.00659	0.06807
3521.72082	0.06833
3520.43505	0.06878
3519.14928	0.06927
3517.86351	0.06966
3516.57774	0.06987
3515.29197	0.06992
3514.00620	0.06990
3512.72043	0.06992
3511.43467	0.07003
3510.14890	0.07023
3508.86313	0.07046
3507.57736	0.07069
3506.29159	0.07092
3505.00582	0.07117
3503.72005	0.07148
3502.43428	0.07183
3501.14852	0.07220
3499.86275	0.07255
3498.57698	0.07283
3497.29121	0.07305
3496.00544	0.07323
3494.71967	0.07340
3493.43390	0.07348
3492.14813	0.07335
3490.86236	0.07303
3489.57660	0.07271
3488.29083	0.07260
3487.00506	0.07273
3485.71929	0.07296
3484.43352	0.07318
3483.14775	0.07345
3481.86198	0.07380
3480.57621	0.07417
3479.29045	0.07440
3478.00468	0.07445
3476.71891	0.07448
3475.43314	0.07465
3474.14737	0.07494
3472.86160	0.07514
3471.57583	0.07515
3470.29006	0.07517
3469.00429	0.07551
3467.71853	0.07627
3466.43276	0.07710
3465.14699	0.07750
3463.86122	0.07725
3462.57545	0.07666
3461.28968	0.07634
3460.00391	0.07668
3458.71814	0.07741
3457.43238	0.07790
3456.14661	0.07779
3454.86084	0.07737
3453.57507	0.07722
3452.28930	0.07760
3451.00353	0.07822
3449.71776	0.07864
3448.43199	0.07870
3447.14622	0.07864
3445.86046	0.07871
3444.57469	0.07883
3443.28892	0.07885
3442.00315	0.07880
3440.71738	0.07889
3439.43161	0.07928
3438.14584	0.07991
3436.86007	0.08056
3435.57431	0.08104
3434.28854	0.08122
3433.00277	0.08110
3431.71700	0.08075
3430.43123	0.08028
3429.14546	0.07988
3427.85969	0.07972
3426.57392	0.07988
3425.28815	0.08027
3424.00239	0.08075
3422.71662	0.08118
3421.43085	0.08150
3420.14508	0.08167
3418.85931	0.08170
3417.57354	0.08166
3416.28777	0.08165
3415.00200	0.08168
3413.71624	0.08167
3412.43047	0.08154
3411.14470	0.08134
3409.85893	0.08114
3408.57316	0.08105
3407.28739	0.08116
3406.00162	0.08155
3404.71585	0.08221
3403.43008	0.08296
3402.14432	0.08362
3400.85855	0.08412
3399.57278	0.08451
3398.28701	0.08481
3397.00124	0.08491
3395.71547	0.08471
3394.42970	0.08437
3393.14393	0.08416
3391.85817	0.08416
3390.57240	0.08413
3389.28663	0.08383
3388.00086	0.08328
3386.71509	0.08282
3385.42932	0.08278
3384.14355	0.08318
3382.85778	0.08377
3381.57201	0.08427
3380.28625	0.08460
3379.00048	0.08477
3377.71471	0.08476
3376.42894	0.08455
3375.14317	0.08416
3373.85740	0.08375
3372.57163	0.08359
3371.28586	0.08386
3370.00010	0.08446
3368.71433	0.08512
3367.42856	0.08554
3366.14279	0.08575
3364.85702	0.08591
3363.57125	0.08613
3362.28548	0.08634
3360.99971	0.08637
3359.71394	0.08614
3358.42818	0.08575
3357.14241	0.08545
3355.85664	0.08546
3354.57087	0.08583
3353.28510	0.08637
3351.99933	0.08678
3350.71356	0.08684
3349.42779	0.08663
3348.14202	0.08643
3346.85626	0.08647
3345.57049	0.08674
3344.28472	0.08698
3342.99895	0.08698
3341.71318	0.08672
3340.42741	0.08631
3339.14164	0.08586
3337.85587	0.08554
3336.57011	0.08553
3335.28434	0.08586
3333.99857	0.08632
3332.71280	0.08664
3331.42703	0.08681
3330.14126	0.08701
3328.85549	0.08728
3327.56972	0.08741
3326.28395	0.08729
3324.99819	0.08719
3323.71242	0.08740
3322.42665	0.08787
3321.14088	0.08822
3319.85511	0.08820
3318.56934	0.08788
3317.28357	0.08757
3315.99780	0.08747
3314.71204	0.08758
3313.42627	0.08770
3312.14050	0.08767
3310.85473	0.08751
3309.56896	0.08738
3308.28319	0.08738
3306.99742	0.08749
3305.71165	0.08751
3304.42588	0.08728
3303.14012	0.08679
3301.85435	0.08631
3300.56858	0.08612
3299.28281	0.08625
3297.99704	0.08649
3296.71127	0.08665
3295.42550	0.08678
3294.13973	0.08706
3292.85397	0.08753
3291.56820	0.08799
3290.28243	0.08819
3288.99666	0.08813
3287.71089	0.08803
3286.42512	0.08801
3285.13935	0.08793
3283.85358	0.08768
3282.56781	0.08737
3281.28205	0.08727
3279.99628	0.08746
3278.71051	0.08779
3277.42474	0.08806
3276.13897	0.08816
3274.85320	0.08803
3273.56743	0.08771
3272.28166	0.08735
3270.99590	0.08715
3269.71013	0.08721
3268.42436	0.08741
3267.13859	0.08756
3265.85282	0.08748
3264.56705	0.08711
3263.28128	0.08652
3261.99551	0.08593
3260.70974	0.08561
3259.42398	0.08566
3258.13821	0.08592
3256.85244	0.08610
3255.56667	0.08602
3254.28090	0.08572
3252.99513	0.08542
3251.70936	0.08531
3250.42359	0.08539
3249.13783	0.08544
3247.85206	0.08528
3246.56629	0.08499
3245.28052	0.08482
3243.99475	0.08494
3242.70898	0.08521
3241.42321	0.08536
3240.13744	0.08523
3238.85167	0.08494
3237.56591	0.08473
3236.28014	0.08470
3234.99437	0.08473
3233.70860	0.08455
3232.42283	0.08399
3231.13706	0.08324
3229.85129	0.08269
3228.56552	0.08261
3227.27976	0.08282
3225.99399	0.08293
3224.70822	0.08272
3223.42245	0.08236
3222.13668	0.08218
3220.85091	0.08227
3219.56514	0.08242
3218.27937	0.08244
3216.99360	0.08239
3215.70784	0.08240
3214.42207	0.08247
3213.13630	0.08248
3211.85053	0.08231
3210.56476	0.08207
3209.27899	0.08190
3207.99322	0.08189
3206.70745	0.08203
3205.42169	0.08223
3204.13592	0.08237
3202.85015	0.08239
3201.56438	0.08235
3200.27861	0.08239
3198.99284	0.08249
3197.70707	0.08245
3196.42130	0.08212
3195.13553	0.08162
3193.84977	0.08118
3192.56400	0.08088
3191.27823	0.08053
3189.99246	0.08003
3188.70669	0.07956
3187.42092	0.07938
3186.13515	0.07945
3184.84938	0.07955
3183.56362	0.07954
3182.27785	0.07950
3180.99208	0.07957
3179.70631	0.07973
3178.42054	0.07984
3177.13477	0.07968
3175.84900	0.07919
3174.56323	0.07853
3173.27746	0.07801
3171.99170	0.07784
3170.70593	0.07792
3169.42016	0.07804
3168.13439	0.07812
3166.84862	0.07821
3165.56285	0.07834
3164.27708	0.07843
3162.99131	0.07839
3161.70555	0.07824
3160.41978	0.07811
3159.13401	0.07803
3157.84824	0.07786
3156.56247	0.07742
3155.27670	0.07671
3153.99093	0.07599
3152.70516	0.07555
3151.41939	0.07553
3150.13363	0.07576
3148.84786	0.07588
3147.56209	0.07568
3146.27632	0.07526
3144.99055	0.07493
3143.70478	0.07490
3142.41901	0.07508
3141.13324	0.07522
3139.84748	0.07512
3138.56171	0.07485
3137.27594	0.07458
3135.99017	0.07446
3134.70440	0.07448
3133.41863	0.07459
3132.13286	0.07471
3130.84709	0.07475
3129.56132	0.07469
3128.27556	0.07463
3126.98979	0.07465
3125.70402	0.07475
3124.41825	0.07477
3123.13248	0.07462
3121.84671	0.07436
3120.56094	0.07412
3119.27517	0.07399
3117.98940	0.07406
3116.70364	0.07429
3115.41787	0.07451
3114.13210	0.07447
3112.84633	0.07411
3111.56056	0.07356
3110.27479	0.07299
3108.98902	0.07249
3107.70325	0.07214
3106.41749	0.07208
3105.13172	0.07237
3103.84595	0.07285
3102.56018	0.07324
3101.27441	0.07335
3099.98864	0.07325
3098.70287	0.07313
3097.41710	0.07308
3096.13133	0.07302
3094.84557	0.07288
3093.55980	0.07261
3092.27403	0.07230
3090.98826	0.07207
3089.70249	0.07197
3088.41672	0.07196
3087.13095	0.07192
3085.84518	0.07178
3084.55942	0.07159
3083.27365	0.07149
3081.98788	0.07164
3080.70211	0.07205
3079.41634	0.07258
3078.13057	0.07306
3076.84480	0.07334
3075.55903	0.07341
3074.27326	0.07325
3072.98750	0.07288
3071.70173	0.07235
3070.41596	0.07182
3069.13019	0.07145
3067.84442	0.07128
3066.55865	0.07114
3065.27288	0.07084
3063.98711	0.07038
3062.70135	0.06995
3061.41558	0.06977
3060.12981	0.06984
3058.84404	0.06999
3057.55827	0.07007
3056.27250	0.07007
3054.98673	0.07009
3053.70096	0.07016
3052.41519	0.07020
3051.12943	0.07015
3049.84366	0.07000
3048.55789	0.06982
3047.27212	0.06965
3045.98635	0.06957
3044.70058	0.06960
3043.41481	0.06969
3042.12904	0.06968
3040.84328	0.06947
3039.55751	0.06910
3038.27174	0.06873
3036.98597	0.06842
3035.70020	0.06807
3034.41443	0.06770
3033.12866	0.06752
3031.84289	0.06767
3030.55712	0.06806
3029.27136	0.06834
3027.98559	0.06821
3026.69982	0.06768
3025.41405	0.06697
3024.12828	0.06637
3022.84251	0.06608
3021.55674	0.06615
3020.27097	0.06650
3018.98521	0.06696
3017.69944	0.06729
3016.41367	0.06732
3015.12790	0.06703
3013.84213	0.06660
3012.55636	0.06628
3011.27059	0.06615
3009.98482	0.06610
3008.69905	0.06593
3007.41329	0.06555
3006.12752	0.06503
3004.84175	0.06453
3003.55598	0.06420
3002.27021	0.06411
3000.98444	0.06424
2999.69867	0.06452
2998.41290	0.06492
2997.12714	0.06525
2995.84137	0.06538
2994.55560	0.06529
2993.26983	0.06519
2991.98406	0.06522
2990.69829	0.06539
2989.41252	0.06557
2988.12675	0.06563
2986.84098	0.06550
2985.55522	0.06527
2984.26945	0.06521
2982.98368	0.06554
2981.69791	0.06620
2980.41214	0.06682
2979.12637	0.06706
2977.84060	0.06696
2976.55483	0.06686
2975.26907	0.06714
2973.98330	0.06789
2972.69753	0.06887
2971.41176	0.06970
2970.12599	0.07018
2968.84022	0.07041
2967.55445	0.07070
2966.26868	0.07128
2964.98291	0.07208
2963.69715	0.07283
2962.41138	0.07334
2961.12561	0.07375
2959.83984	0.07434
2958.55407	0.07517
2957.26830	0.07602
2955.98253	0.07660
2954.69676	0.07690
2953.41100	0.07718
2952.12523	0.07765
2950.83946	0.07822
2949.55369	0.07856
2948.26792	0.07851
2946.98215	0.07822
2945.69638	0.07800
2944.41061	0.07798
2943.12484	0.07808
2941.83908	0.07810
2940.55331	0.07796
2939.26754	0.07774
2937.98177	0.07768
2936.69600	0.07799
2935.41023	0.07865
2934.12446	0.07952
2932.83869	0.08043
2931.55293	0.08123
2930.26716	0.08179
2928.98139	0.08207
2927.69562	0.08220
2926.40985	0.08234
2925.12408	0.08253
2923.83831	0.08267
2922.55254	0.08261
2921.26677	0.08231
2919.98101	0.08183
2918.69524	0.08128
2917.40947	0.08083
2916.12370	0.08052
2914.83793	0.08028
2913.55216	0.07998
2912.26639	0.07954
2910.98062	0.07898
2909.69486	0.07835
2908.40909	0.07777
2907.12332	0.07732
2905.83755	0.07704
2904.55178	0.07684
2903.26601	0.07654
2901.98024	0.07598
2900.69447	0.07526
2899.40870	0.07467
2898.12294	0.07438
2896.83717	0.07430
2895.55140	0.07417
2894.26563	0.07395
2892.97986	0.07370
2891.69409	0.07347
2890.40832	0.07328
2889.12255	0.07311
2887.83678	0.07290
2886.55102	0.07254
2885.26525	0.07206
2883.97948	0.07163
2882.69371	0.07135
2881.40794	0.07118
2880.12217	0.07103
2878.83640	0.07090
2877.55063	0.07085
2876.26487	0.07093
2874.97910	0.07120
2873.69333	0.07168
2872.40756	0.07222
2871.12179	0.07259
2869.83602	0.07260
2868.55025	0.07223
2867.26448	0.07167
2865.97871	0.07120
2864.69295	0.07104
2863.40718	0.07117
2862.12141	0.07140
2860.83564	0.07146
2859.54987	0.07123
2858.26410	0.07084
2856.97833	0.07059
2855.69256	0.07070
2854.40680	0.07111
2853.12103	0.07151
2851.83526	0.07163
2850.54949	0.07132
2849.26372	0.07065
2847.97795	0.06978
2846.69218	0.06890
2845.40641	0.06813
2844.12064	0.06754
2842.83488	0.06710
2841.54911	0.06674
2840.26334	0.06636
2838.97757	0.06589
2837.69180	0.06534
2836.40603	0.06473
2835.12026	0.06412
2833.83449	0.06350
2832.54873	0.06285
2831.26296	0.06220
2829.97719	0.06168
2828.69142	0.06131
2827.40565	0.06101
2826.11988	0.06072
2824.83411	0.06049
2823.54834	0.06035
2822.26257	0.06017
2820.97681	0.05981
2819.69104	0.05929
2818.40527	0.05883
2817.11950	0.05861
2815.83373	0.05862
2814.54796	0.05866
2813.26219	0.05858
2811.97642	0.05839
2810.69066	0.05821
2809.40489	0.05814
2808.11912	0.05821
2806.83335	0.05835
2805.54758	0.05838
2804.26181	0.05812
2802.97604	0.05759
2801.69027	0.05700
2800.40450	0.05659
2799.11874	0.05644
2797.83297	0.05646
2796.54720	0.05652
2795.26143	0.05655
2793.97566	0.05652
2792.68989	0.05641
2791.40412	0.05620
2790.11835	0.05592
2788.83259	0.05566
2787.54682	0.05545
2786.26105	0.05534
2784.97528	0.05531
2783.68951	0.05532
2782.40374	0.05527
2781.11797	0.05508
2779.83220	0.05479
2778.54643	0.05455
2777.26067	0.05450
2775.97490	0.05462
2774.68913	0.05476
2773.40336	0.05476
2772.11759	0.05453
2770.83182	0.05411
2769.54605	0.05371
2768.26028	0.05352
2766.97452	0.05360
2765.68875	0.05382
2764.40298	0.05400
2763.11721	0.05406
2761.83144	0.05400
2760.54567	0.05389
2759.25990	0.05377
2757.97413	0.05367
2756.68836	0.05358
2755.40260	0.05347
2754.11683	0.05331
2752.83106	0.05312
2751.54529	0.05295
2750.25952	0.05284
2748.97375	0.05281
2747.68798	0.05282
2746.40221	0.05283
2745.11645	0.05282
2743.83068	0.05277
2742.54491	0.05274
2741.25914	0.05273
2739.97337	0.05276
2738.68760	0.05275
2737.40183	0.05262
2736.11606	0.05240
2734.83029	0.05217
2733.54453	0.05197
2732.25876	0.05182
2730.97299	0.05174
2729.68722	0.05176
2728.40145	0.05182
2727.11568	0.05179
2725.82991	0.05164
2724.54414	0.05146
2723.25838	0.05137
2721.97261	0.05138
2720.68684	0.05139
2719.40107	0.05129
2718.11530	0.05106
2716.82953	0.05083
2715.54376	0.05071
2714.25799	0.05078
2712.97222	0.05094
2711.68646	0.05106
2710.40069	0.05107
2709.11492	0.05098
2707.82915	0.05087
2706.54338	0.05077
2705.25761	0.05069
2703.97184	0.05056
2702.68607	0.05039
2701.40031	0.05023
2700.11454	0.05018
2698.82877	0.05019
2697.54300	0.05015
2696.25723	0.05001
2694.97146	0.04986
2693.68569	0.04980
2692.39992	0.04979
2691.11415	0.04972
2689.82839	0.04962
2688.54262	0.04956
2687.25685	0.04960
2685.97108	0.04965
2684.68531	0.04963
2683.39954	0.04954
2682.11377	0.04943
2680.82800	0.04935
2679.54224	0.04928
2678.25647	0.04917
2676.97070	0.04903
2675.68493	0.04891
2674.39916	0.04890
2673.11339	0.04898
2671.82762	0.04904
2670.54185	0.04901
2669.25608	0.04889
2667.97032	0.04879
2666.68455	0.04879
2665.39878	0.04890
2664.11301	0.04908
2662.82724	0.04925
2661.54147	0.04939
2660.25570	0.04948
2658.96993	0.04948
2657.68417	0.04937
2656.39840	0.04914
2655.11263	0.04888
2653.82686	0.04871
2652.54109	0.04867
2651.25532	0.04869
2649.96955	0.04865
2648.68378	0.04856
2647.39801	0.04848
2646.11225	0.04843
2644.82648	0.04834
2643.54071	0.04815
2642.25494	0.04785
2640.96917	0.04747
2639.68340	0.04705
2638.39763	0.04665
2637.11186	0.04637
2635.82609	0.04630
2634.54033	0.04640
2633.25456	0.04650
2631.96879	0.04643
2630.68302	0.04617
2629.39725	0.04583
2628.11148	0.04553
2626.82571	0.04530
2625.53994	0.04511
2624.25418	0.04496
2622.96841	0.04487
2621.68264	0.04480
2620.39687	0.04462
2619.11110	0.04426
2617.82533	0.04382
2616.53956	0.04356
2615.25379	0.04365
2613.96802	0.04397
2612.68226	0.04425
2611.39649	0.04429
2610.11072	0.04418
2608.82495	0.04407
2607.53918	0.04395
2606.25341	0.04368
2604.96764	0.04319
2603.68187	0.04265
2602.39611	0.04229
2601.11034	0.04222
2599.82457	0.04234
2598.53880	0.04249
2597.25303	0.04257
2595.96726	0.04256
2594.68149	0.04243
2593.39572	0.04215
2592.10995	0.04184
2590.82419	0.04170
2589.53842	0.04183
2588.25265	0.04198
2586.96688	0.04189
2585.68111	0.04156
2584.39534	0.04117
2583.10957	0.04082
2581.82380	0.04053
2580.53804	0.04029
2579.25227	0.04011
2577.96650	0.04006
2576.68073	0.04023
2575.39496	0.04062
2574.10919	0.04100
2572.82342	0.04108
2571.53765	0.04082
2570.25188	0.04052
2568.96612	0.04044
2567.68035	0.04049
2566.39458	0.04041
2565.10881	0.04011
2563.82304	0.03975
2562.53727	0.03953
2561.25150	0.03948
2559.96573	0.03942
2558.67997	0.03922
2557.39420	0.03891
2556.10843	0.03861
2554.82266	0.03840
2553.53689	0.03828
2552.25112	0.03826
2550.96535	0.03833
2549.67958	0.03846
2548.39381	0.03860
2547.10805	0.03866
2545.82228	0.03866
2544.53651	0.03863
2543.25074	0.03856
2541.96497	0.03841
2540.67920	0.03826
2539.39343	0.03821
2538.10766	0.03822
2536.82190	0.03808
2535.53613	0.03765
2534.25036	0.03710
2532.96459	0.03671
2531.67882	0.03662
2530.39305	0.03682
2529.10728	0.03721
2527.82151	0.03762
2526.53574	0.03788
2525.24998	0.03786
2523.96421	0.03763
2522.67844	0.03739
2521.39267	0.03729
2520.10690	0.03728
2518.82113	0.03724
2517.53536	0.03711
2516.24959	0.03692
2514.96383	0.03674
2513.67806	0.03665
2512.39229	0.03665
2511.10652	0.03671
2509.82075	0.03671
2508.53498	0.03658
2507.24921	0.03637
2505.96344	0.03617
2504.67767	0.03606
2503.39191	0.03605
2502.10614	0.03609
2500.82037	0.03613
2499.53460	0.03617
2498.24883	0.03624
2496.96306	0.03634
2495.67729	0.03640
2494.39152	0.03638
2493.10576	0.03635
2491.81999	0.03634
2490.53422	0.03632
2489.24845	0.03619
2487.96268	0.03592
2486.67691	0.03562
2485.39114	0.03546
2484.10537	0.03555
2482.81960	0.03584
2481.53384	0.03615
2480.24807	0.03633
2478.96230	0.03630
2477.67653	0.03613
2476.39076	0.03593
2475.10499	0.03578
2473.81922	0.03566
2472.53345	0.03546
2471.24769	0.03519
2469.96192	0.03498
2468.67615	0.03499
2467.39038	0.03517
2466.10461	0.03533
2464.81884	0.03537
2463.53307	0.03539
2462.24730	0.03554
2460.96153	0.03578
2459.67577	0.03593
2458.39000	0.03590
2457.10423	0.03574
2455.81846	0.03564
2454.53269	0.03573
2453.24692	0.03596
2451.96115	0.03611
2450.67538	0.03602
2449.38962	0.03577
2448.10385	0.03552
2446.81808	0.03529
2445.53231	0.03501
2444.24654	0.03466
2442.96077	0.03433
2441.67500	0.03413
2440.38923	0.03413
2439.10346	0.03430
2437.81770	0.03457
2436.53193	0.03481
2435.24616	0.03494
2433.96039	0.03487
2432.67462	0.03460
2431.38885	0.03419
2430.10308	0.03380
2428.81731	0.03356
2427.53155	0.03348
2426.24578	0.03351
2424.96001	0.03362
2423.67424	0.03373
2422.38847	0.03375
2421.10270	0.03363
2419.81693	0.03344
2418.53116	0.03331
2417.24539	0.03332
2415.95963	0.03349
2414.67386	0.03383
2413.38809	0.03427
2412.10232	0.03457
2410.81655	0.03448
2409.53078	0.03404
2408.24501	0.03355
2406.95924	0.03331
2405.67347	0.03339
2404.38771	0.03363
2403.10194	0.03383
2401.81617	0.03389
2400.53040	0.03380
2399.24463	0.03365
2397.95886	0.03333
2396.67309	0.03306
2395.38732	0.03292
2394.10156	0.03293
2392.81579	0.03302
2391.53002	0.03310
2390.24425	0.03308
2388.95848	0.03300
2387.67271	0.03298
2386.38694	0.03309
2385.10117	0.03331
2383.81540	0.03355
2382.52964	0.03375
2381.24387	0.03393
2379.95810	0.03402
2378.67233	0.03396
2377.38656	0.03370
2376.10079	0.03334
2374.81502	0.03303
2373.52925	0.03289
2372.24349	0.03296
2370.95772	0.03318
2369.67195	0.03349
2368.38618	0.03378
2367.10041	0.03402
2365.81464	0.03423
2364.52887	0.03441
2363.24310	0.03457
2361.95733	0.03468
2360.67157	0.03476
2359.38580	0.03478
2358.10003	0.03477
2356.81426	0.03477
2355.52849	0.03480
2354.24272	0.03482
2352.95695	0.03481
2351.67118	0.03479
2350.38542	0.03477
2349.09965	0.03478
2347.81388	0.03482
2346.52811	0.03490
2345.24234	0.03509
2343.95657	0.03532
2342.67080	0.03547
2341.38503	0.03545
2340.09926	0.03538
2338.81350	0.03538
2337.52773	0.03549
2336.24196	0.03557
2334.95619	0.03549
2333.67042	0.03528
2332.38465	0.03509
2331.09888	0.03504
2329.81311	0.03518
2328.52735	0.03559
2327.24158	0.03630
2325.95581	0.03716
2324.67004	0.03783
2323.38427	0.03801
2322.09850	0.03765
2320.81273	0.03700
2319.52696	0.03630
2318.24119	0.03568
2316.95543	0.03520
2315.66966	0.03492
2314.38389	0.03491
2313.09812	0.03514
2311.81235	0.03545
2310.52658	0.03562
2309.24081	0.03546
2307.95504	0.03498
2306.66928	0.03437
2305.38351	0.03384
2304.09774	0.03345
2302.81197	0.03317
2301.52620	0.03293
2300.24043	0.03272
2298.95466	0.03252
2297.66889	0.03228
2296.38312	0.03203
2295.09736	0.03194
2293.81159	0.03214
2292.52582	0.03260
2291.24005	0.03305
2289.95428	0.03317
2288.66851	0.03285
2287.38274	0.03224
2286.09697	0.03167
2284.81121	0.03141
2283.52544	0.03145
2282.23967	0.03160
2280.95390	0.03170
2279.66813	0.03177
2278.38236	0.03196
2277.09659	0.03218
2275.81082	0.03214
2274.52505	0.03164
2273.23929	0.03083
2271.95352	0.03005
2270.66775	0.02943
2269.38198	0.02893
2268.09621	0.02846
2266.81044	0.02807
2265.52467	0.02775
2264.23890	0.02735
2262.95314	0.02679
2261.66737	0.02629
2260.38160	0.02623
2259.09583	0.02669
2257.81006	0.02727
2256.52429	0.02744
2255.23852	0.02712
2253.95275	0.02666
2252.66698	0.02641
2251.38122	0.02631
2250.09545	0.02620
2248.80968	0.02609
2247.52391	0.02581
2246.23814	0.02579
2244.95237	0.02624
2243.66660	0.02704
2242.38083	0.02768
2241.09507	0.02767
2239.80930	0.02713
2238.52353	0.02666
2237.23776	0.02664
2235.95199	0.02686
2234.66622	0.02680
2233.38045	0.02620
2232.09468	0.02527
2230.80891	0.02430
2229.52315	0.02339
2228.23738	0.02252
2226.95161	0.02186
2225.66584	0.02174
2224.38007	0.02220
2223.09430	0.02273
2221.80853	0.02274
2220.52276	0.02230
2219.23700	0.02193
2217.95123	0.02196
2216.66546	0.02212
2215.37969	0.02199
2214.09392	0.02145
2212.80815	0.02071
2211.52238	0.02024
2210.23661	0.02046
2208.95084	0.02131
2207.66508	0.02199
2206.37931	0.02172
2205.09354	0.02065
2203.80777	0.01987
2202.52200	0.02016
2201.23623	0.02120
2199.95046	0.02206
2198.66469	0.02214
2197.37893	0.02156
2196.09316	0.02067
2194.80739	0.01971
2193.52162	0.01882
2192.23585	0.01813
2190.95008	0.01782
2189.66431	0.01803
2188.37854	0.01867
2187.09277	0.01936
2185.80701	0.01966
2184.52124	0.01945
2183.23547	0.01904
2181.94970	0.01870
2180.66393	0.01831
2179.37816	0.01760
2178.09239	0.01665
2176.80662	0.01587
2175.52085	0.01553
2174.23509	0.01558
2172.94932	0.01585
2171.66355	0.01620
2170.37778	0.01654
2169.09201	0.01674
2167.80624	0.01683
2166.52047	0.01687
2165.23470	0.01681
2163.94894	0.01655
2162.66317	0.01604
2161.37740	0.01524
2160.09163	0.01394
2158.80586	0.01214
2157.52009	0.01041
2156.23432	0.00958
2154.94855	0.00996
2153.66278	0.01104
2152.37702	0.01197
2151.09125	0.01227
2149.80548	0.01220
2148.51971	0.01245
2147.23394	0.01346
2145.94817	0.01508
2144.66240	0.01669
2143.37663	0.01755
2142.09087	0.01733
2140.80510	0.01640
2139.51933	0.01561
2138.23356	0.01550
2136.94779	0.01583
2135.66202	0.01604
2134.37625	0.01591
2133.09048	0.01573
2131.80471	0.01582
2130.51895	0.01614
2129.23318	0.01647
2127.94741	0.01667
2126.66164	0.01685
2125.37587	0.01719
2124.09010	0.01780
2122.80433	0.01860
2121.51856	0.01947
2120.23280	0.02023
2118.94703	0.02069
2117.66126	0.02082
2116.37549	0.02069
2115.08972	0.02036
2113.80395	0.01995
2112.51818	0.01974
2111.23241	0.02001
2109.94664	0.02070
2108.66088	0.02130
2107.37511	0.02129
2106.08934	0.02069
2104.80357	0.01991
2103.51780	0.01939
2102.23203	0.01934
2100.94626	0.01959
2099.66049	0.01915
2098.37473	0.01871
2097.08896	0.01826
2095.80319	0.01791
2094.51742	0.01794
2093.23165	0.01837
2091.94588	0.01893
2090.66011	0.01935
2089.37434	0.01948
2088.08857	0.01934
2086.80281	0.01913
2085.51704	0.01909
2084.23127	0.01942
2082.94550	0.02002
2081.65973	0.02042
2080.37396	0.02018
2079.08819	0.01934
2077.80242	0.01850
2076.51666	0.01819
2075.23089	0.01831
2073.94512	0.01830
2072.65935	0.01786
2071.37358	0.01718
2070.08781	0.01664
2068.80204	0.01628
2067.51627	0.01595
2066.23050	0.01557
2064.94474	0.01526
2063.65897	0.01508
2062.37320	0.01497
2061.08743	0.01484
2059.80166	0.01469
2058.51589	0.01455
2057.23012	0.01440
2055.94435	0.01428
2054.65859	0.01437
2053.37282	0.01467
2052.08705	0.01481
2050.80128	0.01427
2049.51551	0.01313
2048.22974	0.01214
2046.94397	0.01209
2045.65820	0.01295
2044.37243	0.01386
2043.08667	0.01397
2041.80090	0.01316
2040.51513	0.01190
2039.22936	0.01072
2037.94359	0.00982
2036.65782	0.00918
2035.37205	0.00871
2034.08628	0.00830
2032.80052	0.00798
2031.51475	0.00801
2030.22898	0.00867
2028.94321	0.00978
2027.65744	0.01071
2026.37167	0.01090
2025.08590	0.01035
2023.80013	0.00957
2022.51436	0.00916
2021.22860	0.00928
2019.94283	0.00957
2018.65706	0.00954
2017.37129	0.00907
2016.08552	0.00849
2014.79975	0.00820
2013.51398	0.00824
2012.22821	0.00831
2010.94245	0.00799
2009.65668	0.00717
2008.37091	0.00629
2007.08514	0.00615
2005.79937	0.00717
2004.51360	0.00901
2003.22783	0.01089
2001.94206	0.01227
2000.65629	0.01308
1999.37053	0.01352
1998.08476	0.01380
1996.79899	0.01415
1995.51322	0.01470
1994.22745	0.01526
1992.94168	0.01551
1991.65591	0.01535
1990.37014	0.01498
1989.08438	0.01465
1987.79861	0.01446
1986.51284	0.01443
1985.22707	0.01444
1983.94130	0.01428
1982.65553	0.01377
1981.36976	0.01298
1980.08399	0.01211
1978.79822	0.01133
1977.51246	0.01069
1976.22669	0.01019
1974.94092	0.00972
1973.65515	0.00923
1972.36938	0.00886
1971.08361	0.00883
1969.79784	0.00908
1968.51207	0.00929
1967.22631	0.00928
1965.94054	0.00927
1964.65477	0.00958
1963.36900	0.01020
1962.08323	0.01076
1960.79746	0.01101
1959.51169	0.01110
1958.22592	0.01135
1956.94015	0.01176
1955.65439	0.01208
1954.36862	0.01218
1953.08285	0.01235
1951.79708	0.01294
1950.51131	0.01391
1949.22554	0.01490
1947.93977	0.01556
1946.65400	0.01587
1945.36823	0.01597
1944.08247	0.01595
1942.79670	0.01583
1941.51093	0.01564
1940.22516	0.01545
1938.93939	0.01527
1937.65362	0.01512
1936.36785	0.01507
1935.08208	0.01519
1933.79632	0.01550
1932.51055	0.01590
1931.22478	0.01626
1929.93901	0.01653
1928.65324	0.01670
1927.36747	0.01679
1926.08170	0.01682
1924.79593	0.01680
1923.51016	0.01674
1922.22440	0.01669
1920.93863	0.01669
1919.65286	0.01668
1918.36709	0.01667
1917.08132	0.01675
1915.79555	0.01707
1914.50978	0.01759
1913.22401	0.01809
1911.93825	0.01830
1910.65248	0.01819
1909.36671	0.01791
1908.08094	0.01767
1906.79517	0.01752
1905.50940	0.01745
1904.22363	0.01737
1902.93786	0.01724
1901.65209	0.01711
1900.36633	0.01705
1899.08056	0.01714
1897.79479	0.01734
1896.50902	0.01753
1895.22325	0.01761
1893.93748	0.01762
1892.65171	0.01770
1891.36594	0.01793
1890.08018	0.01821
1888.79441	0.01832
1887.50864	0.01817
1886.22287	0.01793
1884.93710	0.01784
1883.65133	0.01797
1882.36556	0.01815
1881.07979	0.01827
1879.79402	0.01831
1878.50826	0.01828
1877.22249	0.01814
1875.93672	0.01790
1874.65095	0.01769
1873.36518	0.01762
1872.07941	0.01766
1870.79364	0.01769
1869.50787	0.01766
1868.22211	0.01769
1866.93634	0.01789
1865.65057	0.01820
1864.36480	0.01841
1863.07903	0.01840
1861.79326	0.01824
1860.50749	0.01811
1859.22172	0.01812
1857.93595	0.01822
1856.65019	0.01838
1855.36442	0.01856
1854.07865	0.01875
1852.79288	0.01887
1851.50711	0.01887
1850.22134	0.01874
1848.93557	0.01858
1847.64980	0.01842
1846.36404	0.01829
1845.07827	0.01829
1843.79250	0.01853
1842.50673	0.01894
1841.22096	0.01925
1839.93519	0.01926
1838.64942	0.01903
1837.36365	0.01875
1836.07788	0.01856
1834.79212	0.01848
1833.50635	0.01849
1832.22058	0.01850
1830.93481	0.01850
1829.64904	0.01856
1828.36327	0.01864
1827.07750	0.01864
1825.79173	0.01851
1824.50597	0.01833
1823.22020	0.01819
1821.93443	0.01805
1820.64866	0.01786
1819.36289	0.01765
1818.07712	0.01752
1816.79135	0.01757
1815.50558	0.01782
1814.21981	0.01819
1812.93405	0.01857
1811.64828	0.01890
1810.36251	0.01917
1809.07674	0.01940
1807.79097	0.01957
1806.50520	0.01968
1805.21943	0.01973
1803.93366	0.01970
1802.64790	0.01961
1801.36213	0.01948
1800.07636	0.01940
1798.79059	0.01941
1797.50482	0.01950
1796.21905	0.01958
1794.93328	0.01955
1793.64751	0.01939
1792.36174	0.01926
1791.07598	0.01929
1789.79021	0.01945
1788.50444	0.01959
1787.21867	0.01967
1785.93290	0.01969
1784.64713	0.01968
1783.36136	0.01962
1782.07559	0.01947
1780.78983	0.01927
1779.50406	0.01913
1778.21829	0.01908
1776.93252	0.01913
1775.64675	0.01919
1774.36098	0.01922
1773.07521	0.01927
1771.78944	0.01943
1770.50367	0.01964
1769.21791	0.01974
1767.93214	0.01976
1766.64637	0.01981
1765.36060	0.01988
1764.07483	0.01987
1762.78906	0.01981
1761.50329	0.01984
1760.21752	0.01994
1758.93176	0.01998
1757.64599	0.01993
1756.36022	0.01995
1755.07445	0.02010
1753.78868	0.02020
1752.50291	0.02015
1751.21714	0.02006
1749.93137	0.02008
1748.64560	0.02020
1747.35984	0.02032
1746.07407	0.02040
1744.78830	0.02043
1743.50253	0.02041
1742.21676	0.02032
1740.93099	0.02024
1739.64522	0.02029
1738.35945	0.02052
1737.07369	0.02070
1735.78792	0.02060
1734.50215	0.02039
1733.21638	0.02041
1731.93061	0.02068
1730.64484	0.02098
1729.35907	0.02120
1728.07330	0.02140
1726.78753	0.02158
1725.50177	0.02170
1724.21600	0.02179
1722.93023	0.02194
1721.64446	0.02219
1720.35869	0.02237
1719.07292	0.02243
1717.78715	0.02253
1716.50138	0.02285
1715.21561	0.02335
1713.92985	0.02384
1712.64408	0.02425
1711.35831	0.02464
1710.07254	0.02505
1708.78677	0.02549
1707.50100	0.02593
1706.21523	0.02641
1704.92946	0.02700
1703.64370	0.02764
1702.35793	0.02813
1701.07216	0.02860
1699.78639	0.02939
1698.50062	0.03041
1697.21485	0.03129
1695.92908	0.03204
1694.64331	0.03303
1693.35754	0.03419
1692.07178	0.03521
1690.78601	0.03607
1689.50024	0.03693
1688.21447	0.03781
1686.92870	0.03847
1685.64293	0.03895
1684.35716	0.03960
1683.07139	0.04065
1681.78563	0.04186
1680.49986	0.04295
1679.21409	0.04389
1677.92832	0.04469
1676.64255	0.04540
1675.35678	0.04616
1674.07101	0.04710
1672.78524	0.04809
1671.49947	0.04894
1670.21371	0.04969
1668.92794	0.05052
1667.64217	0.05149
1666.35640	0.05250
1665.07063	0.05339
1663.78486	0.05416
1662.49909	0.05490
1661.21332	0.05565
1659.92756	0.05641
1658.64179	0.05720
1657.35602	0.05801
1656.07025	0.05860
1654.78448	0.05878
1653.49871	0.05884
1652.21294	0.05928
1650.92717	0.06009
1649.64140	0.06074
1648.35564	0.06096
1647.06987	0.06098
1645.78410	0.06109
1644.49833	0.06131
1643.21256	0.06148
1641.92679	0.06153
1640.64102	0.06151
1639.35525	0.06142
1638.06949	0.06115
1636.78372	0.06067
1635.49795	0.06021
1634.21218	0.05997
1632.92641	0.05982
1631.64064	0.05957
1630.35487	0.05914
1629.06910	0.05862
1627.78333	0.05807
1626.49757	0.05747
1625.21180	0.05674
1623.92603	0.05593
1622.64026	0.05521
1621.35449	0.05464
1620.06872	0.05405
1618.78295	0.05323
1617.49718	0.05227
1616.21142	0.05146
1614.92565	0.05095
1613.63988	0.05056
1612.35411	0.05012
1611.06834	0.04964
1609.78257	0.04918
1608.49680	0.04876
1607.21103	0.04841
1605.92526	0.04811
1604.63950	0.04783
1603.35373	0.04753
1602.06796	0.04722
1600.78219	0.04695
1599.49642	0.04673
1598.21065	0.04657
1596.92488	0.04644
1595.63911	0.04632
1594.35335	0.04622
1593.06758	0.04616
1591.78181	0.04612
1590.49604	0.04612
1589.21027	0.04614
1587.92450	0.04619
1586.63873	0.04627
1585.35296	0.04640
1584.06719	0.04653
1582.78143	0.04667
1581.49566	0.04683
1580.20989	0.04700
1578.92412	0.04710
1577.63835	0.04705
1576.35258	0.04708
1575.06681	0.04742
1573.78104	0.04795
1572.49528	0.04836
1571.20951	0.04856
1569.92374	0.04875
1568.63797	0.04910
1567.35220	0.04954
1566.06643	0.04996
1564.78066	0.05037
1563.49489	0.05079
1562.20912	0.05104
1560.92336	0.05101
1559.63759	0.05094
1558.35182	0.05117
1557.06605	0.05168
1555.78028	0.05208
1554.49451	0.05226
1553.20874	0.05238
1551.92297	0.05252
1550.63721	0.05268
1549.35144	0.05285
1548.06567	0.05302
1546.77990	0.05314
1545.49413	0.05323
1544.20836	0.05331
1542.92259	0.05331
1541.63682	0.05314
1540.35105	0.05290
1539.06529	0.05285
1537.77952	0.05303
1536.49375	0.05320
1535.20798	0.05319
1533.92221	0.05315
1532.63644	0.05325
1531.35067	0.05343
1530.06490	0.05355
1528.77914	0.05357
1527.49337	0.05360
1526.20760	0.05373
1524.92183	0.05392
1523.63606	0.05402
1522.35029	0.05403
1521.06452	0.05415
1519.77875	0.05445
1518.49298	0.05481
1517.20722	0.05514
1515.92145	0.05551
1514.63568	0.05599
1513.34991	0.05651
1512.06414	0.05708
1510.77837	0.05765
1509.49260	0.05806
1508.20683	0.05823
1506.92107	0.05836
1505.63530	0.05877
1504.34953	0.05943
1503.06376	0.06002
1501.77799	0.06039
1500.49222	0.06063
1499.20645	0.06081
1497.92068	0.06096
1496.63491	0.06115
1495.34915	0.06149
1494.06338	0.06192
1492.77761	0.06229
1491.49184	0.06257
1490.20607	0.06286
1488.92030	0.06321
1487.63453	0.06359
1486.34876	0.06400
1485.06299	0.06446
1483.77723	0.06498
1482.49146	0.06554
1481.20569	0.06613
1479.91992	0.06677
1478.63415	0.06744
1477.34838	0.06817
1476.06261	0.06891
1474.77684	0.06962
1473.49108	0.07030
1472.20531	0.07108
1470.91954	0.07203
1469.63377	0.07300
1468.34800	0.07383
1467.06223	0.07447
1465.77646	0.07500
1464.49069	0.07556
1463.20492	0.07624
1461.91916	0.07703
1460.63339	0.07785
1459.34762	0.07860
1458.06185	0.07929
1456.77608	0.08005
1455.49031	0.08088
1454.20454	0.08159
1452.91877	0.08201
1451.63301	0.08222
1450.34724	0.08237
1449.06147	0.08251
1447.77570	0.08264
1446.48993	0.08273
1445.20416	0.08275
1443.91839	0.08267
1442.63262	0.08253
1441.34685	0.08237
1440.06109	0.08215
1438.77532	0.08184
1437.48955	0.08153
1436.20378	0.08142
1434.91801	0.08156
1433.63224	0.08178
1432.34647	0.08199
1431.06070	0.08223
1429.77494	0.08262
1428.48917	0.08317
1427.20340	0.08381
1425.91763	0.08448
1424.63186	0.08516
1423.34609	0.08588
1422.06032	0.08655
1420.77455	0.08711
1419.48878	0.08763
1418.20302	0.08824
1416.91725	0.08888
1415.63148	0.08939
1414.34571	0.08969
1413.05994	0.08976
1411.77417	0.08964
1410.48840	0.08940
1409.20263	0.08910
1407.91687	0.08873
1406.63110	0.08821
1405.34533	0.08751
1404.05956	0.08670
1402.77379	0.08580
1401.48802	0.08477
1400.20225	0.08362
1398.91648	0.08239
1397.63071	0.08112
1396.34495	0.07979
1395.05918	0.07842
1393.77341	0.07705
1392.48764	0.07572
1391.20187	0.07438
1389.91610	0.07302
1388.63033	0.07168
1387.34456	0.07039
1386.05880	0.06916
1384.77303	0.06795
1383.48726	0.06673
1382.20149	0.06552
1380.91572	0.06436
1379.62995	0.06323
1378.34418	0.06209
1377.05841	0.06088
1375.77264	0.05955
1374.48688	0.05815
1373.20111	0.05674
1371.91534	0.05538
1370.62957	0.05407
1369.34380	0.05281
1368.05803	0.05161
1366.77226	0.05047
1365.48649	0.04937
1364.20073	0.04830
1362.91496	0.04730
1361.62919	0.04638
1360.34342	0.04553
1359.05765	0.04472
1357.77188	0.04393
1356.48611	0.04320
1355.20034	0.04256
1353.91457	0.04201
1352.62881	0.04154
1351.34304	0.04109
1350.05727	0.04066
1348.77150	0.04025
1347.48573	0.03988
1346.19996	0.03954
1344.91419	0.03924
1343.62842	0.03895
1342.34266	0.03864
1341.05689	0.03831
1339.77112	0.03796
1338.48535	0.03762
1337.19958	0.03731
1335.91381	0.03704
1334.62804	0.03681
1333.34227	0.03656
1332.05650	0.03629
1330.77074	0.03602
1329.48497	0.03574
1328.19920	0.03546
1326.91343	0.03513
1325.62766	0.03480
1324.34189	0.03450
1323.05612	0.03428
1321.77035	0.03411
1320.48459	0.03396
1319.19882	0.03377
1317.91305	0.03354
1316.62728	0.03329
1315.34151	0.03304
1314.05574	0.03283
1312.76997	0.03266
1311.48420	0.03248
1310.19843	0.03225
1308.91267	0.03195
1307.62690	0.03163
1306.34113	0.03134
1305.05536	0.03109
1303.76959	0.03087
1302.48382	0.03065
1301.19805	0.03045
1299.91228	0.03027
1298.62652	0.03011
1297.34075	0.02995
1296.05498	0.02977
1294.76921	0.02958
1293.48344	0.02940
1292.19767	0.02926
1290.91190	0.02917
1289.62613	0.02911
1288.34036	0.02905
1287.05460	0.02897
1285.76883	0.02890
1284.48306	0.02887
1283.19729	0.02886
1281.91152	0.02885
1280.62575	0.02879
1279.33998	0.02867
1278.05421	0.02851
1276.76845	0.02836
1275.48268	0.02827
1274.19691	0.02825
1272.91114	0.02827
1271.62537	0.02831
1270.33960	0.02834
1269.05383	0.02835
1267.76806	0.02833
1266.48229	0.02829
1265.19653	0.02823
1263.91076	0.02816
1262.62499	0.02807
1261.33922	0.02798
1260.05345	0.02793
1258.76768	0.02791
1257.48191	0.02795
1256.19614	0.02801
1254.91037	0.02808
1253.62461	0.02813
1252.33884	0.02818
1251.05307	0.02824
1249.76730	0.02835
1248.48153	0.02846
1247.19576	0.02854
1245.90999	0.02856
1244.62422	0.02851
1243.33846	0.02844
1242.05269	0.02838
1240.76692	0.02836
1239.48115	0.02836
1238.19538	0.02836
1236.90961	0.02833
1235.62384	0.02829
1234.33807	0.02823
1233.05230	0.02814
1231.76654	0.02799
1230.48077	0.02782
1229.19500	0.02765
1227.90923	0.02752
1226.62346	0.02744
1225.33769	0.02738
1224.05192	0.02728
1222.76615	0.02718
1221.48039	0.02710
1220.19462	0.02708
1218.90885	0.02707
1217.62308	0.02702
1216.33731	0.02692
1215.05154	0.02680
1213.76577	0.02675
1212.48000	0.02678
1211.19423	0.02685
1209.90847	0.02691
1208.62270	0.02693
1207.33693	0.02695
1206.05116	0.02700
1204.76539	0.02712
1203.47962	0.02728
1202.19385	0.02743
1200.90808	0.02761
1199.62232	0.02785
1198.33655	0.02798
1197.05078	0.02805
1195.76501	0.02804
1194.47924	0.02798
1193.19347	0.02790
1191.90770	0.02784
1190.62193	0.02782
1189.33616	0.02783
1188.05040	0.02789
1186.76463	0.02799
1185.47886	0.02809
1184.19309	0.02815
1182.90732	0.02816
1181.62155	0.02815
1180.33578	0.02815
1179.05001	0.02818
1177.76425	0.02824
1176.47848	0.02832
1175.19271	0.02846
1173.90694	0.02870
1172.62117	0.02902
1171.33540	0.02935
1170.04963	0.02960
1168.76386	0.02978
1167.47809	0.02993
1166.19233	0.03012
1164.90656	0.03034
1163.62079	0.03054
1162.33502	0.03069
1161.04925	0.03080
1159.76348	0.03090
1158.47771	0.03104
1157.19194	0.03124
1155.90618	0.03150
1154.62041	0.03181
1153.33464	0.03213
1152.04887	0.03245
1150.76310	0.03275
1149.47733	0.03307
1148.19156	0.03346
1146.90579	0.03393
1145.62002	0.03445
1144.33426	0.03500
1143.04849	0.03560
1141.76272	0.03630
1140.47695	0.03708
1139.19118	0.03791
1137.90541	0.03880
1136.61964	0.03975
1135.33387	0.04073
1134.04811	0.04175
1132.76234	0.04282
1131.47657	0.04401
1130.19080	0.04534
1128.90503	0.04682
1127.61926	0.04842
1126.33349	0.05010
1125.04772	0.05188
1123.76195	0.05377
1122.47619	0.05583
1121.19042	0.05803
1119.90465	0.06029
1118.61888	0.06255
1117.33311	0.06480
1116.04734	0.06707
1114.76157	0.06942
1113.47580	0.07185
1112.19004	0.07430
1110.90427	0.07674
1109.61850	0.07914
1108.33273	0.08155
1107.04696	0.08403
1105.76119	0.08654
1104.47542	0.08897
1103.18965	0.09127
1101.90388	0.09347
1100.61812	0.09563
1099.33235	0.09779
1098.04658	0.09994
1096.76081	0.10204
1095.47504	0.10406
1094.18927	0.10594
1092.90350	0.10769
1091.61773	0.10936
1090.33197	0.11095
1089.04620	0.11249
1087.76043	0.11399
1086.47466	0.11550
1085.18889	0.11705
1083.90312	0.11864
1082.61735	0.12026
1081.33158	0.12187
1080.04581	0.12350
1078.76005	0.12519
1077.47428	0.12698
1076.18851	0.12887
1074.90274	0.13086
1073.61697	0.13294
1072.33120	0.13510
1071.04543	0.13728
1069.75966	0.13945
1068.47390	0.14160
1067.18813	0.14376
1065.90236	0.14599
1064.61659	0.14836
1063.33082	0.15083
1062.04505	0.15327
1060.75928	0.15561
1059.47351	0.15786
1058.18774	0.16009
1056.90198	0.16233
1055.61621	0.16457
1054.33044	0.16678
1053.04467	0.16894
1051.75890	0.17108
1050.47313	0.17325
1049.18736	0.17548
1047.90159	0.17777
1046.61583	0.18009
1045.33006	0.18243
1044.04429	0.18476
1042.75852	0.18708
1041.47275	0.18938
1040.18698	0.19166
1038.90121	0.19394
1037.61544	0.19628
1036.32967	0.19864
1035.04391	0.20097
1033.75814	0.20321
1032.47237	0.20532
1031.18660	0.20727
1029.90083	0.20899
1028.61506	0.21050
1027.32929	0.21186
1026.04352	0.21315
1024.75775	0.21438
1023.47199	0.21548
1022.18622	0.21632
1020.90045	0.21686
1019.61468	0.21710
1018.32891	0.21706
1017.04314	0.21679
1015.75737	0.21633
1014.47160	0.21568
1013.18584	0.21480
1011.90007	0.21363
1010.61430	0.21214
1009.32853	0.21037
1008.04276	0.20838
1006.75699	0.20620
1005.47122	0.20384
1004.18545	0.20131
1002.89968	0.19857
1001.61392	0.19560
1000.32815	0.19238
999.04238	0.18898
997.75661	0.18546
996.47084	0.18183
995.18507	0.17812
993.89930	0.17436
992.61353	0.17057
991.32777	0.16668
990.04200	0.16267
988.75623	0.15863
987.47046	0.15465
986.18469	0.15079
984.89892	0.14701
983.61315	0.14325
982.32738	0.13951
981.04161	0.13585
979.75585	0.13230
978.47008	0.12885
977.18431	0.12552
975.89854	0.12236
974.61277	0.11940
973.32700	0.11668
972.04123	0.11425
970.75546	0.11221
969.46970	0.11062
968.18393	0.10951
966.89816	0.10884
965.61239	0.10850
964.32662	0.10834
963.04085	0.10818
961.75508	0.10791
960.46931	0.10745
959.18354	0.10677
957.89778	0.10582
956.61201	0.10453
955.32624	0.10294
954.04047	0.10113
952.75470	0.09924
951.46893	0.09737
950.18316	0.09555
948.89739	0.09379
947.61163	0.09213
946.32586	0.09053
945.04009	0.08895
943.75432	0.08734
942.46855	0.08567
941.18278	0.08398
939.89701	0.08231
938.61124	0.08070
937.32547	0.07917
936.03971	0.07774
934.75394	0.07647
933.46817	0.07532
932.18240	0.07423
930.89663	0.07313
929.61086	0.07200
928.32509	0.07087
927.03932	0.06975
925.75356	0.06865
924.46779	0.06759
923.18202	0.06666
921.89625	0.06587
920.61048	0.06519
919.32471	0.06451
918.03894	0.06379
916.75317	0.06305
915.46740	0.06233
914.18164	0.06165
912.89587	0.06101
911.61010	0.06038
910.32433	0.05976
909.03856	0.05913
907.75279	0.05845
906.46702	0.05773
905.18125	0.05703
903.89549	0.05640
902.60972	0.05583
901.32395	0.05523
900.03818	0.05457
898.75241	0.05388
897.46664	0.05324
896.18087	0.05268
894.89510	0.05222
893.60933	0.05187
892.32357	0.05165
891.03780	0.05152
889.75203	0.05142
888.46626	0.05138
887.18049	0.05150
885.89472	0.05194
884.60895	0.05288
883.32318	0.05436
882.03742	0.05621
880.75165	0.05812
879.46588	0.05981
878.18011	0.06122
876.89434	0.06249
875.60857	0.06377
874.32280	0.06506
873.03703	0.06612
871.75126	0.06666
870.46550	0.06648
869.17973	0.06564
867.89396	0.06430
866.60819	0.06270
865.32242	0.06103
864.03665	0.05942
862.75088	0.05790
861.46511	0.05647
860.17935	0.05511
858.89358	0.05383
857.60781	0.05266
856.32204	0.05163
855.03627	0.05075
853.75050	0.04999
852.46473	0.04930
851.17896	0.04866
849.89319	0.04810
848.60743	0.04762
847.32166	0.04720
846.03589	0.04678
844.75012	0.04635
843.46435	0.04595
842.17858	0.04564
840.89281	0.04541
839.60704	0.04524
838.32128	0.04506
837.03551	0.04484
835.74974	0.04454
834.46397	0.04416
833.17820	0.04378
831.89243	0.04345
830.60666	0.04317
829.32089	0.04293
828.03512	0.04273
826.74936	0.04258
825.46359	0.04248
824.17782	0.04243
822.89205	0.04238
821.60628	0.04227
820.32051	0.04205
819.03474	0.04177
817.74897	0.04154
816.46321	0.04144
815.17744	0.04144
813.89167	0.04148
812.60590	0.04155
811.32013	0.04169
810.03436	0.04186
808.74859	0.04199
807.46282	0.04203
806.17705	0.04203
804.89129	0.04207
803.60552	0.04221
802.31975	0.04241
801.03398	0.04262
799.74821	0.04279
798.46244	0.04290
797.17667	0.04300
795.89090	0.04306
794.60513	0.04304
793.31937	0.04293
792.03360	0.04277
790.74783	0.04265
789.46206	0.04262
788.17629	0.04262
786.89052	0.04261
785.60475	0.04257
784.31898	0.04254
783.03322	0.04252
781.74745	0.04248
780.46168	0.04240
779.17591	0.04229
777.89014	0.04222
776.60437	0.04220
775.31860	0.04221
774.03283	0.04223
772.74706	0.04224
771.46130	0.04221
770.17553	0.04213
768.88976	0.04199
767.60399	0.04183
766.31822	0.04174
765.03245	0.04175
763.74668	0.04180
762.46091	0.04178
761.17515	0.04164
759.88938	0.04145
758.60361	0.04128
757.31784	0.04117
756.03207	0.04111
754.74630	0.04109
753.46053	0.04112
752.17476	0.04114
750.88899	0.04112
749.60323	0.04104
748.31746	0.04093
747.03169	0.04086
745.74592	0.04082
744.46015	0.04080
743.17438	0.04078
741.88861	0.04076
740.60284	0.04072
739.31708	0.04064
738.03131	0.04051
736.74554	0.04035
735.45977	0.04023
734.17400	0.04020
732.88823	0.04027
731.60246	0.04039
730.31669	0.04048
729.03092	0.04048
727.74516	0.04037
726.45939	0.04021
725.17362	0.04004
723.88785	0.03994
722.60208	0.03993
721.31631	0.04001
720.03054	0.04011
718.74477	0.04013
717.45901	0.04007
716.17324	0.04000
714.88747	0.03999
713.60170	0.04006
712.31593	0.04016
711.03016	0.04022
709.74439	0.04020
708.45862	0.04008
707.17285	0.03992
705.88709	0.03980
704.60132	0.03976
703.31555	0.03976
702.02978	0.03977
700.74401	0.03981
699.45824	0.03990
698.17247	0.04007
696.88670	0.04020
695.60094	0.04020
694.31517	0.04002
693.02940	0.03976
691.74363	0.03955
690.45786	0.03946
689.17209	0.03944
687.88632	0.03941
686.60055	0.03934
685.31478	0.03922
684.02902	0.03909
682.74325	0.03899
681.45748	0.03892
680.17171	0.03887
678.88594	0.03881
677.60017	0.03874
676.31440	0.03865
675.02863	0.03860
673.74287	0.03858
672.45710	0.03857
671.17133	0.03856
669.88556	0.03856
668.59979	0.03856
667.31402	0.03856
666.02825	0.03854
664.74248	0.03847
663.45671	0.03836
662.17095	0.03821
660.88518	0.03803
659.59941	0.03786
658.31364	0.03771
657.02787	0.03761
655.74210	0.03757
654.45633	0.03759
653.17056	0.03763
651.88480	0.03768
650.59903	0.03769
649.31326	0.03769
648.02749	0.03769
646.74172	0.03768
645.45595	0.03763
644.17018	0.03756
642.88441	0.03750
641.59864	0.03748
640.31288	0.03752
639.02711	0.03763
637.74134	0.03777
636.45557	0.03793
635.16980	0.03810
633.88403	0.03830
632.59826	0.03855
631.31249	0.03873
630.02673	0.03845
628.74096	0.03814
627.45519	0.03919
626.16942	0.03875
624.88365	0.03717
623.59788	0.03587
622.31211	0.03600
621.02634	0.03811
619.74057	0.04157
618.45481	0.04538
617.16904	0.04888
615.88327	0.05152
614.59750	0.05267
613.31173	0.05247
612.02596	0.05255
610.74019	0.05508
609.45442	0.06064
608.16866	0.06747
606.88289	0.07341
605.59712	0.07764
604.31135	0.08045
603.02558	0.08230
601.73981	0.08336
600.45404	0.08362
599.16827	0.08311
597.88250	0.08199
596.59674	0.08061
595.31097	0.07930
594.02520	0.07821
592.73943	0.07729
591.45366	0.07646
590.16789	0.07583
588.88212	0.07559
587.59635	0.07586
586.31059	0.07661
585.02482	0.07766
583.73905	0.07892
582.45328	0.08033
581.16751	0.08192
579.88174	0.08371
578.59597	0.08569
577.31020	0.08781
576.02443	0.08995
574.73867	0.09191
573.45290	0.09361
572.16713	0.09514
570.88136	0.09670
569.59559	0.09851
568.30982	0.10066
567.02405	0.10305
565.73828	0.10551
564.45251	0.10783
563.16675	0.10980
561.88098	0.11116
560.59521	0.11159
559.30944	0.11087
558.02367	0.10906
556.73790	0.10641
555.45213	0.10325
554.16636	0.09978
552.88060	0.09618
551.59483	0.09261
550.30906	0.08918
549.02329	0.08600
547.73752	0.08308
546.45175	0.08048
545.16598	0.07822
543.88021	0.07629
542.59444	0.07461
541.30868	0.07307
540.02291	0.07159
538.73714	0.07015
537.45137	0.06874
536.16560	0.06739
534.87983	0.06609
533.59406	0.06478
532.30829	0.06346
531.02253	0.06217
529.73676	0.06099
528.45099	0.05994
527.16522	0.05900
525.87945	0.05814
524.59368	0.05736
523.30791	0.05663
522.02214	0.05594
520.73637	0.05527
519.45061	0.05463
518.16484	0.05401
516.87907	0.05340
515.59330	0.05274
514.30753	0.05200
513.02176	0.05126
511.73599	0.05062
510.45022	0.05012
509.16446	0.04966
507.87869	0.04911
506.59292	0.04840
505.30715	0.04763
504.02138	0.04690
502.73561	0.04632
501.44984	0.04593
500.16407	0.04573
498.87830	0.04566
497.59254	0.04562
496.30677	0.04553
495.02100	0.04534
493.73523	0.04504
492.44946	0.04471
491.16369	0.04446
489.87792	0.04435
488.59215	0.04437
487.30639	0.04441
486.02062	0.04438
484.73485	0.04428
483.44908	0.04424
482.16331	0.04436
480.87754	0.04467
479.59177	0.04505
478.30600	0.04544
477.02023	0.04581
475.73447	0.04623
474.44870	0.04667
473.16293	0.04706
471.87716	0.04734
470.59139	0.04748
469.30562	0.04754
468.01985	0.04752
466.73408	0.04738
465.44832	0.04710
464.16255	0.04671
462.87678	0.04630
461.59101	0.04590
460.30524	0.04547
459.01947	0.04499
457.73370	0.04452
456.44793	0.04412
455.16216	0.04380
453.87640	0.04346
452.59063	0.04303
451.30486	0.04247
450.01909	0.04185
448.73332	0.04126
447.44755	0.04080
446.16178	0.04050
444.87601	0.04029
443.59025	0.04010
442.30448	0.03984
441.01871	0.03950
439.73294	0.03911
438.44717	0.03874
437.16140	0.03846
435.87563	0.03827
434.58986	0.03815
433.30409	0.03807
432.01833	0.03799
430.73256	0.03788
429.44679	0.03772
428.16102	0.03753
426.87525	0.03735
425.58948	0.03718
424.30371	0.03701
423.01794	0.03681
421.73218	0.03651
420.44641	0.03610
419.16064	0.03565
417.87487	0.03525
416.58910	0.03491
415.30333	0.03460
414.01756	0.03431
412.73179	0.03405
411.44602	0.03379
410.16026	0.03352
408.87449	0.03323
407.58872	0.03293
406.30295	0.03266
405.01718	0.03243
403.73141	0.03225
402.44564	0.03218
401.15987	0.03223
399.87411	0.03239
