3997.45528	0.04710
3996.16951	0.04774
3994.88374	0.04793
3993.59798	0.04774
3992.31221	0.04742
3991.02644	0.04701
3989.74067	0.04650
3988.45490	0.04614
3987.16913	0.04634
3985.88336	0.04729
3984.59759	0.04863
3983.31183	0.04963
3982.02606	0.04976
3980.74029	0.04904
3979.45452	0.04786
3978.16875	0.04661
3976.88298	0.04549
3975.59721	0.04466
3974.31144	0.04437
3973.02567	0.04484
3971.73991	0.04595
3970.45414	0.04714
3969.16837	0.04782
3967.88260	0.04785
3966.59683	0.04754
3965.31106	0.04721
3964.02529	0.04691
3962.73952	0.04660
3961.45376	0.04642
3960.16799	0.04653
3958.88222	0.04688
3957.59645	0.04725
3956.31068	0.04745
3955.02491	0.04751
3953.73914	0.04751
3952.45337	0.04745
3951.16760	0.04724
3949.88184	0.04694
3948.59607	0.04679
3947.31030	0.04692
3946.02453	0.04712
3944.73876	0.04711
3943.45299	0.04696
3942.16722	0.04706
3940.88145	0.04758
3939.59569	0.04830
3938.30992	0.04886
3937.02415	0.04901
3935.73838	0.04862
3934.45261	0.04784
3933.16684	0.04705
3931.88107	0.04660
3930.59530	0.04646
3929.30953	0.04625
3928.02377	0.04572
3926.73800	0.04506
3925.45223	0.04473
3924.16646	0.04497
3922.88069	0.04555
3921.59492	0.04598
3920.30915	0.04600
3919.02338	0.04576
3917.73762	0.04563
3916.45185	0.04582
3915.16608	0.04618
3913.88031	0.04641
3912.59454	0.04637
3911.30877	0.04603
3910.02300	0.04542
3908.73723	0.04471
3907.45146	0.04427
3906.16570	0.04436
3904.87993	0.04492
3903.59416	0.04567
3902.30839	0.04630
3901.02262	0.04663
3899.73685	0.04666
3898.45108	0.04645
3897.16531	0.04606
3895.87955	0.04559
3894.59378	0.04515
3893.30801	0.04481
3892.02224	0.04462
3890.73647	0.04465
3889.45070	0.04477
3888.16493	0.04469
3886.87916	0.04443
3885.59339	0.04434
3884.30763	0.04452
3883.02186	0.04456
3881.73609	0.04419
3880.45032	0.04367
3879.16455	0.04334
3877.87878	0.04320
3876.59301	0.04316
3875.30724	0.04342
3874.02148	0.04416
3872.73571	0.04499
3871.44994	0.04527
3870.16417	0.04506
3868.87840	0.04490
3867.59263	0.04503
3866.30686	0.04529
3865.02109	0.04565
3863.73532	0.04608
3862.44956	0.04633
3861.16379	0.04626
3859.87802	0.04610
3858.59225	0.04622
3857.30648	0.04671
3856.02071	0.04721
3854.73494	0.04739
3853.44917	0.04730
3852.16341	0.04712
3850.87764	0.04696
3849.59187	0.04695
3848.30610	0.04712
3847.02033	0.04716
3845.73456	0.04686
3844.44879	0.04642
3843.16302	0.04621
3841.87725	0.04623
3840.59149	0.04607
3839.30572	0.04557
3838.01995	0.04519
3836.73418	0.04542
3835.44841	0.04611
3834.16264	0.04665
3832.87687	0.04665
3831.59110	0.04618
3830.30534	0.04555
3829.01957	0.04499
3827.73380	0.04461
3826.44803	0.04451
3825.16226	0.04462
3823.87649	0.04475
3822.59072	0.04489
3821.30495	0.04530
3820.01918	0.04599
3818.73342	0.04635
3817.44765	0.04591
3816.16188	0.04500
3814.87611	0.04409
3813.59034	0.04321
3812.30457	0.04242
3811.01880	0.04211
3809.73303	0.04234
3808.44726	0.04282
3807.16150	0.04355
3805.87573	0.04480
3804.58996	0.04637
3803.30419	0.04762
3802.01842	0.04822
3800.73265	0.04827
3799.44688	0.04774
3798.16111	0.04663
3796.87535	0.04541
3795.58958	0.04465
3794.30381	0.04442
3793.01804	0.04437
3791.73227	0.04425
3790.44650	0.04403
3789.16073	0.04389
3787.87496	0.04392
3786.58919	0.04400
3785.30343	0.04392
3784.01766	0.04368
3782.73189	0.04349
3781.44612	0.04357
3780.16035	0.04396
3778.87458	0.04443
3777.58881	0.04452
3776.30304	0.04393
3775.01728	0.04286
3773.73151	0.04182
3772.44574	0.04120
3771.15997	0.04105
3769.87420	0.04124
3768.58843	0.04146
3767.30266	0.04143
3766.01689	0.04123
3764.73112	0.04127
3763.44536	0.04171
3762.15959	0.04231
3760.87382	0.04273
3759.58805	0.04288
3758.30228	0.04277
3757.01651	0.04253
3755.73074	0.04224
3754.44497	0.04203
3753.15921	0.04217
3751.87344	0.04282
3750.58767	0.04369
3749.30190	0.04444
3748.01613	0.04489
3746.73036	0.04486
3745.44459	0.04452
3744.15882	0.04441
3742.87305	0.04440
3741.58729	0.04381
3740.30152	0.04283
3739.01575	0.04234
3737.72998	0.04265
3736.44421	0.04331
3735.15844	0.04375
3733.87267	0.04390
3732.58690	0.04391
3731.30114	0.04380
3730.01537	0.04333
3728.72960	0.04233
3727.44383	0.04132
3726.15806	0.04090
3724.87229	0.04115
3723.58652	0.04177
3722.30075	0.04225
3721.01498	0.04223
3719.72922	0.04162
3718.44345	0.04063
3717.15768	0.03976
3715.87191	0.03935
3714.58614	0.03940
3713.30037	0.03983
3712.01460	0.04043
3710.72883	0.04110
3709.44307	0.04178
3708.15730	0.04223
3706.87153	0.04253
3705.58576	0.04274
3704.29999	0.04275
3703.01422	0.04258
3701.72845	0.04224
3700.44268	0.04187
3699.15691	0.04162
3697.87115	0.04157
3696.58538	0.04167
3695.29961	0.04156
3694.01384	0.04093
3692.72807	0.03976
3691.44230	0.03861
3690.15653	0.03806
3688.87076	0.03835
3687.58500	0.03935
3686.29923	0.04047
3685.01346	0.04106
3683.72769	0.04114
3682.44192	0.04116
3681.15615	0.04144
3679.87038	0.04191
3678.58461	0.04215
3677.29884	0.04177
3676.01308	0.04107
3674.72731	0.04065
3673.44154	0.04058
3672.15577	0.04048
3670.87000	0.04055
3669.58423	0.04119
3668.29846	0.04217
3667.01269	0.04293
3665.72693	0.04330
3664.44116	0.04340
3663.15539	0.04328
3661.86962	0.04284
3660.58385	0.04222
3659.29808	0.04166
3658.01231	0.04140
3656.72654	0.04159
3655.44077	0.04223
3654.15501	0.04298
3652.86924	0.04339
3651.58347	0.04335
3650.29770	0.04309
3649.01193	0.04284
3647.72616	0.04259
3646.44039	0.04240
3645.15462	0.04236
3643.86886	0.04249
3642.58309	0.04262
3641.29732	0.04247
3640.01155	0.04196
3638.72578	0.04145
3637.44001	0.04148
3636.15424	0.04228
3634.86847	0.04353
3633.58270	0.04466
3632.29694	0.04537
3631.01117	0.04581
3629.72540	0.04621
3628.43963	0.04657
3627.15386	0.04645
3625.86809	0.04570
3624.58232	0.04489
3623.29655	0.04479
3622.01079	0.04528
3620.72502	0.04575
3619.43925	0.04578
3618.15348	0.04554
3616.86771	0.04524
3615.58194	0.04487
3614.29617	0.04442
3613.01040	0.04408
3611.72463	0.04398
3610.43887	0.04399
3609.15310	0.04404
3607.86733	0.04424
3606.58156	0.04476
3605.29579	0.04558
3604.01002	0.04651
3602.72425	0.04737
3601.43848	0.04793
3600.15272	0.04823
3598.86695	0.04850
3597.58118	0.04877
3596.29541	0.04867
3595.00964	0.04816
3593.72387	0.04752
3592.43810	0.04713
3591.15233	0.04746
3589.86656	0.04849
3588.58080	0.04958
3587.29503	0.05017
3586.00926	0.05001
3584.72349	0.04938
3583.43772	0.04890
3582.15195	0.04887
3580.86618	0.04904
3579.58041	0.04900
3578.29464	0.04862
3577.00888	0.04825
3575.72311	0.04838
3574.43734	0.04909
3573.15157	0.05001
3571.86580	0.05083
3570.58003	0.05156
3569.29426	0.05222
3568.00849	0.05276
3566.72273	0.05300
3565.43696	0.05290
3564.15119	0.05257
3562.86542	0.05218
3561.57965	0.05186
3560.29388	0.05160
3559.00811	0.05134
3557.72234	0.05110
3556.43657	0.05094
3555.15081	0.05081
3553.86504	0.05066
3552.57927	0.05060
3551.29350	0.05091
3550.00773	0.05170
3548.72196	0.05275
3547.43619	0.05378
3546.15042	0.05459
3544.86466	0.05508
3543.57889	0.05526
3542.29312	0.05523
3541.00735	0.05508
3539.72158	0.05476
3538.43581	0.05424
3537.15004	0.05368
3535.86427	0.05333
3534.57850	0.05337
3533.29274	0.05375
3532.00697	0.05430
3530.72120	0.05483
3529.43543	0.05514
3528.14966	0.05511
3526.86389	0.05488
3525.57812	0.05478
3524.29235	0.05513
3523.00659	0.05594
3521.72082	0.05694
3520.43505	0.05784
3519.14928	0.05842
3517.86351	0.05860
3516.57774	0.05844
3515.29197	0.05812
3514.00620	0.05790
3512.72043	0.05793
3511.43467	0.05820
3510.14890	0.05864
3508.86313	0.05919
3507.57736	0.05971
3506.29159	0.05999
3505.00582	0.05994
3503.72005	0.05965
3502.43428	0.05929
3501.14852	0.05893
3499.86275	0.05856
3498.57698	0.05823
3497.29121	0.05808
3496.00544	0.05812
3494.71967	0.05827
3493.43390	0.05838
3492.14813	0.05834
3490.86236	0.05821
3489.57660	0.05828
3488.29083	0.05888
3487.00506	0.06003
3485.71929	0.06137
3484.43352	0.06239
3483.14775	0.06278
3481.86198	0.06256
3480.57621	0.06198
3479.29045	0.06135
3478.00468	0.06095
3476.71891	0.06084
3475.43314	0.06100
3474.14737	0.06134
3472.86160	0.06176
3471.57583	0.06212
3470.29006	0.06233
3469.00429	0.06240
3467.71853	0.06235
3466.43276	0.06217
3465.14699	0.06188
3463.86122	0.06172
3462.57545	0.06190
3461.28968	0.06234
3460.00391	0.06271
3458.71814	0.06280
3457.43238	0.06272
3456.14661	0.06262
3454.86084	0.06259
3453.57507	0.06271
3452.28930	0.06309
3451.00353	0.06367
3449.71776	0.06412
3448.43199	0.06416
3447.14622	0.06390
3445.86046	0.06375
3444.57469	0.06395
3443.28892	0.06440
3442.00315	0.06476
3440.71738	0.06482
3439.43161	0.06457
3438.14584	0.06413
3436.86007	0.06372
3435.57431	0.06355
3434.28854	0.06377
3433.00277	0.06437
3431.71700	0.06513
3430.43123	0.06574
3429.14546	0.06594
3427.85969	0.06566
3426.57392	0.06513
3425.28815	0.06477
3424.00239	0.06489
3422.71662	0.06542
3421.43085	0.06607
3420.14508	0.06659
3418.85931	0.06691
3417.57354	0.06701
3416.28777	0.06686
3415.00200	0.06658
3413.71624	0.06636
3412.43047	0.06625
3411.14470	0.06617
3409.85893	0.06608
3408.57316	0.06607
3407.28739	0.06619
3406.00162	0.06632
3404.71585	0.06632
3403.43008	0.06629
3402.14432	0.06641
3400.85855	0.06678
3399.57278	0.06726
3398.28701	0.06762
3397.00124	0.06768
3395.71547	0.06746
3394.42970	0.06720
3393.14393	0.06711
3391.85817	0.06716
3390.57240	0.06712
3389.28663	0.06685
3388.00086	0.06654
3386.71509	0.06651
3385.42932	0.06684
3384.14355	0.06735
3382.85778	0.06787
3381.57201	0.06840
3380.28625	0.06899
3379.00048	0.06946
3377.71471	0.06950
3376.42894	0.06901
3375.14317	0.06832
3373.85740	0.06794
3372.57163	0.06810
3371.28586	0.06860
3370.00010	0.06906
3368.71433	0.06933
3367.42856	0.06949
3366.14279	0.06966
3364.85702	0.06980
3363.57125	0.06979
3362.28548	0.06958
3360.99971	0.06927
3359.71394	0.06897
3358.42818	0.06875
3357.14241	0.06863
3355.85664	0.06865
3354.57087	0.06885
3353.28510	0.06917
3351.99933	0.06948
3350.71356	0.06968
3349.42779	0.06974
3348.14202	0.06965
3346.85626	0.06942
3345.57049	0.06914
3344.28472	0.06899
3342.99895	0.06908
3341.71318	0.06932
3340.42741	0.06949
3339.14164	0.06939
3337.85587	0.06902
3336.57011	0.06854
3335.28434	0.06820
3333.99857	0.06820
3332.71280	0.06853
3331.42703	0.06895
3330.14126	0.06919
3328.85549	0.06913
3327.56972	0.06882
3326.28395	0.06845
3324.99819	0.06825
3323.71242	0.06832
3322.42665	0.06860
3321.14088	0.06891
3319.85511	0.06909
3318.56934	0.06918
3317.28357	0.06933
3315.99780	0.06959
3314.71204	0.06978
3313.42627	0.06969
3312.14050	0.06931
3310.85473	0.06891
3309.56896	0.06876
3308.28319	0.06889
3306.99742	0.06906
3305.71165	0.06906
3304.42588	0.06890
3303.14012	0.06872
3301.85435	0.06863
3300.56858	0.06860
3299.28281	0.06863
3297.99704	0.06872
3296.71127	0.06883
3295.42550	0.06888
3294.13973	0.06887
3292.85397	0.06889
3291.56820	0.06903
3290.28243	0.06919
3288.99666	0.06920
3287.71089	0.06902
3286.42512	0.06871
3285.13935	0.06834
3283.85358	0.06797
3282.56781	0.06774
3281.28205	0.06778
3279.99628	0.06800
3278.71051	0.06813
3277.42474	0.06803
3276.13897	0.06781
3274.85320	0.06760
3273.56743	0.06741
3272.28166	0.06711
3270.99590	0.06670
3269.71013	0.06644
3268.42436	0.06653
3267.13859	0.06695
3265.85282	0.06744
3264.56705	0.06776
3263.28128	0.06788
3261.99551	0.06791
3260.70974	0.06792
3259.42398	0.06788
3258.13821	0.06781
3256.85244	0.06776
3255.56667	0.06784
3254.28090	0.06807
3252.99513	0.06835
3251.70936	0.06852
3250.42359	0.06842
3249.13783	0.06805
3247.85206	0.06758
3246.56629	0.06731
3245.28052	0.06741
3243.99475	0.06775
3242.70898	0.06803
3241.42321	0.06806
3240.13744	0.06797
3238.85167	0.06805
3237.56591	0.06843
3236.28014	0.06896
3234.99437	0.06931
3233.70860	0.06922
3232.42283	0.06872
3231.13706	0.06809
3229.85129	0.06760
3228.56552	0.06735
3227.27976	0.06722
3225.99399	0.06707
3224.70822	0.06694
3223.42245	0.06696
3222.13668	0.06719
3220.85091	0.06755
3219.56514	0.06778
3218.27937	0.06765
3216.99360	0.06714
3215.70784	0.06654
3214.42207	0.06620
3213.13630	0.06625
3211.85053	0.06645
3210.56476	0.06652
3209.27899	0.06638
3207.99322	0.06622
3206.70745	0.06626
3205.42169	0.06653
3204.13592	0.06685
3202.85015	0.06696
3201.56438	0.06671
3200.27861	0.06615
3198.99284	0.06549
3197.70707	0.06492
3196.42130	0.06455
3195.13553	0.06438
3193.84977	0.06445
3192.56400	0.06475
3191.27823	0.06521
3189.99246	0.06570
3188.70669	0.06609
3187.42092	0.06628
3186.13515	0.06620
3184.84938	0.06591
3183.56362	0.06555
3182.27785	0.06523
3180.99208	0.06498
3179.70631	0.06476
3178.42054	0.06454
3177.13477	0.06438
3175.84900	0.06441
3174.56323	0.06468
3173.27746	0.06507
3171.99170	0.06530
3170.70593	0.06520
3169.42016	0.06487
3168.13439	0.06457
3166.84862	0.06442
3165.56285	0.06429
3164.27708	0.06403
3162.99131	0.06367
3161.70555	0.06331
3160.41978	0.06294
3159.13401	0.06249
3157.84824	0.06200
3156.56247	0.06169
3155.27670	0.06167
3153.99093	0.06184
3152.70516	0.06199
3151.41939	0.06200
3150.13363	0.06190
3148.84786	0.06186
3147.56209	0.06196
3146.27632	0.06220
3144.99055	0.06244
3143.70478	0.06252
3142.41901	0.06241
3141.13324	0.06225
3139.84748	0.06217
3138.56171	0.06213
3137.27594	0.06196
3135.99017	0.06167
3134.70440	0.06144
3133.41863	0.06140
3132.13286	0.06148
3130.84709	0.06150
3129.56132	0.06139
3128.27556	0.06114
3126.98979	0.06081
3125.70402	0.06055
3124.41825	0.06055
3123.13248	0.06089
3121.84671	0.06140
3120.56094	0.06175
3119.27517	0.06179
3117.98940	0.06161
3116.70364	0.06141
3115.41787	0.06126
3114.13210	0.06115
3112.84633	0.06109
3111.56056	0.06111
3110.27479	0.06113
3108.98902	0.06104
3107.70325	0.06087
3106.41749	0.06077
3105.13172	0.06079
3103.84595	0.06083
3102.56018	0.06080
3101.27441	0.06066
3099.98864	0.06042
3098.70287	0.06006
3097.41710	0.05963
3096.13133	0.05932
3094.84557	0.05923
3093.55980	0.05933
3092.27403	0.05949
3090.98826	0.05962
3089.70249	0.05970
3088.41672	0.05975
3087.13095	0.05975
3085.84518	0.05965
3084.55942	0.05939
3083.27365	0.05901
3081.98788	0.05868
3080.70211	0.05860
3079.41634	0.05876
3078.13057	0.05894
3076.84480	0.05892
3075.55903	0.05865
3074.27326	0.05833
3072.98750	0.05821
3071.70173	0.05839
3070.41596	0.05872
3069.13019	0.05898
3067.84442	0.05903
3066.55865	0.05886
3065.27288	0.05853
3063.98711	0.05815
3062.70135	0.05782
3061.41558	0.05761
3060.12981	0.05751
3058.84404	0.05746
3057.55827	0.05742
3056.27250	0.05743
3054.98673	0.05750
3053.70096	0.05759
3052.41519	0.05767
3051.12943	0.05775
3049.84366	0.05785
3048.55789	0.05797
3047.27212	0.05808
3045.98635	0.05807
3044.70058	0.05789
3043.41481	0.05760
3042.12904	0.05731
3040.84328	0.05707
3039.55751	0.05690
3038.27174	0.05678
3036.98597	0.05668
3035.70020	0.05658
3034.41443	0.05649
3033.12866	0.05648
3031.84289	0.05651
3030.55712	0.05648
3029.27136	0.05629
3027.98559	0.05601
3026.69982	0.05579
3025.41405	0.05575
3024.12828	0.05590
3022.84251	0.05612
3021.55674	0.05627
3020.27097	0.05626
3018.98521	0.05603
3017.69944	0.05565
3016.41367	0.05521
3015.12790	0.05487
3013.84213	0.05469
3012.55636	0.05465
3011.27059	0.05461
3009.98482	0.05452
3008.69905	0.05441
3007.41329	0.05432
3006.12752	0.05422
3004.84175	0.05405
3003.55598	0.05388
3002.27021	0.05385
3000.98444	0.05403
2999.69867	0.05431
2998.41290	0.05451
2997.12714	0.05451
2995.84137	0.05438
2994.55560	0.05425
2993.26983	0.05420
2991.98406	0.05423
2990.69829	0.05423
2989.41252	0.05408
2988.12675	0.05381
2986.84098	0.05364
2985.55522	0.05381
2984.26945	0.05431
2982.98368	0.05489
2981.69791	0.05533
2980.41214	0.05557
2979.12637	0.05568
2977.84060	0.05574
2976.55483	0.05585
2975.26907	0.05611
2973.98330	0.05656
2972.69753	0.05722
2971.41176	0.05808
2970.12599	0.05906
2968.84022	0.06004
2967.55445	0.06094
2966.26868	0.06174
2964.98291	0.06246
2963.69715	0.06313
2962.41138	0.06374
2961.12561	0.06433
2959.83984	0.06489
2958.55407	0.06540
2957.26830	0.06587
2955.98253	0.06636
2954.69676	0.06689
2953.41100	0.06744
2952.12523	0.06785
2950.83946	0.06799
2949.55369	0.06785
2948.26792	0.06760
2946.98215	0.06739
2945.69638	0.06725
2944.41061	0.06714
2943.12484	0.06707
2941.83908	0.06713
2940.55331	0.06729
2939.26754	0.06747
2937.98177	0.06762
2936.69600	0.06785
2935.41023	0.06823
2934.12446	0.06872
2932.83869	0.06923
2931.55293	0.06974
2930.26716	0.07035
2928.98139	0.07113
2927.69562	0.07197
2926.40985	0.07262
2925.12408	0.07288
2923.83831	0.07273
2922.55254	0.07234
2921.26677	0.07190
2919.98101	0.07146
2918.69524	0.07106
2917.40947	0.07073
2916.12370	0.07055
2914.83793	0.07050
2913.55216	0.07050
2912.26639	0.07043
2910.98062	0.07023
2909.69486	0.06986
2908.40909	0.06930
2907.12332	0.06867
2905.83755	0.06809
2904.55178	0.06758
2903.26601	0.06705
2901.98024	0.06648
2900.69447	0.06596
2899.40870	0.06555
2898.12294	0.06519
2896.83717	0.06474
2895.55140	0.06416
2894.26563	0.06354
2892.97986	0.06303
2891.69409	0.06262
2890.40832	0.06220
2889.12255	0.06170
2887.83678	0.06117
2886.55102	0.06072
2885.26525	0.06037
2883.97948	0.06013
2882.69371	0.06004
2881.40794	0.06009
2880.12217	0.06014
2878.83640	0.06004
2877.55063	0.05989
2876.26487	0.05989
2874.97910	0.06011
2873.69333	0.06044
2872.40756	0.06073
2871.12179	0.06097
2869.83602	0.06124
2868.55025	0.06157
2867.26448	0.06186
2865.97871	0.06198
2864.69295	0.06196
2863.40718	0.06195
2862.12141	0.06205
2860.83564	0.06220
2859.54987	0.06232
2858.26410	0.06239
2856.97833	0.06239
2855.69256	0.06222
2854.40680	0.06182
2853.12103	0.06132
2851.83526	0.06095
2850.54949	0.06078
2849.26372	0.06063
2847.97795	0.06033
2846.69218	0.05987
2845.40641	0.05938
2844.12064	0.05884
2842.83488	0.05819
2841.54911	0.05744
2840.26334	0.05672
2838.97757	0.05612
2837.69180	0.05559
2836.40603	0.05503
2835.12026	0.05436
2833.83449	0.05358
2832.54873	0.05283
2831.26296	0.05229
2829.97719	0.05199
2828.69142	0.05179
2827.40565	0.05155
2826.11988	0.05125
2824.83411	0.05098
2823.54834	0.05076
2822.26257	0.05055
2820.97681	0.05035
2819.69104	0.05019
2818.40527	0.05008
2817.11950	0.04996
2815.83373	0.04980
2814.54796	0.04963
2813.26219	0.04948
2811.97642	0.04934
2810.69066	0.04923
2809.40489	0.04922
2808.11912	0.04934
2806.83335	0.04950
2805.54758	0.04951
2804.26181	0.04925
2802.97604	0.04879
2801.69027	0.04831
2800.40450	0.04793
2799.11874	0.04768
2797.83297	0.04753
2796.54720	0.04743
2795.26143	0.04736
2793.97566	0.04730
2792.68989	0.04722
2791.40412	0.04712
2790.11835	0.04703
2788.83259	0.04692
2787.54682	0.04678
2786.26105	0.04664
2784.97528	0.04654
2783.68951	0.04648
2782.40374	0.04642
2781.11797	0.04633
2779.83220	0.04626
2778.54643	0.04623
2777.26067	0.04620
2775.97490	0.04608
2774.68913	0.04584
2773.40336	0.04554
2772.11759	0.04526
2770.83182	0.04507
2769.54605	0.04496
2768.26028	0.04495
2766.97452	0.04505
2765.68875	0.04525
2764.40298	0.04551
2763.11721	0.04569
2761.83144	0.04566
2760.54567	0.04537
2759.25990	0.04490
2757.97413	0.04446
2756.68836	0.04427
2755.40260	0.04442
2754.11683	0.04479
2752.83106	0.04512
2751.54529	0.04521
2750.25952	0.04503
2748.97375	0.04470
2747.68798	0.04441
2746.40221	0.04429
2745.11645	0.04439
2743.83068	0.04462
2742.54491	0.04480
2741.25914	0.04480
2739.97337	0.04467
2738.68760	0.04454
2737.40183	0.04444
2736.11606	0.04430
2734.83029	0.04408
2733.54453	0.04385
2732.25876	0.04372
2730.97299	0.04369
2729.68722	0.04366
2728.40145	0.04359
2727.11568	0.04355
2725.82991	0.04358
2724.54414	0.04366
2723.25838	0.04371
2721.97261	0.04368
2720.68684	0.04352
2719.40107	0.04328
2718.11530	0.04307
2716.82953	0.04300
2715.54376	0.04302
2714.25799	0.04303
2712.97222	0.04297
2711.68646	0.04285
2710.40069	0.04271
2709.11492	0.04257
2707.82915	0.04250
2706.54338	0.04253
2705.25761	0.04263
2703.97184	0.04274
2702.68607	0.04283
2701.40031	0.04287
2700.11454	0.04284
2698.82877	0.04271
2697.54300	0.04251
2696.25723	0.04234
2694.97146	0.04228
2693.68569	0.04233
2692.39992	0.04239
2691.11415	0.04236
2689.82839	0.04221
2688.54262	0.04203
2687.25685	0.04192
2685.97108	0.04191
2684.68531	0.04192
2683.39954	0.04187
2682.11377	0.04176
2680.82800	0.04165
2679.54224	0.04157
2678.25647	0.04147
2676.97070	0.04126
2675.68493	0.04099
2674.39916	0.04078
2673.11339	0.04075
2671.82762	0.04091
2670.54185	0.04119
2669.25608	0.04143
2667.97032	0.04155
2666.68455	0.04149
2665.39878	0.04131
2664.11301	0.04108
2662.82724	0.04086
2661.54147	0.04070
2660.25570	0.04063
2658.96993	0.04064
2657.68417	0.04071
2656.39840	0.04077
2655.11263	0.04079
2653.82686	0.04074
2652.54109	0.04058
2651.25532	0.04035
2649.96955	0.04007
2648.68378	0.03978
2647.39801	0.03948
2646.11225	0.03916
2644.82648	0.03888
2643.54071	0.03870
2642.25494	0.03868
2640.96917	0.03872
2639.68340	0.03862
2638.39763	0.03830
2637.11186	0.03791
2635.82609	0.03766
2634.54033	0.03758
2633.25456	0.03754
2631.96879	0.03746
2630.68302	0.03741
2629.39725	0.03742
2628.11148	0.03737
2626.82571	0.03712
2625.53994	0.03673
2624.25418	0.03641
2622.96841	0.03628
2621.68264	0.03630
2620.39687	0.03634
2619.11110	0.03634
2617.82533	0.03628
2616.53956	0.03617
2615.25379	0.03602
2613.96802	0.03587
2612.68226	0.03575
2611.39649	0.03571
2610.11072	0.03575
2608.82495	0.03584
2607.53918	0.03589
2606.25341	0.03579
2604.96764	0.03549
2603.68187	0.03507
2602.39611	0.03469
2601.11034	0.03449
2599.82457	0.03445
2598.53880	0.03450
2597.25303	0.03457
2595.96726	0.03456
2594.68149	0.03441
2593.39572	0.03414
2592.10995	0.03388
2590.82419	0.03372
2589.53842	0.03358
2588.25265	0.03340
2586.96688	0.03326
2585.68111	0.03336
2584.39534	0.03370
2583.10957	0.03408
2581.82380	0.03426
2580.53804	0.03419
2579.25227	0.03398
2577.96650	0.03367
2576.68073	0.03317
2575.39496	0.03247
2574.10919	0.03182
2572.82342	0.03158
2571.53765	0.03180
2570.25188	0.03221
2568.96612	0.03252
2567.68035	0.03265
2566.39458	0.03264
2565.10881	0.03258
2563.82304	0.03266
2562.53727	0.03298
2561.25150	0.03337
2559.96573	0.03347
2558.67997	0.03308
2557.39420	0.03241
2556.10843	0.03191
2554.82266	0.03185
2553.53689	0.03216
2552.25112	0.03258
2550.96535	0.03296
2549.67958	0.03319
2548.39381	0.03310
2547.10805	0.03264
2545.82228	0.03204
2544.53651	0.03161
2543.25074	0.03148
2541.96497	0.03154
2540.67920	0.03167
2539.39343	0.03184
2538.10766	0.03197
2536.82190	0.03195
2535.53613	0.03179
2534.25036	0.03166
2532.96459	0.03172
2531.67882	0.03187
2530.39305	0.03190
2529.10728	0.03167
2527.82151	0.03135
2526.53574	0.03116
2525.24998	0.03120
2523.96421	0.03135
2522.67844	0.03142
2521.39267	0.03135
2520.10690	0.03123
2518.82113	0.03118
2517.53536	0.03115
2516.24959	0.03099
2514.96383	0.03074
2513.67806	0.03068
2512.39229	0.03093
2511.10652	0.03126
2509.82075	0.03135
2508.53498	0.03120
2507.24921	0.03093
2505.96344	0.03058
2504.67767	0.03018
2503.39191	0.02986
2502.10614	0.02977
2500.82037	0.02987
2499.53460	0.03001
2498.24883	0.03008
2496.96306	0.03003
2495.67729	0.02984
2494.39152	0.02960
2493.10576	0.02952
2491.81999	0.02975
2490.53422	0.03011
2489.24845	0.03029
2487.96268	0.03025
2486.67691	0.03018
2485.39114	0.03017
2484.10537	0.03019
2482.81960	0.03022
2481.53384	0.03040
2480.24807	0.03073
2478.96230	0.03098
2477.67653	0.03090
2476.39076	0.03054
2475.10499	0.03020
2473.81922	0.03008
2472.53345	0.03010
2471.24769	0.03007
2469.96192	0.02992
2468.67615	0.02973
2467.39038	0.02962
2466.10461	0.02957
2464.81884	0.02947
2463.53307	0.02934
2462.24730	0.02933
2460.96153	0.02959
2459.67577	0.02999
2458.39000	0.03020
2457.10423	0.03006
2455.81846	0.02975
2454.53269	0.02954
2453.24692	0.02951
2451.96115	0.02951
2450.67538	0.02933
2449.38962	0.02901
2448.10385	0.02877
2446.81808	0.02879
2445.53231	0.02905
2444.24654	0.02934
2442.96077	0.02956
2441.67500	0.02970
2440.38923	0.02982
2439.10346	0.02987
2437.81770	0.02982
2436.53193	0.02964
2435.24616	0.02935
2433.96039	0.02904
2432.67462	0.02883
2431.38885	0.02889
2430.10308	0.02916
2428.81731	0.02941
2427.53155	0.02943
2426.24578	0.02932
2424.96001	0.02926
2423.67424	0.02923
2422.38847	0.02911
2421.10270	0.02895
2419.81693	0.02893
2418.53116	0.02904
2417.24539	0.02906
2415.95963	0.02891
2414.67386	0.02876
2413.38809	0.02875
2412.10232	0.02872
2410.81655	0.02847
2409.53078	0.02808
2408.24501	0.02782
2406.95924	0.02787
2405.67347	0.02813
2404.38771	0.02839
2403.10194	0.02849
2401.81617	0.02845
2400.53040	0.02842
2399.24463	0.02849
2397.95886	0.02858
2396.67309	0.02862
2395.38732	0.02862
2394.10156	0.02858
2392.81579	0.02847
2391.53002	0.02829
2390.24425	0.02808
2388.95848	0.02795
2387.67271	0.02792
2386.38694	0.02791
2385.10117	0.02788
2383.81540	0.02784
2382.52964	0.02786
2381.24387	0.02799
2379.95810	0.02833
2378.67233	0.02878
2377.38656	0.02914
2376.10079	0.02960
2374.81502	0.02992
2373.52925	0.02955
2372.24349	0.02837
2370.95772	0.02654
2369.67195	0.02505
2368.38618	0.02400
2367.10041	0.02263
2365.81464	0.02138
2364.52887	0.02147
2363.24310	0.02243
2361.95733	0.02301
2360.67157	0.02333
2359.38580	0.02436
2358.10003	0.02548
2356.81426	0.02603
2355.52849	0.02624
2354.24272	0.02628
2352.95695	0.02630
2351.67118	0.02540
2350.38542	0.02305
2349.09965	0.02197
2347.81388	0.02467
2346.52811	0.02866
2345.24234	0.03014
2343.95657	0.02917
2342.67080	0.02804
2341.38503	0.02729
2340.09926	0.02655
2338.81350	0.02621
2337.52773	0.02617
2336.24196	0.02642
2334.95619	0.02636
2333.67042	0.02587
2332.38465	0.02592
2331.09888	0.02629
2329.81311	0.02661
2328.52735	0.02722
2327.24158	0.02752
2325.95581	0.02753
2324.67004	0.02796
2323.38427	0.02839
2322.09850	0.02856
2320.81273	0.02873
2319.52696	0.02849
2318.24119	0.02774
2316.95543	0.02711
2315.66966	0.02692
2314.38389	0.02698
2313.09812	0.02699
2311.81235	0.02706
2310.52658	0.02736
2309.24081	0.02780
2307.95504	0.02828
2306.66928	0.02851
2305.38351	0.02830
2304.09774	0.02781
2302.81197	0.02743
2301.52620	0.02726
2300.24043	0.02714
2298.95466	0.02700
2297.66889	0.02679
2296.38312	0.02654
2295.09736	0.02635
2293.81159	0.02630
2292.52582	0.02647
2291.24005	0.02675
2289.95428	0.02694
2288.66851	0.02693
2287.38274	0.02676
2286.09697	0.02656
2284.81121	0.02631
2283.52544	0.02594
2282.23967	0.02541
2280.95390	0.02482
2279.66813	0.02437
2278.38236	0.02416
2277.09659	0.02408
2275.81082	0.02390
2274.52505	0.02356
2273.23929	0.02322
2271.95352	0.02302
2270.66775	0.02296
2269.38198	0.02289
2268.09621	0.02280
2266.81044	0.02276
2265.52467	0.02292
2264.23890	0.02327
2262.95314	0.02363
2261.66737	0.02380
2260.38160	0.02369
2259.09583	0.02339
2257.81006	0.02311
2256.52429	0.02285
2255.23852	0.02251
2253.95275	0.02209
2252.66698	0.02187
2251.38122	0.02210
2250.09545	0.02266
2248.80968	0.02312
2247.52391	0.02315
2246.23814	0.02293
2244.95237	0.02267
2243.66660	0.02237
2242.38083	0.02185
2241.09507	0.02114
2239.80930	0.02044
2238.52353	0.01993
2237.23776	0.01967
2235.95199	0.01967
2234.66622	0.01990
2233.38045	0.02009
2232.09468	0.01991
2230.80891	0.01922
2229.52315	0.01832
2228.23738	0.01770
2226.95161	0.01774
2225.66584	0.01847
2224.38007	0.01950
2223.09430	0.02024
2221.80853	0.02039
2220.52276	0.02003
2219.23700	0.01939
2217.95123	0.01863
2216.66546	0.01800
2215.37969	0.01778
2214.09392	0.01800
2212.80815	0.01829
2211.52238	0.01825
2210.23661	0.01787
2208.95084	0.01750
2207.66508	0.01745
2206.37931	0.01762
2205.09354	0.01769
2203.80777	0.01736
2202.52200	0.01673
2201.23623	0.01615
2199.95046	0.01593
2198.66469	0.01592
2197.37893	0.01582
2196.09316	0.01553
2194.80739	0.01516
2193.52162	0.01483
2192.23585	0.01452
2190.95008	0.01441
2189.66431	0.01475
2188.37854	0.01555
2187.09277	0.01635
2185.80701	0.01660
2184.52124	0.01619
2183.23547	0.01547
2181.94970	0.01475
2180.66393	0.01404
2179.37816	0.01324
2178.09239	0.01256
2176.80662	0.01246
2175.52085	0.01335
2174.23509	0.01506
2172.94932	0.01675
2171.66355	0.01744
2170.37778	0.01683
2169.09201	0.01551
2167.80624	0.01418
2166.52047	0.01289
2165.23470	0.01131
2163.94894	0.00945
2162.66317	0.00771
2161.37740	0.00623
2160.09163	0.00494
2158.80586	0.00416
2157.52009	0.00439
2156.23432	0.00555
2154.94855	0.00704
2153.66278	0.00837
2152.37702	0.00951
2151.09125	0.01066
2149.80548	0.01187
2148.51971	0.01286
2147.23394	0.01311
2145.94817	0.01237
2144.66240	0.01107
2143.37663	0.01009
2142.09087	0.00994
2140.80510	0.01038
2139.51933	0.01087
2138.23356	0.01121
2136.94779	0.01161
2135.66202	0.01231
2134.37625	0.01333
2133.09048	0.01447
2131.80471	0.01544
2130.51895	0.01598
2129.23318	0.01612
2127.94741	0.01613
2126.66164	0.01616
2125.37587	0.01609
2124.09010	0.01584
2122.80433	0.01559
2121.51856	0.01565
2120.23280	0.01609
2118.94703	0.01669
2117.66126	0.01722
2116.37549	0.01750
2115.08972	0.01747
2113.80395	0.01727
2112.51818	0.01718
2111.23241	0.01730
2109.94664	0.01734
2108.66088	0.01694
2107.37511	0.01618
2106.08934	0.01551
2104.80357	0.01526
2103.51780	0.01533
2102.23203	0.01546
2100.94626	0.01558
2099.66049	0.01647
2098.37473	0.01686
2097.08896	0.01664
2095.80319	0.01608
2094.51742	0.01549
2093.23165	0.01515
2091.94588	0.01517
2090.66011	0.01541
2089.37434	0.01565
2088.08857	0.01567
2086.80281	0.01541
2085.51704	0.01507
2084.23127	0.01504
2082.94550	0.01556
2081.65973	0.01648
2080.37396	0.01726
2079.08819	0.01746
2077.80242	0.01703
2076.51666	0.01635
2075.23089	0.01583
2073.94512	0.01561
2072.65935	0.01549
2071.37358	0.01521
2070.08781	0.01474
2068.80204	0.01427
2067.51627	0.01395
2066.23050	0.01368
2064.94474	0.01319
2063.65897	0.01243
2062.37320	0.01172
2061.08743	0.01144
2059.80166	0.01161
2058.51589	0.01185
2057.23012	0.01187
2055.94435	0.01166
2054.65859	0.01147
2053.37282	0.01145
2052.08705	0.01154
2050.80128	0.01146
2049.51551	0.01109
2048.22974	0.01060
2046.94397	0.01029
2045.65820	0.01019
2044.37243	0.01007
2043.08667	0.00969
2041.80090	0.00894
2040.51513	0.00790
2039.22936	0.00685
2037.94359	0.00624
2036.65782	0.00635
2035.37205	0.00702
2034.08628	0.00773
2032.80052	0.00806
2031.51475	0.00798
2030.22898	0.00771
2028.94321	0.00749
2027.65744	0.00738
2026.37167	0.00725
2025.08590	0.00695
2023.80013	0.00652
2022.51436	0.00627
2021.22860	0.00647
2019.94283	0.00716
2018.65706	0.00801
2017.37129	0.00863
2016.08552	0.00893
2014.79975	0.00915
2013.51398	0.00956
2012.22821	0.01015
2010.94245	0.01069
2009.65668	0.01103
2008.37091	0.01121
2007.08514	0.01128
2005.79937	0.01117
2004.51360	0.01077
2003.22783	0.01013
2001.94206	0.00952
2000.65629	0.00930
1999.37053	0.00966
1998.08476	0.01044
1996.79899	0.01110
1995.51322	0.01115
1994.22745	0.01061
1992.94168	0.01008
1991.65591	0.01004
1990.37014	0.01049
1989.08438	0.01103
1987.79861	0.01143
1986.51284	0.01173
1985.22707	0.01199
1983.94130	0.01223
1982.65553	0.01249
1981.36976	0.01279
1980.08399	0.01310
1978.79822	0.01332
1977.51246	0.01343
1976.22669	0.01340
1974.94092	0.01316
1973.65515	0.01279
1972.36938	0.01260
1971.08361	0.01291
1969.79784	0.01360
1968.51207	0.01413
1967.22631	0.01398
1965.94054	0.01317
1964.65477	0.01220
1963.36900	0.01160
1962.08323	0.01145
1960.79746	0.01152
1959.51169	0.01170
1958.22592	0.01214
1956.94015	0.01295
1955.65439	0.01385
1954.36862	0.01438
1953.08285	0.01435
1951.79708	0.01399
1950.51131	0.01370
1949.22554	0.01373
1947.93977	0.01406
1946.65400	0.01443
1945.36823	0.01461
1944.08247	0.01449
1942.79670	0.01429
1941.51093	0.01427
1940.22516	0.01453
1938.93939	0.01489
1937.65362	0.01519
1936.36785	0.01545
1935.08208	0.01579
1933.79632	0.01628
1932.51055	0.01682
1931.22478	0.01719
1929.93901	0.01724
1928.65324	0.01693
1927.36747	0.01646
1926.08170	0.01605
1924.79593	0.01590
1923.51016	0.01602
1922.22440	0.01630
1920.93863	0.01658
1919.65286	0.01676
1918.36709	0.01680
1917.08132	0.01668
1915.79555	0.01641
1914.50978	0.01609
1913.22401	0.01594
1911.93825	0.01606
1910.65248	0.01632
1909.36671	0.01653
1908.08094	0.01662
1906.79517	0.01672
1905.50940	0.01694
1904.22363	0.01721
1902.93786	0.01738
1901.65209	0.01738
1900.36633	0.01735
1899.08056	0.01744
1897.79479	0.01760
1896.50902	0.01764
1895.22325	0.01747
1893.93748	0.01718
1892.65171	0.01693
1891.36594	0.01678
1890.08018	0.01668
1888.79441	0.01662
1887.50864	0.01658
1886.22287	0.01653
1884.93710	0.01645
1883.65133	0.01638
1882.36556	0.01636
1881.07979	0.01647
1879.79402	0.01673
1878.50826	0.01705
1877.22249	0.01729
1875.93672	0.01734
1874.65095	0.01724
1873.36518	0.01707
1872.07941	0.01689
1870.79364	0.01674
1869.50787	0.01669
1868.22211	0.01675
1866.93634	0.01684
1865.65057	0.01682
1864.36480	0.01668
1863.07903	0.01651
1861.79326	0.01635
1860.50749	0.01625
1859.22172	0.01628
1857.93595	0.01644
1856.65019	0.01666
1855.36442	0.01688
1854.07865	0.01706
1852.79288	0.01720
1851.50711	0.01730
1850.22134	0.01734
1848.93557	0.01736
1847.64980	0.01736
1846.36404	0.01731
1845.07827	0.01720
1843.79250	0.01711
1842.50673	0.01705
1841.22096	0.01694
1839.93519	0.01679
1838.64942	0.01668
1837.36365	0.01670
1836.07788	0.01688
1834.79212	0.01717
1833.50635	0.01747
1832.22058	0.01769
1830.93481	0.01777
1829.64904	0.01779
1828.36327	0.01778
1827.07750	0.01774
1825.79173	0.01771
1824.50597	0.01777
1823.22020	0.01791
1821.93443	0.01798
1820.64866	0.01788
1819.36289	0.01766
1818.07712	0.01744
1816.79135	0.01733
1815.50558	0.01734
1814.21981	0.01740
1812.93405	0.01743
1811.64828	0.01745
1810.36251	0.01750
1809.07674	0.01762
1807.79097	0.01776
1806.50520	0.01784
1805.21943	0.01787
1803.93366	0.01787
1802.64790	0.01790
1801.36213	0.01794
1800.07636	0.01796
1798.79059	0.01793
1797.50482	0.01792
1796.21905	0.01798
1794.93328	0.01808
1793.64751	0.01816
1792.36174	0.01818
1791.07598	0.01818
1789.79021	0.01813
1788.50444	0.01805
1787.21867	0.01800
1785.93290	0.01800
1784.64713	0.01802
1783.36136	0.01802
1782.07559	0.01800
1780.78983	0.01801
1779.50406	0.01811
1778.21829	0.01827
1776.93252	0.01843
1775.64675	0.01855
1774.36098	0.01860
1773.07521	0.01864
1771.78944	0.01876
1770.50367	0.01888
1769.21791	0.01884
1767.93214	0.01867
1766.64637	0.01851
1765.36060	0.01837
1764.07483	0.01823
1762.78906	0.01817
1761.50329	0.01827
1760.21752	0.01847
1758.93176	0.01857
1757.64599	0.01850
1756.36022	0.01840
1755.07445	0.01841
1753.78868	0.01849
1752.50291	0.01859
1751.21714	0.01874
1749.93137	0.01893
1748.64560	0.01908
1747.35984	0.01913
1746.07407	0.01911
1744.78830	0.01909
1743.50253	0.01911
1742.21676	0.01915
1740.93099	0.01919
1739.64522	0.01931
1738.35945	0.01958
1737.07369	0.01987
1735.78792	0.02000
1734.50215	0.01997
1733.21638	0.01988
1731.93061	0.01973
1730.64484	0.01948
1729.35907	0.01924
1728.07330	0.01917
1726.78753	0.01924
1725.50177	0.01933
1724.21600	0.01943
1722.93023	0.01965
1721.64446	0.02003
1720.35869	0.02047
1719.07292	0.02083
1717.78715	0.02112
1716.50138	0.02133
1715.21561	0.02140
1713.92985	0.02132
1712.64408	0.02126
1711.35831	0.02134
1710.07254	0.02155
1708.78677	0.02182
1707.50100	0.02206
1706.21523	0.02232
1704.92946	0.02274
1703.64370	0.02333
1702.35793	0.02385
1701.07216	0.02430
1699.78639	0.02481
1698.50062	0.02526
1697.21485	0.02536
1695.92908	0.02517
1694.64331	0.02505
1693.35754	0.02502
1692.07178	0.02495
1690.78601	0.02494
1689.50024	0.02522
1688.21447	0.02577
1686.92870	0.02634
1685.64293	0.02674
1684.35716	0.02704
1683.07139	0.02731
1681.78563	0.02743
1680.49986	0.02744
1679.21409	0.02755
1677.92832	0.02781
1676.64255	0.02809
1675.35678	0.02837
1674.07101	0.02869
1672.78524	0.02902
1671.49947	0.02924
1670.21371	0.02937
1668.92794	0.02953
1667.64217	0.02978
1666.35640	0.03004
1665.07063	0.03027
1663.78486	0.03051
1662.49909	0.03080
1661.21332	0.03109
1659.92756	0.03132
1658.64179	0.03159
1657.35602	0.03207
1656.07025	0.03269
1654.78448	0.03318
1653.49871	0.03348
1652.21294	0.03371
1650.92717	0.03385
1649.64140	0.03374
1648.35564	0.03345
1647.06987	0.03323
1645.78410	0.03316
1644.49833	0.03311
1643.21256	0.03298
1641.92679	0.03286
1640.64102	0.03293
1639.35525	0.03321
1638.06949	0.03352
1636.78372	0.03364
1635.49795	0.03360
1634.21218	0.03350
1632.92641	0.03335
1631.64064	0.03312
1630.35487	0.03288
1629.06910	0.03273
1627.78333	0.03267
1626.49757	0.03267
1625.21180	0.03266
1623.92603	0.03261
1622.64026	0.03259
1621.35449	0.03266
1620.06872	0.03275
1618.78295	0.03276
1617.49718	0.03272
1616.21142	0.03273
1614.92565	0.03277
1613.63988	0.03273
1612.35411	0.03263
1611.06834	0.03257
1609.78257	0.03264
1608.49680	0.03276
1607.21103	0.03291
1605.92526	0.03303
1604.63950	0.03309
1603.35373	0.03309
1602.06796	0.03305
1600.78219	0.03304
1599.49642	0.03311
1598.21065	0.03328
1596.92488	0.03349
1595.63911	0.03371
1594.35335	0.03389
1593.06758	0.03404
1591.78181	0.03419
1590.49604	0.03437
1589.21027	0.03459
1587.92450	0.03484
1586.63873	0.03511
1585.35296	0.03540
1584.06719	0.03567
1582.78143	0.03590
1581.49566	0.03615
1580.20989	0.03652
1578.92412	0.03700
1577.63835	0.03746
1576.35258	0.03787
1575.06681	0.03827
1573.78104	0.03861
1572.49528	0.03880
1571.20951	0.03892
1569.92374	0.03911
1568.63797	0.03940
1567.35220	0.03969
1566.06643	0.03993
1564.78066	0.04027
1563.49489	0.04084
1562.20912	0.04155
1560.92336	0.04219
1559.63759	0.04269
1558.35182	0.04312
1557.06605	0.04337
1555.78028	0.04332
1554.49451	0.04315
1553.20874	0.04310
1551.92297	0.04319
1550.63721	0.04331
1549.35144	0.04342
1548.06567	0.04353
1546.77990	0.04363
1545.49413	0.04376
1544.20836	0.04398
1542.92259	0.04418
1541.63682	0.04417
1540.35105	0.04389
1539.06529	0.04353
1537.77952	0.04323
1536.49375	0.04294
1535.20798	0.04262
1533.92221	0.04236
1532.63644	0.04228
1531.35067	0.04237
1530.06490	0.04252
1528.77914	0.04276
1527.49337	0.04310
1526.20760	0.04358
1524.92183	0.04416
1523.63606	0.04477
1522.35029	0.04536
1521.06452	0.04605
1519.77875	0.04682
1518.49298	0.04753
1517.20722	0.04813
1515.92145	0.04876
1514.63568	0.04947
1513.34991	0.05025
1512.06414	0.05119
1510.77837	0.05235
1509.49260	0.05366
1508.20683	0.05492
1506.92107	0.05606
1505.63530	0.05715
1504.34953	0.05813
1503.06376	0.05896
1501.77799	0.05970
1500.49222	0.06051
1499.20645	0.06139
1497.92068	0.06220
1496.63491	0.06287
1495.34915	0.06342
1494.06338	0.06393
1492.77761	0.06445
1491.49184	0.06504
1490.20607	0.06575
1488.92030	0.06654
1487.63453	0.06732
1486.34876	0.06809
1485.06299	0.06889
1483.77723	0.06975
1482.49146	0.07071
1481.20569	0.07179
1479.91992	0.07295
1478.63415	0.07410
1477.34838	0.07516
1476.06261	0.07615
1474.77684	0.07708
1473.49108	0.07794
1472.20531	0.07875
1470.91954	0.07947
1469.63377	0.08004
1468.34800	0.08047
1467.06223	0.08082
1465.77646	0.08115
1464.49069	0.08155
1463.20492	0.08204
1461.91916	0.08262
1460.63339	0.08324
1459.34762	0.08380
1458.06185	0.08427
1456.77608	0.08468
1455.49031	0.08504
1454.20454	0.08526
1452.91877	0.08533
1451.63301	0.08541
1450.34724	0.08557
1449.06147	0.08570
1447.77570	0.08570
1446.48993	0.08553
1445.20416	0.08523
1443.91839	0.08485
1442.63262	0.08444
1441.34685	0.08408
1440.06109	0.08378
1438.77532	0.08351
1437.48955	0.08330
1436.20378	0.08323
1434.91801	0.08332
1433.63224	0.08353
1432.34647	0.08388
1431.06070	0.08448
1429.77494	0.08534
1428.48917	0.08639
1427.20340	0.08753
1425.91763	0.08871
1424.63186	0.08999
1423.34609	0.09142
1422.06032	0.09287
1420.77455	0.09420
1419.48878	0.09538
1418.20302	0.09643
1416.91725	0.09729
1415.63148	0.09792
1414.34571	0.09834
1413.05994	0.09862
1411.77417	0.09876
1410.48840	0.09875
1409.20263	0.09857
1407.91687	0.09817
1406.63110	0.09748
1405.34533	0.09652
1404.05956	0.09538
1402.77379	0.09411
1401.48802	0.09275
1400.20225	0.09129
1398.91648	0.08976
1397.63071	0.08814
1396.34495	0.08640
1395.05918	0.08454
1393.77341	0.08265
1392.48764	0.08080
1391.20187	0.07897
1389.91610	0.07716
1388.63033	0.07540
1387.34456	0.07373
1386.05880	0.07216
1384.77303	0.07062
1383.48726	0.06909
1382.20149	0.06757
1380.91572	0.06605
1379.62995	0.06455
1378.34418	0.06306
1377.05841	0.06154
1375.77264	0.05990
1374.48688	0.05810
1373.20111	0.05619
1371.91534	0.05426
1370.62957	0.05241
1369.34380	0.05073
1368.05803	0.04925
1366.77226	0.04794
1365.48649	0.04669
1364.20073	0.04542
1362.91496	0.04413
1361.62919	0.04288
1360.34342	0.04168
1359.05765	0.04055
1357.77188	0.03952
1356.48611	0.03861
1355.20034	0.03783
1353.91457	0.03715
1352.62881	0.03649
1351.34304	0.03580
1350.05727	0.03509
1348.77150	0.03441
1347.48573	0.03380
1346.19996	0.03327
1344.91419	0.03280
1343.62842	0.03234
1342.34266	0.03187
1341.05689	0.03140
1339.77112	0.03098
1338.48535	0.03062
1337.19958	0.03028
1335.91381	0.02990
1334.62804	0.02949
1333.34227	0.02909
1332.05650	0.02875
1330.77074	0.02847
1329.48497	0.02823
1328.19920	0.02800
1326.91343	0.02779
1325.62766	0.02759
1324.34189	0.02741
1323.05612	0.02723
1321.77035	0.02704
1320.48459	0.02683
1319.19882	0.02663
1317.91305	0.02643
1316.62728	0.02624
1315.34151	0.02602
1314.05574	0.02576
1312.76997	0.02548
1311.48420	0.02523
1310.19843	0.02504
1308.91267	0.02492
1307.62690	0.02483
1306.34113	0.02474
1305.05536	0.02461
1303.76959	0.02442
1302.48382	0.02420
1301.19805	0.02396
1299.91228	0.02375
1298.62652	0.02360
1297.34075	0.02348
1296.05498	0.02337
1294.76921	0.02323
1293.48344	0.02307
1292.19767	0.02291
1290.91190	0.02275
1289.62613	0.02258
1288.34036	0.02240
1287.05460	0.02221
1285.76883	0.02204
1284.48306	0.02193
1283.19729	0.02188
1281.91152	0.02187
1280.62575	0.02185
1279.33998	0.02180
1278.05421	0.02172
1276.76845	0.02162
1275.48268	0.02151
1274.19691	0.02140
1272.91114	0.02134
1271.62537	0.02138
1270.33960	0.02156
1269.05383	0.02191
1267.76806	0.02240
1266.48229	0.02299
1265.19653	0.02360
1263.91076	0.02409
1262.62499	0.02438
1261.33922	0.02439
1260.05345	0.02412
1258.76768	0.02365
1257.48191	0.02306
1256.19614	0.02243
1254.91037	0.02184
1253.62461	0.02132
1252.33884	0.02083
1251.05307	0.02035
1249.76730	0.01991
1248.48153	0.01957
1247.19576	0.01934
1245.90999	0.01919
1244.62422	0.01905
1243.33846	0.01887
1242.05269	0.01868
1240.76692	0.01853
1239.48115	0.01845
1238.19538	0.01843
1236.90961	0.01843
1235.62384	0.01840
1234.33807	0.01830
1233.05230	0.01814
1231.76654	0.01795
1230.48077	0.01775
1229.19500	0.01757
1227.90923	0.01742
1226.62346	0.01733
1225.33769	0.01725
1224.05192	0.01715
1222.76615	0.01700
1221.48039	0.01682
1220.19462	0.01667
1218.90885	0.01658
1217.62308	0.01656
1216.33731	0.01658
1215.05154	0.01659
1213.76577	0.01654
1212.48000	0.01644
1211.19423	0.01632
1209.90847	0.01622
1208.62270	0.01614
1207.33693	0.01610
1206.05116	0.01607
1204.76539	0.01606
1203.47962	0.01606
1202.19385	0.01604
1200.90808	0.01593
1199.62232	0.01569
1198.33655	0.01553
1197.05078	0.01542
1195.76501	0.01539
1194.47924	0.01543
1193.19347	0.01548
1191.90770	0.01547
1190.62193	0.01538
1189.33616	0.01527
1188.05040	0.01518
1186.76463	0.01516
1185.47886	0.01518
1184.19309	0.01519
1182.90732	0.01514
1181.62155	0.01501
1180.33578	0.01484
1179.05001	0.01469
1177.76425	0.01465
1176.47848	0.01472
1175.19271	0.01485
1173.90694	0.01496
1172.62117	0.01503
1171.33540	0.01507
1170.04963	0.01510
1168.76386	0.01517
1167.47809	0.01529
1166.19233	0.01546
1164.90656	0.01566
1163.62079	0.01586
1162.33502	0.01606
1161.04925	0.01628
1159.76348	0.01649
1158.47771	0.01667
1157.19194	0.01680
1155.90618	0.01693
1154.62041	0.01710
1153.33464	0.01732
1152.04887	0.01755
1150.76310	0.01776
1149.47733	0.01798
1148.19156	0.01830
1146.90579	0.01876
1145.62002	0.01935
1144.33426	0.02002
1143.04849	0.02074
1141.76272	0.02151
1140.47695	0.02233
1139.19118	0.02322
1137.90541	0.02420
1136.61964	0.02532
1135.33387	0.02658
1134.04811	0.02798
1132.76234	0.02952
1131.47657	0.03121
1130.19080	0.03313
1128.90503	0.03535
1127.61926	0.03792
1126.33349	0.04079
1125.04772	0.04383
1123.76195	0.04695
1122.47619	0.05014
1121.19042	0.05349
1119.90465	0.05704
1118.61888	0.06073
1117.33311	0.06441
1116.04734	0.06800
1114.76157	0.07150
1113.47580	0.07496
1112.19004	0.07837
1110.90427	0.08169
1109.61850	0.08493
1108.33273	0.08810
1107.04696	0.09123
1105.76119	0.09431
1104.47542	0.09737
1103.18965	0.10036
1101.90388	0.10324
1100.61812	0.10595
1099.33235	0.10849
1098.04658	0.11091
1096.76081	0.11319
1095.47504	0.11530
1094.18927	0.11719
1092.90350	0.11892
1091.61773	0.12054
1090.33197	0.12209
1089.04620	0.12353
1087.76043	0.12489
1086.47466	0.12620
1085.18889	0.12751
1083.90312	0.12888
1082.61735	0.13040
1081.33158	0.13217
1080.04581	0.13425
1078.76005	0.13661
1077.47428	0.13915
1076.18851	0.14176
1074.90274	0.14443
1073.61697	0.14720
1072.33120	0.15007
1071.04543	0.15304
1069.75966	0.15611
1068.47390	0.15926
1067.18813	0.16252
1065.90236	0.16587
1064.61659	0.16934
1063.33082	0.17290
1062.04505	0.17648
1060.75928	0.17999
1059.47351	0.18336
1058.18774	0.18662
1056.90198	0.18990
1055.61621	0.19323
1054.33044	0.19661
1053.04467	0.20002
1051.75890	0.20347
1050.47313	0.20697
1049.18736	0.21058
1047.90159	0.21433
1046.61583	0.21823
1045.33006	0.22220
1044.04429	0.22614
1042.75852	0.23006
1041.47275	0.23402
1040.18698	0.23810
1038.90121	0.24233
1037.61544	0.24667
1036.32967	0.25106
1035.04391	0.25534
1033.75814	0.25935
1032.47237	0.26303
1031.18660	0.26641
1029.90083	0.26952
1028.61506	0.27231
1027.32929	0.27469
1026.04352	0.27663
1024.75775	0.27820
1023.47199	0.27941
1022.18622	0.28022
1020.90045	0.28054
1019.61468	0.28035
1018.32891	0.27964
1017.04314	0.27838
1015.75737	0.27657
1014.47160	0.27425
1013.18584	0.27144
1011.90007	0.26812
1010.61430	0.26424
1009.32853	0.25980
1008.04276	0.25486
1006.75699	0.24946
1005.47122	0.24358
1004.18545	0.23719
1002.89968	0.23034
1001.61392	0.22317
1000.32815	0.21585
999.04238	0.20844
997.75661	0.20098
996.47084	0.19347
995.18507	0.18592
993.89930	0.17838
992.61353	0.17097
991.32777	0.16376
990.04200	0.15681
988.75623	0.15019
987.47046	0.14396
986.18469	0.13814
984.89892	0.13268
983.61315	0.12750
982.32738	0.12254
981.04161	0.11777
979.75585	0.11324
978.47008	0.10908
977.18431	0.10537
975.89854	0.10210
974.61277	0.09924
973.32700	0.09679
972.04123	0.09488
970.75546	0.09363
969.46970	0.09307
968.18393	0.09313
966.89816	0.09365
965.61239	0.09449
964.32662	0.09553
963.04085	0.09658
961.75508	0.09737
960.46931	0.09759
959.18354	0.09697
957.89778	0.09552
956.61201	0.09345
955.32624	0.09101
954.04047	0.08841
952.75470	0.08580
951.46893	0.08330
950.18316	0.08097
948.89739	0.07876
947.61163	0.07660
946.32586	0.07446
945.04009	0.07236
943.75432	0.07040
942.46855	0.06859
941.18278	0.06688
939.89701	0.06519
938.61124	0.06355
937.32547	0.06204
936.03971	0.06069
934.75394	0.05944
933.46817	0.05821
932.18240	0.05700
930.89663	0.05589
929.61086	0.05497
928.32509	0.05424
927.03932	0.05359
925.75356	0.05290
924.46779	0.05213
923.18202	0.05134
921.89625	0.05060
920.61048	0.04997
919.32471	0.04944
918.03894	0.04892
916.75317	0.04838
915.46740	0.04781
914.18164	0.04723
912.89587	0.04670
911.61010	0.04626
910.32433	0.04587
909.03856	0.04545
907.75279	0.04495
906.46702	0.04438
905.18125	0.04385
903.89549	0.04342
902.60972	0.04307
901.32395	0.04275
900.03818	0.04241
898.75241	0.04208
897.46664	0.04179
896.18087	0.04156
894.89510	0.04136
893.60933	0.04117
892.32357	0.04103
891.03780	0.04101
889.75203	0.04121
888.46626	0.04166
887.18049	0.04237
885.89472	0.04347
884.60895	0.04510
883.32318	0.04734
882.03742	0.04997
880.75165	0.05252
879.46588	0.05452
878.18011	0.05593
876.89434	0.05712
875.60857	0.05857
874.32280	0.06033
873.03703	0.06195
871.75126	0.06293
870.46550	0.06303
869.17973	0.06231
867.89396	0.06092
866.60819	0.05902
865.32242	0.05680
864.03665	0.05449
862.75088	0.05228
861.46511	0.05034
860.17935	0.04871
858.89358	0.04734
857.60781	0.04612
856.32204	0.04498
855.03627	0.04394
853.75050	0.04309
852.46473	0.04245
851.17896	0.04200
849.89319	0.04167
848.60743	0.04135
847.32166	0.04098
846.03589	0.04056
844.75012	0.04014
843.46435	0.03977
842.17858	0.03946
840.89281	0.03917
839.60704	0.03889
838.32128	0.03865
837.03551	0.03849
835.74974	0.03840
834.46397	0.03836
833.17820	0.03835
831.89243	0.03833
830.60666	0.03827
829.32089	0.03817
828.03512	0.03809
826.74936	0.03808
825.46359	0.03814
824.17782	0.03827
822.89205	0.03844
821.60628	0.03866
820.32051	0.03889
819.03474	0.03909
817.74897	0.03925
816.46321	0.03938
815.17744	0.03952
813.89167	0.03966
812.60590	0.03978
811.32013	0.03988
810.03436	0.03997
808.74859	0.04006
807.46282	0.04019
806.17705	0.04037
804.89129	0.04060
803.60552	0.04084
802.31975	0.04096
801.03398	0.04091
799.74821	0.04073
798.46244	0.04052
797.17667	0.04037
795.89090	0.04025
794.60513	0.04007
793.31937	0.03975
792.03360	0.03928
790.74783	0.03874
789.46206	0.03822
788.17629	0.03778
786.89052	0.03739
785.60475	0.03700
784.31898	0.03658
783.03322	0.03619
781.74745	0.03585
780.46168	0.03557
779.17591	0.03532
777.89014	0.03512
776.60437	0.03497
775.31860	0.03482
774.03283	0.03465
772.74706	0.03445
771.46130	0.03425
770.17553	0.03407
768.88976	0.03396
767.60399	0.03390
766.31822	0.03386
765.03245	0.03385
763.74668	0.03389
762.46091	0.03398
761.17515	0.03412
759.88938	0.03429
758.60361	0.03446
757.31784	0.03458
756.03207	0.03459
754.74630	0.03452
753.46053	0.03443
752.17476	0.03435
750.88899	0.03424
749.60323	0.03406
748.31746	0.03386
747.03169	0.03370
745.74592	0.03363
744.46015	0.03358
743.17438	0.03346
741.88861	0.03325
740.60284	0.03307
739.31708	0.03304
738.03131	0.03314
736.74554	0.03325
735.45977	0.03328
734.17400	0.03322
732.88823	0.03314
731.60246	0.03308
730.31669	0.03306
729.03092	0.03307
727.74516	0.03310
726.45939	0.03312
725.17362	0.03308
723.88785	0.03295
722.60208	0.03289
721.31631	0.03300
720.03054	0.03306
718.74477	0.03293
717.45901	0.03281
716.17324	0.03276
714.88747	0.03272
713.60170	0.03270
712.31593	0.03269
711.03016	0.03270
709.74439	0.03271
708.45862	0.03271
707.17285	0.03267
705.88709	0.03261
704.60132	0.03252
703.31555	0.03245
702.02978	0.03242
700.74401	0.03242
699.45824	0.03242
698.17247	0.03241
696.88670	0.03233
695.60094	0.03219
694.31517	0.03200
693.02940	0.03185
691.74363	0.03175
690.45786	0.03170
689.17209	0.03163
687.88632	0.03151
686.60055	0.03132
685.31478	0.03110
684.02902	0.03090
682.74325	0.03076
681.45748	0.03069
680.17171	0.03068
678.88594	0.03071
677.60017	0.03076
676.31440	0.03081
675.02863	0.03080
673.74287	0.03052
672.45710	0.02977
671.17133	0.02909
669.88556	0.02997
668.59979	0.03223
667.31402	0.03194
666.02825	0.02992
664.74248	0.02958
663.45671	0.03023
662.17095	0.03057
660.88518	0.03049
659.59941	0.03024
658.31364	0.03000
657.02787	0.02982
655.74210	0.02971
654.45633	0.02963
653.17056	0.02958
651.88480	0.02955
650.59903	0.02959
649.31326	0.02970
648.02749	0.02978
646.74172	0.02981
645.45595	0.02984
644.17018	0.02990
642.88441	0.03007
641.59864	0.03033
640.31288	0.03061
639.02711	0.03084
637.74134	0.03102
636.45557	0.03121
635.16980	0.03146
633.88403	0.03183
632.59826	0.03237
631.31249	0.03322
630.02673	0.03446
628.74096	0.03535
627.45519	0.03500
626.16942	0.03668
624.88365	0.03988
623.59788	0.04340
622.31211	0.04647
621.02634	0.04847
619.74057	0.04941
618.45481	0.05019
617.16904	0.05200
615.88327	0.05558
614.59750	0.06080
613.31173	0.06696
612.02596	0.07342
610.74019	0.08006
609.45442	0.08681
608.16866	0.09305
606.88289	0.09795
605.59712	0.10143
604.31135	0.10399
603.02558	0.10588
601.73981	0.10673
600.45404	0.10591
599.16827	0.10337
597.88250	0.09971
596.59674	0.09575
595.31097	0.09204
594.02520	0.08876
592.73943	0.08596
591.45366	0.08372
590.16789	0.08219
588.88212	0.08149
587.59635	0.08161
586.31059	0.08243
585.02482	0.08381
583.73905	0.08569
582.45328	0.08806
581.16751	0.09088
579.88174	0.09402
578.59597	0.09726
577.31020	0.10040
576.02443	0.10331
574.73867	0.10598
573.45290	0.10854
572.16713	0.11122
570.88136	0.11427
569.59559	0.11788
568.30982	0.12213
567.02405	0.12687
565.73828	0.13170
564.45251	0.13599
563.16675	0.13909
561.88098	0.14054
560.59521	0.14004
559.30944	0.13746
558.02367	0.13288
556.73790	0.12672
555.45213	0.11958
554.16636	0.11217
552.88060	0.10507
551.59483	0.09858
550.30906	0.09271
549.02329	0.08734
547.73752	0.08238
546.45175	0.07784
545.16598	0.07374
543.88021	0.07014
542.59444	0.06707
541.30868	0.06451
540.02291	0.06231
538.73714	0.06023
537.45137	0.05811
536.16560	0.05600
534.87983	0.05405
533.59406	0.05236
532.30829	0.05087
531.02253	0.04945
529.73676	0.04801
528.45099	0.04657
527.16522	0.04520
525.87945	0.04402
524.59368	0.04308
523.30791	0.04235
522.02214	0.04172
520.73637	0.04109
519.45061	0.04034
518.16484	0.03945
516.87907	0.03852
515.59330	0.03769
514.30753	0.03704
513.02176	0.03648
511.73599	0.03589
510.45022	0.03521
509.16446	0.03450
507.87869	0.03381
506.59292	0.03321
505.30715	0.03271
504.02138	0.03231
502.73561	0.03197
501.44984	0.03161
500.16407	0.03121
498.87830	0.03079
497.59254	0.03036
496.30677	0.02997
495.02100	0.02962
493.73523	0.02934
492.44946	0.02915
491.16369	0.02904
489.87792	0.02897
488.59215	0.02886
487.30639	0.02866
486.02062	0.02835
484.73485	0.02803
483.44908	0.02784
482.16331	0.02783
480.87754	0.02794
479.59177	0.02803
478.30600	0.02809
477.02023	0.02818
475.73447	0.02838
474.44870	0.02869
473.16293	0.02904
471.87716	0.02933
470.59139	0.02945
469.30562	0.02936
468.01985	0.02913
466.73408	0.02885
465.44832	0.02856
464.16255	0.02822
462.87678	0.02782
461.59101	0.02738
460.30524	0.02695
459.01947	0.02654
457.73370	0.02611
456.44793	0.02571
455.16216	0.02540
453.87640	0.02523
452.59063	0.02514
451.30486	0.02499
450.01909	0.02472
448.73332	0.02437
447.44755	0.02406
446.16178	0.02387
444.87601	0.02380
443.59025	0.02379
442.30448	0.02375
441.01871	0.02362
439.73294	0.02341
438.44717	0.02318
437.16140	0.02299
435.87563	0.02286
434.58986	0.02275
433.30409	0.02267
432.01833	0.02266
430.73256	0.02274
429.44679	0.02283
428.16102	0.02286
426.87525	0.02278
425.58948	0.02263
424.30371	0.02248
423.01794	0.02237
421.73218	0.02228
420.44641	0.02220
419.16064	0.02210
417.87487	0.02197
416.58910	0.02181
415.30333	0.02164
414.01756	0.02155
412.73179	0.02157
411.44602	0.02167
410.16026	0.02181
408.87449	0.02196
407.58872	0.02209
406.30295	0.02221
405.01718	0.02230
403.73141	0.02239
402.44564	0.02250
401.15987	0.02263
399.87411	0.02274
