3997.45528	0.05252
3996.16951	0.05350
3994.88374	0.05381
3993.59798	0.05337
3992.31221	0.05270
3991.02644	0.05229
3989.74067	0.05233
3988.45490	0.05272
3987.16913	0.05316
3985.88336	0.05332
3984.59759	0.05300
3983.31183	0.05227
3982.02606	0.05131
3980.74029	0.05030
3979.45452	0.04941
3978.16875	0.04877
3976.88298	0.04847
3975.59721	0.04868
3974.31144	0.04953
3973.02567	0.05084
3971.73991	0.05208
3970.45414	0.05279
3969.16837	0.05295
3967.88260	0.05291
3966.59683	0.05289
3965.31106	0.05290
3964.02529	0.05286
3962.73952	0.05272
3961.45376	0.05237
3960.16799	0.05176
3958.88222	0.05102
3957.59645	0.05048
3956.31068	0.05040
3955.02491	0.05080
3953.73914	0.05136
3952.45337	0.05163
3951.16760	0.05140
3949.88184	0.05088
3948.59607	0.05055
3947.31030	0.05066
3946.02453	0.05112
3944.73876	0.05172
3943.45299	0.05220
3942.16722	0.05238
3940.88145	0.05215
3939.59569	0.05163
3938.30992	0.05109
3937.02415	0.05073
3935.73838	0.05065
3934.45261	0.05084
3933.16684	0.05124
3931.88107	0.05170
3930.59530	0.05197
3929.30953	0.05182
3928.02377	0.05131
3926.73800	0.05081
3925.45223	0.05057
3924.16646	0.05042
3922.88069	0.05008
3921.59492	0.04965
3920.30915	0.04948
3919.02338	0.04976
3917.73762	0.05022
3916.45185	0.05041
3915.16608	0.05020
3913.88031	0.04990
3912.59454	0.04969
3911.30877	0.04942
3910.02300	0.04889
3908.73723	0.04821
3907.45146	0.04783
3906.16570	0.04806
3904.87993	0.04863
3903.59416	0.04890
3902.30839	0.04862
3901.02262	0.04818
3899.73685	0.04811
3898.45108	0.04840
3897.16531	0.04862
3895.87955	0.04838
3894.59378	0.04783
3893.30801	0.04752
3892.02224	0.04770
3890.73647	0.04797
3889.45070	0.04793
3888.16493	0.04783
3886.87916	0.04794
3885.59339	0.04805
3884.30763	0.04794
3883.02186	0.04787
3881.73609	0.04824
3880.45032	0.04900
3879.16455	0.04983
3877.87878	0.05048
3876.59301	0.05076
3875.30724	0.05040
3874.02148	0.04948
3872.73571	0.04871
3871.44994	0.04872
3870.16417	0.04913
3868.87840	0.04911
3867.59263	0.04862
3866.30686	0.04813
3865.02109	0.04774
3863.73532	0.04731
3862.44956	0.04696
3861.16379	0.04688
3859.87802	0.04694
3858.59225	0.04682
3857.30648	0.04664
3856.02071	0.04679
3854.73494	0.04731
3853.44917	0.04759
3852.16341	0.04732
3850.87764	0.04685
3849.59187	0.04659
3848.30610	0.04651
3847.02033	0.04651
3845.73456	0.04644
3844.44879	0.04619
3843.16302	0.04576
3841.87725	0.04538
3840.59149	0.04544
3839.30572	0.04594
3838.01995	0.04642
3836.73418	0.04639
3835.44841	0.04589
3834.16264	0.04519
3832.87687	0.04443
3831.59110	0.04384
3830.30534	0.04381
3829.01957	0.04458
3827.73380	0.04576
3826.44803	0.04657
3825.16226	0.04664
3823.87649	0.04642
3822.59072	0.04635
3821.30495	0.04631
3820.01918	0.04614
3818.73342	0.04632
3817.44765	0.04720
3816.16188	0.04817
3814.87611	0.04847
3813.59034	0.04815
3812.30457	0.04752
3811.01880	0.04663
3809.73303	0.04567
3808.44726	0.04504
3807.16150	0.04478
3805.87573	0.04464
3804.58996	0.04483
3803.30419	0.04565
3802.01842	0.04664
3800.73265	0.04697
3799.44688	0.04659
3798.16111	0.04611
3796.87535	0.04576
3795.58958	0.04529
3794.30381	0.04468
3793.01804	0.04423
3791.73227	0.04409
3790.44650	0.04415
3789.16073	0.04421
3787.87496	0.04418
3786.58919	0.04417
3785.30343	0.04430
3784.01766	0.04458
3782.73189	0.04482
3781.44612	0.04479
3780.16035	0.04433
3778.87458	0.04354
3777.58881	0.04291
3776.30304	0.04285
3775.01728	0.04333
3773.73151	0.04401
3772.44574	0.04470
3771.15997	0.04538
3769.87420	0.04590
3768.58843	0.04610
3767.30266	0.04598
3766.01689	0.04552
3764.73112	0.04467
3763.44536	0.04365
3762.15959	0.04303
3760.87382	0.04315
3759.58805	0.04382
3758.30228	0.04442
3757.01651	0.04433
3755.73074	0.04351
3754.44497	0.04265
3753.15921	0.04240
3751.87344	0.04272
3750.58767	0.04302
3749.30190	0.04279
3748.01613	0.04230
3746.73036	0.04265
3745.44459	0.04409
3744.15882	0.04530
3742.87305	0.04524
3741.58729	0.04449
3740.30152	0.04393
3739.01575	0.04383
3737.72998	0.04402
3736.44421	0.04414
3735.15844	0.04408
3733.87267	0.04410
3732.58690	0.04449
3731.30114	0.04496
3730.01537	0.04512
3728.72960	0.04503
3727.44383	0.04474
3726.15806	0.04414
3724.87229	0.04330
3723.58652	0.04245
3722.30075	0.04199
3721.01498	0.04214
3719.72922	0.04265
3718.44345	0.04309
3717.15768	0.04310
3715.87191	0.04283
3714.58614	0.04280
3713.30037	0.04314
3712.01460	0.04360
3710.72883	0.04369
3709.44307	0.04327
3708.15730	0.04289
3706.87153	0.04287
3705.58576	0.04332
3704.29999	0.04402
3703.01422	0.04453
3701.72845	0.04457
3700.44268	0.04425
3699.15691	0.04402
3697.87115	0.04424
3696.58538	0.04474
3695.29961	0.04508
3694.01384	0.04489
3692.72807	0.04425
3691.44230	0.04345
3690.15653	0.04273
3688.87076	0.04210
3687.58500	0.04144
3686.29923	0.04099
3685.01346	0.04129
3683.72769	0.04236
3682.44192	0.04376
3681.15615	0.04497
3679.87038	0.04547
3678.58461	0.04528
3677.29884	0.04498
3676.01308	0.04479
3674.72731	0.04442
3673.44154	0.04383
3672.15577	0.04334
3670.87000	0.04290
3669.58423	0.04226
3668.29846	0.04171
3667.01269	0.04173
3665.72693	0.04231
3664.44116	0.04317
3663.15539	0.04407
3661.86962	0.04486
3660.58385	0.04533
3659.29808	0.04533
3658.01231	0.04489
3656.72654	0.04410
3655.44077	0.04314
3654.15501	0.04247
3652.86924	0.04246
3651.58347	0.04306
3650.29770	0.04382
3649.01193	0.04453
3647.72616	0.04524
3646.44039	0.04603
3645.15462	0.04681
3643.86886	0.04746
3642.58309	0.04777
3641.29732	0.04766
3640.01155	0.04722
3638.72578	0.04670
3637.44001	0.04645
3636.15424	0.04671
3634.86847	0.04730
3633.58270	0.04780
3632.29694	0.04802
3631.01117	0.04820
3629.72540	0.04856
3628.43963	0.04874
3627.15386	0.04847
3625.86809	0.04787
3624.58232	0.04735
3623.29655	0.04722
3622.01079	0.04796
3620.72502	0.04958
3619.43925	0.05156
3618.15348	0.05309
3616.86771	0.05379
3615.58194	0.05391
3614.29617	0.05379
3613.01040	0.05359
3611.72463	0.05335
3610.43887	0.05322
3609.15310	0.05319
3607.86733	0.05316
3606.58156	0.05312
3605.29579	0.05321
3604.01002	0.05355
3602.72425	0.05408
3601.43848	0.05470
3600.15272	0.05519
3598.86695	0.05530
3597.58118	0.05501
3596.29541	0.05478
3595.00964	0.05483
3593.72387	0.05519
3592.43810	0.05584
3591.15233	0.05652
3589.86656	0.05707
3588.58080	0.05746
3587.29503	0.05759
3586.00926	0.05756
3584.72349	0.05760
3583.43772	0.05780
3582.15195	0.05815
3580.86618	0.05869
3579.58041	0.05935
3578.29464	0.06007
3577.00888	0.06077
3575.72311	0.06138
3574.43734	0.06174
3573.15157	0.06176
3571.86580	0.06161
3570.58003	0.06168
3569.29426	0.06222
3568.00849	0.06289
3566.72273	0.06315
3565.43696	0.06285
3564.15119	0.06241
3562.86542	0.06235
3561.57965	0.06285
3560.29388	0.06367
3559.00811	0.06451
3557.72234	0.06528
3556.43657	0.06599
3555.15081	0.06664
3553.86504	0.06718
3552.57927	0.06751
3551.29350	0.06760
3550.00773	0.06756
3548.72196	0.06756
3547.43619	0.06770
3546.15042	0.06800
3544.86466	0.06840
3543.57889	0.06886
3542.29312	0.06935
3541.00735	0.06985
3539.72158	0.07030
3538.43581	0.07058
3537.15004	0.07060
3535.86427	0.07043
3534.57850	0.07033
3533.29274	0.07057
3532.00697	0.07125
3530.72120	0.07219
3529.43543	0.07299
3528.14966	0.07332
3526.86389	0.07318
3525.57812	0.07293
3524.29235	0.07293
3523.00659	0.07318
3521.72082	0.07340
3520.43505	0.07339
3519.14928	0.07315
3517.86351	0.07292
3516.57774	0.07293
3515.29197	0.07335
3514.00620	0.07408
3512.72043	0.07472
3511.43467	0.07484
3510.14890	0.07431
3508.86313	0.07340
3507.57736	0.07267
3506.29159	0.07257
3505.00582	0.07314
3503.72005	0.07402
3502.43428	0.07479
3501.14852	0.07529
3499.86275	0.07565
3498.57698	0.07605
3497.29121	0.07647
3496.00544	0.07677
3494.71967	0.07689
3493.43390	0.07689
3492.14813	0.07688
3490.86236	0.07695
3489.57660	0.07718
3488.29083	0.07757
3487.00506	0.07800
3485.71929	0.07832
3484.43352	0.07850
3483.14775	0.07872
3481.86198	0.07911
3480.57621	0.07962
3479.29045	0.08008
3478.00468	0.08040
3476.71891	0.08065
3475.43314	0.08092
3474.14737	0.08119
3472.86160	0.08137
3471.57583	0.08138
3470.29006	0.08127
3469.00429	0.08126
3467.71853	0.08148
3466.43276	0.08175
3465.14699	0.08179
3463.86122	0.08156
3462.57545	0.08134
3461.28968	0.08140
3460.00391	0.08179
3458.71814	0.08234
3457.43238	0.08287
3456.14661	0.08324
3454.86084	0.08340
3453.57507	0.08337
3452.28930	0.08329
3451.00353	0.08336
3449.71776	0.08370
3448.43199	0.08426
3447.14622	0.08487
3445.86046	0.08539
3444.57469	0.08578
3443.28892	0.08608
3442.00315	0.08635
3440.71738	0.08660
3439.43161	0.08675
3438.14584	0.08660
3436.86007	0.08604
3435.57431	0.08524
3434.28854	0.08465
3433.00277	0.08459
3431.71700	0.08496
3430.43123	0.08540
3429.14546	0.08573
3427.85969	0.08616
3426.57392	0.08691
3425.28815	0.08778
3424.00239	0.08826
3422.71662	0.08811
3421.43085	0.08768
3420.14508	0.08760
3418.85931	0.08810
3417.57354	0.08877
3416.28777	0.08898
3415.00200	0.08854
3413.71624	0.08789
3412.43047	0.08757
3411.14470	0.08776
3409.85893	0.08819
3408.57316	0.08861
3407.28739	0.08901
3406.00162	0.08950
3404.71585	0.09005
3403.43008	0.09048
3402.14432	0.09072
3400.85855	0.09084
3399.57278	0.09091
3398.28701	0.09094
3397.00124	0.09094
3395.71547	0.09097
3394.42970	0.09106
3393.14393	0.09113
3391.85817	0.09108
3390.57240	0.09096
3389.28663	0.09093
3388.00086	0.09103
3386.71509	0.09119
3385.42932	0.09134
3384.14355	0.09154
3382.85778	0.09183
3381.57201	0.09212
3380.28625	0.09226
3379.00048	0.09224
3377.71471	0.09211
3376.42894	0.09186
3375.14317	0.09151
3373.85740	0.09119
3372.57163	0.09112
3371.28586	0.09131
3370.00010	0.09142
3368.71433	0.09108
3367.42856	0.09026
3366.14279	0.08933
3364.85702	0.08877
3363.57125	0.08879
3362.28548	0.08922
3360.99971	0.08971
3359.71394	0.09005
3358.42818	0.09021
3357.14241	0.09033
3355.85664	0.09049
3354.57087	0.09071
3353.28510	0.09100
3351.99933	0.09144
3350.71356	0.09200
3349.42779	0.09249
3348.14202	0.09262
3346.85626	0.09229
3345.57049	0.09170
3344.28472	0.09117
3342.99895	0.09099
3341.71318	0.09122
3340.42741	0.09168
3339.14164	0.09200
3337.85587	0.09191
3336.57011	0.09146
3335.28434	0.09100
3333.99857	0.09089
3332.71280	0.09107
3331.42703	0.09109
3330.14126	0.09059
3328.85549	0.08971
3327.56972	0.08898
3326.28395	0.08882
3324.99819	0.08918
3323.71242	0.08977
3322.42665	0.09031
3321.14088	0.09073
3319.85511	0.09101
3318.56934	0.09112
3317.28357	0.09104
3315.99780	0.09087
3314.71204	0.09065
3313.42627	0.09037
3312.14050	0.09000
3310.85473	0.08957
3309.56896	0.08918
3308.28319	0.08896
3306.99742	0.08901
3305.71165	0.08933
3304.42588	0.08978
3303.14012	0.09021
3301.85435	0.09055
3300.56858	0.09068
3299.28281	0.09054
3297.99704	0.09011
3296.71127	0.08952
3295.42550	0.08892
3294.13973	0.08840
3292.85397	0.08806
3291.56820	0.08802
3290.28243	0.08831
3288.99666	0.08878
3287.71089	0.08910
3286.42512	0.08899
3285.13935	0.08848
3283.85358	0.08785
3282.56781	0.08747
3281.28205	0.08751
3279.99628	0.08789
3278.71051	0.08834
3277.42474	0.08853
3276.13897	0.08836
3274.85320	0.08800
3273.56743	0.08777
3272.28166	0.08784
3270.99590	0.08813
3269.71013	0.08840
3268.42436	0.08846
3267.13859	0.08832
3265.85282	0.08814
3264.56705	0.08810
3263.28128	0.08821
3261.99551	0.08829
3260.70974	0.08821
3259.42398	0.08794
3258.13821	0.08761
3256.85244	0.08740
3255.56667	0.08736
3254.28090	0.08745
3252.99513	0.08759
3251.70936	0.08772
3250.42359	0.08790
3249.13783	0.08813
3247.85206	0.08831
3246.56629	0.08831
3245.28052	0.08806
3243.99475	0.08770
3242.70898	0.08747
3241.42321	0.08746
3240.13744	0.08745
3238.85167	0.08718
3237.56591	0.08668
3236.28014	0.08626
3234.99437	0.08617
3233.70860	0.08634
3232.42283	0.08649
3231.13706	0.08640
3229.85129	0.08609
3228.56552	0.08574
3227.27976	0.08560
3225.99399	0.08578
3224.70822	0.08605
3223.42245	0.08603
3222.13668	0.08564
3220.85091	0.08523
3219.56514	0.08522
3218.27937	0.08558
3216.99360	0.08588
3215.70784	0.08567
3214.42207	0.08498
3213.13630	0.08420
3211.85053	0.08367
3210.56476	0.08344
3209.27899	0.08330
3207.99322	0.08315
3206.70745	0.08310
3205.42169	0.08325
3204.13592	0.08356
3202.85015	0.08387
3201.56438	0.08402
3200.27861	0.08394
3198.99284	0.08367
3197.70707	0.08338
3196.42130	0.08329
3195.13553	0.08345
3193.84977	0.08378
3192.56400	0.08411
3191.27823	0.08431
3189.99246	0.08425
3188.70669	0.08389
3187.42092	0.08334
3186.13515	0.08276
3184.84938	0.08227
3183.56362	0.08194
3182.27785	0.08176
3180.99208	0.08159
3179.70631	0.08125
3178.42054	0.08071
3177.13477	0.08019
3175.84900	0.08002
3174.56323	0.08031
3173.27746	0.08087
3171.99170	0.08142
3170.70593	0.08169
3169.42016	0.08156
3168.13439	0.08110
3166.84862	0.08049
3165.56285	0.07987
3164.27708	0.07925
3162.99131	0.07865
3161.70555	0.07822
3160.41978	0.07814
3159.13401	0.07843
3157.84824	0.07889
3156.56247	0.07926
3155.27670	0.07933
3153.99093	0.07912
3152.70516	0.07881
3151.41939	0.07862
3150.13363	0.07861
3148.84786	0.07866
3147.56209	0.07864
3146.27632	0.07857
3144.99055	0.07857
3143.70478	0.07865
3142.41901	0.07868
3141.13324	0.07846
3139.84748	0.07800
3138.56171	0.07748
3137.27594	0.07715
3135.99017	0.07708
3134.70440	0.07715
3133.41863	0.07715
3132.13286	0.07698
3130.84709	0.07669
3129.56132	0.07638
3128.27556	0.07617
3126.98979	0.07613
3125.70402	0.07628
3124.41825	0.07650
3123.13248	0.07656
3121.84671	0.07630
3120.56094	0.07576
3119.27517	0.07514
3117.98940	0.07467
3116.70364	0.07447
3115.41787	0.07450
3114.13210	0.07462
3112.84633	0.07475
3111.56056	0.07485
3110.27479	0.07481
3108.98902	0.07452
3107.70325	0.07405
3106.41749	0.07367
3105.13172	0.07361
3103.84595	0.07386
3102.56018	0.07418
3101.27441	0.07433
3099.98864	0.07421
3098.70287	0.07386
3097.41710	0.07343
3096.13133	0.07308
3094.84557	0.07284
3093.55980	0.07263
3092.27403	0.07234
3090.98826	0.07199
3089.70249	0.07166
3088.41672	0.07148
3087.13095	0.07153
3085.84518	0.07174
3084.55942	0.07194
3083.27365	0.07201
3081.98788	0.07194
3080.70211	0.07184
3079.41634	0.07175
3078.13057	0.07159
3076.84480	0.07126
3075.55903	0.07077
3074.27326	0.07026
3072.98750	0.06987
3071.70173	0.06966
3070.41596	0.06960
3069.13019	0.06959
3067.84442	0.06957
3066.55865	0.06953
3065.27288	0.06958
3063.98711	0.06982
3062.70135	0.07014
3061.41558	0.07035
3060.12981	0.07033
3058.84404	0.07015
3057.55827	0.06993
3056.27250	0.06970
3054.98673	0.06945
3053.70096	0.06918
3052.41519	0.06889
3051.12943	0.06858
3049.84366	0.06824
3048.55789	0.06784
3047.27212	0.06736
3045.98635	0.06683
3044.70058	0.06643
3043.41481	0.06628
3042.12904	0.06630
3040.84328	0.06631
3039.55751	0.06620
3038.27174	0.06609
3036.98597	0.06613
3035.70020	0.06630
3034.41443	0.06649
3033.12866	0.06665
3031.84289	0.06678
3030.55712	0.06685
3029.27136	0.06678
3027.98559	0.06653
3026.69982	0.06622
3025.41405	0.06596
3024.12828	0.06581
3022.84251	0.06573
3021.55674	0.06564
3020.27097	0.06548
3018.98521	0.06521
3017.69944	0.06491
3016.41367	0.06466
3015.12790	0.06449
3013.84213	0.06435
3012.55636	0.06425
3011.27059	0.06421
3009.98482	0.06426
3008.69905	0.06433
3007.41329	0.06426
3006.12752	0.06399
3004.84175	0.06362
3003.55598	0.06331
3002.27021	0.06315
3000.98444	0.06309
2999.69867	0.06302
2998.41290	0.06284
2997.12714	0.06259
2995.84137	0.06246
2994.55560	0.06258
2993.26983	0.06294
2991.98406	0.06342
2990.69829	0.06387
2989.41252	0.06415
2988.12675	0.06415
2986.84098	0.06384
2985.55522	0.06335
2984.26945	0.06295
2982.98368	0.06284
2981.69791	0.06314
2980.41214	0.06378
2979.12637	0.06453
2977.84060	0.06517
2976.55483	0.06570
2975.26907	0.06628
2973.98330	0.06707
2972.69753	0.06808
2971.41176	0.06919
2970.12599	0.07028
2968.84022	0.07137
2967.55445	0.07247
2966.26868	0.07359
2964.98291	0.07470
2963.69715	0.07579
2962.41138	0.07688
2961.12561	0.07798
2959.83984	0.07905
2958.55407	0.08007
2957.26830	0.08113
2955.98253	0.08231
2954.69676	0.08350
2953.41100	0.08444
2952.12523	0.08483
2950.83946	0.08462
2949.55369	0.08396
2948.26792	0.08314
2946.98215	0.08238
2945.69638	0.08183
2944.41061	0.08151
2943.12484	0.08142
2941.83908	0.08151
2940.55331	0.08179
2939.26754	0.08231
2937.98177	0.08311
2936.69600	0.08414
2935.41023	0.08524
2934.12446	0.08629
2932.83869	0.08726
2931.55293	0.08823
2930.26716	0.08915
2928.98139	0.08996
2927.69562	0.09054
2926.40985	0.09085
2925.12408	0.09092
2923.83831	0.09083
2922.55254	0.09063
2921.26677	0.09027
2919.98101	0.08962
2918.69524	0.08863
2917.40947	0.08751
2916.12370	0.08656
2914.83793	0.08586
2913.55216	0.08511
2912.26639	0.08398
2910.98062	0.08251
2909.69486	0.08108
2908.40909	0.07998
2907.12332	0.07919
2905.83755	0.07855
2904.55178	0.07800
2903.26601	0.07755
2901.98024	0.07712
2900.69447	0.07659
2899.40870	0.07589
2898.12294	0.07513
2896.83717	0.07441
2895.55140	0.07372
2894.26563	0.07301
2892.97986	0.07226
2891.69409	0.07157
2890.40832	0.07103
2889.12255	0.07057
2887.83678	0.07007
2886.55102	0.06949
2885.26525	0.06894
2883.97948	0.06851
2882.69371	0.06826
2881.40794	0.06819
2880.12217	0.06826
2878.83640	0.06843
2877.55063	0.06868
2876.26487	0.06901
2874.97910	0.06945
2873.69333	0.06998
2872.40756	0.07048
2871.12179	0.07088
2869.83602	0.07116
2868.55025	0.07133
2867.26448	0.07138
2865.97871	0.07134
2864.69295	0.07126
2863.40718	0.07120
2862.12141	0.07108
2860.83564	0.07086
2859.54987	0.07054
2858.26410	0.07022
2856.97833	0.06998
2855.69256	0.06981
2854.40680	0.06965
2853.12103	0.06949
2851.83526	0.06929
2850.54949	0.06892
2849.26372	0.06825
2847.97795	0.06729
2846.69218	0.06618
2845.40641	0.06508
2844.12064	0.06403
2842.83488	0.06299
2841.54911	0.06191
2840.26334	0.06082
2838.97757	0.05978
2837.69180	0.05883
2836.40603	0.05793
2835.12026	0.05704
2833.83449	0.05617
2832.54873	0.05539
2831.26296	0.05482
2829.97719	0.05449
2828.69142	0.05435
2827.40565	0.05418
2826.11988	0.05374
2824.83411	0.05302
2823.54834	0.05228
2822.26257	0.05185
2820.97681	0.05169
2819.69104	0.05151
2818.40527	0.05111
2817.11950	0.05059
2815.83373	0.05019
2814.54796	0.05006
2813.26219	0.05015
2811.97642	0.05033
2810.69066	0.05044
2809.40489	0.05036
2808.11912	0.05010
2806.83335	0.04981
2805.54758	0.04958
2804.26181	0.04939
2802.97604	0.04918
2801.69027	0.04901
2800.40450	0.04898
2799.11874	0.04906
2797.83297	0.04910
2796.54720	0.04902
2795.26143	0.04884
2793.97566	0.04862
2792.68989	0.04837
2791.40412	0.04808
2790.11835	0.04775
2788.83259	0.04741
2787.54682	0.04714
2786.26105	0.04699
2784.97528	0.04696
2783.68951	0.04696
2782.40374	0.04691
2781.11797	0.04680
2779.83220	0.04669
2778.54643	0.04668
2777.26067	0.04679
2775.97490	0.04699
2774.68913	0.04718
2773.40336	0.04732
2772.11759	0.04735
2770.83182	0.04726
2769.54605	0.04702
2768.26028	0.04667
2766.97452	0.04630
2765.68875	0.04595
2764.40298	0.04566
2763.11721	0.04544
2761.83144	0.04533
2760.54567	0.04528
2759.25990	0.04520
2757.97413	0.04504
2756.68836	0.04483
2755.40260	0.04461
2754.11683	0.04434
2752.83106	0.04398
2751.54529	0.04364
2750.25952	0.04349
2748.97375	0.04362
2747.68798	0.04393
2746.40221	0.04419
2745.11645	0.04427
2743.83068	0.04420
2742.54491	0.04412
2741.25914	0.04409
2739.97337	0.04409
2738.68760	0.04406
2737.40183	0.04401
2736.11606	0.04396
2734.83029	0.04389
2733.54453	0.04377
2732.25876	0.04364
2730.97299	0.04352
2729.68722	0.04341
2728.40145	0.04325
2727.11568	0.04303
2725.82991	0.04282
2724.54414	0.04271
2723.25838	0.04277
2721.97261	0.04300
2720.68684	0.04327
2719.40107	0.04342
2718.11530	0.04336
2716.82953	0.04320
2715.54376	0.04306
2714.25799	0.04301
2712.97222	0.04296
2711.68646	0.04282
2710.40069	0.04257
2709.11492	0.04230
2707.82915	0.04210
2706.54338	0.04192
2705.25761	0.04171
2703.97184	0.04150
2702.68607	0.04140
2701.40031	0.04150
2700.11454	0.04173
2698.82877	0.04192
2697.54300	0.04197
2696.25723	0.04186
2694.97146	0.04166
2693.68569	0.04148
2692.39992	0.04131
2691.11415	0.04110
2689.82839	0.04088
2688.54262	0.04075
2687.25685	0.04075
2685.97108	0.04079
2684.68531	0.04072
2683.39954	0.04050
2682.11377	0.04027
2680.82800	0.04012
2679.54224	0.04008
2678.25647	0.04007
2676.97070	0.04002
2675.68493	0.03990
2674.39916	0.03976
2673.11339	0.03966
2671.82762	0.03967
2670.54185	0.03974
2669.25608	0.03977
2667.97032	0.03969
2666.68455	0.03951
2665.39878	0.03934
2664.11301	0.03929
2662.82724	0.03939
2661.54147	0.03958
2660.25570	0.03976
2658.96993	0.03982
2657.68417	0.03975
2656.39840	0.03957
2655.11263	0.03938
2653.82686	0.03924
2652.54109	0.03914
2651.25532	0.03904
2649.96955	0.03889
2648.68378	0.03868
2647.39801	0.03845
2646.11225	0.03820
2644.82648	0.03799
2643.54071	0.03788
2642.25494	0.03786
2640.96917	0.03784
2639.68340	0.03772
2638.39763	0.03749
2637.11186	0.03722
2635.82609	0.03699
2634.54033	0.03685
2633.25456	0.03674
2631.96879	0.03661
2630.68302	0.03644
2629.39725	0.03632
2628.11148	0.03630
2626.82571	0.03634
2625.53994	0.03626
2624.25418	0.03591
2622.96841	0.03534
2621.68264	0.03481
2620.39687	0.03467
2619.11110	0.03495
2617.82533	0.03530
2616.53956	0.03533
2615.25379	0.03496
2613.96802	0.03447
2612.68226	0.03408
2611.39649	0.03382
2610.11072	0.03360
2608.82495	0.03337
2607.53918	0.03321
2606.25341	0.03316
2604.96764	0.03326
2603.68187	0.03347
2602.39611	0.03376
2601.11034	0.03403
2599.82457	0.03416
2598.53880	0.03413
2597.25303	0.03396
2595.96726	0.03362
2594.68149	0.03310
2593.39572	0.03255
2592.10995	0.03225
2590.82419	0.03230
2589.53842	0.03250
2588.25265	0.03258
2586.96688	0.03248
2585.68111	0.03240
2584.39534	0.03250
2583.10957	0.03278
2581.82380	0.03303
2580.53804	0.03298
2579.25227	0.03248
2577.96650	0.03166
2576.68073	0.03094
2575.39496	0.03069
2574.10919	0.03084
2572.82342	0.03096
2571.53765	0.03076
2570.25188	0.03041
2568.96612	0.03029
2567.68035	0.03055
2566.39458	0.03105
2565.10881	0.03149
2563.82304	0.03170
2562.53727	0.03165
2561.25150	0.03145
2559.96573	0.03122
2558.67997	0.03105
2557.39420	0.03094
2556.10843	0.03079
2554.82266	0.03058
2553.53689	0.03040
2552.25112	0.03035
2550.96535	0.03035
2549.67958	0.03023
2548.39381	0.03001
2547.10805	0.02989
2545.82228	0.02999
2544.53651	0.03020
2543.25074	0.03045
2541.96497	0.03072
2540.67920	0.03099
2539.39343	0.03116
2538.10766	0.03111
2536.82190	0.03083
2535.53613	0.03046
2534.25036	0.03016
2532.96459	0.02994
2531.67882	0.02974
2530.39305	0.02951
2529.10728	0.02935
2527.82151	0.02928
2526.53574	0.02917
2525.24998	0.02889
2523.96421	0.02851
2522.67844	0.02828
2521.39267	0.02834
2520.10690	0.02859
2518.82113	0.02886
2517.53536	0.02899
2516.24959	0.02895
2514.96383	0.02878
2513.67806	0.02859
2512.39229	0.02848
2511.10652	0.02850
2509.82075	0.02863
2508.53498	0.02875
2507.24921	0.02878
2505.96344	0.02870
2504.67767	0.02864
2503.39191	0.02867
2502.10614	0.02872
2500.82037	0.02863
2499.53460	0.02835
2498.24883	0.02803
2496.96306	0.02796
2495.67729	0.02820
2494.39152	0.02854
2493.10576	0.02862
2491.81999	0.02826
2490.53422	0.02761
2489.24845	0.02696
2487.96268	0.02660
2486.67691	0.02665
2485.39114	0.02701
2484.10537	0.02736
2482.81960	0.02740
2481.53384	0.02720
2480.24807	0.02703
2478.96230	0.02703
2477.67653	0.02709
2476.39076	0.02715
2475.10499	0.02739
2473.81922	0.02799
2472.53345	0.02875
2471.24769	0.02917
2469.96192	0.02895
2468.67615	0.02822
2467.39038	0.02749
2466.10461	0.02713
2464.81884	0.02715
2463.53307	0.02735
2462.24730	0.02751
2460.96153	0.02756
2459.67577	0.02753
2458.39000	0.02751
2457.10423	0.02765
2455.81846	0.02795
2454.53269	0.02830
2453.24692	0.02851
2451.96115	0.02847
2450.67538	0.02825
2449.38962	0.02806
2448.10385	0.02804
2446.81808	0.02811
2445.53231	0.02804
2444.24654	0.02774
2442.96077	0.02726
2441.67500	0.02674
2440.38923	0.02631
2439.10346	0.02607
2437.81770	0.02604
2436.53193	0.02616
2435.24616	0.02630
2433.96039	0.02637
2432.67462	0.02632
2431.38885	0.02613
2430.10308	0.02587
2428.81731	0.02566
2427.53155	0.02563
2426.24578	0.02574
2424.96001	0.02582
2423.67424	0.02576
2422.38847	0.02567
2421.10270	0.02575
2419.81693	0.02601
2418.53116	0.02627
2417.24539	0.02638
2415.95963	0.02641
2414.67386	0.02648
2413.38809	0.02655
2412.10232	0.02650
2410.81655	0.02627
2409.53078	0.02602
2408.24501	0.02592
2406.95924	0.02601
2405.67347	0.02613
2404.38771	0.02607
2403.10194	0.02573
2401.81617	0.02519
2400.53040	0.02469
2399.24463	0.02435
2397.95886	0.02440
2396.67309	0.02478
2395.38732	0.02523
2394.10156	0.02558
2392.81579	0.02573
2391.53002	0.02568
2390.24425	0.02551
2388.95848	0.02535
2387.67271	0.02536
2386.38694	0.02567
2385.10117	0.02626
2383.81540	0.02701
2382.52964	0.02774
2381.24387	0.02833
2379.95810	0.02862
2378.67233	0.02869
2377.38656	0.02877
2376.10079	0.02867
2374.81502	0.02856
2373.52925	0.02878
2372.24349	0.02922
2370.95772	0.02986
2369.67195	0.03006
2368.38618	0.03008
2367.10041	0.03084
2365.81464	0.03195
2364.52887	0.03219
2363.24310	0.03202
2361.95733	0.03254
2360.67157	0.03348
2359.38580	0.03362
2358.10003	0.03331
2356.81426	0.03295
2355.52849	0.03241
2354.24272	0.03201
2352.95695	0.03194
2351.67118	0.03289
2350.38542	0.03523
2349.09965	0.03638
2347.81388	0.03408
2346.52811	0.03088
2345.24234	0.03016
2343.95657	0.03151
2342.67080	0.03242
2341.38503	0.03250
2340.09926	0.03250
2338.81350	0.03254
2337.52773	0.03279
2336.24196	0.03268
2334.95619	0.03238
2333.67042	0.03215
2332.38465	0.03140
2331.09888	0.03080
2329.81311	0.03109
2328.52735	0.03165
2327.24158	0.03241
2325.95581	0.03292
2324.67004	0.03245
2323.38427	0.03157
2322.09850	0.03089
2320.81273	0.03034
2319.52696	0.03037
2318.24119	0.03082
2316.95543	0.03087
2315.66966	0.03025
2314.38389	0.02929
2313.09812	0.02848
2311.81235	0.02783
2310.52658	0.02720
2309.24081	0.02673
2307.95504	0.02643
2306.66928	0.02627
2305.38351	0.02633
2304.09774	0.02639
2302.81197	0.02631
2301.52620	0.02621
2300.24043	0.02630
2298.95466	0.02654
2297.66889	0.02669
2296.38312	0.02658
2295.09736	0.02619
2293.81159	0.02572
2292.52582	0.02538
2291.24005	0.02517
2289.95428	0.02504
2288.66851	0.02484
2287.38274	0.02448
2286.09697	0.02402
2284.81121	0.02365
2283.52544	0.02348
2282.23967	0.02347
2280.95390	0.02343
2279.66813	0.02317
2278.38236	0.02269
2277.09659	0.02212
2275.81082	0.02168
2274.52505	0.02143
2273.23929	0.02136
2271.95352	0.02149
2270.66775	0.02179
2269.38198	0.02210
2268.09621	0.02223
2266.81044	0.02209
2265.52467	0.02173
2264.23890	0.02130
2262.95314	0.02097
2261.66737	0.02084
2260.38160	0.02082
2259.09583	0.02072
2257.81006	0.02041
2256.52429	0.02004
2255.23852	0.01979
2253.95275	0.01961
2252.66698	0.01923
2251.38122	0.01854
2250.09545	0.01777
2248.80968	0.01736
2247.52391	0.01774
2246.23814	0.01862
2244.95237	0.01957
2243.66660	0.02010
2242.38083	0.01998
2241.09507	0.01940
2239.80930	0.01883
2238.52353	0.01857
2237.23776	0.01847
2235.95199	0.01818
2234.66622	0.01766
2233.38045	0.01722
2232.09468	0.01719
2230.80891	0.01746
2229.52315	0.01769
2228.23738	0.01776
2226.95161	0.01780
2225.66584	0.01777
2224.38007	0.01733
2223.09430	0.01616
2221.80853	0.01454
2220.52276	0.01323
2219.23700	0.01291
2217.95123	0.01360
2216.66546	0.01463
2215.37969	0.01528
2214.09392	0.01533
2212.80815	0.01500
2211.52238	0.01458
2210.23661	0.01415
2208.95084	0.01384
2207.66508	0.01396
2206.37931	0.01465
2205.09354	0.01553
2203.80777	0.01602
2202.52200	0.01590
2201.23623	0.01526
2199.95046	0.01401
2198.66469	0.01203
2197.37893	0.00985
2196.09316	0.00849
2194.80739	0.00848
2193.52162	0.00922
2192.23585	0.00972
2190.95008	0.00970
2189.66431	0.00973
2188.37854	0.01026
2187.09277	0.01110
2185.80701	0.01168
2184.52124	0.01166
2183.23547	0.01121
2181.94970	0.01073
2180.66393	0.01056
2179.37816	0.01077
2178.09239	0.01129
2176.80662	0.01184
2175.52085	0.01201
2174.23509	0.01157
2172.94932	0.01075
2171.66355	0.01009
2170.37778	0.01008
2169.09201	0.01067
2167.80624	0.01125
2166.52047	0.01116
2165.23470	0.01037
2163.94894	0.00944
2162.66317	0.00880
2161.37740	0.00808
2160.09163	0.00665
2158.80586	0.00478
2157.52009	0.00367
2156.23432	0.00392
2154.94855	0.00488
2153.66278	0.00573
2152.37702	0.00647
2151.09125	0.00744
2149.80548	0.00854
2148.51971	0.00938
2147.23394	0.00993
2145.94817	0.01051
2144.66240	0.01119
2143.37663	0.01168
2142.09087	0.01173
2140.80510	0.01149
2139.51933	0.01117
2138.23356	0.01082
2136.94779	0.01033
2135.66202	0.00964
2134.37625	0.00897
2133.09048	0.00867
2131.80471	0.00890
2130.51895	0.00959
2129.23318	0.01051
2127.94741	0.01147
2126.66164	0.01221
2125.37587	0.01254
2124.09010	0.01247
2122.80433	0.01223
2121.51856	0.01212
2120.23280	0.01225
2118.94703	0.01252
2117.66126	0.01274
2116.37549	0.01278
2115.08972	0.01276
2113.80395	0.01290
2112.51818	0.01322
2111.23241	0.01353
2109.94664	0.01357
2108.66088	0.01328
2107.37511	0.01284
2106.08934	0.01244
2104.80357	0.01219
2103.51780	0.01205
2102.23203	0.01190
2100.94626	0.01175
2099.66049	0.01155
2098.37473	0.01151
2097.08896	0.01146
2095.80319	0.01133
2094.51742	0.01133
2093.23165	0.01167
2091.94588	0.01226
2090.66011	0.01277
2089.37434	0.01295
2088.08857	0.01285
2086.80281	0.01266
2085.51704	0.01249
2084.23127	0.01229
2082.94550	0.01197
2081.65973	0.01153
2080.37396	0.01106
2079.08819	0.01065
2077.80242	0.01027
2076.51666	0.00990
2075.23089	0.00961
2073.94512	0.00957
2072.65935	0.00974
2071.37358	0.00986
2070.08781	0.00964
2068.80204	0.00911
2067.51627	0.00846
2066.23050	0.00792
2064.94474	0.00761
2063.65897	0.00760
2062.37320	0.00793
2061.08743	0.00852
2059.80166	0.00906
2058.51589	0.00914
2057.23012	0.00854
2055.94435	0.00746
2054.65859	0.00645
2053.37282	0.00603
2052.08705	0.00625
2050.80128	0.00667
2049.51551	0.00679
2048.22974	0.00640
2046.94397	0.00570
2045.65820	0.00505
2044.37243	0.00461
2043.08667	0.00446
2041.80090	0.00462
2040.51513	0.00501
2039.22936	0.00528
2037.94359	0.00495
2036.65782	0.00393
2035.37205	0.00273
2034.08628	0.00197
2032.80052	0.00182
2031.51475	0.00196
2030.22898	0.00205
2028.94321	0.00205
2027.65744	0.00203
2026.37167	0.00189
2025.08590	0.00158
2023.80013	0.00126
2022.51436	0.00129
2021.22860	0.00189
2019.94283	0.00280
2018.65706	0.00347
2017.37129	0.00353
2016.08552	0.00313
2014.79975	0.00283
2013.51398	0.00310
2012.22821	0.00408
2010.94245	0.00539
2009.65668	0.00637
2008.37091	0.00650
2007.08514	0.00580
2005.79937	0.00487
2004.51360	0.00437
2003.22783	0.00455
2001.94206	0.00525
2000.65629	0.00619
1999.37053	0.00720
1998.08476	0.00813
1996.79899	0.00882
1995.51322	0.00920
1994.22745	0.00933
1992.94168	0.00932
1991.65591	0.00922
1990.37014	0.00906
1989.08438	0.00898
1987.79861	0.00912
1986.51284	0.00949
1985.22707	0.00996
1983.94130	0.01040
1982.65553	0.01060
1981.36976	0.01041
1980.08399	0.00984
1978.79822	0.00916
1977.51246	0.00869
1976.22669	0.00857
1974.94092	0.00879
1973.65515	0.00919
1972.36938	0.00948
1971.08361	0.00935
1969.79784	0.00879
1968.51207	0.00815
1967.22631	0.00781
1965.94054	0.00793
1964.65477	0.00833
1963.36900	0.00869
1962.08323	0.00875
1960.79746	0.00852
1959.51169	0.00830
1958.22592	0.00838
1956.94015	0.00881
1955.65439	0.00938
1954.36862	0.00991
1953.08285	0.01030
1951.79708	0.01045
1950.51131	0.01036
1949.22554	0.01024
1947.93977	0.01045
1946.65400	0.01113
1945.36823	0.01198
1944.08247	0.01254
1942.79670	0.01262
1941.51093	0.01239
1940.22516	0.01213
1938.93939	0.01199
1937.65362	0.01190
1936.36785	0.01177
1935.08208	0.01164
1933.79632	0.01167
1932.51055	0.01192
1931.22478	0.01227
1929.93901	0.01258
1928.65324	0.01281
1927.36747	0.01299
1926.08170	0.01312
1924.79593	0.01315
1923.51016	0.01303
1922.22440	0.01278
1920.93863	0.01255
1919.65286	0.01257
1918.36709	0.01286
1917.08132	0.01321
1915.79555	0.01337
1914.50978	0.01325
1913.22401	0.01299
1911.93825	0.01275
1910.65248	0.01259
1909.36671	0.01252
1908.08094	0.01255
1906.79517	0.01269
1905.50940	0.01286
1904.22363	0.01294
1902.93786	0.01288
1901.65209	0.01282
1900.36633	0.01287
1899.08056	0.01304
1897.79479	0.01328
1896.50902	0.01349
1895.22325	0.01360
1893.93748	0.01358
1892.65171	0.01349
1891.36594	0.01342
1890.08018	0.01337
1888.79441	0.01334
1887.50864	0.01344
1886.22287	0.01373
1884.93710	0.01406
1883.65133	0.01412
1882.36556	0.01381
1881.07979	0.01327
1879.79402	0.01280
1878.50826	0.01260
1877.22249	0.01270
1875.93672	0.01299
1874.65095	0.01328
1873.36518	0.01342
1872.07941	0.01336
1870.79364	0.01322
1869.50787	0.01311
1868.22211	0.01312
1866.93634	0.01331
1865.65057	0.01364
1864.36480	0.01393
1863.07903	0.01402
1861.79326	0.01392
1860.50749	0.01379
1859.22172	0.01376
1857.93595	0.01381
1856.65019	0.01383
1855.36442	0.01377
1854.07865	0.01368
1852.79288	0.01363
1851.50711	0.01363
1850.22134	0.01360
1848.93557	0.01350
1847.64980	0.01341
1846.36404	0.01347
1845.07827	0.01363
1843.79250	0.01370
1842.50673	0.01358
1841.22096	0.01342
1839.93519	0.01339
1838.64942	0.01350
1837.36365	0.01370
1836.07788	0.01394
1834.79212	0.01417
1833.50635	0.01435
1832.22058	0.01446
1830.93481	0.01450
1829.64904	0.01442
1828.36327	0.01426
1827.07750	0.01415
1825.79173	0.01418
1824.50597	0.01429
1823.22020	0.01443
1821.93443	0.01455
1820.64866	0.01455
1819.36289	0.01442
1818.07712	0.01427
1816.79135	0.01425
1815.50558	0.01440
1814.21981	0.01467
1812.93405	0.01494
1811.64828	0.01516
1810.36251	0.01529
1809.07674	0.01535
1807.79097	0.01537
1806.50520	0.01536
1805.21943	0.01533
1803.93366	0.01533
1802.64790	0.01538
1801.36213	0.01545
1800.07636	0.01544
1798.79059	0.01530
1797.50482	0.01505
1796.21905	0.01482
1794.93328	0.01478
1793.64751	0.01496
1792.36174	0.01518
1791.07598	0.01527
1789.79021	0.01524
1788.50444	0.01521
1787.21867	0.01522
1785.93290	0.01525
1784.64713	0.01527
1783.36136	0.01532
1782.07559	0.01546
1780.78983	0.01563
1779.50406	0.01572
1778.21829	0.01570
1776.93252	0.01567
1775.64675	0.01577
1774.36098	0.01606
1773.07521	0.01639
1771.78944	0.01659
1770.50367	0.01668
1769.21791	0.01682
1767.93214	0.01698
1766.64637	0.01706
1765.36060	0.01711
1764.07483	0.01721
1762.78906	0.01733
1761.50329	0.01733
1760.21752	0.01723
1758.93176	0.01720
1757.64599	0.01725
1756.36022	0.01723
1755.07445	0.01709
1753.78868	0.01698
1752.50291	0.01703
1751.21714	0.01717
1749.93137	0.01728
1748.64560	0.01737
1747.35984	0.01748
1746.07407	0.01759
1744.78830	0.01764
1743.50253	0.01764
1742.21676	0.01767
1740.93099	0.01777
1739.64522	0.01783
1738.35945	0.01774
1737.07369	0.01770
1735.78792	0.01793
1734.50215	0.01824
1733.21638	0.01832
1731.93061	0.01825
1730.64484	0.01833
1729.35907	0.01863
1728.07330	0.01898
1726.78753	0.01929
1725.50177	0.01959
1724.21600	0.01988
1722.93023	0.02008
1721.64446	0.02018
1720.35869	0.02032
1719.07292	0.02061
1717.78715	0.02094
1716.50138	0.02120
1715.21561	0.02148
1713.92985	0.02186
1712.64408	0.02231
1711.35831	0.02272
1710.07254	0.02306
1708.78677	0.02337
1707.50100	0.02371
1706.21523	0.02407
1704.92946	0.02434
1703.64370	0.02457
1702.35793	0.02497
1701.07216	0.02546
1699.78639	0.02574
1698.50062	0.02594
1697.21485	0.02640
1695.92908	0.02704
1694.64331	0.02745
1693.35754	0.02767
1692.07178	0.02799
1690.78601	0.02839
1689.50024	0.02861
1688.21447	0.02866
1686.92870	0.02879
1685.64293	0.02910
1684.35716	0.02938
1683.07139	0.02953
1681.78563	0.02979
1680.49986	0.03028
1679.21409	0.03079
1677.92832	0.03120
1676.64255	0.03155
1675.35678	0.03185
1674.07101	0.03203
1672.78524	0.03223
1671.49947	0.03261
1670.21371	0.03309
1668.92794	0.03349
1667.64217	0.03378
1666.35640	0.03411
1665.07063	0.03457
1663.78486	0.03507
1662.49909	0.03544
1661.21332	0.03567
1659.92756	0.03581
1658.64179	0.03582
1657.35602	0.03569
1656.07025	0.03563
1654.78448	0.03589
1653.49871	0.03630
1652.21294	0.03644
1650.92717	0.03635
1649.64140	0.03648
1648.35564	0.03695
1647.06987	0.03743
1645.78410	0.03766
1644.49833	0.03769
1643.21256	0.03775
1641.92679	0.03790
1640.64102	0.03802
1639.35525	0.03806
1638.06949	0.03813
1636.78372	0.03831
1635.49795	0.03848
1634.21218	0.03857
1632.92641	0.03870
1631.64064	0.03898
1630.35487	0.03932
1629.06910	0.03953
1627.78333	0.03957
1626.49757	0.03954
1625.21180	0.03961
1623.92603	0.03977
1622.64026	0.03989
1621.35449	0.03989
1620.06872	0.03993
1618.78295	0.04018
1617.49718	0.04052
1616.21142	0.04072
1614.92565	0.04074
1613.63988	0.04082
1612.35411	0.04111
1611.06834	0.04150
1609.78257	0.04188
1608.49680	0.04222
1607.21103	0.04251
1605.92526	0.04277
1604.63950	0.04299
1603.35373	0.04318
1602.06796	0.04330
1600.78219	0.04339
1599.49642	0.04347
1598.21065	0.04361
1596.92488	0.04382
1595.63911	0.04405
1594.35335	0.04426
1593.06758	0.04443
1591.78181	0.04461
1590.49604	0.04480
1589.21027	0.04499
1587.92450	0.04520
1586.63873	0.04541
1585.35296	0.04565
1584.06719	0.04587
1582.78143	0.04606
1581.49566	0.04619
1580.20989	0.04628
1578.92412	0.04651
1577.63835	0.04697
1576.35258	0.04745
1575.06681	0.04772
1573.78104	0.04785
1572.49528	0.04811
1571.20951	0.04852
1569.92374	0.04889
1568.63797	0.04909
1567.35220	0.04925
1566.06643	0.04950
1564.78066	0.04975
1563.49489	0.04988
1562.20912	0.05005
1560.92336	0.05044
1559.63759	0.05089
1558.35182	0.05109
1557.06605	0.05112
1555.78028	0.05132
1554.49451	0.05174
1553.20874	0.05218
1551.92297	0.05256
1550.63721	0.05293
1549.35144	0.05325
1548.06567	0.05347
1546.77990	0.05361
1545.49413	0.05369
1544.20836	0.05368
1542.92259	0.05368
1541.63682	0.05384
1540.35105	0.05409
1539.06529	0.05424
1537.77952	0.05426
1536.49375	0.05440
1535.20798	0.05481
1533.92221	0.05532
1532.63644	0.05571
1531.35067	0.05603
1530.06490	0.05647
1528.77914	0.05705
1527.49337	0.05773
1526.20760	0.05842
1524.92183	0.05914
1523.63606	0.06003
1522.35029	0.06114
1521.06452	0.06231
1519.77875	0.06342
1518.49298	0.06461
1517.20722	0.06599
1515.92145	0.06749
1514.63568	0.06909
1513.34991	0.07077
1512.06414	0.07243
1510.77837	0.07400
1509.49260	0.07562
1508.20683	0.07742
1506.92107	0.07931
1505.63530	0.08097
1504.34953	0.08237
1503.06376	0.08369
1501.77799	0.08502
1500.49222	0.08625
1499.20645	0.08737
1497.92068	0.08843
1496.63491	0.08945
1495.34915	0.09039
1494.06338	0.09131
1492.77761	0.09237
1491.49184	0.09357
1490.20607	0.09480
1488.92030	0.09601
1487.63453	0.09732
1486.34876	0.09879
1485.06299	0.10043
1483.77723	0.10215
1482.49146	0.10388
1481.20569	0.10554
1479.91992	0.10712
1478.63415	0.10863
1477.34838	0.11008
1476.06261	0.11146
1474.77684	0.11285
1473.49108	0.11422
1472.20531	0.11541
1470.91954	0.11634
1469.63377	0.11710
1468.34800	0.11780
1467.06223	0.11848
1465.77646	0.11906
1464.49069	0.11947
1463.20492	0.11974
1461.91916	0.11997
1460.63339	0.12029
1459.34762	0.12078
1458.06185	0.12138
1456.77608	0.12188
1455.49031	0.12212
1454.20454	0.12226
1452.91877	0.12246
1451.63301	0.12271
1450.34724	0.12290
1449.06147	0.12299
1447.77570	0.12289
1446.48993	0.12257
1445.20416	0.12208
1443.91839	0.12148
1442.63262	0.12076
1441.34685	0.11993
1440.06109	0.11918
1438.77532	0.11880
1437.48955	0.11888
1436.20378	0.11929
1434.91801	0.11992
1433.63224	0.12084
1432.34647	0.12213
1431.06070	0.12377
1429.77494	0.12569
1428.48917	0.12784
1427.20340	0.13019
1425.91763	0.13265
1424.63186	0.13504
1423.34609	0.13721
1422.06032	0.13922
1420.77455	0.14115
1419.48878	0.14293
1418.20302	0.14439
1416.91725	0.14549
1415.63148	0.14629
1414.34571	0.14680
1413.05994	0.14696
1411.77417	0.14676
1410.48840	0.14622
1409.20263	0.14530
1407.91687	0.14402
1406.63110	0.14239
1405.34533	0.14041
1404.05956	0.13809
1402.77379	0.13550
1401.48802	0.13271
1400.20225	0.12976
1398.91648	0.12664
1397.63071	0.12343
1396.34495	0.12023
1395.05918	0.11705
1393.77341	0.11385
1392.48764	0.11063
1391.20187	0.10747
1389.91610	0.10444
1388.63033	0.10150
1387.34456	0.09862
1386.05880	0.09580
1384.77303	0.09309
1383.48726	0.09046
1382.20149	0.08781
1380.91572	0.08511
1379.62995	0.08238
1378.34418	0.07965
1377.05841	0.07692
1375.77264	0.07418
1374.48688	0.07137
1373.20111	0.06850
1371.91534	0.06567
1370.62957	0.06303
1369.34380	0.06064
1368.05803	0.05847
1366.77226	0.05642
1365.48649	0.05447
1364.20073	0.05258
1362.91496	0.05075
1361.62919	0.04897
1360.34342	0.04729
1359.05765	0.04576
1357.77188	0.04438
1356.48611	0.04312
1355.20034	0.04194
1353.91457	0.04086
1352.62881	0.03991
1351.34304	0.03908
1350.05727	0.03832
1348.77150	0.03757
1347.48573	0.03680
1346.19996	0.03605
1344.91419	0.03535
1343.62842	0.03472
1342.34266	0.03417
1341.05689	0.03368
1339.77112	0.03322
1338.48535	0.03276
1337.19958	0.03227
1335.91381	0.03181
1334.62804	0.03139
1333.34227	0.03102
1332.05650	0.03067
1330.77074	0.03034
1329.48497	0.03004
1328.19920	0.02980
1326.91343	0.02960
1325.62766	0.02943
1324.34189	0.02925
1323.05612	0.02902
1321.77035	0.02874
1320.48459	0.02844
1319.19882	0.02815
1317.91305	0.02787
1316.62728	0.02760
1315.34151	0.02735
1314.05574	0.02712
1312.76997	0.02692
1311.48420	0.02677
1310.19843	0.02666
1308.91267	0.02655
1307.62690	0.02641
1306.34113	0.02624
1305.05536	0.02602
1303.76959	0.02581
1302.48382	0.02564
1301.19805	0.02552
1299.91228	0.02542
1298.62652	0.02530
1297.34075	0.02514
1296.05498	0.02495
1294.76921	0.02478
1293.48344	0.02463
1292.19767	0.02449
1290.91190	0.02433
1289.62613	0.02419
1288.34036	0.02408
1287.05460	0.02399
1285.76883	0.02389
1284.48306	0.02375
1283.19729	0.02356
1281.91152	0.02335
1280.62575	0.02317
1279.33998	0.02304
1278.05421	0.02295
1276.76845	0.02290
1275.48268	0.02284
1274.19691	0.02275
1272.91114	0.02263
1271.62537	0.02248
1270.33960	0.02234
1269.05383	0.02222
1267.76806	0.02213
1266.48229	0.02206
1265.19653	0.02199
1263.91076	0.02191
1262.62499	0.02181
1261.33922	0.02168
1260.05345	0.02154
1258.76768	0.02140
1257.48191	0.02125
1256.19614	0.02113
1254.91037	0.02103
1253.62461	0.02099
1252.33884	0.02099
1251.05307	0.02097
1249.76730	0.02091
1248.48153	0.02081
1247.19576	0.02071
1245.90999	0.02062
1244.62422	0.02054
1243.33846	0.02044
1242.05269	0.02035
1240.76692	0.02026
1239.48115	0.02021
1238.19538	0.02020
1236.90961	0.02020
1235.62384	0.02015
1234.33807	0.02008
1233.05230	0.02001
1231.76654	0.01994
1230.48077	0.01986
1229.19500	0.01977
1227.90923	0.01966
1226.62346	0.01957
1225.33769	0.01949
1224.05192	0.01943
1222.76615	0.01942
1221.48039	0.01946
1220.19462	0.01951
1218.90885	0.01953
1217.62308	0.01948
1216.33731	0.01940
1215.05154	0.01935
1213.76577	0.01936
1212.48000	0.01945
1211.19423	0.01954
1209.90847	0.01959
1208.62270	0.01957
1207.33693	0.01952
1206.05116	0.01946
1204.76539	0.01942
1203.47962	0.01940
1202.19385	0.01942
1200.90808	0.01948
1199.62232	0.01958
1198.33655	0.01965
1197.05078	0.01970
1195.76501	0.01976
1194.47924	0.01981
1193.19347	0.01982
1191.90770	0.01976
1190.62193	0.01971
1189.33616	0.01972
1188.05040	0.01979
1186.76463	0.01990
1185.47886	0.01998
1184.19309	0.02005
1182.90732	0.02013
1181.62155	0.02023
1180.33578	0.02034
1179.05001	0.02048
1177.76425	0.02062
1176.47848	0.02077
1175.19271	0.02092
1173.90694	0.02108
1172.62117	0.02126
1171.33540	0.02144
1170.04963	0.02164
1168.76386	0.02185
1167.47809	0.02206
1166.19233	0.02232
1164.90656	0.02262
1163.62079	0.02297
1162.33502	0.02331
1161.04925	0.02363
1159.76348	0.02396
1158.47771	0.02435
1157.19194	0.02480
1155.90618	0.02527
1154.62041	0.02576
1153.33464	0.02630
1152.04887	0.02694
1150.76310	0.02765
1149.47733	0.02838
1148.19156	0.02913
1146.90579	0.02995
1145.62002	0.03087
1144.33426	0.03194
1143.04849	0.03314
1141.76272	0.03446
1140.47695	0.03586
1139.19118	0.03735
1137.90541	0.03901
1136.61964	0.04085
1135.33387	0.04291
1134.04811	0.04517
1132.76234	0.04770
1131.47657	0.05057
1130.19080	0.05384
1128.90503	0.05754
1127.61926	0.06161
1126.33349	0.06597
1125.04772	0.07054
1123.76195	0.07524
1122.47619	0.08003
1121.19042	0.08491
1119.90465	0.08984
1118.61888	0.09480
1117.33311	0.09972
1116.04734	0.10454
1114.76157	0.10920
1113.47580	0.11373
1112.19004	0.11817
1110.90427	0.12251
1109.61850	0.12672
1108.33273	0.13077
1107.04696	0.13471
1105.76119	0.13860
1104.47542	0.14245
1103.18965	0.14622
1101.90388	0.14990
1100.61812	0.15347
1099.33235	0.15691
1098.04658	0.16019
1096.76081	0.16331
1095.47504	0.16628
1094.18927	0.16908
1092.90350	0.17169
1091.61773	0.17414
1090.33197	0.17652
1089.04620	0.17892
1087.76043	0.18137
1086.47466	0.18387
1085.18889	0.18646
1083.90312	0.18915
1082.61735	0.19194
1081.33158	0.19490
1080.04581	0.19809
1078.76005	0.20157
1077.47428	0.20529
1076.18851	0.20917
1074.90274	0.21318
1073.61697	0.21732
1072.33120	0.22158
1071.04543	0.22593
1069.75966	0.23039
1068.47390	0.23501
1067.18813	0.23987
1065.90236	0.24496
1064.61659	0.25019
1063.33082	0.25547
1062.04505	0.26076
1060.75928	0.26608
1059.47351	0.27146
1058.18774	0.27685
1056.90198	0.28213
1055.61621	0.28724
1054.33044	0.29228
1053.04467	0.29744
1051.75890	0.30287
1050.47313	0.30858
1049.18736	0.31459
1047.90159	0.32089
1046.61583	0.32745
1045.33006	0.33424
1044.04429	0.34123
1042.75852	0.34843
1041.47275	0.35586
1040.18698	0.36352
1038.90121	0.37140
1037.61544	0.37948
1036.32967	0.38760
1035.04391	0.39554
1033.75814	0.40312
1032.47237	0.41027
1031.18660	0.41695
1029.90083	0.42311
1028.61506	0.42866
1027.32929	0.43354
1026.04352	0.43772
1024.75775	0.44118
1023.47199	0.44387
1022.18622	0.44565
1020.90045	0.44642
1019.61468	0.44612
1018.32891	0.44478
1017.04314	0.44236
1015.75737	0.43882
1014.47160	0.43413
1013.18584	0.42834
1011.90007	0.42150
1010.61430	0.41366
1009.32853	0.40480
1008.04276	0.39494
1006.75699	0.38417
1005.47122	0.37261
1004.18545	0.36031
1002.89968	0.34727
1001.61392	0.33354
1000.32815	0.31922
999.04238	0.30453
997.75661	0.28969
996.47084	0.27494
995.18507	0.26052
993.89930	0.24657
992.61353	0.23312
991.32777	0.22019
990.04200	0.20784
988.75623	0.19619
987.47046	0.18535
986.18469	0.17539
984.89892	0.16627
983.61315	0.15788
982.32738	0.15015
981.04161	0.14308
979.75585	0.13669
978.47008	0.13098
977.18431	0.12596
975.89854	0.12171
974.61277	0.11835
973.32700	0.11591
972.04123	0.11440
970.75546	0.11382
969.46970	0.11413
968.18393	0.11522
966.89816	0.11689
965.61239	0.11885
964.32662	0.12072
963.04085	0.12207
961.75508	0.12252
960.46931	0.12188
959.18354	0.12015
957.89778	0.11747
956.61201	0.11405
955.32624	0.11017
954.04047	0.10611
952.75470	0.10209
951.46893	0.09825
950.18316	0.09464
948.89739	0.09120
947.61163	0.08785
946.32586	0.08452
945.04009	0.08123
943.75432	0.07805
942.46855	0.07510
941.18278	0.07250
939.89701	0.07022
938.61124	0.06820
937.32547	0.06643
936.03971	0.06490
934.75394	0.06358
933.46817	0.06234
932.18240	0.06106
930.89663	0.05976
929.61086	0.05853
928.32509	0.05744
927.03932	0.05649
925.75356	0.05567
924.46779	0.05493
923.18202	0.05424
921.89625	0.05351
920.61048	0.05275
919.32471	0.05198
918.03894	0.05128
916.75317	0.05067
915.46740	0.05014
914.18164	0.04969
912.89587	0.04930
911.61010	0.04894
910.32433	0.04860
909.03856	0.04834
907.75279	0.04815
906.46702	0.04800
905.18125	0.04775
903.89549	0.04734
902.60972	0.04683
901.32395	0.04633
900.03818	0.04592
898.75241	0.04567
897.46664	0.04561
896.18087	0.04571
894.89510	0.04590
893.60933	0.04608
892.32357	0.04629
891.03780	0.04662
889.75203	0.04719
888.46626	0.04805
887.18049	0.04938
885.89472	0.05142
884.60895	0.05439
883.32318	0.05828
882.03742	0.06269
880.75165	0.06692
879.46588	0.07031
878.18011	0.07274
876.89434	0.07471
875.60857	0.07684
874.32280	0.07919
873.03703	0.08116
871.75126	0.08198
870.46550	0.08125
869.17973	0.07916
867.89396	0.07613
866.60819	0.07255
865.32242	0.06876
864.03665	0.06506
862.75088	0.06170
861.46511	0.05877
860.17935	0.05626
858.89358	0.05414
857.60781	0.05242
856.32204	0.05106
855.03627	0.04994
853.75050	0.04894
852.46473	0.04803
851.17896	0.04724
849.89319	0.04660
848.60743	0.04610
847.32166	0.04569
846.03589	0.04530
844.75012	0.04494
843.46435	0.04458
842.17858	0.04426
840.89281	0.04395
839.60704	0.04362
838.32128	0.04328
837.03551	0.04295
835.74974	0.04270
834.46397	0.04253
833.17820	0.04241
831.89243	0.04231
830.60666	0.04223
829.32089	0.04217
828.03512	0.04211
826.74936	0.04203
825.46359	0.04192
824.17782	0.04178
822.89205	0.04163
821.60628	0.04151
820.32051	0.04146
819.03474	0.04149
817.74897	0.04154
816.46321	0.04158
815.17744	0.04156
813.89167	0.04152
812.60590	0.04148
811.32013	0.04147
810.03436	0.04149
808.74859	0.04148
807.46282	0.04140
806.17705	0.04124
804.89129	0.04108
803.60552	0.04099
802.31975	0.04099
801.03398	0.04103
799.74821	0.04106
798.46244	0.04105
797.17667	0.04102
795.89090	0.04096
794.60513	0.04091
793.31937	0.04085
792.03360	0.04077
790.74783	0.04068
789.46206	0.04060
788.17629	0.04060
786.89052	0.04068
785.60475	0.04076
784.31898	0.04078
783.03322	0.04075
781.74745	0.04071
780.46168	0.04068
779.17591	0.04066
777.89014	0.04064
776.60437	0.04063
775.31860	0.04063
774.03283	0.04066
772.74706	0.04070
771.46130	0.04075
770.17553	0.04078
768.88976	0.04079
767.60399	0.04083
766.31822	0.04092
765.03245	0.04104
763.74668	0.04115
762.46091	0.04122
761.17515	0.04132
759.88938	0.04148
758.60361	0.04174
757.31784	0.04203
756.03207	0.04231
754.74630	0.04253
753.46053	0.04261
752.17476	0.04252
750.88899	0.04224
749.60323	0.04190
748.31746	0.04166
747.03169	0.04160
745.74592	0.04166
744.46015	0.04172
743.17438	0.04170
741.88861	0.04157
740.60284	0.04136
739.31708	0.04118
738.03131	0.04108
736.74554	0.04109
735.45977	0.04115
734.17400	0.04119
732.88823	0.04125
731.60246	0.04136
730.31669	0.04150
729.03092	0.04160
727.74516	0.04164
726.45939	0.04165
725.17362	0.04165
723.88785	0.04169
722.60208	0.04164
721.31631	0.04146
720.03054	0.04135
718.74477	0.04140
717.45901	0.04139
716.17324	0.04132
714.88747	0.04129
713.60170	0.04133
712.31593	0.04137
711.03016	0.04139
709.74439	0.04136
708.45862	0.04133
707.17285	0.04130
705.88709	0.04128
704.60132	0.04124
703.31555	0.04118
702.02978	0.04115
700.74401	0.04116
699.45824	0.04122
698.17247	0.04126
696.88670	0.04126
695.60094	0.04123
694.31517	0.04122
693.02940	0.04126
691.74363	0.04133
690.45786	0.04140
689.17209	0.04143
687.88632	0.04141
686.60055	0.04133
685.31478	0.04121
684.02902	0.04107
682.74325	0.04096
681.45748	0.04089
680.17171	0.04088
678.88594	0.04087
677.60017	0.04084
676.31440	0.04078
675.02863	0.04076
673.74287	0.04099
672.45710	0.04168
671.17133	0.04242
669.88556	0.04177
668.59979	0.03970
667.31402	0.04011
666.02825	0.04216
664.74248	0.04226
663.45671	0.04120
662.17095	0.04037
660.88518	0.04000
659.59941	0.03993
658.31364	0.03999
657.02787	0.04002
655.74210	0.03998
654.45633	0.03990
653.17056	0.03980
651.88480	0.03974
650.59903	0.03971
649.31326	0.03969
648.02749	0.03974
646.74172	0.03980
645.45595	0.03984
644.17018	0.03990
642.88441	0.04003
641.59864	0.04024
640.31288	0.04051
639.02711	0.04081
637.74134	0.04117
636.45557	0.04163
635.16980	0.04224
633.88403	0.04302
632.59826	0.04388
631.31249	0.04469
630.02673	0.04538
628.74096	0.04612
627.45519	0.04724
626.16942	0.04832
624.88365	0.04981
623.59788	0.05199
622.31211	0.05471
621.02634	0.05797
619.74057	0.06211
618.45481	0.06707
617.16904	0.07202
615.88327	0.07620
614.59750	0.07959
613.31173	0.08277
612.02596	0.08680
610.74019	0.09311
609.45442	0.10248
608.16866	0.11365
606.88289	0.12399
605.59712	0.13163
604.31135	0.13619
603.02558	0.13812
601.73981	0.13791
600.45404	0.13598
599.16827	0.13281
597.88250	0.12896
596.59674	0.12487
595.31097	0.12079
594.02520	0.11701
592.73943	0.11387
591.45366	0.11164
590.16789	0.11040
588.88212	0.11014
587.59635	0.11072
586.31059	0.11202
585.02482	0.11391
583.73905	0.11644
582.45328	0.11964
581.16751	0.12348
579.88174	0.12771
578.59597	0.13202
577.31020	0.13615
576.02443	0.13999
574.73867	0.14361
573.45290	0.14716
572.16713	0.15086
570.88136	0.15497
569.59559	0.15983
568.30982	0.16566
567.02405	0.17239
565.73828	0.17963
564.45251	0.18660
563.16675	0.19226
561.88098	0.19540
560.59521	0.19508
559.30944	0.19096
558.02367	0.18348
556.73790	0.17365
555.45213	0.16253
554.16636	0.15103
552.88060	0.13985
551.59483	0.12945
550.30906	0.12001
549.02329	0.11159
547.73752	0.10418
546.45175	0.09777
545.16598	0.09222
543.88021	0.08736
542.59444	0.08303
541.30868	0.07912
540.02291	0.07558
538.73714	0.07242
537.45137	0.06966
536.16560	0.06723
534.87983	0.06501
533.59406	0.06290
532.30829	0.06089
531.02253	0.05901
529.73676	0.05720
528.45099	0.05544
527.16522	0.05376
525.87945	0.05225
524.59368	0.05094
523.30791	0.04983
522.02214	0.04888
520.73637	0.04799
519.45061	0.04706
518.16484	0.04606
516.87907	0.04507
515.59330	0.04420
514.30753	0.04350
513.02176	0.04290
511.73599	0.04231
510.45022	0.04170
509.16446	0.04112
507.87869	0.04063
506.59292	0.04018
505.30715	0.03966
504.02138	0.03907
502.73561	0.03851
501.44984	0.03808
500.16407	0.03773
498.87830	0.03740
497.59254	0.03702
496.30677	0.03666
495.02100	0.03636
493.73523	0.03610
492.44946	0.03583
491.16369	0.03554
489.87792	0.03528
488.59215	0.03511
487.30639	0.03506
486.02062	0.03511
484.73485	0.03519
483.44908	0.03526
482.16331	0.03530
480.87754	0.03534
479.59177	0.03546
478.30600	0.03571
477.02023	0.03610
475.73447	0.03658
474.44870	0.03705
473.16293	0.03746
471.87716	0.03775
470.59139	0.03789
469.30562	0.03783
468.01985	0.03759
466.73408	0.03724
465.44832	0.03689
464.16255	0.03656
462.87678	0.03621
461.59101	0.03583
460.30524	0.03544
459.01947	0.03510
457.73370	0.03480
456.44793	0.03448
455.16216	0.03409
453.87640	0.03360
452.59063	0.03311
451.30486	0.03272
450.01909	0.03250
448.73332	0.03244
447.44755	0.03247
446.16178	0.03249
444.87601	0.03244
443.59025	0.03235
442.30448	0.03228
441.01871	0.03228
439.73294	0.03232
438.44717	0.03237
437.16140	0.03237
435.87563	0.03234
434.58986	0.03231
433.30409	0.03234
432.01833	0.03241
430.73256	0.03245
429.44679	0.03244
428.16102	0.03238
426.87525	0.03230
425.58948	0.03219
424.30371	0.03201
423.01794	0.03179
421.73218	0.03163
420.44641	0.03162
419.16064	0.03172
417.87487	0.03181
416.58910	0.03186
415.30333	0.03190
414.01756	0.03194
412.73179	0.03198
411.44602	0.03202
410.16026	0.03207
408.87449	0.03215
407.58872	0.03227
406.30295	0.03243
405.01718	0.03260
403.73141	0.03274
402.44564	0.03286
401.15987	0.03296
399.87411	0.03307
