3997.45528 0.05417
3996.16951 0.05298
3994.88374 0.05219
3993.59798 0.05136
3992.31221 0.05052
3991.02644 0.05031
3989.74067 0.05127
3988.45490 0.05318
3987.16913 0.05511
3985.88336 0.05609
3984.59759 0.05584
3983.31183 0.05497
3982.02606 0.05429
3980.74029 0.05402
3979.45452 0.05369
3978.16875 0.05290
3976.88298 0.05192
3975.59721 0.05121
3974.31144 0.05088
3973.02567 0.05063
3971.73991 0.05031
3970.45414 0.05009
3969.16837 0.05022
3967.88260 0.05063
3966.59683 0.05104
3965.31106 0.05131
3964.02529 0.05161
3962.73952 0.05209
3961.45376 0.05258
3960.16799 0.05282
3958.88222 0.05287
3957.59645 0.05301
3956.31068 0.05328
3955.02491 0.05324
3953.73914 0.05256
3952.45337 0.05151
3951.16760 0.05071
3949.88184 0.05047
3948.59607 0.05060
3947.31030 0.05075
3946.02453 0.05085
3944.73876 0.05102
3943.45299 0.05135
3942.16722 0.05175
3940.88145 0.05202
3939.59569 0.05211
3938.30992 0.05215
3937.02415 0.05232
3935.73838 0.05262
3934.45261 0.05290
3933.16684 0.05304
3931.88107 0.05299
3930.59530 0.05277
3929.30953 0.05249
3928.02377 0.05212
3926.73800 0.05144
3925.45223 0.05042
3924.16646 0.04948
3922.88069 0.04917
3921.59492 0.04979
3920.30915 0.05118
3919.02338 0.05271
3917.73762 0.05361
3916.45185 0.05339
3915.16608 0.05230
3913.88031 0.05116
3912.59454 0.05075
3911.30877 0.05123
3910.02300 0.05216
3908.73723 0.05301
3907.45146 0.05348
3906.16570 0.05362
3904.87993 0.05348
3903.59416 0.05301
3902.30839 0.05210
3901.02262 0.05091
3899.73685 0.04998
3898.45108 0.04972
3897.16531 0.05002
3895.87955 0.05041
3894.59378 0.05057
3893.30801 0.05060
3892.02224 0.05075
3890.73647 0.05113
3889.45070 0.05154
3888.16493 0.05169
3886.87916 0.05157
3885.59339 0.05130
3884.30763 0.05080
3883.02186 0.05001
3881.73609 0.04933
3880.45032 0.04936
3879.16455 0.05011
3877.87878 0.05086
3876.59301 0.05106
3875.30724 0.05079
3874.02148 0.05044
3872.73571 0.04999
3871.44994 0.04925
3870.16417 0.04851
3868.87840 0.04831
3867.59263 0.04864
3866.30686 0.04899
3865.02109 0.04897
3863.73532 0.04864
3862.44956 0.04824
3861.16379 0.04802
3859.87802 0.04825
3858.59225 0.04908
3857.30648 0.05029
3856.02071 0.05129
3854.73494 0.05166
3853.44917 0.05156
3852.16341 0.05136
3850.87764 0.05118
3849.59187 0.05090
3848.30610 0.05054
3847.02033 0.05029
3845.73456 0.05030
3844.44879 0.05043
3843.16302 0.05042
3841.87725 0.05017
3840.59149 0.04977
3839.30572 0.04938
3838.01995 0.04917
3836.73418 0.04922
3835.44841 0.04938
3834.16264 0.04941
3832.87687 0.04925
3831.59110 0.04907
3830.30534 0.04893
3829.01957 0.04866
3827.73380 0.04805
3826.44803 0.04721
3825.16226 0.04647
3823.87649 0.04610
3822.59072 0.04627
3821.30495 0.04719
3820.01918 0.04876
3818.73342 0.05025
3817.44765 0.05077
3816.16188 0.05010
3814.87611 0.04870
3813.59034 0.04722
3812.30457 0.04627
3811.01880 0.04621
3809.73303 0.04680
3808.44726 0.04752
3807.16150 0.04820
3805.87573 0.04897
3804.58996 0.04971
3803.30419 0.05010
3802.01842 0.05016
3800.73265 0.05023
3799.44688 0.05046
3798.16111 0.05063
3796.87535 0.05056
3795.58958 0.05013
3794.30381 0.04934
3793.01804 0.04841
3791.73227 0.04768
3790.44650 0.04736
3789.16073 0.04746
3787.87496 0.04788
3786.58919 0.04840
3785.30343 0.04869
3784.01766 0.04855
3782.73189 0.04803
3781.44612 0.04736
3780.16035 0.04684
3778.87458 0.04662
3777.58881 0.04669
3776.30304 0.04692
3775.01728 0.04719
3773.73151 0.04740
3772.44574 0.04751
3771.15997 0.04742
3769.87420 0.04702
3768.58843 0.04629
3767.30266 0.04557
3766.01689 0.04555
3764.73112 0.04659
3763.44536 0.04811
3762.15959 0.04897
3760.87382 0.04862
3759.58805 0.04746
3758.30228 0.04633
3757.01651 0.04584
3755.73074 0.04607
3754.44497 0.04664
3753.15921 0.04706
3751.87344 0.04696
3750.58767 0.04635
3749.30190 0.04569
3748.01613 0.04538
3746.73036 0.04524
3745.44459 0.04492
3744.15882 0.04457
3742.87305 0.04450
3741.58729 0.04476
3740.30152 0.04525
3739.01575 0.04573
3737.72998 0.04578
3736.44421 0.04520
3735.15844 0.04420
3733.87267 0.04313
3732.58690 0.04246
3731.30114 0.04251
3730.01537 0.04305
3728.72960 0.04358
3727.44383 0.04404
3726.15806 0.04473
3724.87229 0.04564
3723.58652 0.04627
3722.30075 0.04626
3721.01498 0.04580
3719.72922 0.04532
3718.44345 0.04508
3717.15768 0.04505
3715.87191 0.04511
3714.58614 0.04521
3713.30037 0.04534
3712.01460 0.04555
3710.72883 0.04577
3709.44307 0.04586
3708.15730 0.04572
3706.87153 0.04541
3705.58576 0.04504
3704.29999 0.04478
3703.01422 0.04488
3701.72845 0.04547
3700.44268 0.04622
3699.15691 0.04646
3697.87115 0.04594
3696.58538 0.04520
3695.29961 0.04493
3694.01384 0.04531
3692.72807 0.04599
3691.44230 0.04631
3690.15653 0.04572
3688.87076 0.04437
3687.58500 0.04287
3686.29923 0.04178
3685.01346 0.04143
3683.72769 0.04185
3682.44192 0.04283
3681.15615 0.04406
3679.87038 0.04540
3678.58461 0.04669
3677.29884 0.04762
3676.01308 0.04789
3674.72731 0.04747
3673.44154 0.04664
3672.15577 0.04583
3670.87000 0.04559
3669.58423 0.04595
3668.29846 0.04629
3667.01269 0.04610
3665.72693 0.04556
3664.44116 0.04515
3663.15539 0.04507
3661.86962 0.04524
3660.58385 0.04557
3659.29808 0.04593
3658.01231 0.04625
3656.72654 0.04662
3655.44077 0.04711
3654.15501 0.04749
3652.86924 0.04734
3651.58347 0.04647
3650.29770 0.04517
3649.01193 0.04398
3647.72616 0.04343
3646.44039 0.04374
3645.15462 0.04463
3643.86886 0.04561
3642.58309 0.04637
3641.29732 0.04703
3640.01155 0.04783
3638.72578 0.04869
3637.44001 0.04915
3636.15424 0.04875
3634.86847 0.04764
3633.58270 0.04657
3632.29694 0.04616
3631.01117 0.04637
3629.72540 0.04673
3628.43963 0.04699
3627.15386 0.04722
3625.86809 0.04754
3624.58232 0.04791
3623.29655 0.04810
3622.01079 0.04799
3620.72502 0.04794
3619.43925 0.04865
3618.15348 0.05033
3616.86771 0.05229
3615.58194 0.05347
3614.29617 0.05341
3613.01040 0.05263
3611.72463 0.05202
3610.43887 0.05203
3609.15310 0.05246
3607.86733 0.05292
3606.58156 0.05325
3605.29579 0.05354
3604.01002 0.05391
3602.72425 0.05439
3601.43848 0.05493
3600.15272 0.05550
3598.86695 0.05598
3597.58118 0.05623
3596.29541 0.05613
3595.00964 0.05561
3593.72387 0.05480
3592.43810 0.05415
3591.15233 0.05414
3589.86656 0.05480
3588.58080 0.05564
3587.29503 0.05610
3586.00926 0.05597
3584.72349 0.05541
3583.43772 0.05477
3582.15195 0.05430
3580.86618 0.05420
3579.58041 0.05473
3578.29464 0.05588
3577.00888 0.05723
3575.72311 0.05823
3574.43734 0.05869
3573.15157 0.05878
3571.86580 0.05875
3570.58003 0.05855
3569.29426 0.05811
3568.00849 0.05769
3566.72273 0.05772
3565.43696 0.05836
3564.15119 0.05915
3562.86542 0.05949
3561.57965 0.05918
3560.29388 0.05854
3559.00811 0.05823
3557.72234 0.05869
3556.43657 0.05983
3555.15081 0.06107
3553.86504 0.06184
3552.57927 0.06200
3551.29350 0.06175
3550.00773 0.06129
3548.72196 0.06077
3547.43619 0.06037
3546.15042 0.06038
3544.86466 0.06091
3543.57889 0.06176
3542.29312 0.06247
3541.00735 0.06267
3539.72158 0.06231
3538.43581 0.06170
3537.15004 0.06126
3535.86427 0.06126
3534.57850 0.06173
3533.29274 0.06249
3532.00697 0.06332
3530.72120 0.06399
3529.43543 0.06448
3528.14966 0.06495
3526.86389 0.06562
3525.57812 0.06649
3524.29235 0.06726
3523.00659 0.06754
3521.72082 0.06715
3520.43505 0.06632
3519.14928 0.06549
3517.86351 0.06504
3516.57774 0.06500
3515.29197 0.06517
3514.00620 0.06531
3512.72043 0.06539
3511.43467 0.06545
3510.14890 0.06553
3508.86313 0.06560
3507.57736 0.06568
3506.29159 0.06578
3505.00582 0.06593
3503.72005 0.06603
3502.43428 0.06593
3501.14852 0.06569
3499.86275 0.06561
3498.57698 0.06606
3497.29121 0.06714
3496.00544 0.06854
3494.71967 0.06965
3493.43390 0.06997
3492.14813 0.06948
3490.86236 0.06863
3489.57660 0.06792
3488.29083 0.06765
3487.00506 0.06790
3485.71929 0.06870
3484.43352 0.06988
3483.14775 0.07111
3481.86198 0.07199
3480.57621 0.07227
3479.29045 0.07199
3478.00468 0.07140
3476.71891 0.07082
3475.43314 0.07047
3474.14737 0.07035
3472.86160 0.07037
3471.57583 0.07051
3470.29006 0.07084
3469.00429 0.07137
3467.71853 0.07187
3466.43276 0.07202
3465.14699 0.07168
3463.86122 0.07104
3462.57545 0.07047
3461.28968 0.07023
3460.00391 0.07028
3458.71814 0.07044
3457.43238 0.07073
3456.14661 0.07126
3454.86084 0.07204
3453.57507 0.07271
3452.28930 0.07293
3451.00353 0.07272
3449.71776 0.07245
3448.43199 0.07242
3447.14622 0.07259
3445.86046 0.07282
3444.57469 0.07313
3443.28892 0.07377
3442.00315 0.07475
3440.71738 0.07575
3439.43161 0.07630
3438.14584 0.07627
3436.86007 0.07584
3435.57431 0.07516
3434.28854 0.07437
3433.00277 0.07383
3431.71700 0.07405
3430.43123 0.07512
3429.14546 0.07644
3427.85969 0.07720
3426.57392 0.07706
3425.28815 0.07633
3424.00239 0.07565
3422.71662 0.07547
3421.43085 0.07589
3420.14508 0.07663
3418.85931 0.07731
3417.57354 0.07764
3416.28777 0.07760
3415.00200 0.07744
3413.71624 0.07740
3412.43047 0.07749
3411.14470 0.07746
3409.85893 0.07712
3408.57316 0.07664
3407.28739 0.07648
3406.00162 0.07694
3404.71585 0.07791
3403.43008 0.07893
3402.14432 0.07963
3400.85855 0.07993
3399.57278 0.07956
3398.28701 0.07889
3397.00124 0.07869
3395.71547 0.07868
3394.42970 0.07846
3393.14393 0.07799
3391.85817 0.07752
3390.57240 0.07736
3389.28663 0.07765
3388.00086 0.07835
3386.71509 0.07932
3385.42932 0.08043
3384.14355 0.08144
3382.85778 0.08202
3381.57201 0.08196
3380.28625 0.08137
3379.00048 0.08071
3377.71471 0.08034
3376.42894 0.08030
3375.14317 0.08044
3373.85740 0.08068
3372.57163 0.08106
3371.28586 0.08156
3370.00010 0.08207
3368.71433 0.08244
3367.42856 0.08261
3366.14279 0.08254
3364.85702 0.08226
3363.57125 0.08183
3362.28548 0.08136
3360.99971 0.08101
3359.71394 0.08087
3358.42818 0.08094
3357.14241 0.08114
3355.85664 0.08128
3354.57087 0.08125
3353.28510 0.08102
3351.99933 0.08080
3350.71356 0.08088
3349.42779 0.08132
3348.14202 0.08177
3346.85626 0.08177
3345.57049 0.08130
3344.28472 0.08088
3342.99895 0.08092
3341.71318 0.08125
3340.42741 0.08130
3339.14164 0.08070
3337.85587 0.07968
3336.57011 0.07877
3335.28434 0.07841
3333.99857 0.07874
3332.71280 0.07964
3331.42703 0.08077
3330.14126 0.08170
3328.85549 0.08206
3327.56972 0.08185
3326.28395 0.08141
3324.99819 0.08116
3323.71242 0.08125
3322.42665 0.08156
3321.14088 0.08186
3319.85511 0.08207
3318.56934 0.08222
3317.28357 0.08241
3315.99780 0.08266
3314.71204 0.08287
3313.42627 0.08279
3312.14050 0.08222
3310.85473 0.08131
3309.56896 0.08058
3308.28319 0.08050
3306.99742 0.08100
3305.71165 0.08154
3304.42588 0.08168
3303.14012 0.08147
3301.85435 0.08134
3300.56858 0.08151
3299.28281 0.08179
3297.99704 0.08181
3296.71127 0.08147
3295.42550 0.08104
3294.13973 0.08093
3292.85397 0.08129
3291.56820 0.08194
3290.28243 0.08264
3288.99666 0.08328
3287.71089 0.08378
3286.42512 0.08399
3285.13935 0.08381
3283.85358 0.08341
3282.56781 0.08305
3281.28205 0.08280
3279.99628 0.08247
3278.71051 0.08190
3277.42474 0.08119
3276.13897 0.08063
3274.85320 0.08047
3273.56743 0.08080
3272.28166 0.08146
3270.99590 0.08215
3269.71013 0.08257
3268.42436 0.08263
3267.13859 0.08258
3265.85282 0.08276
3264.56705 0.08325
3263.28128 0.08380
3261.99551 0.08411
3260.70974 0.08411
3259.42398 0.08395
3258.13821 0.08374
3256.85244 0.08355
3255.56667 0.08349
3254.28090 0.08360
3252.99513 0.08369
3251.70936 0.08349
3250.42359 0.08292
3249.13783 0.08221
3247.85206 0.08164
3246.56629 0.08132
3245.28052 0.08119
3243.99475 0.08110
3242.70898 0.08100
3241.42321 0.08097
3240.13744 0.08111
3238.85167 0.08126
3237.56591 0.08112
3236.28014 0.08061
3234.99437 0.08006
3233.70860 0.07982
3232.42283 0.07997
3231.13706 0.08031
3229.85129 0.08067
3228.56552 0.08096
3227.27976 0.08106
3225.99399 0.08081
3224.70822 0.08028
3223.42245 0.07983
3222.13668 0.07979
3220.85091 0.08009
3219.56514 0.08036
3218.27937 0.08029
3216.99360 0.07996
3215.70784 0.07973
3214.42207 0.07992
3213.13630 0.08045
3211.85053 0.08097
3210.56476 0.08114
3209.27899 0.08089
3207.99322 0.08041
3206.70745 0.07990
3205.42169 0.07946
3204.13592 0.07916
3202.85015 0.07911
3201.56438 0.07939
3200.27861 0.07984
3198.99284 0.08010
3197.70707 0.08005
3196.42130 0.07984
3195.13553 0.07961
3193.84977 0.07936
3192.56400 0.07905
3191.27823 0.07889
3189.99246 0.07916
3188.70669 0.07983
3187.42092 0.08055
3186.13515 0.08093
3184.84938 0.08084
3183.56362 0.08047
3182.27785 0.08012
3180.99208 0.07997
3179.70631 0.07995
3178.42054 0.07983
3177.13477 0.07947
3175.84900 0.07894
3174.56323 0.07840
3173.27746 0.07795
3171.99170 0.07762
3170.70593 0.07743
3169.42016 0.07738
3168.13439 0.07742
3166.84862 0.07745
3165.56285 0.07742
3164.27708 0.07735
3162.99131 0.07730
3161.70555 0.07726
3160.41978 0.07721
3159.13401 0.07712
3157.84824 0.07699
3156.56247 0.07685
3155.27670 0.07671
3153.99093 0.07660
3152.70516 0.07656
3151.41939 0.07658
3150.13363 0.07657
3148.84786 0.07644
3147.56209 0.07626
3146.27632 0.07621
3144.99055 0.07636
3143.70478 0.07666
3142.41901 0.07698
3141.13324 0.07716
3139.84748 0.07712
3138.56171 0.07690
3137.27594 0.07669
3135.99017 0.07667
3134.70440 0.07679
3133.41863 0.07692
3132.13286 0.07694
3130.84709 0.07690
3129.56132 0.07682
3128.27556 0.07662
3126.98979 0.07620
3125.70402 0.07558
3124.41825 0.07497
3123.13248 0.07461
3121.84671 0.07457
3120.56094 0.07475
3119.27517 0.07495
3117.98940 0.07511
3116.70364 0.07520
3115.41787 0.07523
3114.13210 0.07519
3112.84633 0.07510
3111.56056 0.07501
3110.27479 0.07487
3108.98902 0.07459
3107.70325 0.07416
3106.41749 0.07370
3105.13172 0.07334
3103.84595 0.07312
3102.56018 0.07302
3101.27441 0.07305
3099.98864 0.07318
3098.70287 0.07339
3097.41710 0.07361
3096.13133 0.07377
3094.84557 0.07385
3093.55980 0.07384
3092.27403 0.07376
3090.98826 0.07369
3089.70249 0.07367
3088.41672 0.07371
3087.13095 0.07371
3085.84518 0.07363
3084.55942 0.07350
3083.27365 0.07335
3081.98788 0.07314
3080.70211 0.07285
3079.41634 0.07253
3078.13057 0.07227
3076.84480 0.07208
3075.55903 0.07194
3074.27326 0.07189
3072.98750 0.07205
3071.70173 0.07249
3070.41596 0.07305
3069.13019 0.07339
3067.84442 0.07319
3066.55865 0.07250
3065.27288 0.07178
3063.98711 0.07140
3062.70135 0.07131
3061.41558 0.07124
3060.12981 0.07105
3058.84404 0.07084
3057.55827 0.07072
3056.27250 0.07069
3054.98673 0.07073
3053.70096 0.07080
3052.41519 0.07088
3051.12943 0.07085
3049.84366 0.07063
3048.55789 0.07027
3047.27212 0.06987
3045.98635 0.06958
3044.70058 0.06949
3043.41481 0.06957
3042.12904 0.06970
3040.84328 0.06971
3039.55751 0.06951
3038.27174 0.06919
3036.98597 0.06896
3035.70020 0.06893
3034.41443 0.06903
3033.12866 0.06906
3031.84289 0.06899
3030.55712 0.06893
3029.27136 0.06897
3027.98559 0.06900
3026.69982 0.06886
3025.41405 0.06855
3024.12828 0.06826
3022.84251 0.06818
3021.55674 0.06827
3020.27097 0.06838
3018.98521 0.06840
3017.69944 0.06836
3016.41367 0.06828
3015.12790 0.06814
3013.84213 0.06791
3012.55636 0.06757
3011.27059 0.06719
3009.98482 0.06687
3008.69905 0.06667
3007.41329 0.06663
3006.12752 0.06668
3004.84175 0.06667
3003.55598 0.06657
3002.27021 0.06655
3000.98444 0.06661
2999.69867 0.06623
2998.41290 0.06629
2997.12714 0.06645
2995.84137 0.06661
2994.55560 0.06663
2993.26983 0.06647
2991.98406 0.06629
2990.69829 0.06627
2989.41252 0.06641
2988.12675 0.06650
2986.84098 0.06638
2985.55522 0.06614
2984.26945 0.06610
2982.98368 0.06643
2981.69791 0.06697
2980.41214 0.06742
2979.12637 0.06770
2977.84060 0.06800
2976.55483 0.06847
2975.26907 0.06902
2973.98330 0.06953
2972.69753 0.06998
2971.41176 0.07050
2970.12599 0.07115
2968.84022 0.07191
2967.55445 0.07270
2966.26868 0.07348
2964.98291 0.07427
2963.69715 0.07510
2962.41138 0.07591
2961.12561 0.07659
2959.83984 0.07712
2958.55407 0.07763
2957.26830 0.07829
2955.98253 0.07906
2954.69676 0.07975
2953.41100 0.08019
2952.12523 0.08046
2950.83946 0.08076
2949.55369 0.08117
2948.26792 0.08146
2946.98215 0.08137
2945.69638 0.08075
2944.41061 0.07976
2943.12484 0.07886
2941.83908 0.07854
2940.55331 0.07898
2939.26754 0.07992
2937.98177 0.08087
2936.69600 0.08148
2935.41023 0.08172
2934.12446 0.08179
2932.83869 0.08196
2931.55293 0.08236
2930.26716 0.08290
2928.98139 0.08345
2927.69562 0.08400
2926.40985 0.08463
2925.12408 0.08523
2923.83831 0.08558
2922.55254 0.08559
2921.26677 0.08541
2919.98101 0.08519
2918.69524 0.08486
2917.40947 0.08432
2916.12370 0.08359
2914.83793 0.08281
2913.55216 0.08208
2912.26639 0.08153
2910.98062 0.08127
2909.69486 0.08125
2908.40909 0.08114
2907.12332 0.08063
2905.83755 0.07967
2904.55178 0.07858
2903.26601 0.07774
2901.98024 0.07730
2900.69447 0.07706
2899.40870 0.07669
2898.12294 0.07604
2896.83717 0.07522
2895.55140 0.07443
2894.26563 0.07376
2892.97986 0.07322
2891.69409 0.07282
2890.40832 0.07248
2889.12255 0.07202
2887.83678 0.07132
2886.55102 0.07052
2885.26525 0.06997
2883.97948 0.06988
2882.69371 0.07017
2881.40794 0.07052
2880.12217 0.07071
2878.83640 0.07070
2877.55063 0.07066
2876.26487 0.07087
2874.97910 0.07141
2873.69333 0.07206
2872.40756 0.07249
2871.12179 0.07263
2869.83602 0.07270
2868.55025 0.07283
2867.26448 0.07291
2865.97871 0.07271
2864.69295 0.07227
2863.40718 0.07184
2862.12141 0.07160
2860.83564 0.07149
2859.54987 0.07138
2858.26410 0.07122
2856.97833 0.07106
2855.69256 0.07092
2854.40680 0.07083
2853.12103 0.07075
2851.83526 0.07061
2850.54949 0.07034
2849.26372 0.06996
2847.97795 0.06959
2846.69218 0.06929
2845.40641 0.06893
2844.12064 0.06838
2842.83488 0.06758
2841.54911 0.06663
2840.26334 0.06562
2838.97757 0.06463
2837.69180 0.06369
2836.40603 0.06283
2835.12026 0.06213
2833.83449 0.06167
2832.54873 0.06144
2831.26296 0.06129
2829.97719 0.06106
2828.69142 0.06071
2827.40565 0.06031
2826.11988 0.05993
2824.83411 0.05962
2823.54834 0.05936
2822.26257 0.05915
2820.97681 0.05891
2819.69104 0.05857
2818.40527 0.05816
2817.11950 0.05781
2815.83373 0.05761
2814.54796 0.05753
2813.26219 0.05750
2811.97642 0.05744
2810.69066 0.05733
2809.40489 0.05719
2808.11912 0.05705
2806.83335 0.05687
2805.54758 0.05660
2804.26181 0.05620
2802.97604 0.05580
2801.69027 0.05560
2800.40450 0.05567
2799.11874 0.05584
2797.83297 0.05592
2796.54720 0.05587
2795.26143 0.05573
2793.97566 0.05553
2792.68989 0.05527
2791.40412 0.05502
2790.11835 0.05494
2788.83259 0.05508
2787.54682 0.05531
2786.26105 0.05540
2784.97528 0.05529
2783.68951 0.05508
2782.40374 0.05491
2781.11797 0.05482
2779.83220 0.05475
2778.54643 0.05468
2777.26067 0.05456
2775.97490 0.05439
2774.68913 0.05421
2773.40336 0.05402
2772.11759 0.05381
2770.83182 0.05361
2769.54605 0.05350
2768.26028 0.05356
2766.97452 0.05373
2765.68875 0.05383
2764.40298 0.05369
2763.11721 0.05338
2761.83144 0.05307
2760.54567 0.05288
2759.25990 0.05282
2757.97413 0.05277
2756.68836 0.05268
2755.40260 0.05257
2754.11683 0.05249
2752.83106 0.05240
2751.54529 0.05225
2750.25952 0.05205
2748.97375 0.05196
2747.68798 0.05201
2746.40221 0.05203
2745.11645 0.05185
2743.83068 0.05159
2742.54491 0.05147
2741.25914 0.05154
2739.97337 0.05164
2738.68760 0.05163
2737.40183 0.05160
2736.11606 0.05162
2734.83029 0.05163
2733.54453 0.05148
2732.25876 0.05121
2730.97299 0.05097
2729.68722 0.05081
2728.40145 0.05062
2727.11568 0.05038
2725.82991 0.05014
2724.54414 0.05002
2723.25838 0.05000
2721.97261 0.05006
2720.68684 0.05017
2719.40107 0.05034
2718.11530 0.05052
2716.82953 0.05060
2715.54376 0.05053
2714.25799 0.05035
2712.97222 0.05022
2711.68646 0.05018
2710.40069 0.05015
2709.11492 0.05001
2707.82915 0.04980
2706.54338 0.04962
2705.25761 0.04952
2703.97184 0.04943
2702.68607 0.04936
2701.40031 0.04932
2700.11454 0.04928
2698.82877 0.04918
2697.54300 0.04901
2696.25723 0.04886
2694.97146 0.04877
2693.68569 0.04870
2692.39992 0.04855
2691.11415 0.04833
2689.82839 0.04814
2688.54262 0.04810
2687.25685 0.04813
2685.97108 0.04810
2684.68531 0.04798
2683.39954 0.04785
2682.11377 0.04776
2680.82800 0.04770
2679.54224 0.04767
2678.25647 0.04767
2676.97070 0.04766
2675.68493 0.04753
2674.39916 0.04728
2673.11339 0.04708
2671.82762 0.04713
2670.54185 0.04744
2669.25608 0.04780
2667.97032 0.04791
2666.68455 0.04766
2665.39878 0.04725
2664.11301 0.04698
2662.82724 0.04701
2661.54147 0.04726
2660.25570 0.04756
2658.96993 0.04780
2657.68417 0.04797
2656.39840 0.04809
2655.11263 0.04818
2653.82686 0.04825
2652.54109 0.04827
2651.25532 0.04816
2649.96955 0.04782
2648.68378 0.04731
2647.39801 0.04678
2646.11225 0.04634
2644.82648 0.04603
2643.54071 0.04584
2642.25494 0.04573
2640.96917 0.04563
2639.68340 0.04553
2638.39763 0.04542
2637.11186 0.04531
2635.82609 0.04519
2634.54033 0.04503
2633.25456 0.04493
2631.96879 0.04495
2630.68302 0.04507
2629.39725 0.04523
2628.11148 0.04536
2626.82571 0.04537
2625.53994 0.04516
2624.25418 0.04469
2622.96841 0.04408
2621.68264 0.04353
2620.39687 0.04317
2619.11110 0.04299
2617.82533 0.04292
2616.53956 0.04291
2615.25379 0.04302
2613.96802 0.04323
2612.68226 0.04340
2611.39649 0.04329
2610.11072 0.04282
2608.82495 0.04219
2607.53918 0.04167
2606.25341 0.04143
2604.96764 0.04146
2603.68187 0.04168
2602.39611 0.04202
2601.11034 0.04234
2599.82457 0.04251
2598.53880 0.04240
2597.25303 0.04199
2595.96726 0.04140
2594.68149 0.04082
2593.39572 0.04034
2592.10995 0.04000
2590.82419 0.03980
2589.53842 0.03973
2588.25265 0.03972
2586.96688 0.03971
2585.68111 0.03969
2584.39534 0.03969
2583.10957 0.03974
2581.82380 0.03984
2580.53804 0.03993
2579.25227 0.03993
2577.96650 0.03979
2576.68073 0.03957
2575.39496 0.03938
2574.10919 0.03930
2572.82342 0.03924
2571.53765 0.03905
2570.25188 0.03878
2568.96612 0.03867
2567.68035 0.03885
2566.39458 0.03916
2565.10881 0.03932
2563.82304 0.03919
2562.53727 0.03881
2561.25150 0.03834
2559.96573 0.03785
2558.67997 0.03743
2557.39420 0.03715
2556.10843 0.03709
2554.82266 0.03729
2553.53689 0.03766
2552.25112 0.03792
2550.96535 0.03791
2549.67958 0.03765
2548.39381 0.03730
2547.10805 0.03703
2545.82228 0.03697
2544.53651 0.03713
2543.25074 0.03747
2541.96497 0.03783
2540.67920 0.03802
2539.39343 0.03796
2538.10766 0.03769
2536.82190 0.03728
2535.53613 0.03682
2534.25036 0.03645
2532.96459 0.03639
2531.67882 0.03667
2530.39305 0.03698
2529.10728 0.03700
2527.82151 0.03673
2526.53574 0.03646
2525.24998 0.03639
2523.96421 0.03649
2522.67844 0.03667
2521.39267 0.03687
2520.10690 0.03701
2518.82113 0.03694
2517.53536 0.03660
2516.24959 0.03615
2514.96383 0.03580
2513.67806 0.03569
2512.39229 0.03578
2511.10652 0.03604
2509.82075 0.03636
2508.53498 0.03647
2507.24921 0.03610
2505.96344 0.03533
2504.67767 0.03463
2503.39191 0.03437
2502.10614 0.03454
2500.82037 0.03487
2499.53460 0.03513
2498.24883 0.03530
2496.96306 0.03544
2495.67729 0.03555
2494.39152 0.03560
2493.10576 0.03562
2491.81999 0.03565
2490.53422 0.03568
2489.24845 0.03558
2487.96268 0.03527
2486.67691 0.03480
2485.39114 0.03445
2484.10537 0.03448
2482.81960 0.03492
2481.53384 0.03547
2480.24807 0.03570
2478.96230 0.03542
2477.67653 0.03481
2476.39076 0.03421
2475.10499 0.03387
2473.81922 0.03386
2472.53345 0.03405
2471.24769 0.03425
2469.96192 0.03434
2468.67615 0.03440
2467.39038 0.03458
2466.10461 0.03494
2464.81884 0.03531
2463.53307 0.03538
2462.24730 0.03505
2460.96153 0.03453
2459.67577 0.03425
2458.39000 0.03440
2457.10423 0.03478
2455.81846 0.03501
2454.53269 0.03492
2453.24692 0.03462
2451.96115 0.03442
2450.67538 0.03443
2449.38962 0.03454
2448.10385 0.03457
2446.81808 0.03450
2445.53231 0.03450
2444.24654 0.03470
2442.96077 0.03503
2441.67500 0.03531
2440.38923 0.03540
2439.10346 0.03530
2437.81770 0.03507
2436.53193 0.03471
2435.24616 0.03422
2433.96039 0.03370
2432.67462 0.03346
2431.38885 0.03367
2430.10308 0.03416
2428.81731 0.03453
2427.53155 0.03451
2426.24578 0.03416
2424.96001 0.03375
2423.67424 0.03341
2422.38847 0.03309
2421.10270 0.03279
2419.81693 0.03262
2418.53116 0.03269
2417.24539 0.03296
2415.95963 0.03322
2414.67386 0.03333
2413.38809 0.03326
2412.10232 0.03308
2410.81655 0.03288
2409.53078 0.03271
2408.24501 0.03252
2406.95924 0.03221
2405.67347 0.03178
2404.38771 0.03152
2403.10194 0.03171
2401.81617 0.03231
2400.53040 0.03292
2399.24463 0.03380
2397.95886 0.03314
2396.67309 0.03270
2395.38732 0.03278
2394.10156 0.03296
2392.81579 0.03307
2391.53002 0.03307
2390.24425 0.03299
2388.95848 0.03291
2387.67271 0.03290
2386.38694 0.03298
2385.10117 0.03315
2383.81540 0.03333
2382.52964 0.03346
2381.24387 0.03347
2379.95810 0.03337
2378.67233 0.03322
2377.38656 0.03311
2376.10079 0.03313
2374.81502 0.03324
2373.52925 0.03343
2372.24349 0.03366
2370.95772 0.03397
2369.67195 0.03425
2368.38618 0.03444
2367.10041 0.03448
2365.81464 0.03444
2364.52887 0.03419
2363.24310 0.03396
2361.95733 0.03394
2360.67157 0.03426
2359.38580 0.03450
2358.10003 0.03458
2356.81426 0.03457
2355.52849 0.03454
2354.24272 0.03447
2352.95695 0.03440
2351.67118 0.03456
2350.38542 0.03490
2349.09965 0.03507
2347.81388 0.03500
2346.52811 0.03518
2345.24234 0.03554
2343.95657 0.03548
2342.67080 0.03499
2341.38503 0.03502
2340.09926 0.03566
2338.81350 0.03556
2337.52773 0.03459
2336.24196 0.03440
2334.95619 0.03471
2333.67042 0.03379
2332.38465 0.03212
2331.09888 0.03175
2329.81311 0.03161
2328.52735 0.03060
2327.24158 0.03126
2325.95581 0.03322
2324.67004 0.03449
2323.38427 0.03605
2322.09850 0.03783
2320.81273 0.03818
2319.52696 0.03846
2318.24119 0.03874
2316.95543 0.03821
2315.66966 0.03780
2314.38389 0.03739
2313.09812 0.03661
2311.81235 0.03613
2310.52658 0.03559
2309.24081 0.03504
2307.95504 0.03463
2306.66928 0.03396
2305.38351 0.03327
2304.09774 0.03258
2302.81197 0.03201
2301.52620 0.03181
2300.24043 0.03182
2298.95466 0.03194
2297.66889 0.03199
2296.38312 0.03195
2295.09736 0.03190
2293.81159 0.03177
2292.52582 0.03157
2291.24005 0.03131
2289.95428 0.03119
2288.66851 0.03135
2287.38274 0.03176
2286.09697 0.03221
2284.81121 0.03244
2283.52544 0.03240
2282.23967 0.03230
2280.95390 0.03236
2279.66813 0.03245
2278.38236 0.03221
2277.09659 0.03144
2275.81082 0.03039
2274.52505 0.02961
2273.23929 0.02938
2271.95352 0.02956
2270.66775 0.02968
2269.38198 0.02933
2268.09621 0.02852
2266.81044 0.02770
2265.52467 0.02733
2264.23890 0.02737
2262.95314 0.02733
2261.66737 0.02673
2260.38160 0.02564
2259.09583 0.02462
2257.81006 0.02417
2256.52429 0.02422
2255.23852 0.02439
2253.95275 0.02450
2252.66698 0.02451
2251.38122 0.02413
2250.09545 0.02398
2248.80968 0.02561
2247.52391 0.02508
2246.23814 0.02486
2244.95237 0.02507
2243.66660 0.02514
2242.38083 0.02462
2241.09507 0.02364
2239.80930 0.02279
2238.52353 0.02254
2237.23776 0.02296
2235.95199 0.02387
2234.66622 0.02493
2233.38045 0.02582
2232.09468 0.02630
2230.80891 0.02634
2229.52315 0.02599
2228.23738 0.02534
2226.95161 0.02453
2225.66584 0.02379
2224.38007 0.02335
2223.09430 0.02323
2221.80853 0.02331
2220.52276 0.02337
2219.23700 0.02324
2217.95123 0.02284
2216.66546 0.02205
2215.37969 0.02084
2214.09392 0.01950
2212.80815 0.01855
2211.52238 0.01842
2210.23661 0.01916
2208.95084 0.02042
2207.66508 0.02157
2206.37931 0.02198
2205.09354 0.02158
2203.80777 0.02095
2202.52200 0.02066
2201.23623 0.02061
2199.95046 0.02043
2198.66469 0.02013
2197.37893 0.02007
2196.09316 0.02022
2194.80739 0.01999
2193.52162 0.01907
2192.23585 0.01795
2190.95008 0.01750
2189.66431 0.01790
2188.37854 0.01842
2187.09277 0.01825
2185.80701 0.01736
2184.52124 0.01654
2183.23547 0.01652
2181.94970 0.01734
2180.66393 0.01843
2179.37816 0.01917
2178.09239 0.01917
2176.80662 0.01839
2175.52085 0.01708
2174.23509 0.01576
2172.94932 0.01489
2171.66355 0.01470
2170.37778 0.01520
2169.09201 0.01615
2167.80624 0.01699
2166.52047 0.01711
2165.23470 0.01633
2163.94894 0.01507
2162.66317 0.01382
2161.37740 0.01246
2160.09163 0.01049
2158.80586 0.00808
2157.52009 0.00638
2156.23432 0.00635
2154.94855 0.00752
2153.66278 0.00854
2152.37702 0.00869
2151.09125 0.00868
2149.80548 0.00973
2148.51971 0.01198
2147.23394 0.01432
2145.94817 0.01554
2144.66240 0.01547
2143.37663 0.01480
2142.09087 0.01424
2140.80510 0.01399
2139.51933 0.01387
2138.23356 0.01363
2136.94779 0.01331
2135.66202 0.01309
2134.37625 0.01310
2133.09048 0.01329
2131.80471 0.01359
2130.51895 0.01406
2129.23318 0.01481
2127.94741 0.01585
2126.66164 0.01696
2125.37587 0.01786
2124.09010 0.01836
2122.80433 0.01845
2121.51856 0.01828
2120.23280 0.01813
2118.94703 0.01829
2117.66126 0.01882
2116.37549 0.01942
2115.08972 0.01970
2113.80395 0.01957
2112.51818 0.01938
2111.23241 0.01950
2109.94664 0.01993
2108.66088 0.02033
2107.37511 0.02029
2106.08934 0.01975
2104.80357 0.01905
2103.51780 0.01868
2102.23203 0.01881
2100.94626 0.01927
2099.66049 0.02103
2098.37473 0.02206
2097.08896 0.02165
2095.80319 0.02037
2094.51742 0.01890
2093.23165 0.01780
2091.94588 0.01730
2090.66011 0.01717
2089.37434 0.01711
2088.08857 0.01706
2086.80281 0.01706
2085.51704 0.01715
2084.23127 0.01736
2082.94550 0.01774
2081.65973 0.01828
2080.37396 0.01885
2079.08819 0.01924
2077.80242 0.01930
2076.51666 0.01905
2075.23089 0.01863
2073.94512 0.01821
2072.65935 0.01787
2071.37358 0.01765
2070.08781 0.01751
2068.80204 0.01744
2067.51627 0.01742
2066.23050 0.01741
2064.94474 0.01735
2063.65897 0.01724
2062.37320 0.01709
2061.08743 0.01692
2059.80166 0.01673
2058.51589 0.01649
2057.23012 0.01613
2055.94435 0.01558
2054.65859 0.01494
2053.37282 0.01458
2052.08705 0.01483
2050.80128 0.01549
2049.51551 0.01586
2048.22974 0.01536
2046.94397 0.01411
2045.65820 0.01274
2044.37243 0.01182
2043.08667 0.01160
2041.80090 0.01209
2040.51513 0.01319
2039.22936 0.01456
2037.94359 0.01561
2036.65782 0.01584
2035.37205 0.01524
2034.08628 0.01441
2032.80052 0.01389
2031.51475 0.01359
2030.22898 0.01300
2028.94321 0.01195
2027.65744 0.01093
2026.37167 0.01053
2025.08590 0.01078
2023.80013 0.01118
2022.51436 0.01130
2021.22860 0.01126
2019.94283 0.01139
2018.65706 0.01185
2017.37129 0.01246
2016.08552 0.01283
2014.79975 0.01268
2013.51398 0.01216
2012.22821 0.01176
2010.94245 0.01187
2009.65668 0.01241
2008.37091 0.01300
2007.08514 0.01334
2005.79937 0.01331
2004.51360 0.01289
2003.22783 0.01214
2001.94206 0.01139
2000.65629 0.01116
1999.37053 0.01164
1998.08476 0.01248
1996.79899 0.01312
1995.51322 0.01342
1994.22745 0.01370
1992.94168 0.01421
1991.65591 0.01473
1990.37014 0.01480
1989.08438 0.01436
1987.79861 0.01400
1986.51284 0.01440
1985.22707 0.01557
1983.94130 0.01685
1982.65553 0.01759
1981.36976 0.01775
1980.08399 0.01777
1978.79822 0.01798
1977.51246 0.01839
1976.22669 0.01879
1974.94092 0.01894
1973.65515 0.01865
1972.36938 0.01795
1971.08361 0.01720
1969.79784 0.01678
1968.51207 0.01669
1967.22631 0.01659
1965.94054 0.01640
1964.65477 0.01640
1963.36900 0.01677
1962.08323 0.01725
1960.79746 0.01739
1959.51169 0.01716
1958.22592 0.01683
1956.94015 0.01650
1955.65439 0.01601
1954.36862 0.01528
1953.08285 0.01461
1951.79708 0.01442
1950.51131 0.01491
1949.22554 0.01582
1947.93977 0.01678
1946.65400 0.01751
1945.36823 0.01799
1944.08247 0.01828
1942.79670 0.01845
1941.51093 0.01860
1940.22516 0.01884
1938.93939 0.01922
1937.65362 0.01966
1936.36785 0.01997
1935.08208 0.01996
1933.79632 0.01958
1932.51055 0.01892
1931.22478 0.01828
1929.93901 0.01796
1928.65324 0.01815
1927.36747 0.01872
1926.08170 0.01933
1924.79593 0.01968
1923.51016 0.01976
1922.22440 0.01987
1920.93863 0.02019
1919.65286 0.02056
1918.36709 0.02069
1917.08132 0.02040
1915.79555 0.01981
1914.50978 0.01926
1913.22401 0.01903
1911.93825 0.01918
1910.65248 0.01957
1909.36671 0.01995
1908.08094 0.02009
1906.79517 0.01988
1905.50940 0.01945
1904.22363 0.01904
1902.93786 0.01887
1901.65209 0.01892
1900.36633 0.01907
1899.08056 0.01931
1897.79479 0.01960
1896.50902 0.01987
1895.22325 0.01999
1893.93748 0.01998
1892.65171 0.01996
1891.36594 0.01995
1890.08018 0.01992
1888.79441 0.01987
1887.50864 0.01987
1886.22287 0.01992
1884.93710 0.01997
1883.65133 0.01996
1882.36556 0.01993
1881.07979 0.01989
1879.79402 0.01987
1878.50826 0.01989
1877.22249 0.01998
1875.93672 0.02008
1874.65095 0.02012
1873.36518 0.02010
1872.07941 0.02011
1870.79364 0.02016
1869.50787 0.02017
1868.22211 0.02009
1866.93634 0.01992
1865.65057 0.01971
1864.36480 0.01953
1863.07903 0.01938
1861.79326 0.01929
1860.50749 0.01927
1859.22172 0.01927
1857.93595 0.01924
1856.65019 0.01919
1855.36442 0.01921
1854.07865 0.01939
1852.79288 0.01967
1851.50711 0.01991
1850.22134 0.01997
1848.93557 0.01991
1847.64980 0.01991
1846.36404 0.02005
1845.07827 0.02028
1843.79250 0.02052
1842.50673 0.02068
1841.22096 0.02073
1839.93519 0.02070
1838.64942 0.02064
1837.36365 0.02053
1836.07788 0.02039
1834.79212 0.02028
1833.50635 0.02024
1832.22058 0.02022
1830.93481 0.02021
1829.64904 0.02031
1828.36327 0.02059
1827.07750 0.02093
1825.79173 0.02118
1824.50597 0.02129
1823.22020 0.02130
1821.93443 0.02124
1820.64866 0.02109
1819.36289 0.02083
1818.07712 0.02048
1816.79135 0.02012
1815.50558 0.01985
1814.21981 0.01967
1812.93405 0.01958
1811.64828 0.01955
1810.36251 0.01956
1809.07674 0.01959
1807.79097 0.01966
1806.50520 0.01983
1805.21943 0.02011
1803.93366 0.02044
1802.64790 0.02065
1801.36213 0.02068
1800.07636 0.02061
1798.79059 0.02057
1797.50482 0.02064
1796.21905 0.02077
1794.93328 0.02088
1793.64751 0.02092
1792.36174 0.02094
1791.07598 0.02102
1789.79021 0.02117
1788.50444 0.02131
1787.21867 0.02139
1785.93290 0.02142
1784.64713 0.02143
1783.36136 0.02147
1782.07559 0.02152
1780.78983 0.02154
1779.50406 0.02147
1778.21829 0.02133
1776.93252 0.02120
1775.64675 0.02117
1774.36098 0.02119
1773.07521 0.02121
1771.78944 0.02123
1770.50367 0.02127
1769.21791 0.02134
1767.93214 0.02143
1766.64637 0.02157
1765.36060 0.02173
1764.07483 0.02185
1762.78906 0.02195
1761.50329 0.02202
1760.21752 0.02207
1758.93176 0.02204
1757.64599 0.02194
1756.36022 0.02185
1755.07445 0.02182
1753.78868 0.02182
1752.50291 0.02182
1751.21714 0.02185
1749.93137 0.02192
1748.64560 0.02200
1747.35984 0.02207
1746.07407 0.02215
1744.78830 0.02224
1743.50253 0.02235
1742.21676 0.02246
1740.93099 0.02257
1739.64522 0.02274
1738.35945 0.02304
1737.07369 0.02334
1735.78792 0.02351
1734.50215 0.02352
1733.21638 0.02351
1731.93061 0.02351
1730.64484 0.02349
1729.35907 0.02349
1728.07330 0.02357
1726.78753 0.02369
1725.50177 0.02379
1724.21600 0.02389
1722.93023 0.02411
1721.64446 0.02449
1720.35869 0.02494
1719.07292 0.02534
1717.78715 0.02564
1716.50138 0.02590
1715.21561 0.02613
1713.92985 0.02634
1712.64408 0.02662
1711.35831 0.02702
1710.07254 0.02752
1708.78677 0.02805
1707.50100 0.02852
1706.21523 0.02895
1704.92946 0.02945
1703.64370 0.03005
1702.35793 0.03064
1701.07216 0.03115
1699.78639 0.03166
1698.50062 0.03212
1697.21485 0.03241
1695.92908 0.03261
1694.64331 0.03291
1693.35754 0.03332
1692.07178 0.03372
1690.78601 0.03418
1689.50024 0.03481
1688.21447 0.03560
1686.92870 0.03635
1685.64293 0.03689
1684.35716 0.03722
1683.07139 0.03748
1681.78563 0.03770
1680.49986 0.03795
1679.21409 0.03836
1677.92832 0.03890
1676.64255 0.03947
1675.35678 0.04004
1674.07101 0.04064
1672.78524 0.04125
1671.49947 0.04180
1670.21371 0.04230
1668.92794 0.04275
1667.64217 0.04315
1666.35640 0.04351
1665.07063 0.04389
1663.78486 0.04434
1662.49909 0.04486
1661.21332 0.04536
1659.92756 0.04582
1658.64179 0.04630
1657.35602 0.04694
1656.07025 0.04767
1654.78448 0.04827
1653.49871 0.04865
1652.21294 0.04894
1650.92717 0.04918
1649.64140 0.04929
1648.35564 0.04928
1647.06987 0.04929
1645.78410 0.04939
1644.49833 0.04953
1643.21256 0.04962
1641.92679 0.04967
1640.64102 0.04972
1639.35525 0.04980
1638.06949 0.04989
1636.78372 0.04995
1635.49795 0.04999
1634.21218 0.05004
1632.92641 0.05005
1631.64064 0.05003
1630.35487 0.05006
1629.06910 0.05020
1627.78333 0.05044
1626.49757 0.05072
1625.21180 0.05095
1623.92603 0.05111
1622.64026 0.05128
1621.35449 0.05153
1620.06872 0.05183
1618.78295 0.05208
1617.49718 0.05225
1616.21142 0.05239
1614.92565 0.05253
1613.63988 0.05266
1612.35411 0.05284
1611.06834 0.05310
1609.78257 0.05344
1608.49680 0.05377
1607.21103 0.05408
1605.92526 0.05437
1604.63950 0.05465
1603.35373 0.05492
1602.06796 0.05519
1600.78219 0.05548
1599.49642 0.05578
1598.21065 0.05609
1596.92488 0.05641
1595.63911 0.05676
1594.35335 0.05712
1593.06758 0.05747
1591.78181 0.05776
1590.49604 0.05803
1589.21027 0.05829
1587.92450 0.05857
1586.63873 0.05886
1585.35296 0.05912
1584.06719 0.05937
1582.78143 0.05966
1581.49566 0.06007
1580.20989 0.06064
1578.92412 0.06124
1577.63835 0.06171
1576.35258 0.06205
1575.06681 0.06236
1573.78104 0.06268
1572.49528 0.06293
1571.20951 0.06309
1569.92374 0.06325
1568.63797 0.06345
1567.35220 0.06369
1566.06643 0.06393
1564.78066 0.06419
1563.49489 0.06453
1562.20912 0.06490
1560.92336 0.06518
1559.63759 0.06532
1558.35182 0.06536
1557.06605 0.06530
1555.78028 0.06509
1554.49451 0.06483
1553.20874 0.06464
1551.92297 0.06452
1550.63721 0.06440
1549.35144 0.06428
1548.06567 0.06416
1546.77990 0.06402
1545.49413 0.06385
1544.20836 0.06368
1542.92259 0.06347
1541.63682 0.06309
1540.35105 0.06250
1539.06529 0.06182
1537.77952 0.06117
1536.49375 0.06059
1535.20798 0.06007
1533.92221 0.05965
1532.63644 0.05940
1531.35067 0.05927
1530.06490 0.05921
1528.77914 0.05921
1527.49337 0.05929
1526.20760 0.05946
1524.92183 0.05973
1523.63606 0.06005
1522.35029 0.06038
1521.06452 0.06077
1519.77875 0.06122
1518.49298 0.06169
1517.20722 0.06219
1515.92145 0.06280
1514.63568 0.06356
1513.34991 0.06446
1512.06414 0.06550
1510.77837 0.06671
1509.49260 0.06797
1508.20683 0.06911
1506.92107 0.07008
1505.63530 0.07095
1504.34953 0.07176
1503.06376 0.07252
1501.77799 0.07327
1500.49222 0.07405
1499.20645 0.07483
1497.92068 0.07551
1496.63491 0.07607
1495.34915 0.07655
1494.06338 0.07699
1492.77761 0.07744
1491.49184 0.07795
1490.20607 0.07862
1488.92030 0.07945
1487.63453 0.08034
1486.34876 0.08122
1485.06299 0.08209
1483.77723 0.08297
1482.49146 0.08390
1481.20569 0.08492
1479.91992 0.08604
1478.63415 0.08723
1477.34838 0.08846
1476.06261 0.08969
1474.77684 0.09084
1473.49108 0.09187
1472.20531 0.09281
1470.91954 0.09368
1469.63377 0.09450
1468.34800 0.09522
1467.06223 0.09587
1465.77646 0.09647
1464.49069 0.09708
1463.20492 0.09777
1461.91916 0.09858
1460.63339 0.09948
1459.34762 0.10034
1458.06185 0.10110
1456.77608 0.10178
1455.49031 0.10243
1454.20454 0.10298
1452.91877 0.10341
1451.63301 0.10373
1450.34724 0.10399
1449.06147 0.10413
1447.77570 0.10414
1446.48993 0.10403
1445.20416 0.10385
1443.91839 0.10363
1442.63262 0.10344
1441.34685 0.10330
1440.06109 0.10322
1438.77532 0.10316
1437.48955 0.10318
1436.20378 0.10337
1434.91801 0.10377
1433.63224 0.10430
1432.34647 0.10496
1431.06070 0.10579
1429.77494 0.10685
1428.48917 0.10807
1427.20340 0.10940
1425.91763 0.11082
1424.63186 0.11236
1423.34609 0.11397
1422.06032 0.11555
1420.77455 0.11696
1419.48878 0.11817
1418.20302 0.11920
1416.91725 0.12003
1415.63148 0.12066
1414.34571 0.12113
1413.05994 0.12143
1411.77417 0.12154
1410.48840 0.12136
1409.20263 0.12088
1407.91687 0.12012
1406.63110 0.11914
1405.34533 0.11798
1404.05956 0.11667
1402.77379 0.11520
1401.48802 0.11354
1400.20225 0.11171
1398.91648 0.10976
1397.63071 0.10776
1396.34495 0.10568
1395.05918 0.10354
1393.77341 0.10137
1392.48764 0.09922
1391.20187 0.09714
1389.91610 0.09513
1388.63033 0.09319
1387.34456 0.09128
1386.05880 0.08939
1384.77303 0.08749
1383.48726 0.08559
1382.20149 0.08371
1380.91572 0.08188
1379.62995 0.08009
1378.34418 0.07829
1377.05841 0.07643
1375.77264 0.07447
1374.48688 0.07244
1373.20111 0.07039
1371.91534 0.06837
1370.62957 0.06641
1369.34380 0.06454
1368.05803 0.06280
1366.77226 0.06121
1365.48649 0.05972
1364.20073 0.05829
1362.91496 0.05690
1361.62919 0.05557
1360.34342 0.05432
1359.05765 0.05315
1357.77188 0.05207
1356.48611 0.05104
1355.20034 0.05005
1353.91457 0.04911
1352.62881 0.04825
1351.34304 0.04750
1350.05727 0.04682
1348.77150 0.04618
1347.48573 0.04550
1346.19996 0.04480
1344.91419 0.04411
1343.62842 0.04348
1342.34266 0.04292
1341.05689 0.04237
1339.77112 0.04179
1338.48535 0.04122
1337.19958 0.04069
1335.91381 0.04021
1334.62804 0.03976
1333.34227 0.03931
1332.05650 0.03888
1330.77074 0.03849
1329.48497 0.03811
1328.19920 0.03772
1326.91343 0.03729
1325.62766 0.03686
1324.34189 0.03646
1323.05612 0.03613
1321.77035 0.03585
1320.48459 0.03560
1319.19882 0.03534
1317.91305 0.03505
1316.62728 0.03476
1315.34151 0.03449
1314.05574 0.03424
1312.76997 0.03400
1311.48420 0.03374
1310.19843 0.03347
1308.91267 0.03317
1307.62690 0.03288
1306.34113 0.03258
1305.05536 0.03231
1303.76959 0.03206
1302.48382 0.03184
1301.19805 0.03165
1299.91228 0.03146
1298.62652 0.03125
1297.34075 0.03101
1296.05498 0.03075
1294.76921 0.03047
1293.48344 0.03020
1292.19767 0.02997
1290.91190 0.02978
1289.62613 0.02963
1288.34036 0.02949
1287.05460 0.02932
1285.76883 0.02913
1284.48306 0.02896
1283.19729 0.02881
1281.91152 0.02867
1280.62575 0.02853
1279.33998 0.02835
1278.05421 0.02816
1276.76845 0.02798
1275.48268 0.02782
1274.19691 0.02770
1272.91114 0.02756
1271.62537 0.02741
1270.33960 0.02726
1269.05383 0.02714
1267.76806 0.02707
1266.48229 0.02706
1265.19653 0.02705
1263.91076 0.02702
1262.62499 0.02692
1261.33922 0.02676
1260.05345 0.02656
1258.76768 0.02636
1257.48191 0.02620
1256.19614 0.02608
1254.91037 0.02601
1253.62461 0.02595
1252.33884 0.02589
1251.05307 0.02581
1249.76730 0.02573
1248.48153 0.02564
1247.19576 0.02554
1245.90999 0.02540
1244.62422 0.02526
1243.33846 0.02514
1242.05269 0.02505
1240.76692 0.02500
1239.48115 0.02497
1238.19538 0.02494
1236.90961 0.02489
1235.62384 0.02482
1234.33807 0.02475
1233.05230 0.02471
1231.76654 0.02469
1230.48077 0.02465
1229.19500 0.02458
1227.90923 0.02448
1226.62346 0.02440
1225.33769 0.02434
1224.05192 0.02429
1222.76615 0.02423
1221.48039 0.02412
1220.19462 0.02400
1218.90885 0.02387
1217.62308 0.02374
1216.33731 0.02362
1215.05154 0.02352
1213.76577 0.02344
1212.48000 0.02340
1211.19423 0.02338
1209.90847 0.02337
1208.62270 0.02334
1207.33693 0.02329
1206.05116 0.02322
1204.76539 0.02317
1203.47962 0.02314
1202.19385 0.02307
1200.90808 0.02287
1199.62232 0.02280
1198.33655 0.02275
1197.05078 0.02266
1195.76501 0.02256
1194.47924 0.02249
1193.19347 0.02248
1191.90770 0.02249
1190.62193 0.02251
1189.33616 0.02252
1188.05040 0.02255
1186.76463 0.02259
1185.47886 0.02261
1184.19309 0.02258
1182.90732 0.02253
1181.62155 0.02253
1180.33578 0.02258
1179.05001 0.02261
1177.76425 0.02262
1176.47848 0.02262
1175.19271 0.02267
1173.90694 0.02276
1172.62117 0.02286
1171.33540 0.02296
1170.04963 0.02306
1168.76386 0.02319
1167.47809 0.02337
1166.19233 0.02360
1164.90656 0.02383
1163.62079 0.02405
1162.33502 0.02426
1161.04925 0.02446
1159.76348 0.02468
1158.47771 0.02496
1157.19194 0.02534
1155.90618 0.02580
1154.62041 0.02631
1153.33464 0.02682
1152.04887 0.02729
1150.76310 0.02776
1149.47733 0.02822
1148.19156 0.02871
1146.90579 0.02924
1145.62002 0.02989
1144.33426 0.03071
1143.04849 0.03170
1141.76272 0.03280
1140.47695 0.03394
1139.19118 0.03509
1137.90541 0.03630
1136.61964 0.03766
1135.33387 0.03914
1134.04811 0.04069
1132.76234 0.04231
1131.47657 0.04410
1130.19080 0.04617
1128.90503 0.04856
1127.61926 0.05125
1126.33349 0.05421
1125.04772 0.05741
1123.76195 0.06079
1122.47619 0.06427
1121.19042 0.06775
1119.90465 0.07119
1118.61888 0.07461
1117.33311 0.07809
1116.04734 0.08167
1114.76157 0.08533
1113.47580 0.08902
1112.19004 0.09265
1110.90427 0.09617
1109.61850 0.09959
1108.33273 0.10295
1107.04696 0.10629
1105.76119 0.10962
1104.47542 0.11291
1103.18965 0.11612
1101.90388 0.11919
1100.61812 0.12212
1099.33235 0.12498
1098.04658 0.12781
1096.76081 0.13060
1095.47504 0.13329
1094.18927 0.13584
1092.90350 0.13823
1091.61773 0.14046
1090.33197 0.14254
1089.04620 0.14455
1087.76043 0.14653
1086.47466 0.14851
1085.18889 0.15047
1083.90312 0.15244
1082.61735 0.15447
1081.33158 0.15669
1080.04581 0.15918
1078.76005 0.16196
1077.47428 0.16495
1076.18851 0.16804
1074.90274 0.17112
1073.61697 0.17418
1072.33120 0.17730
1071.04543 0.18059
1069.75966 0.18409
1068.47390 0.18771
1067.18813 0.19134
1065.90236 0.19493
1064.61659 0.19853
1063.33082 0.20221
1062.04505 0.20600
1060.75928 0.20985
1059.47351 0.21364
1058.18774 0.21727
1056.90198 0.22071
1055.61621 0.22405
1054.33044 0.22744
1053.04467 0.23095
1051.75890 0.23455
1050.47313 0.23825
1049.18736 0.24209
1047.90159 0.24607
1046.61583 0.25015
1045.33006 0.25428
1044.04429 0.25844
1042.75852 0.26262
1041.47275 0.26681
1040.18698 0.27100
1038.90121 0.27523
1037.61544 0.27955
1036.32967 0.28393
1035.04391 0.28828
1033.75814 0.29257
1032.47237 0.29671
1031.18660 0.30058
1029.90083 0.30403
1028.61506 0.30702
1027.32929 0.30958
1026.04352 0.31181
1024.75775 0.31375
1023.47199 0.31540
1022.18622 0.31673
1020.90045 0.31771
1019.61468 0.31826
1018.32891 0.31827
1017.04314 0.31769
1015.75737 0.31655
1014.47160 0.31492
1013.18584 0.31280
1011.90007 0.31013
1010.61430 0.30687
1009.32853 0.30311
1008.04276 0.29892
1006.75699 0.29436
1005.47122 0.28942
1004.18545 0.28407
1002.89968 0.27831
1001.61392 0.27217
1000.32815 0.26573
999.04238 0.25904
997.75661 0.25210
996.47084 0.24492
995.18507 0.23753
993.89930 0.23005
992.61353 0.22253
991.32777 0.21502
990.04200 0.20753
988.75623 0.20014
987.47046 0.19293
986.18469 0.18594
984.89892 0.17918
983.61315 0.17265
982.32738 0.16637
981.04161 0.16038
979.75585 0.15472
978.47008 0.14942
977.18431 0.14453
975.89854 0.14011
974.61277 0.13621
973.32700 0.13286
972.04123 0.13007
970.75546 0.12792
969.46970 0.12648
968.18393 0.12577
966.89816 0.12574
965.61239 0.12620
964.32662 0.12691
963.04085 0.12757
961.75508 0.12790
960.46931 0.12769
959.18354 0.12679
957.89778 0.12519
956.61201 0.12303
955.32624 0.12052
954.04047 0.11787
952.75470 0.11517
951.46893 0.11239
950.18316 0.10946
948.89739 0.10642
947.61163 0.10340
946.32586 0.10060
945.04009 0.09808
943.75432 0.09577
942.46855 0.09349
941.18278 0.09115
939.89701 0.08881
938.61124 0.08657
937.32547 0.08449
936.03971 0.08249
934.75394 0.08055
933.46817 0.07874
932.18240 0.07717
930.89663 0.07584
929.61086 0.07466
928.32509 0.07350
927.03932 0.07232
925.75356 0.07113
924.46779 0.06998
923.18202 0.06891
921.89625 0.06794
920.61048 0.06704
919.32471 0.06614
918.03894 0.06519
916.75317 0.06422
915.46740 0.06331
914.18164 0.06252
912.89587 0.06188
911.61010 0.06139
910.32433 0.06094
909.03856 0.06042
907.75279 0.05975
906.46702 0.05904
905.18125 0.05840
903.89549 0.05792
902.60972 0.05755
901.32395 0.05722
900.03818 0.05684
898.75241 0.05638
897.46664 0.05588
896.18087 0.05539
894.89510 0.05495
893.60933 0.05457
892.32357 0.05424
891.03780 0.05402
889.75203 0.05396
888.46626 0.05415
887.18049 0.05467
885.89472 0.05566
884.60895 0.05733
883.32318 0.05978
882.03742 0.06285
880.75165 0.06602
879.46588 0.06870
878.18011 0.07062
876.89434 0.07203
875.60857 0.07340
874.32280 0.07492
873.03703 0.07632
871.75126 0.07710
870.46550 0.07695
869.17973 0.07592
867.89396 0.07422
866.60819 0.07208
865.32242 0.06970
864.03665 0.06728
862.75088 0.06494
861.46511 0.06274
860.17935 0.06069
858.89358 0.05886
857.60781 0.05730
856.32204 0.05605
855.03627 0.05509
853.75050 0.05432
852.46473 0.05364
851.17896 0.05300
849.89319 0.05241
848.60743 0.05187
847.32166 0.05134
846.03589 0.05081
844.75012 0.05031
843.46435 0.04992
842.17858 0.04967
840.89281 0.04954
839.60704 0.04941
838.32128 0.04922
837.03551 0.04893
835.74974 0.04859
834.46397 0.04828
833.17820 0.04803
831.89243 0.04784
830.60666 0.04766
829.32089 0.04751
828.03512 0.04742
826.74936 0.04740
825.46359 0.04736
824.17782 0.04723
822.89205 0.04703
821.60628 0.04687
820.32051 0.04679
819.03474 0.04674
817.74897 0.04662
816.46321 0.04639
815.17744 0.04610
813.89167 0.04582
812.60590 0.04559
811.32013 0.04542
810.03436 0.04527
808.74859 0.04510
807.46282 0.04492
806.17705 0.04477
804.89129 0.04468
803.60552 0.04468
802.31975 0.04476
801.03398 0.04494
799.74821 0.04511
798.46244 0.04517
797.17667 0.04507
795.89090 0.04489
794.60513 0.04469
793.31937 0.04449
792.03360 0.04431
790.74783 0.04416
789.46206 0.04407
788.17629 0.04399
786.89052 0.04393
785.60475 0.04389
784.31898 0.04388
783.03322 0.04383
781.74745 0.04373
780.46168 0.04363
779.17591 0.04361
777.89014 0.04367
776.60437 0.04372
775.31860 0.04371
774.03283 0.04363
772.74706 0.04353
771.46130 0.04348
770.17553 0.04351
768.88976 0.04355
767.60399 0.04355
766.31822 0.04349
765.03245 0.04345
763.74668 0.04344
762.46091 0.04344
761.17515 0.04342
759.88938 0.04342
758.60361 0.04351
757.31784 0.04365
756.03207 0.04380
754.74630 0.04392
753.46053 0.04402
752.17476 0.04403
750.88899 0.04387
749.60323 0.04359
748.31746 0.04334
747.03169 0.04323
745.74592 0.04327
744.46015 0.04332
743.17438 0.04328
741.88861 0.04307
740.60284 0.04276
739.31708 0.04247
738.03131 0.04228
736.74554 0.04219
735.45977 0.04215
734.17400 0.04212
732.88823 0.04211
731.60246 0.04211
730.31669 0.04214
729.03092 0.04222
727.74516 0.04230
726.45939 0.04232
725.17362 0.04225
723.88785 0.04206
722.60208 0.04209
721.31631 0.04252
720.03054 0.04301
718.74477 0.04332
717.45901 0.04337
716.17324 0.04315
714.88747 0.04272
713.60170 0.04219
712.31593 0.04172
711.03016 0.04141
709.74439 0.04127
708.45862 0.04123
707.17285 0.04120
705.88709 0.04117
704.60132 0.04116
703.31555 0.04118
702.02978 0.04122
700.74401 0.04124
699.45824 0.04127
698.17247 0.04134
696.88670 0.04144
695.60094 0.04153
694.31517 0.04157
693.02940 0.04155
691.74363 0.04151
690.45786 0.04145
689.17209 0.04139
687.88632 0.04127
686.60055 0.04109
685.31478 0.04083
684.02902 0.04055
682.74325 0.04027
681.45748 0.03999
680.17171 0.03972
678.88594 0.03952
677.60017 0.03947
676.31440 0.03959
675.02863 0.03980
673.74287 0.03999
672.45710 0.04015
671.17133 0.04032
669.88556 0.04049
668.59979 0.04049
667.31402 0.04044
666.02825 0.04054
664.74248 0.04041
663.45671 0.04021
662.17095 0.03998
660.88518 0.03974
659.59941 0.03954
658.31364 0.03938
657.02787 0.03920
655.74210 0.03898
654.45633 0.03875
653.17056 0.03859
651.88480 0.03850
650.59903 0.03846
649.31326 0.03845
648.02749 0.03844
646.74172 0.03841
645.45595 0.03836
644.17018 0.03830
642.88441 0.03825
641.59864 0.03821
640.31288 0.03819
639.02711 0.03820
637.74134 0.03826
636.45557 0.03840
635.16980 0.03872
633.88403 0.03932
632.59826 0.04003
631.31249 0.04033
630.02673 0.04068
628.74096 0.04346
627.45519 0.04553
626.16942 0.04983
624.88365 0.05561
623.59788 0.06110
622.31211 0.06540
621.02634 0.06800
619.74057 0.06894
618.45481 0.06886
617.16904 0.06872
615.88327 0.06935
614.59750 0.07159
613.31173 0.07634
612.02596 0.08389
610.74019 0.09322
609.45442 0.10232
608.16866 0.10978
606.88289 0.11558
605.59712 0.12029
604.31135 0.12383
603.02558 0.12544
601.73981 0.12461
600.45404 0.12187
599.16827 0.11830
597.88250 0.11474
596.59674 0.11139
595.31097 0.10822
594.02520 0.10523
592.73943 0.10265
591.45366 0.10070
590.16789 0.09948
588.88212 0.09893
587.59635 0.09900
586.31059 0.09969
585.02482 0.10106
583.73905 0.10312
582.45328 0.10582
581.16751 0.10897
579.88174 0.11234
578.59597 0.11568
577.31020 0.11879
576.02443 0.12169
574.73867 0.12452
573.45290 0.12745
572.16713 0.13063
570.88136 0.13417
569.59559 0.13817
568.30982 0.14262
567.02405 0.14735
565.73828 0.15201
564.45251 0.15613
563.16675 0.15913
561.88098 0.16052
560.59521 0.15998
559.30944 0.15751
558.02367 0.15337
556.73790 0.14794
555.45213 0.14164
554.16636 0.13487
552.88060 0.12793
551.59483 0.12114
550.30906 0.11477
549.02329 0.10901
547.73752 0.10384
546.45175 0.09918
545.16598 0.09494
543.88021 0.09111
542.59444 0.08764
541.30868 0.08447
540.02291 0.08151
538.73714 0.07868
537.45137 0.07600
536.16560 0.07352
534.87983 0.07135
533.59406 0.06949
532.30829 0.06787
531.02253 0.06632
529.73676 0.06470
528.45099 0.06299
527.16522 0.06129
525.87945 0.05974
524.59368 0.05844
523.30791 0.05732
522.02214 0.05622
520.73637 0.05505
519.45061 0.05383
518.16484 0.05264
516.87907 0.05154
515.59330 0.05051
514.30753 0.04955
513.02176 0.04868
511.73599 0.04795
510.45022 0.04733
509.16446 0.04673
507.87869 0.04607
506.59292 0.04540
505.30715 0.04477
504.02138 0.04423
502.73561 0.04371
501.44984 0.04319
500.16407 0.04266
498.87830 0.04211
497.59254 0.04153
496.30677 0.04090
495.02100 0.04022
493.73523 0.03960
492.44946 0.03918
491.16369 0.03901
489.87792 0.03901
488.59215 0.03900
487.30639 0.03884
486.02062 0.03853
484.73485 0.03822
483.44908 0.03803
482.16331 0.03802
480.87754 0.03814
479.59177 0.03830
478.30600 0.03844
477.02023 0.03857
475.73447 0.03871
474.44870 0.03886
473.16293 0.03900
471.87716 0.03906
470.59139 0.03899
469.30562 0.03877
468.01985 0.03847
466.73408 0.03813
465.44832 0.03779
464.16255 0.03744
462.87678 0.03704
461.59101 0.03660
460.30524 0.03613
459.01947 0.03571
457.73370 0.03538
456.44793 0.03510
455.16216 0.03475
453.87640 0.03429
452.59063 0.03380
451.30486 0.03337
450.01909 0.03304
448.73332 0.03275
447.44755 0.03249
446.16178 0.03225
444.87601 0.03206
443.59025 0.03190
442.30448 0.03176
441.01871 0.03161
439.73294 0.03144
438.44717 0.03126
437.16140 0.03108
435.87563 0.03092
434.58986 0.03081
433.30409 0.03075
432.01833 0.03071
430.73256 0.03065
429.44679 0.03054
428.16102 0.03039
426.87525 0.03021
425.58948 0.03003
424.30371 0.02989
423.01794 0.02983
421.73218 0.02984
420.44641 0.02987
419.16064 0.02985
417.87487 0.02975
416.58910 0.02958
415.30333 0.02937
414.01756 0.02919
412.73179 0.02908
411.44602 0.02906
410.16026 0.02910
408.87449 0.02919
407.58872 0.02928
406.30295 0.02936
405.01718 0.02942
403.73141 0.02950
402.44564 0.02959
401.15987 0.02968
399.87411 0.02977
