3997.45528 0.02327
3996.16951 0.02413
3994.88374 0.02494
3993.59798 0.02541
3992.31221 0.02544
3991.02644 0.02521
3989.74067 0.02497
3988.45490 0.02482
3987.16913 0.02466
3985.88336 0.02436
3984.59759 0.02383
3983.31183 0.02306
3982.02606 0.02212
3980.74029 0.02124
3979.45452 0.02077
3978.16875 0.02082
3976.88298 0.02119
3975.59721 0.02161
3974.31144 0.02208
3973.02567 0.02269
3971.73991 0.02337
3970.45414 0.02396
3969.16837 0.02445
3967.88260 0.02491
3966.59683 0.02533
3965.31106 0.02556
3964.02529 0.02536
3962.73952 0.02451
3961.45376 0.02318
3960.16799 0.02204
3958.88222 0.02182
3957.59645 0.02260
3956.31068 0.02356
3955.02491 0.02377
3953.73914 0.02311
3952.45337 0.02236
3951.16760 0.02230
3949.88184 0.02290
3948.59607 0.02354
3947.31030 0.02389
3946.02453 0.02415
3944.73876 0.02463
3943.45299 0.02529
3942.16722 0.02589
3940.88145 0.02624
3939.59569 0.02626
3938.30992 0.02598
3937.02415 0.02557
3935.73838 0.02513
3934.45261 0.02460
3933.16684 0.02388
3931.88107 0.02307
3930.59530 0.02235
3929.30953 0.02181
3928.02377 0.02160
3926.73800 0.02209
3925.45223 0.02350
3924.16646 0.02532
3922.88069 0.02659
3921.59492 0.02676
3920.30915 0.02626
3919.02338 0.02577
3917.73762 0.02537
3916.45185 0.02463
3915.16608 0.02350
3913.88031 0.02245
3912.59454 0.02189
3911.30877 0.02179
3910.02300 0.02186
3908.73723 0.02191
3907.45146 0.02175
3906.16570 0.02127
3904.87993 0.02069
3903.59416 0.02049
3902.30839 0.02102
3901.02262 0.02210
3899.73685 0.02326
3898.45108 0.02419
3897.16531 0.02492
3895.87955 0.02557
3894.59378 0.02616
3893.30801 0.02668
3892.02224 0.02714
3890.73647 0.02744
3889.45070 0.02739
3888.16493 0.02677
3886.87916 0.02565
3885.59339 0.02444
3884.30763 0.02368
3883.02186 0.02358
3881.73609 0.02385
3880.45032 0.02399
3879.16455 0.02373
3877.87878 0.02322
3876.59301 0.02276
3875.30724 0.02248
3874.02148 0.02253
3872.73571 0.02310
3871.44994 0.02408
3870.16417 0.02481
3868.87840 0.02443
3867.59263 0.02291
3866.30686 0.02118
3865.02109 0.02028
3863.73532 0.02032
3862.44956 0.02057
3861.16379 0.02046
3859.87802 0.02017
3858.59225 0.02029
3857.30648 0.02115
3856.02071 0.02252
3854.73494 0.02392
3853.44917 0.02498
3852.16341 0.02570
3850.87764 0.02626
3849.59187 0.02675
3848.30610 0.02700
3847.02033 0.02695
3845.73456 0.02678
3844.44879 0.02674
3843.16302 0.02676
3841.87725 0.02651
3840.59149 0.02570
3839.30572 0.02428
3838.01995 0.02264
3836.73418 0.02147
3835.44841 0.02132
3834.16264 0.02216
3832.87687 0.02324
3831.59110 0.02369
3830.30534 0.02314
3829.01957 0.02188
3827.73380 0.02052
3826.44803 0.01961
3825.16226 0.01940
3823.87649 0.01985
3822.59072 0.02075
3821.30495 0.02195
3820.01918 0.02326
3818.73342 0.02427
3817.44765 0.02443
3816.16188 0.02363
3814.87611 0.02259
3813.59034 0.02233
3812.30457 0.02310
3811.01880 0.02417
3809.73303 0.02452
3808.44726 0.02385
3807.16150 0.02264
3805.87573 0.02162
3804.58996 0.02132
3803.30419 0.02182
3802.01842 0.02282
3800.73265 0.02384
3799.44688 0.02451
3798.16111 0.02483
3796.87535 0.02497
3795.58958 0.02501
3794.30381 0.02479
3793.01804 0.02412
3791.73227 0.02309
3790.44650 0.02212
3789.16073 0.02170
3787.87496 0.02194
3786.58919 0.02251
3785.30343 0.02290
3784.01766 0.02293
3782.73189 0.02273
3781.44612 0.02250
3780.16035 0.02227
3778.87458 0.02203
3777.58881 0.02194
3776.30304 0.02228
3775.01728 0.02307
3773.73151 0.02394
3772.44574 0.02435
3771.15997 0.02409
3769.87420 0.02344
3768.58843 0.02291
3767.30266 0.02277
3766.01689 0.02290
3764.73112 0.02299
3763.44536 0.02277
3762.15959 0.02227
3760.87382 0.02181
3759.58805 0.02176
3758.30228 0.02218
3757.01651 0.02278
3755.73074 0.02322
3754.44497 0.02329
3753.15921 0.02300
3751.87344 0.02244
3750.58767 0.02177
3749.30190 0.02123
3748.01613 0.02102
3746.73036 0.02112
3745.44459 0.02120
3744.15882 0.02093
3742.87305 0.02042
3741.58729 0.02020
3740.30152 0.02072
3739.01575 0.02189
3737.72998 0.02323
3736.44421 0.02429
3735.15844 0.02486
3733.87267 0.02481
3732.58690 0.02406
3731.30114 0.02273
3730.01537 0.02125
3728.72960 0.02028
3727.44383 0.02037
3726.15806 0.02154
3724.87229 0.02321
3723.58652 0.02441
3722.30075 0.02433
3721.01498 0.02292
3719.72922 0.02110
3718.44345 0.02002
3717.15768 0.02014
3715.87191 0.02084
3714.58614 0.02114
3713.30037 0.02066
3712.01460 0.01972
3710.72883 0.01885
3709.44307 0.01846
3708.15730 0.01879
3706.87153 0.01991
3705.58576 0.02150
3704.29999 0.02291
3703.01422 0.02355
3701.72845 0.02326
3700.44268 0.02232
3699.15691 0.02118
3697.87115 0.02026
3696.58538 0.01981
3695.29961 0.01989
3694.01384 0.02044
3692.72807 0.02139
3691.44230 0.02248
3690.15653 0.02336
3688.87076 0.02371
3687.58500 0.02349
3686.29923 0.02291
3685.01346 0.02230
3683.72769 0.02188
3682.44192 0.02162
3681.15615 0.02152
3679.87038 0.02161
3678.58461 0.02185
3677.29884 0.02207
3676.01308 0.02217
3674.72731 0.02240
3673.44154 0.02303
3672.15577 0.02391
3670.87000 0.02454
3669.58423 0.02469
3668.29846 0.02468
3667.01269 0.02493
3665.72693 0.02532
3664.44116 0.02536
3663.15539 0.02478
3661.86962 0.02389
3660.58385 0.02320
3659.29808 0.02290
3658.01231 0.02283
3656.72654 0.02284
3655.44077 0.02303
3654.15501 0.02364
3652.86924 0.02468
3651.58347 0.02579
3650.29770 0.02649
3649.01193 0.02668
3647.72616 0.02665
3646.44039 0.02662
3645.15462 0.02656
3643.86886 0.02654
3642.58309 0.02687
3641.29732 0.02760
3640.01155 0.02837
3638.72578 0.02877
3637.44001 0.02878
3636.15424 0.02857
3634.86847 0.02835
3633.58270 0.02828
3632.29694 0.02857
3631.01117 0.02927
3629.72540 0.03024
3628.43963 0.03116
3627.15386 0.03166
3625.86809 0.03141
3624.58232 0.03057
3623.29655 0.02974
3622.01079 0.02951
3620.72502 0.02988
3619.43925 0.03029
3618.15348 0.03028
3616.86771 0.02991
3615.58194 0.02974
3614.29617 0.03023
3613.01040 0.03128
3611.72463 0.03224
3610.43887 0.03263
3609.15310 0.03263
3607.86733 0.03287
3606.58156 0.03353
3605.29579 0.03420
3604.01002 0.03443
3602.72425 0.03426
3601.43848 0.03418
3600.15272 0.03463
3598.86695 0.03565
3597.58118 0.03681
3596.29541 0.03758
3595.00964 0.03770
3593.72387 0.03742
3592.43810 0.03732
3591.15233 0.03772
3589.86656 0.03845
3588.58080 0.03912
3587.29503 0.03944
3586.00926 0.03941
3584.72349 0.03922
3583.43772 0.03907
3582.15195 0.03903
3580.86618 0.03901
3579.58041 0.03901
3578.29464 0.03923
3577.00888 0.03984
3575.72311 0.04077
3574.43734 0.04157
3573.15157 0.04178
3571.86580 0.04140
3570.58003 0.04082
3569.29426 0.04039
3568.00849 0.04020
3566.72273 0.04031
3565.43696 0.04098
3564.15119 0.04232
3562.86542 0.04387
3561.57965 0.04487
3560.29388 0.04503
3559.00811 0.04479
3557.72234 0.04478
3556.43657 0.04519
3555.15081 0.04575
3553.86504 0.04619
3552.57927 0.04645
3551.29350 0.04645
3550.00773 0.04592
3548.72196 0.04487
3547.43619 0.04384
3546.15042 0.04358
3544.86466 0.04428
3543.57889 0.04538
3542.29312 0.04623
3541.00735 0.04673
3539.72158 0.04721
3538.43581 0.04786
3537.15004 0.04844
3535.86427 0.04856
3534.57850 0.04810
3533.29274 0.04739
3532.00697 0.04687
3530.72120 0.04678
3529.43543 0.04707
3528.14966 0.04752
3526.86389 0.04803
3525.57812 0.04860
3524.29235 0.04925
3523.00659 0.05004
3521.72082 0.05093
3520.43505 0.05162
3519.14928 0.05175
3517.86351 0.05126
3516.57774 0.05060
3515.29197 0.05031
3514.00620 0.05044
3512.72043 0.05053
3511.43467 0.05023
3510.14890 0.04965
3508.86313 0.04919
3507.57736 0.04905
3506.29159 0.04925
3505.00582 0.04988
3503.72005 0.05100
3502.43428 0.05230
3501.14852 0.05332
3499.86275 0.05387
3498.57698 0.05410
3497.29121 0.05415
3496.00544 0.05399
3494.71967 0.05360
3493.43390 0.05315
3492.14813 0.05284
3490.86236 0.05280
3489.57660 0.05312
3488.29083 0.05379
3487.00506 0.05460
3485.71929 0.05531
3484.43352 0.05579
3483.14775 0.05609
3481.86198 0.05639
3480.57621 0.05689
3479.29045 0.05774
3478.00468 0.05877
3476.71891 0.05953
3475.43314 0.05974
3474.14737 0.05953
3472.86160 0.05927
3471.57583 0.05913
3470.29006 0.05901
3469.00429 0.05876
3467.71853 0.05830
3466.43276 0.05771
3465.14699 0.05716
3463.86122 0.05688
3462.57545 0.05697
3461.28968 0.05727
3460.00391 0.05752
3458.71814 0.05759
3457.43238 0.05760
3456.14661 0.05775
3454.86084 0.05813
3453.57507 0.05866
3452.28930 0.05902
3451.00353 0.05894
3449.71776 0.05856
3448.43199 0.05836
3447.14622 0.05865
3445.86046 0.05918
3444.57469 0.05944
3443.28892 0.05928
3442.00315 0.05911
3440.71738 0.05932
3439.43161 0.05987
3438.14584 0.06034
3436.86007 0.06046
3435.57431 0.06040
3434.28854 0.06049
3433.00277 0.06087
3431.71700 0.06142
3430.43123 0.06193
3429.14546 0.06216
3427.85969 0.06187
3426.57392 0.06104
3425.28815 0.06005
3424.00239 0.05945
3422.71662 0.05942
3421.43085 0.05971
3420.14508 0.06004
3418.85931 0.06029
3417.57354 0.06051
3416.28777 0.06075
3415.00200 0.06111
3413.71624 0.06165
3412.43047 0.06235
3411.14470 0.06305
3409.85893 0.06356
3408.57316 0.06377
3407.28739 0.06373
3406.00162 0.06356
3404.71585 0.06343
3403.43008 0.06349
3402.14432 0.06385
3400.85855 0.06447
3399.57278 0.06509
3398.28701 0.06524
3397.00124 0.06476
3395.71547 0.06387
3394.42970 0.06307
3393.14393 0.06273
3391.85817 0.06288
3390.57240 0.06323
3389.28663 0.06350
3388.00086 0.06358
3386.71509 0.06346
3385.42932 0.06314
3384.14355 0.06274
3382.85778 0.06255
3381.57201 0.06276
3380.28625 0.06320
3379.00048 0.06336
3377.71471 0.06291
3376.42894 0.06193
3375.14317 0.06086
3373.85740 0.06019
3372.57163 0.06025
3371.28586 0.06107
3370.00010 0.06231
3368.71433 0.06342
3367.42856 0.06394
3366.14279 0.06375
3364.85702 0.06306
3363.57125 0.06236
3362.28548 0.06210
3360.99971 0.06241
3359.71394 0.06290
3358.42818 0.06313
3357.14241 0.06304
3355.85664 0.06292
3354.57087 0.06301
3353.28510 0.06326
3351.99933 0.06342
3350.71356 0.06333
3349.42779 0.06304
3348.14202 0.06263
3346.85626 0.06218
3345.57049 0.06175
3344.28472 0.06146
3342.99895 0.06138
3341.71318 0.06137
3340.42741 0.06120
3339.14164 0.06086
3337.85587 0.06059
3336.57011 0.06062
3335.28434 0.06089
3333.99857 0.06117
3332.71280 0.06125
3331.42703 0.06110
3330.14126 0.06088
3328.85549 0.06078
3327.56972 0.06087
3326.28395 0.06104
3324.99819 0.06117
3323.71242 0.06122
3322.42665 0.06124
3321.14088 0.06124
3319.85511 0.06113
3318.56934 0.06091
3317.28357 0.06068
3315.99780 0.06055
3314.71204 0.06052
3313.42627 0.06051
3312.14050 0.06047
3310.85473 0.06039
3309.56896 0.06025
3308.28319 0.05999
3306.99742 0.05970
3305.71165 0.05957
3304.42588 0.05972
3303.14012 0.06004
3301.85435 0.06030
3300.56858 0.06037
3299.28281 0.06037
3297.99704 0.06039
3296.71127 0.06032
3295.42550 0.05995
3294.13973 0.05938
3292.85397 0.05898
3291.56820 0.05901
3290.28243 0.05929
3288.99666 0.05943
3287.71089 0.05928
3286.42512 0.05898
3285.13935 0.05866
3283.85358 0.05825
3282.56781 0.05776
3281.28205 0.05754
3279.99628 0.05798
3278.71051 0.05905
3277.42474 0.06016
3276.13897 0.06071
3274.85320 0.06052
3273.56743 0.05986
3272.28166 0.05916
3270.99590 0.05874
3269.71013 0.05865
3268.42436 0.05868
3267.13859 0.05861
3265.85282 0.05846
3264.56705 0.05840
3263.28128 0.05855
3261.99551 0.05881
3260.70974 0.05906
3259.42398 0.05919
3258.13821 0.05915
3256.85244 0.05891
3255.56667 0.05847
3254.28090 0.05794
3252.99513 0.05749
3251.70936 0.05733
3250.42359 0.05748
3249.13783 0.05771
3247.85206 0.05766
3246.56629 0.05719
3245.28052 0.05655
3243.99475 0.05614
3242.70898 0.05621
3241.42321 0.05673
3240.13744 0.05744
3238.85167 0.05805
3237.56591 0.05840
3236.28014 0.05848
3234.99437 0.05841
3233.70860 0.05819
3232.42283 0.05773
3231.13706 0.05712
3229.85129 0.05663
3228.56552 0.05645
3227.27976 0.05645
3225.99399 0.05647
3224.70822 0.05657
3223.42245 0.05684
3222.13668 0.05719
3220.85091 0.05733
3219.56514 0.05714
3218.27937 0.05680
3216.99360 0.05653
3215.70784 0.05644
3214.42207 0.05642
3213.13630 0.05632
3211.85053 0.05608
3210.56476 0.05573
3209.27899 0.05537
3207.99322 0.05502
3206.70745 0.05464
3205.42169 0.05417
3204.13592 0.05369
3202.85015 0.05331
3201.56438 0.05306
3200.27861 0.05292
3198.99284 0.05281
3197.70707 0.05276
3196.42130 0.05278
3195.13553 0.05288
3193.84977 0.05303
3192.56400 0.05319
3191.27823 0.05322
3189.99246 0.05294
3188.70669 0.05228
3187.42092 0.05149
3186.13515 0.05102
3184.84938 0.05114
3183.56362 0.05177
3182.27785 0.05255
3180.99208 0.05316
3179.70631 0.05338
3178.42054 0.05318
3177.13477 0.05273
3175.84900 0.05227
3174.56323 0.05192
3173.27746 0.05165
3171.99170 0.05142
3170.70593 0.05130
3169.42016 0.05133
3168.13439 0.05143
3166.84862 0.05144
3165.56285 0.05128
3164.27708 0.05094
3162.99131 0.05051
3161.70555 0.05022
3160.41978 0.05027
3159.13401 0.05066
3157.84824 0.05115
3156.56247 0.05143
3155.27670 0.05136
3153.99093 0.05104
3152.70516 0.05070
3151.41939 0.05044
3150.13363 0.05027
3148.84786 0.05017
3147.56209 0.05011
3146.27632 0.05005
3144.99055 0.05000
3143.70478 0.05001
3142.41901 0.05015
3141.13324 0.05036
3139.84748 0.05051
3138.56171 0.05046
3137.27594 0.05015
3135.99017 0.04969
3134.70440 0.04933
3133.41863 0.04924
3132.13286 0.04933
3130.84709 0.04932
3129.56132 0.04913
3128.27556 0.04895
3126.98979 0.04903
3125.70402 0.04937
3124.41825 0.04969
3123.13248 0.04971
3121.84671 0.04934
3120.56094 0.04872
3119.27517 0.04810
3117.98940 0.04759
3116.70364 0.04706
3115.41787 0.04631
3114.13210 0.04541
3112.84633 0.04470
3111.56056 0.04449
3110.27479 0.04472
3108.98902 0.04505
3107.70325 0.04521
3106.41749 0.04523
3105.13172 0.04526
3103.84595 0.04534
3102.56018 0.04540
3101.27441 0.04542
3099.98864 0.04544
3098.70287 0.04551
3097.41710 0.04565
3096.13133 0.04577
3094.84557 0.04570
3093.55980 0.04538
3092.27403 0.04483
3090.98826 0.04417
3089.70249 0.04357
3088.41672 0.04320
3087.13095 0.04317
3085.84518 0.04342
3084.55942 0.04368
3083.27365 0.04371
3081.98788 0.04344
3080.70211 0.04304
3079.41634 0.04269
3078.13057 0.04247
3076.84480 0.04238
3075.55903 0.04244
3074.27326 0.04277
3072.98750 0.04335
3071.70173 0.04392
3070.41596 0.04419
3069.13019 0.04405
3067.84442 0.04364
3066.55865 0.04320
3065.27288 0.04281
3063.98711 0.04246
3062.70135 0.04216
3061.41558 0.04202
3060.12981 0.04213
3058.84404 0.04240
3057.55827 0.04261
3056.27250 0.04261
3054.98673 0.04239
3053.70096 0.04210
3052.41519 0.04183
3051.12943 0.04165
3049.84366 0.04157
3048.55789 0.04157
3047.27212 0.04158
3045.98635 0.04152
3044.70058 0.04140
3043.41481 0.04129
3042.12904 0.04124
3040.84328 0.04115
3039.55751 0.04088
3038.27174 0.04044
3036.98597 0.04000
3035.70020 0.03974
3034.41443 0.03970
3033.12866 0.03978
3031.84289 0.03987
3030.55712 0.03991
3029.27136 0.03997
3027.98559 0.04011
3026.69982 0.04026
3025.41405 0.04027
3024.12828 0.04008
3022.84251 0.03981
3021.55674 0.03960
3020.27097 0.03949
3018.98521 0.03947
3017.69944 0.03955
3016.41367 0.03968
3015.12790 0.03972
3013.84213 0.03958
3012.55636 0.03928
3011.27059 0.03893
3009.98482 0.03858
3008.69905 0.03821
3007.41329 0.03784
3006.12752 0.03759
3004.84175 0.03760
3003.55598 0.03794
3002.27021 0.03844
3000.98444 0.03876
2999.69867 0.03864
2998.41290 0.03803
2997.12714 0.03732
2995.84137 0.03689
2994.55560 0.03684
2993.26983 0.03699
2991.98406 0.03711
2990.69829 0.03720
2989.41252 0.03735
2988.12675 0.03760
2986.84098 0.03789
2985.55522 0.03818
2984.26945 0.03835
2982.98368 0.03831
2981.69791 0.03806
2980.41214 0.03776
2979.12637 0.03754
2977.84060 0.03743
2976.55483 0.03743
2975.26907 0.03762
2973.98330 0.03791
2972.69753 0.03802
2971.41176 0.03774
2970.12599 0.03718
2968.84022 0.03669
2967.55445 0.03650
2966.26868 0.03663
2964.98291 0.03694
2963.69715 0.03734
2962.41138 0.03775
2961.12561 0.03808
2959.83984 0.03822
2958.55407 0.03809
2957.26830 0.03779
2955.98253 0.03749
2954.69676 0.03729
2953.41100 0.03704
2952.12523 0.03655
2950.83946 0.03585
2949.55369 0.03527
2948.26792 0.03512
2946.98215 0.03545
2945.69638 0.03603
2944.41061 0.03654
2943.12484 0.03675
2941.83908 0.03665
2940.55331 0.03641
2939.26754 0.03622
2937.98177 0.03614
2936.69600 0.03605
2935.41023 0.03594
2934.12446 0.03591
2932.83869 0.03609
2931.55293 0.03639
2930.26716 0.03654
2928.98139 0.03632
2927.69562 0.03585
2926.40985 0.03538
2925.12408 0.03518
2923.83831 0.03527
2922.55254 0.03548
2921.26677 0.03558
2919.98101 0.03548
2918.69524 0.03522
2917.40947 0.03495
2916.12370 0.03467
2914.83793 0.03435
2913.55216 0.03400
2912.26639 0.03371
2910.98062 0.03360
2909.69486 0.03364
2908.40909 0.03369
2907.12332 0.03358
2905.83755 0.03328
2904.55178 0.03294
2903.26601 0.03277
2901.98024 0.03278
2900.69447 0.03284
2899.40870 0.03283
2898.12294 0.03284
2896.83717 0.03301
2895.55140 0.03333
2894.26563 0.03358
2892.97986 0.03361
2891.69409 0.03338
2890.40832 0.03298
2889.12255 0.03254
2887.83678 0.03222
2886.55102 0.03208
2885.26525 0.03204
2883.97948 0.03195
2882.69371 0.03183
2881.40794 0.03176
2880.12217 0.03176
2878.83640 0.03172
2877.55063 0.03161
2876.26487 0.03149
2874.97910 0.03140
2873.69333 0.03134
2872.40756 0.03128
2871.12179 0.03118
2869.83602 0.03097
2868.55025 0.03065
2867.26448 0.03035
2865.97871 0.03018
2864.69295 0.03016
2863.40718 0.03021
2862.12141 0.03024
2860.83564 0.03018
2859.54987 0.03007
2858.26410 0.02997
2856.97833 0.02989
2855.69256 0.02983
2854.40680 0.02979
2853.12103 0.02978
2851.83526 0.02977
2850.54949 0.02969
2849.26372 0.02944
2847.97795 0.02898
2846.69218 0.02843
2845.40641 0.02809
2844.12064 0.02814
2842.83488 0.02833
2841.54911 0.02832
2840.26334 0.02805
2838.97757 0.02776
2837.69180 0.02763
2836.40603 0.02765
2835.12026 0.02767
2833.83449 0.02762
2832.54873 0.02745
2831.26296 0.02719
2829.97719 0.02696
2828.69142 0.02692
2827.40565 0.02703
2826.11988 0.02701
2824.83411 0.02668
2823.54834 0.02622
2822.26257 0.02597
2820.97681 0.02610
2819.69104 0.02646
2818.40527 0.02678
2817.11950 0.02687
2815.83373 0.02671
2814.54796 0.02641
2813.26219 0.02607
2811.97642 0.02577
2810.69066 0.02552
2809.40489 0.02538
2808.11912 0.02537
2806.83335 0.02537
2805.54758 0.02525
2804.26181 0.02505
2802.97604 0.02497
2801.69027 0.02509
2800.40450 0.02527
2799.11874 0.02533
2797.83297 0.02527
2796.54720 0.02524
2795.26143 0.02537
2793.97566 0.02558
2792.68989 0.02565
2791.40412 0.02545
2790.11835 0.02500
2788.83259 0.02452
2787.54682 0.02420
2786.26105 0.02413
2784.97528 0.02431
2783.68951 0.02466
2782.40374 0.02503
2781.11797 0.02520
2779.83220 0.02505
2778.54643 0.02470
2777.26067 0.02437
2775.97490 0.02428
2774.68913 0.02437
2773.40336 0.02451
2772.11759 0.02462
2770.83182 0.02469
2769.54605 0.02470
2768.26028 0.02458
2766.97452 0.02434
2765.68875 0.02410
2764.40298 0.02399
2763.11721 0.02404
2761.83144 0.02412
2760.54567 0.02415
2759.25990 0.02413
2757.97413 0.02409
2756.68836 0.02402
2755.40260 0.02385
2754.11683 0.02361
2752.83106 0.02343
2751.54529 0.02346
2750.25952 0.02375
2748.97375 0.02416
2747.68798 0.02445
2746.40221 0.02443
2745.11645 0.02416
2743.83068 0.02384
2742.54491 0.02370
2741.25914 0.02380
2739.97337 0.02401
2738.68760 0.02415
2737.40183 0.02408
2736.11606 0.02378
2734.83029 0.02335
2733.54453 0.02298
2732.25876 0.02280
2730.97299 0.02280
2729.68722 0.02282
2728.40145 0.02280
2727.11568 0.02280
2725.82991 0.02291
2724.54414 0.02308
2723.25838 0.02317
2721.97261 0.02309
2720.68684 0.02290
2719.40107 0.02276
2718.11530 0.02274
2716.82953 0.02279
2715.54376 0.02279
2714.25799 0.02262
2712.97222 0.02228
2711.68646 0.02192
2710.40069 0.02171
2709.11492 0.02171
2707.82915 0.02188
2706.54338 0.02210
2705.25761 0.02231
2703.97184 0.02245
2702.68607 0.02250
2701.40031 0.02242
2700.11454 0.02219
2698.82877 0.02180
2697.54300 0.02135
2696.25723 0.02099
2694.97146 0.02087
2693.68569 0.02099
2692.39992 0.02119
2691.11415 0.02129
2689.82839 0.02125
2688.54262 0.02110
2687.25685 0.02090
2685.97108 0.02071
2684.68531 0.02059
2683.39954 0.02052
2682.11377 0.02043
2680.82800 0.02025
2679.54224 0.02009
2678.25647 0.02012
2676.97070 0.02046
2675.68493 0.02104
2674.39916 0.02162
2673.11339 0.02189
2671.82762 0.02172
2670.54185 0.02132
2669.25608 0.02103
2667.97032 0.02103
2666.68455 0.02124
2665.39878 0.02142
2664.11301 0.02145
2662.82724 0.02139
2661.54147 0.02136
2660.25570 0.02134
2658.96993 0.02121
2657.68417 0.02088
2656.39840 0.02047
2655.11263 0.02020
2653.82686 0.02023
2652.54109 0.02052
2651.25532 0.02092
2649.96955 0.02124
2648.68378 0.02131
2647.39801 0.02111
2646.11225 0.02077
2644.82648 0.02044
2643.54071 0.02024
2642.25494 0.02024
2640.96917 0.02046
2639.68340 0.02079
2638.39763 0.02101
2637.11186 0.02085
2635.82609 0.02028
2634.54033 0.01955
2633.25456 0.01902
2631.96879 0.01891
2630.68302 0.01915
2629.39725 0.01954
2628.11148 0.01979
2626.82571 0.01978
2625.53994 0.01955
2624.25418 0.01921
2622.96841 0.01882
2621.68264 0.01850
2620.39687 0.01839
2619.11110 0.01848
2617.82533 0.01860
2616.53956 0.01861
2615.25379 0.01848
2613.96802 0.01836
2612.68226 0.01830
2611.39649 0.01833
2610.11072 0.01841
2608.82495 0.01850
2607.53918 0.01846
2606.25341 0.01820
2604.96764 0.01773
2603.68187 0.01721
2602.39611 0.01686
2601.11034 0.01679
2599.82457 0.01696
2598.53880 0.01721
2597.25303 0.01738
2595.96726 0.01735
2594.68149 0.01719
2593.39572 0.01702
2592.10995 0.01690
2590.82419 0.01679
2589.53842 0.01666
2588.25265 0.01656
2586.96688 0.01649
2585.68111 0.01638
2584.39534 0.01618
2583.10957 0.01596
2581.82380 0.01582
2580.53804 0.01585
2579.25227 0.01601
2577.96650 0.01620
2576.68073 0.01625
2575.39496 0.01608
2574.10919 0.01569
2572.82342 0.01526
2571.53765 0.01496
2570.25188 0.01477
2568.96612 0.01459
2567.68035 0.01448
2566.39458 0.01458
2565.10881 0.01493
2563.82304 0.01538
2562.53727 0.01578
2561.25150 0.01606
2559.96573 0.01618
2558.67997 0.01611
2557.39420 0.01588
2556.10843 0.01571
2554.82266 0.01585
2553.53689 0.01625
2552.25112 0.01660
2550.96535 0.01657
2549.67958 0.01624
2548.39381 0.01594
2547.10805 0.01590
2545.82228 0.01597
2544.53651 0.01587
2543.25074 0.01550
2541.96497 0.01501
2540.67920 0.01456
2539.39343 0.01421
2538.10766 0.01405
2536.82190 0.01420
2535.53613 0.01468
2534.25036 0.01531
2532.96459 0.01578
2531.67882 0.01592
2530.39305 0.01577
2529.10728 0.01548
2527.82151 0.01516
2526.53574 0.01485
2525.24998 0.01460
2523.96421 0.01448
2522.67844 0.01460
2521.39267 0.01494
2520.10690 0.01532
2518.82113 0.01551
2517.53536 0.01552
2516.24959 0.01557
2514.96383 0.01579
2513.67806 0.01610
2512.39229 0.01626
2511.10652 0.01612
2509.82075 0.01571
2508.53498 0.01527
2507.24921 0.01505
2505.96344 0.01516
2504.67767 0.01551
2503.39191 0.01581
2502.10614 0.01576
2500.82037 0.01532
2499.53460 0.01481
2498.24883 0.01458
2496.96306 0.01465
2495.67729 0.01475
2494.39152 0.01478
2493.10576 0.01482
2491.81999 0.01498
2490.53422 0.01518
2489.24845 0.01527
2487.96268 0.01520
2486.67691 0.01504
2485.39114 0.01491
2484.10537 0.01491
2482.81960 0.01503
2481.53384 0.01515
2480.24807 0.01511
2478.96230 0.01493
2477.67653 0.01479
2476.39076 0.01480
2475.10499 0.01484
2473.81922 0.01466
2472.53345 0.01424
2471.24769 0.01384
2469.96192 0.01376
2468.67615 0.01400
2467.39038 0.01423
2466.10461 0.01408
2464.81884 0.01351
2463.53307 0.01297
2462.24730 0.01290
2460.96153 0.01339
2459.67577 0.01408
2458.39000 0.01455
2457.10423 0.01467
2455.81846 0.01457
2454.53269 0.01450
2453.24692 0.01456
2451.96115 0.01465
2450.67538 0.01464
2449.38962 0.01454
2448.10385 0.01442
2446.81808 0.01428
2445.53231 0.01403
2444.24654 0.01366
2442.96077 0.01328
2441.67500 0.01308
2440.38923 0.01314
2439.10346 0.01333
2437.81770 0.01344
2436.53193 0.01342
2435.24616 0.01352
2433.96039 0.01392
2432.67462 0.01453
2431.38885 0.01501
2430.10308 0.01503
2428.81731 0.01449
2427.53155 0.01361
2426.24578 0.01279
2424.96001 0.01240
2423.67424 0.01255
2422.38847 0.01307
2421.10270 0.01361
2419.81693 0.01393
2418.53116 0.01397
2417.24539 0.01379
2415.95963 0.01341
2414.67386 0.01294
2413.38809 0.01256
2412.10232 0.01238
2410.81655 0.01237
2409.53078 0.01244
2408.24501 0.01262
2406.95924 0.01293
2405.67347 0.01327
2404.38771 0.01346
2403.10194 0.01342
2401.81617 0.01319
2400.53040 0.01295
2399.24463 0.01287
2397.95886 0.01288
2396.67309 0.01289
2395.38732 0.01278
2394.10156 0.01251
2392.81579 0.01221
2391.53002 0.01203
2390.24425 0.01197
2388.95848 0.01194
2387.67271 0.01195
2386.38694 0.01212
2385.10117 0.01255
2383.81540 0.01316
2382.52964 0.01372
2381.24387 0.01403
2379.95810 0.01408
2378.67233 0.01400
2377.38656 0.01392
2376.10079 0.01384
2374.81502 0.01366
2373.52925 0.01332
2372.24349 0.01290
2370.95772 0.01258
2369.67195 0.01240
2368.38618 0.01242
2367.10041 0.01267
2365.81464 0.01313
2364.52887 0.01361
2363.24310 0.01395
2361.95733 0.01406
2360.67157 0.01391
2359.38580 0.01351
2358.10003 0.01314
2356.81426 0.01305
2355.52849 0.01324
2354.24272 0.01353
2352.95695 0.01362
2351.67118 0.01350
2350.38542 0.01337
2349.09965 0.01337
2347.81388 0.01346
2346.52811 0.01363
2345.24234 0.01378
2343.95657 0.01380
2342.67080 0.01364
2341.38503 0.01353
2340.09926 0.01354
2338.81350 0.01348
2337.52773 0.01337
2336.24196 0.01348
2334.95619 0.01370
2333.67042 0.01374
2332.38465 0.01360
2331.09888 0.01371
2329.81311 0.01386
2328.52735 0.01374
2327.24158 0.01404
2325.95581 0.01465
2324.67004 0.01500
2323.38427 0.01528
2322.09850 0.01541
2320.81273 0.01501
2319.52696 0.01470
2318.24119 0.01461
2316.95543 0.01449
2315.66966 0.01445
2314.38389 0.01423
2313.09812 0.01374
2311.81235 0.01332
2310.52658 0.01295
2309.24081 0.01272
2307.95504 0.01268
2306.66928 0.01276
2305.38351 0.01299
2304.09774 0.01317
2302.81197 0.01312
2301.52620 0.01292
2300.24043 0.01265
2298.95466 0.01243
2297.66889 0.01225
2296.38312 0.01210
2295.09736 0.01205
2293.81159 0.01212
2292.52582 0.01225
2291.24005 0.01231
2289.95428 0.01231
2288.66851 0.01233
2287.38274 0.01242
2286.09697 0.01250
2284.81121 0.01247
2283.52544 0.01236
2282.23967 0.01234
2280.95390 0.01257
2279.66813 0.01295
2278.38236 0.01320
2277.09659 0.01308
2275.81082 0.01259
2274.52505 0.01192
2273.23929 0.01129
2271.95352 0.01084
2270.66775 0.01049
2269.38198 0.01007
2268.09621 0.00950
2266.81044 0.00891
2265.52467 0.00851
2264.23890 0.00838
2262.95314 0.00856
2261.66737 0.00916
2260.38160 0.01022
2259.09583 0.01146
2257.81006 0.01235
2256.52429 0.01248
2255.23852 0.01186
2253.95275 0.01086
2252.66698 0.00992
2251.38122 0.00929
2250.09545 0.00906
2248.80968 0.00920
2247.52391 0.00963
2246.23814 0.00985
2244.95237 0.00967
2243.66660 0.00936
2242.38083 0.00930
2241.09507 0.00942
2239.80930 0.00935
2238.52353 0.00896
2237.23776 0.00855
2235.95199 0.00858
2234.66622 0.00912
2233.38045 0.00972
2232.09468 0.00980
2230.80891 0.00919
2229.52315 0.00828
2228.23738 0.00764
2226.95161 0.00755
2225.66584 0.00783
2224.38007 0.00808
2223.09430 0.00798
2221.80853 0.00748
2220.52276 0.00687
2219.23700 0.00646
2217.95123 0.00629
2216.66546 0.00611
2215.37969 0.00572
2214.09392 0.00523
2212.80815 0.00485
2211.52238 0.00464
2210.23661 0.00457
2208.95084 0.00472
2207.66508 0.00541
2206.37931 0.00684
2205.09354 0.00857
2203.80777 0.00963
2202.52200 0.00946
2201.23623 0.00850
2199.95046 0.00778
2198.66469 0.00778
2197.37893 0.00804
2196.09316 0.00787
2194.80739 0.00712
2193.52162 0.00617
2192.23585 0.00534
2190.95008 0.00479
2189.66431 0.00471
2188.37854 0.00539
2187.09277 0.00669
2185.80701 0.00784
2184.52124 0.00813
2183.23547 0.00741
2181.94970 0.00601
2180.66393 0.00433
2179.37816 0.00285
2178.09239 0.00211
2176.80662 0.00225
2175.52085 0.00270
2174.23509 0.00280
2172.94932 0.00246
2171.66355 0.00201
2170.37778 0.00166
2169.09201 0.00142
2167.80624 0.00127
2166.52047 0.00127
2165.23470 0.00152
2163.94894 0.00210
2162.66317 0.00273
2161.37740 0.00275
2160.09163 0.00177
2158.80586 0.00032
2157.52009 -0.00054
2156.23432 -0.00027
2154.94855 0.00073
2153.66278 0.00172
2152.37702 0.00214
2151.09125 0.00184
2149.80548 0.00108
2148.51971 0.00032
2147.23394 -0.00009
2145.94817 0.00001
2144.66240 0.00059
2143.37663 0.00152
2142.09087 0.00252
2140.80510 0.00329
2139.51933 0.00364
2138.23356 0.00360
2136.94779 0.00337
2135.66202 0.00317
2134.37625 0.00309
2133.09048 0.00314
2131.80471 0.00331
2130.51895 0.00370
2129.23318 0.00439
2127.94741 0.00523
2126.66164 0.00586
2125.37587 0.00587
2124.09010 0.00514
2122.80433 0.00404
2121.51856 0.00321
2120.23280 0.00304
2118.94703 0.00345
2117.66126 0.00409
2116.37549 0.00484
2115.08972 0.00574
2113.80395 0.00658
2112.51818 0.00696
2111.23241 0.00662
2109.94664 0.00574
2108.66088 0.00480
2107.37511 0.00428
2106.08934 0.00431
2104.80357 0.00454
2103.51780 0.00455
2102.23203 0.00432
2100.94626 0.00422
2099.66049 0.00549
2098.37473 0.00617
2097.08896 0.00605
2095.80319 0.00553
2094.51742 0.00487
2093.23165 0.00426
2091.94588 0.00386
2090.66011 0.00378
2089.37434 0.00409
2088.08857 0.00477
2086.80281 0.00565
2085.51704 0.00642
2084.23127 0.00675
2082.94550 0.00653
2081.65973 0.00599
2080.37396 0.00544
2079.08819 0.00512
2077.80242 0.00509
2076.51666 0.00529
2075.23089 0.00546
2073.94512 0.00527
2072.65935 0.00457
2071.37358 0.00366
2070.08781 0.00303
2068.80204 0.00294
2067.51627 0.00323
2066.23050 0.00354
2064.94474 0.00370
2063.65897 0.00371
2062.37320 0.00352
2061.08743 0.00297
2059.80166 0.00207
2058.51589 0.00114
2057.23012 0.00060
2055.94435 0.00060
2054.65859 0.00094
2053.37282 0.00123
2052.08705 0.00120
2050.80128 0.00095
2049.51551 0.00080
2048.22974 0.00096
2046.94397 0.00123
2045.65820 0.00116
2044.37243 0.00059
2043.08667 -0.00011
2041.80090 -0.00042
2040.51513 -0.00021
2039.22936 0.00028
2037.94359 0.00077
2036.65782 0.00097
2035.37205 0.00058
2034.08628 -0.00055
2032.80052 -0.00201
2031.51475 -0.00291
2030.22898 -0.00259
2028.94321 -0.00130
2027.65744 0.00004
2026.37167 0.00057
2025.08590 0.00021
2023.80013 -0.00052
2022.51436 -0.00104
2021.22860 -0.00120
2019.94283 -0.00112
2018.65706 -0.00095
2017.37129 -0.00074
2016.08552 -0.00062
2014.79975 -0.00058
2013.51398 -0.00035
2012.22821 0.00041
2010.94245 0.00170
2009.65668 0.00302
2008.37091 0.00375
2007.08514 0.00362
2005.79937 0.00293
2004.51360 0.00225
2003.22783 0.00194
2001.94206 0.00197
2000.65629 0.00215
1999.37053 0.00237
1998.08476 0.00271
1996.79899 0.00327
1995.51322 0.00396
1994.22745 0.00442
1992.94168 0.00435
1991.65591 0.00380
1990.37014 0.00315
1989.08438 0.00276
1987.79861 0.00271
1986.51284 0.00297
1985.22707 0.00354
1983.94130 0.00432
1982.65553 0.00509
1981.36976 0.00567
1980.08399 0.00618
1978.79822 0.00684
1977.51246 0.00762
1976.22669 0.00818
1974.94092 0.00821
1973.65515 0.00773
1972.36938 0.00712
1971.08361 0.00675
1969.79784 0.00670
1968.51207 0.00673
1967.22631 0.00664
1965.94054 0.00637
1964.65477 0.00602
1963.36900 0.00574
1962.08323 0.00569
1960.79746 0.00600
1959.51169 0.00665
1958.22592 0.00735
1956.94015 0.00769
1955.65439 0.00742
1954.36862 0.00678
1953.08285 0.00622
1951.79708 0.00609
1950.51131 0.00635
1949.22554 0.00678
1947.93977 0.00718
1946.65400 0.00749
1945.36823 0.00774
1944.08247 0.00798
1942.79670 0.00817
1941.51093 0.00816
1940.22516 0.00787
1938.93939 0.00741
1937.65362 0.00695
1936.36785 0.00659
1935.08208 0.00636
1933.79632 0.00631
1932.51055 0.00655
1931.22478 0.00707
1929.93901 0.00774
1928.65324 0.00821
1927.36747 0.00829
1926.08170 0.00805
1924.79593 0.00776
1923.51016 0.00758
1922.22440 0.00741
1920.93863 0.00709
1919.65286 0.00667
1918.36709 0.00639
1917.08132 0.00651
1915.79555 0.00703
1914.50978 0.00765
1913.22401 0.00801
1911.93825 0.00793
1910.65248 0.00755
1909.36671 0.00712
1908.08094 0.00685
1906.79517 0.00674
1905.50940 0.00679
1904.22363 0.00700
1902.93786 0.00730
1901.65209 0.00753
1900.36633 0.00752
1899.08056 0.00726
1897.79479 0.00691
1896.50902 0.00661
1895.22325 0.00640
1893.93748 0.00636
1892.65171 0.00659
1891.36594 0.00705
1890.08018 0.00747
1888.79441 0.00757
1887.50864 0.00740
1886.22287 0.00729
1884.93710 0.00754
1883.65133 0.00810
1882.36556 0.00861
1881.07979 0.00881
1879.79402 0.00870
1878.50826 0.00853
1877.22249 0.00849
1875.93672 0.00860
1874.65095 0.00870
1873.36518 0.00865
1872.07941 0.00846
1870.79364 0.00820
1869.50787 0.00797
1868.22211 0.00777
1866.93634 0.00757
1865.65057 0.00735
1864.36480 0.00717
1863.07903 0.00711
1861.79326 0.00721
1860.50749 0.00742
1859.22172 0.00768
1857.93595 0.00796
1856.65019 0.00826
1855.36442 0.00846
1854.07865 0.00843
1852.79288 0.00822
1851.50711 0.00808
1850.22134 0.00820
1848.93557 0.00852
1847.64980 0.00878
1846.36404 0.00874
1845.07827 0.00842
1843.79250 0.00801
1842.50673 0.00768
1841.22096 0.00751
1839.93519 0.00748
1838.64942 0.00754
1837.36365 0.00763
1836.07788 0.00774
1834.79212 0.00788
1833.50635 0.00807
1832.22058 0.00833
1830.93481 0.00860
1829.64904 0.00881
1828.36327 0.00889
1827.07750 0.00886
1825.79173 0.00880
1824.50597 0.00881
1823.22020 0.00889
1821.93443 0.00898
1820.64866 0.00903
1819.36289 0.00898
1818.07712 0.00880
1816.79135 0.00850
1815.50558 0.00818
1814.21981 0.00802
1812.93405 0.00809
1811.64828 0.00827
1810.36251 0.00839
1809.07674 0.00838
1807.79097 0.00835
1806.50520 0.00842
1805.21943 0.00857
1803.93366 0.00868
1802.64790 0.00866
1801.36213 0.00855
1800.07636 0.00848
1798.79059 0.00849
1797.50482 0.00853
1796.21905 0.00855
1794.93328 0.00864
1793.64751 0.00886
1792.36174 0.00920
1791.07598 0.00950
1789.79021 0.00968
1788.50444 0.00979
1787.21867 0.00990
1785.93290 0.00998
1784.64713 0.01002
1783.36136 0.01003
1782.07559 0.01009
1780.78983 0.01016
1779.50406 0.01018
1778.21829 0.01011
1776.93252 0.01004
1775.64675 0.01004
1774.36098 0.01015
1773.07521 0.01031
1771.78944 0.01044
1770.50367 0.01052
1769.21791 0.01054
1767.93214 0.01052
1766.64637 0.01044
1765.36060 0.01037
1764.07483 0.01037
1762.78906 0.01051
1761.50329 0.01069
1760.21752 0.01084
1758.93176 0.01091
1757.64599 0.01099
1756.36022 0.01111
1755.07445 0.01127
1753.78868 0.01142
1752.50291 0.01151
1751.21714 0.01150
1749.93137 0.01144
1748.64560 0.01137
1747.35984 0.01133
1746.07407 0.01131
1744.78830 0.01132
1743.50253 0.01134
1742.21676 0.01138
1740.93099 0.01146
1739.64522 0.01160
1738.35945 0.01181
1737.07369 0.01210
1735.78792 0.01241
1734.50215 0.01264
1733.21638 0.01268
1731.93061 0.01256
1730.64484 0.01243
1729.35907 0.01240
1728.07330 0.01251
1726.78753 0.01266
1725.50177 0.01278
1724.21600 0.01284
1722.93023 0.01291
1721.64446 0.01311
1720.35869 0.01344
1719.07292 0.01381
1717.78715 0.01410
1716.50138 0.01428
1715.21561 0.01437
1713.92985 0.01447
1712.64408 0.01463
1711.35831 0.01486
1710.07254 0.01512
1708.78677 0.01536
1707.50100 0.01555
1706.21523 0.01571
1704.92946 0.01594
1703.64370 0.01629
1702.35793 0.01674
1701.07216 0.01717
1699.78639 0.01748
1698.50062 0.01769
1697.21485 0.01789
1695.92908 0.01807
1694.64331 0.01818
1693.35754 0.01819
1692.07178 0.01818
1690.78601 0.01827
1689.50024 0.01851
1688.21447 0.01894
1686.92870 0.01951
1685.64293 0.02008
1684.35716 0.02050
1683.07139 0.02072
1681.78563 0.02083
1680.49986 0.02100
1679.21409 0.02130
1677.92832 0.02173
1676.64255 0.02218
1675.35678 0.02257
1674.07101 0.02285
1672.78524 0.02307
1671.49947 0.02329
1670.21371 0.02350
1668.92794 0.02369
1667.64217 0.02391
1666.35640 0.02424
1665.07063 0.02473
1663.78486 0.02526
1662.49909 0.02573
1661.21332 0.02608
1659.92756 0.02635
1658.64179 0.02661
1657.35602 0.02695
1656.07025 0.02745
1654.78448 0.02803
1653.49871 0.02851
1652.21294 0.02872
1650.92717 0.02873
1649.64140 0.02875
1648.35564 0.02892
1647.06987 0.02919
1645.78410 0.02942
1644.49833 0.02956
1643.21256 0.02966
1641.92679 0.02980
1640.64102 0.03001
1639.35525 0.03028
1638.06949 0.03058
1636.78372 0.03088
1635.49795 0.03109
1634.21218 0.03118
1632.92641 0.03121
1631.64064 0.03126
1630.35487 0.03143
1629.06910 0.03172
1627.78333 0.03208
1626.49757 0.03246
1625.21180 0.03275
1623.92603 0.03291
1622.64026 0.03296
1621.35449 0.03300
1620.06872 0.03316
1618.78295 0.03346
1617.49718 0.03379
1616.21142 0.03402
1614.92565 0.03410
1613.63988 0.03413
1612.35411 0.03421
1611.06834 0.03438
1609.78257 0.03458
1608.49680 0.03480
1607.21103 0.03504
1605.92526 0.03532
1604.63950 0.03563
1603.35373 0.03593
1602.06796 0.03619
1600.78219 0.03642
1599.49642 0.03664
1598.21065 0.03688
1596.92488 0.03713
1595.63911 0.03735
1594.35335 0.03748
1593.06758 0.03755
1591.78181 0.03760
1590.49604 0.03765
1589.21027 0.03769
1587.92450 0.03771
1586.63873 0.03773
1585.35296 0.03778
1584.06719 0.03789
1582.78143 0.03804
1581.49566 0.03822
1580.20989 0.03843
1578.92412 0.03867
1577.63835 0.03890
1576.35258 0.03903
1575.06681 0.03899
1573.78104 0.03887
1572.49528 0.03878
1571.20951 0.03879
1569.92374 0.03884
1568.63797 0.03885
1567.35220 0.03878
1566.06643 0.03866
1564.78066 0.03858
1563.49489 0.03862
1562.20912 0.03880
1560.92336 0.03906
1559.63759 0.03924
1558.35182 0.03922
1557.06605 0.03900
1555.78028 0.03873
1554.49451 0.03855
1553.20874 0.03848
1551.92297 0.03848
1550.63721 0.03849
1549.35144 0.03849
1548.06567 0.03850
1546.77990 0.03853
1545.49413 0.03861
1544.20836 0.03877
1542.92259 0.03904
1541.63682 0.03934
1540.35105 0.03953
1539.06529 0.03952
1537.77952 0.03939
1536.49375 0.03932
1535.20798 0.03945
1533.92221 0.03976
1532.63644 0.04019
1531.35067 0.04070
1530.06490 0.04131
1528.77914 0.04203
1527.49337 0.04285
1526.20760 0.04376
1524.92183 0.04476
1523.63606 0.04584
1522.35029 0.04696
1521.06452 0.04812
1519.77875 0.04932
1518.49298 0.05060
1517.20722 0.05193
1515.92145 0.05329
1514.63568 0.05468
1513.34991 0.05613
1512.06414 0.05773
1510.77837 0.05947
1509.49260 0.06134
1508.20683 0.06324
1506.92107 0.06503
1505.63530 0.06663
1504.34953 0.06803
1503.06376 0.06932
1501.77799 0.07061
1500.49222 0.07192
1499.20645 0.07321
1497.92068 0.07441
1496.63491 0.07546
1495.34915 0.07638
1494.06338 0.07723
1492.77761 0.07811
1491.49184 0.07908
1490.20607 0.08015
1488.92030 0.08127
1487.63453 0.08243
1486.34876 0.08363
1485.06299 0.08489
1483.77723 0.08620
1482.49146 0.08756
1481.20569 0.08897
1479.91992 0.09042
1478.63415 0.09190
1477.34838 0.09333
1476.06261 0.09464
1474.77684 0.09575
1473.49108 0.09659
1472.20531 0.09716
1470.91954 0.09749
1469.63377 0.09768
1468.34800 0.09782
1467.06223 0.09794
1465.77646 0.09804
1464.49069 0.09809
1463.20492 0.09819
1461.91916 0.09846
1460.63339 0.09903
1459.34762 0.09989
1458.06185 0.10085
1456.77608 0.10169
1455.49031 0.10230
1454.20454 0.10275
1452.91877 0.10316
1451.63301 0.10358
1450.34724 0.10396
1449.06147 0.10422
1447.77570 0.10431
1446.48993 0.10421
1445.20416 0.10392
1443.91839 0.10349
1442.63262 0.10295
1441.34685 0.10242
1440.06109 0.10198
1438.77532 0.10170
1437.48955 0.10160
1436.20378 0.10167
1434.91801 0.10193
1433.63224 0.10249
1432.34647 0.10339
1431.06070 0.10460
1429.77494 0.10605
1428.48917 0.10768
1427.20340 0.10943
1425.91763 0.11125
1424.63186 0.11307
1423.34609 0.11481
1422.06032 0.11642
1420.77455 0.11782
1419.48878 0.11896
1418.20302 0.11981
1416.91725 0.12039
1415.63148 0.12069
1414.34571 0.12071
1413.05994 0.12045
1411.77417 0.11988
1410.48840 0.11900
1409.20263 0.11780
1407.91687 0.11631
1406.63110 0.11456
1405.34533 0.11260
1404.05956 0.11045
1402.77379 0.10811
1401.48802 0.10559
1400.20225 0.10297
1398.91648 0.10029
1397.63071 0.09757
1396.34495 0.09481
1395.05918 0.09199
1393.77341 0.08914
1392.48764 0.08634
1391.20187 0.08362
1389.91610 0.08099
1388.63033 0.07839
1387.34456 0.07581
1386.05880 0.07322
1384.77303 0.07063
1383.48726 0.06805
1382.20149 0.06549
1380.91572 0.06299
1379.62995 0.06055
1378.34418 0.05815
1377.05841 0.05579
1375.77264 0.05349
1374.48688 0.05129
1373.20111 0.04920
1371.91534 0.04723
1370.62957 0.04537
1369.34380 0.04362
1368.05803 0.04199
1366.77226 0.04050
1365.48649 0.03913
1364.20073 0.03785
1362.91496 0.03664
1361.62919 0.03550
1360.34342 0.03444
1359.05765 0.03345
1357.77188 0.03248
1356.48611 0.03153
1355.20034 0.03061
1353.91457 0.02977
1352.62881 0.02901
1351.34304 0.02830
1350.05727 0.02762
1348.77150 0.02695
1347.48573 0.02630
1346.19996 0.02570
1344.91419 0.02518
1343.62842 0.02475
1342.34266 0.02440
1341.05689 0.02410
1339.77112 0.02377
1338.48535 0.02339
1337.19958 0.02296
1335.91381 0.02253
1334.62804 0.02213
1333.34227 0.02179
1332.05650 0.02149
1330.77074 0.02119
1329.48497 0.02091
1328.19920 0.02066
1326.91343 0.02046
1325.62766 0.02029
1324.34189 0.02013
1323.05612 0.01993
1321.77035 0.01968
1320.48459 0.01941
1319.19882 0.01914
1317.91305 0.01889
1316.62728 0.01865
1315.34151 0.01846
1314.05574 0.01834
1312.76997 0.01824
1311.48420 0.01811
1310.19843 0.01793
1308.91267 0.01774
1307.62690 0.01755
1306.34113 0.01738
1305.05536 0.01721
1303.76959 0.01709
1302.48382 0.01703
1301.19805 0.01701
1299.91228 0.01697
1298.62652 0.01688
1297.34075 0.01673
1296.05498 0.01654
1294.76921 0.01637
1293.48344 0.01622
1292.19767 0.01610
1290.91190 0.01602
1289.62613 0.01594
1288.34036 0.01584
1287.05460 0.01572
1285.76883 0.01559
1284.48306 0.01549
1283.19729 0.01542
1281.91152 0.01534
1280.62575 0.01525
1279.33998 0.01519
1278.05421 0.01517
1276.76845 0.01517
1275.48268 0.01517
1274.19691 0.01513
1272.91114 0.01508
1271.62537 0.01503
1270.33960 0.01496
1269.05383 0.01486
1267.76806 0.01472
1266.48229 0.01464
1265.19653 0.01464
1263.91076 0.01471
1262.62499 0.01478
1261.33922 0.01476
1260.05345 0.01467
1258.76768 0.01455
1257.48191 0.01444
1256.19614 0.01440
1254.91037 0.01442
1253.62461 0.01447
1252.33884 0.01453
1251.05307 0.01457
1249.76730 0.01456
1248.48153 0.01450
1247.19576 0.01442
1245.90999 0.01436
1244.62422 0.01432
1243.33846 0.01428
1242.05269 0.01425
1240.76692 0.01424
1239.48115 0.01426
1238.19538 0.01428
1236.90961 0.01428
1235.62384 0.01427
1234.33807 0.01428
1233.05230 0.01432
1231.76654 0.01438
1230.48077 0.01442
1229.19500 0.01444
1227.90923 0.01446
1226.62346 0.01450
1225.33769 0.01458
1224.05192 0.01468
1222.76615 0.01478
1221.48039 0.01484
1220.19462 0.01488
1218.90885 0.01493
1217.62308 0.01500
1216.33731 0.01509
1215.05154 0.01517
1213.76577 0.01523
1212.48000 0.01528
1211.19423 0.01537
1209.90847 0.01550
1208.62270 0.01563
1207.33693 0.01573
1206.05116 0.01580
1204.76539 0.01586
1203.47962 0.01595
1202.19385 0.01607
1200.90808 0.01615
1199.62232 0.01615
1198.33655 0.01632
1197.05078 0.01649
1195.76501 0.01662
1194.47924 0.01672
1193.19347 0.01681
1191.90770 0.01692
1190.62193 0.01706
1189.33616 0.01722
1188.05040 0.01735
1186.76463 0.01747
1185.47886 0.01755
1184.19309 0.01760
1182.90732 0.01764
1181.62155 0.01767
1180.33578 0.01769
1179.05001 0.01769
1177.76425 0.01772
1176.47848 0.01780
1175.19271 0.01793
1173.90694 0.01811
1172.62117 0.01832
1171.33540 0.01860
1170.04963 0.01894
1168.76386 0.01929
1167.47809 0.01960
1166.19233 0.01984
1164.90656 0.02004
1163.62079 0.02025
1162.33502 0.02050
1161.04925 0.02078
1159.76348 0.02106
1158.47771 0.02138
1157.19194 0.02175
1155.90618 0.02218
1154.62041 0.02262
1153.33464 0.02307
1152.04887 0.02354
1150.76310 0.02407
1149.47733 0.02469
1148.19156 0.02542
1146.90579 0.02622
1145.62002 0.02706
1144.33426 0.02792
1143.04849 0.02886
1141.76272 0.02992
1140.47695 0.03111
1139.19118 0.03239
1137.90541 0.03371
1136.61964 0.03510
1135.33387 0.03666
1134.04811 0.03855
1132.76234 0.04082
1131.47657 0.04345
1130.19080 0.04636
1128.90503 0.04947
1127.61926 0.05276
1126.33349 0.05620
1125.04772 0.05984
1123.76195 0.06372
1122.47619 0.06783
1121.19042 0.07211
1119.90465 0.07643
1118.61888 0.08072
1117.33311 0.08495
1116.04734 0.08918
1114.76157 0.09344
1113.47580 0.09767
1112.19004 0.10183
1110.90427 0.10589
1109.61850 0.10987
1108.33273 0.11383
1107.04696 0.11775
1105.76119 0.12161
1104.47542 0.12535
1103.18965 0.12897
1101.90388 0.13255
1100.61812 0.13614
1099.33235 0.13975
1098.04658 0.14327
1096.76081 0.14662
1095.47504 0.14977
1094.18927 0.15275
1092.90350 0.15558
1091.61773 0.15824
1090.33197 0.16073
1089.04620 0.16312
1087.76043 0.16550
1086.47466 0.16787
1085.18889 0.17026
1083.90312 0.17273
1082.61735 0.17538
1081.33158 0.17828
1080.04581 0.18151
1078.76005 0.18506
1077.47428 0.18888
1076.18851 0.19283
1074.90274 0.19686
1073.61697 0.20098
1072.33120 0.20523
1071.04543 0.20964
1069.75966 0.21422
1068.47390 0.21901
1067.18813 0.22400
1065.90236 0.22920
1064.61659 0.23458
1063.33082 0.24011
1062.04505 0.24575
1060.75928 0.25140
1059.47351 0.25699
1058.18774 0.26250
1056.90198 0.26799
1055.61621 0.27349
1054.33044 0.27902
1053.04467 0.28455
1051.75890 0.29010
1050.47313 0.29577
1049.18736 0.30162
1047.90159 0.30770
1046.61583 0.31400
1045.33006 0.32046
1044.04429 0.32706
1042.75852 0.33376
1041.47275 0.34057
1040.18698 0.34752
1038.90121 0.35463
1037.61544 0.36187
1036.32967 0.36917
1035.04391 0.37642
1033.75814 0.38350
1032.47237 0.39033
1031.18660 0.39682
1029.90083 0.40291
1028.61506 0.40851
1027.32929 0.41350
1026.04352 0.41779
1024.75775 0.42134
1023.47199 0.42413
1022.18622 0.42605
1020.90045 0.42695
1019.61468 0.42663
1018.32891 0.42498
1017.04314 0.42199
1015.75737 0.41774
1014.47160 0.41227
1013.18584 0.40552
1011.90007 0.39742
1010.61430 0.38801
1009.32853 0.37740
1008.04276 0.36570
1006.75699 0.35303
1005.47122 0.33949
1004.18545 0.32522
1002.89968 0.31035
1001.61392 0.29507
1000.32815 0.27960
999.04238 0.26417
997.75661 0.24896
996.47084 0.23413
995.18507 0.21978
993.89930 0.20600
992.61353 0.19287
991.32777 0.18050
990.04200 0.16895
988.75623 0.15823
987.47046 0.14826
986.18469 0.13897
984.89892 0.13030
983.61315 0.12228
982.32738 0.11495
981.04161 0.10840
979.75585 0.10268
978.47008 0.09780
977.18431 0.09371
975.89854 0.09037
974.61277 0.08772
973.32700 0.08575
972.04123 0.08453
970.75546 0.08416
969.46970 0.08466
968.18393 0.08595
966.89816 0.08786
965.61239 0.09015
964.32662 0.09245
963.04085 0.09426
961.75508 0.09514
960.46931 0.09485
959.18354 0.09342
957.89778 0.09099
956.61201 0.08784
955.32624 0.08424
954.04047 0.08045
952.75470 0.07666
951.46893 0.07301
950.18316 0.06960
948.89739 0.06649
947.61163 0.06367
946.32586 0.06104
945.04009 0.05850
943.75432 0.05602
942.46855 0.05364
941.18278 0.05143
939.89701 0.04941
938.61124 0.04760
937.32547 0.04599
936.03971 0.04459
934.75394 0.04339
933.46817 0.04239
932.18240 0.04155
930.89663 0.04079
929.61086 0.04003
928.32509 0.03924
927.03932 0.03843
925.75356 0.03764
924.46779 0.03687
923.18202 0.03616
921.89625 0.03557
920.61048 0.03512
919.32471 0.03480
918.03894 0.03453
916.75317 0.03426
915.46740 0.03399
914.18164 0.03370
912.89587 0.03338
911.61010 0.03306
910.32433 0.03278
909.03856 0.03254
907.75279 0.03235
906.46702 0.03215
905.18125 0.03193
903.89549 0.03169
902.60972 0.03146
901.32395 0.03130
900.03818 0.03122
898.75241 0.03120
897.46664 0.03120
896.18087 0.03122
894.89510 0.03132
893.60933 0.03157
892.32357 0.03197
891.03780 0.03251
889.75203 0.03324
888.46626 0.03427
887.18049 0.03575
885.89472 0.03786
884.60895 0.04069
883.32318 0.04424
882.03742 0.04820
880.75165 0.05202
879.46588 0.05514
878.18011 0.05743
876.89434 0.05928
875.60857 0.06116
874.32280 0.06308
873.03703 0.06445
871.75126 0.06466
870.46550 0.06353
869.17973 0.06129
867.89396 0.05829
866.60819 0.05480
865.32242 0.05112
864.03665 0.04757
862.75088 0.04441
861.46511 0.04175
860.17935 0.03954
858.89358 0.03771
857.60781 0.03621
856.32204 0.03502
855.03627 0.03413
853.75050 0.03351
852.46473 0.03309
851.17896 0.03277
849.89319 0.03246
848.60743 0.03213
847.32166 0.03180
846.03589 0.03147
844.75012 0.03115
843.46435 0.03084
842.17858 0.03056
840.89281 0.03031
839.60704 0.03008
838.32128 0.02988
837.03551 0.02976
835.74974 0.02970
834.46397 0.02966
833.17820 0.02961
831.89243 0.02953
830.60666 0.02940
829.32089 0.02925
828.03512 0.02915
826.74936 0.02915
825.46359 0.02923
824.17782 0.02926
822.89205 0.02916
821.60628 0.02896
820.32051 0.02874
819.03474 0.02855
817.74897 0.02844
816.46321 0.02839
815.17744 0.02838
813.89167 0.02838
812.60590 0.02839
811.32013 0.02841
810.03436 0.02840
808.74859 0.02837
807.46282 0.02835
806.17705 0.02843
804.89129 0.02858
803.60552 0.02871
802.31975 0.02876
801.03398 0.02870
799.74821 0.02861
798.46244 0.02857
797.17667 0.02861
795.89090 0.02867
794.60513 0.02867
793.31937 0.02866
792.03360 0.02868
790.74783 0.02871
789.46206 0.02866
788.17629 0.02850
786.89052 0.02834
785.60475 0.02827
784.31898 0.02830
783.03322 0.02836
781.74745 0.02838
780.46168 0.02840
779.17591 0.02848
777.89014 0.02862
776.60437 0.02875
775.31860 0.02881
774.03283 0.02881
772.74706 0.02878
771.46130 0.02876
770.17553 0.02876
768.88976 0.02880
767.60399 0.02886
766.31822 0.02894
765.03245 0.02900
763.74668 0.02902
762.46091 0.02903
761.17515 0.02909
759.88938 0.02927
758.60361 0.02955
757.31784 0.02982
756.03207 0.02998
754.74630 0.03002
753.46053 0.02994
752.17476 0.02982
750.88899 0.02975
749.60323 0.02976
748.31746 0.02982
747.03169 0.02983
745.74592 0.02977
744.46015 0.02972
743.17438 0.02977
741.88861 0.02996
740.60284 0.03020
739.31708 0.03036
738.03131 0.03038
736.74554 0.03033
735.45977 0.03029
734.17400 0.03030
732.88823 0.03035
731.60246 0.03042
730.31669 0.03052
729.03092 0.03064
727.74516 0.03076
726.45939 0.03082
725.17362 0.03079
723.88785 0.03072
722.60208 0.03065
721.31631 0.03068
720.03054 0.03083
718.74477 0.03101
717.45901 0.03110
716.17324 0.03105
714.88747 0.03093
713.60170 0.03084
712.31593 0.03086
711.03016 0.03099
709.74439 0.03115
708.45862 0.03126
707.17285 0.03131
705.88709 0.03131
704.60132 0.03130
703.31555 0.03127
702.02978 0.03122
700.74401 0.03117
699.45824 0.03116
698.17247 0.03121
696.88670 0.03130
695.60094 0.03138
694.31517 0.03142
693.02940 0.03145
691.74363 0.03148
690.45786 0.03154
689.17209 0.03161
687.88632 0.03164
686.60055 0.03160
685.31478 0.03150
684.02902 0.03139
682.74325 0.03130
681.45748 0.03126
680.17171 0.03123
678.88594 0.03124
677.60017 0.03127
676.31440 0.03133
675.02863 0.03145
673.74287 0.03165
672.45710 0.03193
671.17133 0.03226
669.88556 0.03254
668.59979 0.03265
667.31402 0.03271
666.02825 0.03277
664.74248 0.03261
663.45671 0.03237
662.17095 0.03213
660.88518 0.03192
659.59941 0.03178
658.31364 0.03172
657.02787 0.03174
655.74210 0.03184
654.45633 0.03198
653.17056 0.03212
651.88480 0.03225
650.59903 0.03235
649.31326 0.03247
648.02749 0.03264
646.74172 0.03285
645.45595 0.03309
644.17018 0.03332
642.88441 0.03355
641.59864 0.03380
640.31288 0.03410
639.02711 0.03444
637.74134 0.03481
636.45557 0.03521
635.16980 0.03568
633.88403 0.03624
632.59826 0.03682
631.31249 0.03752
630.02673 0.03895
628.74096 0.04083
627.45519 0.04072
626.16942 0.04309
624.88365 0.04744
623.59788 0.05236
622.31211 0.05722
621.02634 0.06110
619.74057 0.06299
618.45481 0.06294
617.16904 0.06245
615.88327 0.06359
614.59750 0.06762
613.31173 0.07423
612.02596 0.08192
610.74019 0.08934
609.45442 0.09644
608.16866 0.10402
606.88289 0.11222
605.59712 0.11996
604.31135 0.12570
603.02558 0.12863
601.73981 0.12895
600.45404 0.12734
599.16827 0.12430
597.88250 0.12009
596.59674 0.11510
595.31097 0.10997
594.02520 0.10543
592.73943 0.10193
591.45366 0.09960
590.16789 0.09838
588.88212 0.09821
587.59635 0.09900
586.31059 0.10062
585.02482 0.10290
583.73905 0.10570
582.45328 0.10894
581.16751 0.11263
579.88174 0.11676
578.59597 0.12125
577.31020 0.12592
576.02443 0.13053
574.73867 0.13488
573.45290 0.13895
572.16713 0.14301
570.88136 0.14757
569.59559 0.15307
568.30982 0.15952
567.02405 0.16641
565.73828 0.17299
564.45251 0.17850
563.16675 0.18227
561.88098 0.18358
560.59521 0.18182
559.30944 0.17677
558.02367 0.16879
556.73790 0.15871
555.45213 0.14748
554.16636 0.13595
552.88060 0.12484
551.59483 0.11460
550.30906 0.10546
549.02329 0.09746
547.73752 0.09048
546.45175 0.08439
545.16598 0.07905
543.88021 0.07436
542.59444 0.07026
541.30868 0.06672
540.02291 0.06366
538.73714 0.06097
537.45137 0.05859
536.16560 0.05646
534.87983 0.05456
533.59406 0.05285
532.30829 0.05129
531.02253 0.04983
529.73676 0.04844
528.45099 0.04705
527.16522 0.04562
525.87945 0.04420
524.59368 0.04290
523.30791 0.04181
522.02214 0.04089
520.73637 0.04004
519.45061 0.03923
518.16484 0.03849
516.87907 0.03784
515.59330 0.03720
514.30753 0.03650
513.02176 0.03574
511.73599 0.03508
510.45022 0.03466
509.16446 0.03444
507.87869 0.03426
506.59292 0.03395
505.30715 0.03347
504.02138 0.03286
502.73561 0.03223
501.44984 0.03168
500.16407 0.03126
498.87830 0.03093
497.59254 0.03065
496.30677 0.03041
495.02100 0.03022
493.73523 0.03008
492.44946 0.02991
491.16369 0.02963
489.87792 0.02925
488.59215 0.02889
487.30639 0.02863
486.02062 0.02855
484.73485 0.02869
483.44908 0.02904
482.16331 0.02947
480.87754 0.02983
479.59177 0.03007
478.30600 0.03025
477.02023 0.03047
475.73447 0.03079
474.44870 0.03113
473.16293 0.03145
471.87716 0.03168
470.59139 0.03179
469.30562 0.03174
468.01985 0.03152
466.73408 0.03119
465.44832 0.03083
464.16255 0.03048
462.87678 0.03011
461.59101 0.02974
460.30524 0.02935
459.01947 0.02894
457.73370 0.02852
456.44793 0.02809
455.16216 0.02768
453.87640 0.02734
452.59063 0.02709
451.30486 0.02689
450.01909 0.02667
448.73332 0.02640
447.44755 0.02609
446.16178 0.02584
444.87601 0.02570
443.59025 0.02562
442.30448 0.02553
441.01871 0.02538
439.73294 0.02519
438.44717 0.02501
437.16140 0.02489
435.87563 0.02483
434.58986 0.02481
433.30409 0.02478
432.01833 0.02472
430.73256 0.02464
429.44679 0.02453
428.16102 0.02441
426.87525 0.02429
425.58948 0.02421
424.30371 0.02415
423.01794 0.02410
421.73218 0.02404
420.44641 0.02397
419.16064 0.02388
417.87487 0.02379
416.58910 0.02373
415.30333 0.02372
414.01756 0.02377
412.73179 0.02383
411.44602 0.02385
410.16026 0.02386
408.87449 0.02389
407.58872 0.02399
406.30295 0.02417
405.01718 0.02437
403.73141 0.02451
402.44564 0.02457
401.15987 0.02457
399.87411 0.02456
