3997.45528 0.00443
3996.16951 0.00494
3994.88374 0.00602
3993.59798 0.00667
3992.31221 0.00625
3991.02644 0.00524
3989.74067 0.00461
3988.45490 0.00487
3987.16913 0.00579
3985.88336 0.00670
3984.59759 0.00713
3983.31183 0.00710
3982.02606 0.00685
3980.74029 0.00656
3979.45452 0.00626
3978.16875 0.00599
3976.88298 0.00590
3975.59721 0.00609
3974.31144 0.00648
3973.02567 0.00684
3971.73991 0.00704
3970.45414 0.00712
3969.16837 0.00711
3967.88260 0.00691
3966.59683 0.00638
3965.31106 0.00559
3964.02529 0.00482
3962.73952 0.00431
3961.45376 0.00411
3960.16799 0.00410
3958.88222 0.00411
3957.59645 0.00410
3956.31068 0.00401
3955.02491 0.00376
3953.73914 0.00338
3952.45337 0.00313
3951.16760 0.00334
3949.88184 0.00403
3948.59607 0.00487
3947.31030 0.00551
3946.02453 0.00584
3944.73876 0.00598
3943.45299 0.00609
3942.16722 0.00617
3940.88145 0.00590
3939.59569 0.00509
3938.30992 0.00412
3937.02415 0.00371
3935.73838 0.00428
3934.45261 0.00542
3933.16684 0.00640
3931.88107 0.00674
3930.59530 0.00652
3929.30953 0.00613
3928.02377 0.00591
3926.73800 0.00588
3925.45223 0.00580
3924.16646 0.00553
3922.88069 0.00523
3921.59492 0.00537
3920.30915 0.00630
3919.02338 0.00776
3917.73762 0.00897
3916.45185 0.00944
3915.16608 0.00930
3913.88031 0.00894
3912.59454 0.00858
3911.30877 0.00822
3910.02300 0.00789
3908.73723 0.00792
3907.45146 0.00854
3906.16570 0.00958
3904.87993 0.01054
3903.59416 0.01088
3902.30839 0.01029
3901.02262 0.00892
3899.73685 0.00749
3898.45108 0.00677
3897.16531 0.00683
3895.87955 0.00712
3894.59378 0.00714
3893.30801 0.00675
3892.02224 0.00613
3890.73647 0.00563
3889.45070 0.00531
3888.16493 0.00496
3886.87916 0.00463
3885.59339 0.00461
3884.30763 0.00459
3883.02186 0.00398
3881.73609 0.00299
3880.45032 0.00270
3879.16455 0.00361
3877.87878 0.00504
3876.59301 0.00616
3875.30724 0.00692
3874.02148 0.00753
3872.73571 0.00760
3871.44994 0.00671
3870.16417 0.00567
3868.87840 0.00563
3867.59263 0.00639
3866.30686 0.00693
3865.02109 0.00692
3863.73532 0.00663
3862.44956 0.00627
3861.16379 0.00608
3859.87802 0.00633
3858.59225 0.00715
3857.30648 0.00818
3856.02071 0.00878
3854.73494 0.00882
3853.44917 0.00903
3852.16341 0.00976
3850.87764 0.01040
3849.59187 0.01036
3848.30610 0.00984
3847.02033 0.00929
3845.73456 0.00892
3844.44879 0.00865
3843.16302 0.00842
3841.87725 0.00828
3840.59149 0.00815
3839.30572 0.00788
3838.01995 0.00754
3836.73418 0.00717
3835.44841 0.00653
3834.16264 0.00554
3832.87687 0.00470
3831.59110 0.00443
3830.30534 0.00451
3829.01957 0.00442
3827.73380 0.00410
3826.44803 0.00413
3825.16226 0.00485
3823.87649 0.00577
3822.59072 0.00647
3821.30495 0.00739
3820.01918 0.00888
3818.73342 0.01003
3817.44765 0.00989
3816.16188 0.00903
3814.87611 0.00843
3813.59034 0.00794
3812.30457 0.00714
3811.01880 0.00631
3809.73303 0.00580
3808.44726 0.00554
3807.16150 0.00575
3805.87573 0.00662
3804.58996 0.00749
3803.30419 0.00754
3802.01842 0.00708
3800.73265 0.00706
3799.44688 0.00738
3798.16111 0.00715
3796.87535 0.00630
3795.58958 0.00546
3794.30381 0.00512
3793.01804 0.00542
3791.73227 0.00627
3790.44650 0.00723
3789.16073 0.00775
3787.87496 0.00777
3786.58919 0.00766
3785.30343 0.00776
3784.01766 0.00801
3782.73189 0.00805
3781.44612 0.00767
3780.16035 0.00709
3778.87458 0.00670
3777.58881 0.00664
3776.30304 0.00692
3775.01728 0.00755
3773.73151 0.00832
3772.44574 0.00882
3771.15997 0.00892
3769.87420 0.00902
3768.58843 0.00930
3767.30266 0.00945
3766.01689 0.00938
3764.73112 0.00942
3763.44536 0.00968
3762.15959 0.00975
3760.87382 0.00934
3759.58805 0.00853
3758.30228 0.00761
3757.01651 0.00699
3755.73074 0.00693
3754.44497 0.00721
3753.15921 0.00742
3751.87344 0.00741
3750.58767 0.00725
3749.30190 0.00749
3748.01613 0.00837
3746.73036 0.00889
3745.44459 0.00847
3744.15882 0.00812
3742.87305 0.00846
3741.58729 0.00870
3740.30152 0.00838
3739.01575 0.00776
3737.72998 0.00702
3736.44421 0.00630
3735.15844 0.00572
3733.87267 0.00506
3732.58690 0.00444
3731.30114 0.00453
3730.01537 0.00549
3728.72960 0.00668
3727.44383 0.00758
3726.15806 0.00827
3724.87229 0.00873
3723.58652 0.00877
3722.30075 0.00839
3721.01498 0.00769
3719.72922 0.00681
3718.44345 0.00606
3717.15768 0.00588
3715.87191 0.00623
3714.58614 0.00641
3713.30037 0.00584
3712.01460 0.00483
3710.72883 0.00414
3709.44307 0.00426
3708.15730 0.00526
3706.87153 0.00688
3705.58576 0.00857
3704.29999 0.00991
3703.01422 0.01087
3701.72845 0.01156
3700.44268 0.01173
3699.15691 0.01077
3697.87115 0.00856
3696.58538 0.00610
3695.29961 0.00459
3694.01384 0.00444
3692.72807 0.00519
3691.44230 0.00589
3690.15653 0.00569
3688.87076 0.00473
3687.58500 0.00398
3686.29923 0.00411
3685.01346 0.00494
3683.72769 0.00608
3682.44192 0.00722
3681.15615 0.00821
3679.87038 0.00905
3678.58461 0.00937
3677.29884 0.00865
3676.01308 0.00745
3674.72731 0.00704
3673.44154 0.00753
3672.15577 0.00780
3670.87000 0.00753
3669.58423 0.00744
3668.29846 0.00794
3667.01269 0.00870
3665.72693 0.00924
3664.44116 0.00912
3663.15539 0.00830
3661.86962 0.00731
3660.58385 0.00678
3659.29808 0.00677
3658.01231 0.00686
3656.72654 0.00698
3655.44077 0.00740
3654.15501 0.00808
3652.86924 0.00853
3651.58347 0.00846
3650.29770 0.00801
3649.01193 0.00747
3647.72616 0.00701
3646.44039 0.00672
3645.15462 0.00659
3643.86886 0.00654
3642.58309 0.00644
3641.29732 0.00623
3640.01155 0.00605
3638.72578 0.00620
3637.44001 0.00686
3636.15424 0.00779
3634.86847 0.00862
3633.58270 0.00927
3632.29694 0.00964
3631.01117 0.00936
3629.72540 0.00831
3628.43963 0.00686
3627.15386 0.00535
3625.86809 0.00398
3624.58232 0.00318
3623.29655 0.00321
3622.01079 0.00364
3620.72502 0.00392
3619.43925 0.00411
3618.15348 0.00457
3616.86771 0.00527
3615.58194 0.00577
3614.29617 0.00592
3613.01040 0.00608
3611.72463 0.00668
3610.43887 0.00762
3609.15310 0.00853
3607.86733 0.00904
3606.58156 0.00887
3605.29579 0.00802
3604.01002 0.00692
3602.72425 0.00606
3601.43848 0.00568
3600.15272 0.00574
3598.86695 0.00614
3597.58118 0.00680
3596.29541 0.00753
3595.00964 0.00809
3593.72387 0.00843
3592.43810 0.00879
3591.15233 0.00941
3589.86656 0.01028
3588.58080 0.01107
3587.29503 0.01120
3586.00926 0.01020
3584.72349 0.00820
3583.43772 0.00593
3582.15195 0.00425
3580.86618 0.00354
3579.58041 0.00370
3578.29464 0.00443
3577.00888 0.00533
3575.72311 0.00599
3574.43734 0.00610
3573.15157 0.00568
3571.86580 0.00511
3570.58003 0.00468
3569.29426 0.00450
3568.00849 0.00461
3566.72273 0.00513
3565.43696 0.00597
3564.15119 0.00684
3562.86542 0.00741
3561.57965 0.00747
3560.29388 0.00701
3559.00811 0.00633
3557.72234 0.00591
3556.43657 0.00600
3555.15081 0.00639
3553.86504 0.00666
3552.57927 0.00670
3551.29350 0.00667
3550.00773 0.00675
3548.72196 0.00686
3547.43619 0.00683
3546.15042 0.00668
3544.86466 0.00667
3543.57889 0.00702
3542.29312 0.00752
3541.00735 0.00766
3539.72158 0.00715
3538.43581 0.00631
3537.15004 0.00568
3535.86427 0.00551
3534.57850 0.00561
3533.29274 0.00579
3532.00697 0.00612
3530.72120 0.00667
3529.43543 0.00729
3528.14966 0.00770
3526.86389 0.00785
3525.57812 0.00788
3524.29235 0.00797
3523.00659 0.00812
3521.72082 0.00821
3520.43505 0.00813
3519.14928 0.00790
3517.86351 0.00763
3516.57774 0.00743
3515.29197 0.00740
3514.00620 0.00759
3512.72043 0.00796
3511.43467 0.00833
3510.14890 0.00842
3508.86313 0.00820
3507.57736 0.00792
3506.29159 0.00778
3505.00582 0.00766
3503.72005 0.00727
3502.43428 0.00658
3501.14852 0.00591
3499.86275 0.00561
3498.57698 0.00583
3497.29121 0.00646
3496.00544 0.00725
3494.71967 0.00794
3493.43390 0.00831
3492.14813 0.00826
3490.86236 0.00802
3489.57660 0.00793
3488.29083 0.00816
3487.00506 0.00857
3485.71929 0.00899
3484.43352 0.00943
3483.14775 0.00986
3481.86198 0.01013
3480.57621 0.00999
3479.29045 0.00944
3478.00468 0.00874
3476.71891 0.00820
3475.43314 0.00792
3474.14737 0.00784
3472.86160 0.00783
3471.57583 0.00777
3470.29006 0.00764
3469.00429 0.00746
3467.71853 0.00726
3466.43276 0.00713
3465.14699 0.00712
3463.86122 0.00722
3462.57545 0.00729
3461.28968 0.00721
3460.00391 0.00698
3458.71814 0.00679
3457.43238 0.00684
3456.14661 0.00716
3454.86084 0.00756
3453.57507 0.00777
3452.28930 0.00768
3451.00353 0.00741
3449.71776 0.00723
3448.43199 0.00730
3447.14622 0.00750
3445.86046 0.00754
3444.57469 0.00737
3443.28892 0.00725
3442.00315 0.00743
3440.71738 0.00786
3439.43161 0.00830
3438.14584 0.00857
3436.86007 0.00854
3435.57431 0.00817
3434.28854 0.00755
3433.00277 0.00701
3431.71700 0.00696
3430.43123 0.00747
3429.14546 0.00819
3427.85969 0.00855
3426.57392 0.00828
3425.28815 0.00758
3424.00239 0.00693
3422.71662 0.00670
3421.43085 0.00691
3420.14508 0.00730
3418.85931 0.00760
3417.57354 0.00770
3416.28777 0.00777
3415.00200 0.00801
3413.71624 0.00852
3412.43047 0.00905
3411.14470 0.00915
3409.85893 0.00851
3408.57316 0.00735
3407.28739 0.00631
3406.00162 0.00590
3404.71585 0.00618
3403.43008 0.00683
3402.14432 0.00771
3400.85855 0.00878
3399.57278 0.00935
3398.28701 0.00920
3397.00124 0.00894
3395.71547 0.00877
3394.42970 0.00874
3393.14393 0.00883
3391.85817 0.00901
3390.57240 0.00927
3389.28663 0.00959
3388.00086 0.00994
3386.71509 0.01026
3385.42932 0.01061
3384.14355 0.01104
3382.85778 0.01144
3381.57201 0.01158
3380.28625 0.01127
3379.00048 0.01059
3377.71471 0.00981
3376.42894 0.00925
3375.14317 0.00912
3373.85740 0.00943
3372.57163 0.01000
3371.28586 0.01054
3370.00010 0.01074
3368.71433 0.01054
3367.42856 0.01011
3366.14279 0.00970
3364.85702 0.00938
3363.57125 0.00902
3362.28548 0.00856
3360.99971 0.00814
3359.71394 0.00792
3358.42818 0.00799
3357.14241 0.00831
3355.85664 0.00882
3354.57087 0.00938
3353.28510 0.00976
3351.99933 0.00984
3350.71356 0.00973
3349.42779 0.00967
3348.14202 0.00976
3346.85626 0.00982
3345.57049 0.00976
3344.28472 0.00973
3342.99895 0.00999
3341.71318 0.01045
3340.42741 0.01070
3339.14164 0.01042
3337.85587 0.00979
3336.57011 0.00933
3335.28434 0.00944
3333.99857 0.01017
3332.71280 0.01123
3331.42703 0.01217
3330.14126 0.01262
3328.85549 0.01242
3327.56972 0.01162
3326.28395 0.01049
3324.99819 0.00944
3323.71242 0.00878
3322.42665 0.00860
3321.14088 0.00872
3319.85511 0.00892
3318.56934 0.00911
3317.28357 0.00931
3315.99780 0.00960
3314.71204 0.01001
3313.42627 0.01051
3312.14050 0.01099
3310.85473 0.01134
3309.56896 0.01154
3308.28319 0.01164
3306.99742 0.01160
3305.71165 0.01135
3304.42588 0.01086
3303.14012 0.01030
3301.85435 0.00993
3300.56858 0.00988
3299.28281 0.01014
3297.99704 0.01056
3296.71127 0.01093
3295.42550 0.01109
3294.13973 0.01102
3292.85397 0.01093
3291.56820 0.01097
3290.28243 0.01117
3288.99666 0.01147
3287.71089 0.01179
3286.42512 0.01199
3285.13935 0.01191
3283.85358 0.01164
3282.56781 0.01158
3281.28205 0.01202
3279.99628 0.01267
3278.71051 0.01292
3277.42474 0.01244
3276.13897 0.01148
3274.85320 0.01059
3273.56743 0.01014
3272.28166 0.01020
3270.99590 0.01060
3269.71013 0.01115
3268.42436 0.01175
3267.13859 0.01240
3265.85282 0.01300
3264.56705 0.01335
3263.28128 0.01336
3261.99551 0.01314
3260.70974 0.01291
3259.42398 0.01272
3258.13821 0.01249
3256.85244 0.01227
3255.56667 0.01222
3254.28090 0.01243
3252.99513 0.01272
3251.70936 0.01289
3250.42359 0.01296
3249.13783 0.01305
3247.85206 0.01310
3246.56629 0.01295
3245.28052 0.01256
3243.99475 0.01214
3242.70898 0.01198
3241.42321 0.01228
3240.13744 0.01301
3238.85167 0.01384
3237.56591 0.01419
3236.28014 0.01365
3234.99437 0.01237
3233.70860 0.01095
3232.42283 0.00999
3231.13706 0.00974
3229.85129 0.01008
3228.56552 0.01068
3227.27976 0.01115
3225.99399 0.01130
3224.70822 0.01128
3223.42245 0.01143
3222.13668 0.01191
3220.85091 0.01257
3219.56514 0.01304
3218.27937 0.01311
3216.99360 0.01284
3215.70784 0.01253
3214.42207 0.01244
3213.13630 0.01258
3211.85053 0.01268
3210.56476 0.01255
3209.27899 0.01223
3207.99322 0.01193
3206.70745 0.01177
3205.42169 0.01176
3204.13592 0.01192
3202.85015 0.01227
3201.56438 0.01279
3200.27861 0.01330
3198.99284 0.01360
3197.70707 0.01363
3196.42130 0.01353
3195.13553 0.01347
3193.84977 0.01350
3192.56400 0.01366
3191.27823 0.01390
3189.99246 0.01404
3188.70669 0.01385
3187.42092 0.01330
3186.13515 0.01271
3184.84938 0.01243
3183.56362 0.01255
3182.27785 0.01290
3180.99208 0.01325
3179.70631 0.01342
3178.42054 0.01328
3177.13477 0.01288
3175.84900 0.01242
3174.56323 0.01212
3173.27746 0.01204
3171.99170 0.01203
3170.70593 0.01197
3169.42016 0.01191
3168.13439 0.01209
3166.84862 0.01261
3165.56285 0.01324
3164.27708 0.01363
3162.99131 0.01363
3161.70555 0.01337
3160.41978 0.01301
3159.13401 0.01267
3157.84824 0.01238
3156.56247 0.01215
3155.27670 0.01194
3153.99093 0.01177
3152.70516 0.01179
3151.41939 0.01210
3150.13363 0.01256
3148.84786 0.01287
3147.56209 0.01290
3146.27632 0.01282
3144.99055 0.01292
3143.70478 0.01332
3142.41901 0.01386
3141.13324 0.01426
3139.84748 0.01433
3138.56171 0.01417
3137.27594 0.01404
3135.99017 0.01405
3134.70440 0.01410
3133.41863 0.01404
3132.13286 0.01394
3130.84709 0.01398
3129.56132 0.01413
3128.27556 0.01411
3126.98979 0.01380
3125.70402 0.01335
3124.41825 0.01303
3123.13248 0.01292
3121.84671 0.01292
3120.56094 0.01295
3119.27517 0.01293
3117.98940 0.01287
3116.70364 0.01283
3115.41787 0.01289
3114.13210 0.01307
3112.84633 0.01334
3111.56056 0.01363
3110.27479 0.01386
3108.98902 0.01393
3107.70325 0.01376
3106.41749 0.01332
3105.13172 0.01270
3103.84595 0.01214
3102.56018 0.01192
3101.27441 0.01214
3099.98864 0.01258
3098.70287 0.01289
3097.41710 0.01287
3096.13133 0.01261
3094.84557 0.01235
3093.55980 0.01223
3092.27403 0.01231
3090.98826 0.01261
3089.70249 0.01310
3088.41672 0.01359
3087.13095 0.01378
3085.84518 0.01359
3084.55942 0.01326
3083.27365 0.01307
3081.98788 0.01312
3080.70211 0.01331
3079.41634 0.01356
3078.13057 0.01382
3076.84480 0.01407
3075.55903 0.01423
3074.27326 0.01427
3072.98750 0.01418
3071.70173 0.01400
3070.41596 0.01383
3069.13019 0.01369
3067.84442 0.01353
3066.55865 0.01333
3065.27288 0.01318
3063.98711 0.01319
3062.70135 0.01334
3061.41558 0.01351
3060.12981 0.01362
3058.84404 0.01368
3057.55827 0.01372
3056.27250 0.01367
3054.98673 0.01349
3053.70096 0.01321
3052.41519 0.01300
3051.12943 0.01294
3049.84366 0.01294
3048.55789 0.01287
3047.27212 0.01267
3045.98635 0.01242
3044.70058 0.01224
3043.41481 0.01220
3042.12904 0.01234
3040.84328 0.01262
3039.55751 0.01295
3038.27174 0.01327
3036.98597 0.01355
3035.70020 0.01381
3034.41443 0.01400
3033.12866 0.01402
3031.84289 0.01386
3030.55712 0.01367
3029.27136 0.01363
3027.98559 0.01367
3026.69982 0.01362
3025.41405 0.01341
3024.12828 0.01319
3022.84251 0.01316
3021.55674 0.01341
3020.27097 0.01383
3018.98521 0.01428
3017.69944 0.01455
3016.41367 0.01448
3015.12790 0.01405
3013.84213 0.01348
3012.55636 0.01302
3011.27059 0.01282
3009.98482 0.01279
3008.69905 0.01278
3007.41329 0.01271
3006.12752 0.01254
3004.84175 0.01229
3003.55598 0.01211
3002.27021 0.01234
3000.98444 0.01292
2999.69867 0.01320
2998.41290 0.01370
2997.12714 0.01389
2995.84137 0.01381
2994.55560 0.01361
2993.26983 0.01339
2991.98406 0.01313
2990.69829 0.01286
2989.41252 0.01262
2988.12675 0.01241
2986.84098 0.01222
2985.55522 0.01211
2984.26945 0.01221
2982.98368 0.01258
2981.69791 0.01310
2980.41214 0.01348
2979.12637 0.01361
2977.84060 0.01355
2976.55483 0.01345
2975.26907 0.01343
2973.98330 0.01350
2972.69753 0.01368
2971.41176 0.01396
2970.12599 0.01423
2968.84022 0.01436
2967.55445 0.01429
2966.26868 0.01409
2964.98291 0.01389
2963.69715 0.01377
2962.41138 0.01368
2961.12561 0.01357
2959.83984 0.01349
2958.55407 0.01357
2957.26830 0.01386
2955.98253 0.01436
2954.69676 0.01498
2953.41100 0.01555
2952.12523 0.01589
2950.83946 0.01595
2949.55369 0.01588
2948.26792 0.01586
2946.98215 0.01581
2945.69638 0.01547
2944.41061 0.01477
2943.12484 0.01402
2941.83908 0.01367
2940.55331 0.01396
2939.26754 0.01466
2937.98177 0.01531
2936.69600 0.01555
2935.41023 0.01536
2934.12446 0.01497
2932.83869 0.01462
2931.55293 0.01444
2930.26716 0.01444
2928.98139 0.01461
2927.69562 0.01493
2926.40985 0.01529
2925.12408 0.01549
2923.83831 0.01543
2922.55254 0.01525
2921.26677 0.01519
2919.98101 0.01531
2918.69524 0.01551
2917.40947 0.01567
2916.12370 0.01576
2914.83793 0.01576
2913.55216 0.01563
2912.26639 0.01538
2910.98062 0.01516
2909.69486 0.01511
2908.40909 0.01518
2907.12332 0.01525
2905.83755 0.01525
2904.55178 0.01526
2903.26601 0.01536
2901.98024 0.01553
2900.69447 0.01571
2899.40870 0.01580
2898.12294 0.01574
2896.83717 0.01554
2895.55140 0.01525
2894.26563 0.01493
2892.97986 0.01463
2891.69409 0.01439
2890.40832 0.01419
2889.12255 0.01401
2887.83678 0.01381
2886.55102 0.01360
2885.26525 0.01344
2883.97948 0.01333
2882.69371 0.01324
2881.40794 0.01320
2880.12217 0.01320
2878.83640 0.01319
2877.55063 0.01320
2876.26487 0.01342
2874.97910 0.01393
2873.69333 0.01449
2872.40756 0.01475
2871.12179 0.01466
2869.83602 0.01444
2868.55025 0.01430
2867.26448 0.01425
2865.97871 0.01422
2864.69295 0.01412
2863.40718 0.01388
2862.12141 0.01349
2860.83564 0.01314
2859.54987 0.01299
2858.26410 0.01303
2856.97833 0.01312
2855.69256 0.01319
2854.40680 0.01334
2853.12103 0.01362
2851.83526 0.01391
2850.54949 0.01403
2849.26372 0.01394
2847.97795 0.01378
2846.69218 0.01369
2845.40641 0.01370
2844.12064 0.01374
2842.83488 0.01375
2841.54911 0.01365
2840.26334 0.01343
2838.97757 0.01317
2837.69180 0.01304
2836.40603 0.01308
2835.12026 0.01316
2833.83449 0.01308
2832.54873 0.01280
2831.26296 0.01245
2829.97719 0.01216
2828.69142 0.01197
2827.40565 0.01183
2826.11988 0.01170
2824.83411 0.01157
2823.54834 0.01148
2822.26257 0.01150
2820.97681 0.01167
2819.69104 0.01188
2818.40527 0.01204
2817.11950 0.01211
2815.83373 0.01215
2814.54796 0.01219
2813.26219 0.01220
2811.97642 0.01215
2810.69066 0.01203
2809.40489 0.01181
2808.11912 0.01154
2806.83335 0.01130
2805.54758 0.01114
2804.26181 0.01103
2802.97604 0.01093
2801.69027 0.01091
2800.40450 0.01103
2799.11874 0.01129
2797.83297 0.01156
2796.54720 0.01172
2795.26143 0.01179
2793.97566 0.01183
2792.68989 0.01191
2791.40412 0.01204
2790.11835 0.01215
2788.83259 0.01219
2787.54682 0.01209
2786.26105 0.01190
2784.97528 0.01174
2783.68951 0.01172
2782.40374 0.01184
2781.11797 0.01198
2779.83220 0.01210
2778.54643 0.01224
2777.26067 0.01242
2775.97490 0.01256
2774.68913 0.01258
2773.40336 0.01243
2772.11759 0.01215
2770.83182 0.01189
2769.54605 0.01185
2768.26028 0.01203
2766.97452 0.01228
2765.68875 0.01242
2764.40298 0.01240
2763.11721 0.01226
2761.83144 0.01206
2760.54567 0.01180
2759.25990 0.01152
2757.97413 0.01130
2756.68836 0.01118
2755.40260 0.01121
2754.11683 0.01136
2752.83106 0.01154
2751.54529 0.01166
2750.25952 0.01166
2748.97375 0.01159
2747.68798 0.01152
2746.40221 0.01140
2745.11645 0.01123
2743.83068 0.01104
2742.54491 0.01095
2741.25914 0.01099
2739.97337 0.01112
2738.68760 0.01128
2737.40183 0.01144
2736.11606 0.01157
2734.83029 0.01161
2733.54453 0.01152
2732.25876 0.01141
2730.97299 0.01140
2729.68722 0.01151
2728.40145 0.01165
2727.11568 0.01172
2725.82991 0.01168
2724.54414 0.01153
2723.25838 0.01140
2721.97261 0.01140
2720.68684 0.01155
2719.40107 0.01166
2718.11530 0.01158
2716.82953 0.01137
2715.54376 0.01120
2714.25799 0.01116
2712.97222 0.01119
2711.68646 0.01117
2710.40069 0.01107
2709.11492 0.01095
2707.82915 0.01090
2706.54338 0.01091
2705.25761 0.01088
2703.97184 0.01082
2702.68607 0.01082
2701.40031 0.01090
2700.11454 0.01098
2698.82877 0.01097
2697.54300 0.01088
2696.25723 0.01080
2694.97146 0.01073
2693.68569 0.01063
2692.39992 0.01044
2691.11415 0.01024
2689.82839 0.01019
2688.54262 0.01036
2687.25685 0.01060
2685.97108 0.01067
2684.68531 0.01056
2683.39954 0.01047
2682.11377 0.01055
2680.82800 0.01072
2679.54224 0.01080
2678.25647 0.01075
2676.97070 0.01062
2675.68493 0.01049
2674.39916 0.01037
2673.11339 0.01024
2671.82762 0.01015
2670.54185 0.01013
2669.25608 0.01021
2667.97032 0.01031
2666.68455 0.01033
2665.39878 0.01023
2664.11301 0.01021
2662.82724 0.01045
2661.54147 0.01097
2660.25570 0.01151
2658.96993 0.01186
2657.68417 0.01208
2656.39840 0.01236
2655.11263 0.01279
2653.82686 0.01324
2652.54109 0.01348
2651.25532 0.01341
2649.96955 0.01307
2648.68378 0.01258
2647.39801 0.01206
2646.11225 0.01167
2644.82648 0.01156
2643.54071 0.01174
2642.25494 0.01202
2640.96917 0.01217
2639.68340 0.01212
2638.39763 0.01202
2637.11186 0.01196
2635.82609 0.01191
2634.54033 0.01176
2633.25456 0.01154
2631.96879 0.01138
2630.68302 0.01143
2629.39725 0.01176
2628.11148 0.01226
2626.82571 0.01272
2625.53994 0.01295
2624.25418 0.01286
2622.96841 0.01252
2621.68264 0.01205
2620.39687 0.01155
2619.11110 0.01115
2617.82533 0.01099
2616.53956 0.01110
2615.25379 0.01140
2613.96802 0.01172
2612.68226 0.01187
2611.39649 0.01177
2610.11072 0.01154
2608.82495 0.01137
2607.53918 0.01140
2606.25341 0.01160
2604.96764 0.01185
2603.68187 0.01201
2602.39611 0.01196
2601.11034 0.01167
2599.82457 0.01123
2598.53880 0.01077
2597.25303 0.01036
2595.96726 0.00997
2594.68149 0.00957
2593.39572 0.00920
2592.10995 0.00898
2590.82419 0.00903
2589.53842 0.00931
2588.25265 0.00963
2586.96688 0.00981
2585.68111 0.00984
2584.39534 0.00981
2583.10957 0.00981
2581.82380 0.00986
2580.53804 0.00992
2579.25227 0.01003
2577.96650 0.01024
2576.68073 0.01054
2575.39496 0.01081
2574.10919 0.01096
2572.82342 0.01103
2571.53765 0.01110
2570.25188 0.01118
2568.96612 0.01121
2567.68035 0.01117
2566.39458 0.01100
2565.10881 0.01063
2563.82304 0.01005
2562.53727 0.00939
2561.25150 0.00894
2559.96573 0.00885
2558.67997 0.00897
2557.39420 0.00897
2556.10843 0.00877
2554.82266 0.00862
2553.53689 0.00878
2552.25112 0.00921
2550.96535 0.00955
2549.67958 0.00952
2548.39381 0.00909
2547.10805 0.00852
2545.82228 0.00815
2544.53651 0.00815
2543.25074 0.00845
2541.96497 0.00880
2540.67920 0.00899
2539.39343 0.00895
2538.10766 0.00875
2536.82190 0.00855
2535.53613 0.00853
2534.25036 0.00874
2532.96459 0.00909
2531.67882 0.00935
2530.39305 0.00932
2529.10728 0.00899
2527.82151 0.00862
2526.53574 0.00849
2525.24998 0.00869
2523.96421 0.00909
2522.67844 0.00957
2521.39267 0.01004
2520.10690 0.01039
2518.82113 0.01049
2517.53536 0.01035
2516.24959 0.01010
2514.96383 0.00988
2513.67806 0.00973
2512.39229 0.00969
2511.10652 0.00985
2509.82075 0.01019
2508.53498 0.01043
2507.24921 0.01024
2505.96344 0.00965
2504.67767 0.00899
2503.39191 0.00859
2502.10614 0.00844
2500.82037 0.00834
2499.53460 0.00827
2498.24883 0.00838
2496.96306 0.00875
2495.67729 0.00916
2494.39152 0.00923
2493.10576 0.00884
2491.81999 0.00833
2490.53422 0.00817
2489.24845 0.00848
2487.96268 0.00902
2486.67691 0.00948
2485.39114 0.00972
2484.10537 0.00985
2482.81960 0.01004
2481.53384 0.01029
2480.24807 0.01028
2478.96230 0.00978
2477.67653 0.00895
2476.39076 0.00824
2475.10499 0.00793
2473.81922 0.00792
2472.53345 0.00798
2471.24769 0.00798
2469.96192 0.00795
2468.67615 0.00795
2467.39038 0.00806
2466.10461 0.00826
2464.81884 0.00849
2463.53307 0.00868
2462.24730 0.00878
2460.96153 0.00877
2459.67577 0.00868
2458.39000 0.00857
2457.10423 0.00845
2455.81846 0.00832
2454.53269 0.00822
2453.24692 0.00826
2451.96115 0.00852
2450.67538 0.00899
2449.38962 0.00948
2448.10385 0.00972
2446.81808 0.00963
2445.53231 0.00928
2444.24654 0.00885
2442.96077 0.00843
2441.67500 0.00811
2440.38923 0.00798
2439.10346 0.00808
2437.81770 0.00834
2436.53193 0.00855
2435.24616 0.00854
2433.96039 0.00834
2432.67462 0.00821
2431.38885 0.00837
2430.10308 0.00879
2428.81731 0.00921
2427.53155 0.00938
2426.24578 0.00923
2424.96001 0.00888
2423.67424 0.00848
2422.38847 0.00816
2421.10270 0.00795
2419.81693 0.00778
2418.53116 0.00761
2417.24539 0.00742
2415.95963 0.00734
2414.67386 0.00753
2413.38809 0.00793
2412.10232 0.00831
2410.81655 0.00844
2409.53078 0.00835
2408.24501 0.00816
2406.95924 0.00787
2405.67347 0.00737
2404.38771 0.00672
2403.10194 0.00618
2401.81617 0.00596
2400.53040 0.00609
2399.24463 0.00722
2397.95886 0.00697
2396.67309 0.00678
2395.38732 0.00702
2394.10156 0.00732
2392.81579 0.00744
2391.53002 0.00722
2390.24425 0.00670
2388.95848 0.00618
2387.67271 0.00594
2386.38694 0.00608
2385.10117 0.00649
2383.81540 0.00697
2382.52964 0.00733
2381.24387 0.00742
2379.95810 0.00718
2378.67233 0.00677
2377.38656 0.00646
2376.10079 0.00642
2374.81502 0.00661
2373.52925 0.00687
2372.24349 0.00706
2370.95772 0.00721
2369.67195 0.00731
2368.38618 0.00740
2367.10041 0.00755
2365.81464 0.00768
2364.52887 0.00769
2363.24310 0.00769
2361.95733 0.00787
2360.67157 0.00816
2359.38580 0.00835
2358.10003 0.00842
2356.81426 0.00846
2355.52849 0.00851
2354.24272 0.00861
2352.95695 0.00867
2351.67118 0.00873
2350.38542 0.00889
2349.09965 0.00901
2347.81388 0.00894
2346.52811 0.00878
2345.24234 0.00862
2343.95657 0.00851
2342.67080 0.00849
2341.38503 0.00870
2340.09926 0.00906
2338.81350 0.00933
2337.52773 0.00945
2336.24196 0.00928
2334.95619 0.00897
2333.67042 0.00886
2332.38465 0.00885
2331.09888 0.00894
2329.81311 0.00918
2328.52735 0.00955
2327.24158 0.01026
2325.95581 0.01129
2324.67004 0.01219
2323.38427 0.01260
2322.09850 0.01241
2320.81273 0.01185
2319.52696 0.01136
2318.24119 0.01109
2316.95543 0.01089
2315.66966 0.01060
2314.38389 0.01019
2313.09812 0.00980
2311.81235 0.00956
2310.52658 0.00951
2309.24081 0.00961
2307.95504 0.00970
2306.66928 0.00965
2305.38351 0.00947
2304.09774 0.00926
2302.81197 0.00920
2301.52620 0.00930
2300.24043 0.00947
2298.95466 0.00958
2297.66889 0.00964
2296.38312 0.00978
2295.09736 0.01004
2293.81159 0.01032
2292.52582 0.01048
2291.24005 0.01053
2289.95428 0.01060
2288.66851 0.01078
2287.38274 0.01093
2286.09697 0.01084
2284.81121 0.01050
2283.52544 0.01019
2282.23967 0.01015
2280.95390 0.01031
2279.66813 0.01034
2278.38236 0.00998
2277.09659 0.00933
2275.81082 0.00880
2274.52505 0.00875
2273.23929 0.00909
2271.95352 0.00935
2270.66775 0.00911
2269.38198 0.00837
2268.09621 0.00759
2266.81044 0.00722
2265.52467 0.00736
2264.23890 0.00774
2262.95314 0.00797
2261.66737 0.00782
2260.38160 0.00734
2259.09583 0.00674
2257.81006 0.00615
2256.52429 0.00557
2255.23852 0.00511
2253.95275 0.00508
2252.66698 0.00562
2251.38122 0.00627
2250.09545 0.00679
2248.80968 0.00817
2247.52391 0.00826
2246.23814 0.00820
2244.95237 0.00804
2243.66660 0.00761
2242.38083 0.00701
2241.09507 0.00654
2239.80930 0.00648
2238.52353 0.00688
2237.23776 0.00764
2235.95199 0.00857
2234.66622 0.00936
2233.38045 0.00976
2232.09468 0.00971
2230.80891 0.00922
2229.52315 0.00835
2228.23738 0.00723
2226.95161 0.00622
2225.66584 0.00563
2224.38007 0.00544
2223.09430 0.00542
2221.80853 0.00547
2220.52276 0.00570
2219.23700 0.00630
2217.95123 0.00719
2216.66546 0.00799
2215.37969 0.00828
2214.09392 0.00801
2212.80815 0.00757
2211.52238 0.00727
2210.23661 0.00714
2208.95084 0.00720
2207.66508 0.00756
2206.37931 0.00819
2205.09354 0.00862
2203.80777 0.00835
2202.52200 0.00735
2201.23623 0.00611
2199.95046 0.00519
2198.66469 0.00486
2197.37893 0.00496
2196.09316 0.00516
2194.80739 0.00540
2193.52162 0.00582
2192.23585 0.00646
2190.95008 0.00715
2189.66431 0.00764
2188.37854 0.00777
2187.09277 0.00730
2185.80701 0.00617
2184.52124 0.00486
2183.23547 0.00413
2181.94970 0.00430
2180.66393 0.00492
2179.37816 0.00532
2178.09239 0.00519
2176.80662 0.00471
2175.52085 0.00436
2174.23509 0.00447
2172.94932 0.00490
2171.66355 0.00535
2170.37778 0.00587
2169.09201 0.00686
2167.80624 0.00825
2166.52047 0.00918
2165.23470 0.00876
2163.94894 0.00711
2162.66317 0.00520
2161.37740 0.00373
2160.09163 0.00245
2158.80586 0.00093
2157.52009 -0.00058
2156.23432 -0.00155
2154.94855 -0.00194
2153.66278 -0.00212
2152.37702 -0.00212
2151.09125 -0.00156
2149.80548 -0.00029
2148.51971 0.00125
2147.23394 0.00246
2145.94817 0.00308
2144.66240 0.00317
2143.37663 0.00276
2142.09087 0.00189
2140.80510 0.00085
2139.51933 0.00005
2138.23356 -0.00036
2136.94779 -0.00055
2135.66202 -0.00069
2134.37625 -0.00075
2133.09048 -0.00064
2131.80471 -0.00040
2130.51895 -0.00020
2129.23318 -0.00012
2127.94741 -0.00001
2126.66164 0.00041
2125.37587 0.00130
2124.09010 0.00245
2122.80433 0.00339
2121.51856 0.00378
2120.23280 0.00367
2118.94703 0.00346
2117.66126 0.00357
2116.37549 0.00411
2115.08972 0.00485
2113.80395 0.00539
2112.51818 0.00557
2111.23241 0.00559
2109.94664 0.00575
2108.66088 0.00601
2107.37511 0.00605
2106.08934 0.00571
2104.80357 0.00526
2103.51780 0.00507
2102.23203 0.00515
2100.94626 0.00525
2099.66049 0.00738
2098.37473 0.00836
2097.08896 0.00786
2095.80319 0.00683
2094.51742 0.00581
2093.23165 0.00504
2091.94588 0.00468
2090.66011 0.00454
2089.37434 0.00435
2088.08857 0.00405
2086.80281 0.00385
2085.51704 0.00398
2084.23127 0.00442
2082.94550 0.00500
2081.65973 0.00554
2080.37396 0.00606
2079.08819 0.00660
2077.80242 0.00712
2076.51666 0.00747
2075.23089 0.00757
2073.94512 0.00758
2072.65935 0.00777
2071.37358 0.00821
2070.08781 0.00857
2068.80204 0.00851
2067.51627 0.00800
2066.23050 0.00737
2064.94474 0.00687
2063.65897 0.00644
2062.37320 0.00588
2061.08743 0.00514
2059.80166 0.00446
2058.51589 0.00415
2057.23012 0.00426
2055.94435 0.00467
2054.65859 0.00535
2053.37282 0.00644
2052.08705 0.00802
2050.80128 0.00971
2049.51551 0.01077
2048.22974 0.01070
2046.94397 0.00961
2045.65820 0.00811
2044.37243 0.00682
2043.08667 0.00604
2041.80090 0.00593
2040.51513 0.00660
2039.22936 0.00808
2037.94359 0.00999
2036.65782 0.01154
2035.37205 0.01192
2034.08628 0.01096
2032.80052 0.00927
2031.51475 0.00763
2030.22898 0.00639
2028.94321 0.00548
2027.65744 0.00489
2026.37167 0.00467
2025.08590 0.00468
2023.80013 0.00458
2022.51436 0.00422
2021.22860 0.00369
2019.94283 0.00318
2018.65706 0.00282
2017.37129 0.00283
2016.08552 0.00332
2014.79975 0.00419
2013.51398 0.00515
2012.22821 0.00595
2010.94245 0.00646
2009.65668 0.00658
2008.37091 0.00631
2007.08514 0.00577
2005.79937 0.00514
2004.51360 0.00435
2003.22783 0.00332
2001.94206 0.00227
2000.65629 0.00174
1999.37053 0.00207
1998.08476 0.00304
1996.79899 0.00397
1995.51322 0.00438
1994.22745 0.00426
1992.94168 0.00393
1991.65591 0.00367
1990.37014 0.00351
1989.08438 0.00344
1987.79861 0.00371
1986.51284 0.00462
1985.22707 0.00618
1983.94130 0.00806
1982.65553 0.00982
1981.36976 0.01116
1980.08399 0.01187
1978.79822 0.01185
1977.51246 0.01130
1976.22669 0.01063
1974.94092 0.01013
1973.65515 0.00975
1972.36938 0.00930
1971.08361 0.00877
1969.79784 0.00834
1968.51207 0.00814
1967.22631 0.00805
1965.94054 0.00780
1964.65477 0.00734
1963.36900 0.00685
1962.08323 0.00651
1960.79746 0.00623
1959.51169 0.00581
1958.22592 0.00516
1956.94015 0.00437
1955.65439 0.00355
1954.36862 0.00286
1953.08285 0.00254
1951.79708 0.00276
1950.51131 0.00348
1949.22554 0.00439
1947.93977 0.00512
1946.65400 0.00552
1945.36823 0.00557
1944.08247 0.00538
1942.79670 0.00516
1941.51093 0.00515
1940.22516 0.00544
1938.93939 0.00596
1937.65362 0.00648
1936.36785 0.00676
1935.08208 0.00671
1933.79632 0.00643
1932.51055 0.00614
1931.22478 0.00601
1929.93901 0.00600
1928.65324 0.00604
1927.36747 0.00600
1926.08170 0.00583
1924.79593 0.00565
1923.51016 0.00573
1922.22440 0.00621
1920.93863 0.00686
1919.65286 0.00726
1918.36709 0.00726
1917.08132 0.00702
1915.79555 0.00670
1914.50978 0.00636
1913.22401 0.00610
1911.93825 0.00603
1910.65248 0.00618
1909.36671 0.00648
1908.08094 0.00678
1906.79517 0.00693
1905.50940 0.00685
1904.22363 0.00665
1902.93786 0.00650
1901.65209 0.00646
1900.36633 0.00648
1899.08056 0.00650
1897.79479 0.00652
1896.50902 0.00655
1895.22325 0.00661
1893.93748 0.00667
1892.65171 0.00672
1891.36594 0.00670
1890.08018 0.00662
1888.79441 0.00657
1887.50864 0.00666
1886.22287 0.00690
1884.93710 0.00716
1883.65133 0.00726
1882.36556 0.00702
1881.07979 0.00648
1879.79402 0.00585
1878.50826 0.00543
1877.22249 0.00536
1875.93672 0.00556
1874.65095 0.00583
1873.36518 0.00606
1872.07941 0.00620
1870.79364 0.00623
1869.50787 0.00616
1868.22211 0.00604
1866.93634 0.00594
1865.65057 0.00588
1864.36480 0.00589
1863.07903 0.00592
1861.79326 0.00593
1860.50749 0.00589
1859.22172 0.00582
1857.93595 0.00579
1856.65019 0.00583
1855.36442 0.00590
1854.07865 0.00591
1852.79288 0.00583
1851.50711 0.00574
1850.22134 0.00570
1848.93557 0.00580
1847.64980 0.00601
1846.36404 0.00619
1845.07827 0.00630
1843.79250 0.00643
1842.50673 0.00661
1841.22096 0.00669
1839.93519 0.00663
1838.64942 0.00653
1837.36365 0.00647
1836.07788 0.00644
1834.79212 0.00641
1833.50635 0.00637
1832.22058 0.00629
1830.93481 0.00621
1829.64904 0.00626
1828.36327 0.00648
1827.07750 0.00677
1825.79173 0.00712
1824.50597 0.00763
1823.22020 0.00819
1821.93443 0.00850
1820.64866 0.00838
1819.36289 0.00781
1818.07712 0.00696
1816.79135 0.00606
1815.50558 0.00532
1814.21981 0.00487
1812.93405 0.00464
1811.64828 0.00457
1810.36251 0.00459
1809.07674 0.00466
1807.79097 0.00475
1806.50520 0.00492
1805.21943 0.00520
1803.93366 0.00553
1802.64790 0.00581
1801.36213 0.00598
1800.07636 0.00606
1798.79059 0.00611
1797.50482 0.00621
1796.21905 0.00642
1794.93328 0.00660
1793.64751 0.00662
1792.36174 0.00654
1791.07598 0.00651
1789.79021 0.00658
1788.50444 0.00665
1787.21867 0.00669
1785.93290 0.00669
1784.64713 0.00670
1783.36136 0.00674
1782.07559 0.00674
1780.78983 0.00671
1779.50406 0.00669
1778.21829 0.00670
1776.93252 0.00673
1775.64675 0.00670
1774.36098 0.00650
1773.07521 0.00623
1771.78944 0.00612
1770.50367 0.00612
1769.21791 0.00604
1767.93214 0.00592
1766.64637 0.00597
1765.36060 0.00618
1764.07483 0.00633
1762.78906 0.00638
1761.50329 0.00643
1760.21752 0.00651
1758.93176 0.00649
1757.64599 0.00635
1756.36022 0.00629
1755.07445 0.00635
1753.78868 0.00634
1752.50291 0.00619
1751.21714 0.00607
1749.93137 0.00611
1748.64560 0.00618
1747.35984 0.00617
1746.07407 0.00613
1744.78830 0.00618
1743.50253 0.00635
1742.21676 0.00651
1740.93099 0.00654
1739.64522 0.00656
1738.35945 0.00674
1737.07369 0.00691
1735.78792 0.00675
1734.50215 0.00646
1733.21638 0.00636
1731.93061 0.00642
1730.64484 0.00631
1729.35907 0.00606
1728.07330 0.00589
1726.78753 0.00586
1725.50177 0.00588
1724.21600 0.00599
1722.93023 0.00631
1721.64446 0.00684
1720.35869 0.00729
1719.07292 0.00742
1717.78715 0.00738
1716.50138 0.00737
1715.21561 0.00736
1713.92985 0.00726
1712.64408 0.00717
1711.35831 0.00720
1710.07254 0.00739
1708.78677 0.00767
1707.50100 0.00792
1706.21523 0.00816
1704.92946 0.00857
1703.64370 0.00909
1702.35793 0.00935
1701.07216 0.00940
1699.78639 0.00973
1698.50062 0.01022
1697.21485 0.01031
1695.92908 0.01008
1694.64331 0.01006
1693.35754 0.01018
1692.07178 0.01008
1690.78601 0.00997
1689.50024 0.01026
1688.21447 0.01091
1686.92870 0.01142
1685.64293 0.01153
1684.35716 0.01156
1683.07139 0.01177
1681.78563 0.01191
1680.49986 0.01187
1679.21409 0.01191
1677.92832 0.01209
1676.64255 0.01224
1675.35678 0.01243
1674.07101 0.01282
1672.78524 0.01324
1671.49947 0.01345
1670.21371 0.01353
1668.92794 0.01369
1667.64217 0.01401
1666.35640 0.01431
1665.07063 0.01443
1663.78486 0.01447
1662.49909 0.01459
1661.21332 0.01480
1659.92756 0.01506
1658.64179 0.01547
1657.35602 0.01618
1656.07025 0.01691
1654.78448 0.01716
1653.49871 0.01707
1652.21294 0.01720
1650.92717 0.01757
1649.64140 0.01763
1648.35564 0.01724
1647.06987 0.01682
1645.78410 0.01669
1644.49833 0.01674
1643.21256 0.01674
1641.92679 0.01665
1640.64102 0.01666
1639.35525 0.01684
1638.06949 0.01697
1636.78372 0.01688
1635.49795 0.01672
1634.21218 0.01664
1632.92641 0.01652
1631.64064 0.01626
1630.35487 0.01599
1629.06910 0.01587
1627.78333 0.01592
1626.49757 0.01602
1625.21180 0.01602
1623.92603 0.01593
1622.64026 0.01593
1621.35449 0.01613
1620.06872 0.01632
1618.78295 0.01625
1617.49718 0.01596
1616.21142 0.01578
1614.92565 0.01580
1613.63988 0.01580
1612.35411 0.01571
1611.06834 0.01564
1609.78257 0.01565
1608.49680 0.01565
1607.21103 0.01562
1605.92526 0.01558
1604.63950 0.01557
1603.35373 0.01560
1602.06796 0.01566
1600.78219 0.01576
1599.49642 0.01585
1598.21065 0.01594
1596.92488 0.01604
1595.63911 0.01615
1594.35335 0.01631
1593.06758 0.01647
1591.78181 0.01659
1590.49604 0.01667
1589.21027 0.01674
1587.92450 0.01680
1586.63873 0.01687
1585.35296 0.01692
1584.06719 0.01697
1582.78143 0.01706
1581.49566 0.01730
1580.20989 0.01775
1578.92412 0.01820
1577.63835 0.01837
1576.35258 0.01838
1575.06681 0.01857
1573.78104 0.01888
1572.49528 0.01903
1571.20951 0.01899
1569.92374 0.01898
1568.63797 0.01910
1567.35220 0.01925
1566.06643 0.01935
1564.78066 0.01961
1563.49489 0.02016
1562.20912 0.02073
1560.92336 0.02095
1559.63759 0.02092
1558.35182 0.02103
1557.06605 0.02120
1555.78028 0.02107
1554.49451 0.02068
1553.20874 0.02036
1551.92297 0.02015
1550.63721 0.01998
1549.35144 0.01990
1548.06567 0.01999
1546.77990 0.02015
1545.49413 0.02037
1544.20836 0.02070
1542.92259 0.02099
1541.63682 0.02098
1540.35105 0.02067
1539.06529 0.02036
1537.77952 0.02022
1536.49375 0.02001
1535.20798 0.01955
1533.92221 0.01908
1532.63644 0.01889
1531.35067 0.01893
1530.06490 0.01900
1528.77914 0.01904
1527.49337 0.01912
1526.20760 0.01932
1524.92183 0.01964
1523.63606 0.01986
1522.35029 0.01987
1521.06452 0.01989
1519.77875 0.02002
1518.49298 0.02007
1517.20722 0.01995
1515.92145 0.01991
1514.63568 0.02006
1513.34991 0.02033
1512.06414 0.02080
1510.77837 0.02147
1509.49260 0.02212
1508.20683 0.02244
1506.92107 0.02251
1505.63530 0.02264
1504.34953 0.02286
1503.06376 0.02297
1501.77799 0.02298
1500.49222 0.02309
1499.20645 0.02329
1497.92068 0.02341
1496.63491 0.02345
1495.34915 0.02356
1494.06338 0.02376
1492.77761 0.02391
1491.49184 0.02399
1490.20607 0.02411
1488.92030 0.02431
1487.63453 0.02451
1486.34876 0.02468
1485.06299 0.02485
1483.77723 0.02504
1482.49146 0.02526
1481.20569 0.02556
1479.91992 0.02593
1478.63415 0.02636
1477.34838 0.02684
1476.06261 0.02735
1474.77684 0.02774
1473.49108 0.02795
1472.20531 0.02810
1470.91954 0.02832
1469.63377 0.02855
1468.34800 0.02870
1467.06223 0.02877
1465.77646 0.02883
1464.49069 0.02896
1463.20492 0.02922
1461.91916 0.02963
1460.63339 0.03014
1459.34762 0.03058
1458.06185 0.03086
1456.77608 0.03111
1455.49031 0.03144
1454.20454 0.03164
1452.91877 0.03163
1451.63301 0.03156
1450.34724 0.03157
1449.06147 0.03159
1447.77570 0.03156
1446.48993 0.03150
1445.20416 0.03140
1443.91839 0.03127
1442.63262 0.03119
1441.34685 0.03124
1440.06109 0.03135
1438.77532 0.03134
1437.48955 0.03117
1436.20378 0.03106
1434.91801 0.03110
1433.63224 0.03119
1432.34647 0.03128
1431.06070 0.03146
1429.77494 0.03175
1428.48917 0.03211
1427.20340 0.03244
1425.91763 0.03276
1424.63186 0.03316
1423.34609 0.03372
1422.06032 0.03429
1420.77455 0.03469
1419.48878 0.03501
1418.20302 0.03540
1416.91725 0.03578
1415.63148 0.03600
1414.34571 0.03608
1413.05994 0.03613
1411.77417 0.03616
1410.48840 0.03619
1409.20263 0.03618
1407.91687 0.03606
1406.63110 0.03581
1405.34533 0.03545
1404.05956 0.03507
1402.77379 0.03471
1401.48802 0.03431
1400.20225 0.03384
1398.91648 0.03338
1397.63071 0.03292
1396.34495 0.03240
1395.05918 0.03181
1393.77341 0.03124
1392.48764 0.03070
1391.20187 0.03014
1389.91610 0.02952
1388.63033 0.02889
1387.34456 0.02833
1386.05880 0.02786
1384.77303 0.02739
1383.48726 0.02686
1382.20149 0.02630
1380.91572 0.02573
1379.62995 0.02517
1378.34418 0.02464
1377.05841 0.02414
1375.77264 0.02361
1374.48688 0.02305
1373.20111 0.02248
1371.91534 0.02194
1370.62957 0.02140
1369.34380 0.02085
1368.05803 0.02034
1366.77226 0.01989
1365.48649 0.01946
1364.20073 0.01903
1362.91496 0.01857
1361.62919 0.01812
1360.34342 0.01771
1359.05765 0.01735
1357.77188 0.01705
1356.48611 0.01679
1355.20034 0.01654
1353.91457 0.01628
1352.62881 0.01601
1351.34304 0.01575
1350.05727 0.01550
1348.77150 0.01527
1347.48573 0.01505
1346.19996 0.01484
1344.91419 0.01465
1343.62842 0.01450
1342.34266 0.01438
1341.05689 0.01426
1339.77112 0.01414
1338.48535 0.01402
1337.19958 0.01389
1335.91381 0.01373
1334.62804 0.01358
1333.34227 0.01346
1332.05650 0.01339
1330.77074 0.01333
1329.48497 0.01325
1328.19920 0.01311
1326.91343 0.01294
1325.62766 0.01279
1324.34189 0.01268
1323.05612 0.01264
1321.77035 0.01261
1320.48459 0.01256
1319.19882 0.01246
1317.91305 0.01231
1316.62728 0.01216
1315.34151 0.01202
1314.05574 0.01192
1312.76997 0.01185
1311.48420 0.01182
1310.19843 0.01179
1308.91267 0.01175
1307.62690 0.01169
1306.34113 0.01160
1305.05536 0.01148
1303.76959 0.01135
1302.48382 0.01122
1301.19805 0.01111
1299.91228 0.01104
1298.62652 0.01097
1297.34075 0.01087
1296.05498 0.01072
1294.76921 0.01057
1293.48344 0.01044
1292.19767 0.01038
1290.91190 0.01037
1289.62613 0.01037
1288.34036 0.01034
1287.05460 0.01025
1285.76883 0.01013
1284.48306 0.01000
1283.19729 0.00989
1281.91152 0.00979
1280.62575 0.00971
1279.33998 0.00966
1278.05421 0.00959
1276.76845 0.00950
1275.48268 0.00940
1274.19691 0.00930
1272.91114 0.00924
1271.62537 0.00921
1270.33960 0.00922
1269.05383 0.00925
1267.76806 0.00933
1266.48229 0.00944
1265.19653 0.00955
1263.91076 0.00959
1262.62499 0.00956
1261.33922 0.00947
1260.05345 0.00938
1258.76768 0.00931
1257.48191 0.00926
1256.19614 0.00922
1254.91037 0.00919
1253.62461 0.00916
1252.33884 0.00913
1251.05307 0.00909
1249.76730 0.00906
1248.48153 0.00904
1247.19576 0.00903
1245.90999 0.00903
1244.62422 0.00904
1243.33846 0.00905
1242.05269 0.00906
1240.76692 0.00905
1239.48115 0.00901
1238.19538 0.00897
1236.90961 0.00894
1235.62384 0.00895
1234.33807 0.00899
1233.05230 0.00904
1231.76654 0.00905
1230.48077 0.00901
1229.19500 0.00891
1227.90923 0.00877
1226.62346 0.00864
1225.33769 0.00857
1224.05192 0.00854
1222.76615 0.00853
1221.48039 0.00846
1220.19462 0.00835
1218.90885 0.00822
1217.62308 0.00813
1216.33731 0.00809
1215.05154 0.00809
1213.76577 0.00807
1212.48000 0.00806
1211.19423 0.00805
1209.90847 0.00806
1208.62270 0.00812
1207.33693 0.00820
1206.05116 0.00828
1204.76539 0.00834
1203.47962 0.00836
1202.19385 0.00828
1200.90808 0.00804
1199.62232 0.00784
1198.33655 0.00786
1197.05078 0.00787
1195.76501 0.00785
1194.47924 0.00782
1193.19347 0.00778
1191.90770 0.00772
1190.62193 0.00766
1189.33616 0.00763
1188.05040 0.00764
1186.76463 0.00768
1185.47886 0.00768
1184.19309 0.00764
1182.90732 0.00758
1181.62155 0.00757
1180.33578 0.00759
1179.05001 0.00761
1177.76425 0.00759
1176.47848 0.00757
1175.19271 0.00758
1173.90694 0.00761
1172.62117 0.00764
1171.33540 0.00766
1170.04963 0.00766
1168.76386 0.00766
1167.47809 0.00769
1166.19233 0.00773
1164.90656 0.00780
1163.62079 0.00786
1162.33502 0.00790
1161.04925 0.00790
1159.76348 0.00787
1158.47771 0.00785
1157.19194 0.00789
1155.90618 0.00802
1154.62041 0.00822
1153.33464 0.00841
1152.04887 0.00855
1150.76310 0.00864
1149.47733 0.00873
1148.19156 0.00886
1146.90579 0.00904
1145.62002 0.00924
1144.33426 0.00942
1143.04849 0.00957
1141.76272 0.00973
1140.47695 0.00994
1139.19118 0.01023
1137.90541 0.01060
1136.61964 0.01109
1135.33387 0.01167
1134.04811 0.01230
1132.76234 0.01293
1131.47657 0.01353
1130.19080 0.01419
1128.90503 0.01495
1127.61926 0.01585
1126.33349 0.01686
1125.04772 0.01792
1123.76195 0.01900
1122.47619 0.02014
1121.19042 0.02135
1119.90465 0.02258
1118.61888 0.02381
1117.33311 0.02502
1116.04734 0.02624
1114.76157 0.02747
1113.47580 0.02869
1112.19004 0.02987
1110.90427 0.03103
1109.61850 0.03222
1108.33273 0.03346
1107.04696 0.03474
1105.76119 0.03600
1104.47542 0.03717
1103.18965 0.03822
1101.90388 0.03912
1100.61812 0.03990
1099.33235 0.04064
1098.04658 0.04144
1096.76081 0.04233
1095.47504 0.04325
1094.18927 0.04409
1092.90350 0.04480
1091.61773 0.04537
1090.33197 0.04586
1089.04620 0.04635
1087.76043 0.04690
1086.47466 0.04753
1085.18889 0.04820
1083.90312 0.04885
1082.61735 0.04948
1081.33158 0.05012
1080.04581 0.05084
1078.76005 0.05168
1077.47428 0.05262
1076.18851 0.05359
1074.90274 0.05453
1073.61697 0.05545
1072.33120 0.05639
1071.04543 0.05743
1069.75966 0.05855
1068.47390 0.05965
1067.18813 0.06068
1065.90236 0.06166
1064.61659 0.06264
1063.33082 0.06368
1062.04505 0.06480
1060.75928 0.06594
1059.47351 0.06701
1058.18774 0.06794
1056.90198 0.06876
1055.61621 0.06955
1054.33044 0.07040
1053.04467 0.07133
1051.75890 0.07232
1050.47313 0.07332
1049.18736 0.07433
1047.90159 0.07533
1046.61583 0.07629
1045.33006 0.07723
1044.04429 0.07818
1042.75852 0.07915
1041.47275 0.08014
1040.18698 0.08117
1038.90121 0.08226
1037.61544 0.08338
1036.32967 0.08448
1035.04391 0.08551
1033.75814 0.08649
1032.47237 0.08742
1031.18660 0.08829
1029.90083 0.08907
1028.61506 0.08976
1027.32929 0.09035
1026.04352 0.09086
1024.75775 0.09128
1023.47199 0.09161
1022.18622 0.09185
1020.90045 0.09202
1019.61468 0.09214
1018.32891 0.09216
1017.04314 0.09206
1015.75737 0.09184
1014.47160 0.09157
1013.18584 0.09125
1011.90007 0.09081
1010.61430 0.09015
1009.32853 0.08925
1008.04276 0.08819
1006.75699 0.08701
1005.47122 0.08575
1004.18545 0.08436
1002.89968 0.08282
1001.61392 0.08114
1000.32815 0.07938
999.04238 0.07756
997.75661 0.07569
996.47084 0.07374
995.18507 0.07170
993.89930 0.06960
992.61353 0.06743
991.32777 0.06522
990.04200 0.06300
988.75623 0.06085
987.47046 0.05880
986.18469 0.05684
984.89892 0.05493
983.61315 0.05303
982.32738 0.05116
981.04161 0.04932
979.75585 0.04756
978.47008 0.04592
977.18431 0.04444
975.89854 0.04315
974.61277 0.04206
973.32700 0.04119
972.04123 0.04054
970.75546 0.04007
969.46970 0.03975
968.18393 0.03956
966.89816 0.03955
965.61239 0.03968
964.32662 0.03986
963.04085 0.03999
961.75508 0.04000
960.46931 0.03987
959.18354 0.03956
957.89778 0.03903
956.61201 0.03831
955.32624 0.03750
954.04047 0.03672
952.75470 0.03600
951.46893 0.03529
950.18316 0.03447
948.89739 0.03353
947.61163 0.03255
946.32586 0.03166
945.04009 0.03093
943.75432 0.03031
942.46855 0.02975
941.18278 0.02919
939.89701 0.02860
938.61124 0.02798
937.32547 0.02731
936.03971 0.02662
934.75394 0.02598
933.46817 0.02546
932.18240 0.02511
930.89663 0.02485
929.61086 0.02458
928.32509 0.02423
927.03932 0.02384
925.75356 0.02344
924.46779 0.02307
923.18202 0.02274
921.89625 0.02244
920.61048 0.02215
919.32471 0.02179
918.03894 0.02140
916.75317 0.02107
915.46740 0.02092
914.18164 0.02090
912.89587 0.02088
911.61010 0.02074
910.32433 0.02048
909.03856 0.02018
907.75279 0.01993
906.46702 0.01975
905.18125 0.01966
903.89549 0.01961
902.60972 0.01954
901.32395 0.01941
900.03818 0.01918
898.75241 0.01891
897.46664 0.01864
896.18087 0.01840
894.89510 0.01821
893.60933 0.01808
892.32357 0.01801
891.03780 0.01799
889.75203 0.01800
888.46626 0.01804
887.18049 0.01815
885.89472 0.01843
884.60895 0.01894
883.32318 0.01975
882.03742 0.02079
880.75165 0.02187
879.46588 0.02275
878.18011 0.02334
876.89434 0.02377
875.60857 0.02426
874.32280 0.02487
873.03703 0.02546
871.75126 0.02581
870.46550 0.02581
869.17973 0.02546
867.89396 0.02489
866.60819 0.02418
865.32242 0.02341
864.03665 0.02262
862.75088 0.02185
861.46511 0.02113
860.17935 0.02047
858.89358 0.01989
857.60781 0.01941
856.32204 0.01904
855.03627 0.01875
853.75050 0.01853
852.46473 0.01835
851.17896 0.01817
849.89319 0.01795
848.60743 0.01769
847.32166 0.01745
846.03589 0.01728
844.75012 0.01715
843.46435 0.01706
842.17858 0.01699
840.89281 0.01698
839.60704 0.01700
838.32128 0.01700
837.03551 0.01693
835.74974 0.01678
834.46397 0.01661
833.17820 0.01648
831.89243 0.01638
830.60666 0.01630
829.32089 0.01627
828.03512 0.01632
826.74936 0.01640
825.46359 0.01641
824.17782 0.01636
822.89205 0.01633
821.60628 0.01639
820.32051 0.01644
819.03474 0.01638
817.74897 0.01617
816.46321 0.01593
815.17744 0.01574
813.89167 0.01565
812.60590 0.01562
811.32013 0.01564
810.03436 0.01570
808.74859 0.01574
807.46282 0.01567
806.17705 0.01548
804.89129 0.01526
803.60552 0.01515
802.31975 0.01525
801.03398 0.01547
799.74821 0.01566
798.46244 0.01570
797.17667 0.01560
795.89090 0.01547
794.60513 0.01539
793.31937 0.01542
792.03360 0.01552
790.74783 0.01564
789.46206 0.01572
788.17629 0.01574
786.89052 0.01573
785.60475 0.01572
784.31898 0.01568
783.03322 0.01554
781.74745 0.01537
780.46168 0.01526
779.17591 0.01528
777.89014 0.01535
776.60437 0.01538
775.31860 0.01536
774.03283 0.01536
772.74706 0.01543
771.46130 0.01552
770.17553 0.01558
768.88976 0.01557
767.60399 0.01552
766.31822 0.01549
765.03245 0.01554
763.74668 0.01564
762.46091 0.01576
761.17515 0.01587
759.88938 0.01594
758.60361 0.01597
757.31784 0.01597
756.03207 0.01593
754.74630 0.01589
753.46053 0.01586
752.17476 0.01584
750.88899 0.01577
749.60323 0.01566
748.31746 0.01559
747.03169 0.01563
745.74592 0.01576
744.46015 0.01583
743.17438 0.01571
741.88861 0.01540
740.60284 0.01500
739.31708 0.01470
738.03131 0.01460
736.74554 0.01465
735.45977 0.01474
734.17400 0.01480
732.88823 0.01485
731.60246 0.01490
730.31669 0.01498
729.03092 0.01503
727.74516 0.01504
726.45939 0.01501
725.17362 0.01498
723.88785 0.01519
722.60208 0.01502
721.31631 0.01488
720.03054 0.01485
718.74477 0.01484
717.45901 0.01481
716.17324 0.01477
714.88747 0.01474
713.60170 0.01472
712.31593 0.01473
711.03016 0.01479
709.74439 0.01488
708.45862 0.01496
707.17285 0.01499
705.88709 0.01500
704.60132 0.01501
703.31555 0.01505
702.02978 0.01510
700.74401 0.01513
699.45824 0.01512
698.17247 0.01508
696.88670 0.01506
695.60094 0.01508
694.31517 0.01511
693.02940 0.01515
691.74363 0.01518
690.45786 0.01520
689.17209 0.01519
687.88632 0.01514
686.60055 0.01508
685.31478 0.01501
684.02902 0.01494
682.74325 0.01488
681.45748 0.01485
680.17171 0.01484
678.88594 0.01485
677.60017 0.01482
676.31440 0.01477
675.02863 0.01474
673.74287 0.01476
672.45710 0.01487
671.17133 0.01506
669.88556 0.01518
668.59979 0.01502
667.31402 0.01500
666.02825 0.01520
664.74248 0.01515
663.45671 0.01505
662.17095 0.01502
660.88518 0.01501
659.59941 0.01499
658.31364 0.01495
657.02787 0.01487
655.74210 0.01471
654.45633 0.01453
653.17056 0.01438
651.88480 0.01431
650.59903 0.01433
649.31326 0.01439
648.02749 0.01446
646.74172 0.01450
645.45595 0.01447
644.17018 0.01437
642.88441 0.01423
641.59864 0.01411
640.31288 0.01408
639.02711 0.01413
637.74134 0.01422
636.45557 0.01433
635.16980 0.01450
633.88403 0.01476
632.59826 0.01498
631.31249 0.01485
630.02673 0.01549
628.74096 0.01894
627.45519 0.01994
626.16942 0.02525
624.88365 0.03328
623.59788 0.04019
622.31211 0.04422
621.02634 0.04524
619.74057 0.04404
618.45481 0.04145
617.16904 0.03801
615.88327 0.03439
614.59750 0.03194
613.31173 0.03210
612.02596 0.03526
610.74019 0.04015
609.45442 0.04490
608.16866 0.04871
606.88289 0.05185
605.59712 0.05446
604.31135 0.05603
603.02558 0.05595
601.73981 0.05426
600.45404 0.05164
599.16827 0.04890
597.88250 0.04648
596.59674 0.04442
595.31097 0.04258
594.02520 0.04089
592.73943 0.03942
591.45366 0.03832
590.16789 0.03768
588.88212 0.03749
587.59635 0.03764
586.31059 0.03810
585.02482 0.03888
583.73905 0.03995
582.45328 0.04120
581.16751 0.04251
579.88174 0.04379
578.59597 0.04495
577.31020 0.04595
576.02443 0.04682
574.73867 0.04766
573.45290 0.04864
572.16713 0.04989
570.88136 0.05147
569.59559 0.05329
568.30982 0.05512
567.02405 0.05671
565.73828 0.05785
564.45251 0.05849
563.16675 0.05863
561.88098 0.05828
560.59521 0.05745
559.30944 0.05616
558.02367 0.05445
556.73790 0.05239
555.45213 0.05008
554.16636 0.04763
552.88060 0.04517
551.59483 0.04284
550.30906 0.04068
549.02329 0.03868
547.73752 0.03682
546.45175 0.03516
545.16598 0.03376
543.88021 0.03266
542.59444 0.03176
541.30868 0.03091
540.02291 0.02999
538.73714 0.02900
537.45137 0.02805
536.16560 0.02719
534.87983 0.02644
533.59406 0.02579
532.30829 0.02524
531.02253 0.02477
529.73676 0.02426
528.45099 0.02361
527.16522 0.02284
525.87945 0.02214
524.59368 0.02167
523.30791 0.02142
522.02214 0.02127
520.73637 0.02108
519.45061 0.02079
518.16484 0.02042
516.87907 0.01999
515.59330 0.01954
514.30753 0.01909
513.02176 0.01870
511.73599 0.01841
510.45022 0.01824
509.16446 0.01813
507.87869 0.01800
506.59292 0.01781
505.30715 0.01752
504.02138 0.01716
502.73561 0.01679
501.44984 0.01647
500.16407 0.01627
498.87830 0.01618
497.59254 0.01616
496.30677 0.01610
495.02100 0.01593
493.73523 0.01563
492.44946 0.01527
491.16369 0.01495
489.87792 0.01473
488.59215 0.01464
487.30639 0.01464
486.02062 0.01468
484.73485 0.01469
483.44908 0.01464
482.16331 0.01452
480.87754 0.01442
479.59177 0.01437
478.30600 0.01442
477.02023 0.01454
475.73447 0.01471
474.44870 0.01492
473.16293 0.01514
471.87716 0.01530
470.59139 0.01535
469.30562 0.01527
468.01985 0.01512
466.73408 0.01494
465.44832 0.01472
464.16255 0.01445
462.87678 0.01417
461.59101 0.01396
460.30524 0.01387
459.01947 0.01386
457.73370 0.01389
456.44793 0.01387
455.16216 0.01372
453.87640 0.01348
452.59063 0.01324
451.30486 0.01304
450.01909 0.01287
448.73332 0.01268
447.44755 0.01251
446.16178 0.01240
444.87601 0.01237
443.59025 0.01237
442.30448 0.01237
441.01871 0.01236
439.73294 0.01231
438.44717 0.01223
437.16140 0.01210
435.87563 0.01199
434.58986 0.01195
433.30409 0.01197
432.01833 0.01201
430.73256 0.01202
429.44679 0.01198
428.16102 0.01192
426.87525 0.01187
425.58948 0.01185
424.30371 0.01186
423.01794 0.01189
421.73218 0.01194
420.44641 0.01195
419.16064 0.01193
417.87487 0.01189
416.58910 0.01177
415.30333 0.01157
414.01756 0.01138
412.73179 0.01129
411.44602 0.01128
410.16026 0.01130
408.87449 0.01131
407.58872 0.01132
406.30295 0.01136
405.01718 0.01144
403.73141 0.01157
402.44564 0.01170
401.15987 0.01179
399.87411 0.01184
