3997.45528 0.03715
3996.16951 0.03721
3994.88374 0.03709
3993.59798 0.03636
3992.31221 0.03549
3991.02644 0.03545
3989.74067 0.03663
3988.45490 0.03847
3987.16913 0.03990
3985.88336 0.04027
3984.59759 0.03975
3983.31183 0.03901
3982.02606 0.03856
3980.74029 0.03841
3979.45452 0.03832
3978.16875 0.03811
3976.88298 0.03785
3975.59721 0.03772
3974.31144 0.03783
3973.02567 0.03800
3971.73991 0.03790
3970.45414 0.03735
3969.16837 0.03659
3967.88260 0.03610
3966.59683 0.03613
3965.31106 0.03654
3964.02529 0.03701
3962.73952 0.03726
3961.45376 0.03719
3960.16799 0.03699
3958.88222 0.03696
3957.59645 0.03722
3956.31068 0.03751
3955.02491 0.03743
3953.73914 0.03693
3952.45337 0.03642
3951.16760 0.03631
3949.88184 0.03657
3948.59607 0.03692
3947.31030 0.03710
3946.02453 0.03708
3944.73876 0.03692
3943.45299 0.03667
3942.16722 0.03633
3940.88145 0.03583
3939.59569 0.03525
3938.30992 0.03489
3937.02415 0.03500
3935.73838 0.03548
3934.45261 0.03598
3933.16684 0.03634
3931.88107 0.03662
3930.59530 0.03689
3929.30953 0.03708
3928.02377 0.03712
3926.73800 0.03692
3925.45223 0.03641
3924.16646 0.03560
3922.88069 0.03483
3921.59492 0.03473
3920.30915 0.03573
3919.02338 0.03740
3917.73762 0.03855
3916.45185 0.03836
3915.16608 0.03719
3913.88031 0.03625
3912.59454 0.03645
3911.30877 0.03761
3910.02300 0.03876
3908.73723 0.03920
3907.45146 0.03900
3906.16570 0.03859
3904.87993 0.03817
3903.59416 0.03753
3902.30839 0.03653
3901.02262 0.03548
3899.73685 0.03495
3898.45108 0.03522
3897.16531 0.03595
3895.87955 0.03674
3894.59378 0.03750
3893.30801 0.03821
3892.02224 0.03865
3890.73647 0.03852
3889.45070 0.03776
3888.16493 0.03668
3886.87916 0.03595
3885.59339 0.03600
3884.30763 0.03637
3883.02186 0.03626
3881.73609 0.03549
3880.45032 0.03479
3879.16455 0.03493
3877.87878 0.03590
3876.59301 0.03714
3875.30724 0.03803
3874.02148 0.03816
3872.73571 0.03739
3871.44994 0.03609
3870.16417 0.03519
3868.87840 0.03530
3867.59263 0.03607
3866.30686 0.03679
3865.02109 0.03714
3863.73532 0.03706
3862.44956 0.03652
3861.16379 0.03565
3859.87802 0.03488
3858.59225 0.03464
3857.30648 0.03499
3856.02071 0.03574
3854.73494 0.03669
3853.44917 0.03780
3852.16341 0.03878
3850.87764 0.03913
3849.59187 0.03865
3848.30610 0.03774
3847.02033 0.03695
3845.73456 0.03651
3844.44879 0.03624
3843.16302 0.03588
3841.87725 0.03548
3840.59149 0.03526
3839.30572 0.03538
3838.01995 0.03581
3836.73418 0.03634
3835.44841 0.03662
3834.16264 0.03644
3832.87687 0.03586
3831.59110 0.03506
3830.30534 0.03415
3829.01957 0.03327
3827.73380 0.03256
3826.44803 0.03232
3825.16226 0.03268
3823.87649 0.03342
3822.59072 0.03424
3821.30495 0.03514
3820.01918 0.03608
3818.73342 0.03665
3817.44765 0.03654
3816.16188 0.03607
3814.87611 0.03567
3813.59034 0.03533
3812.30457 0.03509
3811.01880 0.03528
3809.73303 0.03590
3808.44726 0.03635
3807.16150 0.03628
3805.87573 0.03601
3804.58996 0.03591
3803.30419 0.03600
3802.01842 0.03616
3800.73265 0.03626
3799.44688 0.03607
3798.16111 0.03552
3796.87535 0.03498
3795.58958 0.03482
3794.30381 0.03500
3793.01804 0.03538
3791.73227 0.03593
3790.44650 0.03651
3789.16073 0.03692
3787.87496 0.03712
3786.58919 0.03728
3785.30343 0.03740
3784.01766 0.03715
3782.73189 0.03625
3781.44612 0.03500
3780.16035 0.03403
3778.87458 0.03374
3777.58881 0.03399
3776.30304 0.03448
3775.01728 0.03505
3773.73151 0.03554
3772.44574 0.03567
3771.15997 0.03528
3769.87420 0.03455
3768.58843 0.03385
3767.30266 0.03350
3766.01689 0.03377
3764.73112 0.03464
3763.44536 0.03552
3762.15959 0.03564
3760.87382 0.03486
3759.58805 0.03375
3758.30228 0.03308
3757.01651 0.03324
3755.73074 0.03398
3754.44497 0.03457
3753.15921 0.03452
3751.87344 0.03397
3750.58767 0.03340
3749.30190 0.03337
3748.01613 0.03405
3746.73036 0.03482
3745.44459 0.03510
3744.15882 0.03505
3742.87305 0.03496
3741.58729 0.03485
3740.30152 0.03487
3739.01575 0.03496
3737.72998 0.03467
3736.44421 0.03390
3735.15844 0.03325
3733.87267 0.03322
3732.58690 0.03374
3731.30114 0.03433
3730.01537 0.03452
3728.72960 0.03422
3727.44383 0.03386
3726.15806 0.03382
3724.87229 0.03388
3723.58652 0.03356
3722.30075 0.03274
3721.01498 0.03187
3719.72922 0.03152
3718.44345 0.03205
3717.15768 0.03326
3715.87191 0.03447
3714.58614 0.03490
3713.30037 0.03436
3712.01460 0.03339
3710.72883 0.03275
3709.44307 0.03280
3708.15730 0.03339
3706.87153 0.03407
3705.58576 0.03442
3704.29999 0.03431
3703.01422 0.03404
3701.72845 0.03398
3700.44268 0.03404
3699.15691 0.03368
3697.87115 0.03268
3696.58538 0.03157
3695.29961 0.03111
3694.01384 0.03148
3692.72807 0.03226
3691.44230 0.03275
3690.15653 0.03243
3688.87076 0.03132
3687.58500 0.03002
3686.29923 0.02924
3685.01346 0.02937
3683.72769 0.03029
3682.44192 0.03140
3681.15615 0.03205
3679.87038 0.03223
3678.58461 0.03231
3677.29884 0.03256
3676.01308 0.03317
3674.72731 0.03412
3673.44154 0.03494
3672.15577 0.03495
3670.87000 0.03418
3669.58423 0.03326
3668.29846 0.03259
3667.01269 0.03221
3665.72693 0.03205
3664.44116 0.03205
3663.15539 0.03220
3661.86962 0.03261
3660.58385 0.03323
3659.29808 0.03377
3658.01231 0.03392
3656.72654 0.03367
3655.44077 0.03332
3654.15501 0.03311
3652.86924 0.03318
3651.58347 0.03365
3650.29770 0.03451
3649.01193 0.03541
3647.72616 0.03584
3646.44039 0.03558
3645.15462 0.03489
3643.86886 0.03425
3642.58309 0.03397
3641.29732 0.03394
3640.01155 0.03389
3638.72578 0.03372
3637.44001 0.03345
3636.15424 0.03300
3634.86847 0.03247
3633.58270 0.03232
3632.29694 0.03295
3631.01117 0.03414
3629.72540 0.03524
3628.43963 0.03578
3627.15386 0.03567
3625.86809 0.03516
3624.58232 0.03471
3623.29655 0.03460
3622.01079 0.03475
3620.72502 0.03503
3619.43925 0.03548
3618.15348 0.03611
3616.86771 0.03664
3615.58194 0.03677
3614.29617 0.03654
3613.01040 0.03629
3611.72463 0.03636
3610.43887 0.03682
3609.15310 0.03755
3607.86733 0.03827
3606.58156 0.03868
3605.29579 0.03857
3604.01002 0.03810
3602.72425 0.03764
3601.43848 0.03753
3600.15272 0.03777
3598.86695 0.03804
3597.58118 0.03805
3596.29541 0.03787
3595.00964 0.03780
3593.72387 0.03814
3592.43810 0.03896
3591.15233 0.04011
3589.86656 0.04126
3588.58080 0.04204
3587.29503 0.04204
3586.00926 0.04113
3584.72349 0.03966
3583.43772 0.03837
3582.15195 0.03789
3580.86618 0.03835
3579.58041 0.03944
3578.29464 0.04066
3577.00888 0.04161
3575.72311 0.04208
3574.43734 0.04203
3573.15157 0.04152
3571.86580 0.04076
3570.58003 0.04000
3569.29426 0.03947
3568.00849 0.03942
3566.72273 0.03998
3565.43696 0.04097
3564.15119 0.04191
3562.86542 0.04245
3561.57965 0.04259
3560.29388 0.04260
3559.00811 0.04272
3557.72234 0.04303
3556.43657 0.04340
3555.15081 0.04343
3553.86504 0.04279
3552.57927 0.04163
3551.29350 0.04067
3550.00773 0.04054
3548.72196 0.04114
3547.43619 0.04177
3546.15042 0.04197
3544.86466 0.04193
3543.57889 0.04225
3542.29312 0.04315
3541.00735 0.04416
3539.72158 0.04460
3538.43581 0.04422
3537.15004 0.04338
3535.86427 0.04261
3534.57850 0.04225
3533.29274 0.04243
3532.00697 0.04313
3530.72120 0.04419
3529.43543 0.04523
3528.14966 0.04591
3526.86389 0.04620
3525.57812 0.04634
3524.29235 0.04655
3523.00659 0.04675
3521.72082 0.04672
3520.43505 0.04644
3519.14928 0.04617
3517.86351 0.04621
3516.57774 0.04667
3515.29197 0.04741
3514.00620 0.04818
3512.72043 0.04871
3511.43467 0.04883
3510.14890 0.04851
3508.86313 0.04800
3507.57736 0.04760
3506.29159 0.04744
3505.00582 0.04741
3503.72005 0.04746
3502.43428 0.04766
3501.14852 0.04799
3499.86275 0.04822
3498.57698 0.04820
3497.29121 0.04803
3496.00544 0.04789
3494.71967 0.04784
3493.43390 0.04783
3492.14813 0.04788
3490.86236 0.04807
3489.57660 0.04844
3488.29083 0.04891
3487.00506 0.04943
3485.71929 0.04999
3484.43352 0.05051
3483.14775 0.05090
3481.86198 0.05112
3480.57621 0.05113
3479.29045 0.05093
3478.00468 0.05054
3476.71891 0.05010
3475.43314 0.04982
3474.14737 0.04986
3472.86160 0.05030
3471.57583 0.05104
3470.29006 0.05178
3469.00429 0.05222
3467.71853 0.05225
3466.43276 0.05207
3465.14699 0.05190
3463.86122 0.05175
3462.57545 0.05157
3461.28968 0.05138
3460.00391 0.05131
3458.71814 0.05146
3457.43238 0.05183
3456.14661 0.05228
3454.86084 0.05251
3453.57507 0.05226
3452.28930 0.05154
3451.00353 0.05069
3449.71776 0.05016
3448.43199 0.05018
3447.14622 0.05071
3445.86046 0.05151
3444.57469 0.05243
3443.28892 0.05340
3442.00315 0.05434
3440.71738 0.05507
3439.43161 0.05537
3438.14584 0.05526
3436.86007 0.05498
3435.57431 0.05465
3434.28854 0.05413
3433.00277 0.05337
3431.71700 0.05264
3430.43123 0.05243
3429.14546 0.05280
3427.85969 0.05333
3426.57392 0.05352
3425.28815 0.05341
3424.00239 0.05346
3422.71662 0.05400
3421.43085 0.05487
3420.14508 0.05545
3418.85931 0.05529
3417.57354 0.05457
3416.28777 0.05395
3415.00200 0.05397
3413.71624 0.05454
3412.43047 0.05503
3411.14470 0.05496
3409.85893 0.05432
3408.57316 0.05355
3407.28739 0.05313
3406.00162 0.05335
3404.71585 0.05419
3403.43008 0.05535
3402.14432 0.05646
3400.85855 0.05716
3399.57278 0.05691
3398.28701 0.05607
3397.00124 0.05572
3395.71547 0.05599
3394.42970 0.05642
3393.14393 0.05660
3391.85817 0.05646
3390.57240 0.05629
3389.28663 0.05643
3388.00086 0.05701
3386.71509 0.05792
3385.42932 0.05892
3384.14355 0.05971
3382.85778 0.06009
3381.57201 0.06005
3380.28625 0.05972
3379.00048 0.05921
3377.71471 0.05859
3376.42894 0.05802
3375.14317 0.05785
3373.85740 0.05832
3372.57163 0.05917
3371.28586 0.05978
3370.00010 0.05975
3368.71433 0.05924
3367.42856 0.05878
3366.14279 0.05874
3364.85702 0.05907
3363.57125 0.05946
3362.28548 0.05964
3360.99971 0.05954
3359.71394 0.05925
3358.42818 0.05888
3357.14241 0.05850
3355.85664 0.05816
3354.57087 0.05790
3353.28510 0.05781
3351.99933 0.05792
3350.71356 0.05825
3349.42779 0.05873
3348.14202 0.05910
3346.85626 0.05918
3345.57049 0.05905
3344.28472 0.05904
3342.99895 0.05933
3341.71318 0.05966
3340.42741 0.05962
3339.14164 0.05911
3337.85587 0.05849
3336.57011 0.05821
3335.28434 0.05842
3333.99857 0.05901
3332.71280 0.05972
3331.42703 0.06030
3330.14126 0.06057
3328.85549 0.06057
3327.56972 0.06044
3326.28395 0.06034
3324.99819 0.06030
3323.71242 0.06028
3322.42665 0.06022
3321.14088 0.06006
3319.85511 0.05988
3318.56934 0.05986
3317.28357 0.06012
3315.99780 0.06060
3314.71204 0.06116
3313.42627 0.06174
3312.14050 0.06226
3310.85473 0.06256
3309.56896 0.06254
3308.28319 0.06224
3306.99742 0.06179
3305.71165 0.06128
3304.42588 0.06077
3303.14012 0.06047
3301.85435 0.06059
3300.56858 0.06109
3299.28281 0.06160
3297.99704 0.06167
3296.71127 0.06114
3295.42550 0.06026
3294.13973 0.05957
3292.85397 0.05950
3291.56820 0.06009
3290.28243 0.06097
3288.99666 0.06169
3287.71089 0.06201
3286.42512 0.06190
3285.13935 0.06149
3283.85358 0.06104
3282.56781 0.06082
3281.28205 0.06093
3279.99628 0.06113
3278.71051 0.06113
3277.42474 0.06097
3276.13897 0.06089
3274.85320 0.06105
3273.56743 0.06137
3272.28166 0.06172
3270.99590 0.06196
3269.71013 0.06199
3268.42436 0.06171
3267.13859 0.06120
3265.85282 0.06075
3264.56705 0.06062
3263.28128 0.06091
3261.99551 0.06150
3260.70974 0.06216
3259.42398 0.06255
3258.13821 0.06235
3256.85244 0.06163
3255.56667 0.06083
3254.28090 0.06037
3252.99513 0.06030
3251.70936 0.06037
3250.42359 0.06039
3249.13783 0.06033
3247.85206 0.06014
3246.56629 0.05973
3245.28052 0.05919
3243.99475 0.05873
3242.70898 0.05857
3241.42321 0.05876
3240.13744 0.05920
3238.85167 0.05968
3237.56591 0.05998
3236.28014 0.05994
3234.99437 0.05959
3233.70860 0.05906
3232.42283 0.05847
3231.13706 0.05795
3229.85129 0.05763
3228.56552 0.05755
3227.27976 0.05755
3225.99399 0.05750
3224.70822 0.05740
3223.42245 0.05744
3222.13668 0.05774
3220.85091 0.05822
3219.56514 0.05864
3218.27937 0.05882
3216.99360 0.05877
3215.70784 0.05862
3214.42207 0.05854
3213.13630 0.05849
3211.85053 0.05832
3210.56476 0.05796
3209.27899 0.05754
3207.99322 0.05726
3206.70745 0.05716
3205.42169 0.05712
3204.13592 0.05712
3202.85015 0.05727
3201.56438 0.05764
3200.27861 0.05801
3198.99284 0.05805
3197.70707 0.05770
3196.42130 0.05725
3195.13553 0.05709
3193.84977 0.05732
3192.56400 0.05767
3191.27823 0.05788
3189.99246 0.05795
3188.70669 0.05802
3187.42092 0.05814
3186.13515 0.05814
3184.84938 0.05786
3183.56362 0.05737
3182.27785 0.05703
3180.99208 0.05711
3179.70631 0.05751
3178.42054 0.05781
3177.13477 0.05769
3175.84900 0.05716
3174.56323 0.05642
3173.27746 0.05570
3171.99170 0.05502
3170.70593 0.05431
3169.42016 0.05370
3168.13439 0.05343
3166.84862 0.05368
3165.56285 0.05430
3164.27708 0.05485
3162.99131 0.05499
3161.70555 0.05475
3160.41978 0.05441
3159.13401 0.05414
3157.84824 0.05391
3156.56247 0.05358
3155.27670 0.05308
3153.99093 0.05246
3152.70516 0.05187
3151.41939 0.05153
3150.13363 0.05157
3148.84786 0.05187
3147.56209 0.05222
3146.27632 0.05254
3144.99055 0.05297
3143.70478 0.05361
3142.41901 0.05421
3141.13324 0.05445
3139.84748 0.05430
3138.56171 0.05407
3137.27594 0.05401
3135.99017 0.05399
3134.70440 0.05377
3133.41863 0.05338
3132.13286 0.05306
3130.84709 0.05288
3129.56132 0.05268
3128.27556 0.05240
3126.98979 0.05221
3125.70402 0.05222
3124.41825 0.05233
3123.13248 0.05235
3121.84671 0.05225
3120.56094 0.05214
3119.27517 0.05214
3117.98940 0.05229
3116.70364 0.05253
3115.41787 0.05273
3114.13210 0.05270
3112.84633 0.05246
3111.56056 0.05218
3110.27479 0.05199
3108.98902 0.05187
3107.70325 0.05174
3106.41749 0.05153
3105.13172 0.05127
3103.84595 0.05103
3102.56018 0.05094
3101.27441 0.05102
3099.98864 0.05116
3098.70287 0.05120
3097.41710 0.05115
3096.13133 0.05117
3094.84557 0.05133
3093.55980 0.05153
3092.27403 0.05167
3090.98826 0.05175
3089.70249 0.05180
3088.41672 0.05175
3087.13095 0.05144
3085.84518 0.05088
3084.55942 0.05026
3083.27365 0.04984
3081.98788 0.04974
3080.70211 0.04992
3079.41634 0.05025
3078.13057 0.05057
3076.84480 0.05085
3075.55903 0.05111
3074.27326 0.05142
3072.98750 0.05174
3071.70173 0.05200
3070.41596 0.05214
3069.13019 0.05213
3067.84442 0.05190
3066.55865 0.05152
3065.27288 0.05124
3063.98711 0.05124
3062.70135 0.05136
3061.41558 0.05127
3060.12981 0.05094
3058.84404 0.05064
3057.55827 0.05053
3056.27250 0.05037
3054.98673 0.04986
3053.70096 0.04910
3052.41519 0.04861
3051.12943 0.04872
3049.84366 0.04921
3048.55789 0.04951
3047.27212 0.04935
3045.98635 0.04897
3044.70058 0.04877
3043.41481 0.04888
3042.12904 0.04912
3040.84328 0.04930
3039.55751 0.04936
3038.27174 0.04936
3036.98597 0.04939
3035.70020 0.04950
3034.41443 0.04962
3033.12866 0.04963
3031.84289 0.04943
3030.55712 0.04912
3029.27136 0.04888
3027.98559 0.04882
3026.69982 0.04881
3025.41405 0.04865
3024.12828 0.04823
3022.84251 0.04767
3021.55674 0.04713
3020.27097 0.04684
3018.98521 0.04696
3017.69944 0.04741
3016.41367 0.04789
3015.12790 0.04802
3013.84213 0.04776
3012.55636 0.04733
3011.27059 0.04692
3009.98482 0.04654
3008.69905 0.04615
3007.41329 0.04584
3006.12752 0.04576
3004.84175 0.04590
3003.55598 0.04615
3002.27021 0.04655
3000.98444 0.04692
2999.69867 0.04670
2998.41290 0.04670
2997.12714 0.04674
2995.84137 0.04691
2994.55560 0.04718
2993.26983 0.04742
2991.98406 0.04753
2990.69829 0.04753
2989.41252 0.04748
2988.12675 0.04738
2986.84098 0.04720
2985.55522 0.04699
2984.26945 0.04687
2982.98368 0.04694
2981.69791 0.04722
2980.41214 0.04770
2979.12637 0.04829
2977.84060 0.04878
2976.55483 0.04890
2975.26907 0.04866
2973.98330 0.04836
2972.69753 0.04837
2971.41176 0.04880
2970.12599 0.04944
2968.84022 0.04997
2967.55445 0.05022
2966.26868 0.05031
2964.98291 0.05056
2963.69715 0.05108
2962.41138 0.05171
2961.12561 0.05219
2959.83984 0.05251
2958.55407 0.05286
2957.26830 0.05346
2955.98253 0.05430
2954.69676 0.05512
2953.41100 0.05561
2952.12523 0.05571
2950.83946 0.05567
2949.55369 0.05572
2948.26792 0.05580
2946.98215 0.05562
2945.69638 0.05501
2944.41061 0.05416
2943.12484 0.05352
2941.83908 0.05342
2940.55331 0.05380
2939.26754 0.05433
2937.98177 0.05478
2936.69600 0.05506
2935.41023 0.05520
2934.12446 0.05522
2932.83869 0.05527
2931.55293 0.05554
2930.26716 0.05605
2928.98139 0.05666
2927.69562 0.05720
2926.40985 0.05755
2925.12408 0.05753
2923.83831 0.05710
2922.55254 0.05652
2921.26677 0.05620
2919.98101 0.05628
2918.69524 0.05653
2917.40947 0.05656
2916.12370 0.05627
2914.83793 0.05574
2913.55216 0.05513
2912.26639 0.05459
2910.98062 0.05433
2909.69486 0.05438
2908.40909 0.05449
2907.12332 0.05440
2905.83755 0.05410
2904.55178 0.05380
2903.26601 0.05362
2901.98024 0.05345
2900.69447 0.05316
2899.40870 0.05274
2898.12294 0.05224
2896.83717 0.05171
2895.55140 0.05121
2894.26563 0.05080
2892.97986 0.05048
2891.69409 0.05010
2890.40832 0.04957
2889.12255 0.04900
2887.83678 0.04860
2886.55102 0.04852
2885.26525 0.04866
2883.97948 0.04880
2882.69371 0.04887
2881.40794 0.04896
2880.12217 0.04907
2878.83640 0.04901
2877.55063 0.04875
2876.26487 0.04861
2874.97910 0.04898
2873.69333 0.04973
2872.40756 0.05038
2871.12179 0.05064
2869.83602 0.05066
2868.55025 0.05063
2867.26448 0.05047
2865.97871 0.05007
2864.69295 0.04948
2863.40718 0.04897
2862.12141 0.04871
2860.83564 0.04869
2859.54987 0.04875
2858.26410 0.04875
2856.97833 0.04858
2855.69256 0.04825
2854.40680 0.04786
2853.12103 0.04758
2851.83526 0.04751
2850.54949 0.04761
2849.26372 0.04767
2847.97795 0.04752
2846.69218 0.04716
2845.40641 0.04670
2844.12064 0.04626
2842.83488 0.04586
2841.54911 0.04542
2840.26334 0.04486
2838.97757 0.04423
2837.69180 0.04367
2836.40603 0.04327
2835.12026 0.04305
2833.83449 0.04298
2832.54873 0.04302
2831.26296 0.04302
2829.97719 0.04283
2828.69142 0.04246
2827.40565 0.04206
2826.11988 0.04183
2824.83411 0.04178
2823.54834 0.04180
2822.26257 0.04179
2820.97681 0.04172
2819.69104 0.04165
2818.40527 0.04160
2817.11950 0.04153
2815.83373 0.04141
2814.54796 0.04126
2813.26219 0.04113
2811.97642 0.04098
2810.69066 0.04072
2809.40489 0.04033
2808.11912 0.03997
2806.83335 0.03980
2805.54758 0.03981
2804.26181 0.03983
2802.97604 0.03975
2801.69027 0.03964
2800.40450 0.03964
2799.11874 0.03972
2797.83297 0.03976
2796.54720 0.03970
2795.26143 0.03963
2793.97566 0.03965
2792.68989 0.03972
2791.40412 0.03972
2790.11835 0.03962
2788.83259 0.03944
2787.54682 0.03922
2786.26105 0.03897
2784.97528 0.03875
2783.68951 0.03859
2782.40374 0.03847
2781.11797 0.03836
2779.83220 0.03825
2778.54643 0.03820
2777.26067 0.03824
2775.97490 0.03832
2774.68913 0.03835
2773.40336 0.03825
2772.11759 0.03802
2770.83182 0.03777
2769.54605 0.03765
2768.26028 0.03773
2766.97452 0.03792
2765.68875 0.03802
2764.40298 0.03792
2763.11721 0.03769
2761.83144 0.03747
2760.54567 0.03732
2759.25990 0.03725
2757.97413 0.03722
2756.68836 0.03727
2755.40260 0.03745
2754.11683 0.03771
2752.83106 0.03786
2751.54529 0.03773
2750.25952 0.03737
2748.97375 0.03703
2747.68798 0.03683
2746.40221 0.03665
2745.11645 0.03636
2743.83068 0.03607
2742.54491 0.03600
2741.25914 0.03622
2739.97337 0.03654
2738.68760 0.03679
2737.40183 0.03691
2736.11606 0.03691
2734.83029 0.03679
2733.54453 0.03660
2732.25876 0.03647
2730.97299 0.03653
2729.68722 0.03673
2728.40145 0.03686
2727.11568 0.03673
2725.82991 0.03635
2724.54414 0.03590
2723.25838 0.03558
2721.97261 0.03542
2720.68684 0.03536
2719.40107 0.03538
2718.11530 0.03547
2716.82953 0.03556
2715.54376 0.03555
2714.25799 0.03542
2712.97222 0.03532
2711.68646 0.03536
2710.40069 0.03549
2709.11492 0.03554
2707.82915 0.03547
2706.54338 0.03536
2705.25761 0.03531
2703.97184 0.03535
2702.68607 0.03538
2701.40031 0.03532
2700.11454 0.03514
2698.82877 0.03488
2697.54300 0.03463
2696.25723 0.03445
2694.97146 0.03436
2693.68569 0.03439
2692.39992 0.03446
2691.11415 0.03447
2689.82839 0.03439
2688.54262 0.03427
2687.25685 0.03418
2685.97108 0.03414
2684.68531 0.03415
2683.39954 0.03425
2682.11377 0.03440
2680.82800 0.03450
2679.54224 0.03443
2678.25647 0.03422
2676.97070 0.03397
2675.68493 0.03377
2674.39916 0.03365
2673.11339 0.03363
2671.82762 0.03375
2670.54185 0.03402
2669.25608 0.03432
2667.97032 0.03442
2666.68455 0.03418
2665.39878 0.03370
2664.11301 0.03332
2662.82724 0.03326
2661.54147 0.03350
2660.25570 0.03386
2658.96993 0.03419
2657.68417 0.03445
2656.39840 0.03465
2655.11263 0.03480
2653.82686 0.03490
2652.54109 0.03488
2651.25532 0.03465
2649.96955 0.03420
2648.68378 0.03370
2647.39801 0.03332
2646.11225 0.03310
2644.82648 0.03299
2643.54071 0.03295
2642.25494 0.03298
2640.96917 0.03303
2639.68340 0.03301
2638.39763 0.03283
2637.11186 0.03252
2635.82609 0.03213
2634.54033 0.03174
2633.25456 0.03147
2631.96879 0.03147
2630.68302 0.03175
2629.39725 0.03219
2628.11148 0.03258
2626.82571 0.03280
2625.53994 0.03281
2624.25418 0.03264
2622.96841 0.03234
2621.68264 0.03197
2620.39687 0.03159
2619.11110 0.03129
2617.82533 0.03111
2616.53956 0.03096
2615.25379 0.03080
2613.96802 0.03067
2612.68226 0.03069
2611.39649 0.03084
2610.11072 0.03097
2608.82495 0.03090
2607.53918 0.03062
2606.25341 0.03027
2604.96764 0.03001
2603.68187 0.02994
2602.39611 0.03003
2601.11034 0.03016
2599.82457 0.03013
2598.53880 0.02977
2597.25303 0.02908
2595.96726 0.02830
2594.68149 0.02771
2593.39572 0.02741
2592.10995 0.02738
2590.82419 0.02749
2589.53842 0.02768
2588.25265 0.02792
2586.96688 0.02817
2585.68111 0.02841
2584.39534 0.02861
2583.10957 0.02874
2581.82380 0.02873
2580.53804 0.02858
2579.25227 0.02836
2577.96650 0.02818
2576.68073 0.02805
2575.39496 0.02788
2574.10919 0.02766
2572.82342 0.02745
2571.53765 0.02733
2570.25188 0.02732
2568.96612 0.02746
2567.68035 0.02771
2566.39458 0.02799
2565.10881 0.02818
2563.82304 0.02820
2562.53727 0.02803
2561.25150 0.02773
2559.96573 0.02738
2558.67997 0.02703
2557.39420 0.02670
2556.10843 0.02642
2554.82266 0.02632
2553.53689 0.02644
2552.25112 0.02663
2550.96535 0.02667
2549.67958 0.02652
2548.39381 0.02623
2547.10805 0.02590
2545.82228 0.02567
2544.53651 0.02566
2543.25074 0.02594
2541.96497 0.02643
2540.67920 0.02692
2539.39343 0.02714
2538.10766 0.02695
2536.82190 0.02641
2535.53613 0.02579
2534.25036 0.02535
2532.96459 0.02523
2531.67882 0.02545
2530.39305 0.02575
2529.10728 0.02579
2527.82151 0.02551
2526.53574 0.02524
2525.24998 0.02537
2523.96421 0.02590
2522.67844 0.02652
2521.39267 0.02696
2520.10690 0.02706
2518.82113 0.02682
2517.53536 0.02631
2516.24959 0.02576
2514.96383 0.02542
2513.67806 0.02544
2512.39229 0.02576
2511.10652 0.02618
2509.82075 0.02639
2508.53498 0.02620
2507.24921 0.02567
2505.96344 0.02517
2504.67767 0.02502
2503.39191 0.02523
2502.10614 0.02553
2500.82037 0.02568
2499.53460 0.02575
2498.24883 0.02592
2496.96306 0.02622
2495.67729 0.02651
2494.39152 0.02668
2493.10576 0.02673
2491.81999 0.02670
2490.53422 0.02656
2489.24845 0.02621
2487.96268 0.02570
2486.67691 0.02524
2485.39114 0.02503
2484.10537 0.02515
2482.81960 0.02546
2481.53384 0.02572
2480.24807 0.02574
2478.96230 0.02551
2477.67653 0.02516
2476.39076 0.02484
2475.10499 0.02464
2473.81922 0.02462
2472.53345 0.02470
2471.24769 0.02473
2469.96192 0.02461
2468.67615 0.02436
2467.39038 0.02413
2466.10461 0.02407
2464.81884 0.02415
2463.53307 0.02425
2462.24730 0.02425
2460.96153 0.02415
2459.67577 0.02411
2458.39000 0.02427
2457.10423 0.02464
2455.81846 0.02506
2454.53269 0.02533
2453.24692 0.02534
2451.96115 0.02515
2450.67538 0.02488
2449.38962 0.02458
2448.10385 0.02434
2446.81808 0.02423
2445.53231 0.02431
2444.24654 0.02448
2442.96077 0.02453
2441.67500 0.02442
2440.38923 0.02428
2439.10346 0.02436
2437.81770 0.02467
2436.53193 0.02495
2435.24616 0.02492
2433.96039 0.02458
2432.67462 0.02424
2431.38885 0.02422
2430.10308 0.02457
2428.81731 0.02501
2427.53155 0.02522
2426.24578 0.02508
2424.96001 0.02470
2423.67424 0.02429
2422.38847 0.02391
2421.10270 0.02358
2419.81693 0.02335
2418.53116 0.02324
2417.24539 0.02316
2415.95963 0.02303
2414.67386 0.02301
2413.38809 0.02327
2412.10232 0.02377
2410.81655 0.02424
2409.53078 0.02446
2408.24501 0.02441
2406.95924 0.02413
2405.67347 0.02368
2404.38771 0.02322
2403.10194 0.02293
2401.81617 0.02291
2400.53040 0.02313
2399.24463 0.02392
2397.95886 0.02340
2396.67309 0.02304
2395.38732 0.02309
2394.10156 0.02325
2392.81579 0.02343
2391.53002 0.02353
2390.24425 0.02358
2388.95848 0.02364
2387.67271 0.02375
2386.38694 0.02387
2385.10117 0.02396
2383.81540 0.02400
2382.52964 0.02398
2381.24387 0.02389
2379.95810 0.02373
2378.67233 0.02354
2377.38656 0.02335
2376.10079 0.02324
2374.81502 0.02328
2373.52925 0.02354
2372.24349 0.02401
2370.95772 0.02455
2369.67195 0.02495
2368.38618 0.02508
2367.10041 0.02494
2365.81464 0.02467
2364.52887 0.02440
2363.24310 0.02426
2361.95733 0.02427
2360.67157 0.02438
2359.38580 0.02442
2358.10003 0.02441
2356.81426 0.02447
2355.52849 0.02470
2354.24272 0.02501
2352.95695 0.02521
2351.67118 0.02525
2350.38542 0.02512
2349.09965 0.02493
2347.81388 0.02483
2346.52811 0.02494
2345.24234 0.02514
2343.95657 0.02520
2342.67080 0.02514
2341.38503 0.02525
2340.09926 0.02557
2338.81350 0.02570
2337.52773 0.02548
2336.24196 0.02523
2334.95619 0.02490
2333.67042 0.02414
2332.38465 0.02316
2331.09888 0.02243
2329.81311 0.02179
2328.52735 0.02122
2327.24158 0.02156
2325.95581 0.02285
2324.67004 0.02448
2323.38427 0.02620
2322.09850 0.02756
2320.81273 0.02809
2319.52696 0.02816
2318.24119 0.02807
2316.95543 0.02781
2315.66966 0.02756
2314.38389 0.02722
2313.09812 0.02666
2311.81235 0.02601
2310.52658 0.02529
2309.24081 0.02459
2307.95504 0.02405
2306.66928 0.02362
2305.38351 0.02331
2304.09774 0.02302
2302.81197 0.02272
2301.52620 0.02244
2300.24043 0.02224
2298.95466 0.02215
2297.66889 0.02216
2296.38312 0.02226
2295.09736 0.02249
2293.81159 0.02284
2292.52582 0.02313
2291.24005 0.02319
2289.95428 0.02303
2288.66851 0.02287
2287.38274 0.02288
2286.09697 0.02300
2284.81121 0.02310
2283.52544 0.02310
2282.23967 0.02304
2280.95390 0.02294
2279.66813 0.02276
2278.38236 0.02250
2277.09659 0.02221
2275.81082 0.02196
2274.52505 0.02184
2273.23929 0.02183
2271.95352 0.02183
2270.66775 0.02177
2269.38198 0.02166
2268.09621 0.02149
2266.81044 0.02123
2265.52467 0.02090
2264.23890 0.02056
2262.95314 0.02022
2261.66737 0.01982
2260.38160 0.01928
2259.09583 0.01872
2257.81006 0.01833
2256.52429 0.01823
2255.23852 0.01827
2253.95275 0.01825
2252.66698 0.01799
2251.38122 0.01739
2250.09545 0.01738
2248.80968 0.01949
2247.52391 0.01964
2246.23814 0.01953
2244.95237 0.01932
2243.66660 0.01901
2242.38083 0.01864
2241.09507 0.01829
2239.80930 0.01800
2238.52353 0.01783
2237.23776 0.01789
2235.95199 0.01835
2234.66622 0.01906
2233.38045 0.01957
2232.09468 0.01950
2230.80891 0.01897
2229.52315 0.01831
2228.23738 0.01760
2226.95161 0.01670
2225.66584 0.01566
2224.38007 0.01472
2223.09430 0.01409
2221.80853 0.01380
2220.52276 0.01387
2219.23700 0.01438
2217.95123 0.01527
2216.66546 0.01622
2215.37969 0.01674
2214.09392 0.01671
2212.80815 0.01655
2211.52238 0.01664
2210.23661 0.01688
2208.95084 0.01688
2207.66508 0.01657
2206.37931 0.01619
2205.09354 0.01579
2203.80777 0.01514
2202.52200 0.01411
2201.23623 0.01296
2199.95046 0.01208
2198.66469 0.01186
2197.37893 0.01236
2196.09316 0.01329
2194.80739 0.01414
2193.52162 0.01464
2192.23585 0.01485
2190.95008 0.01499
2189.66431 0.01512
2188.37854 0.01506
2187.09277 0.01451
2185.80701 0.01341
2184.52124 0.01218
2183.23547 0.01149
2181.94970 0.01169
2180.66393 0.01260
2179.37816 0.01352
2178.09239 0.01359
2176.80662 0.01232
2175.52085 0.01016
2174.23509 0.00827
2172.94932 0.00748
2171.66355 0.00777
2170.37778 0.00866
2169.09201 0.00961
2167.80624 0.01026
2166.52047 0.01036
2165.23470 0.00990
2163.94894 0.00902
2162.66317 0.00778
2161.37740 0.00617
2160.09163 0.00438
2158.80586 0.00298
2157.52009 0.00251
2156.23432 0.00290
2154.94855 0.00349
2153.66278 0.00380
2152.37702 0.00408
2151.09125 0.00488
2149.80548 0.00631
2148.51971 0.00786
2147.23394 0.00899
2145.94817 0.00955
2144.66240 0.00970
2143.37663 0.00961
2142.09087 0.00942
2140.80510 0.00930
2139.51933 0.00939
2138.23356 0.00967
2136.94779 0.00995
2135.66202 0.01008
2134.37625 0.01011
2133.09048 0.01018
2131.80471 0.01032
2130.51895 0.01047
2129.23318 0.01054
2127.94741 0.01063
2126.66164 0.01091
2125.37587 0.01151
2124.09010 0.01231
2122.80433 0.01291
2121.51856 0.01303
2120.23280 0.01284
2118.94703 0.01278
2117.66126 0.01308
2116.37549 0.01356
2115.08972 0.01388
2113.80395 0.01393
2112.51818 0.01395
2111.23241 0.01416
2109.94664 0.01450
2108.66088 0.01470
2107.37511 0.01455
2106.08934 0.01417
2104.80357 0.01381
2103.51780 0.01369
2102.23203 0.01372
2100.94626 0.01370
2099.66049 0.01507
2098.37473 0.01548
2097.08896 0.01459
2095.80319 0.01333
2094.51742 0.01233
2093.23165 0.01198
2091.94588 0.01233
2090.66011 0.01292
2089.37434 0.01310
2088.08857 0.01269
2086.80281 0.01209
2085.51704 0.01190
2084.23127 0.01232
2082.94550 0.01299
2081.65973 0.01349
2080.37396 0.01369
2079.08819 0.01376
2077.80242 0.01382
2076.51666 0.01377
2075.23089 0.01358
2073.94512 0.01355
2072.65935 0.01406
2071.37358 0.01496
2070.08781 0.01568
2068.80204 0.01573
2067.51627 0.01517
2066.23050 0.01431
2064.94474 0.01333
2063.65897 0.01230
2062.37320 0.01141
2061.08743 0.01088
2059.80166 0.01080
2058.51589 0.01096
2057.23012 0.01100
2055.94435 0.01074
2054.65859 0.01030
2053.37282 0.01015
2052.08705 0.01063
2050.80128 0.01152
2049.51551 0.01231
2048.22974 0.01268
2046.94397 0.01275
2045.65820 0.01268
2044.37243 0.01239
2043.08667 0.01179
2041.80090 0.01112
2040.51513 0.01086
2039.22936 0.01121
2037.94359 0.01193
2036.65782 0.01254
2035.37205 0.01282
2034.08628 0.01280
2032.80052 0.01243
2031.51475 0.01144
2030.22898 0.00976
2028.94321 0.00796
2027.65744 0.00690
2026.37167 0.00701
2025.08590 0.00786
2023.80013 0.00859
2022.51436 0.00864
2021.22860 0.00807
2019.94283 0.00742
2018.65706 0.00725
2017.37129 0.00784
2016.08552 0.00903
2014.79975 0.01037
2013.51398 0.01139
2012.22821 0.01195
2010.94245 0.01213
2009.65668 0.01203
2008.37091 0.01169
2007.08514 0.01120
2005.79937 0.01076
2004.51360 0.01041
2003.22783 0.00998
2001.94206 0.00936
2000.65629 0.00876
1999.37053 0.00850
1998.08476 0.00859
1996.79899 0.00868
1995.51322 0.00853
1994.22745 0.00822
1992.94168 0.00799
1991.65591 0.00798
1990.37014 0.00821
1989.08438 0.00865
1987.79861 0.00923
1986.51284 0.00977
1985.22707 0.01020
1983.94130 0.01071
1982.65553 0.01154
1981.36976 0.01274
1980.08399 0.01413
1978.79822 0.01532
1977.51246 0.01591
1976.22669 0.01575
1974.94092 0.01512
1973.65515 0.01458
1972.36938 0.01452
1971.08361 0.01490
1969.79784 0.01533
1968.51207 0.01535
1967.22631 0.01483
1965.94054 0.01409
1964.65477 0.01358
1963.36900 0.01343
1962.08323 0.01335
1960.79746 0.01307
1959.51169 0.01264
1958.22592 0.01223
1956.94015 0.01189
1955.65439 0.01154
1954.36862 0.01120
1953.08285 0.01099
1951.79708 0.01097
1950.51131 0.01111
1949.22554 0.01141
1947.93977 0.01192
1946.65400 0.01258
1945.36823 0.01317
1944.08247 0.01350
1942.79670 0.01360
1941.51093 0.01368
1940.22516 0.01386
1938.93939 0.01407
1937.65362 0.01422
1936.36785 0.01429
1935.08208 0.01435
1933.79632 0.01439
1932.51055 0.01437
1931.22478 0.01433
1929.93901 0.01442
1928.65324 0.01476
1927.36747 0.01522
1926.08170 0.01548
1924.79593 0.01535
1923.51016 0.01507
1922.22440 0.01500
1920.93863 0.01523
1919.65286 0.01548
1918.36709 0.01547
1917.08132 0.01517
1915.79555 0.01476
1914.50978 0.01443
1913.22401 0.01432
1911.93825 0.01444
1910.65248 0.01468
1909.36671 0.01487
1908.08094 0.01494
1906.79517 0.01491
1905.50940 0.01488
1904.22363 0.01493
1902.93786 0.01501
1901.65209 0.01496
1900.36633 0.01475
1899.08056 0.01449
1897.79479 0.01433
1896.50902 0.01434
1895.22325 0.01447
1893.93748 0.01461
1892.65171 0.01465
1891.36594 0.01457
1890.08018 0.01448
1888.79441 0.01446
1887.50864 0.01451
1886.22287 0.01453
1884.93710 0.01448
1883.65133 0.01436
1882.36556 0.01427
1881.07979 0.01426
1879.79402 0.01433
1878.50826 0.01444
1877.22249 0.01451
1875.93672 0.01447
1874.65095 0.01438
1873.36518 0.01435
1872.07941 0.01440
1870.79364 0.01442
1869.50787 0.01428
1868.22211 0.01399
1866.93634 0.01373
1865.65057 0.01365
1864.36480 0.01380
1863.07903 0.01409
1861.79326 0.01435
1860.50749 0.01446
1859.22172 0.01441
1857.93595 0.01425
1856.65019 0.01406
1855.36442 0.01392
1854.07865 0.01392
1852.79288 0.01408
1851.50711 0.01429
1850.22134 0.01444
1848.93557 0.01455
1847.64980 0.01470
1846.36404 0.01491
1845.07827 0.01507
1843.79250 0.01510
1842.50673 0.01498
1841.22096 0.01478
1839.93519 0.01464
1838.64942 0.01465
1837.36365 0.01472
1836.07788 0.01476
1834.79212 0.01472
1833.50635 0.01467
1832.22058 0.01463
1830.93481 0.01466
1829.64904 0.01484
1828.36327 0.01520
1827.07750 0.01561
1825.79173 0.01594
1824.50597 0.01616
1823.22020 0.01628
1821.93443 0.01630
1820.64866 0.01623
1819.36289 0.01602
1818.07712 0.01558
1816.79135 0.01494
1815.50558 0.01427
1814.21981 0.01377
1812.93405 0.01351
1811.64828 0.01346
1810.36251 0.01352
1809.07674 0.01363
1807.79097 0.01376
1806.50520 0.01397
1805.21943 0.01427
1803.93366 0.01457
1802.64790 0.01474
1801.36213 0.01474
1800.07636 0.01467
1798.79059 0.01463
1797.50482 0.01466
1796.21905 0.01476
1794.93328 0.01488
1793.64751 0.01500
1792.36174 0.01514
1791.07598 0.01532
1789.79021 0.01546
1788.50444 0.01549
1787.21867 0.01543
1785.93290 0.01535
1784.64713 0.01535
1783.36136 0.01542
1782.07559 0.01549
1780.78983 0.01549
1779.50406 0.01544
1778.21829 0.01535
1776.93252 0.01529
1775.64675 0.01529
1774.36098 0.01528
1773.07521 0.01528
1771.78944 0.01530
1770.50367 0.01530
1769.21791 0.01521
1767.93214 0.01508
1766.64637 0.01506
1765.36060 0.01516
1764.07483 0.01533
1762.78906 0.01550
1761.50329 0.01565
1760.21752 0.01574
1758.93176 0.01570
1757.64599 0.01561
1756.36022 0.01558
1755.07445 0.01564
1753.78868 0.01569
1752.50291 0.01569
1751.21714 0.01571
1749.93137 0.01577
1748.64560 0.01580
1747.35984 0.01576
1746.07407 0.01570
1744.78830 0.01567
1743.50253 0.01570
1742.21676 0.01576
1740.93099 0.01581
1739.64522 0.01591
1738.35945 0.01613
1737.07369 0.01637
1735.78792 0.01647
1734.50215 0.01647
1733.21638 0.01653
1731.93061 0.01660
1730.64484 0.01655
1729.35907 0.01643
1728.07330 0.01640
1726.78753 0.01648
1725.50177 0.01655
1724.21600 0.01664
1722.93023 0.01685
1721.64446 0.01728
1720.35869 0.01781
1719.07292 0.01825
1717.78715 0.01855
1716.50138 0.01877
1715.21561 0.01895
1713.92985 0.01912
1712.64408 0.01937
1711.35831 0.01971
1710.07254 0.02013
1708.78677 0.02057
1707.50100 0.02101
1706.21523 0.02150
1704.92946 0.02214
1703.64370 0.02292
1702.35793 0.02369
1701.07216 0.02443
1699.78639 0.02529
1698.50062 0.02614
1697.21485 0.02674
1695.92908 0.02718
1694.64331 0.02773
1693.35754 0.02835
1692.07178 0.02886
1690.78601 0.02938
1689.50024 0.03012
1688.21447 0.03107
1686.92870 0.03196
1685.64293 0.03266
1684.35716 0.03329
1683.07139 0.03397
1681.78563 0.03459
1680.49986 0.03514
1679.21409 0.03578
1677.92832 0.03656
1676.64255 0.03738
1675.35678 0.03820
1674.07101 0.03905
1672.78524 0.03984
1671.49947 0.04048
1670.21371 0.04103
1668.92794 0.04161
1667.64217 0.04224
1666.35640 0.04288
1665.07063 0.04350
1663.78486 0.04414
1662.49909 0.04480
1661.21332 0.04543
1659.92756 0.04601
1658.64179 0.04666
1657.35602 0.04754
1656.07025 0.04853
1654.78448 0.04932
1653.49871 0.04985
1652.21294 0.05029
1650.92717 0.05061
1649.64140 0.05069
1648.35564 0.05061
1647.06987 0.05063
1645.78410 0.05081
1644.49833 0.05095
1643.21256 0.05087
1641.92679 0.05061
1640.64102 0.05038
1639.35525 0.05032
1638.06949 0.05032
1636.78372 0.05024
1635.49795 0.05006
1634.21218 0.04978
1632.92641 0.04940
1631.64064 0.04891
1630.35487 0.04841
1629.06910 0.04799
1627.78333 0.04764
1626.49757 0.04732
1625.21180 0.04697
1623.92603 0.04659
1622.64026 0.04625
1621.35449 0.04604
1620.06872 0.04588
1618.78295 0.04567
1617.49718 0.04542
1616.21142 0.04521
1614.92565 0.04503
1613.63988 0.04476
1612.35411 0.04444
1611.06834 0.04419
1609.78257 0.04407
1608.49680 0.04400
1607.21103 0.04397
1605.92526 0.04397
1604.63950 0.04405
1603.35373 0.04419
1602.06796 0.04435
1600.78219 0.04445
1599.49642 0.04449
1598.21065 0.04447
1596.92488 0.04450
1595.63911 0.04462
1594.35335 0.04482
1593.06758 0.04504
1591.78181 0.04521
1590.49604 0.04530
1589.21027 0.04536
1587.92450 0.04543
1586.63873 0.04552
1585.35296 0.04566
1584.06719 0.04584
1582.78143 0.04608
1581.49566 0.04643
1580.20989 0.04689
1578.92412 0.04739
1577.63835 0.04778
1576.35258 0.04808
1575.06681 0.04841
1573.78104 0.04873
1572.49528 0.04897
1571.20951 0.04916
1569.92374 0.04940
1568.63797 0.04969
1567.35220 0.04996
1566.06643 0.05018
1564.78066 0.05049
1563.49489 0.05100
1562.20912 0.05157
1560.92336 0.05198
1559.63759 0.05224
1558.35182 0.05246
1557.06605 0.05262
1555.78028 0.05258
1554.49451 0.05241
1553.20874 0.05233
1551.92297 0.05235
1550.63721 0.05235
1549.35144 0.05233
1548.06567 0.05230
1546.77990 0.05227
1545.49413 0.05228
1544.20836 0.05240
1542.92259 0.05253
1541.63682 0.05247
1540.35105 0.05215
1539.06529 0.05169
1537.77952 0.05120
1536.49375 0.05064
1535.20798 0.05004
1533.92221 0.04954
1532.63644 0.04925
1531.35067 0.04909
1530.06490 0.04896
1528.77914 0.04887
1527.49337 0.04888
1526.20760 0.04898
1524.92183 0.04915
1523.63606 0.04927
1522.35029 0.04931
1521.06452 0.04941
1519.77875 0.04961
1518.49298 0.04981
1517.20722 0.04996
1515.92145 0.05016
1514.63568 0.05050
1513.34991 0.05096
1512.06414 0.05162
1510.77837 0.05245
1509.49260 0.05332
1508.20683 0.05404
1506.92107 0.05459
1505.63530 0.05509
1504.34953 0.05555
1503.06376 0.05590
1501.77799 0.05622
1500.49222 0.05662
1499.20645 0.05709
1497.92068 0.05752
1496.63491 0.05784
1495.34915 0.05813
1494.06338 0.05846
1492.77761 0.05877
1491.49184 0.05909
1490.20607 0.05947
1488.92030 0.05994
1487.63453 0.06047
1486.34876 0.06104
1485.06299 0.06164
1483.77723 0.06227
1482.49146 0.06296
1481.20569 0.06378
1479.91992 0.06472
1478.63415 0.06578
1477.34838 0.06693
1476.06261 0.06813
1474.77684 0.06928
1473.49108 0.07026
1472.20531 0.07107
1470.91954 0.07175
1469.63377 0.07229
1468.34800 0.07270
1467.06223 0.07305
1465.77646 0.07341
1464.49069 0.07385
1463.20492 0.07441
1461.91916 0.07508
1460.63339 0.07585
1459.34762 0.07664
1458.06185 0.07741
1456.77608 0.07818
1455.49031 0.07891
1454.20454 0.07945
1452.91877 0.07975
1451.63301 0.07995
1450.34724 0.08017
1449.06147 0.08038
1447.77570 0.08051
1446.48993 0.08052
1445.20416 0.08039
1443.91839 0.08015
1442.63262 0.07985
1441.34685 0.07956
1440.06109 0.07926
1438.77532 0.07889
1437.48955 0.07851
1436.20378 0.07824
1434.91801 0.07816
1433.63224 0.07820
1432.34647 0.07834
1431.06070 0.07867
1429.77494 0.07922
1428.48917 0.07998
1427.20340 0.08087
1425.91763 0.08184
1424.63186 0.08292
1423.34609 0.08414
1422.06032 0.08541
1420.77455 0.08657
1419.48878 0.08758
1418.20302 0.08849
1416.91725 0.08927
1415.63148 0.08988
1414.34571 0.09034
1413.05994 0.09069
1411.77417 0.09093
1410.48840 0.09106
1409.20263 0.09107
1407.91687 0.09087
1406.63110 0.09042
1405.34533 0.08970
1404.05956 0.08880
1402.77379 0.08781
1401.48802 0.08675
1400.20225 0.08560
1398.91648 0.08438
1397.63071 0.08307
1396.34495 0.08163
1395.05918 0.08010
1393.77341 0.07854
1392.48764 0.07701
1391.20187 0.07552
1389.91610 0.07408
1388.63033 0.07268
1387.34456 0.07131
1386.05880 0.06993
1384.77303 0.06852
1383.48726 0.06706
1382.20149 0.06559
1380.91572 0.06416
1379.62995 0.06281
1378.34418 0.06151
1377.05841 0.06018
1375.77264 0.05876
1374.48688 0.05728
1373.20111 0.05580
1371.91534 0.05437
1370.62957 0.05298
1369.34380 0.05162
1368.05803 0.05034
1366.77226 0.04916
1365.48649 0.04807
1364.20073 0.04706
1362.91496 0.04607
1361.62919 0.04512
1360.34342 0.04420
1359.05765 0.04335
1357.77188 0.04263
1356.48611 0.04199
1355.20034 0.04137
1353.91457 0.04072
1352.62881 0.04007
1351.34304 0.03946
1350.05727 0.03896
1348.77150 0.03853
1347.48573 0.03814
1346.19996 0.03776
1344.91419 0.03737
1343.62842 0.03699
1342.34266 0.03661
1341.05689 0.03623
1339.77112 0.03583
1338.48535 0.03545
1337.19958 0.03509
1335.91381 0.03472
1334.62804 0.03434
1333.34227 0.03394
1332.05650 0.03357
1330.77074 0.03324
1329.48497 0.03294
1328.19920 0.03266
1326.91343 0.03236
1325.62766 0.03205
1324.34189 0.03174
1323.05612 0.03144
1321.77035 0.03116
1320.48459 0.03090
1319.19882 0.03066
1317.91305 0.03041
1316.62728 0.03015
1315.34151 0.02988
1314.05574 0.02961
1312.76997 0.02935
1311.48420 0.02909
1310.19843 0.02885
1308.91267 0.02862
1307.62690 0.02840
1306.34113 0.02818
1305.05536 0.02795
1303.76959 0.02770
1302.48382 0.02745
1301.19805 0.02720
1299.91228 0.02694
1298.62652 0.02666
1297.34075 0.02638
1296.05498 0.02612
1294.76921 0.02590
1293.48344 0.02575
1292.19767 0.02566
1290.91190 0.02559
1289.62613 0.02549
1288.34036 0.02534
1287.05460 0.02515
1285.76883 0.02498
1284.48306 0.02486
1283.19729 0.02479
1281.91152 0.02476
1280.62575 0.02472
1279.33998 0.02462
1278.05421 0.02444
1276.76845 0.02423
1275.48268 0.02402
1274.19691 0.02386
1272.91114 0.02375
1271.62537 0.02367
1270.33960 0.02361
1269.05383 0.02359
1267.76806 0.02363
1266.48229 0.02368
1265.19653 0.02371
1263.91076 0.02368
1262.62499 0.02361
1261.33922 0.02353
1260.05345 0.02342
1258.76768 0.02330
1257.48191 0.02317
1256.19614 0.02307
1254.91037 0.02302
1253.62461 0.02301
1252.33884 0.02301
1251.05307 0.02302
1249.76730 0.02302
1248.48153 0.02299
1247.19576 0.02294
1245.90999 0.02290
1244.62422 0.02290
1243.33846 0.02293
1242.05269 0.02294
1240.76692 0.02289
1239.48115 0.02276
1238.19538 0.02261
1236.90961 0.02247
1235.62384 0.02236
1234.33807 0.02228
1233.05230 0.02223
1231.76654 0.02217
1230.48077 0.02208
1229.19500 0.02191
1227.90923 0.02169
1226.62346 0.02150
1225.33769 0.02136
1224.05192 0.02126
1222.76615 0.02112
1221.48039 0.02091
1220.19462 0.02066
1218.90885 0.02043
1217.62308 0.02025
1216.33731 0.02010
1215.05154 0.01998
1213.76577 0.01987
1212.48000 0.01982
1211.19423 0.01983
1209.90847 0.01991
1208.62270 0.02001
1207.33693 0.02011
1206.05116 0.02017
1204.76539 0.02019
1203.47962 0.02018
1202.19385 0.02008
1200.90808 0.01985
1199.62232 0.01973
1198.33655 0.01976
1197.05078 0.01977
1195.76501 0.01972
1194.47924 0.01961
1193.19347 0.01946
1191.90770 0.01932
1190.62193 0.01921
1189.33616 0.01912
1188.05040 0.01906
1186.76463 0.01901
1185.47886 0.01896
1184.19309 0.01889
1182.90732 0.01882
1181.62155 0.01878
1180.33578 0.01876
1179.05001 0.01875
1177.76425 0.01871
1176.47848 0.01867
1175.19271 0.01862
1173.90694 0.01859
1172.62117 0.01858
1171.33540 0.01861
1170.04963 0.01867
1168.76386 0.01879
1167.47809 0.01895
1166.19233 0.01911
1164.90656 0.01922
1163.62079 0.01925
1162.33502 0.01923
1161.04925 0.01919
1159.76348 0.01916
1158.47771 0.01918
1157.19194 0.01930
1155.90618 0.01951
1154.62041 0.01975
1153.33464 0.01998
1152.04887 0.02015
1150.76310 0.02027
1149.47733 0.02037
1148.19156 0.02049
1146.90579 0.02070
1145.62002 0.02103
1144.33426 0.02146
1143.04849 0.02193
1141.76272 0.02242
1140.47695 0.02295
1139.19118 0.02356
1137.90541 0.02426
1136.61964 0.02509
1135.33387 0.02603
1134.04811 0.02708
1132.76234 0.02819
1131.47657 0.02938
1130.19080 0.03066
1128.90503 0.03210
1127.61926 0.03375
1126.33349 0.03562
1125.04772 0.03770
1123.76195 0.03994
1122.47619 0.04226
1121.19042 0.04464
1119.90465 0.04706
1118.61888 0.04954
1117.33311 0.05210
1116.04734 0.05472
1114.76157 0.05734
1113.47580 0.05993
1112.19004 0.06249
1110.90427 0.06500
1109.61850 0.06751
1108.33273 0.07002
1107.04696 0.07253
1105.76119 0.07499
1104.47542 0.07736
1103.18965 0.07963
1101.90388 0.08177
1100.61812 0.08376
1099.33235 0.08566
1098.04658 0.08754
1096.76081 0.08946
1095.47504 0.09141
1094.18927 0.09328
1092.90350 0.09502
1091.61773 0.09658
1090.33197 0.09798
1089.04620 0.09924
1087.76043 0.10045
1086.47466 0.10167
1085.18889 0.10291
1083.90312 0.10414
1082.61735 0.10538
1081.33158 0.10669
1080.04581 0.10813
1078.76005 0.10976
1077.47428 0.11157
1076.18851 0.11352
1074.90274 0.11556
1073.61697 0.11764
1072.33120 0.11978
1071.04543 0.12202
1069.75966 0.12434
1068.47390 0.12674
1067.18813 0.12920
1065.90236 0.13171
1064.61659 0.13424
1063.33082 0.13676
1062.04505 0.13922
1060.75928 0.14164
1059.47351 0.14402
1058.18774 0.14637
1056.90198 0.14869
1055.61621 0.15100
1054.33044 0.15335
1053.04467 0.15573
1051.75890 0.15813
1050.47313 0.16050
1049.18736 0.16286
1047.90159 0.16526
1046.61583 0.16774
1045.33006 0.17028
1044.04429 0.17283
1042.75852 0.17536
1041.47275 0.17787
1040.18698 0.18037
1038.90121 0.18290
1037.61544 0.18548
1036.32967 0.18811
1035.04391 0.19074
1033.75814 0.19332
1032.47237 0.19576
1031.18660 0.19801
1029.90083 0.20005
1028.61506 0.20191
1027.32929 0.20361
1026.04352 0.20514
1024.75775 0.20650
1023.47199 0.20766
1022.18622 0.20858
1020.90045 0.20927
1019.61468 0.20971
1018.32891 0.20989
1017.04314 0.20976
1015.75737 0.20933
1014.47160 0.20867
1013.18584 0.20780
1011.90007 0.20664
1010.61430 0.20510
1009.32853 0.20319
1008.04276 0.20100
1006.75699 0.19860
1005.47122 0.19598
1004.18545 0.19306
1002.89968 0.18982
1001.61392 0.18634
1000.32815 0.18270
999.04238 0.17892
997.75661 0.17499
996.47084 0.17091
995.18507 0.16670
993.89930 0.16243
992.61353 0.15809
991.32777 0.15368
990.04200 0.14926
988.75623 0.14491
987.47046 0.14068
986.18469 0.13656
984.89892 0.13253
983.61315 0.12861
982.32738 0.12481
981.04161 0.12113
979.75585 0.11754
978.47008 0.11407
977.18431 0.11076
975.89854 0.10768
974.61277 0.10491
973.32700 0.10252
972.04123 0.10054
970.75546 0.09898
969.46970 0.09788
968.18393 0.09726
966.89816 0.09711
965.61239 0.09736
964.32662 0.09788
963.04085 0.09850
961.75508 0.09900
960.46931 0.09920
959.18354 0.09897
957.89778 0.09820
956.61201 0.09690
955.32624 0.09520
954.04047 0.09331
952.75470 0.09143
951.46893 0.08960
950.18316 0.08773
948.89739 0.08579
947.61163 0.08380
946.32586 0.08186
945.04009 0.08003
943.75432 0.07824
942.46855 0.07645
941.18278 0.07462
939.89701 0.07282
938.61124 0.07110
937.32547 0.06949
936.03971 0.06801
934.75394 0.06663
933.46817 0.06538
932.18240 0.06424
930.89663 0.06320
929.61086 0.06221
928.32509 0.06122
927.03932 0.06027
925.75356 0.05937
924.46779 0.05853
923.18202 0.05771
921.89625 0.05688
920.61048 0.05603
919.32471 0.05513
918.03894 0.05420
916.75317 0.05333
915.46740 0.05265
914.18164 0.05216
912.89587 0.05174
911.61010 0.05128
910.32433 0.05073
909.03856 0.05014
907.75279 0.04958
906.46702 0.04904
905.18125 0.04847
903.89549 0.04785
902.60972 0.04722
901.32395 0.04666
900.03818 0.04616
898.75241 0.04569
897.46664 0.04521
896.18087 0.04472
894.89510 0.04425
893.60933 0.04384
892.32357 0.04349
891.03780 0.04323
889.75203 0.04307
888.46626 0.04309
887.18049 0.04337
885.89472 0.04404
884.60895 0.04527
883.32318 0.04717
882.03742 0.04958
880.75165 0.05206
879.46588 0.05410
878.18011 0.05551
876.89434 0.05656
875.60857 0.05767
874.32280 0.05902
873.03703 0.06034
871.75126 0.06118
870.46550 0.06123
869.17973 0.06049
867.89396 0.05916
866.60819 0.05749
865.32242 0.05565
864.03665 0.05375
862.75088 0.05182
861.46511 0.04994
860.17935 0.04822
858.89358 0.04678
857.60781 0.04565
856.32204 0.04476
855.03627 0.04402
853.75050 0.04334
852.46473 0.04271
851.17896 0.04216
849.89319 0.04169
848.60743 0.04131
847.32166 0.04099
846.03589 0.04065
844.75012 0.04028
843.46435 0.03990
842.17858 0.03956
840.89281 0.03931
839.60704 0.03911
838.32128 0.03892
837.03551 0.03864
835.74974 0.03827
834.46397 0.03784
833.17820 0.03745
831.89243 0.03716
830.60666 0.03700
829.32089 0.03691
828.03512 0.03684
826.74936 0.03671
825.46359 0.03654
824.17782 0.03636
822.89205 0.03622
821.60628 0.03610
820.32051 0.03597
819.03474 0.03582
817.74897 0.03568
816.46321 0.03557
815.17744 0.03547
813.89167 0.03532
812.60590 0.03514
811.32013 0.03494
810.03436 0.03474
808.74859 0.03454
807.46282 0.03441
806.17705 0.03437
804.89129 0.03441
803.60552 0.03446
802.31975 0.03449
801.03398 0.03450
799.74821 0.03451
798.46244 0.03450
797.17667 0.03445
795.89090 0.03436
794.60513 0.03423
793.31937 0.03408
792.03360 0.03399
790.74783 0.03402
789.46206 0.03413
788.17629 0.03424
786.89052 0.03429
785.60475 0.03428
784.31898 0.03418
783.03322 0.03400
781.74745 0.03376
780.46168 0.03354
779.17591 0.03339
777.89014 0.03327
776.60437 0.03316
775.31860 0.03311
774.03283 0.03318
772.74706 0.03338
771.46130 0.03358
770.17553 0.03371
768.88976 0.03374
767.60399 0.03369
766.31822 0.03362
765.03245 0.03356
763.74668 0.03355
762.46091 0.03354
761.17515 0.03348
759.88938 0.03332
758.60361 0.03315
757.31784 0.03305
756.03207 0.03306
754.74630 0.03317
753.46053 0.03331
752.17476 0.03342
750.88899 0.03341
749.60323 0.03325
748.31746 0.03303
747.03169 0.03287
745.74592 0.03284
744.46015 0.03288
743.17438 0.03288
741.88861 0.03277
740.60284 0.03254
739.31708 0.03230
738.03131 0.03216
736.74554 0.03212
735.45977 0.03218
734.17400 0.03230
732.88823 0.03243
731.60246 0.03248
730.31669 0.03243
729.03092 0.03232
727.74516 0.03224
726.45939 0.03219
725.17362 0.03213
723.88785 0.03199
722.60208 0.03207
721.31631 0.03254
720.03054 0.03308
718.74477 0.03344
717.45901 0.03356
716.17324 0.03342
714.88747 0.03310
713.60170 0.03272
712.31593 0.03239
711.03016 0.03217
709.74439 0.03204
708.45862 0.03194
707.17285 0.03183
705.88709 0.03175
704.60132 0.03173
703.31555 0.03178
702.02978 0.03186
700.74401 0.03190
699.45824 0.03191
698.17247 0.03193
696.88670 0.03199
695.60094 0.03210
694.31517 0.03220
693.02940 0.03229
691.74363 0.03235
690.45786 0.03238
689.17209 0.03235
687.88632 0.03225
686.60055 0.03207
685.31478 0.03181
684.02902 0.03150
682.74325 0.03117
681.45748 0.03090
680.17171 0.03073
678.88594 0.03070
677.60017 0.03074
676.31440 0.03080
675.02863 0.03085
673.74287 0.03091
672.45710 0.03100
671.17133 0.03115
669.88556 0.03132
668.59979 0.03147
667.31402 0.03153
666.02825 0.03152
664.74248 0.03142
663.45671 0.03124
662.17095 0.03102
660.88518 0.03084
659.59941 0.03072
658.31364 0.03066
657.02787 0.03062
655.74210 0.03054
654.45633 0.03042
653.17056 0.03027
651.88480 0.03015
650.59903 0.03009
649.31326 0.03009
648.02749 0.03013
646.74172 0.03018
645.45595 0.03024
644.17018 0.03031
642.88441 0.03036
641.59864 0.03035
640.31288 0.03029
639.02711 0.03020
637.74134 0.03011
636.45557 0.03006
635.16980 0.03013
633.88403 0.03035
632.59826 0.03056
631.31249 0.03034
630.02673 0.03048
628.74096 0.03319
627.45519 0.03450
626.16942 0.03912
624.88365 0.04594
623.59788 0.05208
622.31211 0.05593
621.02634 0.05716
619.74057 0.05663
618.45481 0.05552
617.16904 0.05447
615.88327 0.05385
614.59750 0.05433
613.31173 0.05679
612.02596 0.06147
610.74019 0.06759
609.45442 0.07398
608.16866 0.08004
606.88289 0.08564
605.59712 0.09043
604.31135 0.09377
603.02558 0.09513
601.73981 0.09448
600.45404 0.09240
599.16827 0.08976
597.88250 0.08717
596.59674 0.08473
595.31097 0.08228
594.02520 0.07975
592.73943 0.07731
591.45366 0.07526
590.16789 0.07382
588.88212 0.07305
587.59635 0.07291
586.31059 0.07337
585.02482 0.07440
583.73905 0.07591
582.45328 0.07775
581.16751 0.07976
579.88174 0.08183
578.59597 0.08395
577.31020 0.08615
576.02443 0.08840
574.73867 0.09069
573.45290 0.09304
572.16713 0.09556
570.88136 0.09838
569.59559 0.10146
568.30982 0.10462
567.02405 0.10766
565.73828 0.11043
564.45251 0.11281
563.16675 0.11460
561.88098 0.11555
560.59521 0.11552
559.30944 0.11444
558.02367 0.11235
556.73790 0.10941
555.45213 0.10582
554.16636 0.10181
552.88060 0.09754
551.59483 0.09315
550.30906 0.08877
549.02329 0.08454
547.73752 0.08061
546.45175 0.07715
545.16598 0.07422
543.88021 0.07178
542.59444 0.06967
541.30868 0.06771
540.02291 0.06576
538.73714 0.06378
537.45137 0.06180
536.16560 0.05990
534.87983 0.05817
533.59406 0.05662
532.30829 0.05525
531.02253 0.05401
529.73676 0.05280
528.45099 0.05156
527.16522 0.05031
525.87945 0.04912
524.59368 0.04811
523.30791 0.04733
522.02214 0.04671
520.73637 0.04607
519.45061 0.04530
518.16484 0.04440
516.87907 0.04346
515.59330 0.04257
514.30753 0.04175
513.02176 0.04098
511.73599 0.04029
510.45022 0.03970
509.16446 0.03918
507.87869 0.03866
506.59292 0.03808
505.30715 0.03750
504.02138 0.03696
502.73561 0.03647
501.44984 0.03595
500.16407 0.03538
498.87830 0.03481
497.59254 0.03428
496.30677 0.03379
495.02100 0.03334
493.73523 0.03294
492.44946 0.03262
491.16369 0.03240
489.87792 0.03226
488.59215 0.03211
487.30639 0.03188
486.02062 0.03158
484.73485 0.03126
483.44908 0.03098
482.16331 0.03077
480.87754 0.03065
479.59177 0.03064
478.30600 0.03069
477.02023 0.03073
475.73447 0.03073
474.44870 0.03075
473.16293 0.03085
471.87716 0.03100
470.59139 0.03110
469.30562 0.03109
468.01985 0.03098
466.73408 0.03083
465.44832 0.03062
464.16255 0.03029
462.87678 0.02983
461.59101 0.02930
460.30524 0.02879
459.01947 0.02836
457.73370 0.02801
456.44793 0.02769
455.16216 0.02731
453.87640 0.02686
452.59063 0.02643
451.30486 0.02607
450.01909 0.02578
448.73332 0.02550
447.44755 0.02521
446.16178 0.02493
444.87601 0.02469
443.59025 0.02445
442.30448 0.02419
441.01871 0.02393
439.73294 0.02372
438.44717 0.02360
437.16140 0.02352
435.87563 0.02341
434.58986 0.02325
433.30409 0.02305
432.01833 0.02283
430.73256 0.02262
429.44679 0.02244
428.16102 0.02230
426.87525 0.02219
425.58948 0.02205
424.30371 0.02188
423.01794 0.02167
421.73218 0.02146
420.44641 0.02129
419.16064 0.02118
417.87487 0.02110
416.58910 0.02099
415.30333 0.02081
414.01756 0.02060
412.73179 0.02041
411.44602 0.02027
410.16026 0.02018
408.87449 0.02012
407.58872 0.02007
406.30295 0.02004
405.01718 0.02004
403.73141 0.02007
402.44564 0.02011
401.15987 0.02016
399.87411 0.02021
