3997.45528	0.05405
3996.16951	0.05396
3994.88374	0.05421
3993.59798	0.05492
3992.31221	0.05587
3991.02644	0.05650
3989.74067	0.05637
3988.45490	0.05565
3987.16913	0.05498
3985.88336	0.05487
3984.59759	0.05523
3983.31183	0.05561
3982.02606	0.05583
3980.74029	0.05603
3979.45452	0.05636
3978.16875	0.05671
3976.88298	0.05687
3975.59721	0.05666
3974.31144	0.05585
3973.02567	0.05426
3971.73991	0.05228
3970.45414	0.05081
3969.16837	0.05056
3967.88260	0.05139
3966.59683	0.05246
3965.31106	0.05310
3964.02529	0.05322
3962.73952	0.05322
3961.45376	0.05348
3960.16799	0.05403
3958.88222	0.05461
3957.59645	0.05489
3956.31068	0.05488
3955.02491	0.05494
3953.73914	0.05534
3952.45337	0.05586
3951.16760	0.05601
3949.88184	0.05559
3948.59607	0.05486
3947.31030	0.05415
3946.02453	0.05356
3944.73876	0.05317
3943.45299	0.05324
3942.16722	0.05384
3940.88145	0.05450
3939.59569	0.05454
3938.30992	0.05375
3937.02415	0.05241
3935.73838	0.05098
3934.45261	0.04993
3933.16684	0.04978
3931.88107	0.05087
3930.59530	0.05285
3929.30953	0.05473
3928.02377	0.05559
3926.73800	0.05527
3925.45223	0.05449
3924.16646	0.05411
3922.88069	0.05438
3921.59492	0.05475
3920.30915	0.05461
3919.02338	0.05390
3917.73762	0.05322
3916.45185	0.05311
3915.16608	0.05346
3913.88031	0.05371
3912.59454	0.05359
3911.30877	0.05333
3910.02300	0.05314
3908.73723	0.05301
3907.45146	0.05274
3906.16570	0.05218
3904.87993	0.05131
3903.59416	0.05029
3902.30839	0.04941
3901.02262	0.04909
3899.73685	0.04964
3898.45108	0.05089
3897.16531	0.05205
3895.87955	0.05233
3894.59378	0.05155
3893.30801	0.05029
3892.02224	0.04940
3890.73647	0.04955
3889.45070	0.05058
3888.16493	0.05168
3886.87916	0.05231
3885.59339	0.05257
3884.30763	0.05250
3883.02186	0.05196
3881.73609	0.05126
3880.45032	0.05116
3879.16455	0.05195
3877.87878	0.05299
3876.59301	0.05367
3875.30724	0.05420
3874.02148	0.05505
3872.73571	0.05599
3871.44994	0.05623
3870.16417	0.05561
3868.87840	0.05450
3867.59263	0.05302
3866.30686	0.05124
3865.02109	0.04961
3863.73532	0.04862
3862.44956	0.04828
3861.16379	0.04840
3859.87802	0.04888
3858.59225	0.04967
3857.30648	0.05046
3856.02071	0.05077
3854.73494	0.05047
3853.44917	0.04997
3852.16341	0.04955
3850.87764	0.04910
3849.59187	0.04871
3848.30610	0.04876
3847.02033	0.04932
3845.73456	0.05006
3844.44879	0.05050
3843.16302	0.05038
3841.87725	0.04962
3840.59149	0.04831
3839.30572	0.04698
3838.01995	0.04653
3836.73418	0.04742
3835.44841	0.04899
3834.16264	0.05023
3832.87687	0.05072
3831.59110	0.05058
3830.30534	0.04993
3829.01957	0.04889
3827.73380	0.04792
3826.44803	0.04769
3825.16226	0.04827
3823.87649	0.04898
3822.59072	0.04925
3821.30495	0.04935
3820.01918	0.04960
3818.73342	0.04974
3817.44765	0.04966
3816.16188	0.04999
3814.87611	0.05102
3813.59034	0.05205
3812.30457	0.05243
3811.01880	0.05233
3809.73303	0.05199
3808.44726	0.05137
3807.16150	0.05081
3805.87573	0.05073
3804.58996	0.05082
3803.30419	0.05045
3802.01842	0.04979
3800.73265	0.04949
3799.44688	0.04942
3798.16111	0.04903
3796.87535	0.04849
3795.58958	0.04839
3794.30381	0.04872
3793.01804	0.04896
3791.73227	0.04888
3790.44650	0.04861
3789.16073	0.04836
3787.87496	0.04813
3786.58919	0.04792
3785.30343	0.04780
3784.01766	0.04783
3782.73189	0.04791
3781.44612	0.04791
3780.16035	0.04795
3778.87458	0.04826
3777.58881	0.04884
3776.30304	0.04933
3775.01728	0.04941
3773.73151	0.04902
3772.44574	0.04838
3771.15997	0.04792
3769.87420	0.04807
3768.58843	0.04887
3767.30266	0.04986
3766.01689	0.05047
3764.73112	0.05033
3763.44536	0.04932
3762.15959	0.04780
3760.87382	0.04647
3759.58805	0.04573
3758.30228	0.04539
3757.01651	0.04525
3755.73074	0.04534
3754.44497	0.04555
3753.15921	0.04568
3751.87344	0.04572
3750.58767	0.04593
3749.30190	0.04665
3748.01613	0.04765
3746.73036	0.04781
3745.44459	0.04674
3744.15882	0.04559
3742.87305	0.04540
3741.58729	0.04583
3740.30152	0.04621
3739.01575	0.04621
3737.72998	0.04579
3736.44421	0.04532
3735.15844	0.04521
3733.87267	0.04542
3732.58690	0.04569
3731.30114	0.04597
3730.01537	0.04625
3728.72960	0.04634
3727.44383	0.04625
3726.15806	0.04618
3724.87229	0.04612
3723.58652	0.04592
3722.30075	0.04561
3721.01498	0.04537
3719.72922	0.04535
3718.44345	0.04557
3717.15768	0.04589
3715.87191	0.04604
3714.58614	0.04574
3713.30037	0.04516
3712.01460	0.04482
3710.72883	0.04504
3709.44307	0.04562
3708.15730	0.04610
3706.87153	0.04611
3705.58576	0.04553
3704.29999	0.04456
3703.01422	0.04358
3701.72845	0.04290
3700.44268	0.04256
3699.15691	0.04236
3697.87115	0.04223
3696.58538	0.04239
3695.29961	0.04314
3694.01384	0.04444
3692.72807	0.04583
3691.44230	0.04690
3690.15653	0.04751
3688.87076	0.04776
3687.58500	0.04773
3686.29923	0.04717
3685.01346	0.04572
3683.72769	0.04373
3682.44192	0.04201
3681.15615	0.04108
3679.87038	0.04108
3678.58461	0.04175
3677.29884	0.04264
3676.01308	0.04375
3674.72731	0.04520
3673.44154	0.04648
3672.15577	0.04690
3670.87000	0.04668
3669.58423	0.04656
3668.29846	0.04664
3667.01269	0.04654
3665.72693	0.04615
3664.44116	0.04545
3663.15539	0.04447
3661.86962	0.04351
3660.58385	0.04306
3659.29808	0.04323
3658.01231	0.04372
3656.72654	0.04432
3655.44077	0.04511
3654.15501	0.04593
3652.86924	0.04636
3651.58347	0.04638
3650.29770	0.04654
3649.01193	0.04711
3647.72616	0.04770
3646.44039	0.04778
3645.15462	0.04750
3643.86886	0.04747
3642.58309	0.04808
3641.29732	0.04899
3640.01155	0.04952
3638.72578	0.04930
3637.44001	0.04852
3636.15424	0.04775
3634.86847	0.04746
3633.58270	0.04774
3632.29694	0.04806
3631.01117	0.04782
3629.72540	0.04725
3628.43963	0.04717
3627.15386	0.04769
3625.86809	0.04814
3624.58232	0.04805
3623.29655	0.04771
3622.01079	0.04761
3620.72502	0.04807
3619.43925	0.04913
3618.15348	0.05038
3616.86771	0.05123
3615.58194	0.05137
3614.29617	0.05105
3613.01040	0.05078
3611.72463	0.05083
3610.43887	0.05105
3609.15310	0.05122
3607.86733	0.05114
3606.58156	0.05066
3605.29579	0.04985
3604.01002	0.04919
3602.72425	0.04920
3601.43848	0.04991
3600.15272	0.05081
3598.86695	0.05124
3597.58118	0.05092
3596.29541	0.05031
3595.00964	0.05026
3593.72387	0.05131
3592.43810	0.05311
3591.15233	0.05467
3589.86656	0.05523
3588.58080	0.05469
3587.29503	0.05347
3586.00926	0.05216
3584.72349	0.05135
3583.43772	0.05126
3582.15195	0.05175
3580.86618	0.05248
3579.58041	0.05318
3578.29464	0.05373
3577.00888	0.05418
3575.72311	0.05460
3574.43734	0.05510
3573.15157	0.05566
3571.86580	0.05611
3570.58003	0.05627
3569.29426	0.05618
3568.00849	0.05618
3566.72273	0.05659
3565.43696	0.05729
3564.15119	0.05776
3562.86542	0.05770
3561.57965	0.05733
3560.29388	0.05712
3559.00811	0.05727
3557.72234	0.05764
3556.43657	0.05800
3555.15081	0.05825
3553.86504	0.05828
3552.57927	0.05803
3551.29350	0.05763
3550.00773	0.05746
3548.72196	0.05775
3547.43619	0.05844
3546.15042	0.05932
3544.86466	0.06029
3543.57889	0.06136
3542.29312	0.06236
3541.00735	0.06295
3539.72158	0.06291
3538.43581	0.06235
3537.15004	0.06168
3535.86427	0.06129
3534.57850	0.06131
3533.29274	0.06155
3532.00697	0.06165
3530.72120	0.06144
3529.43543	0.06109
3528.14966	0.06105
3526.86389	0.06157
3525.57812	0.06243
3524.29235	0.06322
3523.00659	0.06373
3521.72082	0.06408
3520.43505	0.06447
3519.14928	0.06495
3517.86351	0.06545
3516.57774	0.06586
3515.29197	0.06608
3514.00620	0.06608
3512.72043	0.06591
3511.43467	0.06568
3510.14890	0.06545
3508.86313	0.06509
3507.57736	0.06446
3506.29159	0.06358
3505.00582	0.06279
3503.72005	0.06254
3502.43428	0.06305
3501.14852	0.06404
3499.86275	0.06497
3498.57698	0.06547
3497.29121	0.06559
3496.00544	0.06565
3494.71967	0.06580
3493.43390	0.06598
3492.14813	0.06618
3490.86236	0.06662
3489.57660	0.06755
3488.29083	0.06877
3487.00506	0.06976
3485.71929	0.07011
3484.43352	0.06976
3483.14775	0.06890
3481.86198	0.06777
3480.57621	0.06662
3479.29045	0.06586
3478.00468	0.06585
3476.71891	0.06669
3475.43314	0.06808
3474.14737	0.06943
3472.86160	0.07017
3471.57583	0.07014
3470.29006	0.06968
3469.00429	0.06928
3467.71853	0.06917
3466.43276	0.06929
3465.14699	0.06955
3463.86122	0.06993
3462.57545	0.07036
3461.28968	0.07073
3460.00391	0.07100
3458.71814	0.07125
3457.43238	0.07144
3456.14661	0.07147
3454.86084	0.07130
3453.57507	0.07116
3452.28930	0.07128
3451.00353	0.07168
3449.71776	0.07214
3448.43199	0.07246
3447.14622	0.07253
3445.86046	0.07239
3444.57469	0.07214
3443.28892	0.07199
3442.00315	0.07208
3440.71738	0.07235
3439.43161	0.07262
3438.14584	0.07272
3436.86007	0.07265
3435.57431	0.07262
3434.28854	0.07284
3433.00277	0.07339
3431.71700	0.07403
3430.43123	0.07449
3429.14546	0.07464
3427.85969	0.07452
3426.57392	0.07420
3425.28815	0.07368
3424.00239	0.07301
3422.71662	0.07241
3421.43085	0.07213
3420.14508	0.07229
3418.85931	0.07274
3417.57354	0.07309
3416.28777	0.07310
3415.00200	0.07285
3413.71624	0.07263
3412.43047	0.07268
3411.14470	0.07306
3409.85893	0.07368
3408.57316	0.07444
3407.28739	0.07521
3406.00162	0.07587
3404.71585	0.07633
3403.43008	0.07655
3402.14432	0.07659
3400.85855	0.07652
3399.57278	0.07638
3398.28701	0.07617
3397.00124	0.07590
3395.71547	0.07565
3394.42970	0.07551
3393.14393	0.07553
3391.85817	0.07569
3390.57240	0.07599
3389.28663	0.07637
3388.00086	0.07670
3386.71509	0.07683
3385.42932	0.07681
3384.14355	0.07693
3382.85778	0.07734
3381.57201	0.07776
3380.28625	0.07775
3379.00048	0.07722
3377.71471	0.07650
3376.42894	0.07600
3375.14317	0.07583
3373.85740	0.07586
3372.57163	0.07590
3371.28586	0.07592
3370.00010	0.07607
3368.71433	0.07648
3367.42856	0.07717
3366.14279	0.07799
3364.85702	0.07869
3363.57125	0.07905
3362.28548	0.07899
3360.99971	0.07867
3359.71394	0.07838
3358.42818	0.07837
3357.14241	0.07858
3355.85664	0.07878
3354.57087	0.07876
3353.28510	0.07857
3351.99933	0.07842
3350.71356	0.07844
3349.42779	0.07861
3348.14202	0.07876
3346.85626	0.07871
3345.57049	0.07837
3344.28472	0.07781
3342.99895	0.07730
3341.71318	0.07719
3340.42741	0.07760
3339.14164	0.07828
3337.85587	0.07884
3336.57011	0.07900
3335.28434	0.07879
3333.99857	0.07843
3332.71280	0.07810
3331.42703	0.07780
3330.14126	0.07740
3328.85549	0.07694
3327.56972	0.07667
3326.28395	0.07683
3324.99819	0.07734
3323.71242	0.07783
3322.42665	0.07798
3321.14088	0.07777
3319.85511	0.07740
3318.56934	0.07712
3317.28357	0.07705
3315.99780	0.07722
3314.71204	0.07759
3313.42627	0.07802
3312.14050	0.07826
3310.85473	0.07813
3309.56896	0.07771
3308.28319	0.07728
3306.99742	0.07698
3305.71165	0.07682
3304.42588	0.07676
3303.14012	0.07678
3301.85435	0.07691
3300.56858	0.07713
3299.28281	0.07736
3297.99704	0.07749
3296.71127	0.07751
3295.42550	0.07747
3294.13973	0.07744
3292.85397	0.07741
3291.56820	0.07741
3290.28243	0.07754
3288.99666	0.07779
3287.71089	0.07793
3286.42512	0.07770
3285.13935	0.07713
3283.85358	0.07655
3282.56781	0.07627
3281.28205	0.07627
3279.99628	0.07626
3278.71051	0.07602
3277.42474	0.07560
3276.13897	0.07524
3274.85320	0.07505
3273.56743	0.07501
3272.28166	0.07510
3270.99590	0.07539
3269.71013	0.07591
3268.42436	0.07652
3267.13859	0.07696
3265.85282	0.07701
3264.56705	0.07662
3263.28128	0.07592
3261.99551	0.07517
3260.70974	0.07462
3259.42398	0.07444
3258.13821	0.07467
3256.85244	0.07524
3255.56667	0.07596
3254.28090	0.07655
3252.99513	0.07663
3251.70936	0.07607
3250.42359	0.07518
3249.13783	0.07460
3247.85206	0.07471
3246.56629	0.07535
3245.28052	0.07594
3243.99475	0.07600
3242.70898	0.07551
3241.42321	0.07487
3240.13744	0.07457
3238.85167	0.07472
3237.56591	0.07502
3236.28014	0.07508
3234.99437	0.07480
3233.70860	0.07442
3232.42283	0.07420
3231.13706	0.07409
3229.85129	0.07379
3228.56552	0.07317
3227.27976	0.07250
3225.99399	0.07220
3224.70822	0.07246
3223.42245	0.07311
3222.13668	0.07387
3220.85091	0.07448
3219.56514	0.07467
3218.27937	0.07428
3216.99360	0.07352
3215.70784	0.07291
3214.42207	0.07281
3213.13630	0.07304
3211.85053	0.07319
3210.56476	0.07300
3209.27899	0.07254
3207.99322	0.07194
3206.70745	0.07134
3205.42169	0.07088
3204.13592	0.07069
3202.85015	0.07078
3201.56438	0.07098
3200.27861	0.07102
3198.99284	0.07082
3197.70707	0.07051
3196.42130	0.07031
3195.13553	0.07031
3193.84977	0.07033
3192.56400	0.07023
3191.27823	0.07006
3189.99246	0.06998
3188.70669	0.07011
3187.42092	0.07038
3186.13515	0.07070
3184.84938	0.07101
3183.56362	0.07122
3182.27785	0.07115
3180.99208	0.07071
3179.70631	0.07009
3178.42054	0.06954
3177.13477	0.06915
3175.84900	0.06874
3174.56323	0.06824
3173.27746	0.06781
3171.99170	0.06766
3170.70593	0.06777
3169.42016	0.06791
3168.13439	0.06797
3166.84862	0.06796
3165.56285	0.06795
3164.27708	0.06796
3162.99131	0.06796
3161.70555	0.06795
3160.41978	0.06797
3159.13401	0.06808
3157.84824	0.06837
3156.56247	0.06877
3155.27670	0.06911
3153.99093	0.06918
3152.70516	0.06886
3151.41939	0.06827
3150.13363	0.06766
3148.84786	0.06726
3147.56209	0.06713
3146.27632	0.06712
3144.99055	0.06698
3143.70478	0.06655
3142.41901	0.06582
3141.13324	0.06501
3139.84748	0.06445
3138.56171	0.06431
3137.27594	0.06445
3135.99017	0.06457
3134.70440	0.06456
3133.41863	0.06463
3132.13286	0.06501
3130.84709	0.06565
3129.56132	0.06630
3128.27556	0.06668
3126.98979	0.06664
3125.70402	0.06623
3124.41825	0.06566
3123.13248	0.06519
3121.84671	0.06497
3120.56094	0.06491
3119.27517	0.06481
3117.98940	0.06453
3116.70364	0.06408
3115.41787	0.06366
3114.13210	0.06354
3112.84633	0.06384
3111.56056	0.06438
3110.27479	0.06484
3108.98902	0.06491
3107.70325	0.06450
3106.41749	0.06375
3105.13172	0.06302
3103.84595	0.06265
3102.56018	0.06266
3101.27441	0.06278
3099.98864	0.06275
3098.70287	0.06252
3097.41710	0.06219
3096.13133	0.06189
3094.84557	0.06164
3093.55980	0.06144
3092.27403	0.06136
3090.98826	0.06150
3089.70249	0.06184
3088.41672	0.06219
3087.13095	0.06234
3085.84518	0.06227
3084.55942	0.06214
3083.27365	0.06214
3081.98788	0.06236
3080.70211	0.06272
3079.41634	0.06303
3078.13057	0.06303
3076.84480	0.06270
3075.55903	0.06232
3074.27326	0.06226
3072.98750	0.06257
3071.70173	0.06289
3070.41596	0.06284
3069.13019	0.06237
3067.84442	0.06181
3066.55865	0.06149
3065.27288	0.06142
3063.98711	0.06141
3062.70135	0.06130
3061.41558	0.06113
3060.12981	0.06100
3058.84404	0.06089
3057.55827	0.06075
3056.27250	0.06061
3054.98673	0.06051
3053.70096	0.06037
3052.41519	0.06007
3051.12943	0.05973
3049.84366	0.05962
3048.55789	0.05993
3047.27212	0.06049
3045.98635	0.06097
3044.70058	0.06122
3043.41481	0.06128
3042.12904	0.06124
3040.84328	0.06105
3039.55751	0.06072
3038.27174	0.06034
3036.98597	0.06008
3035.70020	0.05993
3034.41443	0.05975
3033.12866	0.05939
3031.84289	0.05893
3030.55712	0.05864
3029.27136	0.05871
3027.98559	0.05899
3026.69982	0.05914
3025.41405	0.05891
3024.12828	0.05840
3022.84251	0.05793
3021.55674	0.05772
3020.27097	0.05771
3018.98521	0.05772
3017.69944	0.05763
3016.41367	0.05735
3015.12790	0.05691
3013.84213	0.05641
3012.55636	0.05605
3011.27059	0.05598
3009.98482	0.05614
3008.69905	0.05641
3007.41329	0.05660
3006.12752	0.05662
3004.84175	0.05642
3003.55598	0.05607
3002.27021	0.05568
3000.98444	0.05538
2999.69867	0.05524
2998.41290	0.05530
2997.12714	0.05556
2995.84137	0.05593
2994.55560	0.05625
2993.26983	0.05638
2991.98406	0.05630
2990.69829	0.05618
2989.41252	0.05618
2988.12675	0.05632
2986.84098	0.05646
2985.55522	0.05656
2984.26945	0.05677
2982.98368	0.05715
2981.69791	0.05759
2980.41214	0.05796
2979.12637	0.05820
2977.84060	0.05830
2976.55483	0.05824
2975.26907	0.05810
2973.98330	0.05804
2972.69753	0.05827
2971.41176	0.05888
2970.12599	0.05970
2968.84022	0.06043
2967.55445	0.06084
2966.26868	0.06105
2964.98291	0.06137
2963.69715	0.06195
2962.41138	0.06271
2961.12561	0.06349
2959.83984	0.06423
2958.55407	0.06493
2957.26830	0.06554
2955.98253	0.06593
2954.69676	0.06595
2953.41100	0.06556
2952.12523	0.06494
2950.83946	0.06440
2949.55369	0.06418
2948.26792	0.06436
2946.98215	0.06484
2945.69638	0.06551
2944.41061	0.06620
2943.12484	0.06675
2941.83908	0.06696
2940.55331	0.06677
2939.26754	0.06638
2937.98177	0.06622
2936.69600	0.06652
2935.41023	0.06711
2934.12446	0.06757
2932.83869	0.06766
2931.55293	0.06754
2930.26716	0.06762
2928.98139	0.06814
2927.69562	0.06894
2926.40985	0.06965
2925.12408	0.06999
2923.83831	0.06993
2922.55254	0.06959
2921.26677	0.06910
2919.98101	0.06860
2918.69524	0.06821
2917.40947	0.06795
2916.12370	0.06783
2914.83793	0.06782
2913.55216	0.06785
2912.26639	0.06780
2910.98062	0.06752
2909.69486	0.06697
2908.40909	0.06626
2907.12332	0.06554
2905.83755	0.06490
2904.55178	0.06432
2903.26601	0.06380
2901.98024	0.06335
2900.69447	0.06304
2899.40870	0.06291
2898.12294	0.06290
2896.83717	0.06281
2895.55140	0.06250
2894.26563	0.06195
2892.97986	0.06130
2891.69409	0.06068
2890.40832	0.06015
2889.12255	0.05975
2887.83678	0.05951
2886.55102	0.05947
2885.26525	0.05958
2883.97948	0.05970
2882.69371	0.05969
2881.40794	0.05955
2880.12217	0.05939
2878.83640	0.05929
2877.55063	0.05924
2876.26487	0.05925
2874.97910	0.05936
2873.69333	0.05956
2872.40756	0.05973
2871.12179	0.05976
2869.83602	0.05967
2868.55025	0.05952
2867.26448	0.05936
2865.97871	0.05925
2864.69295	0.05926
2863.40718	0.05937
2862.12141	0.05944
2860.83564	0.05937
2859.54987	0.05925
2858.26410	0.05918
2856.97833	0.05907
2855.69256	0.05879
2854.40680	0.05838
2853.12103	0.05803
2851.83526	0.05787
2850.54949	0.05785
2849.26372	0.05776
2847.97795	0.05748
2846.69218	0.05703
2845.40641	0.05661
2844.12064	0.05639
2842.83488	0.05626
2841.54911	0.05593
2840.26334	0.05521
2838.97757	0.05431
2837.69180	0.05361
2836.40603	0.05331
2835.12026	0.05322
2833.83449	0.05299
2832.54873	0.05248
2831.26296	0.05186
2829.97719	0.05142
2828.69142	0.05129
2827.40565	0.05134
2826.11988	0.05134
2824.83411	0.05118
2823.54834	0.05081
2822.26257	0.05030
2820.97681	0.04978
2819.69104	0.04941
2818.40527	0.04925
2817.11950	0.04920
2815.83373	0.04916
2814.54796	0.04911
2813.26219	0.04912
2811.97642	0.04918
2810.69066	0.04922
2809.40489	0.04916
2808.11912	0.04900
2806.83335	0.04880
2805.54758	0.04863
2804.26181	0.04845
2802.97604	0.04820
2801.69027	0.04788
2800.40450	0.04754
2799.11874	0.04726
2797.83297	0.04705
2796.54720	0.04691
2795.26143	0.04683
2793.97566	0.04679
2792.68989	0.04679
2791.40412	0.04675
2790.11835	0.04658
2788.83259	0.04630
2787.54682	0.04605
2786.26105	0.04600
2784.97528	0.04618
2783.68951	0.04646
2782.40374	0.04665
2781.11797	0.04675
2779.83220	0.04682
2778.54643	0.04684
2777.26067	0.04673
2775.97490	0.04645
2774.68913	0.04608
2773.40336	0.04581
2772.11759	0.04577
2770.83182	0.04593
2769.54605	0.04609
2768.26028	0.04604
2766.97452	0.04581
2765.68875	0.04561
2764.40298	0.04559
2763.11721	0.04569
2761.83144	0.04573
2760.54567	0.04563
2759.25990	0.04544
2757.97413	0.04526
2756.68836	0.04514
2755.40260	0.04509
2754.11683	0.04510
2752.83106	0.04514
2751.54529	0.04518
2750.25952	0.04527
2748.97375	0.04540
2747.68798	0.04547
2746.40221	0.04537
2745.11645	0.04508
2743.83068	0.04477
2742.54491	0.04465
2741.25914	0.04476
2739.97337	0.04495
2738.68760	0.04501
2737.40183	0.04489
2736.11606	0.04470
2734.83029	0.04456
2733.54453	0.04445
2732.25876	0.04425
2730.97299	0.04398
2729.68722	0.04385
2728.40145	0.04396
2727.11568	0.04413
2725.82991	0.04405
2724.54414	0.04366
2723.25838	0.04320
2721.97261	0.04296
2720.68684	0.04299
2719.40107	0.04309
2718.11530	0.04305
2716.82953	0.04281
2715.54376	0.04247
2714.25799	0.04220
2712.97222	0.04210
2711.68646	0.04218
2710.40069	0.04238
2709.11492	0.04260
2707.82915	0.04274
2706.54338	0.04272
2705.25761	0.04260
2703.97184	0.04249
2702.68607	0.04244
2701.40031	0.04241
2700.11454	0.04231
2698.82877	0.04213
2697.54300	0.04192
2696.25723	0.04179
2694.97146	0.04178
2693.68569	0.04189
2692.39992	0.04206
2691.11415	0.04218
2689.82839	0.04214
2688.54262	0.04191
2687.25685	0.04158
2685.97108	0.04127
2684.68531	0.04110
2683.39954	0.04112
2682.11377	0.04130
2680.82800	0.04152
2679.54224	0.04165
2678.25647	0.04166
2676.97070	0.04162
2675.68493	0.04153
2674.39916	0.04133
2673.11339	0.04106
2671.82762	0.04090
2670.54185	0.04103
2669.25608	0.04134
2667.97032	0.04156
2666.68455	0.04156
2665.39878	0.04146
2664.11301	0.04143
2662.82724	0.04143
2661.54147	0.04136
2660.25570	0.04122
2658.96993	0.04106
2657.68417	0.04090
2656.39840	0.04067
2655.11263	0.04035
2653.82686	0.04000
2652.54109	0.03973
2651.25532	0.03960
2649.96955	0.03960
2648.68378	0.03967
2647.39801	0.03969
2646.11225	0.03965
2644.82648	0.03958
2643.54071	0.03953
2642.25494	0.03949
2640.96917	0.03942
2639.68340	0.03926
2638.39763	0.03897
2637.11186	0.03857
2635.82609	0.03825
2634.54033	0.03815
2633.25456	0.03822
2631.96879	0.03823
2630.68302	0.03806
2629.39725	0.03778
2628.11148	0.03755
2626.82571	0.03738
2625.53994	0.03723
2624.25418	0.03711
2622.96841	0.03708
2621.68264	0.03704
2620.39687	0.03688
2619.11110	0.03657
2617.82533	0.03624
2616.53956	0.03607
2615.25379	0.03604
2613.96802	0.03601
2612.68226	0.03587
2611.39649	0.03566
2610.11072	0.03548
2608.82495	0.03530
2607.53918	0.03499
2606.25341	0.03452
2604.96764	0.03401
2603.68187	0.03362
2602.39611	0.03347
2601.11034	0.03362
2599.82457	0.03400
2598.53880	0.03447
2597.25303	0.03485
2595.96726	0.03495
2594.68149	0.03475
2593.39572	0.03437
2592.10995	0.03400
2590.82419	0.03374
2589.53842	0.03369
2588.25265	0.03390
2586.96688	0.03427
2585.68111	0.03454
2584.39534	0.03450
2583.10957	0.03432
2581.82380	0.03432
2580.53804	0.03453
2579.25227	0.03463
2577.96650	0.03439
2576.68073	0.03393
2575.39496	0.03352
2574.10919	0.03329
2572.82342	0.03308
2571.53765	0.03267
2570.25188	0.03208
2568.96612	0.03162
2567.68035	0.03160
2566.39458	0.03209
2565.10881	0.03284
2563.82304	0.03346
2562.53727	0.03368
2561.25150	0.03342
2559.96573	0.03289
2558.67997	0.03236
2557.39420	0.03205
2556.10843	0.03200
2554.82266	0.03217
2553.53689	0.03247
2552.25112	0.03277
2550.96535	0.03294
2549.67958	0.03290
2548.39381	0.03271
2547.10805	0.03251
2545.82228	0.03234
2544.53651	0.03209
2543.25074	0.03178
2541.96497	0.03160
2540.67920	0.03169
2539.39343	0.03197
2538.10766	0.03228
2536.82190	0.03254
2535.53613	0.03269
2534.25036	0.03262
2532.96459	0.03226
2531.67882	0.03182
2530.39305	0.03161
2529.10728	0.03170
2527.82151	0.03185
2526.53574	0.03179
2525.24998	0.03151
2523.96421	0.03115
2522.67844	0.03088
2521.39267	0.03085
2520.10690	0.03117
2518.82113	0.03177
2517.53536	0.03229
2516.24959	0.03234
2514.96383	0.03187
2513.67806	0.03119
2512.39229	0.03058
2511.10652	0.03017
2509.82075	0.02996
2508.53498	0.02999
2507.24921	0.03021
2505.96344	0.03052
2504.67767	0.03078
2503.39191	0.03097
2502.10614	0.03106
2500.82037	0.03097
2499.53460	0.03070
2498.24883	0.03036
2496.96306	0.03013
2495.67729	0.03011
2494.39152	0.03017
2493.10576	0.03009
2491.81999	0.02993
2490.53422	0.02997
2489.24845	0.03036
2487.96268	0.03092
2486.67691	0.03133
2485.39114	0.03142
2484.10537	0.03126
2482.81960	0.03104
2481.53384	0.03091
2480.24807	0.03081
2478.96230	0.03053
2477.67653	0.03004
2476.39076	0.02961
2475.10499	0.02962
2473.81922	0.03014
2472.53345	0.03087
2471.24769	0.03131
2469.96192	0.03120
2468.67615	0.03064
2467.39038	0.03000
2466.10461	0.02962
2464.81884	0.02954
2463.53307	0.02968
2462.24730	0.02997
2460.96153	0.03036
2459.67577	0.03073
2458.39000	0.03093
2457.10423	0.03092
2455.81846	0.03079
2454.53269	0.03055
2453.24692	0.03008
2451.96115	0.02937
2450.67538	0.02870
2449.38962	0.02847
2448.10385	0.02873
2446.81808	0.02915
2445.53231	0.02943
2444.24654	0.02951
2442.96077	0.02944
2441.67500	0.02928
2440.38923	0.02908
2439.10346	0.02893
2437.81770	0.02884
2436.53193	0.02884
2435.24616	0.02896
2433.96039	0.02919
2432.67462	0.02939
2431.38885	0.02943
2430.10308	0.02934
2428.81731	0.02921
2427.53155	0.02912
2426.24578	0.02908
2424.96001	0.02912
2423.67424	0.02935
2422.38847	0.02967
2421.10270	0.02989
2419.81693	0.02982
2418.53116	0.02952
2417.24539	0.02922
2415.95963	0.02906
2414.67386	0.02901
2413.38809	0.02896
2412.10232	0.02884
2410.81655	0.02864
2409.53078	0.02840
2408.24501	0.02815
2406.95924	0.02790
2405.67347	0.02773
2404.38771	0.02776
2403.10194	0.02807
2401.81617	0.02856
2400.53040	0.02903
2399.24463	0.02937
2397.95886	0.02947
2396.67309	0.02932
2395.38732	0.02895
2394.10156	0.02845
2392.81579	0.02796
2391.53002	0.02760
2390.24425	0.02746
2388.95848	0.02756
2387.67271	0.02788
2386.38694	0.02834
2385.10117	0.02883
2383.81540	0.02923
2382.52964	0.02939
2381.24387	0.02923
2379.95810	0.02876
2378.67233	0.02814
2377.38656	0.02757
2376.10079	0.02715
2374.81502	0.02692
2373.52925	0.02672
2372.24349	0.02658
2370.95772	0.02648
2369.67195	0.02668
2368.38618	0.02700
2367.10041	0.02715
2365.81464	0.02696
2364.52887	0.02687
2363.24310	0.02690
2361.95733	0.02694
2360.67157	0.02676
2359.38580	0.02678
2358.10003	0.02692
2356.81426	0.02716
2355.52849	0.02754
2354.24272	0.02801
2352.95695	0.02860
2351.67118	0.02895
2350.38542	0.02882
2349.09965	0.02857
2347.81388	0.02853
2346.52811	0.02823
2345.24234	0.02778
2343.95657	0.02770
2342.67080	0.02817
2341.38503	0.02821
2340.09926	0.02748
2338.81350	0.02705
2337.52773	0.02721
2336.24196	0.02694
2334.95619	0.02643
2333.67042	0.02686
2332.38465	0.02799
2331.09888	0.02785
2329.81311	0.02746
2328.52735	0.02847
2327.24158	0.02853
2325.95581	0.02806
2324.67004	0.02882
2323.38427	0.02895
2322.09850	0.02821
2320.81273	0.02866
2319.52696	0.02872
2318.24119	0.02852
2316.95543	0.02906
2315.66966	0.02889
2314.38389	0.02831
2313.09812	0.02812
2311.81235	0.02767
2310.52658	0.02762
2309.24081	0.02765
2307.95504	0.02743
2306.66928	0.02745
2305.38351	0.02733
2304.09774	0.02722
2302.81197	0.02716
2301.52620	0.02706
2300.24043	0.02721
2298.95466	0.02742
2297.66889	0.02764
2296.38312	0.02774
2295.09736	0.02764
2293.81159	0.02744
2292.52582	0.02716
2291.24005	0.02691
2289.95428	0.02672
2288.66851	0.02656
2287.38274	0.02639
2286.09697	0.02615
2284.81121	0.02583
2283.52544	0.02545
2282.23967	0.02513
2280.95390	0.02496
2279.66813	0.02496
2278.38236	0.02493
2277.09659	0.02464
2275.81082	0.02399
2274.52505	0.02315
2273.23929	0.02241
2271.95352	0.02198
2270.66775	0.02193
2269.38198	0.02216
2268.09621	0.02251
2266.81044	0.02278
2265.52467	0.02291
2264.23890	0.02293
2262.95314	0.02282
2261.66737	0.02252
2260.38160	0.02214
2259.09583	0.02189
2257.81006	0.02190
2256.52429	0.02218
2255.23852	0.02256
2253.95275	0.02283
2252.66698	0.02284
2251.38122	0.02263
2250.09545	0.02232
2248.80968	0.02204
2247.52391	0.02170
2246.23814	0.02126
2244.95237	0.02076
2243.66660	0.02045
2242.38083	0.02059
2241.09507	0.02107
2239.80930	0.02144
2238.52353	0.02130
2237.23776	0.02074
2235.95199	0.02020
2234.66622	0.01998
2233.38045	0.02009
2232.09468	0.02046
2230.80891	0.02103
2229.52315	0.02152
2228.23738	0.02148
2226.95161	0.02076
2225.66584	0.01978
2224.38007	0.01918
2223.09430	0.01911
2221.80853	0.01921
2220.52276	0.01910
2219.23700	0.01875
2217.95123	0.01829
2216.66546	0.01779
2215.37969	0.01732
2214.09392	0.01708
2212.80815	0.01714
2211.52238	0.01727
2210.23661	0.01702
2208.95084	0.01632
2207.66508	0.01564
2206.37931	0.01557
2205.09354	0.01605
2203.80777	0.01636
2202.52200	0.01617
2201.23623	0.01588
2199.95046	0.01596
2198.66469	0.01627
2197.37893	0.01632
2196.09316	0.01587
2194.80739	0.01502
2193.52162	0.01403
2192.23585	0.01343
2190.95008	0.01372
2189.66431	0.01481
2188.37854	0.01592
2187.09277	0.01632
2185.80701	0.01589
2184.52124	0.01499
2183.23547	0.01401
2181.94970	0.01320
2180.66393	0.01267
2179.37816	0.01239
2178.09239	0.01224
2176.80662	0.01212
2175.52085	0.01214
2174.23509	0.01251
2172.94932	0.01332
2171.66355	0.01424
2170.37778	0.01470
2169.09201	0.01430
2167.80624	0.01330
2166.52047	0.01258
2165.23470	0.01291
2163.94894	0.01403
2162.66317	0.01463
2161.37740	0.01349
2160.09163	0.01078
2158.80586	0.00804
2157.52009	0.00677
2156.23432	0.00710
2154.94855	0.00825
2153.66278	0.00961
2152.37702	0.01113
2151.09125	0.01273
2149.80548	0.01380
2148.51971	0.01372
2147.23394	0.01274
2145.94817	0.01178
2144.66240	0.01153
2143.37663	0.01200
2142.09087	0.01292
2140.80510	0.01402
2139.51933	0.01495
2138.23356	0.01542
2136.94779	0.01539
2135.66202	0.01502
2134.37625	0.01456
2133.09048	0.01429
2131.80471	0.01449
2130.51895	0.01506
2129.23318	0.01557
2127.94741	0.01574
2126.66164	0.01577
2125.37587	0.01595
2124.09010	0.01629
2122.80433	0.01658
2121.51856	0.01678
2120.23280	0.01707
2118.94703	0.01755
2117.66126	0.01816
2116.37549	0.01879
2115.08972	0.01932
2113.80395	0.01961
2112.51818	0.01954
2111.23241	0.01912
2109.94664	0.01846
2108.66088	0.01767
2107.37511	0.01683
2106.08934	0.01610
2104.80357	0.01565
2103.51780	0.01543
2102.23203	0.01530
2100.94626	0.01519
2099.66049	0.01524
2098.37473	0.01525
2097.08896	0.01522
2095.80319	0.01524
2094.51742	0.01531
2093.23165	0.01535
2091.94588	0.01518
2090.66011	0.01472
2089.37434	0.01413
2088.08857	0.01374
2086.80281	0.01380
2085.51704	0.01419
2084.23127	0.01457
2082.94550	0.01468
2081.65973	0.01455
2080.37396	0.01445
2079.08819	0.01450
2077.80242	0.01456
2076.51666	0.01435
2075.23089	0.01377
2073.94512	0.01309
2072.65935	0.01279
2071.37358	0.01318
2070.08781	0.01410
2068.80204	0.01498
2067.51627	0.01520
2066.23050	0.01453
2064.94474	0.01336
2063.65897	0.01232
2062.37320	0.01181
2061.08743	0.01186
2059.80166	0.01224
2058.51589	0.01268
2057.23012	0.01289
2055.94435	0.01271
2054.65859	0.01217
2053.37282	0.01150
2052.08705	0.01096
2050.80128	0.01071
2049.51551	0.01070
2048.22974	0.01071
2046.94397	0.01049
2045.65820	0.00996
2044.37243	0.00932
2043.08667	0.00896
2041.80090	0.00933
2040.51513	0.01053
2039.22936	0.01215
2037.94359	0.01337
2036.65782	0.01343
2035.37205	0.01222
2034.08628	0.01027
2032.80052	0.00848
2031.51475	0.00739
2030.22898	0.00693
2028.94321	0.00669
2027.65744	0.00641
2026.37167	0.00622
2025.08590	0.00628
2023.80013	0.00653
2022.51436	0.00686
2021.22860	0.00726
2019.94283	0.00782
2018.65706	0.00855
2017.37129	0.00930
2016.08552	0.00976
2014.79975	0.00965
2013.51398	0.00898
2012.22821	0.00808
2010.94245	0.00738
2009.65668	0.00710
2008.37091	0.00719
2007.08514	0.00751
2005.79937	0.00791
2004.51360	0.00828
2003.22783	0.00868
2001.94206	0.00929
2000.65629	0.01011
1999.37053	0.01078
1998.08476	0.01087
1996.79899	0.01047
1995.51322	0.01021
1994.22745	0.01063
1992.94168	0.01161
1991.65591	0.01262
1990.37014	0.01327
1989.08438	0.01348
1987.79861	0.01322
1986.51284	0.01251
1985.22707	0.01157
1983.94130	0.01085
1982.65553	0.01061
1981.36976	0.01073
1980.08399	0.01091
1978.79822	0.01098
1977.51246	0.01091
1976.22669	0.01069
1974.94092	0.01041
1973.65515	0.01033
1972.36938	0.01074
1971.08361	0.01171
1969.79784	0.01285
1968.51207	0.01355
1967.22631	0.01352
1965.94054	0.01309
1964.65477	0.01283
1963.36900	0.01289
1962.08323	0.01305
1960.79746	0.01318
1959.51169	0.01341
1958.22592	0.01382
1956.94015	0.01418
1955.65439	0.01424
1954.36862	0.01405
1953.08285	0.01382
1951.79708	0.01371
1950.51131	0.01375
1949.22554	0.01400
1947.93977	0.01449
1946.65400	0.01507
1945.36823	0.01542
1944.08247	0.01533
1942.79670	0.01489
1941.51093	0.01435
1940.22516	0.01383
1938.93939	0.01338
1937.65362	0.01306
1936.36785	0.01309
1935.08208	0.01358
1933.79632	0.01439
1932.51055	0.01515
1931.22478	0.01555
1929.93901	0.01561
1928.65324	0.01558
1927.36747	0.01565
1926.08170	0.01583
1924.79593	0.01606
1923.51016	0.01631
1922.22440	0.01658
1920.93863	0.01682
1919.65286	0.01692
1918.36709	0.01682
1917.08132	0.01651
1915.79555	0.01610
1914.50978	0.01578
1913.22401	0.01569
1911.93825	0.01582
1910.65248	0.01604
1909.36671	0.01622
1908.08094	0.01635
1906.79517	0.01648
1905.50940	0.01662
1904.22363	0.01671
1902.93786	0.01674
1901.65209	0.01675
1900.36633	0.01680
1899.08056	0.01687
1897.79479	0.01684
1896.50902	0.01660
1895.22325	0.01620
1893.93748	0.01582
1892.65171	0.01567
1891.36594	0.01577
1890.08018	0.01601
1888.79441	0.01625
1887.50864	0.01643
1886.22287	0.01654
1884.93710	0.01660
1883.65133	0.01661
1882.36556	0.01658
1881.07979	0.01654
1879.79402	0.01652
1878.50826	0.01656
1877.22249	0.01669
1875.93672	0.01696
1874.65095	0.01732
1873.36518	0.01763
1872.07941	0.01772
1870.79364	0.01753
1869.50787	0.01724
1868.22211	0.01707
1866.93634	0.01715
1865.65057	0.01736
1864.36480	0.01753
1863.07903	0.01748
1861.79326	0.01721
1860.50749	0.01688
1859.22172	0.01669
1857.93595	0.01676
1856.65019	0.01704
1855.36442	0.01739
1854.07865	0.01762
1852.79288	0.01764
1851.50711	0.01744
1850.22134	0.01713
1848.93557	0.01687
1847.64980	0.01672
1846.36404	0.01657
1845.07827	0.01637
1843.79250	0.01629
1842.50673	0.01653
1841.22096	0.01706
1839.93519	0.01760
1838.64942	0.01792
1837.36365	0.01794
1836.07788	0.01779
1834.79212	0.01764
1833.50635	0.01761
1832.22058	0.01765
1830.93481	0.01773
1829.64904	0.01782
1828.36327	0.01788
1827.07750	0.01778
1825.79173	0.01753
1824.50597	0.01729
1823.22020	0.01721
1821.93443	0.01732
1820.64866	0.01752
1819.36289	0.01767
1818.07712	0.01764
1816.79135	0.01746
1815.50558	0.01730
1814.21981	0.01728
1812.93405	0.01734
1811.64828	0.01739
1810.36251	0.01739
1809.07674	0.01737
1807.79097	0.01735
1806.50520	0.01732
1805.21943	0.01731
1803.93366	0.01733
1802.64790	0.01736
1801.36213	0.01740
1800.07636	0.01746
1798.79059	0.01753
1797.50482	0.01762
1796.21905	0.01767
1794.93328	0.01760
1793.64751	0.01744
1792.36174	0.01738
1791.07598	0.01751
1789.79021	0.01774
1788.50444	0.01791
1787.21867	0.01796
1785.93290	0.01791
1784.64713	0.01784
1783.36136	0.01781
1782.07559	0.01780
1780.78983	0.01781
1779.50406	0.01782
1778.21829	0.01780
1776.93252	0.01778
1775.64675	0.01778
1774.36098	0.01778
1773.07521	0.01781
1771.78944	0.01793
1770.50367	0.01806
1769.21791	0.01811
1767.93214	0.01813
1766.64637	0.01822
1765.36060	0.01828
1764.07483	0.01819
1762.78906	0.01803
1761.50329	0.01800
1760.21752	0.01810
1758.93176	0.01817
1757.64599	0.01816
1756.36022	0.01823
1755.07445	0.01842
1753.78868	0.01857
1752.50291	0.01856
1751.21714	0.01848
1749.93137	0.01844
1748.64560	0.01840
1747.35984	0.01832
1746.07407	0.01824
1744.78830	0.01821
1743.50253	0.01820
1742.21676	0.01817
1740.93099	0.01813
1739.64522	0.01822
1738.35945	0.01849
1737.07369	0.01872
1735.78792	0.01872
1734.50215	0.01868
1733.21638	0.01887
1731.93061	0.01919
1730.64484	0.01933
1729.35907	0.01926
1728.07330	0.01917
1726.78753	0.01916
1725.50177	0.01919
1724.21600	0.01927
1722.93023	0.01946
1721.64446	0.01977
1720.35869	0.02005
1719.07292	0.02019
1717.78715	0.02031
1716.50138	0.02054
1715.21561	0.02084
1713.92985	0.02113
1712.64408	0.02144
1711.35831	0.02183
1710.07254	0.02228
1708.78677	0.02271
1707.50100	0.02306
1706.21523	0.02344
1704.92946	0.02401
1703.64370	0.02471
1702.35793	0.02527
1701.07216	0.02575
1699.78639	0.02646
1698.50062	0.02726
1697.21485	0.02775
1695.92908	0.02803
1694.64331	0.02857
1693.35754	0.02935
1692.07178	0.03007
1690.78601	0.03074
1689.50024	0.03155
1688.21447	0.03245
1686.92870	0.03316
1685.64293	0.03364
1684.35716	0.03421
1683.07139	0.03504
1681.78563	0.03581
1680.49986	0.03636
1679.21409	0.03683
1677.92832	0.03735
1676.64255	0.03787
1675.35678	0.03848
1674.07101	0.03927
1672.78524	0.04008
1671.49947	0.04072
1670.21371	0.04124
1668.92794	0.04182
1667.64217	0.04253
1666.35640	0.04326
1665.07063	0.04392
1663.78486	0.04453
1662.49909	0.04516
1661.21332	0.04575
1659.92756	0.04623
1658.64179	0.04669
1657.35602	0.04726
1656.07025	0.04777
1654.78448	0.04799
1653.49871	0.04813
1652.21294	0.04860
1650.92717	0.04929
1649.64140	0.04966
1648.35564	0.04958
1647.06987	0.04943
1645.78410	0.04954
1644.49833	0.04983
1643.21256	0.05004
1641.92679	0.05006
1640.64102	0.05001
1639.35525	0.04996
1638.06949	0.04982
1636.78372	0.04951
1635.49795	0.04918
1634.21218	0.04894
1632.92641	0.04867
1631.64064	0.04824
1630.35487	0.04773
1629.06910	0.04727
1627.78333	0.04690
1626.49757	0.04657
1625.21180	0.04622
1623.92603	0.04588
1622.64026	0.04564
1621.35449	0.04551
1620.06872	0.04533
1618.78295	0.04493
1617.49718	0.04444
1616.21142	0.04413
1614.92565	0.04403
1613.63988	0.04392
1612.35411	0.04368
1611.06834	0.04346
1609.78257	0.04332
1608.49680	0.04324
1607.21103	0.04319
1605.92526	0.04318
1604.63950	0.04323
1603.35373	0.04335
1602.06796	0.04348
1600.78219	0.04356
1599.49642	0.04358
1598.21065	0.04357
1596.92488	0.04363
1595.63911	0.04380
1594.35335	0.04403
1593.06758	0.04426
1591.78181	0.04445
1590.49604	0.04462
1589.21027	0.04481
1587.92450	0.04502
1586.63873	0.04524
1585.35296	0.04551
1584.06719	0.04585
1582.78143	0.04629
1581.49566	0.04680
1580.20989	0.04732
1578.92412	0.04768
1577.63835	0.04783
1576.35258	0.04803
1575.06681	0.04855
1573.78104	0.04922
1572.49528	0.04969
1571.20951	0.04993
1569.92374	0.05018
1568.63797	0.05061
1567.35220	0.05110
1566.06643	0.05150
1564.78066	0.05190
1563.49489	0.05236
1562.20912	0.05270
1560.92336	0.05278
1559.63759	0.05281
1558.35182	0.05313
1557.06605	0.05362
1555.78028	0.05391
1554.49451	0.05398
1553.20874	0.05405
1551.92297	0.05416
1550.63721	0.05423
1549.35144	0.05427
1548.06567	0.05433
1546.77990	0.05436
1545.49413	0.05436
1544.20836	0.05435
1542.92259	0.05425
1541.63682	0.05394
1540.35105	0.05350
1539.06529	0.05322
1537.77952	0.05318
1536.49375	0.05313
1535.20798	0.05289
1533.92221	0.05265
1532.63644	0.05266
1531.35067	0.05287
1530.06490	0.05312
1528.77914	0.05335
1527.49337	0.05359
1526.20760	0.05393
1524.92183	0.05434
1523.63606	0.05475
1522.35029	0.05513
1521.06452	0.05564
1519.77875	0.05632
1518.49298	0.05698
1517.20722	0.05759
1515.92145	0.05827
1514.63568	0.05908
1513.34991	0.05995
1512.06414	0.06091
1510.77837	0.06198
1509.49260	0.06298
1508.20683	0.06378
1506.92107	0.06452
1505.63530	0.06551
1504.34953	0.06668
1503.06376	0.06776
1501.77799	0.06863
1500.49222	0.06941
1499.20645	0.07019
1497.92068	0.07094
1496.63491	0.07166
1495.34915	0.07237
1494.06338	0.07299
1492.77761	0.07344
1491.49184	0.07385
1490.20607	0.07445
1488.92030	0.07529
1487.63453	0.07625
1486.34876	0.07722
1485.06299	0.07814
1483.77723	0.07907
1482.49146	0.08007
1481.20569	0.08119
1479.91992	0.08240
1478.63415	0.08362
1477.34838	0.08483
1476.06261	0.08598
1474.77684	0.08699
1473.49108	0.08780
1472.20531	0.08849
1470.91954	0.08918
1469.63377	0.08981
1468.34800	0.09032
1467.06223	0.09069
1465.77646	0.09097
1464.49069	0.09130
1463.20492	0.09178
1461.91916	0.09238
1460.63339	0.09301
1459.34762	0.09357
1458.06185	0.09409
1456.77608	0.09471
1455.49031	0.09548
1454.20454	0.09618
1452.91877	0.09666
1451.63301	0.09702
1450.34724	0.09735
1449.06147	0.09762
1447.77570	0.09785
1446.48993	0.09807
1445.20416	0.09824
1443.91839	0.09832
1442.63262	0.09833
1441.34685	0.09828
1440.06109	0.09816
1438.77532	0.09792
1437.48955	0.09769
1436.20378	0.09771
1434.91801	0.09803
1433.63224	0.09855
1432.34647	0.09916
1431.06070	0.09993
1429.77494	0.10087
1428.48917	0.10194
1427.20340	0.10306
1425.91763	0.10425
1424.63186	0.10555
1423.34609	0.10696
1422.06032	0.10836
1420.77455	0.10961
1419.48878	0.11075
1418.20302	0.11185
1416.91725	0.11280
1415.63148	0.11346
1414.34571	0.11387
1413.05994	0.11415
1411.77417	0.11433
1410.48840	0.11440
1409.20263	0.11429
1407.91687	0.11400
1406.63110	0.11353
1405.34533	0.11287
1404.05956	0.11203
1402.77379	0.11098
1401.48802	0.10971
1400.20225	0.10825
1398.91648	0.10671
1397.63071	0.10508
1396.34495	0.10331
1395.05918	0.10141
1393.77341	0.09945
1392.48764	0.09746
1391.20187	0.09543
1389.91610	0.09337
1388.63033	0.09135
1387.34456	0.08948
1386.05880	0.08775
1384.77303	0.08605
1383.48726	0.08430
1382.20149	0.08248
1380.91572	0.08065
1379.62995	0.07880
1378.34418	0.07692
1377.05841	0.07494
1375.77264	0.07286
1374.48688	0.07075
1373.20111	0.06874
1371.91534	0.06685
1370.62957	0.06502
1369.34380	0.06320
1368.05803	0.06142
1366.77226	0.05974
1365.48649	0.05817
1364.20073	0.05672
1362.91496	0.05535
1361.62919	0.05403
1360.34342	0.05274
1359.05765	0.05147
1357.77188	0.05026
1356.48611	0.04915
1355.20034	0.04815
1353.91457	0.04723
1352.62881	0.04638
1351.34304	0.04558
1350.05727	0.04485
1348.77150	0.04418
1347.48573	0.04358
1346.19996	0.04302
1344.91419	0.04248
1343.62842	0.04194
1342.34266	0.04139
1341.05689	0.04085
1339.77112	0.04035
1338.48535	0.03989
1337.19958	0.03948
1335.91381	0.03909
1334.62804	0.03870
1333.34227	0.03830
1332.05650	0.03788
1330.77074	0.03744
1329.48497	0.03699
1328.19920	0.03654
1326.91343	0.03612
1325.62766	0.03575
1324.34189	0.03543
1323.05612	0.03515
1321.77035	0.03488
1320.48459	0.03459
1319.19882	0.03428
1317.91305	0.03398
1316.62728	0.03366
1315.34151	0.03332
1314.05574	0.03296
1312.76997	0.03261
1311.48420	0.03232
1310.19843	0.03209
1308.91267	0.03192
1307.62690	0.03176
1306.34113	0.03155
1305.05536	0.03128
1303.76959	0.03098
1302.48382	0.03072
1301.19805	0.03051
1299.91228	0.03031
1298.62652	0.03009
1297.34075	0.02986
1296.05498	0.02962
1294.76921	0.02943
1293.48344	0.02928
1292.19767	0.02916
1290.91190	0.02905
1289.62613	0.02890
1288.34036	0.02873
1287.05460	0.02857
1285.76883	0.02845
1284.48306	0.02834
1283.19729	0.02821
1281.91152	0.02807
1280.62575	0.02793
1279.33998	0.02780
1278.05421	0.02770
1276.76845	0.02761
1275.48268	0.02752
1274.19691	0.02740
1272.91114	0.02724
1271.62537	0.02706
1270.33960	0.02685
1269.05383	0.02664
1267.76806	0.02642
1266.48229	0.02621
1265.19653	0.02604
1263.91076	0.02595
1262.62499	0.02590
1261.33922	0.02586
1260.05345	0.02578
1258.76768	0.02568
1257.48191	0.02562
1256.19614	0.02562
1254.91037	0.02564
1253.62461	0.02565
1252.33884	0.02558
1251.05307	0.02545
1249.76730	0.02529
1248.48153	0.02514
1247.19576	0.02504
1245.90999	0.02499
1244.62422	0.02494
1243.33846	0.02486
1242.05269	0.02473
1240.76692	0.02458
1239.48115	0.02444
1238.19538	0.02434
1236.90961	0.02426
1235.62384	0.02417
1234.33807	0.02405
1233.05230	0.02389
1231.76654	0.02369
1230.48077	0.02346
1229.19500	0.02324
1227.90923	0.02306
1226.62346	0.02292
1225.33769	0.02275
1224.05192	0.02252
1222.76615	0.02227
1221.48039	0.02206
1220.19462	0.02190
1218.90885	0.02175
1217.62308	0.02159
1216.33731	0.02141
1215.05154	0.02126
1213.76577	0.02112
1212.48000	0.02099
1211.19423	0.02086
1209.90847	0.02076
1208.62270	0.02071
1207.33693	0.02068
1206.05116	0.02068
1204.76539	0.02067
1203.47962	0.02065
1202.19385	0.02060
1200.90808	0.02050
1199.62232	0.02039
1198.33655	0.02030
1197.05078	0.02019
1195.76501	0.02001
1194.47924	0.01977
1193.19347	0.01952
1191.90770	0.01931
1190.62193	0.01914
1189.33616	0.01902
1188.05040	0.01896
1186.76463	0.01893
1185.47886	0.01890
1184.19309	0.01884
1182.90732	0.01881
1181.62155	0.01879
1180.33578	0.01875
1179.05001	0.01865
1177.76425	0.01850
1176.47848	0.01837
1175.19271	0.01832
1173.90694	0.01833
1172.62117	0.01833
1171.33540	0.01827
1170.04963	0.01818
1168.76386	0.01811
1167.47809	0.01814
1166.19233	0.01827
1164.90656	0.01845
1163.62079	0.01861
1162.33502	0.01870
1161.04925	0.01876
1159.76348	0.01881
1158.47771	0.01886
1157.19194	0.01890
1155.90618	0.01894
1154.62041	0.01900
1153.33464	0.01912
1152.04887	0.01931
1150.76310	0.01953
1149.47733	0.01977
1148.19156	0.02004
1146.90579	0.02037
1145.62002	0.02077
1144.33426	0.02120
1143.04849	0.02164
1141.76272	0.02217
1140.47695	0.02285
1139.19118	0.02371
1137.90541	0.02471
1136.61964	0.02580
1135.33387	0.02697
1134.04811	0.02820
1132.76234	0.02951
1131.47657	0.03096
1130.19080	0.03261
1128.90503	0.03450
1127.61926	0.03664
1126.33349	0.03904
1125.04772	0.04166
1123.76195	0.04445
1122.47619	0.04738
1121.19042	0.05040
1119.90465	0.05347
1118.61888	0.05655
1117.33311	0.05962
1116.04734	0.06270
1114.76157	0.06578
1113.47580	0.06885
1112.19004	0.07189
1110.90427	0.07492
1109.61850	0.07792
1108.33273	0.08084
1107.04696	0.08368
1105.76119	0.08644
1104.47542	0.08911
1103.18965	0.09170
1101.90388	0.09422
1100.61812	0.09675
1099.33235	0.09926
1098.04658	0.10167
1096.76081	0.10393
1095.47504	0.10606
1094.18927	0.10814
1092.90350	0.11018
1091.61773	0.11209
1090.33197	0.11382
1089.04620	0.11541
1087.76043	0.11696
1086.47466	0.11854
1085.18889	0.12016
1083.90312	0.12182
1082.61735	0.12361
1081.33158	0.12557
1080.04581	0.12769
1078.76005	0.12989
1077.47428	0.13216
1076.18851	0.13457
1074.90274	0.13717
1073.61697	0.13995
1072.33120	0.14283
1071.04543	0.14578
1069.75966	0.14880
1068.47390	0.15191
1067.18813	0.15512
1065.90236	0.15840
1064.61659	0.16172
1063.33082	0.16505
1062.04505	0.16835
1060.75928	0.17160
1059.47351	0.17481
1058.18774	0.17800
1056.90198	0.18120
1055.61621	0.18436
1054.33044	0.18747
1053.04467	0.19057
1051.75890	0.19371
1050.47313	0.19689
1049.18736	0.20010
1047.90159	0.20331
1046.61583	0.20654
1045.33006	0.20981
1044.04429	0.21311
1042.75852	0.21645
1041.47275	0.21981
1040.18698	0.22321
1038.90121	0.22663
1037.61544	0.23006
1036.32967	0.23346
1035.04391	0.23683
1033.75814	0.24013
1032.47237	0.24329
1031.18660	0.24624
1029.90083	0.24896
1028.61506	0.25141
1027.32929	0.25359
1026.04352	0.25544
1024.75775	0.25690
1023.47199	0.25792
1022.18622	0.25847
1020.90045	0.25857
1019.61468	0.25826
1018.32891	0.25756
1017.04314	0.25643
1015.75737	0.25485
1014.47160	0.25278
1013.18584	0.25021
1011.90007	0.24713
1010.61430	0.24355
1009.32853	0.23957
1008.04276	0.23524
1006.75699	0.23056
1005.47122	0.22543
1004.18545	0.21986
1002.89968	0.21394
1001.61392	0.20782
1000.32815	0.20157
999.04238	0.19519
997.75661	0.18874
996.47084	0.18225
995.18507	0.17574
993.89930	0.16921
992.61353	0.16267
991.32777	0.15627
990.04200	0.15014
988.75623	0.14436
987.47046	0.13890
986.18469	0.13367
984.89892	0.12868
983.61315	0.12398
982.32738	0.11960
981.04161	0.11547
979.75585	0.11154
978.47008	0.10779
977.18431	0.10432
975.89854	0.10125
974.61277	0.09869
973.32700	0.09662
972.04123	0.09501
970.75546	0.09383
969.46970	0.09310
968.18393	0.09288
966.89816	0.09315
965.61239	0.09380
964.32662	0.09467
963.04085	0.09555
961.75508	0.09618
960.46931	0.09634
959.18354	0.09587
957.89778	0.09475
956.61201	0.09313
955.32624	0.09117
954.04047	0.08908
952.75470	0.08696
951.46893	0.08487
950.18316	0.08279
948.89739	0.08067
947.61163	0.07852
946.32586	0.07637
945.04009	0.07432
943.75432	0.07242
942.46855	0.07064
941.18278	0.06896
939.89701	0.06735
938.61124	0.06584
937.32547	0.06443
936.03971	0.06308
934.75394	0.06179
933.46817	0.06059
932.18240	0.05950
930.89663	0.05853
929.61086	0.05764
928.32509	0.05681
927.03932	0.05599
925.75356	0.05517
924.46779	0.05434
923.18202	0.05355
921.89625	0.05284
920.61048	0.05217
919.32471	0.05151
918.03894	0.05086
916.75317	0.05025
915.46740	0.04970
914.18164	0.04917
912.89587	0.04862
911.61010	0.04806
910.32433	0.04751
909.03856	0.04695
907.75279	0.04638
906.46702	0.04583
905.18125	0.04536
903.89549	0.04500
902.60972	0.04469
901.32395	0.04437
900.03818	0.04399
898.75241	0.04362
897.46664	0.04335
896.18087	0.04321
894.89510	0.04312
893.60933	0.04295
892.32357	0.04267
891.03780	0.04234
889.75203	0.04212
888.46626	0.04216
887.18049	0.04266
885.89472	0.04385
884.60895	0.04581
883.32318	0.04848
882.03742	0.05153
880.75165	0.05454
879.46588	0.05711
878.18011	0.05915
876.89434	0.06086
875.60857	0.06256
874.32280	0.06429
873.03703	0.06577
871.75126	0.06658
870.46550	0.06653
869.17973	0.06566
867.89396	0.06410
866.60819	0.06194
865.32242	0.05935
864.03665	0.05668
862.75088	0.05421
861.46511	0.05207
860.17935	0.05022
858.89358	0.04861
857.60781	0.04723
856.32204	0.04610
855.03627	0.04519
853.75050	0.04443
852.46473	0.04377
851.17896	0.04315
849.89319	0.04254
848.60743	0.04195
847.32166	0.04145
846.03589	0.04110
844.75012	0.04086
843.46435	0.04065
842.17858	0.04037
840.89281	0.04003
839.60704	0.03969
838.32128	0.03939
837.03551	0.03908
835.74974	0.03873
834.46397	0.03840
833.17820	0.03815
831.89243	0.03799
830.60666	0.03784
829.32089	0.03762
828.03512	0.03738
826.74936	0.03717
825.46359	0.03705
824.17782	0.03695
822.89205	0.03684
821.60628	0.03675
820.32051	0.03672
819.03474	0.03675
817.74897	0.03677
816.46321	0.03673
815.17744	0.03661
813.89167	0.03647
812.60590	0.03633
811.32013	0.03620
810.03436	0.03609
808.74859	0.03599
807.46282	0.03592
806.17705	0.03589
804.89129	0.03591
803.60552	0.03593
802.31975	0.03592
801.03398	0.03586
799.74821	0.03576
798.46244	0.03565
797.17667	0.03558
795.89090	0.03559
794.60513	0.03563
793.31937	0.03564
792.03360	0.03560
790.74783	0.03556
789.46206	0.03552
788.17629	0.03547
786.89052	0.03536
785.60475	0.03521
784.31898	0.03505
783.03322	0.03492
781.74745	0.03483
780.46168	0.03473
779.17591	0.03460
777.89014	0.03447
776.60437	0.03437
775.31860	0.03432
774.03283	0.03430
772.74706	0.03432
771.46130	0.03433
770.17553	0.03434
768.88976	0.03431
767.60399	0.03428
766.31822	0.03429
765.03245	0.03437
763.74668	0.03446
762.46091	0.03451
761.17515	0.03457
759.88938	0.03468
758.60361	0.03481
757.31784	0.03485
756.03207	0.03476
754.74630	0.03462
753.46053	0.03457
752.17476	0.03463
750.88899	0.03472
749.60323	0.03477
748.31746	0.03473
747.03169	0.03462
745.74592	0.03444
744.46015	0.03423
743.17438	0.03400
741.88861	0.03379
740.60284	0.03364
739.31708	0.03359
738.03131	0.03361
736.74554	0.03364
735.45977	0.03360
734.17400	0.03349
732.88823	0.03334
731.60246	0.03323
730.31669	0.03321
729.03092	0.03325
727.74516	0.03335
726.45939	0.03349
725.17362	0.03363
723.88785	0.03373
722.60208	0.03381
721.31631	0.03390
720.03054	0.03400
718.74477	0.03412
717.45901	0.03425
716.17324	0.03432
714.88747	0.03429
713.60170	0.03418
712.31593	0.03405
711.03016	0.03393
709.74439	0.03382
708.45862	0.03370
707.17285	0.03359
705.88709	0.03348
704.60132	0.03341
703.31555	0.03338
702.02978	0.03338
700.74401	0.03343
699.45824	0.03349
698.17247	0.03355
696.88670	0.03355
695.60094	0.03350
694.31517	0.03342
693.02940	0.03336
691.74363	0.03333
690.45786	0.03332
689.17209	0.03332
687.88632	0.03332
686.60055	0.03327
685.31478	0.03317
684.02902	0.03302
682.74325	0.03284
681.45748	0.03267
680.17171	0.03252
678.88594	0.03244
677.60017	0.03244
676.31440	0.03248
675.02863	0.03254
673.74287	0.03258
672.45710	0.03255
671.17133	0.03241
669.88556	0.03229
668.59979	0.03258
667.31402	0.03275
666.02825	0.03246
664.74248	0.03248
663.45671	0.03239
662.17095	0.03214
660.88518	0.03190
659.59941	0.03173
658.31364	0.03163
657.02787	0.03159
655.74210	0.03158
654.45633	0.03153
653.17056	0.03144
651.88480	0.03135
650.59903	0.03131
649.31326	0.03132
648.02749	0.03131
646.74172	0.03124
645.45595	0.03110
644.17018	0.03098
642.88441	0.03094
641.59864	0.03098
640.31288	0.03105
639.02711	0.03111
637.74134	0.03119
636.45557	0.03131
635.16980	0.03149
633.88403	0.03170
632.59826	0.03191
631.31249	0.03214
630.02673	0.03251
628.74096	0.03297
627.45519	0.03311
626.16942	0.03350
624.88365	0.03399
623.59788	0.03452
622.31211	0.03548
621.02634	0.03739
619.74057	0.04037
618.45481	0.04394
617.16904	0.04740
615.88327	0.05021
614.59750	0.05229
613.31173	0.05410
612.02596	0.05657
610.74019	0.06079
609.45442	0.06720
608.16866	0.07485
606.88289	0.08185
605.59712	0.08697
604.31135	0.09034
603.02558	0.09265
601.73981	0.09415
600.45404	0.09460
599.16827	0.09381
597.88250	0.09197
596.59674	0.08947
595.31097	0.08674
594.02520	0.08412
592.73943	0.08189
591.45366	0.08022
590.16789	0.07919
588.88212	0.07882
587.59635	0.07909
586.31059	0.07992
585.02482	0.08122
583.73905	0.08293
582.45328	0.08505
581.16751	0.08755
579.88174	0.09033
578.59597	0.09317
577.31020	0.09591
576.02443	0.09846
574.73867	0.10080
573.45290	0.10295
572.16713	0.10504
570.88136	0.10735
569.59559	0.11017
568.30982	0.11366
567.02405	0.11769
565.73828	0.12176
564.45251	0.12524
563.16675	0.12762
561.88098	0.12860
560.59521	0.12806
559.30944	0.12594
558.02367	0.12228
556.73790	0.11730
555.45213	0.11144
554.16636	0.10518
552.88060	0.09895
551.59483	0.09302
550.30906	0.08756
549.02329	0.08269
547.73752	0.07847
546.45175	0.07485
545.16598	0.07172
543.88021	0.06892
542.59444	0.06632
541.30868	0.06392
540.02291	0.06172
538.73714	0.05973
537.45137	0.05789
536.16560	0.05618
534.87983	0.05462
533.59406	0.05324
532.30829	0.05201
531.02253	0.05087
529.73676	0.04979
528.45099	0.04876
527.16522	0.04778
525.87945	0.04682
524.59368	0.04588
523.30791	0.04496
522.02214	0.04409
520.73637	0.04330
519.45061	0.04258
518.16484	0.04186
516.87907	0.04112
515.59330	0.04038
514.30753	0.03964
513.02176	0.03894
511.73599	0.03825
510.45022	0.03761
509.16446	0.03704
507.87869	0.03655
506.59292	0.03611
505.30715	0.03572
504.02138	0.03541
502.73561	0.03518
501.44984	0.03498
500.16407	0.03473
498.87830	0.03439
497.59254	0.03399
496.30677	0.03357
495.02100	0.03316
493.73523	0.03279
492.44946	0.03249
491.16369	0.03224
489.87792	0.03198
488.59215	0.03168
487.30639	0.03137
486.02062	0.03110
484.73485	0.03093
483.44908	0.03085
482.16331	0.03082
480.87754	0.03081
479.59177	0.03082
478.30600	0.03086
477.02023	0.03091
475.73447	0.03096
474.44870	0.03102
473.16293	0.03111
471.87716	0.03125
470.59139	0.03141
469.30562	0.03153
468.01985	0.03150
466.73408	0.03132
465.44832	0.03105
464.16255	0.03076
462.87678	0.03050
461.59101	0.03024
460.30524	0.02991
459.01947	0.02946
457.73370	0.02893
456.44793	0.02841
455.16216	0.02791
453.87640	0.02745
452.59063	0.02704
451.30486	0.02673
450.01909	0.02652
448.73332	0.02642
447.44755	0.02634
446.16178	0.02624
444.87601	0.02604
443.59025	0.02579
442.30448	0.02554
441.01871	0.02535
439.73294	0.02522
438.44717	0.02511
437.16140	0.02498
435.87563	0.02482
434.58986	0.02464
433.30409	0.02447
432.01833	0.02436
430.73256	0.02431
429.44679	0.02424
428.16102	0.02412
426.87525	0.02394
425.58948	0.02375
424.30371	0.02357
423.01794	0.02340
421.73218	0.02320
420.44641	0.02297
419.16064	0.02277
417.87487	0.02264
416.58910	0.02253
415.30333	0.02238
414.01756	0.02222
412.73179	0.02210
411.44602	0.02202
410.16026	0.02199
408.87449	0.02199
407.58872	0.02203
406.30295	0.02212
405.01718	0.02218
403.73141	0.02220
402.44564	0.02216
401.15987	0.02212
399.87411	0.02210
