3997.45528	0.04511
3996.16951	0.04561
3994.88374	0.04570
3993.59798	0.04516
3992.31221	0.04410
3991.02644	0.04286
3989.74067	0.04192
3988.45490	0.04161
3987.16913	0.04177
3985.88336	0.04199
3984.59759	0.04202
3983.31183	0.04211
3982.02606	0.04265
3980.74029	0.04366
3979.45452	0.04467
3978.16875	0.04512
3976.88298	0.04481
3975.59721	0.04395
3974.31144	0.04287
3973.02567	0.04184
3971.73991	0.04102
3970.45414	0.04056
3969.16837	0.04057
3967.88260	0.04107
3966.59683	0.04189
3965.31106	0.04274
3964.02529	0.04330
3962.73952	0.04353
3961.45376	0.04360
3960.16799	0.04362
3958.88222	0.04351
3957.59645	0.04320
3956.31068	0.04289
3955.02491	0.04298
3953.73914	0.04362
3952.45337	0.04454
3951.16760	0.04531
3949.88184	0.04569
3948.59607	0.04581
3947.31030	0.04586
3946.02453	0.04579
3944.73876	0.04537
3943.45299	0.04464
3942.16722	0.04406
3940.88145	0.04409
3939.59569	0.04465
3938.30992	0.04513
3937.02415	0.04499
3935.73838	0.04419
3934.45261	0.04313
3933.16684	0.04223
3931.88107	0.04170
3930.59530	0.04164
3929.30953	0.04200
3928.02377	0.04258
3926.73800	0.04313
3925.45223	0.04358
3924.16646	0.04400
3922.88069	0.04438
3921.59492	0.04452
3920.30915	0.04428
3919.02338	0.04372
3917.73762	0.04303
3916.45185	0.04244
3915.16608	0.04215
3913.88031	0.04228
3912.59454	0.04283
3911.30877	0.04360
3910.02300	0.04425
3908.73723	0.04451
3907.45146	0.04439
3906.16570	0.04403
3904.87993	0.04363
3903.59416	0.04320
3902.30839	0.04274
3901.02262	0.04232
3899.73685	0.04217
3898.45108	0.04243
3897.16531	0.04288
3895.87955	0.04312
3894.59378	0.04303
3893.30801	0.04295
3892.02224	0.04334
3890.73647	0.04428
3889.45070	0.04526
3888.16493	0.04560
3886.87916	0.04499
3885.59339	0.04357
3884.30763	0.04166
3883.02186	0.03975
3881.73609	0.03850
3880.45032	0.03837
3879.16455	0.03921
3877.87878	0.04036
3876.59301	0.04130
3875.30724	0.04188
3874.02148	0.04207
3872.73571	0.04181
3871.44994	0.04131
3870.16417	0.04112
3868.87840	0.04147
3867.59263	0.04195
3866.30686	0.04209
3865.02109	0.04203
3863.73532	0.04208
3862.44956	0.04223
3861.16379	0.04223
3859.87802	0.04206
3858.59225	0.04189
3857.30648	0.04178
3856.02071	0.04160
3854.73494	0.04134
3853.44917	0.04116
3852.16341	0.04111
3850.87764	0.04107
3849.59187	0.04105
3848.30610	0.04122
3847.02033	0.04161
3845.73456	0.04203
3844.44879	0.04228
3843.16302	0.04218
3841.87725	0.04160
3840.59149	0.04059
3839.30572	0.03951
3838.01995	0.03892
3836.73418	0.03903
3835.44841	0.03953
3834.16264	0.04012
3832.87687	0.04089
3831.59110	0.04204
3830.30534	0.04332
3829.01957	0.04412
3827.73380	0.04404
3826.44803	0.04335
3825.16226	0.04268
3823.87649	0.04232
3822.59072	0.04212
3821.30495	0.04184
3820.01918	0.04134
3818.73342	0.04045
3817.44765	0.03917
3816.16188	0.03799
3814.87611	0.03757
3813.59034	0.03798
3812.30457	0.03870
3811.01880	0.03912
3809.73303	0.03901
3808.44726	0.03866
3807.16150	0.03865
3805.87573	0.03929
3804.58996	0.04028
3803.30419	0.04102
3802.01842	0.04121
3800.73265	0.04088
3799.44688	0.04029
3798.16111	0.03981
3796.87535	0.03978
3795.58958	0.04013
3794.30381	0.04035
3793.01804	0.04011
3791.73227	0.03959
3790.44650	0.03920
3789.16073	0.03919
3787.87496	0.03941
3786.58919	0.03955
3785.30343	0.03944
3784.01766	0.03918
3782.73189	0.03899
3781.44612	0.03888
3780.16035	0.03873
3778.87458	0.03847
3777.58881	0.03827
3776.30304	0.03839
3775.01728	0.03884
3773.73151	0.03945
3772.44574	0.04002
3771.15997	0.04043
3769.87420	0.04061
3768.58843	0.04044
3767.30266	0.03997
3766.01689	0.03958
3764.73112	0.03953
3763.44536	0.03960
3762.15959	0.03933
3760.87382	0.03853
3759.58805	0.03750
3758.30228	0.03674
3757.01651	0.03662
3755.73074	0.03704
3754.44497	0.03763
3753.15921	0.03814
3751.87344	0.03857
3750.58767	0.03898
3749.30190	0.03935
3748.01613	0.03956
3746.73036	0.03940
3745.44459	0.03895
3744.15882	0.03866
3742.87305	0.03882
3741.58729	0.03922
3740.30152	0.03951
3739.01575	0.03946
3737.72998	0.03902
3736.44421	0.03837
3735.15844	0.03775
3733.87267	0.03721
3732.58690	0.03679
3731.30114	0.03659
3730.01537	0.03671
3728.72960	0.03706
3727.44383	0.03741
3726.15806	0.03760
3724.87229	0.03770
3723.58652	0.03799
3722.30075	0.03856
3721.01498	0.03917
3719.72922	0.03949
3718.44345	0.03953
3717.15768	0.03959
3715.87191	0.03988
3714.58614	0.04029
3713.30037	0.04062
3712.01460	0.04080
3710.72883	0.04079
3709.44307	0.04058
3708.15730	0.04011
3706.87153	0.03939
3705.58576	0.03853
3704.29999	0.03775
3703.01422	0.03727
3701.72845	0.03711
3700.44268	0.03724
3699.15691	0.03764
3697.87115	0.03815
3696.58538	0.03861
3695.29961	0.03913
3694.01384	0.03984
3692.72807	0.04047
3691.44230	0.04071
3690.15653	0.04044
3688.87076	0.03979
3687.58500	0.03918
3686.29923	0.03907
3685.01346	0.03934
3683.72769	0.03959
3682.44192	0.03945
3681.15615	0.03877
3679.87038	0.03781
3678.58461	0.03692
3677.29884	0.03626
3676.01308	0.03596
3674.72731	0.03616
3673.44154	0.03678
3672.15577	0.03764
3670.87000	0.03861
3669.58423	0.03939
3668.29846	0.03958
3667.01269	0.03905
3665.72693	0.03823
3664.44116	0.03768
3663.15539	0.03766
3661.86962	0.03813
3660.58385	0.03893
3659.29808	0.03980
3658.01231	0.04028
3656.72654	0.04012
3655.44077	0.03957
3654.15501	0.03923
3652.86924	0.03948
3651.58347	0.04009
3650.29770	0.04060
3649.01193	0.04074
3647.72616	0.04065
3646.44039	0.04053
3645.15462	0.04052
3643.86886	0.04067
3642.58309	0.04099
3641.29732	0.04130
3640.01155	0.04139
3638.72578	0.04126
3637.44001	0.04122
3636.15424	0.04148
3634.86847	0.04198
3633.58270	0.04240
3632.29694	0.04258
3631.01117	0.04257
3629.72540	0.04259
3628.43963	0.04290
3627.15386	0.04349
3625.86809	0.04421
3624.58232	0.04486
3623.29655	0.04538
3622.01079	0.04570
3620.72502	0.04583
3619.43925	0.04581
3618.15348	0.04562
3616.86771	0.04519
3615.58194	0.04469
3614.29617	0.04452
3613.01040	0.04500
3611.72463	0.04597
3610.43887	0.04696
3609.15310	0.04762
3607.86733	0.04782
3606.58156	0.04758
3605.29579	0.04708
3604.01002	0.04661
3602.72425	0.04637
3601.43848	0.04627
3600.15272	0.04627
3598.86695	0.04671
3597.58118	0.04787
3596.29541	0.04943
3595.00964	0.05070
3593.72387	0.05129
3592.43810	0.05131
3591.15233	0.05110
3589.86656	0.05086
3588.58080	0.05064
3587.29503	0.05048
3586.00926	0.05054
3584.72349	0.05090
3583.43772	0.05133
3582.15195	0.05171
3580.86618	0.05220
3579.58041	0.05275
3578.29464	0.05296
3577.00888	0.05245
3575.72311	0.05137
3574.43734	0.05049
3573.15157	0.05049
3571.86580	0.05134
3570.58003	0.05251
3569.29426	0.05353
3568.00849	0.05418
3566.72273	0.05446
3565.43696	0.05443
3564.15119	0.05430
3562.86542	0.05430
3561.57965	0.05451
3560.29388	0.05480
3559.00811	0.05503
3557.72234	0.05513
3556.43657	0.05513
3555.15081	0.05507
3553.86504	0.05506
3552.57927	0.05532
3551.29350	0.05601
3550.00773	0.05705
3548.72196	0.05813
3547.43619	0.05885
3546.15042	0.05907
3544.86466	0.05892
3543.57889	0.05868
3542.29312	0.05862
3541.00735	0.05880
3539.72158	0.05907
3538.43581	0.05920
3537.15004	0.05912
3535.86427	0.05905
3534.57850	0.05924
3533.29274	0.05963
3532.00697	0.06004
3530.72120	0.06038
3529.43543	0.06073
3528.14966	0.06109
3526.86389	0.06129
3525.57812	0.06112
3524.29235	0.06062
3523.00659	0.06001
3521.72082	0.05959
3520.43505	0.05957
3519.14928	0.06004
3517.86351	0.06081
3516.57774	0.06146
3515.29197	0.06170
3514.00620	0.06162
3512.72043	0.06148
3511.43467	0.06148
3510.14890	0.06164
3508.86313	0.06192
3507.57736	0.06227
3506.29159	0.06255
3505.00582	0.06263
3503.72005	0.06245
3502.43428	0.06208
3501.14852	0.06171
3499.86275	0.06163
3498.57698	0.06199
3497.29121	0.06274
3496.00544	0.06371
3494.71967	0.06472
3493.43390	0.06566
3492.14813	0.06639
3490.86236	0.06682
3489.57660	0.06696
3488.29083	0.06688
3487.00506	0.06668
3485.71929	0.06649
3484.43352	0.06638
3483.14775	0.06632
3481.86198	0.06625
3480.57621	0.06620
3479.29045	0.06631
3478.00468	0.06662
3476.71891	0.06703
3475.43314	0.06736
3474.14737	0.06752
3472.86160	0.06757
3471.57583	0.06764
3470.29006	0.06789
3469.00429	0.06840
3467.71853	0.06907
3466.43276	0.06955
3465.14699	0.06951
3463.86122	0.06896
3462.57545	0.06829
3461.28968	0.06794
3460.00391	0.06805
3458.71814	0.06844
3457.43238	0.06875
3456.14661	0.06883
3454.86084	0.06881
3453.57507	0.06907
3452.28930	0.06981
3451.00353	0.07083
3449.71776	0.07166
3448.43199	0.07197
3447.14622	0.07179
3445.86046	0.07144
3444.57469	0.07129
3443.28892	0.07154
3442.00315	0.07202
3440.71738	0.07238
3439.43161	0.07232
3438.14584	0.07188
3436.86007	0.07136
3435.57431	0.07112
3434.28854	0.07130
3433.00277	0.07179
3431.71700	0.07235
3430.43123	0.07271
3429.14546	0.07274
3427.85969	0.07245
3426.57392	0.07206
3425.28815	0.07189
3424.00239	0.07207
3422.71662	0.07240
3421.43085	0.07252
3420.14508	0.07230
3418.85931	0.07201
3417.57354	0.07206
3416.28777	0.07264
3415.00200	0.07356
3413.71624	0.07444
3412.43047	0.07502
3411.14470	0.07526
3409.85893	0.07521
3408.57316	0.07503
3407.28739	0.07493
3406.00162	0.07507
3404.71585	0.07543
3403.43008	0.07578
3402.14432	0.07596
3400.85855	0.07602
3399.57278	0.07604
3398.28701	0.07596
3397.00124	0.07565
3395.71547	0.07517
3394.42970	0.07471
3393.14393	0.07450
3391.85817	0.07465
3390.57240	0.07501
3389.28663	0.07530
3388.00086	0.07532
3386.71509	0.07514
3385.42932	0.07497
3384.14355	0.07498
3382.85778	0.07521
3381.57201	0.07566
3380.28625	0.07625
3379.00048	0.07679
3377.71471	0.07707
3376.42894	0.07706
3375.14317	0.07696
3373.85740	0.07697
3372.57163	0.07710
3371.28586	0.07722
3370.00010	0.07724
3368.71433	0.07721
3367.42856	0.07717
3366.14279	0.07709
3364.85702	0.07692
3363.57125	0.07674
3362.28548	0.07670
3360.99971	0.07687
3359.71394	0.07701
3358.42818	0.07678
3357.14241	0.07618
3355.85664	0.07571
3354.57087	0.07595
3353.28510	0.07691
3351.99933	0.07788
3350.71356	0.07818
3349.42779	0.07780
3348.14202	0.07724
3346.85626	0.07692
3345.57049	0.07682
3344.28472	0.07678
3342.99895	0.07672
3341.71318	0.07665
3340.42741	0.07653
3339.14164	0.07637
3337.85587	0.07622
3336.57011	0.07621
3335.28434	0.07634
3333.99857	0.07649
3332.71280	0.07657
3331.42703	0.07655
3330.14126	0.07649
3328.85549	0.07636
3327.56972	0.07617
3326.28395	0.07603
3324.99819	0.07602
3323.71242	0.07607
3322.42665	0.07602
3321.14088	0.07586
3319.85511	0.07574
3318.56934	0.07583
3317.28357	0.07609
3315.99780	0.07637
3314.71204	0.07646
3313.42627	0.07632
3312.14050	0.07605
3310.85473	0.07580
3309.56896	0.07561
3308.28319	0.07542
3306.99742	0.07524
3305.71165	0.07522
3304.42588	0.07541
3303.14012	0.07559
3301.85435	0.07551
3300.56858	0.07528
3299.28281	0.07530
3297.99704	0.07578
3296.71127	0.07645
3295.42550	0.07680
3294.13973	0.07668
3292.85397	0.07638
3291.56820	0.07623
3290.28243	0.07630
3288.99666	0.07647
3287.71089	0.07655
3286.42512	0.07641
3285.13935	0.07597
3283.85358	0.07530
3282.56781	0.07458
3281.28205	0.07411
3279.99628	0.07412
3278.71051	0.07463
3277.42474	0.07539
3276.13897	0.07607
3274.85320	0.07640
3273.56743	0.07632
3272.28166	0.07583
3270.99590	0.07505
3269.71013	0.07436
3268.42436	0.07420
3267.13859	0.07471
3265.85282	0.07556
3264.56705	0.07618
3263.28128	0.07628
3261.99551	0.07593
3260.70974	0.07542
3259.42398	0.07498
3258.13821	0.07466
3256.85244	0.07443
3255.56667	0.07427
3254.28090	0.07427
3252.99513	0.07447
3251.70936	0.07470
3250.42359	0.07476
3249.13783	0.07461
3247.85206	0.07435
3246.56629	0.07411
3245.28052	0.07396
3243.99475	0.07397
3242.70898	0.07415
3241.42321	0.07430
3240.13744	0.07419
3238.85167	0.07373
3237.56591	0.07310
3236.28014	0.07252
3234.99437	0.07210
3233.70860	0.07188
3232.42283	0.07192
3231.13706	0.07219
3229.85129	0.07251
3228.56552	0.07264
3227.27976	0.07255
3225.99399	0.07247
3224.70822	0.07257
3223.42245	0.07276
3222.13668	0.07277
3220.85091	0.07251
3219.56514	0.07216
3218.27937	0.07197
3216.99360	0.07205
3215.70784	0.07225
3214.42207	0.07239
3213.13630	0.07232
3211.85053	0.07205
3210.56476	0.07179
3209.27899	0.07179
3207.99322	0.07212
3206.70745	0.07254
3205.42169	0.07270
3204.13592	0.07251
3202.85015	0.07214
3201.56438	0.07189
3200.27861	0.07191
3198.99284	0.07216
3197.70707	0.07244
3196.42130	0.07252
3195.13553	0.07230
3193.84977	0.07195
3192.56400	0.07170
3191.27823	0.07158
3189.99246	0.07143
3188.70669	0.07117
3187.42092	0.07088
3186.13515	0.07061
3184.84938	0.07032
3183.56362	0.06994
3182.27785	0.06956
3180.99208	0.06940
3179.70631	0.06954
3178.42054	0.06985
3177.13477	0.07003
3175.84900	0.06999
3174.56323	0.06985
3173.27746	0.06975
3171.99170	0.06964
3170.70593	0.06936
3169.42016	0.06900
3168.13439	0.06884
3166.84862	0.06909
3165.56285	0.06953
3164.27708	0.06974
3162.99131	0.06955
3161.70555	0.06916
3160.41978	0.06890
3159.13401	0.06890
3157.84824	0.06909
3156.56247	0.06928
3155.27670	0.06934
3153.99093	0.06917
3152.70516	0.06873
3151.41939	0.06806
3150.13363	0.06733
3148.84786	0.06679
3147.56209	0.06658
3146.27632	0.06665
3144.99055	0.06686
3143.70478	0.06710
3142.41901	0.06728
3141.13324	0.06736
3139.84748	0.06727
3138.56171	0.06701
3137.27594	0.06660
3135.99017	0.06609
3134.70440	0.06559
3133.41863	0.06531
3132.13286	0.06541
3130.84709	0.06585
3129.56132	0.06637
3128.27556	0.06669
3126.98979	0.06671
3125.70402	0.06654
3124.41825	0.06634
3123.13248	0.06623
3121.84671	0.06619
3120.56094	0.06622
3119.27517	0.06626
3117.98940	0.06626
3116.70364	0.06612
3115.41787	0.06585
3114.13210	0.06556
3112.84633	0.06537
3111.56056	0.06528
3110.27479	0.06521
3108.98902	0.06506
3107.70325	0.06484
3106.41749	0.06463
3105.13172	0.06453
3103.84595	0.06457
3102.56018	0.06461
3101.27441	0.06447
3099.98864	0.06411
3098.70287	0.06364
3097.41710	0.06324
3096.13133	0.06304
3094.84557	0.06305
3093.55980	0.06319
3092.27403	0.06329
3090.98826	0.06322
3089.70249	0.06299
3088.41672	0.06274
3087.13095	0.06258
3085.84518	0.06248
3084.55942	0.06235
3083.27365	0.06214
3081.98788	0.06190
3080.70211	0.06178
3079.41634	0.06191
3078.13057	0.06221
3076.84480	0.06246
3075.55903	0.06255
3074.27326	0.06252
3072.98750	0.06244
3071.70173	0.06228
3070.41596	0.06203
3069.13019	0.06180
3067.84442	0.06175
3066.55865	0.06189
3065.27288	0.06200
3063.98711	0.06186
3062.70135	0.06143
3061.41558	0.06092
3060.12981	0.06056
3058.84404	0.06043
3057.55827	0.06044
3056.27250	0.06053
3054.98673	0.06065
3053.70096	0.06078
3052.41519	0.06084
3051.12943	0.06079
3049.84366	0.06065
3048.55789	0.06050
3047.27212	0.06037
3045.98635	0.06025
3044.70058	0.06009
3043.41481	0.05985
3042.12904	0.05957
3040.84328	0.05933
3039.55751	0.05920
3038.27174	0.05919
3036.98597	0.05928
3035.70020	0.05937
3034.41443	0.05936
3033.12866	0.05927
3031.84289	0.05912
3030.55712	0.05892
3029.27136	0.05874
3027.98559	0.05863
3026.69982	0.05854
3025.41405	0.05836
3024.12828	0.05807
3022.84251	0.05775
3021.55674	0.05756
3020.27097	0.05757
3018.98521	0.05775
3017.69944	0.05789
3016.41367	0.05784
3015.12790	0.05762
3013.84213	0.05742
3012.55636	0.05736
3011.27059	0.05737
3009.98482	0.05732
3008.69905	0.05715
3007.41329	0.05694
3006.12752	0.05678
3004.84175	0.05674
3003.55598	0.05677
3002.27021	0.05677
3000.98444	0.05666
2999.69867	0.05647
2998.41290	0.05625
2997.12714	0.05604
2995.84137	0.05587
2994.55560	0.05579
2993.26983	0.05579
2991.98406	0.05580
2990.69829	0.05580
2989.41252	0.05582
2988.12675	0.05590
2986.84098	0.05599
2985.55522	0.05603
2984.26945	0.05603
2982.98368	0.05609
2981.69791	0.05628
2980.41214	0.05659
2979.12637	0.05697
2977.84060	0.05735
2976.55483	0.05768
2975.26907	0.05802
2973.98330	0.05842
2972.69753	0.05885
2971.41176	0.05924
2970.12599	0.05960
2968.84022	0.06006
2967.55445	0.06074
2966.26868	0.06156
2964.98291	0.06230
2963.69715	0.06284
2962.41138	0.06319
2961.12561	0.06344
2959.83984	0.06367
2958.55407	0.06399
2957.26830	0.06439
2955.98253	0.06472
2954.69676	0.06474
2953.41100	0.06442
2952.12523	0.06400
2950.83946	0.06372
2949.55369	0.06367
2948.26792	0.06375
2946.98215	0.06384
2945.69638	0.06388
2944.41061	0.06394
2943.12484	0.06409
2941.83908	0.06430
2940.55331	0.06447
2939.26754	0.06448
2937.98177	0.06444
2936.69600	0.06452
2935.41023	0.06483
2934.12446	0.06535
2932.83869	0.06597
2931.55293	0.06653
2930.26716	0.06689
2928.98139	0.06704
2927.69562	0.06709
2926.40985	0.06721
2925.12408	0.06742
2923.83831	0.06759
2922.55254	0.06755
2921.26677	0.06725
2919.98101	0.06682
2918.69524	0.06636
2917.40947	0.06589
2916.12370	0.06536
2914.83793	0.06479
2913.55216	0.06425
2912.26639	0.06375
2910.98062	0.06324
2909.69486	0.06267
2908.40909	0.06212
2907.12332	0.06167
2905.83755	0.06133
2904.55178	0.06107
2903.26601	0.06094
2901.98024	0.06087
2900.69447	0.06070
2899.40870	0.06027
2898.12294	0.05969
2896.83717	0.05924
2895.55140	0.05908
2894.26563	0.05904
2892.97986	0.05890
2891.69409	0.05854
2890.40832	0.05808
2889.12255	0.05765
2887.83678	0.05733
2886.55102	0.05705
2885.26525	0.05675
2883.97948	0.05648
2882.69371	0.05639
2881.40794	0.05661
2880.12217	0.05708
2878.83640	0.05759
2877.55063	0.05790
2876.26487	0.05784
2874.97910	0.05742
2873.69333	0.05683
2872.40756	0.05632
2871.12179	0.05607
2869.83602	0.05609
2868.55025	0.05624
2867.26448	0.05634
2865.97871	0.05630
2864.69295	0.05617
2863.40718	0.05608
2862.12141	0.05606
2860.83564	0.05606
2859.54987	0.05604
2858.26410	0.05606
2856.97833	0.05610
2855.69256	0.05605
2854.40680	0.05574
2853.12103	0.05518
2851.83526	0.05456
2850.54949	0.05406
2849.26372	0.05372
2847.97795	0.05347
2846.69218	0.05321
2845.40641	0.05289
2844.12064	0.05256
2842.83488	0.05227
2841.54911	0.05194
2840.26334	0.05146
2838.97757	0.05076
2837.69180	0.04997
2836.40603	0.04933
2835.12026	0.04897
2833.83449	0.04884
2832.54873	0.04872
2831.26296	0.04841
2829.97719	0.04790
2828.69142	0.04730
2827.40565	0.04674
2826.11988	0.04633
2824.83411	0.04615
2823.54834	0.04623
2822.26257	0.04643
2820.97681	0.04657
2819.69104	0.04659
2818.40527	0.04655
2817.11950	0.04648
2815.83373	0.04634
2814.54796	0.04608
2813.26219	0.04575
2811.97642	0.04550
2810.69066	0.04550
2809.40489	0.04569
2808.11912	0.04586
2806.83335	0.04576
2805.54758	0.04541
2804.26181	0.04506
2802.97604	0.04493
2801.69027	0.04497
2800.40450	0.04493
2799.11874	0.04470
2797.83297	0.04438
2796.54720	0.04415
2795.26143	0.04405
2793.97566	0.04396
2792.68989	0.04384
2791.40412	0.04373
2790.11835	0.04368
2788.83259	0.04365
2787.54682	0.04358
2786.26105	0.04350
2784.97528	0.04353
2783.68951	0.04370
2782.40374	0.04391
2781.11797	0.04403
2779.83220	0.04401
2778.54643	0.04393
2777.26067	0.04382
2775.97490	0.04359
2774.68913	0.04321
2773.40336	0.04280
2772.11759	0.04250
2770.83182	0.04239
2769.54605	0.04238
2768.26028	0.04234
2766.97452	0.04222
2765.68875	0.04203
2764.40298	0.04186
2763.11721	0.04175
2761.83144	0.04171
2760.54567	0.04170
2759.25990	0.04166
2757.97413	0.04159
2756.68836	0.04152
2755.40260	0.04148
2754.11683	0.04146
2752.83106	0.04148
2751.54529	0.04155
2750.25952	0.04164
2748.97375	0.04167
2747.68798	0.04161
2746.40221	0.04154
2745.11645	0.04155
2743.83068	0.04162
2742.54491	0.04167
2741.25914	0.04165
2739.97337	0.04161
2738.68760	0.04157
2737.40183	0.04149
2736.11606	0.04130
2734.83029	0.04106
2733.54453	0.04090
2732.25876	0.04084
2730.97299	0.04079
2729.68722	0.04068
2728.40145	0.04060
2727.11568	0.04059
2725.82991	0.04056
2724.54414	0.04035
2723.25838	0.03997
2721.97261	0.03963
2720.68684	0.03950
2719.40107	0.03958
2718.11530	0.03973
2716.82953	0.03979
2715.54376	0.03972
2714.25799	0.03954
2712.97222	0.03936
2711.68646	0.03923
2710.40069	0.03919
2709.11492	0.03922
2707.82915	0.03928
2706.54338	0.03936
2705.25761	0.03941
2703.97184	0.03938
2702.68607	0.03922
2701.40031	0.03900
2700.11454	0.03888
2698.82877	0.03895
2697.54300	0.03911
2696.25723	0.03921
2694.97146	0.03917
2693.68569	0.03907
2692.39992	0.03892
2691.11415	0.03869
2689.82839	0.03834
2688.54262	0.03801
2687.25685	0.03790
2685.97108	0.03807
2684.68531	0.03839
2683.39954	0.03861
2682.11377	0.03862
2680.82800	0.03848
2679.54224	0.03833
2678.25647	0.03823
2676.97070	0.03820
2675.68493	0.03821
2674.39916	0.03821
2673.11339	0.03812
2671.82762	0.03789
2670.54185	0.03763
2669.25608	0.03747
2667.97032	0.03744
2666.68455	0.03748
2665.39878	0.03751
2664.11301	0.03750
2662.82724	0.03751
2661.54147	0.03753
2660.25570	0.03749
2658.96993	0.03732
2657.68417	0.03706
2656.39840	0.03685
2655.11263	0.03682
2653.82686	0.03690
2652.54109	0.03693
2651.25532	0.03676
2649.96955	0.03642
2648.68378	0.03606
2647.39801	0.03580
2646.11225	0.03560
2644.82648	0.03542
2643.54071	0.03527
2642.25494	0.03520
2640.96917	0.03515
2639.68340	0.03501
2638.39763	0.03482
2637.11186	0.03467
2635.82609	0.03460
2634.54033	0.03452
2633.25456	0.03435
2631.96879	0.03414
2630.68302	0.03397
2629.39725	0.03384
2628.11148	0.03371
2626.82571	0.03357
2625.53994	0.03348
2624.25418	0.03346
2622.96841	0.03348
2621.68264	0.03350
2620.39687	0.03349
2619.11110	0.03340
2617.82533	0.03314
2616.53956	0.03277
2615.25379	0.03253
2613.96802	0.03260
2612.68226	0.03291
2611.39649	0.03315
2610.11072	0.03314
2608.82495	0.03295
2607.53918	0.03267
2606.25341	0.03233
2604.96764	0.03195
2603.68187	0.03165
2602.39611	0.03158
2601.11034	0.03169
2599.82457	0.03175
2598.53880	0.03157
2597.25303	0.03125
2595.96726	0.03104
2594.68149	0.03105
2593.39572	0.03115
2592.10995	0.03116
2590.82419	0.03103
2589.53842	0.03086
2588.25265	0.03077
2586.96688	0.03079
2585.68111	0.03081
2584.39534	0.03068
2583.10957	0.03039
2581.82380	0.03016
2580.53804	0.03011
2579.25227	0.03020
2577.96650	0.03020
2576.68073	0.03005
2575.39496	0.02994
2574.10919	0.03008
2572.82342	0.03045
2571.53765	0.03079
2570.25188	0.03087
2568.96612	0.03067
2567.68035	0.03026
2566.39458	0.02978
2565.10881	0.02939
2563.82304	0.02921
2562.53727	0.02920
2561.25150	0.02924
2559.96573	0.02925
2558.67997	0.02926
2557.39420	0.02928
2556.10843	0.02932
2554.82266	0.02935
2553.53689	0.02940
2552.25112	0.02948
2550.96535	0.02958
2549.67958	0.02965
2548.39381	0.02957
2547.10805	0.02929
2545.82228	0.02886
2544.53651	0.02837
2543.25074	0.02803
2541.96497	0.02797
2540.67920	0.02825
2539.39343	0.02868
2538.10766	0.02897
2536.82190	0.02891
2535.53613	0.02855
2534.25036	0.02819
2532.96459	0.02814
2531.67882	0.02842
2530.39305	0.02881
2529.10728	0.02913
2527.82151	0.02930
2526.53574	0.02925
2525.24998	0.02891
2523.96421	0.02838
2522.67844	0.02789
2521.39267	0.02760
2520.10690	0.02753
2518.82113	0.02761
2517.53536	0.02773
2516.24959	0.02777
2514.96383	0.02771
2513.67806	0.02764
2512.39229	0.02764
2511.10652	0.02769
2509.82075	0.02772
2508.53498	0.02764
2507.24921	0.02740
2505.96344	0.02712
2504.67767	0.02703
2503.39191	0.02730
2502.10614	0.02773
2500.82037	0.02787
2499.53460	0.02751
2498.24883	0.02688
2496.96306	0.02641
2495.67729	0.02632
2494.39152	0.02653
2493.10576	0.02687
2491.81999	0.02725
2490.53422	0.02761
2489.24845	0.02785
2487.96268	0.02790
2486.67691	0.02788
2485.39114	0.02792
2484.10537	0.02800
2482.81960	0.02798
2481.53384	0.02780
2480.24807	0.02755
2478.96230	0.02739
2477.67653	0.02735
2476.39076	0.02732
2475.10499	0.02716
2473.81922	0.02690
2472.53345	0.02666
2471.24769	0.02654
2469.96192	0.02655
2468.67615	0.02664
2467.39038	0.02672
2466.10461	0.02671
2464.81884	0.02665
2463.53307	0.02667
2462.24730	0.02678
2460.96153	0.02689
2459.67577	0.02698
2458.39000	0.02718
2457.10423	0.02755
2455.81846	0.02786
2454.53269	0.02784
2453.24692	0.02748
2451.96115	0.02701
2450.67538	0.02665
2449.38962	0.02642
2448.10385	0.02628
2446.81808	0.02617
2445.53231	0.02609
2444.24654	0.02609
2442.96077	0.02621
2441.67500	0.02639
2440.38923	0.02646
2439.10346	0.02635
2437.81770	0.02615
2436.53193	0.02588
2435.24616	0.02553
2433.96039	0.02521
2432.67462	0.02517
2431.38885	0.02552
2430.10308	0.02606
2428.81731	0.02643
2427.53155	0.02645
2426.24578	0.02616
2424.96001	0.02572
2423.67424	0.02535
2422.38847	0.02524
2421.10270	0.02538
2419.81693	0.02560
2418.53116	0.02571
2417.24539	0.02567
2415.95963	0.02551
2414.67386	0.02528
2413.38809	0.02500
2412.10232	0.02473
2410.81655	0.02459
2409.53078	0.02464
2408.24501	0.02482
2406.95924	0.02498
2405.67347	0.02497
2404.38771	0.02478
2403.10194	0.02454
2401.81617	0.02442
2400.53040	0.02447
2399.24463	0.02432
2397.95886	0.02426
2396.67309	0.02430
2395.38732	0.02437
2394.10156	0.02448
2392.81579	0.02461
2391.53002	0.02475
2390.24425	0.02492
2388.95848	0.02509
2387.67271	0.02525
2386.38694	0.02539
2385.10117	0.02557
2383.81540	0.02584
2382.52964	0.02625
2381.24387	0.02675
2379.95810	0.02730
2378.67233	0.02788
2377.38656	0.02845
2376.10079	0.02894
2374.81502	0.02935
2373.52925	0.02962
2372.24349	0.02991
2370.95772	0.03019
2369.67195	0.03081
2368.38618	0.03162
2367.10041	0.03235
2365.81464	0.03265
2364.52887	0.03293
2363.24310	0.03317
2361.95733	0.03337
2360.67157	0.03337
2359.38580	0.03374
2358.10003	0.03416
2356.81426	0.03432
2355.52849	0.03412
2354.24272	0.03362
2352.95695	0.03316
2351.67118	0.03256
2350.38542	0.03192
2349.09965	0.03182
2347.81388	0.03240
2346.52811	0.03246
2345.24234	0.03188
2343.95657	0.03158
2342.67080	0.03207
2341.38503	0.03203
2340.09926	0.03113
2338.81350	0.03116
2337.52773	0.03229
2336.24196	0.03235
2334.95619	0.03169
2333.67042	0.03270
2332.38465	0.03494
2331.09888	0.03501
2329.81311	0.03467
2328.52735	0.03645
2327.24158	0.03634
2325.95581	0.03494
2324.67004	0.03506
2323.38427	0.03373
2322.09850	0.03075
2320.81273	0.02966
2319.52696	0.02819
2318.24119	0.02662
2316.95543	0.02662
2315.66966	0.02598
2314.38389	0.02509
2313.09812	0.02497
2311.81235	0.02447
2310.52658	0.02451
2309.24081	0.02470
2307.95504	0.02455
2306.66928	0.02477
2305.38351	0.02482
2304.09774	0.02496
2302.81197	0.02528
2301.52620	0.02545
2300.24043	0.02569
2298.95466	0.02574
2297.66889	0.02574
2296.38312	0.02573
2295.09736	0.02572
2293.81159	0.02576
2292.52582	0.02566
2291.24005	0.02541
2289.95428	0.02500
2288.66851	0.02458
2287.38274	0.02425
2286.09697	0.02398
2284.81121	0.02374
2283.52544	0.02344
2282.23967	0.02296
2280.95390	0.02216
2279.66813	0.02113
2278.38236	0.02026
2277.09659	0.01996
2275.81082	0.02025
2274.52505	0.02078
2273.23929	0.02114
2271.95352	0.02114
2270.66775	0.02088
2269.38198	0.02050
2268.09621	0.02015
2266.81044	0.01987
2265.52467	0.01963
2264.23890	0.01940
2262.95314	0.01918
2261.66737	0.01900
2260.38160	0.01900
2259.09583	0.01915
2257.81006	0.01926
2256.52429	0.01917
2255.23852	0.01896
2253.95275	0.01886
2252.66698	0.01917
2251.38122	0.01980
2250.09545	0.01990
2248.80968	0.01893
2247.52391	0.01886
2246.23814	0.01867
2244.95237	0.01839
2243.66660	0.01820
2242.38083	0.01841
2241.09507	0.01906
2239.80930	0.01953
2238.52353	0.01901
2237.23776	0.01745
2235.95199	0.01568
2234.66622	0.01461
2233.38045	0.01448
2232.09468	0.01506
2230.80891	0.01602
2229.52315	0.01704
2228.23738	0.01769
2226.95161	0.01775
2225.66584	0.01749
2224.38007	0.01731
2223.09430	0.01726
2221.80853	0.01708
2220.52276	0.01671
2219.23700	0.01637
2217.95123	0.01619
2216.66546	0.01603
2215.37969	0.01573
2214.09392	0.01540
2212.80815	0.01519
2211.52238	0.01494
2210.23661	0.01434
2208.95084	0.01339
2207.66508	0.01259
2206.37931	0.01243
2205.09354	0.01296
2203.80777	0.01367
2202.52200	0.01396
2201.23623	0.01358
2199.95046	0.01295
2198.66469	0.01279
2197.37893	0.01341
2196.09316	0.01433
2194.80739	0.01476
2193.52162	0.01446
2192.23585	0.01385
2190.95008	0.01347
2189.66431	0.01335
2188.37854	0.01320
2187.09277	0.01293
2185.80701	0.01270
2184.52124	0.01267
2183.23547	0.01267
2181.94970	0.01232
2180.66393	0.01141
2179.37816	0.01018
2178.09239	0.00926
2176.80662	0.00921
2175.52085	0.00999
2174.23509	0.01083
2172.94932	0.01103
2171.66355	0.01064
2170.37778	0.01030
2169.09201	0.01039
2167.80624	0.01078
2166.52047	0.01126
2165.23470	0.01186
2163.94894	0.01255
2162.66317	0.01277
2161.37740	0.01175
2160.09163	0.00951
2158.80586	0.00708
2157.52009	0.00560
2156.23432	0.00521
2154.94855	0.00537
2153.66278	0.00568
2152.37702	0.00608
2151.09125	0.00656
2149.80548	0.00693
2148.51971	0.00703
2147.23394	0.00683
2145.94817	0.00646
2144.66240	0.00616
2143.37663	0.00612
2142.09087	0.00642
2140.80510	0.00715
2139.51933	0.00834
2138.23356	0.00977
2136.94779	0.01085
2135.66202	0.01099
2134.37625	0.01018
2133.09048	0.00918
2131.80471	0.00881
2130.51895	0.00931
2129.23318	0.01024
2127.94741	0.01103
2126.66164	0.01151
2125.37587	0.01179
2124.09010	0.01198
2122.80433	0.01213
2121.51856	0.01233
2120.23280	0.01261
2118.94703	0.01284
2117.66126	0.01286
2116.37549	0.01268
2115.08972	0.01250
2113.80395	0.01248
2112.51818	0.01265
2111.23241	0.01295
2109.94664	0.01314
2108.66088	0.01300
2107.37511	0.01252
2106.08934	0.01192
2104.80357	0.01138
2103.51780	0.01097
2102.23203	0.01074
2100.94626	0.01068
2099.66049	0.00995
2098.37473	0.00943
2097.08896	0.00908
2095.80319	0.00889
2094.51742	0.00909
2093.23165	0.00980
2091.94588	0.01076
2090.66011	0.01164
2089.37434	0.01225
2088.08857	0.01259
2086.80281	0.01271
2085.51704	0.01257
2084.23127	0.01217
2082.94550	0.01166
2081.65973	0.01126
2080.37396	0.01098
2079.08819	0.01070
2077.80242	0.01039
2076.51666	0.01019
2075.23089	0.01026
2073.94512	0.01054
2072.65935	0.01077
2071.37358	0.01078
2070.08781	0.01052
2068.80204	0.01007
2067.51627	0.00952
2066.23050	0.00896
2064.94474	0.00852
2063.65897	0.00829
2062.37320	0.00825
2061.08743	0.00831
2059.80166	0.00848
2058.51589	0.00884
2057.23012	0.00934
2055.94435	0.00978
2054.65859	0.00988
2053.37282	0.00945
2052.08705	0.00845
2050.80128	0.00699
2049.51551	0.00540
2048.22974	0.00410
2046.94397	0.00341
2045.65820	0.00327
2044.37243	0.00329
2043.08667	0.00293
2041.80090	0.00208
2040.51513	0.00121
2039.22936	0.00094
2037.94359	0.00136
2036.65782	0.00195
2035.37205	0.00211
2034.08628	0.00166
2032.80052	0.00090
2031.51475	0.00035
2030.22898	0.00042
2028.94321	0.00106
2027.65744	0.00191
2026.37167	0.00264
2025.08590	0.00308
2023.80013	0.00312
2022.51436	0.00280
2021.22860	0.00255
2019.94283	0.00292
2018.65706	0.00389
2017.37129	0.00475
2016.08552	0.00481
2014.79975	0.00411
2013.51398	0.00328
2012.22821	0.00286
2010.94245	0.00280
2009.65668	0.00275
2008.37091	0.00266
2007.08514	0.00293
2005.79937	0.00393
2004.51360	0.00548
2003.22783	0.00695
2001.94206	0.00776
2000.65629	0.00785
1999.37053	0.00756
1998.08476	0.00738
1996.79899	0.00763
1995.51322	0.00837
1994.22745	0.00943
1992.94168	0.01048
1991.65591	0.01117
1990.37014	0.01133
1989.08438	0.01116
1987.79861	0.01088
1986.51284	0.01045
1985.22707	0.00973
1983.94130	0.00884
1982.65553	0.00815
1981.36976	0.00789
1980.08399	0.00786
1978.79822	0.00758
1977.51246	0.00668
1976.22669	0.00533
1974.94092	0.00421
1973.65515	0.00409
1972.36938	0.00517
1971.08361	0.00673
1969.79784	0.00761
1968.51207	0.00718
1967.22631	0.00595
1965.94054	0.00504
1964.65477	0.00520
1963.36900	0.00625
1962.08323	0.00756
1960.79746	0.00867
1959.51169	0.00961
1958.22592	0.01058
1956.94015	0.01151
1955.65439	0.01212
1954.36862	0.01223
1953.08285	0.01211
1951.79708	0.01212
1950.51131	0.01223
1949.22554	0.01214
1947.93977	0.01175
1946.65400	0.01129
1945.36823	0.01098
1944.08247	0.01076
1942.79670	0.01051
1941.51093	0.01015
1940.22516	0.00967
1938.93939	0.00916
1937.65362	0.00881
1936.36785	0.00880
1935.08208	0.00919
1933.79632	0.00988
1932.51055	0.01072
1931.22478	0.01147
1929.93901	0.01184
1928.65324	0.01170
1927.36747	0.01122
1926.08170	0.01078
1924.79593	0.01074
1923.51016	0.01116
1922.22440	0.01173
1920.93863	0.01207
1919.65286	0.01207
1918.36709	0.01191
1917.08132	0.01181
1915.79555	0.01176
1914.50978	0.01170
1913.22401	0.01164
1911.93825	0.01165
1910.65248	0.01182
1909.36671	0.01209
1908.08094	0.01234
1906.79517	0.01252
1905.50940	0.01265
1904.22363	0.01278
1902.93786	0.01289
1901.65209	0.01289
1900.36633	0.01283
1899.08056	0.01277
1897.79479	0.01274
1896.50902	0.01264
1895.22325	0.01244
1893.93748	0.01227
1892.65171	0.01224
1891.36594	0.01238
1890.08018	0.01265
1888.79441	0.01300
1887.50864	0.01338
1886.22287	0.01365
1884.93710	0.01369
1883.65133	0.01351
1882.36556	0.01327
1881.07979	0.01308
1879.79402	0.01296
1878.50826	0.01284
1877.22249	0.01271
1875.93672	0.01263
1874.65095	0.01268
1873.36518	0.01286
1872.07941	0.01305
1870.79364	0.01314
1869.50787	0.01313
1868.22211	0.01312
1866.93634	0.01317
1865.65057	0.01327
1864.36480	0.01340
1863.07903	0.01356
1861.79326	0.01365
1860.50749	0.01354
1859.22172	0.01328
1857.93595	0.01305
1856.65019	0.01303
1855.36442	0.01314
1854.07865	0.01320
1852.79288	0.01318
1851.50711	0.01321
1850.22134	0.01338
1848.93557	0.01362
1847.64980	0.01379
1846.36404	0.01380
1845.07827	0.01375
1843.79250	0.01374
1842.50673	0.01380
1841.22096	0.01386
1839.93519	0.01385
1838.64942	0.01376
1837.36365	0.01364
1836.07788	0.01357
1834.79212	0.01357
1833.50635	0.01363
1832.22058	0.01368
1830.93481	0.01368
1829.64904	0.01366
1828.36327	0.01362
1827.07750	0.01353
1825.79173	0.01342
1824.50597	0.01333
1823.22020	0.01326
1821.93443	0.01316
1820.64866	0.01300
1819.36289	0.01289
1818.07712	0.01300
1816.79135	0.01337
1815.50558	0.01385
1814.21981	0.01424
1812.93405	0.01443
1811.64828	0.01445
1810.36251	0.01443
1809.07674	0.01444
1807.79097	0.01450
1806.50520	0.01463
1805.21943	0.01479
1803.93366	0.01491
1802.64790	0.01491
1801.36213	0.01481
1800.07636	0.01472
1798.79059	0.01469
1797.50482	0.01475
1796.21905	0.01484
1794.93328	0.01486
1793.64751	0.01477
1792.36174	0.01462
1791.07598	0.01450
1789.79021	0.01447
1788.50444	0.01452
1787.21867	0.01464
1785.93290	0.01480
1784.64713	0.01498
1783.36136	0.01515
1782.07559	0.01525
1780.78983	0.01527
1779.50406	0.01524
1778.21829	0.01520
1776.93252	0.01517
1775.64675	0.01519
1774.36098	0.01527
1773.07521	0.01543
1771.78944	0.01566
1770.50367	0.01590
1769.21791	0.01605
1767.93214	0.01612
1766.64637	0.01615
1765.36060	0.01613
1764.07483	0.01602
1762.78906	0.01591
1761.50329	0.01593
1760.21752	0.01611
1758.93176	0.01636
1757.64599	0.01656
1756.36022	0.01667
1755.07445	0.01672
1753.78868	0.01671
1752.50291	0.01669
1751.21714	0.01669
1749.93137	0.01669
1748.64560	0.01666
1747.35984	0.01662
1746.07407	0.01664
1744.78830	0.01676
1743.50253	0.01693
1742.21676	0.01707
1740.93099	0.01716
1739.64522	0.01723
1738.35945	0.01730
1737.07369	0.01733
1735.78792	0.01729
1734.50215	0.01730
1733.21638	0.01749
1731.93061	0.01783
1730.64484	0.01818
1729.35907	0.01844
1728.07330	0.01861
1726.78753	0.01874
1725.50177	0.01886
1724.21600	0.01903
1722.93023	0.01926
1721.64446	0.01947
1720.35869	0.01955
1719.07292	0.01955
1717.78715	0.01960
1716.50138	0.01985
1715.21561	0.02024
1713.92985	0.02067
1712.64408	0.02109
1711.35831	0.02150
1710.07254	0.02188
1708.78677	0.02222
1707.50100	0.02254
1706.21523	0.02288
1704.92946	0.02325
1703.64370	0.02359
1702.35793	0.02381
1701.07216	0.02400
1699.78639	0.02434
1698.50062	0.02478
1697.21485	0.02519
1695.92908	0.02558
1694.64331	0.02610
1693.35754	0.02667
1692.07178	0.02713
1690.78601	0.02744
1689.50024	0.02768
1688.21447	0.02792
1686.92870	0.02815
1685.64293	0.02840
1684.35716	0.02877
1683.07139	0.02928
1681.78563	0.02979
1680.49986	0.03021
1679.21409	0.03056
1677.92832	0.03091
1676.64255	0.03126
1675.35678	0.03166
1674.07101	0.03208
1672.78524	0.03245
1671.49947	0.03273
1670.21371	0.03301
1668.92794	0.03339
1667.64217	0.03386
1666.35640	0.03431
1665.07063	0.03467
1663.78486	0.03497
1662.49909	0.03529
1661.21332	0.03566
1659.92756	0.03604
1658.64179	0.03640
1657.35602	0.03669
1656.07025	0.03682
1654.78448	0.03677
1653.49871	0.03674
1652.21294	0.03694
1650.92717	0.03732
1649.64140	0.03765
1648.35564	0.03780
1647.06987	0.03788
1645.78410	0.03800
1644.49833	0.03817
1643.21256	0.03833
1641.92679	0.03847
1640.64102	0.03858
1639.35525	0.03865
1638.06949	0.03863
1636.78372	0.03855
1635.49795	0.03850
1634.21218	0.03854
1632.92641	0.03862
1631.64064	0.03868
1630.35487	0.03872
1629.06910	0.03881
1627.78333	0.03897
1626.49757	0.03916
1625.21180	0.03929
1623.92603	0.03933
1622.64026	0.03931
1621.35449	0.03929
1620.06872	0.03927
1618.78295	0.03926
1617.49718	0.03933
1616.21142	0.03952
1614.92565	0.03981
1613.63988	0.04009
1612.35411	0.04032
1611.06834	0.04054
1609.78257	0.04074
1608.49680	0.04089
1607.21103	0.04097
1605.92526	0.04104
1604.63950	0.04119
1603.35373	0.04147
1602.06796	0.04183
1600.78219	0.04218
1599.49642	0.04244
1598.21065	0.04261
1596.92488	0.04271
1595.63911	0.04279
1594.35335	0.04289
1593.06758	0.04303
1591.78181	0.04322
1590.49604	0.04343
1589.21027	0.04367
1587.92450	0.04395
1586.63873	0.04425
1585.35296	0.04455
1584.06719	0.04480
1582.78143	0.04501
1581.49566	0.04521
1580.20989	0.04544
1578.92412	0.04568
1577.63835	0.04590
1576.35258	0.04620
1575.06681	0.04662
1573.78104	0.04706
1572.49528	0.04738
1571.20951	0.04756
1569.92374	0.04772
1568.63797	0.04794
1567.35220	0.04819
1566.06643	0.04841
1564.78066	0.04860
1563.49489	0.04878
1562.20912	0.04891
1560.92336	0.04895
1559.63759	0.04901
1558.35182	0.04923
1557.06605	0.04956
1555.78028	0.04985
1554.49451	0.05004
1553.20874	0.05020
1551.92297	0.05034
1550.63721	0.05046
1549.35144	0.05056
1548.06567	0.05066
1546.77990	0.05071
1545.49413	0.05068
1544.20836	0.05057
1542.92259	0.05036
1541.63682	0.05011
1540.35105	0.04989
1539.06529	0.04983
1537.77952	0.04991
1536.49375	0.05001
1535.20798	0.05008
1533.92221	0.05017
1532.63644	0.05041
1531.35067	0.05076
1530.06490	0.05117
1528.77914	0.05158
1527.49337	0.05200
1526.20760	0.05249
1524.92183	0.05307
1523.63606	0.05375
1522.35029	0.05451
1521.06452	0.05541
1519.77875	0.05645
1518.49298	0.05758
1517.20722	0.05875
1515.92145	0.05996
1514.63568	0.06120
1513.34991	0.06247
1512.06414	0.06383
1510.77837	0.06529
1509.49260	0.06676
1508.20683	0.06817
1506.92107	0.06955
1505.63530	0.07099
1504.34953	0.07248
1503.06376	0.07387
1501.77799	0.07509
1500.49222	0.07618
1499.20645	0.07716
1497.92068	0.07808
1496.63491	0.07898
1495.34915	0.07992
1494.06338	0.08089
1492.77761	0.08184
1491.49184	0.08273
1490.20607	0.08361
1488.92030	0.08456
1487.63453	0.08564
1486.34876	0.08685
1485.06299	0.08818
1483.77723	0.08957
1482.49146	0.09098
1481.20569	0.09239
1479.91992	0.09380
1478.63415	0.09516
1477.34838	0.09644
1476.06261	0.09758
1474.77684	0.09858
1473.49108	0.09946
1472.20531	0.10028
1470.91954	0.10102
1469.63377	0.10160
1468.34800	0.10197
1467.06223	0.10221
1465.77646	0.10241
1464.49069	0.10270
1463.20492	0.10310
1461.91916	0.10354
1460.63339	0.10391
1459.34762	0.10421
1458.06185	0.10449
1456.77608	0.10484
1455.49031	0.10525
1454.20454	0.10562
1452.91877	0.10592
1451.63301	0.10622
1450.34724	0.10653
1449.06147	0.10676
1447.77570	0.10685
1446.48993	0.10679
1445.20416	0.10660
1443.91839	0.10630
1442.63262	0.10593
1441.34685	0.10554
1440.06109	0.10517
1438.77532	0.10484
1437.48955	0.10469
1436.20378	0.10485
1434.91801	0.10536
1433.63224	0.10612
1432.34647	0.10705
1431.06070	0.10817
1429.77494	0.10954
1428.48917	0.11116
1427.20340	0.11296
1425.91763	0.11484
1424.63186	0.11672
1423.34609	0.11858
1422.06032	0.12036
1420.77455	0.12199
1419.48878	0.12347
1418.20302	0.12478
1416.91725	0.12584
1415.63148	0.12662
1414.34571	0.12711
1413.05994	0.12738
1411.77417	0.12740
1410.48840	0.12718
1409.20263	0.12669
1407.91687	0.12593
1406.63110	0.12486
1405.34533	0.12345
1404.05956	0.12172
1402.77379	0.11976
1401.48802	0.11763
1400.20225	0.11538
1398.91648	0.11302
1397.63071	0.11053
1396.34495	0.10794
1395.05918	0.10527
1393.77341	0.10257
1392.48764	0.09990
1391.20187	0.09727
1389.91610	0.09471
1388.63033	0.09222
1387.34456	0.08976
1386.05880	0.08731
1384.77303	0.08488
1383.48726	0.08246
1382.20149	0.08005
1380.91572	0.07765
1379.62995	0.07524
1378.34418	0.07283
1377.05841	0.07042
1375.77264	0.06799
1374.48688	0.06553
1373.20111	0.06309
1371.91534	0.06070
1370.62957	0.05842
1369.34380	0.05630
1368.05803	0.05434
1366.77226	0.05252
1365.48649	0.05080
1364.20073	0.04916
1362.91496	0.04763
1361.62919	0.04622
1360.34342	0.04493
1359.05765	0.04374
1357.77188	0.04261
1356.48611	0.04155
1355.20034	0.04053
1353.91457	0.03956
1352.62881	0.03863
1351.34304	0.03773
1350.05727	0.03689
1348.77150	0.03613
1347.48573	0.03544
1346.19996	0.03478
1344.91419	0.03415
1343.62842	0.03356
1342.34266	0.03299
1341.05689	0.03245
1339.77112	0.03192
1338.48535	0.03140
1337.19958	0.03093
1335.91381	0.03052
1334.62804	0.03016
1333.34227	0.02980
1332.05650	0.02941
1330.77074	0.02902
1329.48497	0.02864
1328.19920	0.02831
1326.91343	0.02801
1325.62766	0.02771
1324.34189	0.02742
1323.05612	0.02715
1321.77035	0.02690
1320.48459	0.02669
1319.19882	0.02648
1317.91305	0.02626
1316.62728	0.02604
1315.34151	0.02583
1314.05574	0.02562
1312.76997	0.02539
1311.48420	0.02513
1310.19843	0.02488
1308.91267	0.02466
1307.62690	0.02446
1306.34113	0.02430
1305.05536	0.02415
1303.76959	0.02401
1302.48382	0.02385
1301.19805	0.02365
1299.91228	0.02345
1298.62652	0.02326
1297.34075	0.02308
1296.05498	0.02292
1294.76921	0.02279
1293.48344	0.02271
1292.19767	0.02268
1290.91190	0.02264
1289.62613	0.02254
1288.34036	0.02238
1287.05460	0.02219
1285.76883	0.02200
1284.48306	0.02183
1283.19729	0.02172
1281.91152	0.02166
1280.62575	0.02165
1279.33998	0.02162
1278.05421	0.02153
1276.76845	0.02137
1275.48268	0.02116
1274.19691	0.02095
1272.91114	0.02079
1271.62537	0.02070
1270.33960	0.02070
1269.05383	0.02074
1267.76806	0.02075
1266.48229	0.02069
1265.19653	0.02055
1263.91076	0.02037
1262.62499	0.02018
1261.33922	0.02003
1260.05345	0.01993
1258.76768	0.01984
1257.48191	0.01976
1256.19614	0.01968
1254.91037	0.01962
1253.62461	0.01961
1252.33884	0.01964
1251.05307	0.01968
1249.76730	0.01969
1248.48153	0.01964
1247.19576	0.01955
1245.90999	0.01943
1244.62422	0.01929
1243.33846	0.01915
1242.05269	0.01904
1240.76692	0.01896
1239.48115	0.01890
1238.19538	0.01885
1236.90961	0.01881
1235.62384	0.01877
1234.33807	0.01870
1233.05230	0.01861
1231.76654	0.01852
1230.48077	0.01843
1229.19500	0.01836
1227.90923	0.01831
1226.62346	0.01824
1225.33769	0.01817
1224.05192	0.01811
1222.76615	0.01806
1221.48039	0.01801
1220.19462	0.01794
1218.90885	0.01787
1217.62308	0.01783
1216.33731	0.01782
1215.05154	0.01783
1213.76577	0.01782
1212.48000	0.01778
1211.19423	0.01773
1209.90847	0.01770
1208.62270	0.01771
1207.33693	0.01773
1206.05116	0.01774
1204.76539	0.01771
1203.47962	0.01763
1202.19385	0.01752
1200.90808	0.01744
1199.62232	0.01748
1198.33655	0.01752
1197.05078	0.01760
1195.76501	0.01767
1194.47924	0.01770
1193.19347	0.01771
1191.90770	0.01773
1190.62193	0.01774
1189.33616	0.01773
1188.05040	0.01768
1186.76463	0.01760
1185.47886	0.01750
1184.19309	0.01744
1182.90732	0.01748
1181.62155	0.01762
1180.33578	0.01781
1179.05001	0.01798
1177.76425	0.01813
1176.47848	0.01827
1175.19271	0.01845
1173.90694	0.01864
1172.62117	0.01886
1171.33540	0.01910
1170.04963	0.01936
1168.76386	0.01962
1167.47809	0.01985
1166.19233	0.02006
1164.90656	0.02026
1163.62079	0.02045
1162.33502	0.02064
1161.04925	0.02089
1159.76348	0.02120
1158.47771	0.02156
1157.19194	0.02195
1155.90618	0.02242
1154.62041	0.02297
1153.33464	0.02355
1152.04887	0.02411
1150.76310	0.02465
1149.47733	0.02524
1148.19156	0.02596
1146.90579	0.02682
1145.62002	0.02778
1144.33426	0.02877
1143.04849	0.02979
1141.76272	0.03087
1140.47695	0.03206
1139.19118	0.03336
1137.90541	0.03478
1136.61964	0.03632
1135.33387	0.03804
1134.04811	0.03997
1132.76234	0.04213
1131.47657	0.04451
1130.19080	0.04710
1128.90503	0.04992
1127.61926	0.05299
1126.33349	0.05629
1125.04772	0.05979
1123.76195	0.06345
1122.47619	0.06728
1121.19042	0.07122
1119.90465	0.07526
1118.61888	0.07937
1117.33311	0.08357
1116.04734	0.08785
1114.76157	0.09218
1113.47580	0.09648
1112.19004	0.10073
1110.90427	0.10492
1109.61850	0.10905
1108.33273	0.11310
1107.04696	0.11707
1105.76119	0.12103
1104.47542	0.12505
1103.18965	0.12912
1101.90388	0.13313
1100.61812	0.13694
1099.33235	0.14051
1098.04658	0.14390
1096.76081	0.14724
1095.47504	0.15057
1094.18927	0.15382
1092.90350	0.15688
1091.61773	0.15972
1090.33197	0.16238
1089.04620	0.16497
1087.76043	0.16752
1086.47466	0.17007
1085.18889	0.17267
1083.90312	0.17537
1082.61735	0.17823
1081.33158	0.18127
1080.04581	0.18446
1078.76005	0.18778
1077.47428	0.19123
1076.18851	0.19480
1074.90274	0.19853
1073.61697	0.20243
1072.33120	0.20648
1071.04543	0.21067
1069.75966	0.21499
1068.47390	0.21945
1067.18813	0.22404
1065.90236	0.22876
1064.61659	0.23355
1063.33082	0.23836
1062.04505	0.24317
1060.75928	0.24795
1059.47351	0.25267
1058.18774	0.25732
1056.90198	0.26193
1055.61621	0.26655
1054.33044	0.27119
1053.04467	0.27581
1051.75890	0.28040
1050.47313	0.28507
1049.18736	0.28990
1047.90159	0.29490
1046.61583	0.30006
1045.33006	0.30537
1044.04429	0.31081
1042.75852	0.31634
1041.47275	0.32196
1040.18698	0.32766
1038.90121	0.33343
1037.61544	0.33922
1036.32967	0.34496
1035.04391	0.35065
1033.75814	0.35625
1032.47237	0.36161
1031.18660	0.36658
1029.90083	0.37107
1028.61506	0.37507
1027.32929	0.37865
1026.04352	0.38186
1024.75775	0.38469
1023.47199	0.38706
1022.18622	0.38884
1020.90045	0.38993
1019.61468	0.39030
1018.32891	0.38993
1017.04314	0.38880
1015.75737	0.38691
1014.47160	0.38425
1013.18584	0.38078
1011.90007	0.37645
1010.61430	0.37121
1009.32853	0.36507
1008.04276	0.35814
1006.75699	0.35052
1005.47122	0.34232
1004.18545	0.33350
1002.89968	0.32405
1001.61392	0.31398
1000.32815	0.30345
999.04238	0.29259
997.75661	0.28152
996.47084	0.27028
995.18507	0.25894
993.89930	0.24761
992.61353	0.23646
991.32777	0.22560
990.04200	0.21511
988.75623	0.20502
987.47046	0.19536
986.18469	0.18617
984.89892	0.17751
983.61315	0.16940
982.32738	0.16182
981.04161	0.15474
979.75585	0.14815
978.47008	0.14209
977.18431	0.13660
975.89854	0.13172
974.61277	0.12753
973.32700	0.12410
972.04123	0.12146
970.75546	0.11960
969.46970	0.11856
968.18393	0.11840
966.89816	0.11906
965.61239	0.12032
964.32662	0.12183
963.04085	0.12321
961.75508	0.12407
960.46931	0.12412
959.18354	0.12318
957.89778	0.12129
956.61201	0.11864
955.32624	0.11545
954.04047	0.11192
952.75470	0.10818
951.46893	0.10440
950.18316	0.10073
948.89739	0.09726
947.61163	0.09399
946.32586	0.09087
945.04009	0.08786
943.75432	0.08495
942.46855	0.08213
941.18278	0.07946
939.89701	0.07698
938.61124	0.07470
937.32547	0.07256
936.03971	0.07056
934.75394	0.06872
933.46817	0.06703
932.18240	0.06546
930.89663	0.06398
929.61086	0.06259
928.32509	0.06135
927.03932	0.06028
925.75356	0.05932
924.46779	0.05835
923.18202	0.05733
921.89625	0.05634
920.61048	0.05547
919.32471	0.05473
918.03894	0.05403
916.75317	0.05333
915.46740	0.05263
914.18164	0.05197
912.89587	0.05137
911.61010	0.05079
910.32433	0.05025
909.03856	0.04978
907.75279	0.04941
906.46702	0.04911
905.18125	0.04878
903.89549	0.04838
902.60972	0.04792
901.32395	0.04747
900.03818	0.04707
898.75241	0.04674
897.46664	0.04647
896.18087	0.04624
894.89510	0.04608
893.60933	0.04604
892.32357	0.04621
891.03780	0.04655
889.75203	0.04697
888.46626	0.04745
887.18049	0.04818
885.89472	0.04952
884.60895	0.05177
883.32318	0.05498
882.03742	0.05880
880.75165	0.06264
879.46588	0.06592
878.18011	0.06845
876.89434	0.07055
875.60857	0.07271
874.32280	0.07498
873.03703	0.07687
871.75126	0.07772
870.46550	0.07724
869.17973	0.07558
867.89396	0.07308
866.60819	0.07007
865.32242	0.06683
864.03665	0.06365
862.75088	0.06069
861.46511	0.05800
860.17935	0.05557
858.89358	0.05344
857.60781	0.05166
856.32204	0.05024
855.03627	0.04913
853.75050	0.04822
852.46473	0.04738
851.17896	0.04660
849.89319	0.04594
848.60743	0.04542
847.32166	0.04500
846.03589	0.04460
844.75012	0.04419
843.46435	0.04375
842.17858	0.04332
840.89281	0.04293
839.60704	0.04257
838.32128	0.04224
837.03551	0.04196
835.74974	0.04173
834.46397	0.04150
833.17820	0.04127
831.89243	0.04108
830.60666	0.04092
829.32089	0.04076
828.03512	0.04057
826.74936	0.04040
825.46359	0.04032
824.17782	0.04031
822.89205	0.04027
821.60628	0.04016
820.32051	0.03998
819.03474	0.03976
817.74897	0.03955
816.46321	0.03938
815.17744	0.03923
813.89167	0.03911
812.60590	0.03900
811.32013	0.03892
810.03436	0.03885
808.74859	0.03882
807.46282	0.03884
806.17705	0.03882
804.89129	0.03872
803.60552	0.03854
802.31975	0.03840
801.03398	0.03837
799.74821	0.03840
798.46244	0.03843
797.17667	0.03841
795.89090	0.03834
794.60513	0.03823
793.31937	0.03807
792.03360	0.03793
790.74783	0.03785
789.46206	0.03785
788.17629	0.03785
786.89052	0.03781
785.60475	0.03774
784.31898	0.03767
783.03322	0.03758
781.74745	0.03745
780.46168	0.03731
779.17591	0.03722
777.89014	0.03721
776.60437	0.03725
775.31860	0.03727
774.03283	0.03722
772.74706	0.03715
771.46130	0.03712
770.17553	0.03715
768.88976	0.03725
767.60399	0.03738
766.31822	0.03749
765.03245	0.03758
763.74668	0.03767
762.46091	0.03778
761.17515	0.03791
759.88938	0.03803
758.60361	0.03810
757.31784	0.03811
756.03207	0.03808
754.74630	0.03803
753.46053	0.03800
752.17476	0.03800
750.88899	0.03799
749.60323	0.03792
748.31746	0.03777
747.03169	0.03759
745.74592	0.03743
744.46015	0.03734
743.17438	0.03730
741.88861	0.03729
740.60284	0.03729
739.31708	0.03729
738.03131	0.03731
736.74554	0.03737
735.45977	0.03743
734.17400	0.03747
732.88823	0.03750
731.60246	0.03753
730.31669	0.03754
729.03092	0.03752
727.74516	0.03750
726.45939	0.03753
725.17362	0.03760
723.88785	0.03799
722.60208	0.03759
721.31631	0.03682
720.03054	0.03623
718.74477	0.03593
717.45901	0.03590
716.17324	0.03609
714.88747	0.03641
713.60170	0.03677
712.31593	0.03709
711.03016	0.03731
709.74439	0.03745
708.45862	0.03753
707.17285	0.03754
705.88709	0.03749
704.60132	0.03740
703.31555	0.03728
702.02978	0.03718
700.74401	0.03709
699.45824	0.03695
698.17247	0.03675
696.88670	0.03651
695.60094	0.03630
694.31517	0.03618
693.02940	0.03617
691.74363	0.03622
690.45786	0.03627
689.17209	0.03630
687.88632	0.03634
686.60055	0.03642
685.31478	0.03653
684.02902	0.03662
682.74325	0.03667
681.45748	0.03667
680.17171	0.03667
678.88594	0.03673
677.60017	0.03683
676.31440	0.03693
675.02863	0.03700
673.74287	0.03709
672.45710	0.03717
671.17133	0.03713
669.88556	0.03702
668.59979	0.03735
667.31402	0.03744
666.02825	0.03690
664.74248	0.03689
663.45671	0.03684
662.17095	0.03665
660.88518	0.03650
659.59941	0.03641
658.31364	0.03632
657.02787	0.03617
655.74210	0.03599
654.45633	0.03582
653.17056	0.03573
651.88480	0.03571
650.59903	0.03579
649.31326	0.03593
648.02749	0.03606
646.74172	0.03617
645.45595	0.03621
644.17018	0.03621
642.88441	0.03622
641.59864	0.03632
640.31288	0.03658
639.02711	0.03698
637.74134	0.03751
636.45557	0.03812
635.16980	0.03881
633.88403	0.03956
632.59826	0.04035
631.31249	0.04102
630.02673	0.04111
628.74096	0.04091
627.45519	0.04200
626.16942	0.04170
624.88365	0.04051
623.59788	0.03973
622.31211	0.04047
621.02634	0.04364
619.74057	0.04930
618.45481	0.05637
617.16904	0.06355
615.88327	0.07010
614.59750	0.07572
613.31173	0.08022
612.02596	0.08364
610.74019	0.08702
609.45442	0.09215
608.16866	0.09994
606.88289	0.10933
605.59712	0.11828
604.31135	0.12502
603.02558	0.12878
601.73981	0.12976
600.45404	0.12872
599.16827	0.12641
597.88250	0.12327
596.59674	0.11961
595.31097	0.11581
594.02520	0.11230
592.73943	0.10937
591.45366	0.10717
590.16789	0.10577
588.88212	0.10529
587.59635	0.10576
586.31059	0.10710
585.02482	0.10916
583.73905	0.11176
582.45328	0.11482
581.16751	0.11827
579.88174	0.12208
578.59597	0.12615
577.31020	0.13029
576.02443	0.13433
574.73867	0.13818
573.45290	0.14187
572.16713	0.14557
570.88136	0.14952
569.59559	0.15392
568.30982	0.15886
567.02405	0.16418
565.73828	0.16957
564.45251	0.17460
563.16675	0.17865
561.88098	0.18090
560.59521	0.18064
559.30944	0.17754
558.02367	0.17184
556.73790	0.16420
555.45213	0.15539
554.16636	0.14618
552.88060	0.13708
551.59483	0.12835
550.30906	0.12012
549.02329	0.11251
547.73752	0.10572
546.45175	0.09987
545.16598	0.09480
543.88021	0.09021
542.59444	0.08593
541.30868	0.08200
540.02291	0.07856
538.73714	0.07560
537.45137	0.07291
536.16560	0.07030
534.87983	0.06775
533.59406	0.06539
532.30829	0.06333
531.02253	0.06148
529.73676	0.05969
528.45099	0.05789
527.16522	0.05612
525.87945	0.05446
524.59368	0.05295
523.30791	0.05159
522.02214	0.05036
520.73637	0.04923
519.45061	0.04814
518.16484	0.04705
516.87907	0.04597
515.59330	0.04492
514.30753	0.04393
513.02176	0.04302
511.73599	0.04219
510.45022	0.04145
509.16446	0.04085
507.87869	0.04038
506.59292	0.03993
505.30715	0.03939
504.02138	0.03872
502.73561	0.03804
501.44984	0.03748
500.16407	0.03707
498.87830	0.03677
497.59254	0.03649
496.30677	0.03619
495.02100	0.03586
493.73523	0.03550
492.44946	0.03519
491.16369	0.03496
489.87792	0.03482
488.59215	0.03471
487.30639	0.03463
486.02062	0.03460
484.73485	0.03462
483.44908	0.03468
482.16331	0.03476
480.87754	0.03486
479.59177	0.03500
478.30600	0.03520
477.02023	0.03548
475.73447	0.03581
474.44870	0.03615
473.16293	0.03643
471.87716	0.03660
470.59139	0.03664
469.30562	0.03653
468.01985	0.03628
466.73408	0.03593
465.44832	0.03554
464.16255	0.03516
462.87678	0.03481
461.59101	0.03446
460.30524	0.03410
459.01947	0.03370
457.73370	0.03328
456.44793	0.03283
455.16216	0.03239
453.87640	0.03202
452.59063	0.03173
451.30486	0.03148
450.01909	0.03124
448.73332	0.03101
447.44755	0.03085
446.16178	0.03078
444.87601	0.03076
443.59025	0.03071
442.30448	0.03058
441.01871	0.03039
439.73294	0.03022
438.44717	0.03009
437.16140	0.02999
435.87563	0.02989
434.58986	0.02979
433.30409	0.02974
432.01833	0.02977
430.73256	0.02986
429.44679	0.02993
428.16102	0.02990
426.87525	0.02978
425.58948	0.02961
424.30371	0.02945
423.01794	0.02932
421.73218	0.02920
420.44641	0.02906
419.16064	0.02893
417.87487	0.02885
416.58910	0.02880
415.30333	0.02878
414.01756	0.02880
412.73179	0.02885
411.44602	0.02891
410.16026	0.02897
408.87449	0.02904
407.58872	0.02915
406.30295	0.02929
405.01718	0.02941
403.73141	0.02948
402.44564	0.02952
401.15987	0.02957
399.87411	0.02965
