3997.45528	0.05307
3996.16951	0.05266
3994.88374	0.05258
3993.59798	0.05289
3992.31221	0.05334
3991.02644	0.05360
3989.74067	0.05354
3988.45490	0.05329
3987.16913	0.05311
3985.88336	0.05324
3984.59759	0.05379
3983.31183	0.05461
3982.02606	0.05534
3980.74029	0.05567
3979.45452	0.05545
3978.16875	0.05487
3976.88298	0.05441
3975.59721	0.05435
3974.31144	0.05440
3973.02567	0.05385
3971.73991	0.05242
3970.45414	0.05062
3969.16837	0.04938
3967.88260	0.04930
3966.59683	0.05024
3965.31106	0.05147
3964.02529	0.05219
3962.73952	0.05209
3961.45376	0.05158
3960.16799	0.05138
3958.88222	0.05185
3957.59645	0.05279
3956.31068	0.05376
3955.02491	0.05454
3953.73914	0.05497
3952.45337	0.05484
3951.16760	0.05403
3949.88184	0.05272
3948.59607	0.05133
3947.31030	0.05020
3946.02453	0.04958
3944.73876	0.04959
3943.45299	0.05021
3942.16722	0.05120
3940.88145	0.05219
3939.59569	0.05281
3938.30992	0.05275
3937.02415	0.05202
3935.73838	0.05104
3934.45261	0.05033
3933.16684	0.05020
3931.88107	0.05058
3930.59530	0.05125
3929.30953	0.05192
3928.02377	0.05222
3926.73800	0.05203
3925.45223	0.05166
3924.16646	0.05170
3922.88069	0.05254
3921.59492	0.05401
3920.30915	0.05541
3919.02338	0.05606
3917.73762	0.05579
3916.45185	0.05495
3915.16608	0.05397
3913.88031	0.05308
3912.59454	0.05236
3911.30877	0.05189
3910.02300	0.05164
3908.73723	0.05141
3907.45146	0.05102
3906.16570	0.05047
3904.87993	0.04982
3903.59416	0.04902
3902.30839	0.04820
3901.02262	0.04780
3899.73685	0.04813
3898.45108	0.04903
3897.16531	0.04995
3895.87955	0.05049
3894.59378	0.05062
3893.30801	0.05054
3892.02224	0.05026
3890.73647	0.04956
3889.45070	0.04858
3888.16493	0.04799
3886.87916	0.04818
3885.59339	0.04865
3884.30763	0.04874
3883.02186	0.04841
3881.73609	0.04826
3880.45032	0.04859
3879.16455	0.04920
3877.87878	0.04970
3876.59301	0.05005
3875.30724	0.05052
3874.02148	0.05134
3872.73571	0.05243
3871.44994	0.05330
3870.16417	0.05323
3868.87840	0.05190
3867.59263	0.04980
3866.30686	0.04768
3865.02109	0.04605
3863.73532	0.04526
3862.44956	0.04568
3861.16379	0.04719
3859.87802	0.04910
3858.59225	0.05068
3857.30648	0.05160
3856.02071	0.05193
3854.73494	0.05171
3853.44917	0.05086
3852.16341	0.04963
3850.87764	0.04852
3849.59187	0.04773
3848.30610	0.04717
3847.02033	0.04681
3845.73456	0.04665
3844.44879	0.04660
3843.16302	0.04657
3841.87725	0.04659
3840.59149	0.04673
3839.30572	0.04685
3838.01995	0.04668
3836.73418	0.04624
3835.44841	0.04604
3834.16264	0.04651
3832.87687	0.04749
3831.59110	0.04841
3830.30534	0.04882
3829.01957	0.04870
3827.73380	0.04823
3826.44803	0.04756
3825.16226	0.04690
3823.87649	0.04664
3822.59072	0.04700
3821.30495	0.04760
3820.01918	0.04788
3818.73342	0.04780
3817.44765	0.04767
3816.16188	0.04754
3814.87611	0.04733
3813.59034	0.04723
3812.30457	0.04729
3811.01880	0.04731
3809.73303	0.04723
3808.44726	0.04728
3807.16150	0.04761
3805.87573	0.04813
3804.58996	0.04877
3803.30419	0.04932
3802.01842	0.04924
3800.73265	0.04816
3799.44688	0.04658
3798.16111	0.04535
3796.87535	0.04484
3795.58958	0.04491
3794.30381	0.04538
3793.01804	0.04606
3791.73227	0.04665
3790.44650	0.04693
3789.16073	0.04692
3787.87496	0.04678
3786.58919	0.04664
3785.30343	0.04655
3784.01766	0.04648
3782.73189	0.04644
3781.44612	0.04653
3780.16035	0.04685
3778.87458	0.04739
3777.58881	0.04804
3776.30304	0.04863
3775.01728	0.04890
3773.73151	0.04874
3772.44574	0.04833
3771.15997	0.04799
3769.87420	0.04793
3768.58843	0.04823
3767.30266	0.04874
3766.01689	0.04892
3764.73112	0.04820
3763.44536	0.04670
3762.15959	0.04530
3760.87382	0.04471
3759.58805	0.04478
3758.30228	0.04485
3757.01651	0.04449
3755.73074	0.04398
3754.44497	0.04387
3753.15921	0.04429
3751.87344	0.04485
3750.58767	0.04512
3749.30190	0.04485
3748.01613	0.04416
3746.73036	0.04367
3745.44459	0.04361
3744.15882	0.04347
3742.87305	0.04291
3741.58729	0.04226
3740.30152	0.04176
3739.01575	0.04142
3737.72998	0.04144
3736.44421	0.04196
3735.15844	0.04288
3733.87267	0.04407
3732.58690	0.04534
3731.30114	0.04644
3730.01537	0.04724
3728.72960	0.04764
3727.44383	0.04731
3726.15806	0.04606
3724.87229	0.04445
3723.58652	0.04343
3722.30075	0.04339
3721.01498	0.04386
3719.72922	0.04413
3718.44345	0.04386
3717.15768	0.04324
3715.87191	0.04278
3714.58614	0.04288
3713.30037	0.04354
3712.01460	0.04437
3710.72883	0.04500
3709.44307	0.04538
3708.15730	0.04558
3706.87153	0.04555
3705.58576	0.04516
3704.29999	0.04436
3703.01422	0.04317
3701.72845	0.04179
3700.44268	0.04062
3699.15691	0.04020
3697.87115	0.04070
3696.58538	0.04173
3695.29961	0.04263
3694.01384	0.04305
3692.72807	0.04310
3691.44230	0.04320
3690.15653	0.04365
3688.87076	0.04418
3687.58500	0.04422
3686.29923	0.04365
3685.01346	0.04294
3683.72769	0.04257
3682.44192	0.04272
3681.15615	0.04322
3679.87038	0.04364
3678.58461	0.04382
3677.29884	0.04392
3676.01308	0.04408
3674.72731	0.04440
3673.44154	0.04523
3672.15577	0.04676
3670.87000	0.04820
3669.58423	0.04840
3668.29846	0.04725
3667.01269	0.04570
3665.72693	0.04465
3664.44116	0.04434
3663.15539	0.04443
3661.86962	0.04440
3660.58385	0.04394
3659.29808	0.04320
3658.01231	0.04275
3656.72654	0.04307
3655.44077	0.04400
3654.15501	0.04499
3652.86924	0.04554
3651.58347	0.04554
3650.29770	0.04529
3649.01193	0.04513
3647.72616	0.04509
3646.44039	0.04510
3645.15462	0.04533
3643.86886	0.04615
3642.58309	0.04760
3641.29732	0.04913
3640.01155	0.05004
3638.72578	0.04991
3637.44001	0.04888
3636.15424	0.04757
3634.86847	0.04668
3633.58270	0.04644
3632.29694	0.04659
3631.01117	0.04678
3629.72540	0.04687
3628.43963	0.04692
3627.15386	0.04715
3625.86809	0.04756
3624.58232	0.04786
3623.29655	0.04793
3622.01079	0.04810
3620.72502	0.04871
3619.43925	0.04964
3618.15348	0.05049
3616.86771	0.05095
3615.58194	0.05086
3614.29617	0.05028
3613.01040	0.04971
3611.72463	0.04998
3610.43887	0.05134
3609.15310	0.05307
3607.86733	0.05406
3606.58156	0.05384
3605.29579	0.05291
3604.01002	0.05203
3602.72425	0.05165
3601.43848	0.05167
3600.15272	0.05161
3598.86695	0.05116
3597.58118	0.05042
3596.29541	0.04987
3595.00964	0.05003
3593.72387	0.05102
3592.43810	0.05237
3591.15233	0.05339
3589.86656	0.05369
3588.58080	0.05337
3587.29503	0.05288
3586.00926	0.05265
3584.72349	0.05278
3583.43772	0.05296
3582.15195	0.05272
3580.86618	0.05190
3579.58041	0.05090
3578.29464	0.05048
3577.00888	0.05108
3575.72311	0.05248
3574.43734	0.05408
3573.15157	0.05543
3571.86580	0.05638
3570.58003	0.05695
3569.29426	0.05711
3568.00849	0.05692
3566.72273	0.05662
3565.43696	0.05650
3564.15119	0.05651
3562.86542	0.05642
3561.57965	0.05620
3560.29388	0.05615
3559.00811	0.05644
3557.72234	0.05688
3556.43657	0.05721
3555.15081	0.05744
3553.86504	0.05771
3552.57927	0.05798
3551.29350	0.05816
3550.00773	0.05840
3548.72196	0.05896
3547.43619	0.05986
3546.15042	0.06087
3544.86466	0.06171
3543.57889	0.06223
3542.29312	0.06232
3541.00735	0.06199
3539.72158	0.06146
3538.43581	0.06109
3537.15004	0.06107
3535.86427	0.06128
3534.57850	0.06142
3533.29274	0.06137
3532.00697	0.06121
3530.72120	0.06109
3529.43543	0.06104
3528.14966	0.06107
3526.86389	0.06121
3525.57812	0.06150
3524.29235	0.06190
3523.00659	0.06231
3521.72082	0.06264
3520.43505	0.06292
3519.14928	0.06322
3517.86351	0.06356
3516.57774	0.06395
3515.29197	0.06433
3514.00620	0.06461
3512.72043	0.06463
3511.43467	0.06427
3510.14890	0.06352
3508.86313	0.06264
3507.57736	0.06199
3506.29159	0.06182
3505.00582	0.06213
3503.72005	0.06273
3502.43428	0.06340
3501.14852	0.06396
3499.86275	0.06434
3498.57698	0.06451
3497.29121	0.06451
3496.00544	0.06439
3494.71967	0.06419
3493.43390	0.06398
3492.14813	0.06395
3490.86236	0.06436
3489.57660	0.06521
3488.29083	0.06605
3487.00506	0.06634
3485.71929	0.06599
3484.43352	0.06547
3483.14775	0.06527
3481.86198	0.06548
3480.57621	0.06592
3479.29045	0.06649
3478.00468	0.06716
3476.71891	0.06784
3475.43314	0.06831
3474.14737	0.06843
3472.86160	0.06829
3471.57583	0.06818
3470.29006	0.06830
3469.00429	0.06861
3467.71853	0.06893
3466.43276	0.06915
3465.14699	0.06932
3463.86122	0.06947
3462.57545	0.06958
3461.28968	0.06965
3460.00391	0.06979
3458.71814	0.07005
3457.43238	0.07030
3456.14661	0.07028
3454.86084	0.06996
3453.57507	0.06969
3452.28930	0.06976
3451.00353	0.07005
3449.71776	0.07027
3448.43199	0.07032
3447.14622	0.07034
3445.86046	0.07046
3444.57469	0.07067
3443.28892	0.07088
3442.00315	0.07099
3440.71738	0.07093
3439.43161	0.07072
3438.14584	0.07055
3436.86007	0.07059
3435.57431	0.07088
3434.28854	0.07127
3433.00277	0.07158
3431.71700	0.07169
3430.43123	0.07162
3429.14546	0.07147
3427.85969	0.07141
3426.57392	0.07155
3425.28815	0.07181
3424.00239	0.07188
3422.71662	0.07154
3421.43085	0.07093
3420.14508	0.07047
3418.85931	0.07047
3417.57354	0.07086
3416.28777	0.07127
3415.00200	0.07142
3413.71624	0.07138
3412.43047	0.07147
3411.14470	0.07185
3409.85893	0.07240
3408.57316	0.07289
3407.28739	0.07323
3406.00162	0.07338
3404.71585	0.07333
3403.43008	0.07307
3402.14432	0.07267
3400.85855	0.07237
3399.57278	0.07238
3398.28701	0.07276
3397.00124	0.07343
3395.71547	0.07417
3394.42970	0.07470
3393.14393	0.07490
3391.85817	0.07493
3390.57240	0.07509
3389.28663	0.07549
3388.00086	0.07587
3386.71509	0.07591
3385.42932	0.07564
3384.14355	0.07539
3382.85778	0.07532
3381.57201	0.07529
3380.28625	0.07509
3379.00048	0.07483
3377.71471	0.07478
3376.42894	0.07504
3375.14317	0.07541
3373.85740	0.07563
3372.57163	0.07558
3371.28586	0.07531
3370.00010	0.07499
3368.71433	0.07478
3367.42856	0.07482
3366.14279	0.07517
3364.85702	0.07576
3363.57125	0.07635
3362.28548	0.07660
3360.99971	0.07637
3359.71394	0.07582
3358.42818	0.07534
3357.14241	0.07515
3355.85664	0.07519
3354.57087	0.07526
3353.28510	0.07524
3351.99933	0.07513
3350.71356	0.07508
3349.42779	0.07519
3348.14202	0.07544
3346.85626	0.07569
3345.57049	0.07578
3344.28472	0.07568
3342.99895	0.07545
3341.71318	0.07521
3340.42741	0.07512
3339.14164	0.07524
3337.85587	0.07542
3336.57011	0.07544
3335.28434	0.07533
3333.99857	0.07527
3332.71280	0.07528
3331.42703	0.07514
3330.14126	0.07475
3328.85549	0.07437
3327.56972	0.07441
3326.28395	0.07492
3324.99819	0.07556
3323.71242	0.07594
3322.42665	0.07598
3321.14088	0.07590
3319.85511	0.07599
3318.56934	0.07633
3317.28357	0.07673
3315.99780	0.07694
3314.71204	0.07688
3313.42627	0.07665
3312.14050	0.07639
3310.85473	0.07613
3309.56896	0.07593
3308.28319	0.07590
3306.99742	0.07606
3305.71165	0.07627
3304.42588	0.07630
3303.14012	0.07596
3301.85435	0.07523
3300.56858	0.07428
3299.28281	0.07350
3297.99704	0.07321
3296.71127	0.07341
3295.42550	0.07382
3294.13973	0.07422
3292.85397	0.07468
3291.56820	0.07537
3290.28243	0.07623
3288.99666	0.07689
3287.71089	0.07698
3286.42512	0.07642
3285.13935	0.07551
3283.85358	0.07465
3282.56781	0.07402
3281.28205	0.07365
3279.99628	0.07349
3278.71051	0.07347
3277.42474	0.07352
3276.13897	0.07362
3274.85320	0.07377
3273.56743	0.07396
3272.28166	0.07412
3270.99590	0.07419
3269.71013	0.07418
3268.42436	0.07413
3267.13859	0.07407
3265.85282	0.07400
3264.56705	0.07389
3263.28128	0.07373
3261.99551	0.07350
3260.70974	0.07328
3259.42398	0.07314
3258.13821	0.07312
3256.85244	0.07320
3255.56667	0.07331
3254.28090	0.07334
3252.99513	0.07320
3251.70936	0.07294
3250.42359	0.07281
3249.13783	0.07297
3247.85206	0.07327
3246.56629	0.07337
3245.28052	0.07309
3243.99475	0.07251
3242.70898	0.07193
3241.42321	0.07164
3240.13744	0.07175
3238.85167	0.07206
3237.56591	0.07218
3236.28014	0.07192
3234.99437	0.07144
3233.70860	0.07104
3232.42283	0.07086
3231.13706	0.07083
3229.85129	0.07078
3228.56552	0.07056
3227.27976	0.07013
3225.99399	0.06961
3224.70822	0.06914
3223.42245	0.06890
3222.13668	0.06894
3220.85091	0.06917
3219.56514	0.06932
3218.27937	0.06916
3216.99360	0.06880
3215.70784	0.06862
3214.42207	0.06889
3213.13630	0.06951
3211.85053	0.07012
3210.56476	0.07048
3209.27899	0.07059
3207.99322	0.07046
3206.70745	0.07012
3205.42169	0.06962
3204.13592	0.06912
3202.85015	0.06878
3201.56438	0.06860
3200.27861	0.06853
3198.99284	0.06846
3197.70707	0.06838
3196.42130	0.06836
3195.13553	0.06848
3193.84977	0.06870
3192.56400	0.06881
3191.27823	0.06870
3189.99246	0.06848
3188.70669	0.06833
3187.42092	0.06827
3186.13515	0.06817
3184.84938	0.06796
3183.56362	0.06769
3182.27785	0.06748
3180.99208	0.06730
3179.70631	0.06710
3178.42054	0.06691
3177.13477	0.06689
3175.84900	0.06713
3174.56323	0.06749
3173.27746	0.06771
3171.99170	0.06764
3170.70593	0.06725
3169.42016	0.06665
3168.13439	0.06603
3166.84862	0.06558
3165.56285	0.06535
3164.27708	0.06524
3162.99131	0.06510
3161.70555	0.06493
3160.41978	0.06482
3159.13401	0.06479
3157.84824	0.06475
3156.56247	0.06468
3155.27670	0.06472
3153.99093	0.06495
3152.70516	0.06522
3151.41939	0.06522
3150.13363	0.06481
3148.84786	0.06414
3147.56209	0.06348
3146.27632	0.06299
3144.99055	0.06270
3143.70478	0.06251
3142.41901	0.06232
3141.13324	0.06214
3139.84748	0.06209
3138.56171	0.06216
3137.27594	0.06222
3135.99017	0.06211
3134.70440	0.06187
3133.41863	0.06172
3132.13286	0.06185
3130.84709	0.06224
3129.56132	0.06263
3128.27556	0.06270
3126.98979	0.06231
3125.70402	0.06168
3124.41825	0.06114
3123.13248	0.06089
3121.84671	0.06078
3120.56094	0.06061
3119.27517	0.06036
3117.98940	0.06016
3116.70364	0.06014
3115.41787	0.06033
3114.13210	0.06069
3112.84633	0.06116
3111.56056	0.06166
3110.27479	0.06209
3108.98902	0.06230
3107.70325	0.06214
3106.41749	0.06161
3105.13172	0.06095
3103.84595	0.06047
3102.56018	0.06029
3101.27441	0.06028
3099.98864	0.06030
3098.70287	0.06027
3097.41710	0.06016
3096.13133	0.05990
3094.84557	0.05941
3093.55980	0.05883
3092.27403	0.05839
3090.98826	0.05831
3089.70249	0.05853
3088.41672	0.05885
3087.13095	0.05909
3085.84518	0.05922
3084.55942	0.05929
3083.27365	0.05929
3081.98788	0.05921
3080.70211	0.05910
3079.41634	0.05907
3078.13057	0.05923
3076.84480	0.05954
3075.55903	0.05992
3074.27326	0.06018
3072.98750	0.06013
3071.70173	0.05970
3070.41596	0.05909
3069.13019	0.05863
3067.84442	0.05858
3066.55865	0.05887
3065.27288	0.05924
3063.98711	0.05939
3062.70135	0.05914
3061.41558	0.05859
3060.12981	0.05805
3058.84404	0.05786
3057.55827	0.05804
3056.27250	0.05835
3054.98673	0.05850
3053.70096	0.05845
3052.41519	0.05833
3051.12943	0.05827
3049.84366	0.05824
3048.55789	0.05812
3047.27212	0.05790
3045.98635	0.05774
3044.70058	0.05771
3043.41481	0.05770
3042.12904	0.05750
3040.84328	0.05715
3039.55751	0.05687
3038.27174	0.05691
3036.98597	0.05721
3035.70020	0.05740
3034.41443	0.05722
3033.12866	0.05677
3031.84289	0.05641
3030.55712	0.05635
3029.27136	0.05641
3027.98559	0.05631
3026.69982	0.05596
3025.41405	0.05551
3024.12828	0.05520
3022.84251	0.05513
3021.55674	0.05521
3020.27097	0.05521
3018.98521	0.05494
3017.69944	0.05445
3016.41367	0.05398
3015.12790	0.05377
3013.84213	0.05384
3012.55636	0.05407
3011.27059	0.05434
3009.98482	0.05458
3008.69905	0.05469
3007.41329	0.05465
3006.12752	0.05450
3004.84175	0.05432
3003.55598	0.05409
3002.27021	0.05375
3000.98444	0.05337
2999.69867	0.05311
2998.41290	0.05312
2997.12714	0.05344
2995.84137	0.05394
2994.55560	0.05439
2993.26983	0.05460
2991.98406	0.05454
2990.69829	0.05433
2989.41252	0.05413
2988.12675	0.05394
2986.84098	0.05371
2985.55522	0.05356
2984.26945	0.05372
2982.98368	0.05426
2981.69791	0.05503
2980.41214	0.05580
2979.12637	0.05644
2977.84060	0.05695
2976.55483	0.05729
2975.26907	0.05748
2973.98330	0.05765
2972.69753	0.05806
2971.41176	0.05888
2970.12599	0.06001
2968.84022	0.06110
2967.55445	0.06186
2966.26868	0.06232
2964.98291	0.06281
2963.69715	0.06359
2962.41138	0.06462
2961.12561	0.06565
2959.83984	0.06645
2958.55407	0.06695
2957.26830	0.06724
2955.98253	0.06746
2954.69676	0.06768
2953.41100	0.06786
2952.12523	0.06795
2950.83946	0.06801
2949.55369	0.06823
2948.26792	0.06871
2946.98215	0.06932
2945.69638	0.06978
2944.41061	0.06989
2943.12484	0.06968
2941.83908	0.06936
2940.55331	0.06924
2939.26754	0.06963
2937.98177	0.07061
2936.69600	0.07190
2935.41023	0.07308
2934.12446	0.07386
2932.83869	0.07431
2931.55293	0.07470
2930.26716	0.07523
2928.98139	0.07591
2927.69562	0.07657
2926.40985	0.07711
2925.12408	0.07750
2923.83831	0.07769
2922.55254	0.07763
2921.26677	0.07738
2919.98101	0.07716
2918.69524	0.07707
2917.40947	0.07705
2916.12370	0.07689
2914.83793	0.07647
2913.55216	0.07583
2912.26639	0.07505
2910.98062	0.07417
2909.69486	0.07315
2908.40909	0.07206
2907.12332	0.07107
2905.83755	0.07036
2904.55178	0.06992
2903.26601	0.06956
2901.98024	0.06913
2900.69447	0.06861
2899.40870	0.06799
2898.12294	0.06727
2896.83717	0.06654
2895.55140	0.06606
2894.26563	0.06599
2892.97986	0.06616
2891.69409	0.06615
2890.40832	0.06569
2889.12255	0.06487
2887.83678	0.06401
2886.55102	0.06339
2885.26525	0.06313
2883.97948	0.06318
2882.69371	0.06336
2881.40794	0.06345
2880.12217	0.06335
2878.83640	0.06317
2877.55063	0.06306
2876.26487	0.06315
2874.97910	0.06348
2873.69333	0.06399
2872.40756	0.06452
2871.12179	0.06488
2869.83602	0.06499
2868.55025	0.06493
2867.26448	0.06482
2865.97871	0.06481
2864.69295	0.06497
2863.40718	0.06528
2862.12141	0.06556
2860.83564	0.06567
2859.54987	0.06558
2858.26410	0.06538
2856.97833	0.06516
2855.69256	0.06498
2854.40680	0.06490
2853.12103	0.06491
2851.83526	0.06491
2850.54949	0.06474
2849.26372	0.06427
2847.97795	0.06356
2846.69218	0.06282
2845.40641	0.06222
2844.12064	0.06178
2842.83488	0.06138
2841.54911	0.06083
2840.26334	0.06008
2838.97757	0.05922
2837.69180	0.05837
2836.40603	0.05761
2835.12026	0.05688
2833.83449	0.05604
2832.54873	0.05506
2831.26296	0.05407
2829.97719	0.05337
2828.69142	0.05315
2827.40565	0.05334
2826.11988	0.05364
2824.83411	0.05366
2823.54834	0.05319
2822.26257	0.05237
2820.97681	0.05160
2819.69104	0.05111
2818.40527	0.05081
2817.11950	0.05047
2815.83373	0.05009
2814.54796	0.04986
2813.26219	0.04988
2811.97642	0.05003
2810.69066	0.05008
2809.40489	0.04991
2808.11912	0.04955
2806.83335	0.04918
2805.54758	0.04895
2804.26181	0.04890
2802.97604	0.04896
2801.69027	0.04905
2800.40450	0.04910
2799.11874	0.04906
2797.83297	0.04890
2796.54720	0.04856
2795.26143	0.04814
2793.97566	0.04781
2792.68989	0.04780
2791.40412	0.04806
2790.11835	0.04829
2788.83259	0.04814
2787.54682	0.04762
2786.26105	0.04710
2784.97528	0.04693
2783.68951	0.04711
2782.40374	0.04737
2781.11797	0.04747
2779.83220	0.04736
2778.54643	0.04712
2777.26067	0.04686
2775.97490	0.04661
2774.68913	0.04634
2773.40336	0.04609
2772.11759	0.04591
2770.83182	0.04584
2769.54605	0.04586
2768.26028	0.04589
2766.97452	0.04588
2765.68875	0.04582
2764.40298	0.04571
2763.11721	0.04553
2761.83144	0.04534
2760.54567	0.04524
2759.25990	0.04526
2757.97413	0.04537
2756.68836	0.04550
2755.40260	0.04565
2754.11683	0.04580
2752.83106	0.04586
2751.54529	0.04578
2750.25952	0.04567
2748.97375	0.04569
2747.68798	0.04583
2746.40221	0.04587
2745.11645	0.04572
2743.83068	0.04548
2742.54491	0.04532
2741.25914	0.04529
2739.97337	0.04526
2738.68760	0.04516
2737.40183	0.04500
2736.11606	0.04479
2734.83029	0.04461
2733.54453	0.04449
2732.25876	0.04443
2730.97299	0.04440
2729.68722	0.04443
2728.40145	0.04458
2727.11568	0.04481
2725.82991	0.04497
2724.54414	0.04490
2723.25838	0.04462
2721.97261	0.04429
2720.68684	0.04407
2719.40107	0.04402
2718.11530	0.04406
2716.82953	0.04402
2715.54376	0.04383
2714.25799	0.04358
2712.97222	0.04341
2711.68646	0.04335
2710.40069	0.04336
2709.11492	0.04334
2707.82915	0.04326
2706.54338	0.04308
2705.25761	0.04285
2703.97184	0.04266
2702.68607	0.04256
2701.40031	0.04252
2700.11454	0.04253
2698.82877	0.04259
2697.54300	0.04262
2696.25723	0.04256
2694.97146	0.04248
2693.68569	0.04250
2692.39992	0.04271
2691.11415	0.04300
2689.82839	0.04315
2688.54262	0.04304
2687.25685	0.04271
2685.97108	0.04232
2684.68531	0.04206
2683.39954	0.04199
2682.11377	0.04203
2680.82800	0.04208
2679.54224	0.04210
2678.25647	0.04207
2676.97070	0.04204
2675.68493	0.04202
2674.39916	0.04200
2673.11339	0.04193
2671.82762	0.04184
2670.54185	0.04181
2669.25608	0.04192
2667.97032	0.04209
2666.68455	0.04222
2665.39878	0.04230
2664.11301	0.04236
2662.82724	0.04240
2661.54147	0.04237
2660.25570	0.04219
2658.96993	0.04190
2657.68417	0.04163
2656.39840	0.04150
2655.11263	0.04145
2653.82686	0.04135
2652.54109	0.04107
2651.25532	0.04071
2649.96955	0.04042
2648.68378	0.04028
2647.39801	0.04027
2646.11225	0.04026
2644.82648	0.04019
2643.54071	0.04003
2642.25494	0.03986
2640.96917	0.03973
2639.68340	0.03960
2638.39763	0.03941
2637.11186	0.03920
2635.82609	0.03910
2634.54033	0.03912
2633.25456	0.03912
2631.96879	0.03889
2630.68302	0.03841
2629.39725	0.03787
2628.11148	0.03747
2626.82571	0.03731
2625.53994	0.03741
2624.25418	0.03773
2622.96841	0.03812
2621.68264	0.03830
2620.39687	0.03807
2619.11110	0.03753
2617.82533	0.03704
2616.53956	0.03687
2615.25379	0.03697
2613.96802	0.03706
2612.68226	0.03702
2611.39649	0.03700
2610.11072	0.03712
2608.82495	0.03725
2607.53918	0.03711
2606.25341	0.03662
2604.96764	0.03593
2603.68187	0.03532
2602.39611	0.03505
2601.11034	0.03525
2599.82457	0.03580
2598.53880	0.03634
2597.25303	0.03655
2595.96726	0.03639
2594.68149	0.03604
2593.39572	0.03568
2592.10995	0.03526
2590.82419	0.03475
2589.53842	0.03434
2588.25265	0.03433
2586.96688	0.03468
2585.68111	0.03498
2584.39534	0.03486
2583.10957	0.03442
2581.82380	0.03414
2580.53804	0.03425
2579.25227	0.03448
2577.96650	0.03439
2576.68073	0.03390
2575.39496	0.03336
2574.10919	0.03312
2572.82342	0.03311
2571.53765	0.03303
2570.25188	0.03274
2568.96612	0.03243
2567.68035	0.03238
2566.39458	0.03263
2565.10881	0.03306
2563.82304	0.03350
2562.53727	0.03380
2561.25150	0.03381
2559.96573	0.03337
2558.67997	0.03247
2557.39420	0.03141
2556.10843	0.03068
2554.82266	0.03070
2553.53689	0.03139
2552.25112	0.03224
2550.96535	0.03279
2549.67958	0.03298
2548.39381	0.03308
2547.10805	0.03335
2545.82228	0.03370
2544.53651	0.03381
2543.25074	0.03346
2541.96497	0.03280
2540.67920	0.03216
2539.39343	0.03185
2538.10766	0.03196
2536.82190	0.03238
2535.53613	0.03284
2534.25036	0.03307
2532.96459	0.03292
2531.67882	0.03251
2530.39305	0.03206
2529.10728	0.03175
2527.82151	0.03160
2526.53574	0.03148
2525.24998	0.03135
2523.96421	0.03129
2522.67844	0.03140
2521.39267	0.03165
2520.10690	0.03192
2518.82113	0.03213
2517.53536	0.03224
2516.24959	0.03220
2514.96383	0.03195
2513.67806	0.03150
2512.39229	0.03108
2511.10652	0.03093
2509.82075	0.03113
2508.53498	0.03150
2507.24921	0.03181
2505.96344	0.03196
2504.67767	0.03199
2503.39191	0.03190
2502.10614	0.03165
2500.82037	0.03130
2499.53460	0.03103
2498.24883	0.03097
2496.96306	0.03108
2495.67729	0.03122
2494.39152	0.03128
2493.10576	0.03128
2491.81999	0.03123
2490.53422	0.03114
2489.24845	0.03102
2487.96268	0.03093
2486.67691	0.03092
2485.39114	0.03102
2484.10537	0.03124
2482.81960	0.03155
2481.53384	0.03175
2480.24807	0.03163
2478.96230	0.03117
2477.67653	0.03061
2476.39076	0.03022
2475.10499	0.03008
2473.81922	0.03014
2472.53345	0.03036
2471.24769	0.03066
2469.96192	0.03085
2468.67615	0.03073
2467.39038	0.03037
2466.10461	0.03011
2464.81884	0.03020
2463.53307	0.03049
2462.24730	0.03062
2460.96153	0.03044
2459.67577	0.03013
2458.39000	0.03002
2457.10423	0.03022
2455.81846	0.03066
2454.53269	0.03115
2453.24692	0.03144
2451.96115	0.03133
2450.67538	0.03085
2449.38962	0.03032
2448.10385	0.03004
2446.81808	0.02997
2445.53231	0.02981
2444.24654	0.02943
2442.96077	0.02898
2441.67500	0.02864
2440.38923	0.02851
2439.10346	0.02865
2437.81770	0.02908
2436.53193	0.02968
2435.24616	0.03018
2433.96039	0.03029
2432.67462	0.03000
2431.38885	0.02957
2430.10308	0.02928
2428.81731	0.02918
2427.53155	0.02906
2426.24578	0.02892
2424.96001	0.02896
2423.67424	0.02932
2422.38847	0.02989
2421.10270	0.03033
2419.81693	0.03040
2418.53116	0.03010
2417.24539	0.02961
2415.95963	0.02918
2414.67386	0.02888
2413.38809	0.02865
2412.10232	0.02842
2410.81655	0.02823
2409.53078	0.02810
2408.24501	0.02799
2406.95924	0.02793
2405.67347	0.02798
2404.38771	0.02819
2403.10194	0.02855
2401.81617	0.02900
2400.53040	0.02944
2399.24463	0.02981
2397.95886	0.02968
2396.67309	0.02921
2395.38732	0.02879
2394.10156	0.02862
2392.81579	0.02862
2391.53002	0.02858
2390.24425	0.02843
2388.95848	0.02829
2387.67271	0.02831
2386.38694	0.02850
2385.10117	0.02877
2383.81540	0.02894
2382.52964	0.02888
2381.24387	0.02848
2379.95810	0.02781
2378.67233	0.02705
2377.38656	0.02641
2376.10079	0.02605
2374.81502	0.02600
2373.52925	0.02618
2372.24349	0.02643
2370.95772	0.02663
2369.67195	0.02669
2368.38618	0.02660
2367.10041	0.02643
2365.81464	0.02622
2364.52887	0.02604
2363.24310	0.02588
2361.95733	0.02577
2360.67157	0.02579
2359.38580	0.02598
2358.10003	0.02629
2356.81426	0.02659
2355.52849	0.02675
2354.24272	0.02667
2352.95695	0.02639
2351.67118	0.02606
2350.38542	0.02583
2349.09965	0.02584
2347.81388	0.02612
2346.52811	0.02657
2345.24234	0.02707
2343.95657	0.02751
2342.67080	0.02778
2341.38503	0.02779
2340.09926	0.02750
2338.81350	0.02708
2337.52773	0.02673
2336.24196	0.02656
2334.95619	0.02649
2333.67042	0.02632
2332.38465	0.02591
2331.09888	0.02531
2329.81311	0.02473
2328.52735	0.02449
2327.24158	0.02483
2325.95581	0.02573
2324.67004	0.02695
2323.38427	0.02811
2322.09850	0.02892
2320.81273	0.02935
2319.52696	0.02953
2318.24119	0.02961
2316.95543	0.02964
2315.66966	0.02957
2314.38389	0.02944
2313.09812	0.02932
2311.81235	0.02919
2310.52658	0.02894
2309.24081	0.02852
2307.95504	0.02800
2306.66928	0.02753
2305.38351	0.02718
2304.09774	0.02692
2302.81197	0.02676
2301.52620	0.02674
2300.24043	0.02687
2298.95466	0.02703
2297.66889	0.02709
2296.38312	0.02699
2295.09736	0.02680
2293.81159	0.02654
2292.52582	0.02626
2291.24005	0.02604
2289.95428	0.02600
2288.66851	0.02617
2287.38274	0.02644
2286.09697	0.02666
2284.81121	0.02674
2283.52544	0.02665
2282.23967	0.02648
2280.95390	0.02634
2279.66813	0.02625
2278.38236	0.02611
2277.09659	0.02576
2275.81082	0.02520
2274.52505	0.02464
2273.23929	0.02423
2271.95352	0.02396
2270.66775	0.02366
2269.38198	0.02325
2268.09621	0.02279
2266.81044	0.02244
2265.52467	0.02236
2264.23890	0.02261
2262.95314	0.02296
2261.66737	0.02307
2260.38160	0.02277
2259.09583	0.02227
2257.81006	0.02184
2256.52429	0.02153
2255.23852	0.02127
2253.95275	0.02103
2252.66698	0.02089
2251.38122	0.02090
2250.09545	0.02126
2248.80968	0.02195
2247.52391	0.02158
2246.23814	0.02088
2244.95237	0.02012
2243.66660	0.01964
2242.38083	0.01965
2241.09507	0.02001
2239.80930	0.02038
2238.52353	0.02056
2237.23776	0.02057
2235.95199	0.02049
2234.66622	0.02040
2233.38045	0.02037
2232.09468	0.02043
2230.80891	0.02042
2229.52315	0.02014
2228.23738	0.01945
2226.95161	0.01852
2225.66584	0.01778
2224.38007	0.01781
2223.09430	0.01882
2221.80853	0.02034
2220.52276	0.02154
2219.23700	0.02173
2217.95123	0.02074
2216.66546	0.01896
2215.37969	0.01722
2214.09392	0.01632
2212.80815	0.01649
2211.52238	0.01713
2210.23661	0.01739
2208.95084	0.01698
2207.66508	0.01639
2206.37931	0.01631
2205.09354	0.01678
2203.80777	0.01709
2202.52200	0.01664
2201.23623	0.01565
2199.95046	0.01493
2198.66469	0.01493
2197.37893	0.01525
2196.09316	0.01501
2194.80739	0.01381
2193.52162	0.01237
2192.23585	0.01191
2190.95008	0.01306
2189.66431	0.01517
2188.37854	0.01707
2187.09277	0.01803
2185.80701	0.01814
2184.52124	0.01780
2183.23547	0.01731
2181.94970	0.01678
2180.66393	0.01619
2179.37816	0.01542
2178.09239	0.01430
2176.80662	0.01301
2175.52085	0.01227
2174.23509	0.01282
2172.94932	0.01439
2171.66355	0.01570
2170.37778	0.01561
2169.09201	0.01407
2167.80624	0.01196
2166.52047	0.01032
2165.23470	0.00987
2163.94894	0.01062
2162.66317	0.01175
2161.37740	0.01220
2160.09163	0.01155
2158.80586	0.01043
2157.52009	0.00989
2156.23432	0.01045
2154.94855	0.01178
2153.66278	0.01317
2152.37702	0.01412
2151.09125	0.01457
2149.80548	0.01468
2148.51971	0.01451
2147.23394	0.01405
2145.94817	0.01345
2144.66240	0.01299
2143.37663	0.01299
2142.09087	0.01360
2140.80510	0.01473
2139.51933	0.01598
2138.23356	0.01676
2136.94779	0.01670
2135.66202	0.01602
2134.37625	0.01538
2133.09048	0.01531
2131.80471	0.01586
2130.51895	0.01663
2129.23318	0.01711
2127.94741	0.01706
2126.66164	0.01669
2125.37587	0.01645
2124.09010	0.01656
2122.80433	0.01682
2121.51856	0.01697
2120.23280	0.01698
2118.94703	0.01701
2117.66126	0.01713
2116.37549	0.01728
2115.08972	0.01741
2113.80395	0.01745
2112.51818	0.01737
2111.23241	0.01726
2109.94664	0.01719
2108.66088	0.01717
2107.37511	0.01708
2106.08934	0.01688
2104.80357	0.01667
2103.51780	0.01651
2102.23203	0.01636
2100.94626	0.01606
2099.66049	0.01475
2098.37473	0.01364
2097.08896	0.01302
2095.80319	0.01303
2094.51742	0.01377
2093.23165	0.01494
2091.94588	0.01592
2090.66011	0.01629
2089.37434	0.01605
2088.08857	0.01562
2086.80281	0.01539
2085.51704	0.01546
2084.23127	0.01558
2082.94550	0.01548
2081.65973	0.01523
2080.37396	0.01504
2079.08819	0.01497
2077.80242	0.01467
2076.51666	0.01384
2075.23089	0.01256
2073.94512	0.01134
2072.65935	0.01069
2071.37358	0.01090
2070.08781	0.01183
2068.80204	0.01298
2067.51627	0.01374
2066.23050	0.01379
2064.94474	0.01336
2063.65897	0.01293
2062.37320	0.01285
2061.08743	0.01309
2059.80166	0.01341
2058.51589	0.01356
2057.23012	0.01340
2055.94435	0.01298
2054.65859	0.01237
2053.37282	0.01159
2052.08705	0.01064
2050.80128	0.00965
2049.51551	0.00887
2048.22974	0.00846
2046.94397	0.00830
2045.65820	0.00823
2044.37243	0.00816
2043.08667	0.00801
2041.80090	0.00774
2040.51513	0.00751
2039.22936	0.00769
2037.94359	0.00841
2036.65782	0.00923
2035.37205	0.00959
2034.08628	0.00942
2032.80052	0.00914
2031.51475	0.00889
2030.22898	0.00837
2028.94321	0.00738
2027.65744	0.00634
2026.37167	0.00593
2025.08590	0.00643
2023.80013	0.00744
2022.51436	0.00825
2021.22860	0.00844
2019.94283	0.00807
2018.65706	0.00752
2017.37129	0.00723
2016.08552	0.00741
2014.79975	0.00795
2013.51398	0.00847
2012.22821	0.00862
2010.94245	0.00839
2009.65668	0.00808
2008.37091	0.00794
2007.08514	0.00796
2005.79937	0.00798
2004.51360	0.00799
2003.22783	0.00814
2001.94206	0.00856
2000.65629	0.00915
1999.37053	0.00964
1998.08476	0.00983
1996.79899	0.00983
1995.51322	0.00998
1994.22745	0.01049
1992.94168	0.01127
1991.65591	0.01196
1990.37014	0.01227
1989.08438	0.01211
1987.79861	0.01155
1986.51284	0.01070
1985.22707	0.00986
1983.94130	0.00942
1982.65553	0.00946
1981.36976	0.00963
1980.08399	0.00945
1978.79822	0.00884
1977.51246	0.00816
1976.22669	0.00767
1974.94092	0.00731
1973.65515	0.00702
1972.36938	0.00706
1971.08361	0.00785
1969.79784	0.00929
1968.51207	0.01075
1967.22631	0.01159
1965.94054	0.01169
1964.65477	0.01139
1963.36900	0.01103
1962.08323	0.01078
1960.79746	0.01087
1959.51169	0.01156
1958.22592	0.01279
1956.94015	0.01403
1955.65439	0.01470
1954.36862	0.01465
1953.08285	0.01418
1951.79708	0.01376
1950.51131	0.01370
1949.22554	0.01403
1947.93977	0.01447
1946.65400	0.01457
1945.36823	0.01407
1944.08247	0.01325
1942.79670	0.01268
1941.51093	0.01275
1940.22516	0.01328
1938.93939	0.01369
1937.65362	0.01356
1936.36785	0.01302
1935.08208	0.01265
1933.79632	0.01281
1932.51055	0.01335
1931.22478	0.01390
1929.93901	0.01433
1928.65324	0.01468
1927.36747	0.01498
1926.08170	0.01520
1924.79593	0.01536
1923.51016	0.01546
1922.22440	0.01552
1920.93863	0.01559
1919.65286	0.01581
1918.36709	0.01608
1917.08132	0.01614
1915.79555	0.01587
1914.50978	0.01547
1913.22401	0.01526
1911.93825	0.01539
1910.65248	0.01567
1909.36671	0.01580
1908.08094	0.01566
1906.79517	0.01549
1905.50940	0.01558
1904.22363	0.01593
1902.93786	0.01625
1901.65209	0.01629
1900.36633	0.01615
1899.08056	0.01600
1897.79479	0.01589
1896.50902	0.01571
1895.22325	0.01545
1893.93748	0.01528
1892.65171	0.01539
1891.36594	0.01577
1890.08018	0.01621
1888.79441	0.01646
1887.50864	0.01643
1886.22287	0.01618
1884.93710	0.01588
1883.65133	0.01570
1882.36556	0.01575
1881.07979	0.01595
1879.79402	0.01613
1878.50826	0.01625
1877.22249	0.01636
1875.93672	0.01651
1874.65095	0.01663
1873.36518	0.01662
1872.07941	0.01648
1870.79364	0.01628
1869.50787	0.01612
1868.22211	0.01606
1866.93634	0.01618
1865.65057	0.01647
1864.36480	0.01673
1863.07903	0.01680
1861.79326	0.01663
1860.50749	0.01641
1859.22172	0.01633
1857.93595	0.01645
1856.65019	0.01661
1855.36442	0.01665
1854.07865	0.01653
1852.79288	0.01640
1851.50711	0.01640
1850.22134	0.01655
1848.93557	0.01671
1847.64980	0.01679
1846.36404	0.01680
1845.07827	0.01673
1843.79250	0.01660
1842.50673	0.01651
1841.22096	0.01661
1839.93519	0.01691
1838.64942	0.01722
1837.36365	0.01741
1836.07788	0.01746
1834.79212	0.01744
1833.50635	0.01740
1832.22058	0.01736
1830.93481	0.01727
1829.64904	0.01702
1828.36327	0.01662
1827.07750	0.01625
1825.79173	0.01604
1824.50597	0.01603
1823.22020	0.01612
1821.93443	0.01625
1820.64866	0.01634
1819.36289	0.01637
1818.07712	0.01643
1816.79135	0.01663
1815.50558	0.01698
1814.21981	0.01739
1812.93405	0.01773
1811.64828	0.01792
1810.36251	0.01792
1809.07674	0.01777
1807.79097	0.01752
1806.50520	0.01728
1805.21943	0.01719
1803.93366	0.01734
1802.64790	0.01763
1801.36213	0.01784
1800.07636	0.01785
1798.79059	0.01766
1797.50482	0.01740
1796.21905	0.01721
1794.93328	0.01716
1793.64751	0.01724
1792.36174	0.01733
1791.07598	0.01735
1789.79021	0.01735
1788.50444	0.01745
1787.21867	0.01766
1785.93290	0.01785
1784.64713	0.01790
1783.36136	0.01782
1782.07559	0.01769
1780.78983	0.01760
1779.50406	0.01754
1778.21829	0.01750
1776.93252	0.01749
1775.64675	0.01752
1774.36098	0.01761
1773.07521	0.01767
1771.78944	0.01765
1770.50367	0.01763
1769.21791	0.01776
1767.93214	0.01798
1766.64637	0.01812
1765.36060	0.01814
1764.07483	0.01816
1762.78906	0.01822
1761.50329	0.01828
1760.21752	0.01829
1758.93176	0.01832
1757.64599	0.01839
1756.36022	0.01845
1755.07445	0.01850
1753.78868	0.01863
1752.50291	0.01886
1751.21714	0.01906
1749.93137	0.01917
1748.64560	0.01923
1747.35984	0.01934
1746.07407	0.01955
1744.78830	0.01983
1743.50253	0.02012
1742.21676	0.02037
1740.93099	0.02056
1739.64522	0.02067
1738.35945	0.02072
1737.07369	0.02085
1735.78792	0.02119
1734.50215	0.02158
1733.21638	0.02181
1731.93061	0.02191
1730.64484	0.02206
1729.35907	0.02227
1728.07330	0.02245
1726.78753	0.02260
1725.50177	0.02278
1724.21600	0.02301
1722.93023	0.02316
1721.64446	0.02321
1720.35869	0.02328
1719.07292	0.02350
1717.78715	0.02380
1716.50138	0.02407
1715.21561	0.02435
1713.92985	0.02470
1712.64408	0.02514
1711.35831	0.02561
1710.07254	0.02606
1708.78677	0.02645
1707.50100	0.02682
1706.21523	0.02715
1704.92946	0.02740
1703.64370	0.02767
1702.35793	0.02810
1701.07216	0.02866
1699.78639	0.02910
1698.50062	0.02949
1697.21485	0.03007
1695.92908	0.03076
1694.64331	0.03131
1693.35754	0.03177
1692.07178	0.03234
1690.78601	0.03297
1689.50024	0.03345
1688.21447	0.03378
1686.92870	0.03417
1685.64293	0.03472
1684.35716	0.03526
1683.07139	0.03565
1681.78563	0.03602
1680.49986	0.03649
1679.21409	0.03700
1677.92832	0.03755
1676.64255	0.03816
1675.35678	0.03873
1674.07101	0.03913
1672.78524	0.03945
1671.49947	0.03986
1670.21371	0.04036
1668.92794	0.04086
1667.64217	0.04132
1666.35640	0.04179
1665.07063	0.04235
1663.78486	0.04299
1662.49909	0.04361
1661.21332	0.04414
1659.92756	0.04457
1658.64179	0.04488
1657.35602	0.04508
1656.07025	0.04529
1654.78448	0.04567
1653.49871	0.04608
1652.21294	0.04627
1650.92717	0.04632
1649.64140	0.04652
1648.35564	0.04697
1647.06987	0.04739
1645.78410	0.04760
1644.49833	0.04763
1643.21256	0.04766
1641.92679	0.04775
1640.64102	0.04782
1639.35525	0.04780
1638.06949	0.04774
1636.78372	0.04767
1635.49795	0.04752
1634.21218	0.04723
1632.92641	0.04693
1631.64064	0.04671
1630.35487	0.04653
1629.06910	0.04627
1627.78333	0.04589
1626.49757	0.04549
1625.21180	0.04514
1623.92603	0.04487
1622.64026	0.04458
1621.35449	0.04423
1620.06872	0.04389
1618.78295	0.04364
1617.49718	0.04344
1616.21142	0.04318
1614.92565	0.04290
1613.63988	0.04274
1612.35411	0.04273
1611.06834	0.04274
1609.78257	0.04267
1608.49680	0.04252
1607.21103	0.04236
1605.92526	0.04225
1604.63950	0.04223
1603.35373	0.04227
1602.06796	0.04232
1600.78219	0.04232
1599.49642	0.04227
1598.21065	0.04222
1596.92488	0.04221
1595.63911	0.04224
1594.35335	0.04230
1593.06758	0.04242
1591.78181	0.04258
1590.49604	0.04276
1589.21027	0.04290
1587.92450	0.04299
1586.63873	0.04308
1585.35296	0.04323
1584.06719	0.04346
1582.78143	0.04374
1581.49566	0.04398
1580.20989	0.04413
1578.92412	0.04428
1577.63835	0.04452
1576.35258	0.04483
1575.06681	0.04508
1573.78104	0.04531
1572.49528	0.04564
1571.20951	0.04603
1569.92374	0.04634
1568.63797	0.04653
1567.35220	0.04668
1566.06643	0.04684
1564.78066	0.04696
1563.49489	0.04698
1562.20912	0.04703
1560.92336	0.04725
1559.63759	0.04756
1558.35182	0.04775
1557.06605	0.04783
1555.78028	0.04799
1554.49451	0.04821
1553.20874	0.04837
1551.92297	0.04844
1550.63721	0.04846
1549.35144	0.04840
1548.06567	0.04826
1546.77990	0.04809
1545.49413	0.04791
1544.20836	0.04765
1542.92259	0.04735
1541.63682	0.04711
1540.35105	0.04692
1539.06529	0.04668
1537.77952	0.04637
1536.49375	0.04616
1535.20798	0.04613
1533.92221	0.04614
1532.63644	0.04604
1531.35067	0.04589
1530.06490	0.04582
1528.77914	0.04585
1527.49337	0.04593
1526.20760	0.04600
1524.92183	0.04605
1523.63606	0.04615
1522.35029	0.04635
1521.06452	0.04658
1519.77875	0.04681
1518.49298	0.04717
1517.20722	0.04767
1515.92145	0.04817
1514.63568	0.04864
1513.34991	0.04911
1512.06414	0.04958
1510.77837	0.05003
1509.49260	0.05055
1508.20683	0.05120
1506.92107	0.05190
1505.63530	0.05249
1504.34953	0.05300
1503.06376	0.05357
1501.77799	0.05418
1500.49222	0.05472
1499.20645	0.05521
1497.92068	0.05571
1496.63491	0.05622
1495.34915	0.05662
1494.06338	0.05691
1492.77761	0.05718
1491.49184	0.05752
1490.20607	0.05793
1488.92030	0.05843
1487.63453	0.05904
1486.34876	0.05975
1485.06299	0.06050
1483.77723	0.06126
1482.49146	0.06202
1481.20569	0.06273
1479.91992	0.06341
1478.63415	0.06411
1477.34838	0.06489
1476.06261	0.06576
1474.77684	0.06669
1473.49108	0.06759
1472.20531	0.06839
1470.91954	0.06907
1469.63377	0.06973
1468.34800	0.07045
1467.06223	0.07117
1465.77646	0.07183
1464.49069	0.07235
1463.20492	0.07275
1461.91916	0.07309
1460.63339	0.07347
1459.34762	0.07400
1458.06185	0.07470
1456.77608	0.07538
1455.49031	0.07590
1454.20454	0.07631
1452.91877	0.07671
1451.63301	0.07709
1450.34724	0.07738
1449.06147	0.07761
1447.77570	0.07779
1446.48993	0.07791
1445.20416	0.07797
1443.91839	0.07794
1442.63262	0.07782
1441.34685	0.07760
1440.06109	0.07735
1438.77532	0.07720
1437.48955	0.07716
1436.20378	0.07719
1434.91801	0.07727
1433.63224	0.07750
1432.34647	0.07793
1431.06070	0.07848
1429.77494	0.07906
1428.48917	0.07962
1427.20340	0.08022
1425.91763	0.08087
1424.63186	0.08153
1423.34609	0.08216
1422.06032	0.08278
1420.77455	0.08346
1419.48878	0.08413
1418.20302	0.08469
1416.91725	0.08512
1415.63148	0.08545
1414.34571	0.08569
1413.05994	0.08581
1411.77417	0.08583
1410.48840	0.08575
1409.20263	0.08556
1407.91687	0.08525
1406.63110	0.08480
1405.34533	0.08421
1404.05956	0.08348
1402.77379	0.08266
1401.48802	0.08176
1400.20225	0.08077
1398.91648	0.07963
1397.63071	0.07838
1396.34495	0.07707
1395.05918	0.07575
1393.77341	0.07441
1392.48764	0.07307
1391.20187	0.07183
1389.91610	0.07070
1388.63033	0.06968
1387.34456	0.06869
1386.05880	0.06770
1384.77303	0.06672
1383.48726	0.06574
1382.20149	0.06473
1380.91572	0.06370
1379.62995	0.06265
1378.34418	0.06155
1377.05841	0.06037
1375.77264	0.05913
1374.48688	0.05787
1373.20111	0.05663
1371.91534	0.05538
1370.62957	0.05414
1369.34380	0.05290
1368.05803	0.05170
1366.77226	0.05059
1365.48649	0.04958
1364.20073	0.04864
1362.91496	0.04770
1361.62919	0.04672
1360.34342	0.04575
1359.05765	0.04484
1357.77188	0.04404
1356.48611	0.04336
1355.20034	0.04276
1353.91457	0.04220
1352.62881	0.04166
1351.34304	0.04115
1350.05727	0.04069
1348.77150	0.04027
1347.48573	0.03989
1346.19996	0.03955
1344.91419	0.03922
1343.62842	0.03886
1342.34266	0.03844
1341.05689	0.03798
1339.77112	0.03752
1338.48535	0.03710
1337.19958	0.03673
1335.91381	0.03640
1334.62804	0.03609
1333.34227	0.03576
1332.05650	0.03540
1330.77074	0.03499
1329.48497	0.03457
1328.19920	0.03416
1326.91343	0.03384
1325.62766	0.03363
1324.34189	0.03350
1323.05612	0.03339
1321.77035	0.03325
1320.48459	0.03308
1319.19882	0.03287
1317.91305	0.03264
1316.62728	0.03237
1315.34151	0.03206
1314.05574	0.03173
1312.76997	0.03140
1311.48420	0.03112
1310.19843	0.03089
1308.91267	0.03070
1307.62690	0.03053
1306.34113	0.03036
1305.05536	0.03020
1303.76959	0.03005
1302.48382	0.02992
1301.19805	0.02982
1299.91228	0.02974
1298.62652	0.02966
1297.34075	0.02957
1296.05498	0.02945
1294.76921	0.02933
1293.48344	0.02923
1292.19767	0.02918
1290.91190	0.02913
1289.62613	0.02907
1288.34036	0.02895
1287.05460	0.02879
1285.76883	0.02863
1284.48306	0.02848
1283.19729	0.02837
1281.91152	0.02831
1280.62575	0.02828
1279.33998	0.02826
1278.05421	0.02825
1276.76845	0.02827
1275.48268	0.02829
1274.19691	0.02828
1272.91114	0.02824
1271.62537	0.02818
1270.33960	0.02812
1269.05383	0.02809
1267.76806	0.02811
1266.48229	0.02816
1265.19653	0.02824
1263.91076	0.02832
1262.62499	0.02839
1261.33922	0.02842
1260.05345	0.02844
1258.76768	0.02850
1257.48191	0.02864
1256.19614	0.02884
1254.91037	0.02904
1253.62461	0.02918
1252.33884	0.02923
1251.05307	0.02922
1249.76730	0.02919
1248.48153	0.02914
1247.19576	0.02909
1245.90999	0.02905
1244.62422	0.02901
1243.33846	0.02899
1242.05269	0.02898
1240.76692	0.02898
1239.48115	0.02902
1238.19538	0.02908
1236.90961	0.02915
1235.62384	0.02917
1234.33807	0.02916
1233.05230	0.02913
1231.76654	0.02910
1230.48077	0.02911
1229.19500	0.02912
1227.90923	0.02913
1226.62346	0.02909
1225.33769	0.02900
1224.05192	0.02887
1222.76615	0.02875
1221.48039	0.02869
1220.19462	0.02871
1218.90885	0.02876
1217.62308	0.02882
1216.33731	0.02887
1215.05154	0.02891
1213.76577	0.02890
1212.48000	0.02884
1211.19423	0.02878
1209.90847	0.02875
1208.62270	0.02877
1207.33693	0.02882
1206.05116	0.02890
1204.76539	0.02899
1203.47962	0.02906
1202.19385	0.02912
1200.90808	0.02922
1199.62232	0.02939
1198.33655	0.02947
1197.05078	0.02953
1195.76501	0.02954
1194.47924	0.02951
1193.19347	0.02946
1191.90770	0.02941
1190.62193	0.02942
1189.33616	0.02950
1188.05040	0.02963
1186.76463	0.02977
1185.47886	0.02990
1184.19309	0.03002
1182.90732	0.03018
1181.62155	0.03037
1180.33578	0.03057
1179.05001	0.03075
1177.76425	0.03088
1176.47848	0.03098
1175.19271	0.03111
1173.90694	0.03128
1172.62117	0.03149
1171.33540	0.03170
1170.04963	0.03191
1168.76386	0.03214
1167.47809	0.03241
1166.19233	0.03273
1164.90656	0.03302
1163.62079	0.03320
1162.33502	0.03326
1161.04925	0.03325
1159.76348	0.03328
1158.47771	0.03341
1157.19194	0.03360
1155.90618	0.03380
1154.62041	0.03397
1153.33464	0.03415
1152.04887	0.03436
1150.76310	0.03466
1149.47733	0.03508
1148.19156	0.03558
1146.90579	0.03613
1145.62002	0.03668
1144.33426	0.03721
1143.04849	0.03774
1141.76272	0.03828
1140.47695	0.03883
1139.19118	0.03943
1137.90541	0.04012
1136.61964	0.04093
1135.33387	0.04189
1134.04811	0.04296
1132.76234	0.04408
1131.47657	0.04520
1130.19080	0.04641
1128.90503	0.04782
1127.61926	0.04947
1126.33349	0.05130
1125.04772	0.05321
1123.76195	0.05515
1122.47619	0.05716
1121.19042	0.05927
1119.90465	0.06142
1118.61888	0.06356
1117.33311	0.06570
1116.04734	0.06786
1114.76157	0.07003
1113.47580	0.07213
1112.19004	0.07418
1110.90427	0.07620
1109.61850	0.07820
1108.33273	0.08014
1107.04696	0.08202
1105.76119	0.08383
1104.47542	0.08558
1103.18965	0.08728
1101.90388	0.08896
1100.61812	0.09062
1099.33235	0.09220
1098.04658	0.09361
1096.76081	0.09485
1095.47504	0.09599
1094.18927	0.09711
1092.90350	0.09827
1091.61773	0.09942
1090.33197	0.10051
1089.04620	0.10150
1087.76043	0.10244
1086.47466	0.10339
1085.18889	0.10440
1083.90312	0.10543
1082.61735	0.10650
1081.33158	0.10762
1080.04581	0.10880
1078.76005	0.11005
1077.47428	0.11134
1076.18851	0.11268
1074.90274	0.11409
1073.61697	0.11560
1072.33120	0.11721
1071.04543	0.11889
1069.75966	0.12061
1068.47390	0.12240
1067.18813	0.12432
1065.90236	0.12635
1064.61659	0.12844
1063.33082	0.13049
1062.04505	0.13248
1060.75928	0.13443
1059.47351	0.13642
1058.18774	0.13849
1056.90198	0.14057
1055.61621	0.14260
1054.33044	0.14456
1053.04467	0.14650
1051.75890	0.14847
1050.47313	0.15050
1049.18736	0.15258
1047.90159	0.15468
1046.61583	0.15677
1045.33006	0.15884
1044.04429	0.16091
1042.75852	0.16305
1041.47275	0.16526
1040.18698	0.16752
1038.90121	0.16976
1037.61544	0.17193
1036.32967	0.17408
1035.04391	0.17619
1033.75814	0.17823
1032.47237	0.18017
1031.18660	0.18197
1029.90083	0.18363
1028.61506	0.18513
1027.32929	0.18645
1026.04352	0.18757
1024.75775	0.18842
1023.47199	0.18900
1022.18622	0.18935
1020.90045	0.18951
1019.61468	0.18949
1018.32891	0.18928
1017.04314	0.18889
1015.75737	0.18833
1014.47160	0.18753
1013.18584	0.18640
1011.90007	0.18490
1010.61430	0.18312
1009.32853	0.18121
1008.04276	0.17922
1006.75699	0.17706
1005.47122	0.17458
1004.18545	0.17180
1002.89968	0.16884
1001.61392	0.16578
1000.32815	0.16260
999.04238	0.15927
997.75661	0.15584
996.47084	0.15235
995.18507	0.14879
993.89930	0.14511
992.61353	0.14133
991.32777	0.13755
990.04200	0.13392
988.75623	0.13045
987.47046	0.12706
986.18469	0.12370
984.89892	0.12043
983.61315	0.11734
982.32738	0.11444
981.04161	0.11166
979.75585	0.10894
978.47008	0.10627
977.18431	0.10371
975.89854	0.10132
974.61277	0.09916
973.32700	0.09729
972.04123	0.09571
970.75546	0.09446
969.46970	0.09356
968.18393	0.09298
966.89816	0.09262
965.61239	0.09237
964.32662	0.09222
963.04085	0.09219
961.75508	0.09224
960.46931	0.09222
959.18354	0.09191
957.89778	0.09116
956.61201	0.08998
955.32624	0.08854
954.04047	0.08696
952.75470	0.08535
951.46893	0.08378
950.18316	0.08230
948.89739	0.08086
947.61163	0.07939
946.32586	0.07789
945.04009	0.07640
943.75432	0.07496
942.46855	0.07354
941.18278	0.07212
939.89701	0.07074
938.61124	0.06947
937.32547	0.06837
936.03971	0.06741
934.75394	0.06653
933.46817	0.06567
932.18240	0.06479
930.89663	0.06388
929.61086	0.06299
928.32509	0.06215
927.03932	0.06143
925.75356	0.06080
924.46779	0.06019
923.18202	0.05951
921.89625	0.05876
920.61048	0.05797
919.32471	0.05723
918.03894	0.05658
916.75317	0.05601
915.46740	0.05551
914.18164	0.05502
912.89587	0.05453
911.61010	0.05401
910.32433	0.05347
909.03856	0.05288
907.75279	0.05223
906.46702	0.05151
905.18125	0.05082
903.89549	0.05024
902.60972	0.04980
901.32395	0.04944
900.03818	0.04905
898.75241	0.04860
897.46664	0.04818
896.18087	0.04789
894.89510	0.04770
893.60933	0.04747
892.32357	0.04711
891.03780	0.04667
889.75203	0.04629
888.46626	0.04615
887.18049	0.04636
885.89472	0.04700
884.60895	0.04814
883.32318	0.04975
882.03742	0.05172
880.75165	0.05378
879.46588	0.05560
878.18011	0.05699
876.89434	0.05806
875.60857	0.05907
874.32280	0.06014
873.03703	0.06103
871.75126	0.06136
870.46550	0.06093
869.17973	0.05989
867.89396	0.05848
866.60819	0.05688
865.32242	0.05520
864.03665	0.05351
862.75088	0.05189
861.46511	0.05036
860.17935	0.04892
858.89358	0.04757
857.60781	0.04637
856.32204	0.04537
855.03627	0.04460
853.75050	0.04400
852.46473	0.04349
851.17896	0.04299
849.89319	0.04245
848.60743	0.04191
847.32166	0.04142
846.03589	0.04101
844.75012	0.04068
843.46435	0.04039
842.17858	0.04012
840.89281	0.03985
839.60704	0.03956
838.32128	0.03923
837.03551	0.03885
835.74974	0.03846
834.46397	0.03815
833.17820	0.03795
831.89243	0.03783
830.60666	0.03769
829.32089	0.03751
828.03512	0.03730
826.74936	0.03712
825.46359	0.03697
824.17782	0.03684
822.89205	0.03674
821.60628	0.03666
820.32051	0.03665
819.03474	0.03667
817.74897	0.03668
816.46321	0.03666
815.17744	0.03662
813.89167	0.03660
812.60590	0.03662
811.32013	0.03666
810.03436	0.03671
808.74859	0.03680
807.46282	0.03698
806.17705	0.03725
804.89129	0.03753
803.60552	0.03781
802.31975	0.03807
801.03398	0.03836
799.74821	0.03863
798.46244	0.03886
797.17667	0.03902
795.89090	0.03912
794.60513	0.03917
793.31937	0.03919
792.03360	0.03918
790.74783	0.03916
789.46206	0.03911
788.17629	0.03905
786.89052	0.03893
785.60475	0.03875
784.31898	0.03856
783.03322	0.03845
781.74745	0.03848
780.46168	0.03858
779.17591	0.03864
777.89014	0.03859
776.60437	0.03845
775.31860	0.03829
774.03283	0.03814
772.74706	0.03797
771.46130	0.03778
770.17553	0.03758
768.88976	0.03739
767.60399	0.03724
766.31822	0.03713
765.03245	0.03705
763.74668	0.03699
762.46091	0.03695
761.17515	0.03697
759.88938	0.03709
758.60361	0.03725
757.31784	0.03735
756.03207	0.03725
754.74630	0.03699
753.46053	0.03670
752.17476	0.03649
750.88899	0.03639
749.60323	0.03634
748.31746	0.03630
747.03169	0.03623
745.74592	0.03614
744.46015	0.03605
743.17438	0.03593
741.88861	0.03580
740.60284	0.03566
739.31708	0.03557
738.03131	0.03551
736.74554	0.03546
735.45977	0.03537
734.17400	0.03527
732.88823	0.03517
731.60246	0.03509
730.31669	0.03503
729.03092	0.03500
727.74516	0.03504
726.45939	0.03516
725.17362	0.03529
723.88785	0.03512
722.60208	0.03533
721.31631	0.03575
720.03054	0.03616
718.74477	0.03649
717.45901	0.03667
716.17324	0.03666
714.88747	0.03644
713.60170	0.03605
712.31593	0.03556
711.03016	0.03509
709.74439	0.03473
708.45862	0.03451
707.17285	0.03439
705.88709	0.03432
704.60132	0.03425
703.31555	0.03418
702.02978	0.03414
700.74401	0.03415
699.45824	0.03424
698.17247	0.03438
696.88670	0.03454
695.60094	0.03467
694.31517	0.03474
693.02940	0.03475
691.74363	0.03468
690.45786	0.03455
689.17209	0.03439
687.88632	0.03421
686.60055	0.03401
685.31478	0.03376
684.02902	0.03353
682.74325	0.03335
681.45748	0.03327
680.17171	0.03322
678.88594	0.03315
677.60017	0.03306
676.31440	0.03297
675.02863	0.03291
673.74287	0.03290
672.45710	0.03290
671.17133	0.03294
669.88556	0.03303
668.59979	0.03314
667.31402	0.03319
666.02825	0.03313
664.74248	0.03295
663.45671	0.03274
662.17095	0.03255
660.88518	0.03242
659.59941	0.03233
658.31364	0.03229
657.02787	0.03230
655.74210	0.03234
654.45633	0.03235
653.17056	0.03232
651.88480	0.03226
650.59903	0.03225
649.31326	0.03228
648.02749	0.03231
646.74172	0.03229
645.45595	0.03226
644.17018	0.03227
642.88441	0.03236
641.59864	0.03245
640.31288	0.03245
639.02711	0.03231
637.74134	0.03212
636.45557	0.03200
635.16980	0.03205
633.88403	0.03222
632.59826	0.03241
631.31249	0.03242
630.02673	0.03186
628.74096	0.03106
627.45519	0.03178
626.16942	0.03098
624.88365	0.02910
623.59788	0.02727
622.31211	0.02632
621.02634	0.02710
619.74057	0.02982
618.45481	0.03351
617.16904	0.03694
615.88327	0.03954
614.59750	0.04145
613.31173	0.04306
612.02596	0.04489
610.74019	0.04771
609.45442	0.05203
608.16866	0.05723
606.88289	0.06170
605.59712	0.06435
604.31135	0.06547
603.02558	0.06610
601.73981	0.06693
600.45404	0.06783
599.16827	0.06829
597.88250	0.06793
596.59674	0.06675
595.31097	0.06508
594.02520	0.06335
592.73943	0.06191
591.45366	0.06093
590.16789	0.06045
588.88212	0.06043
587.59635	0.06081
586.31059	0.06144
585.02482	0.06222
583.73905	0.06311
582.45328	0.06420
581.16751	0.06553
579.88174	0.06703
578.59597	0.06854
577.31020	0.06994
576.02443	0.07123
574.73867	0.07244
573.45290	0.07360
572.16713	0.07473
570.88136	0.07591
569.59559	0.07728
568.30982	0.07897
567.02405	0.08102
565.73828	0.08332
564.45251	0.08555
563.16675	0.08727
561.88098	0.08813
560.59521	0.08802
559.30944	0.08711
558.02367	0.08558
556.73790	0.08357
555.45213	0.08109
554.16636	0.07816
552.88060	0.07493
551.59483	0.07172
550.30906	0.06880
549.02329	0.06632
547.73752	0.06419
546.45175	0.06227
545.16598	0.06052
543.88021	0.05901
542.59444	0.05777
541.30868	0.05677
540.02291	0.05594
538.73714	0.05521
537.45137	0.05454
536.16560	0.05387
534.87983	0.05316
533.59406	0.05238
532.30829	0.05153
531.02253	0.05070
529.73676	0.04998
528.45099	0.04948
527.16522	0.04915
525.87945	0.04890
524.59368	0.04864
523.30791	0.04834
522.02214	0.04796
520.73637	0.04748
519.45061	0.04693
518.16484	0.04632
516.87907	0.04574
515.59330	0.04521
514.30753	0.04476
513.02176	0.04433
511.73599	0.04392
510.45022	0.04354
509.16446	0.04325
507.87869	0.04303
506.59292	0.04285
505.30715	0.04265
504.02138	0.04245
502.73561	0.04226
501.44984	0.04212
500.16407	0.04201
498.87830	0.04193
497.59254	0.04183
496.30677	0.04167
495.02100	0.04144
493.73523	0.04116
492.44946	0.04092
491.16369	0.04083
489.87792	0.04091
488.59215	0.04110
487.30639	0.04130
486.02062	0.04145
484.73485	0.04158
483.44908	0.04178
482.16331	0.04212
480.87754	0.04259
479.59177	0.04310
478.30600	0.04356
477.02023	0.04396
475.73447	0.04433
474.44870	0.04475
473.16293	0.04522
471.87716	0.04569
470.59139	0.04612
469.30562	0.04645
468.01985	0.04662
466.73408	0.04658
465.44832	0.04636
464.16255	0.04602
462.87678	0.04562
461.59101	0.04514
460.30524	0.04459
459.01947	0.04401
457.73370	0.04344
456.44793	0.04290
455.16216	0.04240
453.87640	0.04193
452.59063	0.04147
451.30486	0.04104
450.01909	0.04070
448.73332	0.04047
447.44755	0.04030
446.16178	0.04009
444.87601	0.03978
443.59025	0.03939
442.30448	0.03900
441.01871	0.03870
439.73294	0.03852
438.44717	0.03838
437.16140	0.03823
435.87563	0.03807
434.58986	0.03795
433.30409	0.03792
432.01833	0.03795
430.73256	0.03797
429.44679	0.03789
428.16102	0.03772
426.87525	0.03751
425.58948	0.03730
424.30371	0.03711
423.01794	0.03689
421.73218	0.03663
420.44641	0.03632
419.16064	0.03595
417.87487	0.03554
416.58910	0.03513
415.30333	0.03476
414.01756	0.03442
412.73179	0.03407
411.44602	0.03370
410.16026	0.03330
408.87449	0.03293
407.58872	0.03264
406.30295	0.03241
405.01718	0.03223
403.73141	0.03212
402.44564	0.03213
401.15987	0.03229
399.87411	0.03254
