3997.45528	0.04643
3996.16951	0.04557
3994.88374	0.04498
3993.59798	0.04494
3992.31221	0.04562
3991.02644	0.04672
3989.74067	0.04755
3988.45490	0.04756
3987.16913	0.04694
3985.88336	0.04636
3984.59759	0.04634
3983.31183	0.04675
3982.02606	0.04706
3980.74029	0.04689
3979.45452	0.04623
3978.16875	0.04546
3976.88298	0.04509
3975.59721	0.04539
3974.31144	0.04605
3973.02567	0.04638
3971.73991	0.04590
3970.45414	0.04485
3969.16837	0.04395
3967.88260	0.04386
3966.59683	0.04463
3965.31106	0.04562
3964.02529	0.04610
3962.73952	0.04591
3961.45376	0.04565
3960.16799	0.04596
3958.88222	0.04689
3957.59645	0.04787
3956.31068	0.04840
3955.02491	0.04834
3953.73914	0.04786
3952.45337	0.04722
3951.16760	0.04670
3949.88184	0.04650
3948.59607	0.04647
3947.31030	0.04626
3946.02453	0.04574
3944.73876	0.04523
3943.45299	0.04531
3942.16722	0.04613
3940.88145	0.04722
3939.59569	0.04771
3938.30992	0.04709
3937.02415	0.04560
3935.73838	0.04405
3934.45261	0.04326
3933.16684	0.04353
3931.88107	0.04458
3930.59530	0.04575
3929.30953	0.04640
3928.02377	0.04624
3926.73800	0.04548
3925.45223	0.04459
3924.16646	0.04407
3922.88069	0.04437
3921.59492	0.04551
3920.30915	0.04692
3919.02338	0.04773
3917.73762	0.04755
3916.45185	0.04678
3915.16608	0.04604
3913.88031	0.04554
3912.59454	0.04518
3911.30877	0.04484
3910.02300	0.04458
3908.73723	0.04449
3907.45146	0.04449
3906.16570	0.04437
3904.87993	0.04398
3903.59416	0.04341
3902.30839	0.04302
3901.02262	0.04308
3899.73685	0.04334
3898.45108	0.04342
3897.16531	0.04330
3895.87955	0.04328
3894.59378	0.04343
3893.30801	0.04331
3892.02224	0.04252
3890.73647	0.04123
3889.45070	0.04005
3888.16493	0.03955
3886.87916	0.03999
3885.59339	0.04112
3884.30763	0.04223
3883.02186	0.04256
3881.73609	0.04198
3880.45032	0.04115
3879.16455	0.04081
3877.87878	0.04121
3876.59301	0.04209
3875.30724	0.04316
3874.02148	0.04432
3872.73571	0.04541
3871.44994	0.04603
3870.16417	0.04575
3868.87840	0.04454
3867.59263	0.04281
3866.30686	0.04118
3865.02109	0.04007
3863.73532	0.03954
3862.44956	0.03948
3861.16379	0.03983
3859.87802	0.04076
3858.59225	0.04232
3857.30648	0.04417
3856.02071	0.04563
3854.73494	0.04616
3853.44917	0.04573
3852.16341	0.04477
3850.87764	0.04383
3849.59187	0.04323
3848.30610	0.04299
3847.02033	0.04294
3845.73456	0.04293
3844.44879	0.04291
3843.16302	0.04286
3841.87725	0.04268
3840.59149	0.04237
3839.30572	0.04205
3838.01995	0.04194
3836.73418	0.04202
3835.44841	0.04219
3834.16264	0.04254
3832.87687	0.04327
3831.59110	0.04432
3830.30534	0.04519
3829.01957	0.04538
3827.73380	0.04488
3826.44803	0.04411
3825.16226	0.04337
3823.87649	0.04270
3822.59072	0.04198
3821.30495	0.04117
3820.01918	0.04032
3818.73342	0.03967
3817.44765	0.03949
3816.16188	0.03984
3814.87611	0.04051
3813.59034	0.04116
3812.30457	0.04156
3811.01880	0.04150
3809.73303	0.04095
3808.44726	0.04025
3807.16150	0.04004
3805.87573	0.04062
3804.58996	0.04153
3803.30419	0.04199
3802.01842	0.04165
3800.73265	0.04086
3799.44688	0.04023
3798.16111	0.04004
3796.87535	0.04013
3795.58958	0.04025
3794.30381	0.04042
3793.01804	0.04087
3791.73227	0.04172
3790.44650	0.04266
3789.16073	0.04309
3787.87496	0.04273
3786.58919	0.04189
3785.30343	0.04119
3784.01766	0.04091
3782.73189	0.04091
3781.44612	0.04103
3780.16035	0.04126
3778.87458	0.04165
3777.58881	0.04205
3776.30304	0.04224
3775.01728	0.04202
3773.73151	0.04136
3772.44574	0.04050
3771.15997	0.03990
3769.87420	0.03993
3768.58843	0.04053
3767.30266	0.04120
3766.01689	0.04132
3764.73112	0.04065
3763.44536	0.03946
3762.15959	0.03839
3760.87382	0.03794
3759.58805	0.03812
3758.30228	0.03855
3757.01651	0.03887
3755.73074	0.03899
3754.44497	0.03897
3753.15921	0.03891
3751.87344	0.03892
3750.58767	0.03911
3749.30190	0.03944
3748.01613	0.03969
3746.73036	0.03957
3745.44459	0.03900
3744.15882	0.03817
3742.87305	0.03742
3741.58729	0.03700
3740.30152	0.03699
3739.01575	0.03729
3737.72998	0.03771
3736.44421	0.03797
3735.15844	0.03788
3733.87267	0.03757
3732.58690	0.03740
3731.30114	0.03772
3730.01537	0.03861
3728.72960	0.03978
3727.44383	0.04073
3726.15806	0.04106
3724.87229	0.04078
3723.58652	0.04023
3722.30075	0.03971
3721.01498	0.03926
3719.72922	0.03870
3718.44345	0.03795
3717.15768	0.03718
3715.87191	0.03671
3714.58614	0.03683
3713.30037	0.03750
3712.01460	0.03826
3710.72883	0.03859
3709.44307	0.03838
3708.15730	0.03799
3706.87153	0.03790
3705.58576	0.03816
3704.29999	0.03844
3703.01422	0.03827
3701.72845	0.03748
3700.44268	0.03628
3699.15691	0.03524
3697.87115	0.03490
3696.58538	0.03543
3695.29961	0.03653
3694.01384	0.03774
3692.72807	0.03881
3691.44230	0.03973
3690.15653	0.04052
3688.87076	0.04094
3687.58500	0.04067
3686.29923	0.03967
3685.01346	0.03834
3683.72769	0.03728
3682.44192	0.03675
3681.15615	0.03649
3679.87038	0.03616
3678.58461	0.03585
3677.29884	0.03602
3676.01308	0.03695
3674.72731	0.03844
3673.44154	0.04006
3672.15577	0.04142
3670.87000	0.04215
3669.58423	0.04199
3668.29846	0.04105
3667.01269	0.03990
3665.72693	0.03907
3664.44116	0.03854
3663.15539	0.03797
3661.86962	0.03720
3660.58385	0.03652
3659.29808	0.03621
3658.01231	0.03628
3656.72654	0.03662
3655.44077	0.03718
3654.15501	0.03788
3652.86924	0.03852
3651.58347	0.03894
3650.29770	0.03931
3649.01193	0.03986
3647.72616	0.04053
3646.44039	0.04096
3645.15462	0.04096
3643.86886	0.04079
3642.58309	0.04085
3641.29732	0.04125
3640.01155	0.04166
3638.72578	0.04167
3637.44001	0.04126
3636.15424	0.04081
3634.86847	0.04076
3633.58270	0.04115
3632.29694	0.04166
3631.01117	0.04193
3629.72540	0.04187
3628.43963	0.04167
3627.15386	0.04145
3625.86809	0.04116
3624.58232	0.04077
3623.29655	0.04062
3622.01079	0.04124
3620.72502	0.04276
3619.43925	0.04469
3618.15348	0.04613
3616.86771	0.04651
3615.58194	0.04589
3614.29617	0.04492
3613.01040	0.04436
3611.72463	0.04459
3610.43887	0.04546
3609.15310	0.04644
3607.86733	0.04704
3606.58156	0.04705
3605.29579	0.04670
3604.01002	0.04644
3602.72425	0.04661
3601.43848	0.04714
3600.15272	0.04768
3598.86695	0.04790
3597.58118	0.04775
3596.29541	0.04749
3595.00964	0.04752
3593.72387	0.04801
3592.43810	0.04874
3591.15233	0.04936
3589.86656	0.04981
3588.58080	0.05024
3587.29503	0.05068
3586.00926	0.05097
3584.72349	0.05095
3583.43772	0.05068
3582.15195	0.05018
3580.86618	0.04951
3579.58041	0.04893
3578.29464	0.04881
3577.00888	0.04932
3575.72311	0.05029
3574.43734	0.05142
3573.15157	0.05249
3571.86580	0.05339
3570.58003	0.05411
3569.29426	0.05470
3568.00849	0.05520
3566.72273	0.05561
3565.43696	0.05585
3564.15119	0.05582
3562.86542	0.05548
3561.57965	0.05509
3560.29388	0.05495
3559.00811	0.05518
3557.72234	0.05549
3556.43657	0.05559
3555.15081	0.05545
3553.86504	0.05524
3552.57927	0.05497
3551.29350	0.05455
3550.00773	0.05412
3548.72196	0.05409
3547.43619	0.05469
3546.15042	0.05569
3544.86466	0.05669
3543.57889	0.05754
3542.29312	0.05831
3541.00735	0.05898
3539.72158	0.05930
3538.43581	0.05912
3537.15004	0.05851
3535.86427	0.05776
3534.57850	0.05720
3533.29274	0.05700
3532.00697	0.05707
3530.72120	0.05714
3529.43543	0.05713
3528.14966	0.05729
3526.86389	0.05786
3525.57812	0.05874
3524.29235	0.05948
3523.00659	0.05962
3521.72082	0.05918
3520.43505	0.05865
3519.14928	0.05865
3517.86351	0.05937
3516.57774	0.06049
3515.29197	0.06149
3514.00620	0.06213
3512.72043	0.06242
3511.43467	0.06242
3510.14890	0.06218
3508.86313	0.06183
3507.57736	0.06162
3506.29159	0.06160
3505.00582	0.06160
3503.72005	0.06151
3502.43428	0.06154
3501.14852	0.06191
3499.86275	0.06248
3498.57698	0.06283
3497.29121	0.06271
3496.00544	0.06236
3494.71967	0.06213
3493.43390	0.06211
3492.14813	0.06223
3490.86236	0.06256
3489.57660	0.06329
3488.29083	0.06437
3487.00506	0.06535
3485.71929	0.06573
3484.43352	0.06537
3483.14775	0.06461
3481.86198	0.06394
3480.57621	0.06372
3479.29045	0.06400
3478.00468	0.06464
3476.71891	0.06546
3475.43314	0.06626
3474.14737	0.06679
3472.86160	0.06689
3471.57583	0.06663
3470.29006	0.06630
3469.00429	0.06614
3467.71853	0.06626
3466.43276	0.06663
3465.14699	0.06714
3463.86122	0.06762
3462.57545	0.06792
3461.28968	0.06801
3460.00391	0.06796
3458.71814	0.06791
3457.43238	0.06794
3456.14661	0.06806
3454.86084	0.06813
3453.57507	0.06798
3452.28930	0.06765
3451.00353	0.06740
3449.71776	0.06748
3448.43199	0.06789
3447.14622	0.06835
3445.86046	0.06853
3444.57469	0.06838
3443.28892	0.06817
3442.00315	0.06830
3440.71738	0.06885
3439.43161	0.06949
3438.14584	0.06975
3436.86007	0.06953
3435.57431	0.06912
3434.28854	0.06899
3433.00277	0.06929
3431.71700	0.06981
3430.43123	0.07018
3429.14546	0.07020
3427.85969	0.06999
3426.57392	0.06976
3425.28815	0.06965
3424.00239	0.06972
3422.71662	0.07000
3421.43085	0.07054
3420.14508	0.07125
3418.85931	0.07188
3417.57354	0.07215
3416.28777	0.07189
3415.00200	0.07128
3413.71624	0.07075
3412.43047	0.07081
3411.14470	0.07161
3409.85893	0.07288
3408.57316	0.07403
3407.28739	0.07461
3406.00162	0.07451
3404.71585	0.07406
3403.43008	0.07362
3402.14432	0.07330
3400.85855	0.07294
3399.57278	0.07247
3398.28701	0.07206
3397.00124	0.07197
3395.71547	0.07220
3394.42970	0.07251
3393.14393	0.07261
3391.85817	0.07252
3390.57240	0.07255
3389.28663	0.07296
3388.00086	0.07362
3386.71509	0.07413
3385.42932	0.07429
3384.14355	0.07425
3382.85778	0.07426
3381.57201	0.07431
3380.28625	0.07422
3379.00048	0.07395
3377.71471	0.07362
3376.42894	0.07330
3375.14317	0.07288
3373.85740	0.07228
3372.57163	0.07171
3371.28586	0.07149
3370.00010	0.07172
3368.71433	0.07223
3367.42856	0.07291
3366.14279	0.07375
3364.85702	0.07471
3363.57125	0.07547
3362.28548	0.07575
3360.99971	0.07554
3359.71394	0.07515
3358.42818	0.07478
3357.14241	0.07443
3355.85664	0.07405
3354.57087	0.07372
3353.28510	0.07363
3351.99933	0.07390
3350.71356	0.07437
3349.42779	0.07477
3348.14202	0.07491
3346.85626	0.07475
3345.57049	0.07430
3344.28472	0.07365
3342.99895	0.07302
3341.71318	0.07280
3340.42741	0.07323
3339.14164	0.07406
3337.85587	0.07470
3336.57011	0.07473
3335.28434	0.07420
3333.99857	0.07350
3332.71280	0.07289
3331.42703	0.07245
3330.14126	0.07216
3328.85549	0.07210
3327.56972	0.07235
3326.28395	0.07285
3324.99819	0.07335
3323.71242	0.07362
3322.42665	0.07363
3321.14088	0.07354
3319.85511	0.07347
3318.56934	0.07335
3317.28357	0.07305
3315.99780	0.07260
3314.71204	0.07225
3313.42627	0.07221
3312.14050	0.07246
3310.85473	0.07274
3309.56896	0.07284
3308.28319	0.07272
3306.99742	0.07253
3305.71165	0.07248
3304.42588	0.07261
3303.14012	0.07278
3301.85435	0.07273
3300.56858	0.07236
3299.28281	0.07191
3297.99704	0.07167
3296.71127	0.07171
3295.42550	0.07178
3294.13973	0.07166
3292.85397	0.07150
3291.56820	0.07158
3290.28243	0.07197
3288.99666	0.07244
3287.71089	0.07270
3286.42512	0.07263
3285.13935	0.07226
3283.85358	0.07170
3282.56781	0.07115
3281.28205	0.07080
3279.99628	0.07078
3278.71051	0.07105
3277.42474	0.07143
3276.13897	0.07170
3274.85320	0.07172
3273.56743	0.07152
3272.28166	0.07132
3270.99590	0.07132
3269.71013	0.07158
3268.42436	0.07199
3267.13859	0.07230
3265.85282	0.07234
3264.56705	0.07218
3263.28128	0.07201
3261.99551	0.07193
3260.70974	0.07193
3259.42398	0.07197
3258.13821	0.07212
3256.85244	0.07235
3255.56667	0.07248
3254.28090	0.07228
3252.99513	0.07178
3251.70936	0.07124
3250.42359	0.07095
3249.13783	0.07098
3247.85206	0.07114
3246.56629	0.07118
3245.28052	0.07093
3243.99475	0.07045
3242.70898	0.06994
3241.42321	0.06970
3240.13744	0.06989
3238.85167	0.07039
3237.56591	0.07077
3236.28014	0.07072
3234.99437	0.07031
3233.70860	0.06982
3232.42283	0.06944
3231.13706	0.06915
3229.85129	0.06887
3228.56552	0.06859
3227.27976	0.06830
3225.99399	0.06798
3224.70822	0.06775
3223.42245	0.06781
3222.13668	0.06829
3220.85091	0.06899
3219.56514	0.06948
3218.27937	0.06942
3216.99360	0.06892
3215.70784	0.06840
3214.42207	0.06818
3213.13630	0.06825
3211.85053	0.06837
3210.56476	0.06842
3209.27899	0.06835
3207.99322	0.06824
3206.70745	0.06819
3205.42169	0.06834
3204.13592	0.06861
3202.85015	0.06878
3201.56438	0.06872
3200.27861	0.06850
3198.99284	0.06828
3197.70707	0.06818
3196.42130	0.06818
3195.13553	0.06824
3193.84977	0.06828
3192.56400	0.06829
3191.27823	0.06836
3189.99246	0.06856
3188.70669	0.06882
3187.42092	0.06889
3186.13515	0.06868
3184.84938	0.06837
3183.56362	0.06815
3182.27785	0.06797
3180.99208	0.06763
3179.70631	0.06711
3178.42054	0.06664
3177.13477	0.06642
3175.84900	0.06640
3174.56323	0.06644
3173.27746	0.06645
3171.99170	0.06647
3170.70593	0.06651
3169.42016	0.06653
3168.13439	0.06654
3166.84862	0.06654
3165.56285	0.06655
3164.27708	0.06654
3162.99131	0.06651
3161.70555	0.06653
3160.41978	0.06659
3159.13401	0.06663
3157.84824	0.06656
3156.56247	0.06638
3155.27670	0.06624
3153.99093	0.06628
3152.70516	0.06640
3151.41939	0.06633
3150.13363	0.06595
3148.84786	0.06543
3147.56209	0.06499
3146.27632	0.06473
3144.99055	0.06453
3143.70478	0.06427
3142.41901	0.06393
3141.13324	0.06358
3139.84748	0.06336
3138.56171	0.06339
3137.27594	0.06363
3135.99017	0.06389
3134.70440	0.06395
3133.41863	0.06378
3132.13286	0.06359
3130.84709	0.06367
3129.56132	0.06404
3128.27556	0.06443
3126.98979	0.06451
3125.70402	0.06424
3124.41825	0.06384
3123.13248	0.06350
3121.84671	0.06321
3120.56094	0.06287
3119.27517	0.06244
3117.98940	0.06205
3116.70364	0.06179
3115.41787	0.06173
3114.13210	0.06185
3112.84633	0.06210
3111.56056	0.06237
3110.27479	0.06258
3108.98902	0.06261
3107.70325	0.06236
3106.41749	0.06183
3105.13172	0.06124
3103.84595	0.06090
3102.56018	0.06089
3101.27441	0.06099
3099.98864	0.06099
3098.70287	0.06085
3097.41710	0.06063
3096.13133	0.06036
3094.84557	0.06007
3093.55980	0.05986
3092.27403	0.05989
3090.98826	0.06010
3089.70249	0.06027
3088.41672	0.06028
3087.13095	0.06022
3085.84518	0.06026
3084.55942	0.06038
3083.27365	0.06034
3081.98788	0.06004
3080.70211	0.05969
3079.41634	0.05959
3078.13057	0.05983
3076.84480	0.06020
3075.55903	0.06043
3074.27326	0.06037
3072.98750	0.06004
3071.70173	0.05954
3070.41596	0.05905
3069.13019	0.05874
3067.84442	0.05865
3066.55865	0.05871
3065.27288	0.05883
3063.98711	0.05895
3062.70135	0.05904
3061.41558	0.05904
3060.12981	0.05888
3058.84404	0.05853
3057.55827	0.05806
3056.27250	0.05755
3054.98673	0.05711
3053.70096	0.05687
3052.41519	0.05695
3051.12943	0.05741
3049.84366	0.05820
3048.55789	0.05902
3047.27212	0.05949
3045.98635	0.05931
3044.70058	0.05854
3043.41481	0.05758
3042.12904	0.05686
3040.84328	0.05658
3039.55751	0.05666
3038.27174	0.05694
3036.98597	0.05727
3035.70020	0.05752
3034.41443	0.05749
3033.12866	0.05717
3031.84289	0.05676
3030.55712	0.05654
3029.27136	0.05659
3027.98559	0.05677
3026.69982	0.05686
3025.41405	0.05673
3024.12828	0.05638
3022.84251	0.05595
3021.55674	0.05560
3020.27097	0.05538
3018.98521	0.05524
3017.69944	0.05509
3016.41367	0.05487
3015.12790	0.05455
3013.84213	0.05415
3012.55636	0.05375
3011.27059	0.05349
3009.98482	0.05343
3008.69905	0.05354
3007.41329	0.05369
3006.12752	0.05378
3004.84175	0.05376
3003.55598	0.05360
3002.27021	0.05333
3000.98444	0.05298
2999.69867	0.05268
2998.41290	0.05254
2997.12714	0.05265
2995.84137	0.05295
2994.55560	0.05329
2993.26983	0.05345
2991.98406	0.05337
2990.69829	0.05322
2989.41252	0.05321
2988.12675	0.05331
2986.84098	0.05333
2985.55522	0.05331
2984.26945	0.05349
2982.98368	0.05400
2981.69791	0.05470
2980.41214	0.05532
2979.12637	0.05578
2977.84060	0.05611
2976.55483	0.05634
2975.26907	0.05645
2973.98330	0.05653
2972.69753	0.05678
2971.41176	0.05734
2970.12599	0.05812
2968.84022	0.05891
2967.55445	0.05955
2966.26868	0.06016
2964.98291	0.06095
2963.69715	0.06202
2962.41138	0.06320
2961.12561	0.06423
2959.83984	0.06494
2958.55407	0.06536
2957.26830	0.06565
2955.98253	0.06591
2954.69676	0.06610
2953.41100	0.06607
2952.12523	0.06575
2950.83946	0.06528
2949.55369	0.06487
2948.26792	0.06471
2946.98215	0.06483
2945.69638	0.06513
2944.41061	0.06542
2943.12484	0.06558
2941.83908	0.06561
2940.55331	0.06566
2939.26754	0.06590
2937.98177	0.06646
2936.69600	0.06732
2935.41023	0.06833
2934.12446	0.06922
2932.83869	0.06980
2931.55293	0.07004
2930.26716	0.07011
2928.98139	0.07024
2927.69562	0.07052
2926.40985	0.07089
2925.12408	0.07119
2923.83831	0.07127
2922.55254	0.07110
2921.26677	0.07079
2919.98101	0.07053
2918.69524	0.07044
2917.40947	0.07037
2916.12370	0.07008
2914.83793	0.06954
2913.55216	0.06891
2912.26639	0.06833
2910.98062	0.06773
2909.69486	0.06694
2908.40909	0.06594
2907.12332	0.06489
2905.83755	0.06402
2904.55178	0.06341
2903.26601	0.06301
2901.98024	0.06268
2900.69447	0.06227
2899.40870	0.06181
2898.12294	0.06144
2896.83717	0.06123
2895.55140	0.06111
2894.26563	0.06094
2892.97986	0.06054
2891.69409	0.05989
2890.40832	0.05910
2889.12255	0.05840
2887.83678	0.05790
2886.55102	0.05755
2885.26525	0.05730
2883.97948	0.05717
2882.69371	0.05715
2881.40794	0.05710
2880.12217	0.05695
2878.83640	0.05683
2877.55063	0.05694
2876.26487	0.05727
2874.97910	0.05760
2873.69333	0.05783
2872.40756	0.05796
2871.12179	0.05804
2869.83602	0.05803
2868.55025	0.05792
2867.26448	0.05778
2865.97871	0.05769
2864.69295	0.05767
2863.40718	0.05768
2862.12141	0.05766
2860.83564	0.05757
2859.54987	0.05743
2858.26410	0.05733
2856.97833	0.05727
2855.69256	0.05719
2854.40680	0.05705
2853.12103	0.05680
2851.83526	0.05645
2850.54949	0.05606
2849.26372	0.05573
2847.97795	0.05547
2846.69218	0.05514
2845.40641	0.05460
2844.12064	0.05386
2842.83488	0.05310
2841.54911	0.05241
2840.26334	0.05173
2838.97757	0.05099
2837.69180	0.05030
2836.40603	0.04979
2835.12026	0.04947
2833.83449	0.04916
2832.54873	0.04873
2831.26296	0.04823
2829.97719	0.04777
2828.69142	0.04748
2827.40565	0.04732
2826.11988	0.04715
2824.83411	0.04678
2823.54834	0.04616
2822.26257	0.04546
2820.97681	0.04491
2819.69104	0.04469
2818.40527	0.04475
2817.11950	0.04486
2815.83373	0.04484
2814.54796	0.04469
2813.26219	0.04453
2811.97642	0.04438
2810.69066	0.04419
2809.40489	0.04392
2808.11912	0.04361
2806.83335	0.04339
2805.54758	0.04333
2804.26181	0.04341
2802.97604	0.04354
2801.69027	0.04359
2800.40450	0.04352
2799.11874	0.04334
2797.83297	0.04308
2796.54720	0.04277
2795.26143	0.04250
2793.97566	0.04239
2792.68989	0.04252
2791.40412	0.04276
2790.11835	0.04288
2788.83259	0.04270
2787.54682	0.04231
2786.26105	0.04195
2784.97528	0.04179
2783.68951	0.04179
2782.40374	0.04179
2781.11797	0.04170
2779.83220	0.04151
2778.54643	0.04128
2777.26067	0.04106
2775.97490	0.04084
2774.68913	0.04067
2773.40336	0.04062
2772.11759	0.04078
2770.83182	0.04112
2769.54605	0.04145
2768.26028	0.04157
2766.97452	0.04138
2765.68875	0.04103
2764.40298	0.04069
2763.11721	0.04049
2761.83144	0.04042
2760.54567	0.04043
2759.25990	0.04044
2757.97413	0.04040
2756.68836	0.04033
2755.40260	0.04030
2754.11683	0.04031
2752.83106	0.04032
2751.54529	0.04030
2750.25952	0.04030
2748.97375	0.04039
2747.68798	0.04057
2746.40221	0.04075
2745.11645	0.04079
2743.83068	0.04062
2742.54491	0.04036
2741.25914	0.04021
2739.97337	0.04021
2738.68760	0.04023
2737.40183	0.04010
2736.11606	0.03980
2734.83029	0.03950
2733.54453	0.03929
2732.25876	0.03914
2730.97299	0.03900
2729.68722	0.03890
2728.40145	0.03893
2727.11568	0.03903
2725.82991	0.03903
2724.54414	0.03883
2723.25838	0.03852
2721.97261	0.03833
2720.68684	0.03840
2719.40107	0.03871
2718.11530	0.03902
2716.82953	0.03901
2715.54376	0.03859
2714.25799	0.03799
2712.97222	0.03757
2711.68646	0.03751
2710.40069	0.03775
2709.11492	0.03805
2707.82915	0.03818
2706.54338	0.03804
2705.25761	0.03764
2703.97184	0.03714
2702.68607	0.03671
2701.40031	0.03647
2700.11454	0.03646
2698.82877	0.03661
2697.54300	0.03682
2696.25723	0.03702
2694.97146	0.03724
2693.68569	0.03748
2692.39992	0.03771
2691.11415	0.03783
2689.82839	0.03779
2688.54262	0.03756
2687.25685	0.03722
2685.97108	0.03688
2684.68531	0.03665
2683.39954	0.03657
2682.11377	0.03660
2680.82800	0.03670
2679.54224	0.03686
2678.25647	0.03701
2676.97070	0.03705
2675.68493	0.03692
2674.39916	0.03663
2673.11339	0.03632
2671.82762	0.03615
2670.54185	0.03618
2669.25608	0.03637
2667.97032	0.03660
2666.68455	0.03675
2665.39878	0.03677
2664.11301	0.03670
2662.82724	0.03661
2661.54147	0.03652
2660.25570	0.03638
2658.96993	0.03613
2657.68417	0.03585
2656.39840	0.03562
2655.11263	0.03550
2653.82686	0.03542
2652.54109	0.03527
2651.25532	0.03502
2649.96955	0.03481
2648.68378	0.03476
2647.39801	0.03486
2646.11225	0.03498
2644.82648	0.03498
2643.54071	0.03483
2642.25494	0.03456
2640.96917	0.03425
2639.68340	0.03397
2638.39763	0.03377
2637.11186	0.03371
2635.82609	0.03376
2634.54033	0.03386
2633.25456	0.03383
2631.96879	0.03356
2630.68302	0.03310
2629.39725	0.03261
2628.11148	0.03226
2626.82571	0.03207
2625.53994	0.03198
2624.25418	0.03198
2622.96841	0.03206
2621.68264	0.03215
2620.39687	0.03205
2619.11110	0.03171
2617.82533	0.03137
2616.53956	0.03130
2615.25379	0.03147
2613.96802	0.03157
2612.68226	0.03146
2611.39649	0.03130
2610.11072	0.03133
2608.82495	0.03145
2607.53918	0.03134
2606.25341	0.03080
2604.96764	0.02998
2603.68187	0.02922
2602.39611	0.02882
2601.11034	0.02889
2599.82457	0.02934
2598.53880	0.02990
2597.25303	0.03030
2595.96726	0.03037
2594.68149	0.03011
2593.39572	0.02961
2592.10995	0.02894
2590.82419	0.02819
2589.53842	0.02760
2588.25265	0.02740
2586.96688	0.02765
2585.68111	0.02807
2584.39534	0.02837
2583.10957	0.02851
2581.82380	0.02867
2580.53804	0.02887
2579.25227	0.02882
2577.96650	0.02831
2576.68073	0.02755
2575.39496	0.02699
2574.10919	0.02685
2572.82342	0.02700
2571.53765	0.02717
2570.25188	0.02723
2568.96612	0.02724
2567.68035	0.02731
2566.39458	0.02754
2565.10881	0.02794
2563.82304	0.02833
2562.53727	0.02845
2561.25150	0.02818
2559.96573	0.02773
2558.67997	0.02741
2557.39420	0.02734
2556.10843	0.02742
2554.82266	0.02748
2553.53689	0.02750
2552.25112	0.02757
2550.96535	0.02773
2549.67958	0.02793
2548.39381	0.02805
2547.10805	0.02804
2545.82228	0.02784
2544.53651	0.02748
2543.25074	0.02709
2541.96497	0.02690
2540.67920	0.02702
2539.39343	0.02730
2538.10766	0.02754
2536.82190	0.02766
2535.53613	0.02761
2534.25036	0.02741
2532.96459	0.02716
2531.67882	0.02703
2530.39305	0.02711
2529.10728	0.02724
2527.82151	0.02722
2526.53574	0.02702
2525.24998	0.02677
2523.96421	0.02658
2522.67844	0.02642
2521.39267	0.02630
2520.10690	0.02632
2518.82113	0.02653
2517.53536	0.02674
2516.24959	0.02668
2514.96383	0.02637
2513.67806	0.02602
2512.39229	0.02581
2511.10652	0.02566
2509.82075	0.02549
2508.53498	0.02531
2507.24921	0.02526
2505.96344	0.02542
2504.67767	0.02578
2503.39191	0.02619
2502.10614	0.02640
2500.82037	0.02626
2499.53460	0.02578
2498.24883	0.02520
2496.96306	0.02478
2495.67729	0.02466
2494.39152	0.02478
2493.10576	0.02501
2491.81999	0.02524
2490.53422	0.02548
2489.24845	0.02573
2487.96268	0.02596
2486.67691	0.02615
2485.39114	0.02628
2484.10537	0.02636
2482.81960	0.02643
2481.53384	0.02645
2480.24807	0.02632
2478.96230	0.02593
2477.67653	0.02540
2476.39076	0.02507
2475.10499	0.02521
2473.81922	0.02570
2472.53345	0.02622
2471.24769	0.02647
2469.96192	0.02638
2468.67615	0.02599
2467.39038	0.02552
2466.10461	0.02524
2464.81884	0.02530
2463.53307	0.02561
2462.24730	0.02586
2460.96153	0.02581
2459.67577	0.02551
2458.39000	0.02523
2457.10423	0.02515
2455.81846	0.02532
2454.53269	0.02561
2453.24692	0.02585
2451.96115	0.02583
2450.67538	0.02553
2449.38962	0.02516
2448.10385	0.02493
2446.81808	0.02479
2445.53231	0.02457
2444.24654	0.02426
2442.96077	0.02407
2441.67500	0.02420
2440.38923	0.02457
2439.10346	0.02491
2437.81770	0.02506
2436.53193	0.02515
2435.24616	0.02528
2433.96039	0.02532
2432.67462	0.02504
2431.38885	0.02445
2430.10308	0.02390
2428.81731	0.02368
2427.53155	0.02381
2426.24578	0.02412
2424.96001	0.02450
2423.67424	0.02485
2422.38847	0.02506
2421.10270	0.02499
2419.81693	0.02460
2418.53116	0.02406
2417.24539	0.02361
2415.95963	0.02343
2414.67386	0.02350
2413.38809	0.02366
2412.10232	0.02375
2410.81655	0.02368
2409.53078	0.02350
2408.24501	0.02330
2406.95924	0.02314
2405.67347	0.02310
2404.38771	0.02323
2403.10194	0.02355
2401.81617	0.02403
2400.53040	0.02454
2399.24463	0.02496
2397.95886	0.02506
2396.67309	0.02478
2395.38732	0.02421
2394.10156	0.02358
2392.81579	0.02305
2391.53002	0.02273
2390.24425	0.02260
2388.95848	0.02261
2387.67271	0.02275
2386.38694	0.02305
2385.10117	0.02348
2383.81540	0.02386
2382.52964	0.02397
2381.24387	0.02369
2379.95810	0.02309
2378.67233	0.02240
2377.38656	0.02178
2376.10079	0.02131
2374.81502	0.02099
2373.52925	0.02082
2372.24349	0.02080
2370.95772	0.02087
2369.67195	0.02086
2368.38618	0.02066
2367.10041	0.02030
2365.81464	0.01992
2364.52887	0.01967
2363.24310	0.01956
2361.95733	0.01951
2360.67157	0.01949
2359.38580	0.01958
2358.10003	0.01983
2356.81426	0.02022
2355.52849	0.02065
2354.24272	0.02104
2352.95695	0.02139
2351.67118	0.02169
2350.38542	0.02187
2349.09965	0.02190
2347.81388	0.02182
2346.52811	0.02178
2345.24234	0.02188
2343.95657	0.02207
2342.67080	0.02217
2341.38503	0.02203
2340.09926	0.02169
2338.81350	0.02133
2337.52773	0.02106
2336.24196	0.02088
2334.95619	0.02074
2333.67042	0.02063
2332.38465	0.02057
2331.09888	0.02056
2329.81311	0.02061
2328.52735	0.02080
2327.24158	0.02122
2325.95581	0.02184
2324.67004	0.02249
2323.38427	0.02298
2322.09850	0.02324
2320.81273	0.02338
2319.52696	0.02354
2318.24119	0.02375
2316.95543	0.02390
2315.66966	0.02383
2314.38389	0.02356
2313.09812	0.02325
2311.81235	0.02310
2310.52658	0.02308
2309.24081	0.02304
2307.95504	0.02284
2306.66928	0.02246
2305.38351	0.02204
2304.09774	0.02177
2302.81197	0.02183
2301.52620	0.02221
2300.24043	0.02276
2298.95466	0.02324
2297.66889	0.02351
2296.38312	0.02355
2295.09736	0.02339
2293.81159	0.02304
2292.52582	0.02254
2291.24005	0.02201
2289.95428	0.02159
2288.66851	0.02134
2287.38274	0.02124
2286.09697	0.02124
2284.81121	0.02125
2283.52544	0.02115
2282.23967	0.02086
2280.95390	0.02047
2279.66813	0.02013
2278.38236	0.01987
2277.09659	0.01953
2275.81082	0.01894
2274.52505	0.01822
2273.23929	0.01769
2271.95352	0.01760
2270.66775	0.01787
2269.38198	0.01827
2268.09621	0.01863
2266.81044	0.01893
2265.52467	0.01912
2264.23890	0.01915
2262.95314	0.01912
2261.66737	0.01916
2260.38160	0.01933
2259.09583	0.01940
2257.81006	0.01913
2256.52429	0.01851
2255.23852	0.01785
2253.95275	0.01744
2252.66698	0.01733
2251.38122	0.01733
2250.09545	0.01745
2248.80968	0.01776
2247.52391	0.01793
2246.23814	0.01787
2244.95237	0.01748
2243.66660	0.01706
2242.38083	0.01696
2241.09507	0.01719
2239.80930	0.01727
2238.52353	0.01674
2237.23776	0.01572
2235.95199	0.01477
2234.66622	0.01441
2233.38045	0.01458
2232.09468	0.01490
2230.80891	0.01514
2229.52315	0.01531
2228.23738	0.01548
2226.95161	0.01554
2225.66584	0.01541
2224.38007	0.01512
2223.09430	0.01485
2221.80853	0.01462
2220.52276	0.01434
2219.23700	0.01384
2217.95123	0.01316
2216.66546	0.01249
2215.37969	0.01208
2214.09392	0.01208
2212.80815	0.01240
2211.52238	0.01277
2210.23661	0.01289
2208.95084	0.01261
2207.66508	0.01215
2206.37931	0.01190
2205.09354	0.01207
2203.80777	0.01257
2202.52200	0.01307
2201.23623	0.01316
2199.95046	0.01267
2198.66469	0.01185
2197.37893	0.01113
2196.09316	0.01071
2194.80739	0.01048
2193.52162	0.01042
2192.23585	0.01083
2190.95008	0.01190
2189.66431	0.01328
2188.37854	0.01434
2187.09277	0.01461
2185.80701	0.01396
2184.52124	0.01262
2183.23547	0.01102
2181.94970	0.00966
2180.66393	0.00876
2179.37816	0.00822
2178.09239	0.00770
2176.80662	0.00699
2175.52085	0.00635
2174.23509	0.00651
2172.94932	0.00792
2171.66355	0.01004
2170.37778	0.01164
2169.09201	0.01183
2167.80624	0.01078
2166.52047	0.00952
2165.23470	0.00897
2163.94894	0.00898
2162.66317	0.00855
2161.37740	0.00688
2160.09163	0.00456
2158.80586	0.00310
2157.52009	0.00334
2156.23432	0.00472
2154.94855	0.00617
2153.66278	0.00717
2152.37702	0.00780
2151.09125	0.00829
2149.80548	0.00869
2148.51971	0.00891
2147.23394	0.00892
2145.94817	0.00878
2144.66240	0.00859
2143.37663	0.00850
2142.09087	0.00867
2140.80510	0.00913
2139.51933	0.00966
2138.23356	0.01005
2136.94779	0.01040
2135.66202	0.01095
2134.37625	0.01166
2133.09048	0.01220
2131.80471	0.01238
2130.51895	0.01237
2129.23318	0.01237
2127.94741	0.01235
2126.66164	0.01222
2125.37587	0.01205
2124.09010	0.01197
2122.80433	0.01196
2121.51856	0.01199
2120.23280	0.01209
2118.94703	0.01227
2117.66126	0.01246
2116.37549	0.01262
2115.08972	0.01274
2113.80395	0.01281
2112.51818	0.01284
2111.23241	0.01290
2109.94664	0.01310
2108.66088	0.01331
2107.37511	0.01323
2106.08934	0.01273
2104.80357	0.01204
2103.51780	0.01150
2102.23203	0.01126
2100.94626	0.01123
2099.66049	0.01133
2098.37473	0.01137
2097.08896	0.01133
2095.80319	0.01125
2094.51742	0.01116
2093.23165	0.01104
2091.94588	0.01084
2090.66011	0.01057
2089.37434	0.01036
2088.08857	0.01040
2086.80281	0.01078
2085.51704	0.01138
2084.23127	0.01192
2082.94550	0.01213
2081.65973	0.01200
2080.37396	0.01175
2079.08819	0.01150
2077.80242	0.01114
2076.51666	0.01049
2075.23089	0.00959
2073.94512	0.00873
2072.65935	0.00832
2071.37358	0.00860
2070.08781	0.00945
2068.80204	0.01039
2067.51627	0.01078
2066.23050	0.01032
2064.94474	0.00925
2063.65897	0.00806
2062.37320	0.00716
2061.08743	0.00667
2059.80166	0.00663
2058.51589	0.00705
2057.23012	0.00777
2055.94435	0.00838
2054.65859	0.00844
2053.37282	0.00785
2052.08705	0.00694
2050.80128	0.00620
2049.51551	0.00588
2048.22974	0.00582
2046.94397	0.00583
2045.65820	0.00594
2044.37243	0.00625
2043.08667	0.00667
2041.80090	0.00700
2040.51513	0.00725
2039.22936	0.00754
2037.94359	0.00779
2036.65782	0.00761
2035.37205	0.00679
2034.08628	0.00562
2032.80052	0.00471
2031.51475	0.00442
2030.22898	0.00448
2028.94321	0.00431
2027.65744	0.00378
2026.37167	0.00338
2025.08590	0.00355
2023.80013	0.00402
2022.51436	0.00409
2021.22860	0.00361
2019.94283	0.00325
2018.65706	0.00372
2017.37129	0.00503
2016.08552	0.00660
2014.79975	0.00769
2013.51398	0.00776
2012.22821	0.00672
2010.94245	0.00508
2009.65668	0.00378
2008.37091	0.00358
2007.08514	0.00439
2005.79937	0.00538
2004.51360	0.00575
2003.22783	0.00537
2001.94206	0.00486
2000.65629	0.00485
1999.37053	0.00542
1998.08476	0.00615
1996.79899	0.00673
1995.51322	0.00717
1994.22745	0.00764
1992.94168	0.00805
1991.65591	0.00819
1990.37014	0.00802
1989.08438	0.00770
1987.79861	0.00738
1986.51284	0.00712
1985.22707	0.00701
1983.94130	0.00723
1982.65553	0.00784
1981.36976	0.00857
1980.08399	0.00892
1978.79822	0.00849
1977.51246	0.00733
1976.22669	0.00586
1974.94092	0.00466
1973.65515	0.00420
1972.36938	0.00460
1971.08361	0.00560
1969.79784	0.00668
1968.51207	0.00750
1967.22631	0.00810
1965.94054	0.00880
1964.65477	0.00969
1963.36900	0.01052
1962.08323	0.01096
1960.79746	0.01100
1959.51169	0.01091
1958.22592	0.01101
1956.94015	0.01135
1955.65439	0.01171
1954.36862	0.01182
1953.08285	0.01161
1951.79708	0.01127
1950.51131	0.01113
1949.22554	0.01137
1947.93977	0.01190
1946.65400	0.01238
1945.36823	0.01251
1944.08247	0.01220
1942.79670	0.01157
1941.51093	0.01087
1940.22516	0.01039
1938.93939	0.01025
1937.65362	0.01036
1936.36785	0.01060
1935.08208	0.01097
1933.79632	0.01159
1932.51055	0.01236
1931.22478	0.01293
1929.93901	0.01299
1928.65324	0.01258
1927.36747	0.01200
1926.08170	0.01160
1924.79593	0.01159
1923.51016	0.01196
1922.22440	0.01252
1920.93863	0.01301
1919.65286	0.01327
1918.36709	0.01327
1917.08132	0.01309
1915.79555	0.01293
1914.50978	0.01295
1913.22401	0.01318
1911.93825	0.01349
1910.65248	0.01369
1909.36671	0.01367
1908.08094	0.01346
1906.79517	0.01322
1905.50940	0.01305
1904.22363	0.01292
1902.93786	0.01283
1901.65209	0.01286
1900.36633	0.01313
1899.08056	0.01359
1897.79479	0.01395
1896.50902	0.01394
1895.22325	0.01358
1893.93748	0.01320
1892.65171	0.01310
1891.36594	0.01329
1890.08018	0.01363
1888.79441	0.01395
1887.50864	0.01415
1886.22287	0.01417
1884.93710	0.01397
1883.65133	0.01360
1882.36556	0.01321
1881.07979	0.01294
1879.79402	0.01279
1878.50826	0.01269
1877.22249	0.01258
1875.93672	0.01249
1874.65095	0.01249
1873.36518	0.01265
1872.07941	0.01294
1870.79364	0.01330
1869.50787	0.01361
1868.22211	0.01382
1866.93634	0.01399
1865.65057	0.01417
1864.36480	0.01433
1863.07903	0.01438
1861.79326	0.01424
1860.50749	0.01400
1859.22172	0.01380
1857.93595	0.01375
1856.65019	0.01380
1855.36442	0.01389
1854.07865	0.01398
1852.79288	0.01405
1851.50711	0.01406
1850.22134	0.01400
1848.93557	0.01397
1847.64980	0.01410
1846.36404	0.01431
1845.07827	0.01440
1843.79250	0.01424
1842.50673	0.01399
1841.22096	0.01390
1839.93519	0.01402
1838.64942	0.01420
1837.36365	0.01433
1836.07788	0.01443
1834.79212	0.01456
1833.50635	0.01472
1832.22058	0.01483
1830.93481	0.01485
1829.64904	0.01474
1828.36327	0.01454
1827.07750	0.01434
1825.79173	0.01425
1824.50597	0.01433
1823.22020	0.01450
1821.93443	0.01468
1820.64866	0.01482
1819.36289	0.01490
1818.07712	0.01490
1816.79135	0.01482
1815.50558	0.01473
1814.21981	0.01471
1812.93405	0.01475
1811.64828	0.01480
1810.36251	0.01484
1809.07674	0.01483
1807.79097	0.01474
1806.50520	0.01460
1805.21943	0.01447
1803.93366	0.01448
1802.64790	0.01462
1801.36213	0.01477
1800.07636	0.01478
1798.79059	0.01465
1797.50482	0.01449
1796.21905	0.01443
1794.93328	0.01450
1793.64751	0.01466
1792.36174	0.01484
1791.07598	0.01501
1789.79021	0.01520
1788.50444	0.01541
1787.21867	0.01560
1785.93290	0.01572
1784.64713	0.01572
1783.36136	0.01560
1782.07559	0.01542
1780.78983	0.01527
1779.50406	0.01521
1778.21829	0.01523
1776.93252	0.01532
1775.64675	0.01542
1774.36098	0.01550
1773.07521	0.01550
1771.78944	0.01543
1770.50367	0.01532
1769.21791	0.01525
1767.93214	0.01528
1766.64637	0.01537
1765.36060	0.01542
1764.07483	0.01538
1762.78906	0.01529
1761.50329	0.01525
1760.21752	0.01533
1758.93176	0.01553
1757.64599	0.01576
1756.36022	0.01593
1755.07445	0.01600
1753.78868	0.01603
1752.50291	0.01606
1751.21714	0.01609
1749.93137	0.01606
1748.64560	0.01595
1747.35984	0.01582
1746.07407	0.01576
1744.78830	0.01583
1743.50253	0.01598
1742.21676	0.01612
1740.93099	0.01623
1739.64522	0.01632
1738.35945	0.01643
1737.07369	0.01662
1735.78792	0.01685
1734.50215	0.01706
1733.21638	0.01717
1731.93061	0.01719
1730.64484	0.01717
1729.35907	0.01718
1728.07330	0.01722
1726.78753	0.01727
1725.50177	0.01731
1724.21600	0.01737
1722.93023	0.01746
1721.64446	0.01758
1720.35869	0.01773
1719.07292	0.01789
1717.78715	0.01804
1716.50138	0.01820
1715.21561	0.01837
1713.92985	0.01858
1712.64408	0.01883
1711.35831	0.01910
1710.07254	0.01940
1708.78677	0.01971
1707.50100	0.02004
1706.21523	0.02037
1704.92946	0.02068
1703.64370	0.02100
1702.35793	0.02134
1701.07216	0.02166
1699.78639	0.02191
1698.50062	0.02208
1697.21485	0.02218
1695.92908	0.02226
1694.64331	0.02236
1693.35754	0.02253
1692.07178	0.02278
1690.78601	0.02308
1689.50024	0.02340
1688.21447	0.02369
1686.92870	0.02397
1685.64293	0.02426
1684.35716	0.02452
1683.07139	0.02473
1681.78563	0.02489
1680.49986	0.02502
1679.21409	0.02516
1677.92832	0.02531
1676.64255	0.02546
1675.35678	0.02563
1674.07101	0.02584
1672.78524	0.02608
1671.49947	0.02632
1670.21371	0.02653
1668.92794	0.02670
1667.64217	0.02687
1666.35640	0.02709
1665.07063	0.02738
1663.78486	0.02772
1662.49909	0.02803
1661.21332	0.02822
1659.92756	0.02832
1658.64179	0.02839
1657.35602	0.02854
1656.07025	0.02876
1654.78448	0.02902
1653.49871	0.02926
1652.21294	0.02945
1650.92717	0.02958
1649.64140	0.02966
1648.35564	0.02973
1647.06987	0.02982
1645.78410	0.02992
1644.49833	0.03002
1643.21256	0.03009
1641.92679	0.03015
1640.64102	0.03022
1639.35525	0.03030
1638.06949	0.03038
1636.78372	0.03043
1635.49795	0.03041
1634.21218	0.03033
1632.92641	0.03026
1631.64064	0.03022
1630.35487	0.03023
1629.06910	0.03026
1627.78333	0.03032
1626.49757	0.03040
1625.21180	0.03052
1623.92603	0.03063
1622.64026	0.03070
1621.35449	0.03076
1620.06872	0.03083
1618.78295	0.03094
1617.49718	0.03104
1616.21142	0.03111
1614.92565	0.03118
1613.63988	0.03126
1612.35411	0.03138
1611.06834	0.03153
1609.78257	0.03169
1608.49680	0.03183
1607.21103	0.03192
1605.92526	0.03196
1604.63950	0.03199
1603.35373	0.03203
1602.06796	0.03209
1600.78219	0.03214
1599.49642	0.03216
1598.21065	0.03216
1596.92488	0.03218
1595.63911	0.03225
1594.35335	0.03238
1593.06758	0.03258
1591.78181	0.03283
1590.49604	0.03305
1589.21027	0.03320
1587.92450	0.03327
1586.63873	0.03330
1585.35296	0.03335
1584.06719	0.03347
1582.78143	0.03366
1581.49566	0.03388
1580.20989	0.03408
1578.92412	0.03427
1577.63835	0.03448
1576.35258	0.03472
1575.06681	0.03495
1573.78104	0.03516
1572.49528	0.03539
1571.20951	0.03567
1569.92374	0.03600
1568.63797	0.03631
1567.35220	0.03651
1566.06643	0.03662
1564.78066	0.03673
1563.49489	0.03692
1562.20912	0.03721
1560.92336	0.03755
1559.63759	0.03788
1558.35182	0.03816
1557.06605	0.03842
1555.78028	0.03867
1554.49451	0.03893
1553.20874	0.03921
1551.92297	0.03949
1550.63721	0.03979
1549.35144	0.04008
1548.06567	0.04033
1546.77990	0.04056
1545.49413	0.04078
1544.20836	0.04101
1542.92259	0.04124
1541.63682	0.04145
1540.35105	0.04163
1539.06529	0.04176
1537.77952	0.04189
1536.49375	0.04209
1535.20798	0.04237
1533.92221	0.04270
1532.63644	0.04304
1531.35067	0.04338
1530.06490	0.04379
1528.77914	0.04431
1527.49337	0.04492
1526.20760	0.04558
1524.92183	0.04627
1523.63606	0.04702
1522.35029	0.04784
1521.06452	0.04874
1519.77875	0.04971
1518.49298	0.05078
1517.20722	0.05197
1515.92145	0.05328
1514.63568	0.05464
1513.34991	0.05601
1512.06414	0.05739
1510.77837	0.05879
1509.49260	0.06021
1508.20683	0.06162
1506.92107	0.06296
1505.63530	0.06422
1504.34953	0.06540
1503.06376	0.06650
1501.77799	0.06752
1500.49222	0.06848
1499.20645	0.06941
1497.92068	0.07034
1496.63491	0.07125
1495.34915	0.07210
1494.06338	0.07285
1492.77761	0.07354
1491.49184	0.07427
1490.20607	0.07513
1488.92030	0.07615
1487.63453	0.07734
1486.34876	0.07862
1485.06299	0.07996
1483.77723	0.08129
1482.49146	0.08260
1481.20569	0.08388
1479.91992	0.08513
1478.63415	0.08638
1477.34838	0.08763
1476.06261	0.08884
1474.77684	0.08994
1473.49108	0.09090
1472.20531	0.09167
1470.91954	0.09226
1469.63377	0.09274
1468.34800	0.09316
1467.06223	0.09356
1465.77646	0.09392
1464.49069	0.09417
1463.20492	0.09434
1461.91916	0.09450
1460.63339	0.09475
1459.34762	0.09516
1458.06185	0.09569
1456.77608	0.09623
1455.49031	0.09666
1454.20454	0.09696
1452.91877	0.09716
1451.63301	0.09732
1450.34724	0.09746
1449.06147	0.09755
1447.77570	0.09757
1446.48993	0.09748
1445.20416	0.09725
1443.91839	0.09686
1442.63262	0.09636
1441.34685	0.09584
1440.06109	0.09540
1438.77532	0.09509
1437.48955	0.09494
1436.20378	0.09499
1434.91801	0.09530
1433.63224	0.09590
1432.34647	0.09680
1431.06070	0.09798
1429.77494	0.09938
1428.48917	0.10091
1427.20340	0.10254
1425.91763	0.10425
1424.63186	0.10598
1423.34609	0.10769
1422.06032	0.10930
1420.77455	0.11076
1419.48878	0.11202
1418.20302	0.11305
1416.91725	0.11380
1415.63148	0.11426
1414.34571	0.11444
1413.05994	0.11436
1411.77417	0.11404
1410.48840	0.11348
1409.20263	0.11266
1407.91687	0.11155
1406.63110	0.11017
1405.34533	0.10853
1404.05956	0.10668
1402.77379	0.10466
1401.48802	0.10253
1400.20225	0.10029
1398.91648	0.09794
1397.63071	0.09544
1396.34495	0.09284
1395.05918	0.09020
1393.77341	0.08763
1392.48764	0.08517
1391.20187	0.08280
1389.91610	0.08048
1388.63033	0.07820
1387.34456	0.07596
1386.05880	0.07380
1384.77303	0.07173
1383.48726	0.06971
1382.20149	0.06774
1380.91572	0.06576
1379.62995	0.06377
1378.34418	0.06171
1377.05841	0.05957
1375.77264	0.05735
1374.48688	0.05510
1373.20111	0.05290
1371.91534	0.05082
1370.62957	0.04887
1369.34380	0.04702
1368.05803	0.04528
1366.77226	0.04370
1365.48649	0.04228
1364.20073	0.04099
1362.91496	0.03974
1361.62919	0.03850
1360.34342	0.03728
1359.05765	0.03615
1357.77188	0.03512
1356.48611	0.03420
1355.20034	0.03337
1353.91457	0.03259
1352.62881	0.03185
1351.34304	0.03116
1350.05727	0.03054
1348.77150	0.02998
1347.48573	0.02950
1346.19996	0.02907
1344.91419	0.02867
1343.62842	0.02826
1342.34266	0.02785
1341.05689	0.02744
1339.77112	0.02708
1338.48535	0.02675
1337.19958	0.02644
1335.91381	0.02613
1334.62804	0.02583
1333.34227	0.02552
1332.05650	0.02519
1330.77074	0.02485
1329.48497	0.02452
1328.19920	0.02425
1326.91343	0.02404
1325.62766	0.02387
1324.34189	0.02374
1323.05612	0.02362
1321.77035	0.02349
1320.48459	0.02333
1319.19882	0.02317
1317.91305	0.02302
1316.62728	0.02288
1315.34151	0.02272
1314.05574	0.02253
1312.76997	0.02231
1311.48420	0.02210
1310.19843	0.02195
1308.91267	0.02186
1307.62690	0.02180
1306.34113	0.02170
1305.05536	0.02154
1303.76959	0.02133
1302.48382	0.02113
1301.19805	0.02095
1299.91228	0.02081
1298.62652	0.02068
1297.34075	0.02054
1296.05498	0.02043
1294.76921	0.02037
1293.48344	0.02036
1292.19767	0.02036
1290.91190	0.02031
1289.62613	0.02020
1288.34036	0.02004
1287.05460	0.01988
1285.76883	0.01973
1284.48306	0.01960
1283.19729	0.01949
1281.91152	0.01937
1280.62575	0.01923
1279.33998	0.01910
1278.05421	0.01902
1276.76845	0.01900
1275.48268	0.01899
1274.19691	0.01895
1272.91114	0.01888
1271.62537	0.01879
1270.33960	0.01868
1269.05383	0.01851
1267.76806	0.01831
1266.48229	0.01812
1265.19653	0.01800
1263.91076	0.01798
1262.62499	0.01799
1261.33922	0.01796
1260.05345	0.01786
1258.76768	0.01777
1257.48191	0.01773
1256.19614	0.01776
1254.91037	0.01780
1253.62461	0.01778
1252.33884	0.01768
1251.05307	0.01752
1249.76730	0.01736
1248.48153	0.01726
1247.19576	0.01719
1245.90999	0.01713
1244.62422	0.01704
1243.33846	0.01693
1242.05269	0.01683
1240.76692	0.01676
1239.48115	0.01672
1238.19538	0.01672
1236.90961	0.01673
1235.62384	0.01674
1234.33807	0.01673
1233.05230	0.01667
1231.76654	0.01658
1230.48077	0.01648
1229.19500	0.01640
1227.90923	0.01635
1226.62346	0.01633
1225.33769	0.01629
1224.05192	0.01621
1222.76615	0.01610
1221.48039	0.01601
1220.19462	0.01598
1218.90885	0.01600
1217.62308	0.01605
1216.33731	0.01611
1215.05154	0.01616
1213.76577	0.01619
1212.48000	0.01617
1211.19423	0.01612
1209.90847	0.01607
1208.62270	0.01605
1207.33693	0.01606
1206.05116	0.01612
1204.76539	0.01621
1203.47962	0.01630
1202.19385	0.01635
1200.90808	0.01632
1199.62232	0.01623
1198.33655	0.01616
1197.05078	0.01612
1195.76501	0.01613
1194.47924	0.01614
1193.19347	0.01614
1191.90770	0.01615
1190.62193	0.01618
1189.33616	0.01626
1188.05040	0.01638
1186.76463	0.01650
1185.47886	0.01658
1184.19309	0.01660
1182.90732	0.01658
1181.62155	0.01660
1180.33578	0.01668
1179.05001	0.01680
1177.76425	0.01692
1176.47848	0.01702
1175.19271	0.01714
1173.90694	0.01727
1172.62117	0.01739
1171.33540	0.01748
1170.04963	0.01759
1168.76386	0.01779
1167.47809	0.01809
1166.19233	0.01843
1164.90656	0.01873
1163.62079	0.01898
1162.33502	0.01919
1161.04925	0.01940
1159.76348	0.01964
1158.47771	0.01992
1157.19194	0.02028
1155.90618	0.02070
1154.62041	0.02117
1153.33464	0.02166
1152.04887	0.02220
1150.76310	0.02284
1149.47733	0.02359
1148.19156	0.02438
1146.90579	0.02515
1145.62002	0.02593
1144.33426	0.02679
1143.04849	0.02780
1141.76272	0.02896
1140.47695	0.03026
1139.19118	0.03163
1137.90541	0.03307
1136.61964	0.03462
1135.33387	0.03632
1134.04811	0.03821
1132.76234	0.04032
1131.47657	0.04266
1130.19080	0.04525
1128.90503	0.04813
1127.61926	0.05131
1126.33349	0.05475
1125.04772	0.05837
1123.76195	0.06211
1122.47619	0.06597
1121.19042	0.06995
1119.90465	0.07399
1118.61888	0.07801
1117.33311	0.08199
1116.04734	0.08591
1114.76157	0.08973
1113.47580	0.09341
1112.19004	0.09700
1110.90427	0.10056
1109.61850	0.10414
1108.33273	0.10766
1107.04696	0.11107
1105.76119	0.11434
1104.47542	0.11750
1103.18965	0.12057
1101.90388	0.12359
1100.61812	0.12658
1099.33235	0.12952
1098.04658	0.13236
1096.76081	0.13504
1095.47504	0.13756
1094.18927	0.13994
1092.90350	0.14221
1091.61773	0.14436
1090.33197	0.14639
1089.04620	0.14837
1087.76043	0.15042
1086.47466	0.15260
1085.18889	0.15493
1083.90312	0.15741
1082.61735	0.16002
1081.33158	0.16274
1080.04581	0.16560
1078.76005	0.16857
1077.47428	0.17163
1076.18851	0.17479
1074.90274	0.17806
1073.61697	0.18146
1072.33120	0.18501
1071.04543	0.18868
1069.75966	0.19244
1068.47390	0.19629
1067.18813	0.20025
1065.90236	0.20436
1064.61659	0.20858
1063.33082	0.21288
1062.04505	0.21717
1060.75928	0.22142
1059.47351	0.22560
1058.18774	0.22974
1056.90198	0.23380
1055.61621	0.23779
1054.33044	0.24172
1053.04467	0.24570
1051.75890	0.24982
1050.47313	0.25414
1049.18736	0.25865
1047.90159	0.26333
1046.61583	0.26824
1045.33006	0.27338
1044.04429	0.27868
1042.75852	0.28405
1041.47275	0.28945
1040.18698	0.29489
1038.90121	0.30039
1037.61544	0.30593
1036.32967	0.31152
1035.04391	0.31709
1033.75814	0.32257
1032.47237	0.32787
1031.18660	0.33285
1029.90083	0.33745
1028.61506	0.34158
1027.32929	0.34520
1026.04352	0.34824
1024.75775	0.35064
1023.47199	0.35238
1022.18622	0.35347
1020.90045	0.35398
1019.61468	0.35398
1018.32891	0.35350
1017.04314	0.35246
1015.75737	0.35071
1014.47160	0.34803
1013.18584	0.34437
1011.90007	0.33981
1010.61430	0.33449
1009.32853	0.32853
1008.04276	0.32194
1006.75699	0.31468
1005.47122	0.30672
1004.18545	0.29810
1002.89968	0.28889
1001.61392	0.27918
1000.32815	0.26903
999.04238	0.25851
997.75661	0.24779
996.47084	0.23703
995.18507	0.22633
993.89930	0.21571
992.61353	0.20525
991.32777	0.19509
990.04200	0.18537
988.75623	0.17611
987.47046	0.16726
986.18469	0.15884
984.89892	0.15093
983.61315	0.14361
982.32738	0.13683
981.04161	0.13056
979.75585	0.12478
978.47008	0.11957
977.18431	0.11501
975.89854	0.11118
974.61277	0.10805
973.32700	0.10559
972.04123	0.10378
970.75546	0.10265
969.46970	0.10223
968.18393	0.10248
966.89816	0.10330
965.61239	0.10453
964.32662	0.10588
963.04085	0.10705
961.75508	0.10775
960.46931	0.10774
959.18354	0.10687
957.89778	0.10510
956.61201	0.10251
955.32624	0.09935
954.04047	0.09594
952.75470	0.09253
951.46893	0.08927
950.18316	0.08615
948.89739	0.08313
947.61163	0.08014
946.32586	0.07724
945.04009	0.07453
943.75432	0.07207
942.46855	0.06976
941.18278	0.06753
939.89701	0.06542
938.61124	0.06353
937.32547	0.06183
936.03971	0.06025
934.75394	0.05870
933.46817	0.05722
932.18240	0.05591
930.89663	0.05481
929.61086	0.05388
928.32509	0.05302
927.03932	0.05214
925.75356	0.05125
924.46779	0.05038
923.18202	0.04960
921.89625	0.04891
920.61048	0.04830
919.32471	0.04773
918.03894	0.04718
916.75317	0.04665
915.46740	0.04611
914.18164	0.04559
912.89587	0.04514
911.61010	0.04478
910.32433	0.04446
909.03856	0.04412
907.75279	0.04374
906.46702	0.04334
905.18125	0.04297
903.89549	0.04266
902.60972	0.04247
901.32395	0.04237
900.03818	0.04230
898.75241	0.04219
897.46664	0.04208
896.18087	0.04203
894.89510	0.04206
893.60933	0.04213
892.32357	0.04219
891.03780	0.04222
889.75203	0.04236
888.46626	0.04279
887.18049	0.04374
885.89472	0.04544
884.60895	0.04802
883.32318	0.05142
882.03742	0.05529
880.75165	0.05904
879.46588	0.06211
878.18011	0.06428
876.89434	0.06583
875.60857	0.06726
874.32280	0.06882
873.03703	0.07020
871.75126	0.07083
870.46550	0.07033
869.17973	0.06871
867.89396	0.06621
866.60819	0.06313
865.32242	0.05985
864.03665	0.05670
862.75088	0.05392
861.46511	0.05154
860.17935	0.04947
858.89358	0.04765
857.60781	0.04613
856.32204	0.04493
855.03627	0.04404
853.75050	0.04334
852.46473	0.04272
851.17896	0.04212
849.89319	0.04149
848.60743	0.04087
847.32166	0.04031
846.03589	0.03987
844.75012	0.03955
843.46435	0.03929
842.17858	0.03904
840.89281	0.03876
839.60704	0.03846
838.32128	0.03813
837.03551	0.03780
835.74974	0.03747
834.46397	0.03717
833.17820	0.03693
831.89243	0.03675
830.60666	0.03661
829.32089	0.03651
828.03512	0.03645
826.74936	0.03643
825.46359	0.03641
824.17782	0.03633
822.89205	0.03621
821.60628	0.03610
820.32051	0.03606
819.03474	0.03610
817.74897	0.03612
816.46321	0.03607
815.17744	0.03598
813.89167	0.03588
812.60590	0.03582
811.32013	0.03580
810.03436	0.03582
808.74859	0.03584
807.46282	0.03585
806.17705	0.03585
804.89129	0.03585
803.60552	0.03584
802.31975	0.03579
801.03398	0.03570
799.74821	0.03559
798.46244	0.03548
797.17667	0.03539
795.89090	0.03534
794.60513	0.03531
793.31937	0.03530
792.03360	0.03530
790.74783	0.03530
789.46206	0.03525
788.17629	0.03514
786.89052	0.03498
785.60475	0.03480
784.31898	0.03466
783.03322	0.03464
781.74745	0.03472
780.46168	0.03482
779.17591	0.03484
777.89014	0.03479
776.60437	0.03474
775.31860	0.03473
774.03283	0.03478
772.74706	0.03483
771.46130	0.03488
770.17553	0.03494
768.88976	0.03498
767.60399	0.03501
766.31822	0.03500
765.03245	0.03501
763.74668	0.03508
762.46091	0.03525
761.17515	0.03548
759.88938	0.03570
758.60361	0.03580
757.31784	0.03573
756.03207	0.03558
754.74630	0.03546
753.46053	0.03541
752.17476	0.03539
750.88899	0.03534
749.60323	0.03525
748.31746	0.03516
747.03169	0.03505
745.74592	0.03494
744.46015	0.03484
743.17438	0.03480
741.88861	0.03480
740.60284	0.03478
739.31708	0.03472
738.03131	0.03461
736.74554	0.03452
735.45977	0.03444
734.17400	0.03437
732.88823	0.03425
731.60246	0.03410
730.31669	0.03397
729.03092	0.03394
727.74516	0.03405
726.45939	0.03426
725.17362	0.03449
723.88785	0.03464
722.60208	0.03485
721.31631	0.03506
720.03054	0.03517
718.74477	0.03515
717.45901	0.03502
716.17324	0.03488
714.88747	0.03475
713.60170	0.03464
712.31593	0.03453
711.03016	0.03440
709.74439	0.03427
708.45862	0.03416
707.17285	0.03409
705.88709	0.03404
704.60132	0.03400
703.31555	0.03396
702.02978	0.03395
700.74401	0.03395
699.45824	0.03397
698.17247	0.03399
696.88670	0.03398
695.60094	0.03397
694.31517	0.03398
693.02940	0.03405
691.74363	0.03413
690.45786	0.03417
689.17209	0.03413
687.88632	0.03401
686.60055	0.03384
685.31478	0.03366
684.02902	0.03349
682.74325	0.03337
681.45748	0.03332
680.17171	0.03330
678.88594	0.03327
677.60017	0.03323
676.31440	0.03325
675.02863	0.03337
673.74287	0.03355
672.45710	0.03372
671.17133	0.03384
669.88556	0.03388
668.59979	0.03389
667.31402	0.03391
666.02825	0.03393
664.74248	0.03387
663.45671	0.03370
662.17095	0.03345
660.88518	0.03320
659.59941	0.03304
658.31364	0.03300
657.02787	0.03305
655.74210	0.03313
654.45633	0.03318
653.17056	0.03317
651.88480	0.03315
650.59903	0.03319
649.31326	0.03333
648.02749	0.03354
646.74172	0.03374
645.45595	0.03391
644.17018	0.03409
642.88441	0.03430
641.59864	0.03454
640.31288	0.03479
639.02711	0.03508
637.74134	0.03547
636.45557	0.03600
635.16980	0.03664
633.88403	0.03730
632.59826	0.03792
631.31249	0.03852
630.02673	0.03919
628.74096	0.03997
627.45519	0.04078
626.16942	0.04186
624.88365	0.04326
623.59788	0.04503
622.31211	0.04737
621.02634	0.05056
619.74057	0.05462
618.45481	0.05888
617.16904	0.06219
615.88327	0.06394
614.59750	0.06484
613.31173	0.06659
612.02596	0.07063
610.74019	0.07710
609.45442	0.08494
608.16866	0.09284
606.88289	0.09992
605.59712	0.10574
604.31135	0.11010
603.02558	0.11299
601.73981	0.11454
600.45404	0.11480
599.16827	0.11372
597.88250	0.11135
596.59674	0.10798
595.31097	0.10418
594.02520	0.10055
592.73943	0.09754
591.45366	0.09540
590.16789	0.09424
588.88212	0.09409
587.59635	0.09489
586.31059	0.09642
585.02482	0.09842
583.73905	0.10071
582.45328	0.10324
581.16751	0.10602
579.88174	0.10902
578.59597	0.11224
577.31020	0.11567
576.02443	0.11922
574.73867	0.12273
573.45290	0.12606
572.16713	0.12933
570.88136	0.13286
569.59559	0.13703
568.30982	0.14199
567.02405	0.14758
565.73828	0.15334
564.45251	0.15857
563.16675	0.16243
561.88098	0.16420
560.59521	0.16346
559.30944	0.16016
558.02367	0.15454
556.73790	0.14706
555.45213	0.13832
554.16636	0.12899
552.88060	0.11977
551.59483	0.11122
550.30906	0.10362
549.02329	0.09692
547.73752	0.09092
546.45175	0.08545
545.16598	0.08048
543.88021	0.07603
542.59444	0.07212
541.30868	0.06872
540.02291	0.06579
538.73714	0.06324
537.45137	0.06098
536.16560	0.05887
534.87983	0.05689
533.59406	0.05508
532.30829	0.05343
531.02253	0.05192
529.73676	0.05046
528.45099	0.04900
527.16522	0.04759
525.87945	0.04629
524.59368	0.04512
523.30791	0.04407
522.02214	0.04308
520.73637	0.04209
519.45061	0.04112
518.16484	0.04025
516.87907	0.03949
515.59330	0.03878
514.30753	0.03805
513.02176	0.03730
511.73599	0.03662
510.45022	0.03608
509.16446	0.03567
507.87869	0.03533
506.59292	0.03503
505.30715	0.03475
504.02138	0.03442
502.73561	0.03402
501.44984	0.03358
500.16407	0.03322
498.87830	0.03295
497.59254	0.03271
496.30677	0.03240
495.02100	0.03200
493.73523	0.03159
492.44946	0.03123
491.16369	0.03094
489.87792	0.03072
488.59215	0.03058
487.30639	0.03055
486.02062	0.03061
484.73485	0.03074
483.44908	0.03092
482.16331	0.03114
480.87754	0.03138
479.59177	0.03162
478.30600	0.03188
477.02023	0.03218
475.73447	0.03252
474.44870	0.03287
473.16293	0.03315
471.87716	0.03332
470.59139	0.03336
469.30562	0.03335
468.01985	0.03329
466.73408	0.03316
465.44832	0.03292
464.16255	0.03265
462.87678	0.03242
461.59101	0.03226
460.30524	0.03210
459.01947	0.03185
457.73370	0.03149
456.44793	0.03110
455.16216	0.03075
453.87640	0.03046
452.59063	0.03021
451.30486	0.02997
450.01909	0.02975
448.73332	0.02958
447.44755	0.02948
446.16178	0.02941
444.87601	0.02932
443.59025	0.02917
442.30448	0.02898
441.01871	0.02883
439.73294	0.02878
438.44717	0.02884
437.16140	0.02896
435.87563	0.02909
434.58986	0.02919
433.30409	0.02923
432.01833	0.02921
430.73256	0.02914
429.44679	0.02904
428.16102	0.02898
426.87525	0.02900
425.58948	0.02909
424.30371	0.02918
423.01794	0.02918
421.73218	0.02911
420.44641	0.02899
419.16064	0.02889
417.87487	0.02883
416.58910	0.02878
415.30333	0.02872
414.01756	0.02866
412.73179	0.02863
411.44602	0.02866
410.16026	0.02874
408.87449	0.02889
407.58872	0.02909
406.30295	0.02929
405.01718	0.02944
403.73141	0.02950
402.44564	0.02950
401.15987	0.02951
399.87411	0.02955
