3997.45528	0.03608
3996.16951	0.03639
3994.88374	0.03656
3993.59798	0.03652
3992.31221	0.03611
3991.02644	0.03532
3989.74067	0.03446
3988.45490	0.03397
3987.16913	0.03406
3985.88336	0.03467
3984.59759	0.03550
3983.31183	0.03624
3982.02606	0.03658
3980.74029	0.03648
3979.45452	0.03627
3978.16875	0.03650
3976.88298	0.03724
3975.59721	0.03795
3974.31144	0.03801
3973.02567	0.03740
3971.73991	0.03662
3970.45414	0.03603
3969.16837	0.03565
3967.88260	0.03547
3966.59683	0.03560
3965.31106	0.03602
3964.02529	0.03639
3962.73952	0.03622
3961.45376	0.03548
3960.16799	0.03466
3958.88222	0.03435
3957.59645	0.03481
3956.31068	0.03576
3955.02491	0.03673
3953.73914	0.03748
3952.45337	0.03813
3951.16760	0.03892
3949.88184	0.03979
3948.59607	0.04034
3947.31030	0.04012
3946.02453	0.03916
3944.73876	0.03803
3943.45299	0.03734
3942.16722	0.03729
3940.88145	0.03758
3939.59569	0.03787
3938.30992	0.03805
3937.02415	0.03822
3935.73838	0.03841
3934.45261	0.03851
3933.16684	0.03839
3931.88107	0.03816
3930.59530	0.03802
3929.30953	0.03804
3928.02377	0.03802
3926.73800	0.03771
3925.45223	0.03715
3924.16646	0.03667
3922.88069	0.03656
3921.59492	0.03687
3920.30915	0.03740
3919.02338	0.03787
3917.73762	0.03805
3916.45185	0.03788
3915.16608	0.03750
3913.88031	0.03711
3912.59454	0.03690
3911.30877	0.03702
3910.02300	0.03750
3908.73723	0.03824
3907.45146	0.03893
3906.16570	0.03927
3904.87993	0.03906
3903.59416	0.03830
3902.30839	0.03715
3901.02262	0.03596
3899.73685	0.03527
3898.45108	0.03529
3897.16531	0.03582
3895.87955	0.03653
3894.59378	0.03741
3893.30801	0.03846
3892.02224	0.03938
3890.73647	0.03965
3889.45070	0.03907
3888.16493	0.03799
3886.87916	0.03712
3885.59339	0.03694
3884.30763	0.03723
3883.02186	0.03740
3881.73609	0.03726
3880.45032	0.03715
3879.16455	0.03740
3877.87878	0.03782
3876.59301	0.03805
3875.30724	0.03794
3874.02148	0.03773
3872.73571	0.03769
3871.44994	0.03788
3870.16417	0.03818
3868.87840	0.03839
3867.59263	0.03835
3866.30686	0.03810
3865.02109	0.03781
3863.73532	0.03755
3862.44956	0.03729
3861.16379	0.03713
3859.87802	0.03714
3858.59225	0.03723
3857.30648	0.03728
3856.02071	0.03733
3854.73494	0.03753
3853.44917	0.03788
3852.16341	0.03811
3850.87764	0.03798
3849.59187	0.03767
3848.30610	0.03762
3847.02033	0.03807
3845.73456	0.03893
3844.44879	0.03978
3843.16302	0.04008
3841.87725	0.03957
3840.59149	0.03847
3839.30572	0.03735
3838.01995	0.03670
3836.73418	0.03657
3835.44841	0.03672
3834.16264	0.03702
3832.87687	0.03756
3831.59110	0.03836
3830.30534	0.03908
3829.01957	0.03928
3827.73380	0.03886
3826.44803	0.03825
3825.16226	0.03792
3823.87649	0.03788
3822.59072	0.03793
3821.30495	0.03808
3820.01918	0.03855
3818.73342	0.03921
3817.44765	0.03961
3816.16188	0.03949
3814.87611	0.03896
3813.59034	0.03835
3812.30457	0.03792
3811.01880	0.03774
3809.73303	0.03752
3808.44726	0.03704
3807.16150	0.03656
3805.87573	0.03661
3804.58996	0.03737
3803.30419	0.03849
3802.01842	0.03942
3800.73265	0.03975
3799.44688	0.03939
3798.16111	0.03861
3796.87535	0.03791
3795.58958	0.03742
3794.30381	0.03692
3793.01804	0.03631
3791.73227	0.03587
3790.44650	0.03579
3789.16073	0.03597
3787.87496	0.03620
3786.58919	0.03638
3785.30343	0.03651
3784.01766	0.03651
3782.73189	0.03636
3781.44612	0.03614
3780.16035	0.03585
3778.87458	0.03533
3777.58881	0.03456
3776.30304	0.03388
3775.01728	0.03376
3773.73151	0.03425
3772.44574	0.03493
3771.15997	0.03544
3769.87420	0.03575
3768.58843	0.03596
3767.30266	0.03612
3766.01689	0.03630
3764.73112	0.03643
3763.44536	0.03630
3762.15959	0.03577
3760.87382	0.03506
3759.58805	0.03452
3758.30228	0.03422
3757.01651	0.03410
3755.73074	0.03415
3754.44497	0.03437
3753.15921	0.03470
3751.87344	0.03503
3750.58767	0.03526
3749.30190	0.03538
3748.01613	0.03544
3746.73036	0.03542
3745.44459	0.03546
3744.15882	0.03578
3742.87305	0.03621
3741.58729	0.03640
3740.30152	0.03628
3739.01575	0.03594
3737.72998	0.03536
3736.44421	0.03469
3735.15844	0.03440
3733.87267	0.03473
3732.58690	0.03549
3731.30114	0.03621
3730.01537	0.03640
3728.72960	0.03593
3727.44383	0.03515
3726.15806	0.03452
3724.87229	0.03418
3723.58652	0.03398
3722.30075	0.03380
3721.01498	0.03367
3719.72922	0.03377
3718.44345	0.03424
3717.15768	0.03502
3715.87191	0.03580
3714.58614	0.03628
3713.30037	0.03640
3712.01460	0.03638
3710.72883	0.03636
3709.44307	0.03624
3708.15730	0.03597
3706.87153	0.03548
3705.58576	0.03487
3704.29999	0.03435
3703.01422	0.03412
3701.72845	0.03426
3700.44268	0.03465
3699.15691	0.03503
3697.87115	0.03525
3696.58538	0.03533
3695.29961	0.03534
3694.01384	0.03531
3692.72807	0.03542
3691.44230	0.03574
3690.15653	0.03619
3688.87076	0.03675
3687.58500	0.03728
3686.29923	0.03740
3685.01346	0.03692
3683.72769	0.03606
3682.44192	0.03530
3681.15615	0.03511
3679.87038	0.03559
3678.58461	0.03639
3677.29884	0.03691
3676.01308	0.03673
3674.72731	0.03598
3673.44154	0.03518
3672.15577	0.03483
3670.87000	0.03512
3669.58423	0.03570
3668.29846	0.03603
3667.01269	0.03594
3665.72693	0.03561
3664.44116	0.03515
3663.15539	0.03451
3661.86962	0.03388
3660.58385	0.03373
3659.29808	0.03425
3658.01231	0.03517
3656.72654	0.03596
3655.44077	0.03629
3654.15501	0.03615
3652.86924	0.03576
3651.58347	0.03541
3650.29770	0.03528
3649.01193	0.03535
3647.72616	0.03560
3646.44039	0.03598
3645.15462	0.03638
3643.86886	0.03669
3642.58309	0.03689
3641.29732	0.03712
3640.01155	0.03750
3638.72578	0.03803
3637.44001	0.03853
3636.15424	0.03884
3634.86847	0.03887
3633.58270	0.03861
3632.29694	0.03807
3631.01117	0.03741
3629.72540	0.03706
3628.43963	0.03744
3627.15386	0.03852
3625.86809	0.03976
3624.58232	0.04064
3623.29655	0.04084
3622.01079	0.04040
3620.72502	0.03972
3619.43925	0.03939
3618.15348	0.03968
3616.86771	0.04030
3615.58194	0.04080
3614.29617	0.04100
3613.01040	0.04108
3611.72463	0.04124
3610.43887	0.04150
3609.15310	0.04180
3607.86733	0.04210
3606.58156	0.04233
3605.29579	0.04243
3604.01002	0.04249
3602.72425	0.04268
3601.43848	0.04305
3600.15272	0.04343
3598.86695	0.04368
3597.58118	0.04383
3596.29541	0.04409
3595.00964	0.04452
3593.72387	0.04496
3592.43810	0.04534
3591.15233	0.04569
3589.86656	0.04612
3588.58080	0.04658
3587.29503	0.04681
3586.00926	0.04652
3584.72349	0.04578
3583.43772	0.04510
3582.15195	0.04493
3580.86618	0.04523
3579.58041	0.04568
3578.29464	0.04599
3577.00888	0.04619
3575.72311	0.04651
3574.43734	0.04704
3573.15157	0.04763
3571.86580	0.04816
3570.58003	0.04857
3569.29426	0.04893
3568.00849	0.04923
3566.72273	0.04937
3565.43696	0.04936
3564.15119	0.04927
3562.86542	0.04917
3561.57965	0.04901
3560.29388	0.04873
3559.00811	0.04849
3557.72234	0.04855
3556.43657	0.04894
3555.15081	0.04942
3553.86504	0.04967
3552.57927	0.04961
3551.29350	0.04939
3550.00773	0.04927
3548.72196	0.04962
3547.43619	0.05072
3546.15042	0.05241
3544.86466	0.05405
3543.57889	0.05502
3542.29312	0.05523
3541.00735	0.05506
3539.72158	0.05486
3538.43581	0.05466
3537.15004	0.05431
3535.86427	0.05380
3534.57850	0.05339
3533.29274	0.05337
3532.00697	0.05377
3530.72120	0.05435
3529.43543	0.05480
3528.14966	0.05501
3526.86389	0.05504
3525.57812	0.05507
3524.29235	0.05526
3523.00659	0.05568
3521.72082	0.05630
3520.43505	0.05698
3519.14928	0.05757
3517.86351	0.05793
3516.57774	0.05792
3515.29197	0.05757
3514.00620	0.05714
3512.72043	0.05684
3511.43467	0.05671
3510.14890	0.05667
3508.86313	0.05680
3507.57736	0.05721
3506.29159	0.05780
3505.00582	0.05834
3503.72005	0.05866
3502.43428	0.05884
3501.14852	0.05901
3499.86275	0.05919
3498.57698	0.05930
3497.29121	0.05931
3496.00544	0.05932
3494.71967	0.05943
3493.43390	0.05964
3492.14813	0.05981
3490.86236	0.05991
3489.57660	0.06001
3488.29083	0.06020
3487.00506	0.06039
3485.71929	0.06045
3484.43352	0.06045
3483.14775	0.06061
3481.86198	0.06095
3480.57621	0.06133
3479.29045	0.06163
3478.00468	0.06202
3476.71891	0.06273
3475.43314	0.06366
3474.14737	0.06439
3472.86160	0.06454
3471.57583	0.06419
3470.29006	0.06379
3469.00429	0.06376
3467.71853	0.06412
3466.43276	0.06458
3465.14699	0.06479
3463.86122	0.06462
3462.57545	0.06421
3461.28968	0.06387
3460.00391	0.06383
3458.71814	0.06409
3457.43238	0.06436
3456.14661	0.06435
3454.86084	0.06413
3453.57507	0.06413
3452.28930	0.06473
3451.00353	0.06581
3449.71776	0.06678
3448.43199	0.06712
3447.14622	0.06684
3445.86046	0.06629
3444.57469	0.06583
3443.28892	0.06564
3442.00315	0.06575
3440.71738	0.06604
3439.43161	0.06628
3438.14584	0.06636
3436.86007	0.06644
3435.57431	0.06674
3434.28854	0.06724
3433.00277	0.06762
3431.71700	0.06772
3430.43123	0.06765
3429.14546	0.06770
3427.85969	0.06795
3426.57392	0.06826
3425.28815	0.06840
3424.00239	0.06836
3422.71662	0.06831
3421.43085	0.06850
3420.14508	0.06893
3418.85931	0.06938
3417.57354	0.06961
3416.28777	0.06957
3415.00200	0.06939
3413.71624	0.06917
3412.43047	0.06889
3411.14470	0.06854
3409.85893	0.06829
3408.57316	0.06837
3407.28739	0.06883
3406.00162	0.06952
3404.71585	0.07024
3403.43008	0.07088
3402.14432	0.07136
3400.85855	0.07168
3399.57278	0.07203
3398.28701	0.07230
3397.00124	0.07224
3395.71547	0.07191
3394.42970	0.07148
3393.14393	0.07112
3391.85817	0.07084
3390.57240	0.07065
3389.28663	0.07056
3388.00086	0.07058
3386.71509	0.07072
3385.42932	0.07085
3384.14355	0.07090
3382.85778	0.07091
3381.57201	0.07102
3380.28625	0.07137
3379.00048	0.07198
3377.71471	0.07276
3376.42894	0.07345
3375.14317	0.07378
3373.85740	0.07365
3372.57163	0.07325
3371.28586	0.07295
3370.00010	0.07294
3368.71433	0.07324
3367.42856	0.07367
3366.14279	0.07403
3364.85702	0.07409
3363.57125	0.07377
3362.28548	0.07313
3360.99971	0.07237
3359.71394	0.07180
3358.42818	0.07168
3357.14241	0.07213
3355.85664	0.07299
3354.57087	0.07389
3353.28510	0.07448
3351.99933	0.07469
3350.71356	0.07469
3349.42779	0.07471
3348.14202	0.07474
3346.85626	0.07469
3345.57049	0.07456
3344.28472	0.07452
3342.99895	0.07468
3341.71318	0.07493
3340.42741	0.07503
3339.14164	0.07483
3337.85587	0.07439
3336.57011	0.07393
3335.28434	0.07364
3333.99857	0.07354
3332.71280	0.07348
3331.42703	0.07336
3330.14126	0.07326
3328.85549	0.07337
3327.56972	0.07377
3326.28395	0.07431
3324.99819	0.07473
3323.71242	0.07486
3322.42665	0.07475
3321.14088	0.07448
3319.85511	0.07415
3318.56934	0.07384
3317.28357	0.07368
3315.99780	0.07378
3314.71204	0.07415
3313.42627	0.07467
3312.14050	0.07515
3310.85473	0.07539
3309.56896	0.07533
3308.28319	0.07512
3306.99742	0.07501
3305.71165	0.07508
3304.42588	0.07526
3303.14012	0.07538
3301.85435	0.07537
3300.56858	0.07523
3299.28281	0.07503
3297.99704	0.07482
3296.71127	0.07469
3295.42550	0.07469
3294.13973	0.07476
3292.85397	0.07470
3291.56820	0.07441
3290.28243	0.07405
3288.99666	0.07396
3287.71089	0.07430
3286.42512	0.07483
3285.13935	0.07513
3283.85358	0.07502
3282.56781	0.07471
3281.28205	0.07456
3279.99628	0.07477
3278.71051	0.07529
3277.42474	0.07579
3276.13897	0.07589
3274.85320	0.07547
3273.56743	0.07478
3272.28166	0.07423
3270.99590	0.07398
3269.71013	0.07389
3268.42436	0.07379
3267.13859	0.07374
3265.85282	0.07394
3264.56705	0.07449
3263.28128	0.07518
3261.99551	0.07560
3260.70974	0.07549
3259.42398	0.07488
3258.13821	0.07407
3256.85244	0.07335
3255.56667	0.07290
3254.28090	0.07274
3252.99513	0.07276
3251.70936	0.07278
3250.42359	0.07267
3249.13783	0.07247
3247.85206	0.07228
3246.56629	0.07209
3245.28052	0.07182
3243.99475	0.07151
3242.70898	0.07143
3241.42321	0.07180
3240.13744	0.07245
3238.85167	0.07294
3237.56591	0.07296
3236.28014	0.07261
3234.99437	0.07218
3233.70860	0.07187
3232.42283	0.07174
3231.13706	0.07189
3229.85129	0.07235
3228.56552	0.07295
3227.27976	0.07330
3225.99399	0.07317
3224.70822	0.07264
3223.42245	0.07199
3222.13668	0.07145
3220.85091	0.07116
3219.56514	0.07114
3218.27937	0.07131
3216.99360	0.07152
3215.70784	0.07161
3214.42207	0.07158
3213.13630	0.07152
3211.85053	0.07148
3210.56476	0.07137
3209.27899	0.07109
3207.99322	0.07075
3206.70745	0.07051
3205.42169	0.07038
3204.13592	0.07012
3202.85015	0.06955
3201.56438	0.06885
3200.27861	0.06838
3198.99284	0.06837
3197.70707	0.06870
3196.42130	0.06911
3195.13553	0.06941
3193.84977	0.06956
3192.56400	0.06955
3191.27823	0.06940
3189.99246	0.06909
3188.70669	0.06876
3187.42092	0.06864
3186.13515	0.06883
3184.84938	0.06914
3183.56362	0.06922
3182.27785	0.06892
3180.99208	0.06836
3179.70631	0.06778
3178.42054	0.06734
3177.13477	0.06708
3175.84900	0.06698
3174.56323	0.06703
3173.27746	0.06718
3171.99170	0.06732
3170.70593	0.06735
3169.42016	0.06720
3168.13439	0.06687
3166.84862	0.06641
3165.56285	0.06592
3164.27708	0.06556
3162.99131	0.06541
3161.70555	0.06543
3160.41978	0.06550
3159.13401	0.06554
3157.84824	0.06557
3156.56247	0.06561
3155.27670	0.06558
3153.99093	0.06540
3152.70516	0.06508
3151.41939	0.06478
3150.13363	0.06471
3148.84786	0.06493
3147.56209	0.06525
3146.27632	0.06549
3144.99055	0.06555
3143.70478	0.06538
3142.41901	0.06500
3141.13324	0.06450
3139.84748	0.06403
3138.56171	0.06368
3137.27594	0.06343
3135.99017	0.06327
3134.70440	0.06323
3133.41863	0.06333
3132.13286	0.06353
3130.84709	0.06375
3129.56132	0.06386
3128.27556	0.06384
3126.98979	0.06374
3125.70402	0.06367
3124.41825	0.06368
3123.13248	0.06374
3121.84671	0.06373
3120.56094	0.06356
3119.27517	0.06317
3117.98940	0.06261
3116.70364	0.06207
3115.41787	0.06176
3114.13210	0.06174
3112.84633	0.06185
3111.56056	0.06191
3110.27479	0.06179
3108.98902	0.06150
3107.70325	0.06112
3106.41749	0.06079
3105.13172	0.06066
3103.84595	0.06081
3102.56018	0.06117
3101.27441	0.06157
3099.98864	0.06184
3098.70287	0.06191
3097.41710	0.06180
3096.13133	0.06165
3094.84557	0.06161
3093.55980	0.06171
3092.27403	0.06184
3090.98826	0.06185
3089.70249	0.06173
3088.41672	0.06163
3087.13095	0.06170
3085.84518	0.06193
3084.55942	0.06218
3083.27365	0.06231
3081.98788	0.06225
3080.70211	0.06202
3079.41634	0.06168
3078.13057	0.06132
3076.84480	0.06109
3075.55903	0.06110
3074.27326	0.06128
3072.98750	0.06151
3071.70173	0.06168
3070.41596	0.06171
3069.13019	0.06155
3067.84442	0.06125
3066.55865	0.06099
3065.27288	0.06096
3063.98711	0.06113
3062.70135	0.06131
3061.41558	0.06134
3060.12981	0.06120
3058.84404	0.06104
3057.55827	0.06102
3056.27250	0.06114
3054.98673	0.06127
3053.70096	0.06124
3052.41519	0.06103
3051.12943	0.06072
3049.84366	0.06037
3048.55789	0.06006
3047.27212	0.05987
3045.98635	0.05987
3044.70058	0.05994
3043.41481	0.05988
3042.12904	0.05956
3040.84328	0.05909
3039.55751	0.05869
3038.27174	0.05853
3036.98597	0.05862
3035.70020	0.05880
3034.41443	0.05888
3033.12866	0.05880
3031.84289	0.05865
3030.55712	0.05850
3029.27136	0.05834
3027.98559	0.05809
3026.69982	0.05775
3025.41405	0.05744
3024.12828	0.05726
3022.84251	0.05721
3021.55674	0.05724
3020.27097	0.05729
3018.98521	0.05731
3017.69944	0.05722
3016.41367	0.05700
3015.12790	0.05668
3013.84213	0.05633
3012.55636	0.05604
3011.27059	0.05583
3009.98482	0.05567
3008.69905	0.05554
3007.41329	0.05543
3006.12752	0.05542
3004.84175	0.05557
3003.55598	0.05583
3002.27021	0.05600
3000.98444	0.05601
2999.69867	0.05603
2998.41290	0.05585
2997.12714	0.05578
2995.84137	0.05587
2994.55560	0.05601
2993.26983	0.05605
2991.98406	0.05593
2990.69829	0.05569
2989.41252	0.05546
2988.12675	0.05534
2986.84098	0.05544
2985.55522	0.05573
2984.26945	0.05601
2982.98368	0.05607
2981.69791	0.05588
2980.41214	0.05567
2979.12637	0.05568
2977.84060	0.05596
2976.55483	0.05632
2975.26907	0.05658
2973.98330	0.05674
2972.69753	0.05699
2971.41176	0.05748
2970.12599	0.05809
2968.84022	0.05860
2967.55445	0.05900
2966.26868	0.05948
2964.98291	0.06013
2963.69715	0.06075
2962.41138	0.06119
2961.12561	0.06158
2959.83984	0.06206
2958.55407	0.06255
2957.26830	0.06291
2955.98253	0.06321
2954.69676	0.06366
2953.41100	0.06428
2952.12523	0.06487
2950.83946	0.06526
2949.55369	0.06548
2948.26792	0.06563
2946.98215	0.06567
2945.69638	0.06551
2944.41061	0.06519
2943.12484	0.06488
2941.83908	0.06467
2940.55331	0.06455
2939.26754	0.06450
2937.98177	0.06455
2936.69600	0.06474
2935.41023	0.06495
2934.12446	0.06500
2932.83869	0.06482
2931.55293	0.06443
2930.26716	0.06389
2928.98139	0.06330
2927.69562	0.06275
2926.40985	0.06230
2925.12408	0.06185
2923.83831	0.06122
2922.55254	0.06026
2921.26677	0.05903
2919.98101	0.05784
2918.69524	0.05699
2917.40947	0.05667
2916.12370	0.05691
2914.83793	0.05766
2913.55216	0.05876
2912.26639	0.05998
2910.98062	0.06105
2909.69486	0.06183
2908.40909	0.06235
2907.12332	0.06272
2905.83755	0.06298
2904.55178	0.06307
2903.26601	0.06300
2901.98024	0.06290
2900.69447	0.06289
2899.40870	0.06292
2898.12294	0.06283
2896.83717	0.06260
2895.55140	0.06235
2894.26563	0.06221
2892.97986	0.06219
2891.69409	0.06213
2890.40832	0.06189
2889.12255	0.06151
2887.83678	0.06113
2886.55102	0.06091
2885.26525	0.06080
2883.97948	0.06068
2882.69371	0.06049
2881.40794	0.06026
2880.12217	0.06012
2878.83640	0.06016
2877.55063	0.06037
2876.26487	0.06067
2874.97910	0.06097
2873.69333	0.06126
2872.40756	0.06153
2871.12179	0.06175
2869.83602	0.06184
2868.55025	0.06178
2867.26448	0.06163
2865.97871	0.06144
2864.69295	0.06121
2863.40718	0.06092
2862.12141	0.06059
2860.83564	0.06028
2859.54987	0.05992
2858.26410	0.05930
2856.97833	0.05824
2855.69256	0.05680
2854.40680	0.05523
2853.12103	0.05378
2851.83526	0.05265
2850.54949	0.05200
2849.26372	0.05198
2847.97795	0.05256
2846.69218	0.05350
2845.40641	0.05451
2844.12064	0.05543
2842.83488	0.05613
2841.54911	0.05652
2840.26334	0.05659
2838.97757	0.05642
2837.69180	0.05622
2836.40603	0.05611
2835.12026	0.05603
2833.83449	0.05579
2832.54873	0.05524
2831.26296	0.05445
2829.97719	0.05365
2828.69142	0.05303
2827.40565	0.05261
2826.11988	0.05235
2824.83411	0.05220
2823.54834	0.05214
2822.26257	0.05211
2820.97681	0.05202
2819.69104	0.05190
2818.40527	0.05178
2817.11950	0.05167
2815.83373	0.05158
2814.54796	0.05151
2813.26219	0.05147
2811.97642	0.05145
2810.69066	0.05143
2809.40489	0.05137
2808.11912	0.05126
2806.83335	0.05108
2805.54758	0.05088
2804.26181	0.05072
2802.97604	0.05055
2801.69027	0.05034
2800.40450	0.05008
2799.11874	0.04980
2797.83297	0.04954
2796.54720	0.04935
2795.26143	0.04935
2793.97566	0.04962
2792.68989	0.05002
2791.40412	0.05028
2790.11835	0.05020
2788.83259	0.04980
2787.54682	0.04925
2786.26105	0.04873
2784.97528	0.04826
2783.68951	0.04780
2782.40374	0.04739
2781.11797	0.04722
2779.83220	0.04743
2778.54643	0.04795
2777.26067	0.04851
2775.97490	0.04890
2774.68913	0.04902
2773.40336	0.04890
2772.11759	0.04863
2770.83182	0.04827
2769.54605	0.04792
2768.26028	0.04763
2766.97452	0.04748
2765.68875	0.04748
2764.40298	0.04757
2763.11721	0.04758
2761.83144	0.04748
2760.54567	0.04730
2759.25990	0.04713
2757.97413	0.04701
2756.68836	0.04700
2755.40260	0.04714
2754.11683	0.04733
2752.83106	0.04739
2751.54529	0.04715
2750.25952	0.04673
2748.97375	0.04638
2747.68798	0.04630
2746.40221	0.04646
2745.11645	0.04663
2743.83068	0.04662
2742.54491	0.04642
2741.25914	0.04616
2739.97337	0.04597
2738.68760	0.04588
2737.40183	0.04585
2736.11606	0.04583
2734.83029	0.04581
2733.54453	0.04582
2732.25876	0.04583
2730.97299	0.04584
2729.68722	0.04584
2728.40145	0.04584
2727.11568	0.04584
2725.82991	0.04583
2724.54414	0.04580
2723.25838	0.04573
2721.97261	0.04565
2720.68684	0.04555
2719.40107	0.04540
2718.11530	0.04516
2716.82953	0.04485
2715.54376	0.04457
2714.25799	0.04447
2712.97222	0.04461
2711.68646	0.04493
2710.40069	0.04525
2709.11492	0.04539
2707.82915	0.04527
2706.54338	0.04497
2705.25761	0.04468
2703.97184	0.04451
2702.68607	0.04443
2701.40031	0.04432
2700.11454	0.04414
2698.82877	0.04395
2697.54300	0.04379
2696.25723	0.04368
2694.97146	0.04366
2693.68569	0.04378
2692.39992	0.04402
2691.11415	0.04424
2689.82839	0.04434
2688.54262	0.04432
2687.25685	0.04422
2685.97108	0.04410
2684.68531	0.04399
2683.39954	0.04389
2682.11377	0.04378
2680.82800	0.04364
2679.54224	0.04347
2678.25647	0.04329
2676.97070	0.04315
2675.68493	0.04310
2674.39916	0.04314
2673.11339	0.04322
2671.82762	0.04324
2670.54185	0.04319
2669.25608	0.04310
2667.97032	0.04301
2666.68455	0.04297
2665.39878	0.04300
2664.11301	0.04303
2662.82724	0.04296
2661.54147	0.04273
2660.25570	0.04245
2658.96993	0.04224
2657.68417	0.04211
2656.39840	0.04199
2655.11263	0.04183
2653.82686	0.04166
2652.54109	0.04148
2651.25532	0.04123
2649.96955	0.04095
2648.68378	0.04072
2647.39801	0.04054
2646.11225	0.04036
2644.82648	0.04015
2643.54071	0.03998
2642.25494	0.03988
2640.96917	0.03978
2639.68340	0.03965
2638.39763	0.03950
2637.11186	0.03939
2635.82609	0.03933
2634.54033	0.03931
2633.25456	0.03928
2631.96879	0.03919
2630.68302	0.03895
2629.39725	0.03855
2628.11148	0.03807
2626.82571	0.03770
2625.53994	0.03756
2624.25418	0.03763
2622.96841	0.03776
2621.68264	0.03786
2620.39687	0.03791
2619.11110	0.03785
2617.82533	0.03767
2616.53956	0.03739
2615.25379	0.03713
2613.96802	0.03693
2612.68226	0.03677
2611.39649	0.03659
2610.11072	0.03643
2608.82495	0.03633
2607.53918	0.03635
2606.25341	0.03654
2604.96764	0.03683
2603.68187	0.03705
2602.39611	0.03704
2601.11034	0.03678
2599.82457	0.03638
2598.53880	0.03604
2597.25303	0.03584
2595.96726	0.03572
2594.68149	0.03563
2593.39572	0.03563
2592.10995	0.03582
2590.82419	0.03622
2589.53842	0.03660
2588.25265	0.03669
2586.96688	0.03645
2585.68111	0.03615
2584.39534	0.03606
2583.10957	0.03617
2581.82380	0.03618
2580.53804	0.03586
2579.25227	0.03532
2577.96650	0.03486
2576.68073	0.03467
2575.39496	0.03460
2574.10919	0.03443
2572.82342	0.03417
2571.53765	0.03401
2570.25188	0.03399
2568.96612	0.03396
2567.68035	0.03385
2566.39458	0.03373
2565.10881	0.03370
2563.82304	0.03375
2562.53727	0.03383
2561.25150	0.03398
2559.96573	0.03426
2558.67997	0.03463
2557.39420	0.03496
2556.10843	0.03512
2554.82266	0.03505
2553.53689	0.03474
2552.25112	0.03424
2550.96535	0.03372
2549.67958	0.03337
2548.39381	0.03324
2547.10805	0.03320
2545.82228	0.03308
2544.53651	0.03279
2543.25074	0.03246
2541.96497	0.03233
2540.67920	0.03262
2539.39343	0.03326
2538.10766	0.03386
2536.82190	0.03403
2535.53613	0.03376
2534.25036	0.03337
2532.96459	0.03312
2531.67882	0.03302
2530.39305	0.03301
2529.10728	0.03316
2527.82151	0.03357
2526.53574	0.03406
2525.24998	0.03432
2523.96421	0.03418
2522.67844	0.03384
2521.39267	0.03361
2520.10690	0.03357
2518.82113	0.03357
2517.53536	0.03348
2516.24959	0.03337
2514.96383	0.03335
2513.67806	0.03343
2512.39229	0.03351
2511.10652	0.03350
2509.82075	0.03343
2508.53498	0.03333
2507.24921	0.03317
2505.96344	0.03289
2504.67767	0.03247
2503.39191	0.03198
2502.10614	0.03162
2500.82037	0.03158
2499.53460	0.03186
2498.24883	0.03219
2496.96306	0.03228
2495.67729	0.03211
2494.39152	0.03195
2493.10576	0.03198
2491.81999	0.03216
2490.53422	0.03224
2489.24845	0.03208
2487.96268	0.03175
2486.67691	0.03146
2485.39114	0.03135
2484.10537	0.03142
2482.81960	0.03149
2481.53384	0.03149
2480.24807	0.03146
2478.96230	0.03152
2477.67653	0.03175
2476.39076	0.03208
2475.10499	0.03233
2473.81922	0.03228
2472.53345	0.03197
2471.24769	0.03161
2469.96192	0.03137
2468.67615	0.03127
2467.39038	0.03132
2466.10461	0.03152
2464.81884	0.03175
2463.53307	0.03185
2462.24730	0.03183
2460.96153	0.03183
2459.67577	0.03188
2458.39000	0.03187
2457.10423	0.03174
2455.81846	0.03160
2454.53269	0.03153
2453.24692	0.03153
2451.96115	0.03149
2450.67538	0.03136
2449.38962	0.03110
2448.10385	0.03074
2446.81808	0.03031
2445.53231	0.02998
2444.24654	0.02986
2442.96077	0.02996
2441.67500	0.03011
2440.38923	0.03020
2439.10346	0.03025
2437.81770	0.03033
2436.53193	0.03046
2435.24616	0.03054
2433.96039	0.03052
2432.67462	0.03040
2431.38885	0.03037
2430.10308	0.03060
2428.81731	0.03099
2427.53155	0.03122
2426.24578	0.03107
2424.96001	0.03066
2423.67424	0.03035
2422.38847	0.03041
2421.10270	0.03083
2419.81693	0.03127
2418.53116	0.03133
2417.24539	0.03093
2415.95963	0.03036
2414.67386	0.02996
2413.38809	0.02984
2412.10232	0.02994
2410.81655	0.03021
2409.53078	0.03060
2408.24501	0.03097
2406.95924	0.03117
2405.67347	0.03116
2404.38771	0.03100
2403.10194	0.03076
2401.81617	0.03054
2400.53040	0.03044
2399.24463	0.03020
2397.95886	0.03061
2396.67309	0.03096
2395.38732	0.03099
2394.10156	0.03089
2392.81579	0.03087
2391.53002	0.03100
2390.24425	0.03116
2388.95848	0.03124
2387.67271	0.03118
2386.38694	0.03105
2385.10117	0.03090
2383.81540	0.03077
2382.52964	0.03066
2381.24387	0.03066
2379.95810	0.03078
2378.67233	0.03101
2377.38656	0.03130
2376.10079	0.03151
2374.81502	0.03161
2373.52925	0.03183
2372.24349	0.03210
2370.95772	0.03273
2369.67195	0.03322
2368.38618	0.03354
2367.10041	0.03396
2365.81464	0.03453
2364.52887	0.03454
2363.24310	0.03441
2361.95733	0.03458
2360.67157	0.03511
2359.38580	0.03513
2358.10003	0.03507
2356.81426	0.03512
2355.52849	0.03515
2354.24272	0.03518
2352.95695	0.03468
2351.67118	0.03413
2350.38542	0.03408
2349.09965	0.03386
2347.81388	0.03281
2346.52811	0.03203
2345.24234	0.03205
2343.95657	0.03258
2342.67080	0.03265
2341.38503	0.03286
2340.09926	0.03356
2338.81350	0.03412
2337.52773	0.03456
2336.24196	0.03466
2334.95619	0.03450
2333.67042	0.03446
2332.38465	0.03372
2331.09888	0.03358
2329.81311	0.03389
2328.52735	0.03316
2327.24158	0.03328
2325.95581	0.03377
2324.67004	0.03301
2323.38427	0.03250
2322.09850	0.03255
2320.81273	0.03158
2319.52696	0.03138
2318.24119	0.03154
2316.95543	0.03084
2315.66966	0.03049
2314.38389	0.03014
2313.09812	0.02954
2311.81235	0.02942
2310.52658	0.02912
2309.24081	0.02898
2307.95504	0.02911
2306.66928	0.02890
2305.38351	0.02878
2304.09774	0.02862
2302.81197	0.02842
2301.52620	0.02836
2300.24043	0.02815
2298.95466	0.02795
2297.66889	0.02773
2296.38312	0.02762
2295.09736	0.02760
2293.81159	0.02750
2292.52582	0.02731
2291.24005	0.02702
2289.95428	0.02675
2288.66851	0.02651
2287.38274	0.02629
2286.09697	0.02607
2284.81121	0.02590
2283.52544	0.02577
2282.23967	0.02567
2280.95390	0.02558
2279.66813	0.02545
2278.38236	0.02520
2277.09659	0.02474
2275.81082	0.02412
2274.52505	0.02353
2273.23929	0.02317
2271.95352	0.02308
2270.66775	0.02309
2269.38198	0.02302
2268.09621	0.02291
2266.81044	0.02292
2265.52467	0.02318
2264.23890	0.02365
2262.95314	0.02410
2261.66737	0.02425
2260.38160	0.02395
2259.09583	0.02340
2257.81006	0.02294
2256.52429	0.02273
2255.23852	0.02261
2253.95275	0.02248
2252.66698	0.02239
2251.38122	0.02254
2250.09545	0.02272
2248.80968	0.02218
2247.52391	0.02186
2246.23814	0.02147
2244.95237	0.02127
2243.66660	0.02142
2242.38083	0.02170
2241.09507	0.02167
2239.80930	0.02113
2238.52353	0.02041
2237.23776	0.02007
2235.95199	0.02033
2234.66622	0.02086
2233.38045	0.02116
2232.09468	0.02095
2230.80891	0.02032
2229.52315	0.01956
2228.23738	0.01895
2226.95161	0.01859
2225.66584	0.01831
2224.38007	0.01779
2223.09430	0.01695
2221.80853	0.01601
2220.52276	0.01537
2219.23700	0.01518
2217.95123	0.01540
2216.66546	0.01593
2215.37969	0.01672
2214.09392	0.01749
2212.80815	0.01784
2211.52238	0.01768
2210.23661	0.01752
2208.95084	0.01796
2207.66508	0.01888
2206.37931	0.01936
2205.09354	0.01884
2203.80777	0.01789
2202.52200	0.01746
2201.23623	0.01776
2199.95046	0.01806
2198.66469	0.01776
2197.37893	0.01706
2196.09316	0.01648
2194.80739	0.01622
2193.52162	0.01613
2192.23585	0.01617
2190.95008	0.01635
2189.66431	0.01651
2188.37854	0.01632
2187.09277	0.01576
2185.80701	0.01521
2184.52124	0.01493
2183.23547	0.01476
2181.94970	0.01442
2180.66393	0.01389
2179.37816	0.01333
2178.09239	0.01297
2176.80662	0.01302
2175.52085	0.01355
2174.23509	0.01431
2172.94932	0.01479
2171.66355	0.01462
2170.37778	0.01379
2169.09201	0.01262
2167.80624	0.01157
2166.52047	0.01093
2165.23470	0.01057
2163.94894	0.00998
2162.66317	0.00883
2161.37740	0.00748
2160.09163	0.00694
2158.80586	0.00794
2157.52009	0.01002
2156.23432	0.01172
2154.94855	0.01201
2153.66278	0.01112
2152.37702	0.01014
2151.09125	0.00996
2149.80548	0.01067
2148.51971	0.01177
2147.23394	0.01284
2145.94817	0.01387
2144.66240	0.01497
2143.37663	0.01592
2142.09087	0.01622
2140.80510	0.01568
2139.51933	0.01474
2138.23356	0.01402
2136.94779	0.01373
2135.66202	0.01383
2134.37625	0.01424
2133.09048	0.01493
2131.80471	0.01574
2130.51895	0.01641
2129.23318	0.01678
2127.94741	0.01682
2126.66164	0.01667
2125.37587	0.01652
2124.09010	0.01655
2122.80433	0.01688
2121.51856	0.01751
2120.23280	0.01825
2118.94703	0.01879
2117.66126	0.01899
2116.37549	0.01899
2115.08972	0.01905
2113.80395	0.01921
2112.51818	0.01929
2111.23241	0.01912
2109.94664	0.01868
2108.66088	0.01807
2107.37511	0.01737
2106.08934	0.01669
2104.80357	0.01614
2103.51780	0.01582
2102.23203	0.01570
2100.94626	0.01565
2099.66049	0.01627
2098.37473	0.01621
2097.08896	0.01583
2095.80319	0.01559
2094.51742	0.01568
2093.23165	0.01614
2091.94588	0.01675
2090.66011	0.01718
2089.37434	0.01724
2088.08857	0.01699
2086.80281	0.01658
2085.51704	0.01612
2084.23127	0.01565
2082.94550	0.01512
2081.65973	0.01456
2080.37396	0.01410
2079.08819	0.01403
2077.80242	0.01445
2076.51666	0.01510
2075.23089	0.01558
2073.94512	0.01567
2072.65935	0.01546
2071.37358	0.01518
2070.08781	0.01501
2068.80204	0.01503
2067.51627	0.01518
2066.23050	0.01538
2064.94474	0.01551
2063.65897	0.01552
2062.37320	0.01535
2061.08743	0.01493
2059.80166	0.01424
2058.51589	0.01330
2057.23012	0.01217
2055.94435	0.01096
2054.65859	0.00983
2053.37282	0.00895
2052.08705	0.00845
2050.80128	0.00831
2049.51551	0.00834
2048.22974	0.00836
2046.94397	0.00831
2045.65820	0.00831
2044.37243	0.00850
2043.08667	0.00886
2041.80090	0.00923
2040.51513	0.00941
2039.22936	0.00920
2037.94359	0.00847
2036.65782	0.00742
2035.37205	0.00659
2034.08628	0.00652
2032.80052	0.00726
2031.51475	0.00830
2030.22898	0.00903
2028.94321	0.00922
2027.65744	0.00905
2026.37167	0.00880
2025.08590	0.00864
2023.80013	0.00868
2022.51436	0.00900
2021.22860	0.00948
2019.94283	0.00965
2018.65706	0.00918
2017.37129	0.00823
2016.08552	0.00735
2014.79975	0.00698
2013.51398	0.00727
2012.22821	0.00813
2010.94245	0.00933
2009.65668	0.01054
2008.37091	0.01153
2007.08514	0.01217
2005.79937	0.01234
2004.51360	0.01193
2003.22783	0.01101
2001.94206	0.00998
2000.65629	0.00933
1999.37053	0.00930
1998.08476	0.00978
1996.79899	0.01050
1995.51322	0.01127
1994.22745	0.01197
1992.94168	0.01254
1991.65591	0.01296
1990.37014	0.01319
1989.08438	0.01328
1987.79861	0.01333
1986.51284	0.01345
1985.22707	0.01367
1983.94130	0.01387
1982.65553	0.01386
1981.36976	0.01364
1980.08399	0.01351
1978.79822	0.01377
1977.51246	0.01430
1976.22669	0.01467
1974.94092	0.01463
1973.65515	0.01436
1972.36938	0.01416
1971.08361	0.01414
1969.79784	0.01422
1968.51207	0.01432
1967.22631	0.01435
1965.94054	0.01423
1964.65477	0.01388
1963.36900	0.01340
1962.08323	0.01305
1960.79746	0.01314
1959.51169	0.01379
1958.22592	0.01482
1956.94015	0.01579
1955.65439	0.01632
1954.36862	0.01629
1953.08285	0.01583
1951.79708	0.01517
1950.51131	0.01451
1949.22554	0.01396
1947.93977	0.01363
1946.65400	0.01353
1945.36823	0.01368
1944.08247	0.01413
1942.79670	0.01488
1941.51093	0.01574
1940.22516	0.01641
1938.93939	0.01674
1937.65362	0.01686
1936.36785	0.01697
1935.08208	0.01715
1933.79632	0.01739
1932.51055	0.01769
1931.22478	0.01801
1929.93901	0.01830
1928.65324	0.01843
1927.36747	0.01827
1926.08170	0.01779
1924.79593	0.01717
1923.51016	0.01673
1922.22440	0.01666
1920.93863	0.01683
1919.65286	0.01696
1918.36709	0.01701
1917.08132	0.01717
1915.79555	0.01759
1914.50978	0.01811
1913.22401	0.01846
1911.93825	0.01850
1910.65248	0.01831
1909.36671	0.01802
1908.08094	0.01775
1906.79517	0.01758
1905.50940	0.01761
1904.22363	0.01782
1902.93786	0.01801
1901.65209	0.01801
1900.36633	0.01785
1899.08056	0.01773
1897.79479	0.01781
1896.50902	0.01808
1895.22325	0.01836
1893.93748	0.01846
1892.65171	0.01834
1891.36594	0.01814
1890.08018	0.01803
1888.79441	0.01806
1887.50864	0.01811
1886.22287	0.01800
1884.93710	0.01773
1883.65133	0.01746
1882.36556	0.01736
1881.07979	0.01749
1879.79402	0.01773
1878.50826	0.01795
1877.22249	0.01809
1875.93672	0.01822
1874.65095	0.01837
1873.36518	0.01852
1872.07941	0.01861
1870.79364	0.01860
1869.50787	0.01849
1868.22211	0.01833
1866.93634	0.01820
1865.65057	0.01820
1864.36480	0.01837
1863.07903	0.01862
1861.79326	0.01878
1860.50749	0.01875
1859.22172	0.01858
1857.93595	0.01838
1856.65019	0.01820
1855.36442	0.01807
1854.07865	0.01797
1852.79288	0.01788
1851.50711	0.01784
1850.22134	0.01789
1848.93557	0.01805
1847.64980	0.01825
1846.36404	0.01844
1845.07827	0.01859
1843.79250	0.01872
1842.50673	0.01879
1841.22096	0.01874
1839.93519	0.01853
1838.64942	0.01825
1837.36365	0.01802
1836.07788	0.01791
1834.79212	0.01791
1833.50635	0.01802
1832.22058	0.01819
1830.93481	0.01836
1829.64904	0.01848
1828.36327	0.01856
1827.07750	0.01862
1825.79173	0.01869
1824.50597	0.01876
1823.22020	0.01879
1821.93443	0.01875
1820.64866	0.01873
1819.36289	0.01879
1818.07712	0.01888
1816.79135	0.01892
1815.50558	0.01884
1814.21981	0.01866
1812.93405	0.01849
1811.64828	0.01843
1810.36251	0.01848
1809.07674	0.01858
1807.79097	0.01864
1806.50520	0.01864
1805.21943	0.01865
1803.93366	0.01870
1802.64790	0.01879
1801.36213	0.01886
1800.07636	0.01888
1798.79059	0.01883
1797.50482	0.01874
1796.21905	0.01866
1794.93328	0.01861
1793.64751	0.01861
1792.36174	0.01866
1791.07598	0.01877
1789.79021	0.01888
1788.50444	0.01891
1787.21867	0.01888
1785.93290	0.01880
1784.64713	0.01872
1783.36136	0.01864
1782.07559	0.01856
1780.78983	0.01849
1779.50406	0.01847
1778.21829	0.01849
1776.93252	0.01856
1775.64675	0.01865
1774.36098	0.01872
1773.07521	0.01875
1771.78944	0.01873
1770.50367	0.01865
1769.21791	0.01853
1767.93214	0.01841
1766.64637	0.01836
1765.36060	0.01837
1764.07483	0.01836
1762.78906	0.01834
1761.50329	0.01830
1760.21752	0.01824
1758.93176	0.01813
1757.64599	0.01799
1756.36022	0.01786
1755.07445	0.01774
1753.78868	0.01759
1752.50291	0.01740
1751.21714	0.01717
1749.93137	0.01689
1748.64560	0.01654
1747.35984	0.01613
1746.07407	0.01572
1744.78830	0.01539
1743.50253	0.01518
1742.21676	0.01513
1740.93099	0.01518
1739.64522	0.01530
1738.35945	0.01549
1737.07369	0.01570
1735.78792	0.01593
1734.50215	0.01622
1733.21638	0.01657
1731.93061	0.01684
1730.64484	0.01690
1729.35907	0.01677
1728.07330	0.01665
1726.78753	0.01666
1725.50177	0.01684
1724.21600	0.01716
1722.93023	0.01754
1721.64446	0.01793
1720.35869	0.01830
1719.07292	0.01866
1717.78715	0.01906
1716.50138	0.01946
1715.21561	0.01977
1713.92985	0.01999
1712.64408	0.02019
1711.35831	0.02050
1710.07254	0.02095
1708.78677	0.02148
1707.50100	0.02203
1706.21523	0.02256
1704.92946	0.02315
1703.64370	0.02385
1702.35793	0.02466
1701.07216	0.02561
1699.78639	0.02668
1698.50062	0.02775
1697.21485	0.02862
1695.92908	0.02931
1694.64331	0.02995
1693.35754	0.03055
1692.07178	0.03114
1690.78601	0.03182
1689.50024	0.03268
1688.21447	0.03366
1686.92870	0.03468
1685.64293	0.03569
1684.35716	0.03670
1683.07139	0.03763
1681.78563	0.03839
1680.49986	0.03906
1679.21409	0.03984
1677.92832	0.04078
1676.64255	0.04175
1675.35678	0.04266
1674.07101	0.04350
1672.78524	0.04430
1671.49947	0.04506
1670.21371	0.04582
1668.92794	0.04656
1667.64217	0.04728
1666.35640	0.04800
1665.07063	0.04877
1663.78486	0.04960
1662.49909	0.05042
1661.21332	0.05116
1659.92756	0.05178
1658.64179	0.05236
1657.35602	0.05304
1656.07025	0.05385
1654.78448	0.05465
1653.49871	0.05535
1652.21294	0.05586
1650.92717	0.05615
1649.64140	0.05622
1648.35564	0.05624
1647.06987	0.05636
1645.78410	0.05656
1644.49833	0.05673
1643.21256	0.05677
1641.92679	0.05668
1640.64102	0.05652
1639.35525	0.05633
1638.06949	0.05608
1636.78372	0.05576
1635.49795	0.05539
1634.21218	0.05496
1632.92641	0.05442
1631.64064	0.05376
1630.35487	0.05304
1629.06910	0.05231
1627.78333	0.05158
1626.49757	0.05080
1625.21180	0.04998
1623.92603	0.04917
1622.64026	0.04840
1621.35449	0.04766
1620.06872	0.04693
1618.78295	0.04619
1617.49718	0.04550
1616.21142	0.04492
1614.92565	0.04438
1613.63988	0.04376
1612.35411	0.04308
1611.06834	0.04246
1609.78257	0.04195
1608.49680	0.04152
1607.21103	0.04111
1605.92526	0.04067
1604.63950	0.04023
1603.35373	0.03984
1602.06796	0.03955
1600.78219	0.03935
1599.49642	0.03922
1598.21065	0.03915
1596.92488	0.03915
1595.63911	0.03919
1594.35335	0.03929
1593.06758	0.03944
1591.78181	0.03964
1590.49604	0.03984
1589.21027	0.04002
1587.92450	0.04022
1586.63873	0.04047
1585.35296	0.04080
1584.06719	0.04117
1582.78143	0.04156
1581.49566	0.04196
1580.20989	0.04240
1578.92412	0.04289
1577.63835	0.04339
1576.35258	0.04393
1575.06681	0.04452
1573.78104	0.04509
1572.49528	0.04557
1571.20951	0.04600
1569.92374	0.04644
1568.63797	0.04689
1567.35220	0.04730
1566.06643	0.04767
1564.78066	0.04809
1563.49489	0.04863
1562.20912	0.04929
1560.92336	0.04998
1559.63759	0.05065
1558.35182	0.05126
1557.06605	0.05174
1555.78028	0.05203
1554.49451	0.05222
1553.20874	0.05244
1551.92297	0.05271
1550.63721	0.05300
1549.35144	0.05328
1548.06567	0.05356
1546.77990	0.05382
1545.49413	0.05407
1544.20836	0.05432
1542.92259	0.05456
1541.63682	0.05474
1540.35105	0.05484
1539.06529	0.05490
1537.77952	0.05496
1536.49375	0.05502
1535.20798	0.05508
1533.92221	0.05520
1532.63644	0.05539
1531.35067	0.05561
1530.06490	0.05587
1528.77914	0.05624
1527.49337	0.05672
1526.20760	0.05731
1524.92183	0.05795
1523.63606	0.05860
1522.35029	0.05924
1521.06452	0.05987
1519.77875	0.06048
1518.49298	0.06105
1517.20722	0.06164
1515.92145	0.06233
1514.63568	0.06315
1513.34991	0.06403
1512.06414	0.06497
1510.77837	0.06597
1509.49260	0.06702
1508.20683	0.06812
1506.92107	0.06925
1505.63530	0.07038
1504.34953	0.07140
1503.06376	0.07222
1501.77799	0.07289
1500.49222	0.07353
1499.20645	0.07417
1497.92068	0.07477
1496.63491	0.07531
1495.34915	0.07583
1494.06338	0.07637
1492.77761	0.07696
1491.49184	0.07767
1490.20607	0.07852
1488.92030	0.07943
1487.63453	0.08033
1486.34876	0.08123
1485.06299	0.08221
1483.77723	0.08334
1482.49146	0.08458
1481.20569	0.08590
1479.91992	0.08721
1478.63415	0.08846
1477.34838	0.08966
1476.06261	0.09080
1474.77684	0.09187
1473.49108	0.09283
1472.20531	0.09371
1470.91954	0.09450
1469.63377	0.09520
1468.34800	0.09580
1467.06223	0.09634
1465.77646	0.09686
1464.49069	0.09742
1463.20492	0.09801
1461.91916	0.09865
1460.63339	0.09936
1459.34762	0.10018
1458.06185	0.10110
1456.77608	0.10207
1455.49031	0.10296
1454.20454	0.10367
1452.91877	0.10419
1451.63301	0.10467
1450.34724	0.10517
1449.06147	0.10565
1447.77570	0.10600
1446.48993	0.10616
1445.20416	0.10609
1443.91839	0.10586
1442.63262	0.10555
1441.34685	0.10521
1440.06109	0.10491
1438.77532	0.10464
1437.48955	0.10443
1436.20378	0.10430
1434.91801	0.10426
1433.63224	0.10432
1432.34647	0.10455
1431.06070	0.10500
1429.77494	0.10569
1428.48917	0.10657
1427.20340	0.10760
1425.91763	0.10874
1424.63186	0.10998
1423.34609	0.11128
1422.06032	0.11257
1420.77455	0.11381
1419.48878	0.11497
1418.20302	0.11602
1416.91725	0.11691
1415.63148	0.11765
1414.34571	0.11827
1413.05994	0.11879
1411.77417	0.11915
1410.48840	0.11928
1409.20263	0.11918
1407.91687	0.11887
1406.63110	0.11836
1405.34533	0.11762
1404.05956	0.11665
1402.77379	0.11545
1401.48802	0.11406
1400.20225	0.11254
1398.91648	0.11091
1397.63071	0.10918
1396.34495	0.10734
1395.05918	0.10540
1393.77341	0.10339
1392.48764	0.10134
1391.20187	0.09929
1389.91610	0.09724
1388.63033	0.09526
1387.34456	0.09335
1386.05880	0.09151
1384.77303	0.08969
1383.48726	0.08784
1382.20149	0.08596
1380.91572	0.08409
1379.62995	0.08226
1378.34418	0.08044
1377.05841	0.07858
1375.77264	0.07662
1374.48688	0.07457
1373.20111	0.07249
1371.91534	0.07043
1370.62957	0.06842
1369.34380	0.06651
1368.05803	0.06471
1366.77226	0.06301
1365.48649	0.06137
1364.20073	0.05975
1362.91496	0.05813
1361.62919	0.05656
1360.34342	0.05511
1359.05765	0.05384
1357.77188	0.05272
1356.48611	0.05169
1355.20034	0.05071
1353.91457	0.04978
1352.62881	0.04895
1351.34304	0.04821
1350.05727	0.04754
1348.77150	0.04688
1347.48573	0.04620
1346.19996	0.04551
1344.91419	0.04487
1343.62842	0.04433
1342.34266	0.04388
1341.05689	0.04349
1339.77112	0.04310
1338.48535	0.04268
1337.19958	0.04222
1335.91381	0.04173
1334.62804	0.04122
1333.34227	0.04074
1332.05650	0.04031
1330.77074	0.03994
1329.48497	0.03960
1328.19920	0.03922
1326.91343	0.03880
1325.62766	0.03837
1324.34189	0.03799
1323.05612	0.03768
1321.77035	0.03744
1320.48459	0.03721
1319.19882	0.03694
1317.91305	0.03664
1316.62728	0.03632
1315.34151	0.03601
1314.05574	0.03571
1312.76997	0.03540
1311.48420	0.03508
1310.19843	0.03473
1308.91267	0.03439
1307.62690	0.03407
1306.34113	0.03376
1305.05536	0.03344
1303.76959	0.03310
1302.48382	0.03275
1301.19805	0.03245
1299.91228	0.03221
1298.62652	0.03202
1297.34075	0.03184
1296.05498	0.03163
1294.76921	0.03141
1293.48344	0.03119
1292.19767	0.03103
1290.91190	0.03092
1289.62613	0.03083
1288.34036	0.03071
1287.05460	0.03053
1285.76883	0.03032
1284.48306	0.03014
1283.19729	0.03003
1281.91152	0.02996
1280.62575	0.02988
1279.33998	0.02974
1278.05421	0.02956
1276.76845	0.02938
1275.48268	0.02922
1274.19691	0.02908
1272.91114	0.02894
1271.62537	0.02877
1270.33960	0.02859
1269.05383	0.02841
1267.76806	0.02823
1266.48229	0.02806
1265.19653	0.02789
1263.91076	0.02774
1262.62499	0.02763
1261.33922	0.02754
1260.05345	0.02747
1258.76768	0.02741
1257.48191	0.02735
1256.19614	0.02730
1254.91037	0.02728
1253.62461	0.02726
1252.33884	0.02725
1251.05307	0.02721
1249.76730	0.02714
1248.48153	0.02706
1247.19576	0.02699
1245.90999	0.02692
1244.62422	0.02686
1243.33846	0.02680
1242.05269	0.02672
1240.76692	0.02662
1239.48115	0.02651
1238.19538	0.02641
1236.90961	0.02629
1235.62384	0.02614
1234.33807	0.02595
1233.05230	0.02574
1231.76654	0.02555
1230.48077	0.02540
1229.19500	0.02525
1227.90923	0.02506
1226.62346	0.02480
1225.33769	0.02448
1224.05192	0.02416
1222.76615	0.02386
1221.48039	0.02360
1220.19462	0.02338
1218.90885	0.02317
1217.62308	0.02296
1216.33731	0.02273
1215.05154	0.02250
1213.76577	0.02228
1212.48000	0.02212
1211.19423	0.02201
1209.90847	0.02193
1208.62270	0.02185
1207.33693	0.02175
1206.05116	0.02166
1204.76539	0.02162
1203.47962	0.02161
1202.19385	0.02158
1200.90808	0.02143
1199.62232	0.02103
1198.33655	0.02080
1197.05078	0.02064
1195.76501	0.02049
1194.47924	0.02034
1193.19347	0.02020
1191.90770	0.02008
1190.62193	0.01993
1189.33616	0.01972
1188.05040	0.01944
1186.76463	0.01914
1185.47886	0.01889
1184.19309	0.01867
1182.90732	0.01846
1181.62155	0.01827
1180.33578	0.01810
1179.05001	0.01798
1177.76425	0.01793
1176.47848	0.01792
1175.19271	0.01792
1173.90694	0.01790
1172.62117	0.01785
1171.33540	0.01784
1170.04963	0.01792
1168.76386	0.01809
1167.47809	0.01830
1166.19233	0.01847
1164.90656	0.01854
1163.62079	0.01854
1162.33502	0.01851
1161.04925	0.01850
1159.76348	0.01851
1158.47771	0.01852
1157.19194	0.01854
1155.90618	0.01858
1154.62041	0.01866
1153.33464	0.01873
1152.04887	0.01877
1150.76310	0.01880
1149.47733	0.01886
1148.19156	0.01899
1146.90579	0.01918
1145.62002	0.01945
1144.33426	0.01984
1143.04849	0.02037
1141.76272	0.02101
1140.47695	0.02166
1139.19118	0.02232
1137.90541	0.02305
1136.61964	0.02389
1135.33387	0.02488
1134.04811	0.02603
1132.76234	0.02738
1131.47657	0.02891
1130.19080	0.03061
1128.90503	0.03248
1127.61926	0.03454
1126.33349	0.03681
1125.04772	0.03927
1123.76195	0.04186
1122.47619	0.04455
1121.19042	0.04734
1119.90465	0.05026
1118.61888	0.05335
1117.33311	0.05658
1116.04734	0.05985
1114.76157	0.06305
1113.47580	0.06613
1112.19004	0.06912
1110.90427	0.07209
1109.61850	0.07508
1108.33273	0.07804
1107.04696	0.08090
1105.76119	0.08361
1104.47542	0.08621
1103.18965	0.08871
1101.90388	0.09113
1100.61812	0.09348
1099.33235	0.09578
1098.04658	0.09804
1096.76081	0.10027
1095.47504	0.10241
1094.18927	0.10438
1092.90350	0.10617
1091.61773	0.10781
1090.33197	0.10934
1089.04620	0.11081
1087.76043	0.11225
1086.47466	0.11371
1085.18889	0.11522
1083.90312	0.11676
1082.61735	0.11834
1081.33158	0.11999
1080.04581	0.12173
1078.76005	0.12359
1077.47428	0.12562
1076.18851	0.12787
1074.90274	0.13028
1073.61697	0.13279
1072.33120	0.13533
1071.04543	0.13792
1069.75966	0.14064
1068.47390	0.14350
1067.18813	0.14653
1065.90236	0.14966
1064.61659	0.15282
1063.33082	0.15592
1062.04505	0.15892
1060.75928	0.16186
1059.47351	0.16478
1058.18774	0.16769
1056.90198	0.17059
1055.61621	0.17344
1054.33044	0.17625
1053.04467	0.17905
1051.75890	0.18186
1050.47313	0.18473
1049.18736	0.18767
1047.90159	0.19065
1046.61583	0.19368
1045.33006	0.19676
1044.04429	0.19987
1042.75852	0.20302
1041.47275	0.20616
1040.18698	0.20929
1038.90121	0.21239
1037.61544	0.21547
1036.32967	0.21856
1035.04391	0.22163
1033.75814	0.22465
1032.47237	0.22755
1031.18660	0.23032
1029.90083	0.23289
1028.61506	0.23520
1027.32929	0.23717
1026.04352	0.23880
1024.75775	0.24012
1023.47199	0.24115
1022.18622	0.24185
1020.90045	0.24220
1019.61468	0.24215
1018.32891	0.24169
1017.04314	0.24083
1015.75737	0.23954
1014.47160	0.23778
1013.18584	0.23555
1011.90007	0.23287
1010.61430	0.22976
1009.32853	0.22619
1008.04276	0.22213
1006.75699	0.21755
1005.47122	0.21253
1004.18545	0.20718
1002.89968	0.20163
1001.61392	0.19592
1000.32815	0.19004
999.04238	0.18400
997.75661	0.17785
996.47084	0.17166
995.18507	0.16552
993.89930	0.15950
992.61353	0.15366
991.32777	0.14799
990.04200	0.14253
988.75623	0.13731
987.47046	0.13234
986.18469	0.12760
984.89892	0.12308
983.61315	0.11877
982.32738	0.11467
981.04161	0.11080
979.75585	0.10721
978.47008	0.10395
977.18431	0.10100
975.89854	0.09834
974.61277	0.09593
973.32700	0.09383
972.04123	0.09210
970.75546	0.09084
969.46970	0.09011
968.18393	0.08997
966.89816	0.09036
965.61239	0.09115
964.32662	0.09215
963.04085	0.09314
961.75508	0.09391
960.46931	0.09422
959.18354	0.09394
957.89778	0.09303
956.61201	0.09158
955.32624	0.08978
954.04047	0.08779
952.75470	0.08571
951.46893	0.08362
950.18316	0.08157
948.89739	0.07958
947.61163	0.07766
946.32586	0.07577
945.04009	0.07388
943.75432	0.07203
942.46855	0.07027
941.18278	0.06860
939.89701	0.06700
938.61124	0.06549
937.32547	0.06410
936.03971	0.06283
934.75394	0.06164
933.46817	0.06045
932.18240	0.05924
930.89663	0.05807
929.61086	0.05697
928.32509	0.05594
927.03932	0.05499
925.75356	0.05416
924.46779	0.05349
923.18202	0.05296
921.89625	0.05245
920.61048	0.05189
919.32471	0.05126
918.03894	0.05063
916.75317	0.05004
915.46740	0.04948
914.18164	0.04891
912.89587	0.04834
911.61010	0.04782
910.32433	0.04735
909.03856	0.04694
907.75279	0.04653
906.46702	0.04612
905.18125	0.04569
903.89549	0.04524
902.60972	0.04477
901.32395	0.04427
900.03818	0.04377
898.75241	0.04326
897.46664	0.04274
896.18087	0.04224
894.89510	0.04183
893.60933	0.04160
892.32357	0.04155
891.03780	0.04165
889.75203	0.04189
888.46626	0.04233
887.18049	0.04310
885.89472	0.04443
884.60895	0.04649
883.32318	0.04934
882.03742	0.05274
880.75165	0.05623
879.46588	0.05933
878.18011	0.06183
876.89434	0.06386
875.60857	0.06568
874.32280	0.06741
873.03703	0.06882
871.75126	0.06951
870.46550	0.06920
869.17973	0.06785
867.89396	0.06566
866.60819	0.06295
865.32242	0.06006
864.03665	0.05723
862.75088	0.05460
861.46511	0.05224
860.17935	0.05021
858.89358	0.04853
857.60781	0.04714
856.32204	0.04599
855.03627	0.04505
853.75050	0.04428
852.46473	0.04363
851.17896	0.04303
849.89319	0.04248
848.60743	0.04199
847.32166	0.04157
846.03589	0.04119
844.75012	0.04085
843.46435	0.04054
842.17858	0.04024
840.89281	0.03992
839.60704	0.03957
838.32128	0.03922
837.03551	0.03887
835.74974	0.03851
834.46397	0.03815
833.17820	0.03780
831.89243	0.03750
830.60666	0.03724
829.32089	0.03704
828.03512	0.03690
826.74936	0.03677
825.46359	0.03659
824.17782	0.03634
822.89205	0.03607
821.60628	0.03584
820.32051	0.03571
819.03474	0.03567
817.74897	0.03571
816.46321	0.03579
815.17744	0.03587
813.89167	0.03590
812.60590	0.03582
811.32013	0.03562
810.03436	0.03537
808.74859	0.03518
807.46282	0.03508
806.17705	0.03502
804.89129	0.03496
803.60552	0.03487
802.31975	0.03478
801.03398	0.03464
799.74821	0.03445
798.46244	0.03424
797.17667	0.03412
795.89090	0.03413
794.60513	0.03421
793.31937	0.03428
792.03360	0.03429
790.74783	0.03423
789.46206	0.03414
788.17629	0.03409
786.89052	0.03408
785.60475	0.03408
784.31898	0.03402
783.03322	0.03388
781.74745	0.03378
780.46168	0.03378
779.17591	0.03385
777.89014	0.03387
776.60437	0.03379
775.31860	0.03363
774.03283	0.03345
772.74706	0.03332
771.46130	0.03329
770.17553	0.03340
768.88976	0.03356
767.60399	0.03360
766.31822	0.03347
765.03245	0.03324
763.74668	0.03308
762.46091	0.03307
761.17515	0.03319
759.88938	0.03338
758.60361	0.03357
757.31784	0.03368
756.03207	0.03369
754.74630	0.03364
753.46053	0.03362
752.17476	0.03368
750.88899	0.03380
749.60323	0.03391
748.31746	0.03392
747.03169	0.03385
745.74592	0.03368
744.46015	0.03342
743.17438	0.03310
741.88861	0.03283
740.60284	0.03271
739.31708	0.03270
738.03131	0.03273
736.74554	0.03277
735.45977	0.03282
734.17400	0.03286
732.88823	0.03282
731.60246	0.03272
730.31669	0.03266
729.03092	0.03270
727.74516	0.03282
726.45939	0.03299
725.17362	0.03316
723.88785	0.03326
722.60208	0.03346
721.31631	0.03355
720.03054	0.03355
718.74477	0.03357
717.45901	0.03359
716.17324	0.03364
714.88747	0.03373
713.60170	0.03378
712.31593	0.03373
711.03016	0.03356
709.74439	0.03335
708.45862	0.03316
707.17285	0.03305
705.88709	0.03301
704.60132	0.03299
703.31555	0.03294
702.02978	0.03286
700.74401	0.03275
699.45824	0.03261
698.17247	0.03249
696.88670	0.03240
695.60094	0.03236
694.31517	0.03236
693.02940	0.03238
691.74363	0.03242
690.45786	0.03249
689.17209	0.03254
687.88632	0.03256
686.60055	0.03254
685.31478	0.03249
684.02902	0.03240
682.74325	0.03229
681.45748	0.03216
680.17171	0.03203
678.88594	0.03189
677.60017	0.03173
676.31440	0.03159
675.02863	0.03152
673.74287	0.03157
672.45710	0.03188
671.17133	0.03262
669.88556	0.03329
668.59979	0.03262
667.31402	0.03266
666.02825	0.03373
664.74248	0.03305
663.45671	0.03215
662.17095	0.03170
660.88518	0.03147
659.59941	0.03133
658.31364	0.03122
657.02787	0.03111
655.74210	0.03101
654.45633	0.03094
653.17056	0.03090
651.88480	0.03091
650.59903	0.03094
649.31326	0.03096
648.02749	0.03098
646.74172	0.03097
645.45595	0.03095
644.17018	0.03098
642.88441	0.03106
641.59864	0.03115
640.31288	0.03122
639.02711	0.03126
637.74134	0.03131
636.45557	0.03139
635.16980	0.03151
633.88403	0.03161
632.59826	0.03166
631.31249	0.03199
630.02673	0.03314
628.74096	0.03385
627.45519	0.03248
626.16942	0.03312
624.88365	0.03531
623.59788	0.03792
622.31211	0.04088
621.02634	0.04414
619.74057	0.04724
618.45481	0.04991
617.16904	0.05231
615.88327	0.05456
614.59750	0.05654
613.31173	0.05854
612.02596	0.06165
610.74019	0.06687
609.45442	0.07373
608.16866	0.08037
606.88289	0.08557
605.59712	0.08961
604.31135	0.09305
603.02558	0.09559
601.73981	0.09646
600.45404	0.09541
599.16827	0.09292
597.88250	0.08973
596.59674	0.08642
595.31097	0.08327
594.02520	0.08041
592.73943	0.07792
591.45366	0.07598
590.16789	0.07476
588.88212	0.07434
587.59635	0.07462
586.31059	0.07544
585.02482	0.07664
583.73905	0.07811
582.45328	0.07980
581.16751	0.08176
579.88174	0.08402
578.59597	0.08653
577.31020	0.08918
576.02443	0.09182
574.73867	0.09432
573.45290	0.09662
572.16713	0.09882
570.88136	0.10118
569.59559	0.10401
568.30982	0.10749
567.02405	0.11146
565.73828	0.11548
564.45251	0.11894
563.16675	0.12129
561.88098	0.12221
560.59521	0.12165
559.30944	0.11966
558.02367	0.11634
556.73790	0.11183
555.45213	0.10639
554.16636	0.10044
552.88060	0.09448
551.59483	0.08893
550.30906	0.08400
549.02329	0.07968
547.73752	0.07584
546.45175	0.07237
545.16598	0.06929
543.88021	0.06661
542.59444	0.06427
541.30868	0.06214
540.02291	0.06009
538.73714	0.05808
537.45137	0.05618
536.16560	0.05445
534.87983	0.05298
533.59406	0.05180
532.30829	0.05085
531.02253	0.04997
529.73676	0.04899
528.45099	0.04783
527.16522	0.04654
525.87945	0.04533
524.59368	0.04439
523.30791	0.04374
522.02214	0.04320
520.73637	0.04254
519.45061	0.04171
518.16484	0.04082
516.87907	0.04002
515.59330	0.03938
514.30753	0.03886
513.02176	0.03837
511.73599	0.03780
510.45022	0.03712
509.16446	0.03638
507.87869	0.03572
506.59292	0.03523
505.30715	0.03492
504.02138	0.03466
502.73561	0.03438
501.44984	0.03405
500.16407	0.03368
498.87830	0.03328
497.59254	0.03285
496.30677	0.03242
495.02100	0.03199
493.73523	0.03156
492.44946	0.03113
491.16369	0.03076
489.87792	0.03052
488.59215	0.03044
487.30639	0.03046
486.02062	0.03048
484.73485	0.03041
483.44908	0.03025
482.16331	0.03008
480.87754	0.03000
479.59177	0.03004
478.30600	0.03016
477.02023	0.03033
475.73447	0.03052
474.44870	0.03070
473.16293	0.03083
471.87716	0.03089
470.59139	0.03088
469.30562	0.03080
468.01985	0.03067
466.73408	0.03044
465.44832	0.03007
464.16255	0.02959
462.87678	0.02908
461.59101	0.02861
460.30524	0.02824
459.01947	0.02793
457.73370	0.02768
456.44793	0.02744
455.16216	0.02720
453.87640	0.02692
452.59063	0.02657
451.30486	0.02616
450.01909	0.02574
448.73332	0.02541
447.44755	0.02518
446.16178	0.02501
444.87601	0.02481
443.59025	0.02454
442.30448	0.02425
441.01871	0.02399
439.73294	0.02380
438.44717	0.02365
437.16140	0.02354
435.87563	0.02347
434.58986	0.02343
433.30409	0.02336
432.01833	0.02321
430.73256	0.02300
429.44679	0.02274
428.16102	0.02251
426.87525	0.02234
425.58948	0.02225
424.30371	0.02218
423.01794	0.02209
421.73218	0.02194
420.44641	0.02174
419.16064	0.02152
417.87487	0.02133
416.58910	0.02114
415.30333	0.02097
414.01756	0.02081
412.73179	0.02067
411.44602	0.02055
410.16026	0.02044
408.87449	0.02037
407.58872	0.02038
406.30295	0.02043
405.01718	0.02048
403.73141	0.02050
402.44564	0.02049
401.15987	0.02052
399.87411	0.02061
