3997.45528 0.05784
3996.16951 0.05714
3994.88374 0.05717
3993.59798 0.05741
3992.31221 0.05725
3991.02644 0.05665
3989.74067 0.05612
3988.45490 0.05632
3987.16913 0.05737
3985.88336 0.05860
3984.59759 0.05908
3983.31183 0.05853
3982.02606 0.05755
3980.74029 0.05694
3979.45452 0.05688
3978.16875 0.05692
3976.88298 0.05660
3975.59721 0.05580
3974.31144 0.05479
3973.02567 0.05393
3971.73991 0.05351
3970.45414 0.05356
3969.16837 0.05371
3967.88260 0.05356
3966.59683 0.05310
3965.31106 0.05287
3964.02529 0.05334
3962.73952 0.05433
3961.45376 0.05517
3960.16799 0.05552
3958.88222 0.05561
3957.59645 0.05577
3956.31068 0.05581
3955.02491 0.05528
3953.73914 0.05411
3952.45337 0.05288
3951.16760 0.05226
3949.88184 0.05255
3948.59607 0.05361
3947.31030 0.05500
3946.02453 0.05617
3944.73876 0.05665
3943.45299 0.05629
3942.16722 0.05535
3940.88145 0.05428
3939.59569 0.05347
3938.30992 0.05315
3937.02415 0.05326
3935.73838 0.05346
3934.45261 0.05334
3933.16684 0.05283
3931.88107 0.05226
3930.59530 0.05208
3929.30953 0.05248
3928.02377 0.05340
3926.73800 0.05450
3925.45223 0.05537
3924.16646 0.05573
3922.88069 0.05560
3921.59492 0.05548
3920.30915 0.05604
3919.02338 0.05737
3917.73762 0.05877
3916.45185 0.05936
3915.16608 0.05894
3913.88031 0.05804
3912.59454 0.05741
3911.30877 0.05742
3910.02300 0.05793
3908.73723 0.05850
3907.45146 0.05877
3906.16570 0.05877
3904.87993 0.05879
3903.59416 0.05876
3902.30839 0.05807
3901.02262 0.05625
3899.73685 0.05395
3898.45108 0.05243
3897.16531 0.05235
3895.87955 0.05315
3894.59378 0.05377
3893.30801 0.05364
3892.02224 0.05292
3890.73647 0.05220
3889.45070 0.05188
3888.16493 0.05198
3886.87916 0.05234
3885.59339 0.05274
3884.30763 0.05289
3883.02186 0.05266
3881.73609 0.05232
3880.45032 0.05243
3879.16455 0.05328
3877.87878 0.05463
3876.59301 0.05587
3875.30724 0.05641
3874.02148 0.05588
3872.73571 0.05427
3871.44994 0.05219
3870.16417 0.05077
3868.87840 0.05078
3867.59263 0.05189
3866.30686 0.05312
3865.02109 0.05375
3863.73532 0.05359
3862.44956 0.05281
3861.16379 0.05182
3859.87802 0.05113
3858.59225 0.05102
3857.30648 0.05144
3856.02071 0.05196
3854.73494 0.05224
3853.44917 0.05230
3852.16341 0.05234
3850.87764 0.05240
3849.59187 0.05232
3848.30610 0.05201
3847.02033 0.05156
3845.73456 0.05119
3844.44879 0.05100
3843.16302 0.05093
3841.87725 0.05088
3840.59149 0.05078
3839.30572 0.05064
3838.01995 0.05062
3836.73418 0.05088
3835.44841 0.05130
3834.16264 0.05152
3832.87687 0.05135
3831.59110 0.05085
3830.30534 0.05021
3829.01957 0.04961
3827.73380 0.04928
3826.44803 0.04954
3825.16226 0.05060
3823.87649 0.05215
3822.59072 0.05355
3821.30495 0.05431
3820.01918 0.05441
3818.73342 0.05409
3817.44765 0.05369
3816.16188 0.05349
3814.87611 0.05345
3813.59034 0.05334
3812.30457 0.05316
3811.01880 0.05311
3809.73303 0.05305
3808.44726 0.05255
3807.16150 0.05150
3805.87573 0.05031
3804.58996 0.04946
3803.30419 0.04915
3802.01842 0.04939
3800.73265 0.04992
3799.44688 0.05016
3798.16111 0.04979
3796.87535 0.04918
3795.58958 0.04893
3794.30381 0.04917
3793.01804 0.04965
3791.73227 0.05016
3790.44650 0.05069
3789.16073 0.05134
3787.87496 0.05210
3786.58919 0.05280
3785.30343 0.05311
3784.01766 0.05280
3782.73189 0.05191
3781.44612 0.05076
3780.16035 0.04971
3778.87458 0.04894
3777.58881 0.04841
3776.30304 0.04808
3775.01728 0.04812
3773.73151 0.04876
3772.44574 0.04987
3771.15997 0.05089
3769.87420 0.05120
3768.58843 0.05059
3767.30266 0.04951
3766.01689 0.04882
3764.73112 0.04916
3763.44536 0.05022
3762.15959 0.05093
3760.87382 0.05038
3759.58805 0.04869
3758.30228 0.04680
3757.01651 0.04571
3755.73074 0.04578
3754.44497 0.04666
3753.15921 0.04765
3751.87344 0.04804
3750.58767 0.04760
3749.30190 0.04687
3748.01613 0.04666
3746.73036 0.04707
3745.44459 0.04772
3744.15882 0.04848
3742.87305 0.04932
3741.58729 0.05000
3740.30152 0.05047
3739.01575 0.05088
3737.72998 0.05128
3736.44421 0.05154
3735.15844 0.05138
3733.87267 0.05055
3732.58690 0.04925
3731.30114 0.04826
3730.01537 0.04818
3728.72960 0.04887
3727.44383 0.04974
3726.15806 0.05019
3724.87229 0.04978
3723.58652 0.04845
3722.30075 0.04675
3721.01498 0.04559
3719.72922 0.04564
3718.44345 0.04677
3717.15768 0.04825
3715.87191 0.04919
3714.58614 0.04908
3713.30037 0.04808
3712.01460 0.04692
3710.72883 0.04649
3709.44307 0.04716
3708.15730 0.04857
3706.87153 0.04987
3705.58576 0.05040
3704.29999 0.05017
3703.01422 0.04969
3701.72845 0.04933
3700.44268 0.04889
3699.15691 0.04786
3697.87115 0.04629
3696.58538 0.04488
3695.29961 0.04442
3694.01384 0.04511
3692.72807 0.04648
3691.44230 0.04751
3690.15653 0.04733
3688.87076 0.04615
3687.58500 0.04501
3686.29923 0.04473
3685.01346 0.04524
3683.72769 0.04594
3682.44192 0.04637
3681.15615 0.04656
3679.87038 0.04677
3678.58461 0.04698
3677.29884 0.04693
3676.01308 0.04656
3674.72731 0.04611
3673.44154 0.04586
3672.15577 0.04598
3670.87000 0.04671
3669.58423 0.04800
3668.29846 0.04925
3667.01269 0.04993
3665.72693 0.05005
3664.44116 0.04991
3663.15539 0.04967
3661.86962 0.04944
3660.58385 0.04929
3659.29808 0.04915
3658.01231 0.04888
3656.72654 0.04866
3655.44077 0.04892
3654.15501 0.04973
3652.86924 0.05058
3651.58347 0.05082
3650.29770 0.05029
3649.01193 0.04942
3647.72616 0.04877
3646.44039 0.04860
3645.15462 0.04862
3643.86886 0.04836
3642.58309 0.04769
3641.29732 0.04693
3640.01155 0.04659
3638.72578 0.04694
3637.44001 0.04776
3636.15424 0.04850
3634.86847 0.04872
3633.58270 0.04849
3632.29694 0.04814
3631.01117 0.04781
3629.72540 0.04751
3628.43963 0.04722
3627.15386 0.04679
3625.86809 0.04607
3624.58232 0.04528
3623.29655 0.04491
3622.01079 0.04527
3620.72502 0.04627
3619.43925 0.04764
3618.15348 0.04907
3616.86771 0.05035
3615.58194 0.05134
3614.29617 0.05202
3613.01040 0.05236
3611.72463 0.05240
3610.43887 0.05223
3609.15310 0.05214
3607.86733 0.05230
3606.58156 0.05255
3605.29579 0.05250
3604.01002 0.05195
3602.72425 0.05117
3601.43848 0.05071
3600.15272 0.05105
3598.86695 0.05224
3597.58118 0.05390
3596.29541 0.05533
3595.00964 0.05581
3593.72387 0.05511
3592.43810 0.05392
3591.15233 0.05324
3589.86656 0.05356
3588.58080 0.05459
3587.29503 0.05560
3586.00926 0.05594
3584.72349 0.05529
3583.43772 0.05389
3582.15195 0.05247
3580.86618 0.05181
3579.58041 0.05234
3578.29464 0.05381
3577.00888 0.05549
3575.72311 0.05679
3574.43734 0.05760
3573.15157 0.05814
3571.86580 0.05844
3570.58003 0.05821
3569.29426 0.05729
3568.00849 0.05607
3566.72273 0.05521
3565.43696 0.05504
3564.15119 0.05531
3562.86542 0.05558
3561.57965 0.05564
3560.29388 0.05561
3559.00811 0.05580
3557.72234 0.05637
3556.43657 0.05725
3555.15081 0.05809
3553.86504 0.05859
3552.57927 0.05868
3551.29350 0.05864
3550.00773 0.05882
3548.72196 0.05926
3547.43619 0.05967
3546.15042 0.05982
3544.86466 0.05987
3543.57889 0.06007
3542.29312 0.06037
3541.00735 0.06044
3539.72158 0.06011
3538.43581 0.05957
3537.15004 0.05911
3535.86427 0.05889
3534.57850 0.05894
3533.29274 0.05927
3532.00697 0.05984
3530.72120 0.06054
3529.43543 0.06124
3528.14966 0.06184
3526.86389 0.06231
3525.57812 0.06266
3524.29235 0.06297
3523.00659 0.06320
3521.72082 0.06315
3520.43505 0.06266
3519.14928 0.06189
3517.86351 0.06131
3516.57774 0.06130
3515.29197 0.06179
3514.00620 0.06243
3512.72043 0.06286
3511.43467 0.06295
3510.14890 0.06275
3508.86313 0.06238
3507.57736 0.06202
3506.29159 0.06187
3505.00582 0.06200
3503.72005 0.06229
3502.43428 0.06250
3501.14852 0.06260
3499.86275 0.06277
3498.57698 0.06318
3497.29121 0.06367
3496.00544 0.06389
3494.71967 0.06370
3493.43390 0.06332
3492.14813 0.06307
3490.86236 0.06309
3489.57660 0.06336
3488.29083 0.06378
3487.00506 0.06427
3485.71929 0.06476
3484.43352 0.06532
3483.14775 0.06598
3481.86198 0.06668
3480.57621 0.06719
3479.29045 0.06729
3478.00468 0.06692
3476.71891 0.06626
3475.43314 0.06561
3474.14737 0.06527
3472.86160 0.06540
3471.57583 0.06591
3470.29006 0.06653
3469.00429 0.06700
3467.71853 0.06715
3466.43276 0.06698
3465.14699 0.06657
3463.86122 0.06616
3462.57545 0.06602
3461.28968 0.06619
3460.00391 0.06642
3458.71814 0.06636
3457.43238 0.06599
3456.14661 0.06558
3454.86084 0.06542
3453.57507 0.06555
3452.28930 0.06579
3451.00353 0.06600
3449.71776 0.06613
3448.43199 0.06615
3447.14622 0.06615
3445.86046 0.06629
3444.57469 0.06670
3443.28892 0.06736
3442.00315 0.06815
3440.71738 0.06890
3439.43161 0.06948
3438.14584 0.06971
3436.86007 0.06940
3435.57431 0.06853
3434.28854 0.06744
3433.00277 0.06675
3431.71700 0.06684
3430.43123 0.06760
3429.14546 0.06849
3427.85969 0.06906
3426.57392 0.06916
3425.28815 0.06891
3424.00239 0.06853
3422.71662 0.06829
3421.43085 0.06840
3420.14508 0.06886
3418.85931 0.06945
3417.57354 0.06989
3416.28777 0.07000
3415.00200 0.06987
3413.71624 0.06970
3412.43047 0.06969
3411.14470 0.06981
3409.85893 0.06999
3408.57316 0.07022
3407.28739 0.07053
3406.00162 0.07086
3404.71585 0.07105
3403.43008 0.07108
3402.14432 0.07113
3400.85855 0.07129
3399.57278 0.07108
3398.28701 0.07061
3397.00124 0.07068
3395.71547 0.07126
3394.42970 0.07200
3393.14393 0.07261
3391.85817 0.07299
3390.57240 0.07321
3389.28663 0.07338
3388.00086 0.07359
3386.71509 0.07387
3385.42932 0.07426
3384.14355 0.07473
3382.85778 0.07512
3381.57201 0.07523
3380.28625 0.07497
3379.00048 0.07449
3377.71471 0.07407
3376.42894 0.07397
3375.14317 0.07428
3373.85740 0.07485
3372.57163 0.07545
3371.28586 0.07586
3370.00010 0.07596
3368.71433 0.07566
3367.42856 0.07500
3366.14279 0.07425
3364.85702 0.07370
3363.57125 0.07353
3362.28548 0.07370
3360.99971 0.07414
3359.71394 0.07470
3358.42818 0.07515
3357.14241 0.07526
3355.85664 0.07499
3354.57087 0.07451
3353.28510 0.07405
3351.99933 0.07376
3350.71356 0.07368
3349.42779 0.07379
3348.14202 0.07402
3346.85626 0.07429
3345.57049 0.07462
3344.28472 0.07516
3342.99895 0.07600
3341.71318 0.07693
3340.42741 0.07755
3339.14164 0.07760
3337.85587 0.07717
3336.57011 0.07659
3335.28434 0.07616
3333.99857 0.07604
3332.71280 0.07623
3331.42703 0.07652
3330.14126 0.07664
3328.85549 0.07638
3327.56972 0.07584
3326.28395 0.07534
3324.99819 0.07518
3323.71242 0.07542
3322.42665 0.07593
3321.14088 0.07651
3319.85511 0.07700
3318.56934 0.07732
3317.28357 0.07753
3315.99780 0.07776
3314.71204 0.07816
3313.42627 0.07866
3312.14050 0.07899
3310.85473 0.07894
3309.56896 0.07857
3308.28319 0.07815
3306.99742 0.07783
3305.71165 0.07749
3304.42588 0.07701
3303.14012 0.07655
3301.85435 0.07652
3300.56858 0.07706
3299.28281 0.07786
3297.99704 0.07832
3296.71127 0.07805
3295.42550 0.07722
3294.13973 0.07639
3292.85397 0.07611
3291.56820 0.07646
3290.28243 0.07708
3288.99666 0.07753
3287.71089 0.07759
3286.42512 0.07735
3285.13935 0.07700
3283.85358 0.07680
3282.56781 0.07689
3281.28205 0.07721
3279.99628 0.07746
3278.71051 0.07732
3277.42474 0.07671
3276.13897 0.07591
3274.85320 0.07535
3273.56743 0.07526
3272.28166 0.07554
3270.99590 0.07585
3269.71013 0.07599
3268.42436 0.07616
3267.13859 0.07673
3265.85282 0.07775
3264.56705 0.07877
3263.28128 0.07918
3261.99551 0.07883
3260.70974 0.07805
3259.42398 0.07730
3258.13821 0.07671
3256.85244 0.07621
3255.56667 0.07579
3254.28090 0.07548
3252.99513 0.07530
3251.70936 0.07517
3250.42359 0.07507
3249.13783 0.07500
3247.85206 0.07489
3246.56629 0.07463
3245.28052 0.07426
3243.99475 0.07398
3242.70898 0.07401
3241.42321 0.07437
3240.13744 0.07487
3238.85167 0.07516
3237.56591 0.07494
3236.28014 0.07419
3234.99437 0.07318
3233.70860 0.07228
3232.42283 0.07177
3231.13706 0.07178
3229.85129 0.07229
3228.56552 0.07293
3227.27976 0.07318
3225.99399 0.07281
3224.70822 0.07212
3223.42245 0.07164
3222.13668 0.07168
3220.85091 0.07219
3219.56514 0.07283
3218.27937 0.07322
3216.99360 0.07316
3215.70784 0.07274
3214.42207 0.07233
3213.13630 0.07214
3211.85053 0.07210
3210.56476 0.07201
3209.27899 0.07184
3207.99322 0.07173
3206.70745 0.07179
3205.42169 0.07188
3204.13592 0.07185
3202.85015 0.07173
3201.56438 0.07172
3200.27861 0.07184
3198.99284 0.07183
3197.70707 0.07157
3196.42130 0.07126
3195.13553 0.07117
3193.84977 0.07129
3192.56400 0.07137
3191.27823 0.07130
3189.99246 0.07120
3188.70669 0.07117
3187.42092 0.07105
3186.13515 0.07073
3184.84938 0.07035
3183.56362 0.07027
3182.27785 0.07064
3180.99208 0.07126
3179.70631 0.07175
3178.42054 0.07180
3177.13477 0.07144
3175.84900 0.07090
3174.56323 0.07051
3173.27746 0.07036
3171.99170 0.07020
3170.70593 0.06968
3169.42016 0.06878
3168.13439 0.06792
3166.84862 0.06753
3165.56285 0.06764
3164.27708 0.06792
3162.99131 0.06807
3161.70555 0.06805
3160.41978 0.06796
3159.13401 0.06782
3157.84824 0.06764
3156.56247 0.06746
3155.27670 0.06733
3153.99093 0.06725
3152.70516 0.06718
3151.41939 0.06707
3150.13363 0.06685
3148.84786 0.06650
3147.56209 0.06619
3146.27632 0.06616
3144.99055 0.06654
3143.70478 0.06723
3142.41901 0.06791
3141.13324 0.06827
3139.84748 0.06817
3138.56171 0.06764
3137.27594 0.06687
3135.99017 0.06607
3134.70440 0.06545
3133.41863 0.06521
3132.13286 0.06547
3130.84709 0.06601
3129.56132 0.06639
3128.27556 0.06633
3126.98979 0.06595
3125.70402 0.06563
3124.41825 0.06560
3123.13248 0.06584
3121.84671 0.06617
3120.56094 0.06640
3119.27517 0.06641
3117.98940 0.06617
3116.70364 0.06573
3115.41787 0.06524
3114.13210 0.06489
3112.84633 0.06483
3111.56056 0.06503
3110.27479 0.06521
3108.98902 0.06508
3107.70325 0.06462
3106.41749 0.06409
3105.13172 0.06374
3103.84595 0.06372
3102.56018 0.06406
3101.27441 0.06465
3099.98864 0.06521
3098.70287 0.06539
3097.41710 0.06511
3096.13133 0.06466
3094.84557 0.06440
3093.55980 0.06447
3092.27403 0.06473
3090.98826 0.06492
3089.70249 0.06489
3088.41672 0.06468
3087.13095 0.06446
3085.84518 0.06440
3084.55942 0.06457
3083.27365 0.06483
3081.98788 0.06494
3080.70211 0.06478
3079.41634 0.06448
3078.13057 0.06429
3076.84480 0.06427
3075.55903 0.06427
3074.27326 0.06417
3072.98750 0.06405
3071.70173 0.06411
3070.41596 0.06438
3069.13019 0.06463
3067.84442 0.06456
3066.55865 0.06413
3065.27288 0.06362
3063.98711 0.06328
3062.70135 0.06313
3061.41558 0.06296
3060.12981 0.06268
3058.84404 0.06237
3057.55827 0.06216
3056.27250 0.06208
3054.98673 0.06203
3053.70096 0.06195
3052.41519 0.06187
3051.12943 0.06183
3049.84366 0.06180
3048.55789 0.06166
3047.27212 0.06138
3045.98635 0.06105
3044.70058 0.06083
3043.41481 0.06077
3042.12904 0.06081
3040.84328 0.06084
3039.55751 0.06085
3038.27174 0.06088
3036.98597 0.06101
3035.70020 0.06121
3034.41443 0.06138
3033.12866 0.06142
3031.84289 0.06134
3030.55712 0.06125
3029.27136 0.06121
3027.98559 0.06114
3026.69982 0.06087
3025.41405 0.06042
3024.12828 0.06002
3022.84251 0.05991
3021.55674 0.06002
3020.27097 0.06009
3018.98521 0.05993
3017.69944 0.05962
3016.41367 0.05933
3015.12790 0.05916
3013.84213 0.05906
3012.55636 0.05897
3011.27059 0.05884
3009.98482 0.05867
3008.69905 0.05853
3007.41329 0.05852
3006.12752 0.05867
3004.84175 0.05895
3003.55598 0.05932
3002.27021 0.05984
3000.98444 0.06026
2999.69867 0.05990
2998.41290 0.05965
2997.12714 0.05943
2995.84137 0.05938
2994.55560 0.05938
2993.26983 0.05924
2991.98406 0.05896
2990.69829 0.05875
2989.41252 0.05874
2988.12675 0.05884
2986.84098 0.05878
2985.55522 0.05853
2984.26945 0.05835
2982.98368 0.05853
2981.69791 0.05916
2980.41214 0.06004
2979.12637 0.06095
2977.84060 0.06172
2976.55483 0.06230
2975.26907 0.06268
2973.98330 0.06298
2972.69753 0.06341
2971.41176 0.06418
2970.12599 0.06532
2968.84022 0.06656
2967.55445 0.06759
2966.26868 0.06832
2964.98291 0.06899
2963.69715 0.06981
2962.41138 0.07075
2961.12561 0.07163
2959.83984 0.07240
2958.55407 0.07315
2957.26830 0.07391
2955.98253 0.07461
2954.69676 0.07513
2953.41100 0.07545
2952.12523 0.07569
2950.83946 0.07595
2949.55369 0.07619
2948.26792 0.07621
2946.98215 0.07590
2945.69638 0.07527
2944.41061 0.07457
2943.12484 0.07409
2941.83908 0.07410
2940.55331 0.07464
2939.26754 0.07554
2937.98177 0.07650
2936.69600 0.07724
2935.41023 0.07775
2934.12446 0.07834
2932.83869 0.07927
2931.55293 0.08040
2930.26716 0.08134
2928.98139 0.08188
2927.69562 0.08222
2926.40985 0.08257
2925.12408 0.08282
2923.83831 0.08277
2922.55254 0.08249
2921.26677 0.08235
2919.98101 0.08251
2918.69524 0.08267
2917.40947 0.08243
2916.12370 0.08169
2914.83793 0.08063
2913.55216 0.07953
2912.26639 0.07859
2910.98062 0.07793
2909.69486 0.07751
2908.40909 0.07710
2907.12332 0.07651
2905.83755 0.07580
2904.55178 0.07519
2903.26601 0.07483
2901.98024 0.07466
2900.69447 0.07450
2899.40870 0.07418
2898.12294 0.07358
2896.83717 0.07275
2895.55140 0.07189
2894.26563 0.07117
2892.97986 0.07068
2891.69409 0.07027
2890.40832 0.06980
2889.12255 0.06923
2887.83678 0.06860
2886.55102 0.06795
2885.26525 0.06735
2883.97948 0.06693
2882.69371 0.06686
2881.40794 0.06713
2880.12217 0.06748
2878.83640 0.06766
2877.55063 0.06769
2876.26487 0.06780
2874.97910 0.06814
2873.69333 0.06859
2872.40756 0.06902
2871.12179 0.06936
2869.83602 0.06961
2868.55025 0.06972
2867.26448 0.06960
2865.97871 0.06924
2864.69295 0.06880
2863.40718 0.06846
2862.12141 0.06828
2860.83564 0.06824
2859.54987 0.06821
2858.26410 0.06815
2856.97833 0.06808
2855.69256 0.06810
2854.40680 0.06828
2853.12103 0.06857
2851.83526 0.06875
2850.54949 0.06858
2849.26372 0.06798
2847.97795 0.06706
2846.69218 0.06611
2845.40641 0.06533
2844.12064 0.06474
2842.83488 0.06413
2841.54911 0.06327
2840.26334 0.06218
2838.97757 0.06103
2837.69180 0.06004
2836.40603 0.05928
2835.12026 0.05872
2833.83449 0.05830
2832.54873 0.05796
2831.26296 0.05762
2829.97719 0.05720
2828.69142 0.05667
2827.40565 0.05614
2826.11988 0.05573
2824.83411 0.05548
2823.54834 0.05530
2822.26257 0.05509
2820.97681 0.05482
2819.69104 0.05449
2818.40527 0.05413
2817.11950 0.05384
2815.83373 0.05364
2814.54796 0.05353
2813.26219 0.05344
2811.97642 0.05336
2810.69066 0.05326
2809.40489 0.05309
2808.11912 0.05286
2806.83335 0.05262
2805.54758 0.05243
2804.26181 0.05229
2802.97604 0.05216
2801.69027 0.05208
2800.40450 0.05203
2799.11874 0.05198
2797.83297 0.05188
2796.54720 0.05173
2795.26143 0.05153
2793.97566 0.05130
2792.68989 0.05107
2791.40412 0.05089
2790.11835 0.05085
2788.83259 0.05092
2787.54682 0.05094
2786.26105 0.05073
2784.97528 0.05032
2783.68951 0.04995
2782.40374 0.04979
2781.11797 0.04988
2779.83220 0.05014
2778.54643 0.05047
2777.26067 0.05073
2775.97490 0.05077
2774.68913 0.05053
2773.40336 0.05009
2772.11759 0.04965
2770.83182 0.04946
2769.54605 0.04961
2768.26028 0.04999
2766.97452 0.05028
2765.68875 0.05028
2764.40298 0.05003
2763.11721 0.04969
2761.83144 0.04933
2760.54567 0.04900
2759.25990 0.04873
2757.97413 0.04858
2756.68836 0.04850
2755.40260 0.04843
2754.11683 0.04834
2752.83106 0.04818
2751.54529 0.04796
2750.25952 0.04776
2748.97375 0.04766
2747.68798 0.04765
2746.40221 0.04763
2745.11645 0.04753
2743.83068 0.04740
2742.54491 0.04733
2741.25914 0.04738
2739.97337 0.04755
2738.68760 0.04776
2737.40183 0.04797
2736.11606 0.04807
2734.83029 0.04801
2733.54453 0.04780
2732.25876 0.04757
2730.97299 0.04737
2729.68722 0.04718
2728.40145 0.04695
2727.11568 0.04668
2725.82991 0.04642
2724.54414 0.04622
2723.25838 0.04608
2721.97261 0.04600
2720.68684 0.04597
2719.40107 0.04599
2718.11530 0.04603
2716.82953 0.04598
2715.54376 0.04581
2714.25799 0.04559
2712.97222 0.04545
2711.68646 0.04549
2710.40069 0.04561
2709.11492 0.04570
2707.82915 0.04569
2706.54338 0.04562
2705.25761 0.04554
2703.97184 0.04548
2702.68607 0.04549
2701.40031 0.04552
2700.11454 0.04549
2698.82877 0.04528
2697.54300 0.04495
2696.25723 0.04466
2694.97146 0.04458
2693.68569 0.04473
2692.39992 0.04490
2691.11415 0.04493
2689.82839 0.04480
2688.54262 0.04467
2687.25685 0.04459
2685.97108 0.04449
2684.68531 0.04429
2683.39954 0.04408
2682.11377 0.04395
2680.82800 0.04392
2679.54224 0.04387
2678.25647 0.04379
2676.97070 0.04371
2675.68493 0.04366
2674.39916 0.04362
2673.11339 0.04359
2671.82762 0.04357
2670.54185 0.04359
2669.25608 0.04362
2667.97032 0.04362
2666.68455 0.04357
2665.39878 0.04348
2664.11301 0.04344
2662.82724 0.04351
2661.54147 0.04370
2660.25570 0.04390
2658.96993 0.04402
2657.68417 0.04401
2656.39840 0.04391
2655.11263 0.04377
2653.82686 0.04365
2652.54109 0.04360
2651.25532 0.04355
2649.96955 0.04345
2648.68378 0.04327
2647.39801 0.04306
2646.11225 0.04288
2644.82648 0.04275
2643.54071 0.04270
2642.25494 0.04262
2640.96917 0.04243
2639.68340 0.04213
2638.39763 0.04188
2637.11186 0.04176
2635.82609 0.04168
2634.54033 0.04151
2633.25456 0.04130
2631.96879 0.04124
2630.68302 0.04142
2629.39725 0.04176
2628.11148 0.04210
2626.82571 0.04222
2625.53994 0.04206
2624.25418 0.04168
2622.96841 0.04127
2621.68264 0.04096
2620.39687 0.04073
2619.11110 0.04049
2617.82533 0.04020
2616.53956 0.03999
2615.25379 0.04000
2613.96802 0.04025
2612.68226 0.04053
2611.39649 0.04058
2610.11072 0.04028
2608.82495 0.03973
2607.53918 0.03915
2606.25341 0.03874
2604.96764 0.03852
2603.68187 0.03842
2602.39611 0.03831
2601.11034 0.03815
2599.82457 0.03799
2598.53880 0.03780
2597.25303 0.03748
2595.96726 0.03702
2594.68149 0.03666
2593.39572 0.03662
2592.10995 0.03685
2590.82419 0.03705
2589.53842 0.03709
2588.25265 0.03706
2586.96688 0.03708
2585.68111 0.03714
2584.39534 0.03716
2583.10957 0.03710
2581.82380 0.03695
2580.53804 0.03668
2579.25227 0.03635
2577.96650 0.03619
2576.68073 0.03630
2575.39496 0.03661
2574.10919 0.03685
2572.82342 0.03678
2571.53765 0.03646
2570.25188 0.03618
2568.96612 0.03627
2567.68035 0.03676
2566.39458 0.03729
2565.10881 0.03736
2563.82304 0.03679
2562.53727 0.03586
2561.25150 0.03513
2559.96573 0.03495
2558.67997 0.03522
2557.39420 0.03550
2556.10843 0.03545
2554.82266 0.03511
2553.53689 0.03478
2552.25112 0.03470
2550.96535 0.03492
2549.67958 0.03525
2548.39381 0.03543
2547.10805 0.03536
2545.82228 0.03515
2544.53651 0.03498
2543.25074 0.03482
2541.96497 0.03458
2540.67920 0.03429
2539.39343 0.03410
2538.10766 0.03409
2536.82190 0.03418
2535.53613 0.03423
2534.25036 0.03423
2532.96459 0.03430
2531.67882 0.03452
2530.39305 0.03478
2529.10728 0.03484
2527.82151 0.03460
2526.53574 0.03429
2525.24998 0.03428
2523.96421 0.03467
2522.67844 0.03525
2521.39267 0.03568
2520.10690 0.03575
2518.82113 0.03544
2517.53536 0.03488
2516.24959 0.03426
2514.96383 0.03376
2513.67806 0.03355
2512.39229 0.03367
2511.10652 0.03402
2509.82075 0.03432
2508.53498 0.03432
2507.24921 0.03394
2505.96344 0.03336
2504.67767 0.03281
2503.39191 0.03244
2502.10614 0.03224
2500.82037 0.03220
2499.53460 0.03240
2498.24883 0.03283
2496.96306 0.03336
2495.67729 0.03381
2494.39152 0.03412
2493.10576 0.03430
2491.81999 0.03435
2490.53422 0.03413
2489.24845 0.03355
2487.96268 0.03275
2486.67691 0.03206
2485.39114 0.03188
2484.10537 0.03228
2482.81960 0.03299
2481.53384 0.03357
2480.24807 0.03372
2478.96230 0.03343
2477.67653 0.03293
2476.39076 0.03260
2475.10499 0.03267
2473.81922 0.03304
2472.53345 0.03332
2471.24769 0.03323
2469.96192 0.03281
2468.67615 0.03239
2467.39038 0.03225
2466.10461 0.03243
2464.81884 0.03271
2463.53307 0.03291
2462.24730 0.03302
2460.96153 0.03318
2459.67577 0.03353
2458.39000 0.03395
2457.10423 0.03418
2455.81846 0.03398
2454.53269 0.03342
2453.24692 0.03282
2451.96115 0.03249
2450.67538 0.03254
2449.38962 0.03284
2448.10385 0.03321
2446.81808 0.03351
2445.53231 0.03368
2444.24654 0.03363
2442.96077 0.03329
2441.67500 0.03277
2440.38923 0.03231
2439.10346 0.03219
2437.81770 0.03245
2436.53193 0.03278
2435.24616 0.03281
2433.96039 0.03243
2432.67462 0.03186
2431.38885 0.03147
2430.10308 0.03143
2428.81731 0.03166
2427.53155 0.03188
2426.24578 0.03177
2424.96001 0.03121
2423.67424 0.03041
2422.38847 0.02974
2421.10270 0.02946
2419.81693 0.02955
2418.53116 0.02982
2417.24539 0.03010
2415.95963 0.03035
2414.67386 0.03062
2413.38809 0.03091
2412.10232 0.03115
2410.81655 0.03127
2409.53078 0.03126
2408.24501 0.03113
2406.95924 0.03088
2405.67347 0.03058
2404.38771 0.03033
2403.10194 0.03020
2401.81617 0.03020
2400.53040 0.03031
2399.24463 0.03134
2397.95886 0.03086
2396.67309 0.03052
2395.38732 0.03070
2394.10156 0.03104
2392.81579 0.03130
2391.53002 0.03133
2390.24425 0.03113
2388.95848 0.03081
2387.67271 0.03057
2386.38694 0.03048
2385.10117 0.03045
2383.81540 0.03038
2382.52964 0.03023
2381.24387 0.03006
2379.95810 0.02997
2378.67233 0.03001
2377.38656 0.03013
2376.10079 0.03024
2374.81502 0.03031
2373.52925 0.03048
2372.24349 0.03079
2370.95772 0.03112
2369.67195 0.03126
2368.38618 0.03124
2367.10041 0.03119
2365.81464 0.03109
2364.52887 0.03092
2363.24310 0.03075
2361.95733 0.03074
2360.67157 0.03105
2359.38580 0.03138
2358.10003 0.03145
2356.81426 0.03127
2355.52849 0.03104
2354.24272 0.03094
2352.95695 0.03109
2351.67118 0.03158
2350.38542 0.03207
2349.09965 0.03217
2347.81388 0.03198
2346.52811 0.03200
2345.24234 0.03210
2343.95657 0.03177
2342.67080 0.03129
2341.38503 0.03171
2340.09926 0.03278
2338.81350 0.03280
2337.52773 0.03174
2336.24196 0.03151
2334.95619 0.03198
2333.67042 0.03152
2332.38465 0.03064
2331.09888 0.03112
2329.81311 0.03170
2328.52735 0.03145
2327.24158 0.03220
2325.95581 0.03352
2324.67004 0.03387
2323.38427 0.03391
2322.09850 0.03404
2320.81273 0.03346
2319.52696 0.03310
2318.24119 0.03307
2316.95543 0.03270
2315.66966 0.03239
2314.38389 0.03201
2313.09812 0.03139
2311.81235 0.03102
2310.52658 0.03069
2309.24081 0.03039
2307.95504 0.03020
2306.66928 0.02991
2305.38351 0.02966
2304.09774 0.02946
2302.81197 0.02934
2301.52620 0.02938
2300.24043 0.02941
2298.95466 0.02937
2297.66889 0.02924
2296.38312 0.02920
2295.09736 0.02943
2293.81159 0.02986
2292.52582 0.03032
2291.24005 0.03059
2289.95428 0.03067
2288.66851 0.03058
2287.38274 0.03026
2286.09697 0.02957
2284.81121 0.02861
2283.52544 0.02775
2282.23967 0.02742
2280.95390 0.02767
2279.66813 0.02809
2278.38236 0.02812
2277.09659 0.02761
2275.81082 0.02688
2274.52505 0.02640
2273.23929 0.02635
2271.95352 0.02646
2270.66775 0.02633
2269.38198 0.02583
2268.09621 0.02527
2266.81044 0.02504
2265.52467 0.02524
2264.23890 0.02549
2262.95314 0.02540
2261.66737 0.02481
2260.38160 0.02387
2259.09583 0.02289
2257.81006 0.02214
2256.52429 0.02181
2255.23852 0.02200
2253.95275 0.02271
2252.66698 0.02365
2251.38122 0.02416
2250.09545 0.02422
2248.80968 0.02504
2247.52391 0.02436
2246.23814 0.02333
2244.95237 0.02244
2243.66660 0.02200
2242.38083 0.02205
2241.09507 0.02232
2239.80930 0.02257
2238.52353 0.02277
2237.23776 0.02313
2235.95199 0.02374
2234.66622 0.02436
2233.38045 0.02456
2232.09468 0.02411
2230.80891 0.02323
2229.52315 0.02227
2228.23738 0.02141
2226.95161 0.02063
2225.66584 0.01987
2224.38007 0.01909
2223.09430 0.01841
2221.80853 0.01814
2220.52276 0.01862
2219.23700 0.01972
2217.95123 0.02089
2216.66546 0.02157
2215.37969 0.02158
2214.09392 0.02112
2212.80815 0.02064
2211.52238 0.02053
2210.23661 0.02083
2208.95084 0.02115
2207.66508 0.02100
2206.37931 0.02027
2205.09354 0.01937
2203.80777 0.01885
2202.52200 0.01884
2201.23623 0.01900
2199.95046 0.01905
2198.66469 0.01908
2197.37893 0.01924
2196.09316 0.01945
2194.80739 0.01953
2193.52162 0.01951
2192.23585 0.01953
2190.95008 0.01963
2189.66431 0.01962
2188.37854 0.01929
2187.09277 0.01848
2185.80701 0.01720
2184.52124 0.01582
2183.23547 0.01491
2181.94970 0.01485
2180.66393 0.01543
2179.37816 0.01603
2178.09239 0.01618
2176.80662 0.01592
2175.52085 0.01552
2174.23509 0.01507
2172.94932 0.01463
2171.66355 0.01455
2170.37778 0.01525
2169.09201 0.01662
2167.80624 0.01779
2166.52047 0.01779
2165.23470 0.01636
2163.94894 0.01411
2162.66317 0.01187
2161.37740 0.01013
2160.09163 0.00896
2158.80586 0.00843
2157.52009 0.00861
2156.23432 0.00908
2154.94855 0.00912
2153.66278 0.00842
2152.37702 0.00746
2151.09125 0.00703
2149.80548 0.00754
2148.51971 0.00874
2147.23394 0.01010
2145.94817 0.01119
2144.66240 0.01188
2143.37663 0.01229
2142.09087 0.01254
2140.80510 0.01274
2139.51933 0.01298
2138.23356 0.01326
2136.94779 0.01347
2135.66202 0.01345
2134.37625 0.01330
2133.09048 0.01331
2131.80471 0.01364
2130.51895 0.01423
2129.23318 0.01496
2127.94741 0.01573
2126.66164 0.01640
2125.37587 0.01681
2124.09010 0.01691
2122.80433 0.01679
2121.51856 0.01661
2120.23280 0.01658
2118.94703 0.01693
2117.66126 0.01773
2116.37549 0.01870
2115.08972 0.01936
2113.80395 0.01935
2112.51818 0.01887
2111.23241 0.01852
2109.94664 0.01873
2108.66088 0.01935
2107.37511 0.01981
2106.08934 0.01971
2104.80357 0.01917
2103.51780 0.01860
2102.23203 0.01820
2100.94626 0.01794
2099.66049 0.01801
2098.37473 0.01823
2097.08896 0.01794
2095.80319 0.01727
2094.51742 0.01655
2093.23165 0.01606
2091.94588 0.01593
2090.66011 0.01596
2089.37434 0.01592
2088.08857 0.01573
2086.80281 0.01547
2085.51704 0.01529
2084.23127 0.01532
2082.94550 0.01563
2081.65973 0.01620
2080.37396 0.01692
2079.08819 0.01755
2077.80242 0.01784
2076.51666 0.01765
2075.23089 0.01722
2073.94512 0.01697
2072.65935 0.01710
2071.37358 0.01734
2070.08781 0.01728
2068.80204 0.01686
2067.51627 0.01633
2066.23050 0.01584
2064.94474 0.01533
2063.65897 0.01469
2062.37320 0.01393
2061.08743 0.01312
2059.80166 0.01245
2058.51589 0.01211
2057.23012 0.01220
2055.94435 0.01260
2054.65859 0.01305
2053.37282 0.01340
2052.08705 0.01367
2050.80128 0.01385
2049.51551 0.01381
2048.22974 0.01340
2046.94397 0.01264
2045.65820 0.01171
2044.37243 0.01086
2043.08667 0.01041
2041.80090 0.01075
2040.51513 0.01200
2039.22936 0.01376
2037.94359 0.01512
2036.65782 0.01526
2035.37205 0.01403
2034.08628 0.01200
2032.80052 0.01001
2031.51475 0.00870
2030.22898 0.00815
2028.94321 0.00795
2027.65744 0.00761
2026.37167 0.00700
2025.08590 0.00644
2023.80013 0.00635
2022.51436 0.00678
2021.22860 0.00739
2019.94283 0.00783
2018.65706 0.00806
2017.37129 0.00837
2016.08552 0.00887
2014.79975 0.00929
2013.51398 0.00930
2012.22821 0.00889
2010.94245 0.00837
2009.65668 0.00798
2008.37091 0.00777
2007.08514 0.00776
2005.79937 0.00794
2004.51360 0.00817
2003.22783 0.00826
2001.94206 0.00830
2000.65629 0.00872
1999.37053 0.00980
1998.08476 0.01125
1996.79899 0.01244
1995.51322 0.01309
1994.22745 0.01352
1992.94168 0.01403
1991.65591 0.01441
1990.37014 0.01419
1989.08438 0.01344
1987.79861 0.01285
1986.51284 0.01301
1985.22707 0.01368
1983.94130 0.01410
1982.65553 0.01380
1981.36976 0.01298
1980.08399 0.01222
1978.79822 0.01188
1977.51246 0.01193
1976.22669 0.01209
1974.94092 0.01216
1973.65515 0.01218
1972.36938 0.01236
1971.08361 0.01289
1969.79784 0.01360
1968.51207 0.01406
1967.22631 0.01387
1965.94054 0.01305
1964.65477 0.01213
1963.36900 0.01176
1962.08323 0.01212
1960.79746 0.01282
1959.51169 0.01336
1958.22592 0.01362
1956.94015 0.01367
1955.65439 0.01355
1954.36862 0.01326
1953.08285 0.01296
1951.79708 0.01296
1950.51131 0.01343
1949.22554 0.01423
1947.93977 0.01504
1946.65400 0.01560
1945.36823 0.01586
1944.08247 0.01592
1942.79670 0.01588
1941.51093 0.01579
1940.22516 0.01567
1938.93939 0.01552
1937.65362 0.01537
1936.36785 0.01519
1935.08208 0.01502
1933.79632 0.01500
1932.51055 0.01525
1931.22478 0.01575
1929.93901 0.01636
1928.65324 0.01690
1927.36747 0.01729
1926.08170 0.01740
1924.79593 0.01726
1923.51016 0.01706
1922.22440 0.01713
1920.93863 0.01753
1919.65286 0.01794
1918.36709 0.01794
1917.08132 0.01740
1915.79555 0.01659
1914.50978 0.01597
1913.22401 0.01579
1911.93825 0.01598
1910.65248 0.01628
1909.36671 0.01653
1908.08094 0.01672
1906.79517 0.01683
1905.50940 0.01673
1904.22363 0.01638
1902.93786 0.01593
1901.65209 0.01566
1900.36633 0.01575
1899.08056 0.01615
1897.79479 0.01673
1896.50902 0.01734
1895.22325 0.01787
1893.93748 0.01821
1892.65171 0.01824
1891.36594 0.01794
1890.08018 0.01743
1888.79441 0.01696
1887.50864 0.01668
1886.22287 0.01663
1884.93710 0.01673
1883.65133 0.01686
1882.36556 0.01694
1881.07979 0.01694
1879.79402 0.01691
1878.50826 0.01692
1877.22249 0.01697
1875.93672 0.01706
1874.65095 0.01719
1873.36518 0.01737
1872.07941 0.01757
1870.79364 0.01768
1869.50787 0.01760
1868.22211 0.01739
1866.93634 0.01714
1865.65057 0.01695
1864.36480 0.01684
1863.07903 0.01686
1861.79326 0.01700
1860.50749 0.01720
1859.22172 0.01735
1857.93595 0.01738
1856.65019 0.01729
1855.36442 0.01713
1854.07865 0.01696
1852.79288 0.01679
1851.50711 0.01667
1850.22134 0.01665
1848.93557 0.01678
1847.64980 0.01703
1846.36404 0.01730
1845.07827 0.01753
1843.79250 0.01765
1842.50673 0.01763
1841.22096 0.01743
1839.93519 0.01716
1838.64942 0.01700
1837.36365 0.01704
1836.07788 0.01724
1834.79212 0.01748
1833.50635 0.01764
1832.22058 0.01764
1830.93481 0.01753
1829.64904 0.01750
1828.36327 0.01763
1827.07750 0.01785
1825.79173 0.01802
1824.50597 0.01808
1823.22020 0.01804
1821.93443 0.01790
1820.64866 0.01767
1819.36289 0.01738
1818.07712 0.01708
1816.79135 0.01685
1815.50558 0.01674
1814.21981 0.01674
1812.93405 0.01682
1811.64828 0.01694
1810.36251 0.01707
1809.07674 0.01717
1807.79097 0.01725
1806.50520 0.01736
1805.21943 0.01754
1803.93366 0.01774
1802.64790 0.01784
1801.36213 0.01779
1800.07636 0.01766
1798.79059 0.01756
1797.50482 0.01752
1796.21905 0.01753
1794.93328 0.01756
1793.64751 0.01759
1792.36174 0.01771
1791.07598 0.01793
1789.79021 0.01816
1788.50444 0.01824
1787.21867 0.01815
1785.93290 0.01800
1784.64713 0.01792
1783.36136 0.01797
1782.07559 0.01807
1780.78983 0.01814
1779.50406 0.01815
1778.21829 0.01810
1776.93252 0.01804
1775.64675 0.01798
1774.36098 0.01793
1773.07521 0.01789
1771.78944 0.01790
1770.50367 0.01796
1769.21791 0.01800
1767.93214 0.01803
1766.64637 0.01812
1765.36060 0.01829
1764.07483 0.01847
1762.78906 0.01862
1761.50329 0.01871
1760.21752 0.01870
1758.93176 0.01856
1757.64599 0.01835
1756.36022 0.01821
1755.07445 0.01820
1753.78868 0.01820
1752.50291 0.01813
1751.21714 0.01804
1749.93137 0.01802
1748.64560 0.01810
1747.35984 0.01822
1746.07407 0.01834
1744.78830 0.01843
1743.50253 0.01850
1742.21676 0.01856
1740.93099 0.01857
1739.64522 0.01857
1738.35945 0.01859
1737.07369 0.01860
1735.78792 0.01853
1734.50215 0.01849
1733.21638 0.01857
1731.93061 0.01870
1730.64484 0.01873
1729.35907 0.01867
1728.07330 0.01860
1726.78753 0.01856
1725.50177 0.01856
1724.21600 0.01863
1722.93023 0.01888
1721.64446 0.01929
1720.35869 0.01971
1719.07292 0.02001
1717.78715 0.02021
1716.50138 0.02042
1715.21561 0.02070
1713.92985 0.02103
1712.64408 0.02145
1711.35831 0.02195
1710.07254 0.02248
1708.78677 0.02300
1707.50100 0.02351
1706.21523 0.02408
1704.92946 0.02482
1703.64370 0.02565
1702.35793 0.02640
1701.07216 0.02707
1699.78639 0.02785
1698.50062 0.02874
1697.21485 0.02957
1695.92908 0.03032
1694.64331 0.03108
1693.35754 0.03184
1692.07178 0.03250
1690.78601 0.03316
1689.50024 0.03398
1688.21447 0.03493
1686.92870 0.03579
1685.64293 0.03650
1684.35716 0.03718
1683.07139 0.03797
1681.78563 0.03882
1680.49986 0.03964
1679.21409 0.04046
1677.92832 0.04128
1676.64255 0.04209
1675.35678 0.04292
1674.07101 0.04382
1672.78524 0.04473
1671.49947 0.04556
1670.21371 0.04635
1668.92794 0.04717
1667.64217 0.04805
1666.35640 0.04892
1665.07063 0.04975
1663.78486 0.05056
1662.49909 0.05137
1661.21332 0.05213
1659.92756 0.05281
1658.64179 0.05349
1657.35602 0.05424
1656.07025 0.05501
1654.78448 0.05564
1653.49871 0.05613
1652.21294 0.05658
1650.92717 0.05697
1649.64140 0.05714
1648.35564 0.05711
1647.06987 0.05706
1645.78410 0.05710
1644.49833 0.05717
1643.21256 0.05712
1641.92679 0.05693
1640.64102 0.05670
1639.35525 0.05650
1638.06949 0.05628
1636.78372 0.05595
1635.49795 0.05553
1634.21218 0.05505
1632.92641 0.05449
1631.64064 0.05382
1630.35487 0.05311
1629.06910 0.05245
1627.78333 0.05187
1626.49757 0.05132
1625.21180 0.05072
1623.92603 0.05004
1622.64026 0.04936
1621.35449 0.04878
1620.06872 0.04826
1618.78295 0.04773
1617.49718 0.04720
1616.21142 0.04678
1614.92565 0.04646
1613.63988 0.04618
1612.35411 0.04587
1611.06834 0.04560
1609.78257 0.04539
1608.49680 0.04524
1607.21103 0.04515
1605.92526 0.04513
1604.63950 0.04516
1603.35373 0.04525
1602.06796 0.04537
1600.78219 0.04547
1599.49642 0.04556
1598.21065 0.04566
1596.92488 0.04585
1595.63911 0.04618
1594.35335 0.04662
1593.06758 0.04708
1591.78181 0.04751
1590.49604 0.04790
1589.21027 0.04833
1587.92450 0.04882
1586.63873 0.04934
1585.35296 0.04984
1584.06719 0.05031
1582.78143 0.05082
1581.49566 0.05147
1580.20989 0.05228
1578.92412 0.05314
1577.63835 0.05394
1576.35258 0.05470
1575.06681 0.05553
1573.78104 0.05638
1572.49528 0.05716
1571.20951 0.05783
1569.92374 0.05847
1568.63797 0.05914
1567.35220 0.05979
1566.06643 0.06036
1564.78066 0.06091
1563.49489 0.06148
1562.20912 0.06203
1560.92336 0.06244
1559.63759 0.06278
1558.35182 0.06319
1557.06605 0.06363
1555.78028 0.06396
1554.49451 0.06415
1553.20874 0.06428
1551.92297 0.06437
1550.63721 0.06439
1549.35144 0.06434
1548.06567 0.06424
1546.77990 0.06406
1545.49413 0.06385
1544.20836 0.06359
1542.92259 0.06323
1541.63682 0.06270
1540.35105 0.06205
1539.06529 0.06143
1537.77952 0.06093
1536.49375 0.06044
1535.20798 0.05992
1533.92221 0.05946
1532.63644 0.05917
1531.35067 0.05902
1530.06490 0.05891
1528.77914 0.05881
1527.49337 0.05875
1526.20760 0.05878
1524.92183 0.05893
1523.63606 0.05911
1522.35029 0.05928
1521.06452 0.05953
1519.77875 0.05991
1518.49298 0.06036
1517.20722 0.06082
1515.92145 0.06133
1514.63568 0.06195
1513.34991 0.06270
1512.06414 0.06360
1510.77837 0.06462
1509.49260 0.06560
1508.20683 0.06643
1506.92107 0.06715
1505.63530 0.06791
1504.34953 0.06873
1503.06376 0.06952
1501.77799 0.07021
1500.49222 0.07084
1499.20645 0.07139
1497.92068 0.07185
1496.63491 0.07229
1495.34915 0.07275
1494.06338 0.07322
1492.77761 0.07366
1491.49184 0.07411
1490.20607 0.07468
1488.92030 0.07539
1487.63453 0.07618
1486.34876 0.07698
1485.06299 0.07778
1483.77723 0.07862
1482.49146 0.07955
1481.20569 0.08058
1479.91992 0.08168
1478.63415 0.08281
1477.34838 0.08394
1476.06261 0.08506
1474.77684 0.08612
1473.49108 0.08710
1472.20531 0.08805
1470.91954 0.08897
1469.63377 0.08982
1468.34800 0.09055
1467.06223 0.09120
1465.77646 0.09185
1464.49069 0.09257
1463.20492 0.09339
1461.91916 0.09429
1460.63339 0.09525
1459.34762 0.09623
1458.06185 0.09720
1456.77608 0.09817
1455.49031 0.09912
1454.20454 0.09996
1452.91877 0.10065
1451.63301 0.10124
1450.34724 0.10174
1449.06147 0.10210
1447.77570 0.10228
1446.48993 0.10234
1445.20416 0.10233
1443.91839 0.10227
1442.63262 0.10217
1441.34685 0.10200
1440.06109 0.10178
1438.77532 0.10151
1437.48955 0.10131
1436.20378 0.10130
1434.91801 0.10150
1433.63224 0.10187
1432.34647 0.10234
1431.06070 0.10296
1429.77494 0.10376
1428.48917 0.10473
1427.20340 0.10585
1425.91763 0.10708
1424.63186 0.10841
1423.34609 0.10981
1422.06032 0.11120
1420.77455 0.11248
1419.48878 0.11368
1418.20302 0.11484
1416.91725 0.11590
1415.63148 0.11679
1414.34571 0.11749
1413.05994 0.11803
1411.77417 0.11841
1410.48840 0.11864
1409.20263 0.11868
1407.91687 0.11849
1406.63110 0.11802
1405.34533 0.11727
1404.05956 0.11629
1402.77379 0.11512
1401.48802 0.11377
1400.20225 0.11226
1398.91648 0.11062
1397.63071 0.10890
1396.34495 0.10709
1395.05918 0.10520
1393.77341 0.10326
1392.48764 0.10129
1391.20187 0.09929
1389.91610 0.09725
1388.63033 0.09521
1387.34456 0.09321
1386.05880 0.09124
1384.77303 0.08926
1383.48726 0.08725
1382.20149 0.08524
1380.91572 0.08327
1379.62995 0.08138
1378.34418 0.07950
1377.05841 0.07758
1375.77264 0.07555
1374.48688 0.07343
1373.20111 0.07126
1371.91534 0.06909
1370.62957 0.06696
1369.34380 0.06492
1368.05803 0.06300
1366.77226 0.06123
1365.48649 0.05957
1364.20073 0.05797
1362.91496 0.05640
1361.62919 0.05487
1360.34342 0.05345
1359.05765 0.05219
1357.77188 0.05109
1356.48611 0.05013
1355.20034 0.04926
1353.91457 0.04843
1352.62881 0.04765
1351.34304 0.04696
1350.05727 0.04638
1348.77150 0.04587
1347.48573 0.04536
1346.19996 0.04479
1344.91419 0.04422
1343.62842 0.04371
1342.34266 0.04332
1341.05689 0.04297
1339.77112 0.04259
1338.48535 0.04215
1337.19958 0.04167
1335.91381 0.04119
1334.62804 0.04074
1333.34227 0.04033
1332.05650 0.03994
1330.77074 0.03956
1329.48497 0.03915
1328.19920 0.03869
1326.91343 0.03823
1325.62766 0.03779
1324.34189 0.03739
1323.05612 0.03702
1321.77035 0.03665
1320.48459 0.03632
1319.19882 0.03601
1317.91305 0.03571
1316.62728 0.03541
1315.34151 0.03512
1314.05574 0.03485
1312.76997 0.03462
1311.48420 0.03441
1310.19843 0.03417
1308.91267 0.03388
1307.62690 0.03355
1306.34113 0.03320
1305.05536 0.03285
1303.76959 0.03253
1302.48382 0.03223
1301.19805 0.03194
1299.91228 0.03164
1298.62652 0.03133
1297.34075 0.03104
1296.05498 0.03077
1294.76921 0.03053
1293.48344 0.03032
1292.19767 0.03015
1290.91190 0.03004
1289.62613 0.02996
1288.34036 0.02985
1287.05460 0.02970
1285.76883 0.02953
1284.48306 0.02938
1283.19729 0.02927
1281.91152 0.02918
1280.62575 0.02906
1279.33998 0.02889
1278.05421 0.02869
1276.76845 0.02849
1275.48268 0.02832
1274.19691 0.02819
1272.91114 0.02807
1271.62537 0.02793
1270.33960 0.02778
1269.05383 0.02762
1267.76806 0.02750
1266.48229 0.02744
1265.19653 0.02743
1263.91076 0.02742
1262.62499 0.02739
1261.33922 0.02730
1260.05345 0.02720
1258.76768 0.02710
1257.48191 0.02704
1256.19614 0.02703
1254.91037 0.02704
1253.62461 0.02704
1252.33884 0.02702
1251.05307 0.02697
1249.76730 0.02691
1248.48153 0.02682
1247.19576 0.02670
1245.90999 0.02659
1244.62422 0.02649
1243.33846 0.02643
1242.05269 0.02638
1240.76692 0.02632
1239.48115 0.02627
1238.19538 0.02620
1236.90961 0.02611
1235.62384 0.02598
1234.33807 0.02585
1233.05230 0.02572
1231.76654 0.02561
1230.48077 0.02545
1229.19500 0.02523
1227.90923 0.02495
1226.62346 0.02469
1225.33769 0.02450
1224.05192 0.02434
1222.76615 0.02417
1221.48039 0.02393
1220.19462 0.02363
1218.90885 0.02331
1217.62308 0.02304
1216.33731 0.02282
1215.05154 0.02266
1213.76577 0.02255
1212.48000 0.02247
1211.19423 0.02239
1209.90847 0.02229
1208.62270 0.02218
1207.33693 0.02206
1206.05116 0.02196
1204.76539 0.02189
1203.47962 0.02183
1202.19385 0.02169
1200.90808 0.02148
1199.62232 0.02148
1198.33655 0.02136
1197.05078 0.02122
1195.76501 0.02104
1194.47924 0.02085
1193.19347 0.02065
1191.90770 0.02048
1190.62193 0.02035
1189.33616 0.02026
1188.05040 0.02020
1186.76463 0.02012
1185.47886 0.01999
1184.19309 0.01979
1182.90732 0.01959
1181.62155 0.01943
1180.33578 0.01935
1179.05001 0.01933
1177.76425 0.01931
1176.47848 0.01929
1175.19271 0.01928
1173.90694 0.01928
1172.62117 0.01927
1171.33540 0.01927
1170.04963 0.01926
1168.76386 0.01928
1167.47809 0.01936
1166.19233 0.01949
1164.90656 0.01963
1163.62079 0.01971
1162.33502 0.01972
1161.04925 0.01967
1159.76348 0.01961
1158.47771 0.01963
1157.19194 0.01979
1155.90618 0.02008
1154.62041 0.02038
1153.33464 0.02059
1152.04887 0.02069
1150.76310 0.02074
1149.47733 0.02079
1148.19156 0.02092
1146.90579 0.02114
1145.62002 0.02143
1144.33426 0.02177
1143.04849 0.02218
1141.76272 0.02268
1140.47695 0.02333
1139.19118 0.02416
1137.90541 0.02513
1136.61964 0.02620
1135.33387 0.02735
1134.04811 0.02857
1132.76234 0.02990
1131.47657 0.03139
1130.19080 0.03307
1128.90503 0.03498
1127.61926 0.03715
1126.33349 0.03953
1125.04772 0.04209
1123.76195 0.04479
1122.47619 0.04763
1121.19042 0.05057
1119.90465 0.05359
1118.61888 0.05664
1117.33311 0.05970
1116.04734 0.06274
1114.76157 0.06574
1113.47580 0.06869
1112.19004 0.07159
1110.90427 0.07444
1109.61850 0.07723
1108.33273 0.07997
1107.04696 0.08267
1105.76119 0.08533
1104.47542 0.08792
1103.18965 0.09044
1101.90388 0.09287
1100.61812 0.09523
1099.33235 0.09752
1098.04658 0.09975
1096.76081 0.10193
1095.47504 0.10402
1094.18927 0.10597
1092.90350 0.10772
1091.61773 0.10930
1090.33197 0.11075
1089.04620 0.11218
1087.76043 0.11365
1086.47466 0.11517
1085.18889 0.11671
1083.90312 0.11822
1082.61735 0.11975
1081.33158 0.12133
1080.04581 0.12305
1078.76005 0.12493
1077.47428 0.12700
1076.18851 0.12924
1074.90274 0.13159
1073.61697 0.13403
1072.33120 0.13652
1071.04543 0.13909
1069.75966 0.14173
1068.47390 0.14446
1067.18813 0.14730
1065.90236 0.15025
1064.61659 0.15321
1063.33082 0.15614
1062.04505 0.15905
1060.75928 0.16198
1059.47351 0.16492
1058.18774 0.16777
1056.90198 0.17045
1055.61621 0.17305
1054.33044 0.17572
1053.04467 0.17850
1051.75890 0.18132
1050.47313 0.18412
1049.18736 0.18691
1047.90159 0.18972
1046.61583 0.19260
1045.33006 0.19551
1044.04429 0.19845
1042.75852 0.20143
1041.47275 0.20446
1040.18698 0.20755
1038.90121 0.21069
1037.61544 0.21387
1036.32967 0.21706
1035.04391 0.22024
1033.75814 0.22336
1032.47237 0.22631
1031.18660 0.22902
1029.90083 0.23150
1028.61506 0.23381
1027.32929 0.23597
1026.04352 0.23793
1024.75775 0.23966
1023.47199 0.24116
1022.18622 0.24247
1020.90045 0.24353
1019.61468 0.24426
1018.32891 0.24457
1017.04314 0.24451
1015.75737 0.24410
1014.47160 0.24335
1013.18584 0.24219
1011.90007 0.24062
1010.61430 0.23871
1009.32853 0.23650
1008.04276 0.23396
1006.75699 0.23104
1005.47122 0.22776
1004.18545 0.22418
1002.89968 0.22035
1001.61392 0.21621
1000.32815 0.21171
999.04238 0.20687
997.75661 0.20181
996.47084 0.19664
995.18507 0.19145
993.89930 0.18622
992.61353 0.18092
991.32777 0.17554
990.04200 0.17013
988.75623 0.16480
987.47046 0.15964
986.18469 0.15469
984.89892 0.14990
983.61315 0.14524
982.32738 0.14071
981.04161 0.13635
979.75585 0.13217
978.47008 0.12818
977.18431 0.12440
975.89854 0.12093
974.61277 0.11785
973.32700 0.11525
972.04123 0.11317
970.75546 0.11164
969.46970 0.11069
968.18393 0.11031
966.89816 0.11046
965.61239 0.11103
964.32662 0.11185
963.04085 0.11264
961.75508 0.11315
960.46931 0.11321
959.18354 0.11270
957.89778 0.11154
956.61201 0.10977
955.32624 0.10759
954.04047 0.10529
952.75470 0.10302
951.46893 0.10077
950.18316 0.09844
948.89739 0.09604
947.61163 0.09368
946.32586 0.09145
945.04009 0.08937
943.75432 0.08738
942.46855 0.08544
941.18278 0.08354
939.89701 0.08168
938.61124 0.07986
937.32547 0.07811
936.03971 0.07649
934.75394 0.07504
933.46817 0.07372
932.18240 0.07243
930.89663 0.07113
929.61086 0.06986
928.32509 0.06867
927.03932 0.06760
925.75356 0.06661
924.46779 0.06563
923.18202 0.06461
921.89625 0.06358
920.61048 0.06257
919.32471 0.06161
918.03894 0.06069
916.75317 0.05983
915.46740 0.05905
914.18164 0.05836
912.89587 0.05772
911.61010 0.05703
910.32433 0.05625
909.03856 0.05544
907.75279 0.05471
906.46702 0.05414
905.18125 0.05367
903.89549 0.05320
902.60972 0.05264
901.32395 0.05199
900.03818 0.05129
898.75241 0.05063
897.46664 0.05010
896.18087 0.04973
894.89510 0.04945
893.60933 0.04915
892.32357 0.04879
891.03780 0.04840
889.75203 0.04812
888.46626 0.04811
887.18049 0.04849
885.89472 0.04932
884.60895 0.05075
883.32318 0.05293
882.03742 0.05574
880.75165 0.05869
879.46588 0.06120
878.18011 0.06305
876.89434 0.06452
875.60857 0.06609
874.32280 0.06792
873.03703 0.06975
871.75126 0.07113
870.46550 0.07176
869.17973 0.07158
867.89396 0.07062
866.60819 0.06890
865.32242 0.06651
864.03665 0.06371
862.75088 0.06088
861.46511 0.05830
860.17935 0.05608
858.89358 0.05418
857.60781 0.05250
856.32204 0.05104
855.03627 0.04982
853.75050 0.04885
852.46473 0.04811
851.17896 0.04753
849.89319 0.04703
848.60743 0.04657
847.32166 0.04608
846.03589 0.04556
844.75012 0.04501
843.46435 0.04451
842.17858 0.04411
840.89281 0.04380
839.60704 0.04354
838.32128 0.04327
837.03551 0.04291
835.74974 0.04246
834.46397 0.04194
833.17820 0.04145
831.89243 0.04106
830.60666 0.04081
829.32089 0.04069
828.03512 0.04065
826.74936 0.04061
825.46359 0.04053
824.17782 0.04042
822.89205 0.04031
821.60628 0.04021
820.32051 0.04007
819.03474 0.03983
817.74897 0.03946
816.46321 0.03903
815.17744 0.03866
813.89167 0.03845
812.60590 0.03841
811.32013 0.03846
810.03436 0.03848
808.74859 0.03840
807.46282 0.03820
806.17705 0.03793
804.89129 0.03769
803.60552 0.03757
802.31975 0.03761
801.03398 0.03776
799.74821 0.03791
798.46244 0.03799
797.17667 0.03797
795.89090 0.03784
794.60513 0.03762
793.31937 0.03736
792.03360 0.03717
790.74783 0.03711
789.46206 0.03715
788.17629 0.03721
786.89052 0.03723
785.60475 0.03722
784.31898 0.03719
783.03322 0.03712
781.74745 0.03699
780.46168 0.03683
779.17591 0.03669
777.89014 0.03654
776.60437 0.03640
775.31860 0.03629
774.03283 0.03622
772.74706 0.03618
771.46130 0.03614
770.17553 0.03611
768.88976 0.03612
767.60399 0.03613
766.31822 0.03613
765.03245 0.03612
763.74668 0.03615
762.46091 0.03622
761.17515 0.03624
759.88938 0.03617
758.60361 0.03604
757.31784 0.03594
756.03207 0.03594
754.74630 0.03605
753.46053 0.03623
752.17476 0.03633
750.88899 0.03627
749.60323 0.03605
748.31746 0.03576
747.03169 0.03555
745.74592 0.03547
744.46015 0.03549
743.17438 0.03550
741.88861 0.03541
740.60284 0.03516
739.31708 0.03486
738.03131 0.03462
736.74554 0.03452
735.45977 0.03450
734.17400 0.03452
732.88823 0.03453
731.60246 0.03453
730.31669 0.03453
729.03092 0.03449
727.74516 0.03441
726.45939 0.03430
725.17362 0.03422
723.88785 0.03444
722.60208 0.03434
721.31631 0.03431
720.03054 0.03438
718.74477 0.03441
717.45901 0.03439
716.17324 0.03434
714.88747 0.03426
713.60170 0.03416
712.31593 0.03408
711.03016 0.03404
709.74439 0.03406
708.45862 0.03407
707.17285 0.03404
705.88709 0.03394
704.60132 0.03382
703.31555 0.03374
702.02978 0.03375
700.74401 0.03380
699.45824 0.03382
698.17247 0.03380
696.88670 0.03377
695.60094 0.03376
694.31517 0.03375
693.02940 0.03373
691.74363 0.03369
690.45786 0.03365
689.17209 0.03362
687.88632 0.03358
686.60055 0.03349
685.31478 0.03334
684.02902 0.03317
682.74325 0.03301
681.45748 0.03293
680.17171 0.03290
678.88594 0.03290
677.60017 0.03292
676.31440 0.03299
675.02863 0.03312
673.74287 0.03327
672.45710 0.03344
671.17133 0.03362
669.88556 0.03382
668.59979 0.03400
667.31402 0.03408
666.02825 0.03410
664.74248 0.03398
663.45671 0.03377
662.17095 0.03357
660.88518 0.03342
659.59941 0.03332
658.31364 0.03321
657.02787 0.03303
655.74210 0.03279
654.45633 0.03250
653.17056 0.03220
651.88480 0.03190
650.59903 0.03161
649.31326 0.03137
648.02749 0.03123
646.74172 0.03117
645.45595 0.03113
644.17018 0.03101
642.88441 0.03081
641.59864 0.03059
640.31288 0.03041
639.02711 0.03031
637.74134 0.03030
636.45557 0.03037
635.16980 0.03055
633.88403 0.03087
632.59826 0.03119
631.31249 0.03089
630.02673 0.02991
628.74096 0.03102
627.45519 0.03367
626.16942 0.03667
624.88365 0.03969
623.59788 0.04228
622.31211 0.04406
621.02634 0.04528
619.74057 0.04661
618.45481 0.04825
617.16904 0.04975
615.88327 0.05106
614.59750 0.05317
613.31173 0.05732
612.02596 0.06351
610.74019 0.07034
609.45442 0.07662
608.16866 0.08248
606.88289 0.08827
605.59712 0.09352
604.31135 0.09732
603.02558 0.09927
601.73981 0.09952
600.45404 0.09843
599.16827 0.09641
597.88250 0.09385
596.59674 0.09104
595.31097 0.08815
594.02520 0.08533
592.73943 0.08274
591.45366 0.08058
590.16789 0.07900
588.88212 0.07802
587.59635 0.07773
586.31059 0.07822
585.02482 0.07954
583.73905 0.08155
582.45328 0.08400
581.16751 0.08666
579.88174 0.08935
578.59597 0.09203
577.31020 0.09465
576.02443 0.09714
574.73867 0.09942
573.45290 0.10149
572.16713 0.10355
570.88136 0.10592
569.59559 0.10878
568.30982 0.11203
567.02405 0.11539
565.73828 0.11864
564.45251 0.12163
563.16675 0.12412
561.88098 0.12571
560.59521 0.12599
559.30944 0.12477
558.02367 0.12212
556.73790 0.11833
555.45213 0.11375
554.16636 0.10869
552.88060 0.10340
551.59483 0.09809
550.30906 0.09293
549.02329 0.08805
547.73752 0.08356
546.45175 0.07951
545.16598 0.07595
543.88021 0.07288
542.59444 0.07025
541.30868 0.06796
540.02291 0.06587
538.73714 0.06384
537.45137 0.06186
536.16560 0.05997
534.87983 0.05827
533.59406 0.05678
532.30829 0.05548
531.02253 0.05430
529.73676 0.05317
528.45099 0.05202
527.16522 0.05078
525.87945 0.04949
524.59368 0.04832
523.30791 0.04738
522.02214 0.04660
520.73637 0.04584
519.45061 0.04500
518.16484 0.04412
516.87907 0.04322
515.59330 0.04232
514.30753 0.04144
513.02176 0.04067
511.73599 0.04009
510.45022 0.03972
509.16446 0.03946
507.87869 0.03921
506.59292 0.03887
505.30715 0.03840
504.02138 0.03782
502.73561 0.03720
501.44984 0.03656
500.16407 0.03593
498.87830 0.03533
497.59254 0.03478
496.30677 0.03429
495.02100 0.03382
493.73523 0.03339
492.44946 0.03306
491.16369 0.03288
489.87792 0.03280
488.59215 0.03271
487.30639 0.03255
486.02062 0.03236
484.73485 0.03221
483.44908 0.03214
482.16331 0.03211
480.87754 0.03210
479.59177 0.03210
478.30600 0.03213
477.02023 0.03223
475.73447 0.03244
474.44870 0.03277
473.16293 0.03316
471.87716 0.03350
470.59139 0.03364
469.30562 0.03354
468.01985 0.03321
466.73408 0.03272
465.44832 0.03215
464.16255 0.03158
462.87678 0.03106
461.59101 0.03062
460.30524 0.03024
459.01947 0.02989
457.73370 0.02957
456.44793 0.02925
455.16216 0.02887
453.87640 0.02841
452.59063 0.02795
451.30486 0.02756
450.01909 0.02724
448.73332 0.02693
447.44755 0.02662
446.16178 0.02633
444.87601 0.02609
443.59025 0.02591
442.30448 0.02575
441.01871 0.02557
439.73294 0.02534
438.44717 0.02509
437.16140 0.02486
435.87563 0.02470
434.58986 0.02458
433.30409 0.02442
432.01833 0.02420
430.73256 0.02393
429.44679 0.02368
428.16102 0.02350
426.87525 0.02336
425.58948 0.02326
424.30371 0.02317
423.01794 0.02309
421.73218 0.02300
420.44641 0.02287
419.16064 0.02272
417.87487 0.02254
416.58910 0.02232
415.30333 0.02207
414.01756 0.02180
412.73179 0.02156
411.44602 0.02139
410.16026 0.02133
408.87449 0.02132
407.58872 0.02134
406.30295 0.02137
405.01718 0.02141
403.73141 0.02148
402.44564 0.02155
401.15987 0.02160
399.87411 0.02161
