3997.45528	0.01923
3996.16951	0.01949
3994.88374	0.01985
3993.59798	0.02008
3992.31221	0.01999
3991.02644	0.01967
3989.74067	0.01936
3988.45490	0.01912
3987.16913	0.01880
3985.88336	0.01826
3984.59759	0.01757
3983.31183	0.01698
3982.02606	0.01678
3980.74029	0.01715
3979.45452	0.01795
3978.16875	0.01884
3976.88298	0.01954
3975.59721	0.01993
3974.31144	0.02000
3973.02567	0.01975
3971.73991	0.01928
3970.45414	0.01881
3969.16837	0.01850
3967.88260	0.01837
3966.59683	0.01838
3965.31106	0.01855
3964.02529	0.01881
3962.73952	0.01892
3961.45376	0.01862
3960.16799	0.01796
3958.88222	0.01740
3957.59645	0.01736
3956.31068	0.01780
3955.02491	0.01829
3953.73914	0.01849
3952.45337	0.01853
3951.16760	0.01880
3949.88184	0.01947
3948.59607	0.02032
3947.31030	0.02100
3946.02453	0.02137
3944.73876	0.02140
3943.45299	0.02109
3942.16722	0.02048
3940.88145	0.01973
3939.59569	0.01902
3938.30992	0.01841
3937.02415	0.01793
3935.73838	0.01771
3934.45261	0.01784
3933.16684	0.01816
3931.88107	0.01834
3930.59530	0.01831
3929.30953	0.01834
3928.02377	0.01865
3926.73800	0.01900
3925.45223	0.01892
3924.16646	0.01830
3922.88069	0.01764
3921.59492	0.01757
3920.30915	0.01830
3919.02338	0.01952
3917.73762	0.02074
3916.45185	0.02156
3915.16608	0.02178
3913.88031	0.02148
3912.59454	0.02094
3911.30877	0.02052
3910.02300	0.02051
3908.73723	0.02096
3907.45146	0.02159
3906.16570	0.02198
3904.87993	0.02175
3903.59416	0.02082
3902.30839	0.01954
3901.02262	0.01852
3899.73685	0.01819
3898.45108	0.01858
3897.16531	0.01940
3895.87955	0.02027
3894.59378	0.02100
3893.30801	0.02152
3892.02224	0.02177
3890.73647	0.02167
3889.45070	0.02132
3888.16493	0.02100
3886.87916	0.02092
3885.59339	0.02096
3884.30763	0.02087
3883.02186	0.02061
3881.73609	0.02034
3880.45032	0.02021
3879.16455	0.02025
3877.87878	0.02039
3876.59301	0.02049
3875.30724	0.02038
3874.02148	0.02003
3872.73571	0.01973
3871.44994	0.01988
3870.16417	0.02049
3868.87840	0.02115
3867.59263	0.02146
3866.30686	0.02123
3865.02109	0.02050
3863.73532	0.01959
3862.44956	0.01897
3861.16379	0.01876
3859.87802	0.01867
3858.59225	0.01842
3857.30648	0.01823
3856.02071	0.01854
3854.73494	0.01929
3853.44917	0.01967
3852.16341	0.01912
3850.87764	0.01805
3849.59187	0.01740
3848.30610	0.01771
3847.02033	0.01890
3845.73456	0.02038
3844.44879	0.02151
3843.16302	0.02182
3841.87725	0.02126
3840.59149	0.02023
3839.30572	0.01922
3838.01995	0.01849
3836.73418	0.01810
3835.44841	0.01810
3834.16264	0.01850
3832.87687	0.01919
3831.59110	0.01997
3830.30534	0.02062
3829.01957	0.02098
3827.73380	0.02099
3826.44803	0.02074
3825.16226	0.02045
3823.87649	0.02031
3822.59072	0.02033
3821.30495	0.02027
3820.01918	0.02003
3818.73342	0.01986
3817.44765	0.01999
3816.16188	0.02028
3814.87611	0.02043
3813.59034	0.02043
3812.30457	0.02038
3811.01880	0.02036
3809.73303	0.02041
3808.44726	0.02048
3807.16150	0.02039
3805.87573	0.02009
3804.58996	0.01990
3803.30419	0.02004
3802.01842	0.02020
3800.73265	0.01997
3799.44688	0.01960
3798.16111	0.01964
3796.87535	0.02014
3795.58958	0.02054
3794.30381	0.02046
3793.01804	0.02015
3791.73227	0.02004
3790.44650	0.02015
3789.16073	0.02011
3787.87496	0.01967
3786.58919	0.01913
3785.30343	0.01888
3784.01766	0.01899
3782.73189	0.01925
3781.44612	0.01951
3780.16035	0.01976
3778.87458	0.01999
3777.58881	0.02002
3776.30304	0.01968
3775.01728	0.01898
3773.73151	0.01823
3772.44574	0.01789
3771.15997	0.01818
3769.87420	0.01880
3768.58843	0.01924
3767.30266	0.01928
3766.01689	0.01906
3764.73112	0.01886
3763.44536	0.01880
3762.15959	0.01879
3760.87382	0.01871
3759.58805	0.01857
3758.30228	0.01842
3757.01651	0.01831
3755.73074	0.01830
3754.44497	0.01843
3753.15921	0.01862
3751.87344	0.01869
3750.58767	0.01876
3749.30190	0.01899
3748.01613	0.01942
3746.73036	0.01988
3745.44459	0.02017
3744.15882	0.02016
3742.87305	0.02011
3741.58729	0.02030
3740.30152	0.02051
3739.01575	0.02026
3737.72998	0.01958
3736.44421	0.01894
3735.15844	0.01873
3733.87267	0.01894
3732.58690	0.01916
3731.30114	0.01899
3730.01537	0.01851
3728.72960	0.01820
3727.44383	0.01842
3726.15806	0.01908
3724.87229	0.01979
3723.58652	0.02019
3722.30075	0.02002
3721.01498	0.01932
3719.72922	0.01846
3718.44345	0.01798
3717.15768	0.01822
3715.87191	0.01897
3714.58614	0.01972
3713.30037	0.02002
3712.01460	0.01978
3710.72883	0.01920
3709.44307	0.01855
3708.15730	0.01799
3706.87153	0.01765
3705.58576	0.01766
3704.29999	0.01803
3703.01422	0.01851
3701.72845	0.01878
3700.44268	0.01875
3699.15691	0.01865
3697.87115	0.01863
3696.58538	0.01855
3695.29961	0.01828
3694.01384	0.01790
3692.72807	0.01762
3691.44230	0.01770
3690.15653	0.01828
3688.87076	0.01925
3687.58500	0.02014
3686.29923	0.02051
3685.01346	0.02020
3683.72769	0.01943
3682.44192	0.01874
3681.15615	0.01863
3679.87038	0.01935
3678.58461	0.02077
3677.29884	0.02224
3676.01308	0.02283
3674.72731	0.02203
3673.44154	0.02039
3672.15577	0.01903
3670.87000	0.01850
3669.58423	0.01848
3668.29846	0.01850
3667.01269	0.01851
3665.72693	0.01865
3664.44116	0.01897
3663.15539	0.01930
3661.86962	0.01954
3660.58385	0.01977
3659.29808	0.02004
3658.01231	0.02015
3656.72654	0.01995
3655.44077	0.01963
3654.15501	0.01962
3652.86924	0.02001
3651.58347	0.02026
3650.29770	0.01989
3649.01193	0.01910
3647.72616	0.01855
3646.44039	0.01859
3645.15462	0.01900
3643.86886	0.01937
3642.58309	0.01954
3641.29732	0.01958
3640.01155	0.01961
3638.72578	0.01973
3637.44001	0.01996
3636.15424	0.02019
3634.86847	0.02028
3633.58270	0.02016
3632.29694	0.01998
3631.01117	0.01998
3629.72540	0.02027
3628.43963	0.02073
3627.15386	0.02129
3625.86809	0.02192
3624.58232	0.02260
3623.29655	0.02330
3622.01079	0.02392
3620.72502	0.02434
3619.43925	0.02437
3618.15348	0.02408
3616.86771	0.02373
3615.58194	0.02358
3614.29617	0.02367
3613.01040	0.02388
3611.72463	0.02411
3610.43887	0.02426
3609.15310	0.02426
3607.86733	0.02412
3606.58156	0.02394
3605.29579	0.02382
3604.01002	0.02378
3602.72425	0.02398
3601.43848	0.02452
3600.15272	0.02522
3598.86695	0.02570
3597.58118	0.02580
3596.29541	0.02563
3595.00964	0.02537
3593.72387	0.02515
3592.43810	0.02507
3591.15233	0.02522
3589.86656	0.02556
3588.58080	0.02583
3587.29503	0.02573
3586.00926	0.02525
3584.72349	0.02470
3583.43772	0.02440
3582.15195	0.02438
3580.86618	0.02442
3579.58041	0.02443
3578.29464	0.02456
3577.00888	0.02504
3575.72311	0.02574
3574.43734	0.02624
3573.15157	0.02628
3571.86580	0.02600
3570.58003	0.02579
3569.29426	0.02582
3568.00849	0.02597
3566.72273	0.02615
3565.43696	0.02650
3564.15119	0.02707
3562.86542	0.02761
3561.57965	0.02772
3560.29388	0.02733
3559.00811	0.02682
3557.72234	0.02664
3556.43657	0.02692
3555.15081	0.02747
3553.86504	0.02799
3552.57927	0.02834
3551.29350	0.02861
3550.00773	0.02893
3548.72196	0.02937
3547.43619	0.02992
3546.15042	0.03047
3544.86466	0.03078
3543.57889	0.03070
3542.29312	0.03030
3541.00735	0.02995
3539.72158	0.02999
3538.43581	0.03032
3537.15004	0.03057
3535.86427	0.03050
3534.57850	0.03038
3533.29274	0.03066
3532.00697	0.03147
3530.72120	0.03240
3529.43543	0.03284
3528.14966	0.03260
3526.86389	0.03210
3525.57812	0.03198
3524.29235	0.03252
3523.00659	0.03336
3521.72082	0.03393
3520.43505	0.03389
3519.14928	0.03339
3517.86351	0.03279
3516.57774	0.03239
3515.29197	0.03236
3514.00620	0.03274
3512.72043	0.03331
3511.43467	0.03362
3510.14890	0.03331
3508.86313	0.03256
3507.57736	0.03190
3506.29159	0.03177
3505.00582	0.03212
3503.72005	0.03260
3502.43428	0.03296
3501.14852	0.03326
3499.86275	0.03362
3498.57698	0.03398
3497.29121	0.03413
3496.00544	0.03393
3494.71967	0.03354
3493.43390	0.03335
3492.14813	0.03356
3490.86236	0.03402
3489.57660	0.03443
3488.29083	0.03468
3487.00506	0.03483
3485.71929	0.03498
3484.43352	0.03513
3483.14775	0.03530
3481.86198	0.03549
3480.57621	0.03574
3479.29045	0.03602
3478.00468	0.03630
3476.71891	0.03653
3475.43314	0.03667
3474.14737	0.03669
3472.86160	0.03661
3471.57583	0.03645
3470.29006	0.03627
3469.00429	0.03614
3467.71853	0.03614
3466.43276	0.03634
3465.14699	0.03672
3463.86122	0.03719
3462.57545	0.03764
3461.28968	0.03798
3460.00391	0.03821
3458.71814	0.03832
3457.43238	0.03831
3456.14661	0.03822
3454.86084	0.03816
3453.57507	0.03827
3452.28930	0.03862
3451.00353	0.03910
3449.71776	0.03943
3448.43199	0.03944
3447.14622	0.03922
3445.86046	0.03902
3444.57469	0.03898
3443.28892	0.03905
3442.00315	0.03910
3440.71738	0.03908
3439.43161	0.03898
3438.14584	0.03887
3436.86007	0.03887
3435.57431	0.03903
3434.28854	0.03929
3433.00277	0.03952
3431.71700	0.03966
3430.43123	0.03976
3429.14546	0.03991
3427.85969	0.04017
3426.57392	0.04048
3425.28815	0.04080
3424.00239	0.04111
3422.71662	0.04140
3421.43085	0.04155
3420.14508	0.04138
3418.85931	0.04082
3417.57354	0.04007
3416.28777	0.03953
3415.00200	0.03943
3413.71624	0.03967
3412.43047	0.03988
3411.14470	0.03985
3409.85893	0.03971
3408.57316	0.03977
3407.28739	0.04012
3406.00162	0.04055
3404.71585	0.04088
3403.43008	0.04120
3402.14432	0.04165
3400.85855	0.04217
3399.57278	0.04242
3398.28701	0.04212
3397.00124	0.04144
3395.71547	0.04085
3394.42970	0.04074
3393.14393	0.04114
3391.85817	0.04171
3390.57240	0.04209
3389.28663	0.04222
3388.00086	0.04225
3386.71509	0.04226
3385.42932	0.04214
3384.14355	0.04179
3382.85778	0.04140
3381.57201	0.04130
3380.28625	0.04157
3379.00048	0.04199
3377.71471	0.04225
3376.42894	0.04225
3375.14317	0.04207
3373.85740	0.04191
3372.57163	0.04189
3371.28586	0.04206
3370.00010	0.04245
3368.71433	0.04303
3367.42856	0.04367
3366.14279	0.04407
3364.85702	0.04402
3363.57125	0.04350
3362.28548	0.04272
3360.99971	0.04196
3359.71394	0.04142
3358.42818	0.04124
3357.14241	0.04145
3355.85664	0.04198
3354.57087	0.04264
3353.28510	0.04318
3351.99933	0.04347
3350.71356	0.04356
3349.42779	0.04366
3348.14202	0.04377
3346.85626	0.04370
3345.57049	0.04332
3344.28472	0.04286
3342.99895	0.04271
3341.71318	0.04302
3340.42741	0.04353
3339.14164	0.04375
3337.85587	0.04347
3336.57011	0.04289
3335.28434	0.04241
3333.99857	0.04223
3332.71280	0.04225
3331.42703	0.04225
3330.14126	0.04220
3328.85549	0.04224
3327.56972	0.04243
3326.28395	0.04263
3324.99819	0.04263
3323.71242	0.04240
3322.42665	0.04211
3321.14088	0.04190
3319.85511	0.04174
3318.56934	0.04153
3317.28357	0.04134
3315.99780	0.04138
3314.71204	0.04179
3313.42627	0.04244
3312.14050	0.04297
3310.85473	0.04317
3309.56896	0.04305
3308.28319	0.04279
3306.99742	0.04260
3305.71165	0.04256
3304.42588	0.04272
3303.14012	0.04307
3301.85435	0.04357
3300.56858	0.04403
3299.28281	0.04427
3297.99704	0.04412
3296.71127	0.04363
3295.42550	0.04306
3294.13973	0.04263
3292.85397	0.04238
3291.56820	0.04213
3290.28243	0.04181
3288.99666	0.04159
3287.71089	0.04164
3286.42512	0.04189
3285.13935	0.04214
3283.85358	0.04230
3282.56781	0.04248
3281.28205	0.04275
3279.99628	0.04302
3278.71051	0.04315
3277.42474	0.04316
3276.13897	0.04306
3274.85320	0.04285
3273.56743	0.04252
3272.28166	0.04222
3270.99590	0.04216
3269.71013	0.04239
3268.42436	0.04274
3267.13859	0.04299
3265.85282	0.04307
3264.56705	0.04312
3263.28128	0.04328
3261.99551	0.04348
3260.70974	0.04351
3259.42398	0.04317
3258.13821	0.04257
3256.85244	0.04195
3255.56667	0.04152
3254.28090	0.04128
3252.99513	0.04115
3251.70936	0.04105
3250.42359	0.04099
3249.13783	0.04102
3247.85206	0.04127
3246.56629	0.04171
3245.28052	0.04216
3243.99475	0.04237
3242.70898	0.04228
3241.42321	0.04204
3240.13744	0.04185
3238.85167	0.04184
3237.56591	0.04199
3236.28014	0.04219
3234.99437	0.04224
3233.70860	0.04201
3232.42283	0.04158
3231.13706	0.04127
3229.85129	0.04128
3228.56552	0.04158
3227.27976	0.04199
3225.99399	0.04230
3224.70822	0.04244
3223.42245	0.04242
3222.13668	0.04229
3220.85091	0.04211
3219.56514	0.04188
3218.27937	0.04156
3216.99360	0.04117
3215.70784	0.04085
3214.42207	0.04074
3213.13630	0.04083
3211.85053	0.04094
3210.56476	0.04090
3209.27899	0.04082
3207.99322	0.04094
3206.70745	0.04137
3205.42169	0.04188
3204.13592	0.04201
3202.85015	0.04157
3201.56438	0.04085
3200.27861	0.04036
3198.99284	0.04031
3197.70707	0.04049
3196.42130	0.04054
3195.13553	0.04035
3193.84977	0.04014
3192.56400	0.04018
3191.27823	0.04051
3189.99246	0.04090
3188.70669	0.04107
3187.42092	0.04100
3186.13515	0.04091
3184.84938	0.04087
3183.56362	0.04073
3182.27785	0.04036
3180.99208	0.03990
3179.70631	0.03959
3178.42054	0.03953
3177.13477	0.03958
3175.84900	0.03959
3174.56323	0.03950
3173.27746	0.03938
3171.99170	0.03933
3170.70593	0.03935
3169.42016	0.03934
3168.13439	0.03916
3166.84862	0.03878
3165.56285	0.03840
3164.27708	0.03821
3162.99131	0.03831
3161.70555	0.03865
3160.41978	0.03908
3159.13401	0.03945
3157.84824	0.03967
3156.56247	0.03976
3155.27670	0.03980
3153.99093	0.03978
3152.70516	0.03962
3151.41939	0.03929
3150.13363	0.03898
3148.84786	0.03898
3147.56209	0.03934
3146.27632	0.03985
3144.99055	0.04020
3143.70478	0.04019
3142.41901	0.03983
3141.13324	0.03924
3139.84748	0.03860
3138.56171	0.03808
3137.27594	0.03776
3135.99017	0.03767
3134.70440	0.03780
3133.41863	0.03807
3132.13286	0.03835
3130.84709	0.03850
3129.56132	0.03848
3128.27556	0.03834
3126.98979	0.03819
3125.70402	0.03813
3124.41825	0.03817
3123.13248	0.03821
3121.84671	0.03813
3120.56094	0.03782
3119.27517	0.03725
3117.98940	0.03657
3116.70364	0.03604
3115.41787	0.03587
3114.13210	0.03605
3112.84633	0.03640
3111.56056	0.03677
3110.27479	0.03707
3108.98902	0.03721
3107.70325	0.03708
3106.41749	0.03671
3105.13172	0.03632
3103.84595	0.03618
3102.56018	0.03636
3101.27441	0.03671
3099.98864	0.03706
3098.70287	0.03733
3097.41710	0.03753
3096.13133	0.03763
3094.84557	0.03757
3093.55980	0.03733
3092.27403	0.03698
3090.98826	0.03661
3089.70249	0.03633
3088.41672	0.03621
3087.13095	0.03625
3085.84518	0.03637
3084.55942	0.03645
3083.27365	0.03646
3081.98788	0.03647
3080.70211	0.03652
3079.41634	0.03655
3078.13057	0.03655
3076.84480	0.03653
3075.55903	0.03660
3074.27326	0.03673
3072.98750	0.03682
3071.70173	0.03678
3070.41596	0.03659
3069.13019	0.03625
3067.84442	0.03586
3066.55865	0.03559
3065.27288	0.03564
3063.98711	0.03604
3062.70135	0.03658
3061.41558	0.03696
3060.12981	0.03699
3058.84404	0.03678
3057.55827	0.03661
3056.27250	0.03660
3054.98673	0.03662
3053.70096	0.03648
3052.41519	0.03616
3051.12943	0.03582
3049.84366	0.03553
3048.55789	0.03534
3047.27212	0.03526
3045.98635	0.03532
3044.70058	0.03543
3043.41481	0.03544
3042.12904	0.03525
3040.84328	0.03499
3039.55751	0.03497
3038.27174	0.03536
3036.98597	0.03595
3035.70020	0.03633
3034.41443	0.03620
3033.12866	0.03567
3031.84289	0.03506
3030.55712	0.03461
3029.27136	0.03439
3027.98559	0.03431
3026.69982	0.03427
3025.41405	0.03422
3024.12828	0.03412
3022.84251	0.03398
3021.55674	0.03388
3020.27097	0.03392
3018.98521	0.03405
3017.69944	0.03409
3016.41367	0.03395
3015.12790	0.03366
3013.84213	0.03337
3012.55636	0.03321
3011.27059	0.03321
3009.98482	0.03329
3008.69905	0.03332
3007.41329	0.03330
3006.12752	0.03331
3004.84175	0.03345
3003.55598	0.03370
3002.27021	0.03394
3000.98444	0.03406
2999.69867	0.03406
2998.41290	0.03401
2997.12714	0.03404
2995.84137	0.03416
2994.55560	0.03422
2993.26983	0.03410
2991.98406	0.03379
2990.69829	0.03336
2989.41252	0.03300
2988.12675	0.03287
2986.84098	0.03299
2985.55522	0.03316
2984.26945	0.03317
2982.98368	0.03294
2981.69791	0.03262
2980.41214	0.03250
2979.12637	0.03269
2977.84060	0.03306
2976.55483	0.03334
2975.26907	0.03338
2973.98330	0.03326
2972.69753	0.03317
2971.41176	0.03326
2970.12599	0.03354
2968.84022	0.03390
2967.55445	0.03425
2966.26868	0.03460
2964.98291	0.03498
2963.69715	0.03526
2962.41138	0.03531
2961.12561	0.03522
2959.83984	0.03523
2958.55407	0.03545
2957.26830	0.03578
2955.98253	0.03609
2954.69676	0.03639
2953.41100	0.03665
2952.12523	0.03675
2950.83946	0.03658
2949.55369	0.03622
2948.26792	0.03590
2946.98215	0.03572
2945.69638	0.03564
2944.41061	0.03560
2943.12484	0.03559
2941.83908	0.03556
2940.55331	0.03539
2939.26754	0.03506
2937.98177	0.03477
2936.69600	0.03469
2935.41023	0.03476
2934.12446	0.03472
2932.83869	0.03438
2931.55293	0.03377
2930.26716	0.03303
2928.98139	0.03230
2927.69562	0.03168
2926.40985	0.03115
2925.12408	0.03061
2923.83831	0.02988
2922.55254	0.02889
2921.26677	0.02773
2919.98101	0.02665
2918.69524	0.02588
2917.40947	0.02557
2916.12370	0.02579
2914.83793	0.02658
2913.55216	0.02781
2912.26639	0.02925
2910.98062	0.03071
2909.69486	0.03196
2908.40909	0.03284
2907.12332	0.03331
2905.83755	0.03349
2904.55178	0.03353
2903.26601	0.03352
2901.98024	0.03350
2900.69447	0.03352
2899.40870	0.03364
2898.12294	0.03389
2896.83717	0.03421
2895.55140	0.03443
2894.26563	0.03441
2892.97986	0.03414
2891.69409	0.03374
2890.40832	0.03333
2889.12255	0.03303
2887.83678	0.03286
2886.55102	0.03283
2885.26525	0.03290
2883.97948	0.03307
2882.69371	0.03324
2881.40794	0.03333
2880.12217	0.03330
2878.83640	0.03329
2877.55063	0.03344
2876.26487	0.03377
2874.97910	0.03420
2873.69333	0.03460
2872.40756	0.03490
2871.12179	0.03503
2869.83602	0.03496
2868.55025	0.03472
2867.26448	0.03435
2865.97871	0.03389
2864.69295	0.03341
2863.40718	0.03298
2862.12141	0.03267
2860.83564	0.03247
2859.54987	0.03224
2858.26410	0.03175
2856.97833	0.03084
2855.69256	0.02955
2854.40680	0.02813
2853.12103	0.02686
2851.83526	0.02593
2850.54949	0.02549
2849.26372	0.02562
2847.97795	0.02631
2846.69218	0.02743
2845.40641	0.02872
2844.12064	0.02989
2842.83488	0.03071
2841.54911	0.03113
2840.26334	0.03126
2838.97757	0.03127
2837.69180	0.03126
2836.40603	0.03120
2835.12026	0.03102
2833.83449	0.03074
2832.54873	0.03039
2831.26296	0.03005
2829.97719	0.02984
2828.69142	0.02986
2827.40565	0.03008
2826.11988	0.03034
2824.83411	0.03049
2823.54834	0.03049
2822.26257	0.03037
2820.97681	0.03018
2819.69104	0.02997
2818.40527	0.02978
2817.11950	0.02962
2815.83373	0.02946
2814.54796	0.02931
2813.26219	0.02925
2811.97642	0.02934
2810.69066	0.02956
2809.40489	0.02976
2808.11912	0.02976
2806.83335	0.02955
2805.54758	0.02919
2804.26181	0.02878
2802.97604	0.02840
2801.69027	0.02815
2800.40450	0.02813
2799.11874	0.02826
2797.83297	0.02826
2796.54720	0.02799
2795.26143	0.02767
2793.97566	0.02765
2792.68989	0.02795
2791.40412	0.02824
2790.11835	0.02824
2788.83259	0.02802
2787.54682	0.02781
2786.26105	0.02768
2784.97528	0.02759
2783.68951	0.02749
2782.40374	0.02744
2781.11797	0.02751
2779.83220	0.02771
2778.54643	0.02798
2777.26067	0.02823
2775.97490	0.02836
2774.68913	0.02828
2773.40336	0.02805
2772.11759	0.02778
2770.83182	0.02757
2769.54605	0.02737
2768.26028	0.02717
2766.97452	0.02702
2765.68875	0.02705
2764.40298	0.02725
2763.11721	0.02746
2761.83144	0.02756
2760.54567	0.02751
2759.25990	0.02734
2757.97413	0.02708
2756.68836	0.02682
2755.40260	0.02669
2754.11683	0.02675
2752.83106	0.02689
2751.54529	0.02689
2750.25952	0.02666
2748.97375	0.02635
2747.68798	0.02613
2746.40221	0.02604
2745.11645	0.02596
2743.83068	0.02585
2742.54491	0.02573
2741.25914	0.02568
2739.97337	0.02567
2738.68760	0.02565
2737.40183	0.02561
2736.11606	0.02555
2734.83029	0.02558
2733.54453	0.02578
2732.25876	0.02609
2730.97299	0.02632
2729.68722	0.02629
2728.40145	0.02601
2727.11568	0.02570
2725.82991	0.02557
2724.54414	0.02563
2723.25838	0.02578
2721.97261	0.02589
2720.68684	0.02594
2719.40107	0.02593
2718.11530	0.02587
2716.82953	0.02575
2715.54376	0.02564
2714.25799	0.02559
2712.97222	0.02563
2711.68646	0.02573
2710.40069	0.02580
2709.11492	0.02578
2707.82915	0.02564
2706.54338	0.02547
2705.25761	0.02544
2703.97184	0.02558
2702.68607	0.02572
2701.40031	0.02570
2700.11454	0.02550
2698.82877	0.02527
2697.54300	0.02513
2696.25723	0.02507
2694.97146	0.02499
2693.68569	0.02485
2692.39992	0.02469
2691.11415	0.02464
2689.82839	0.02476
2688.54262	0.02496
2687.25685	0.02509
2685.97108	0.02505
2684.68531	0.02485
2683.39954	0.02461
2682.11377	0.02446
2680.82800	0.02446
2679.54224	0.02453
2678.25647	0.02461
2676.97070	0.02463
2675.68493	0.02460
2674.39916	0.02455
2673.11339	0.02447
2671.82762	0.02434
2670.54185	0.02417
2669.25608	0.02409
2667.97032	0.02418
2666.68455	0.02443
2665.39878	0.02469
2664.11301	0.02482
2662.82724	0.02474
2661.54147	0.02447
2660.25570	0.02415
2658.96993	0.02397
2657.68417	0.02400
2656.39840	0.02414
2655.11263	0.02424
2653.82686	0.02427
2652.54109	0.02417
2651.25532	0.02392
2649.96955	0.02357
2648.68378	0.02325
2647.39801	0.02309
2646.11225	0.02309
2644.82648	0.02323
2643.54071	0.02348
2642.25494	0.02369
2640.96917	0.02365
2639.68340	0.02330
2638.39763	0.02283
2637.11186	0.02253
2635.82609	0.02245
2634.54033	0.02247
2633.25456	0.02243
2631.96879	0.02231
2630.68302	0.02219
2629.39725	0.02210
2628.11148	0.02195
2626.82571	0.02167
2625.53994	0.02131
2624.25418	0.02099
2622.96841	0.02082
2621.68264	0.02081
2620.39687	0.02092
2619.11110	0.02108
2617.82533	0.02118
2616.53956	0.02116
2615.25379	0.02105
2613.96802	0.02088
2612.68226	0.02071
2611.39649	0.02054
2610.11072	0.02040
2608.82495	0.02031
2607.53918	0.02033
2606.25341	0.02058
2604.96764	0.02109
2603.68187	0.02165
2602.39611	0.02195
2601.11034	0.02191
2599.82457	0.02170
2598.53880	0.02154
2597.25303	0.02148
2595.96726	0.02142
2594.68149	0.02123
2593.39572	0.02087
2592.10995	0.02050
2590.82419	0.02027
2589.53842	0.02017
2588.25265	0.01993
2586.96688	0.01948
2585.68111	0.01911
2584.39534	0.01917
2583.10957	0.01961
2581.82380	0.01999
2580.53804	0.01997
2579.25227	0.01960
2577.96650	0.01921
2576.68073	0.01907
2575.39496	0.01916
2574.10919	0.01923
2572.82342	0.01908
2571.53765	0.01878
2570.25188	0.01859
2568.96612	0.01868
2567.68035	0.01895
2566.39458	0.01910
2565.10881	0.01894
2563.82304	0.01853
2562.53727	0.01813
2561.25150	0.01798
2559.96573	0.01815
2558.67997	0.01855
2557.39420	0.01896
2556.10843	0.01912
2554.82266	0.01890
2553.53689	0.01836
2552.25112	0.01780
2550.96535	0.01756
2549.67958	0.01778
2548.39381	0.01834
2547.10805	0.01890
2545.82228	0.01918
2544.53651	0.01909
2543.25074	0.01875
2541.96497	0.01834
2540.67920	0.01799
2539.39343	0.01775
2538.10766	0.01766
2536.82190	0.01772
2535.53613	0.01789
2534.25036	0.01810
2532.96459	0.01826
2531.67882	0.01833
2530.39305	0.01832
2529.10728	0.01832
2527.82151	0.01838
2526.53574	0.01845
2525.24998	0.01839
2523.96421	0.01817
2522.67844	0.01795
2521.39267	0.01788
2520.10690	0.01793
2518.82113	0.01796
2517.53536	0.01791
2516.24959	0.01783
2514.96383	0.01782
2513.67806	0.01792
2512.39229	0.01810
2511.10652	0.01827
2509.82075	0.01833
2508.53498	0.01820
2507.24921	0.01793
2505.96344	0.01767
2504.67767	0.01753
2503.39191	0.01755
2502.10614	0.01770
2500.82037	0.01789
2499.53460	0.01799
2498.24883	0.01791
2496.96306	0.01772
2495.67729	0.01758
2494.39152	0.01759
2493.10576	0.01767
2491.81999	0.01773
2490.53422	0.01776
2489.24845	0.01781
2487.96268	0.01789
2486.67691	0.01795
2485.39114	0.01793
2484.10537	0.01778
2482.81960	0.01753
2481.53384	0.01731
2480.24807	0.01723
2478.96230	0.01725
2477.67653	0.01724
2476.39076	0.01716
2475.10499	0.01708
2473.81922	0.01704
2472.53345	0.01698
2471.24769	0.01686
2469.96192	0.01673
2468.67615	0.01663
2467.39038	0.01658
2466.10461	0.01653
2464.81884	0.01644
2463.53307	0.01634
2462.24730	0.01635
2460.96153	0.01655
2459.67577	0.01687
2458.39000	0.01718
2457.10423	0.01739
2455.81846	0.01754
2454.53269	0.01764
2453.24692	0.01761
2451.96115	0.01741
2450.67538	0.01719
2449.38962	0.01717
2448.10385	0.01734
2446.81808	0.01751
2445.53231	0.01756
2444.24654	0.01760
2442.96077	0.01769
2441.67500	0.01769
2440.38923	0.01736
2439.10346	0.01674
2437.81770	0.01614
2436.53193	0.01591
2435.24616	0.01610
2433.96039	0.01642
2432.67462	0.01654
2431.38885	0.01639
2430.10308	0.01617
2428.81731	0.01611
2427.53155	0.01620
2426.24578	0.01629
2424.96001	0.01628
2423.67424	0.01624
2422.38847	0.01631
2421.10270	0.01658
2419.81693	0.01693
2418.53116	0.01710
2417.24539	0.01698
2415.95963	0.01671
2414.67386	0.01651
2413.38809	0.01640
2412.10232	0.01625
2410.81655	0.01598
2409.53078	0.01567
2408.24501	0.01547
2406.95924	0.01546
2405.67347	0.01564
2404.38771	0.01595
2403.10194	0.01630
2401.81617	0.01660
2400.53040	0.01684
2399.24463	0.01686
2397.95886	0.01700
2396.67309	0.01713
2395.38732	0.01707
2394.10156	0.01684
2392.81579	0.01662
2391.53002	0.01654
2390.24425	0.01660
2388.95848	0.01669
2387.67271	0.01670
2386.38694	0.01663
2385.10117	0.01656
2383.81540	0.01665
2382.52964	0.01701
2381.24387	0.01765
2379.95810	0.01847
2378.67233	0.01924
2377.38656	0.01978
2376.10079	0.02002
2374.81502	0.02009
2373.52925	0.02007
2372.24349	0.02010
2370.95772	0.02022
2369.67195	0.02062
2368.38618	0.02120
2367.10041	0.02168
2365.81464	0.02180
2364.52887	0.02178
2363.24310	0.02181
2361.95733	0.02198
2360.67157	0.02215
2359.38580	0.02237
2358.10003	0.02249
2356.81426	0.02249
2355.52849	0.02240
2354.24272	0.02225
2352.95695	0.02212
2351.67118	0.02197
2350.38542	0.02180
2349.09965	0.02171
2347.81388	0.02168
2346.52811	0.02134
2345.24234	0.02076
2343.95657	0.02035
2342.67080	0.02034
2341.38503	0.02031
2340.09926	0.02013
2338.81350	0.02040
2337.52773	0.02116
2336.24196	0.02164
2334.95619	0.02180
2333.67042	0.02231
2332.38465	0.02312
2331.09888	0.02330
2329.81311	0.02366
2328.52735	0.02500
2327.24158	0.02569
2325.95581	0.02554
2324.67004	0.02527
2323.38427	0.02395
2322.09850	0.02182
2320.81273	0.02039
2319.52696	0.01907
2318.24119	0.01803
2316.95543	0.01778
2315.66966	0.01746
2314.38389	0.01709
2313.09812	0.01693
2311.81235	0.01659
2310.52658	0.01648
2309.24081	0.01657
2307.95504	0.01670
2306.66928	0.01697
2305.38351	0.01702
2304.09774	0.01691
2302.81197	0.01679
2301.52620	0.01671
2300.24043	0.01677
2298.95466	0.01688
2297.66889	0.01709
2296.38312	0.01737
2295.09736	0.01759
2293.81159	0.01767
2292.52582	0.01764
2291.24005	0.01762
2289.95428	0.01757
2288.66851	0.01732
2287.38274	0.01677
2286.09697	0.01599
2284.81121	0.01522
2283.52544	0.01465
2282.23967	0.01429
2280.95390	0.01408
2279.66813	0.01394
2278.38236	0.01372
2277.09659	0.01323
2275.81082	0.01253
2274.52505	0.01197
2273.23929	0.01200
2271.95352	0.01265
2270.66775	0.01348
2269.38198	0.01402
2268.09621	0.01412
2266.81044	0.01403
2265.52467	0.01413
2264.23890	0.01465
2262.95314	0.01539
2261.66737	0.01580
2260.38160	0.01549
2259.09583	0.01452
2257.81006	0.01335
2256.52429	0.01246
2255.23852	0.01213
2253.95275	0.01236
2252.66698	0.01295
2251.38122	0.01358
2250.09545	0.01351
2248.80968	0.01252
2247.52391	0.01246
2246.23814	0.01227
2244.95237	0.01194
2243.66660	0.01163
2242.38083	0.01139
2241.09507	0.01111
2239.80930	0.01065
2238.52353	0.01015
2237.23776	0.00992
2235.95199	0.01012
2234.66622	0.01059
2233.38045	0.01099
2232.09468	0.01103
2230.80891	0.01056
2229.52315	0.00970
2228.23738	0.00879
2226.95161	0.00821
2225.66584	0.00803
2224.38007	0.00804
2223.09430	0.00810
2221.80853	0.00825
2220.52276	0.00854
2219.23700	0.00879
2217.95123	0.00876
2216.66546	0.00839
2215.37969	0.00789
2214.09392	0.00758
2212.80815	0.00756
2211.52238	0.00778
2210.23661	0.00824
2208.95084	0.00898
2207.66508	0.00982
2206.37931	0.01038
2205.09354	0.01044
2203.80777	0.01032
2202.52200	0.01046
2201.23623	0.01087
2199.95046	0.01112
2198.66469	0.01085
2197.37893	0.01013
2196.09316	0.00931
2194.80739	0.00874
2193.52162	0.00866
2192.23585	0.00910
2190.95008	0.00978
2189.66431	0.01023
2188.37854	0.01013
2187.09277	0.00968
2185.80701	0.00939
2184.52124	0.00943
2183.23547	0.00936
2181.94970	0.00853
2180.66393	0.00696
2179.37816	0.00537
2178.09239	0.00460
2176.80662	0.00484
2175.52085	0.00556
2174.23509	0.00610
2172.94932	0.00620
2171.66355	0.00618
2170.37778	0.00642
2169.09201	0.00681
2167.80624	0.00674
2166.52047	0.00574
2165.23470	0.00419
2163.94894	0.00315
2162.66317	0.00335
2161.37740	0.00444
2160.09163	0.00533
2158.80586	0.00523
2157.52009	0.00417
2156.23432	0.00278
2154.94855	0.00171
2153.66278	0.00140
2152.37702	0.00184
2151.09125	0.00271
2149.80548	0.00368
2148.51971	0.00458
2147.23394	0.00526
2145.94817	0.00561
2144.66240	0.00570
2143.37663	0.00567
2142.09087	0.00558
2140.80510	0.00548
2139.51933	0.00548
2138.23356	0.00560
2136.94779	0.00570
2135.66202	0.00573
2134.37625	0.00595
2133.09048	0.00651
2131.80471	0.00718
2130.51895	0.00763
2129.23318	0.00778
2127.94741	0.00777
2126.66164	0.00775
2125.37587	0.00778
2124.09010	0.00785
2122.80433	0.00791
2121.51856	0.00796
2120.23280	0.00804
2118.94703	0.00815
2117.66126	0.00820
2116.37549	0.00812
2115.08972	0.00796
2113.80395	0.00775
2112.51818	0.00754
2111.23241	0.00742
2109.94664	0.00762
2108.66088	0.00826
2107.37511	0.00913
2106.08934	0.00970
2104.80357	0.00957
2103.51780	0.00883
2102.23203	0.00789
2100.94626	0.00711
2099.66049	0.00697
2098.37473	0.00672
2097.08896	0.00632
2095.80319	0.00602
2094.51742	0.00594
2093.23165	0.00612
2091.94588	0.00647
2090.66011	0.00682
2089.37434	0.00705
2088.08857	0.00717
2086.80281	0.00726
2085.51704	0.00735
2084.23127	0.00741
2082.94550	0.00738
2081.65973	0.00733
2080.37396	0.00748
2079.08819	0.00792
2077.80242	0.00843
2076.51666	0.00862
2075.23089	0.00832
2073.94512	0.00768
2072.65935	0.00696
2071.37358	0.00635
2070.08781	0.00594
2068.80204	0.00580
2067.51627	0.00590
2066.23050	0.00614
2064.94474	0.00647
2063.65897	0.00690
2062.37320	0.00741
2061.08743	0.00776
2059.80166	0.00768
2058.51589	0.00714
2057.23012	0.00637
2055.94435	0.00564
2054.65859	0.00508
2053.37282	0.00472
2052.08705	0.00464
2050.80128	0.00484
2049.51551	0.00512
2048.22974	0.00524
2046.94397	0.00513
2045.65820	0.00487
2044.37243	0.00454
2043.08667	0.00412
2041.80090	0.00361
2040.51513	0.00311
2039.22936	0.00264
2037.94359	0.00210
2036.65782	0.00159
2035.37205	0.00143
2034.08628	0.00187
2032.80052	0.00271
2031.51475	0.00359
2030.22898	0.00442
2028.94321	0.00540
2027.65744	0.00651
2026.37167	0.00728
2025.08590	0.00715
2023.80013	0.00606
2022.51436	0.00457
2021.22860	0.00335
2019.94283	0.00258
2018.65706	0.00194
2017.37129	0.00118
2016.08552	0.00049
2014.79975	0.00039
2013.51398	0.00124
2012.22821	0.00287
2010.94245	0.00449
2009.65668	0.00509
2008.37091	0.00430
2007.08514	0.00286
2005.79937	0.00198
2004.51360	0.00228
2003.22783	0.00342
2001.94206	0.00472
2000.65629	0.00581
1999.37053	0.00655
1998.08476	0.00683
1996.79899	0.00657
1995.51322	0.00596
1994.22745	0.00550
1992.94168	0.00560
1991.65591	0.00635
1990.37014	0.00738
1989.08438	0.00820
1987.79861	0.00846
1986.51284	0.00816
1985.22707	0.00767
1983.94130	0.00745
1982.65553	0.00764
1981.36976	0.00799
1980.08399	0.00821
1978.79822	0.00826
1977.51246	0.00831
1976.22669	0.00837
1974.94092	0.00820
1973.65515	0.00770
1972.36938	0.00703
1971.08361	0.00641
1969.79784	0.00587
1968.51207	0.00547
1967.22631	0.00542
1965.94054	0.00582
1964.65477	0.00645
1963.36900	0.00682
1962.08323	0.00661
1960.79746	0.00601
1959.51169	0.00549
1958.22592	0.00551
1956.94015	0.00612
1955.65439	0.00698
1954.36862	0.00764
1953.08285	0.00787
1951.79708	0.00773
1950.51131	0.00742
1949.22554	0.00708
1947.93977	0.00672
1946.65400	0.00635
1945.36823	0.00606
1944.08247	0.00602
1942.79670	0.00635
1941.51093	0.00696
1940.22516	0.00762
1938.93939	0.00817
1937.65362	0.00864
1936.36785	0.00903
1935.08208	0.00916
1933.79632	0.00892
1932.51055	0.00854
1931.22478	0.00838
1929.93901	0.00863
1928.65324	0.00911
1927.36747	0.00947
1926.08170	0.00953
1924.79593	0.00931
1923.51016	0.00903
1922.22440	0.00886
1920.93863	0.00881
1919.65286	0.00882
1918.36709	0.00891
1917.08132	0.00921
1915.79555	0.00978
1914.50978	0.01043
1913.22401	0.01089
1911.93825	0.01099
1910.65248	0.01084
1909.36671	0.01059
1908.08094	0.01027
1906.79517	0.00989
1905.50940	0.00954
1904.22363	0.00937
1902.93786	0.00943
1901.65209	0.00954
1900.36633	0.00953
1899.08056	0.00935
1897.79479	0.00915
1896.50902	0.00914
1895.22325	0.00936
1893.93748	0.00964
1892.65171	0.00978
1891.36594	0.00972
1890.08018	0.00964
1888.79441	0.00965
1887.50864	0.00974
1886.22287	0.00976
1884.93710	0.00963
1883.65133	0.00941
1882.36556	0.00920
1881.07979	0.00909
1879.79402	0.00912
1878.50826	0.00927
1877.22249	0.00945
1875.93672	0.00955
1874.65095	0.00956
1873.36518	0.00960
1872.07941	0.00977
1870.79364	0.01003
1869.50787	0.01026
1868.22211	0.01038
1866.93634	0.01043
1865.65057	0.01049
1864.36480	0.01056
1863.07903	0.01055
1861.79326	0.01041
1860.50749	0.01015
1859.22172	0.00986
1857.93595	0.00965
1856.65019	0.00958
1855.36442	0.00967
1854.07865	0.00988
1852.79288	0.01015
1851.50711	0.01041
1850.22134	0.01058
1848.93557	0.01063
1847.64980	0.01056
1846.36404	0.01046
1845.07827	0.01039
1843.79250	0.01036
1842.50673	0.01031
1841.22096	0.01020
1839.93519	0.01007
1838.64942	0.00996
1837.36365	0.00995
1836.07788	0.01005
1834.79212	0.01018
1833.50635	0.01025
1832.22058	0.01028
1830.93481	0.01031
1829.64904	0.01034
1828.36327	0.01036
1827.07750	0.01043
1825.79173	0.01056
1824.50597	0.01071
1823.22020	0.01077
1821.93443	0.01074
1820.64866	0.01065
1819.36289	0.01057
1818.07712	0.01050
1816.79135	0.01042
1815.50558	0.01034
1814.21981	0.01029
1812.93405	0.01029
1811.64828	0.01031
1810.36251	0.01031
1809.07674	0.01028
1807.79097	0.01024
1806.50520	0.01022
1805.21943	0.01025
1803.93366	0.01032
1802.64790	0.01039
1801.36213	0.01042
1800.07636	0.01037
1798.79059	0.01028
1797.50482	0.01023
1796.21905	0.01031
1794.93328	0.01052
1793.64751	0.01077
1792.36174	0.01091
1791.07598	0.01088
1789.79021	0.01074
1788.50444	0.01061
1787.21867	0.01056
1785.93290	0.01059
1784.64713	0.01064
1783.36136	0.01066
1782.07559	0.01065
1780.78983	0.01062
1779.50406	0.01060
1778.21829	0.01065
1776.93252	0.01076
1775.64675	0.01089
1774.36098	0.01097
1773.07521	0.01092
1771.78944	0.01076
1770.50367	0.01059
1769.21791	0.01055
1767.93214	0.01063
1766.64637	0.01066
1765.36060	0.01062
1764.07483	0.01056
1762.78906	0.01053
1761.50329	0.01048
1760.21752	0.01041
1758.93176	0.01037
1757.64599	0.01038
1756.36022	0.01036
1755.07445	0.01028
1753.78868	0.01015
1752.50291	0.00998
1751.21714	0.00973
1749.93137	0.00941
1748.64560	0.00906
1747.35984	0.00877
1746.07407	0.00853
1744.78830	0.00831
1743.50253	0.00810
1742.21676	0.00791
1740.93099	0.00774
1739.64522	0.00762
1738.35945	0.00760
1737.07369	0.00778
1735.78792	0.00821
1734.50215	0.00871
1733.21638	0.00906
1731.93061	0.00922
1730.64484	0.00930
1729.35907	0.00934
1728.07330	0.00939
1726.78753	0.00951
1725.50177	0.00975
1724.21600	0.01009
1722.93023	0.01043
1721.64446	0.01074
1720.35869	0.01109
1719.07292	0.01147
1717.78715	0.01176
1716.50138	0.01190
1715.21561	0.01197
1713.92985	0.01210
1712.64408	0.01234
1711.35831	0.01265
1710.07254	0.01294
1708.78677	0.01320
1707.50100	0.01345
1706.21523	0.01372
1704.92946	0.01400
1703.64370	0.01431
1702.35793	0.01472
1701.07216	0.01519
1699.78639	0.01554
1698.50062	0.01580
1697.21485	0.01606
1695.92908	0.01629
1694.64331	0.01638
1693.35754	0.01643
1692.07178	0.01663
1690.78601	0.01698
1689.50024	0.01737
1688.21447	0.01777
1686.92870	0.01823
1685.64293	0.01873
1684.35716	0.01907
1683.07139	0.01919
1681.78563	0.01926
1680.49986	0.01945
1679.21409	0.01976
1677.92832	0.02015
1676.64255	0.02054
1675.35678	0.02082
1674.07101	0.02097
1672.78524	0.02112
1671.49947	0.02139
1670.21371	0.02171
1668.92794	0.02195
1667.64217	0.02210
1666.35640	0.02226
1665.07063	0.02254
1663.78486	0.02287
1662.49909	0.02315
1661.21332	0.02330
1659.92756	0.02340
1658.64179	0.02351
1657.35602	0.02373
1656.07025	0.02414
1654.78448	0.02471
1653.49871	0.02519
1652.21294	0.02529
1650.92717	0.02509
1649.64140	0.02493
1648.35564	0.02500
1647.06987	0.02516
1645.78410	0.02524
1644.49833	0.02519
1643.21256	0.02511
1641.92679	0.02508
1640.64102	0.02510
1639.35525	0.02520
1638.06949	0.02542
1636.78372	0.02568
1635.49795	0.02583
1634.21218	0.02576
1632.92641	0.02558
1631.64064	0.02548
1630.35487	0.02551
1629.06910	0.02561
1627.78333	0.02571
1626.49757	0.02580
1625.21180	0.02592
1623.92603	0.02604
1622.64026	0.02612
1621.35449	0.02613
1620.06872	0.02617
1618.78295	0.02634
1617.49718	0.02660
1616.21142	0.02679
1614.92565	0.02683
1613.63988	0.02681
1612.35411	0.02686
1611.06834	0.02700
1609.78257	0.02720
1608.49680	0.02742
1607.21103	0.02763
1605.92526	0.02781
1604.63950	0.02793
1603.35373	0.02800
1602.06796	0.02807
1600.78219	0.02818
1599.49642	0.02836
1598.21065	0.02857
1596.92488	0.02878
1595.63911	0.02893
1594.35335	0.02905
1593.06758	0.02920
1591.78181	0.02940
1590.49604	0.02963
1589.21027	0.02984
1587.92450	0.02999
1586.63873	0.03012
1585.35296	0.03030
1584.06719	0.03055
1582.78143	0.03086
1581.49566	0.03115
1580.20989	0.03140
1578.92412	0.03166
1577.63835	0.03195
1576.35258	0.03221
1575.06681	0.03236
1573.78104	0.03246
1572.49528	0.03266
1571.20951	0.03295
1569.92374	0.03320
1568.63797	0.03333
1567.35220	0.03336
1566.06643	0.03337
1564.78066	0.03341
1563.49489	0.03356
1562.20912	0.03392
1560.92336	0.03447
1559.63759	0.03496
1558.35182	0.03515
1557.06605	0.03503
1555.78028	0.03484
1554.49451	0.03473
1553.20874	0.03467
1551.92297	0.03460
1550.63721	0.03452
1549.35144	0.03444
1548.06567	0.03437
1546.77990	0.03433
1545.49413	0.03428
1544.20836	0.03418
1542.92259	0.03405
1541.63682	0.03396
1540.35105	0.03383
1539.06529	0.03357
1537.77952	0.03318
1536.49375	0.03286
1535.20798	0.03272
1533.92221	0.03269
1532.63644	0.03262
1531.35067	0.03250
1530.06490	0.03245
1528.77914	0.03254
1527.49337	0.03274
1526.20760	0.03299
1524.92183	0.03324
1523.63606	0.03353
1522.35029	0.03386
1521.06452	0.03417
1519.77875	0.03441
1518.49298	0.03468
1517.20722	0.03503
1515.92145	0.03544
1514.63568	0.03585
1513.34991	0.03628
1512.06414	0.03674
1510.77837	0.03729
1509.49260	0.03800
1508.20683	0.03887
1506.92107	0.03972
1505.63530	0.04036
1504.34953	0.04078
1503.06376	0.04112
1501.77799	0.04152
1500.49222	0.04197
1499.20645	0.04245
1497.92068	0.04291
1496.63491	0.04327
1495.34915	0.04353
1494.06338	0.04377
1492.77761	0.04413
1491.49184	0.04460
1490.20607	0.04508
1488.92030	0.04549
1487.63453	0.04584
1486.34876	0.04620
1485.06299	0.04662
1483.77723	0.04711
1482.49146	0.04768
1481.20569	0.04828
1479.91992	0.04890
1478.63415	0.04951
1477.34838	0.05011
1476.06261	0.05066
1474.77684	0.05117
1473.49108	0.05161
1472.20531	0.05198
1470.91954	0.05230
1469.63377	0.05265
1468.34800	0.05307
1467.06223	0.05353
1465.77646	0.05398
1464.49069	0.05436
1463.20492	0.05470
1461.91916	0.05507
1460.63339	0.05559
1459.34762	0.05628
1458.06185	0.05703
1456.77608	0.05760
1455.49031	0.05790
1454.20454	0.05802
1452.91877	0.05812
1451.63301	0.05825
1450.34724	0.05839
1449.06147	0.05849
1447.77570	0.05848
1446.48993	0.05837
1445.20416	0.05822
1443.91839	0.05810
1442.63262	0.05802
1441.34685	0.05795
1440.06109	0.05787
1438.77532	0.05780
1437.48955	0.05774
1436.20378	0.05768
1434.91801	0.05766
1433.63224	0.05780
1432.34647	0.05814
1431.06070	0.05863
1429.77494	0.05922
1428.48917	0.05989
1427.20340	0.06065
1425.91763	0.06146
1424.63186	0.06225
1423.34609	0.06298
1422.06032	0.06368
1420.77455	0.06437
1419.48878	0.06498
1418.20302	0.06542
1416.91725	0.06567
1415.63148	0.06584
1414.34571	0.06595
1413.05994	0.06601
1411.77417	0.06595
1410.48840	0.06573
1409.20263	0.06534
1407.91687	0.06479
1406.63110	0.06411
1405.34533	0.06329
1404.05956	0.06231
1402.77379	0.06122
1401.48802	0.06008
1400.20225	0.05892
1398.91648	0.05773
1397.63071	0.05647
1396.34495	0.05516
1395.05918	0.05383
1393.77341	0.05247
1392.48764	0.05108
1391.20187	0.04969
1389.91610	0.04836
1388.63033	0.04712
1387.34456	0.04597
1386.05880	0.04486
1384.77303	0.04379
1383.48726	0.04272
1382.20149	0.04164
1380.91572	0.04053
1379.62995	0.03943
1378.34418	0.03838
1377.05841	0.03736
1375.77264	0.03635
1374.48688	0.03533
1373.20111	0.03430
1371.91534	0.03326
1370.62957	0.03225
1369.34380	0.03128
1368.05803	0.03037
1366.77226	0.02955
1365.48649	0.02880
1364.20073	0.02813
1362.91496	0.02750
1361.62919	0.02688
1360.34342	0.02624
1359.05765	0.02561
1357.77188	0.02505
1356.48611	0.02460
1355.20034	0.02421
1353.91457	0.02384
1352.62881	0.02348
1351.34304	0.02313
1350.05727	0.02278
1348.77150	0.02242
1347.48573	0.02205
1346.19996	0.02172
1344.91419	0.02145
1343.62842	0.02124
1342.34266	0.02103
1341.05689	0.02076
1339.77112	0.02045
1338.48535	0.02015
1337.19958	0.01990
1335.91381	0.01969
1334.62804	0.01949
1333.34227	0.01927
1332.05650	0.01903
1330.77074	0.01877
1329.48497	0.01851
1328.19920	0.01827
1326.91343	0.01808
1325.62766	0.01792
1324.34189	0.01777
1323.05612	0.01761
1321.77035	0.01747
1320.48459	0.01735
1319.19882	0.01724
1317.91305	0.01709
1316.62728	0.01691
1315.34151	0.01676
1314.05574	0.01666
1312.76997	0.01660
1311.48420	0.01653
1310.19843	0.01641
1308.91267	0.01626
1307.62690	0.01611
1306.34113	0.01598
1305.05536	0.01585
1303.76959	0.01570
1302.48382	0.01554
1301.19805	0.01540
1299.91228	0.01528
1298.62652	0.01519
1297.34075	0.01510
1296.05498	0.01501
1294.76921	0.01493
1293.48344	0.01488
1292.19767	0.01484
1290.91190	0.01479
1289.62613	0.01473
1288.34036	0.01467
1287.05460	0.01462
1285.76883	0.01458
1284.48306	0.01455
1283.19729	0.01450
1281.91152	0.01442
1280.62575	0.01427
1279.33998	0.01409
1278.05421	0.01390
1276.76845	0.01378
1275.48268	0.01372
1274.19691	0.01371
1272.91114	0.01372
1271.62537	0.01369
1270.33960	0.01362
1269.05383	0.01351
1267.76806	0.01339
1266.48229	0.01328
1265.19653	0.01318
1263.91076	0.01307
1262.62499	0.01294
1261.33922	0.01281
1260.05345	0.01268
1258.76768	0.01260
1257.48191	0.01260
1256.19614	0.01269
1254.91037	0.01279
1253.62461	0.01285
1252.33884	0.01282
1251.05307	0.01273
1249.76730	0.01262
1248.48153	0.01252
1247.19576	0.01245
1245.90999	0.01242
1244.62422	0.01242
1243.33846	0.01242
1242.05269	0.01240
1240.76692	0.01234
1239.48115	0.01226
1238.19538	0.01221
1236.90961	0.01219
1235.62384	0.01219
1234.33807	0.01219
1233.05230	0.01220
1231.76654	0.01222
1230.48077	0.01224
1229.19500	0.01221
1227.90923	0.01213
1226.62346	0.01200
1225.33769	0.01188
1224.05192	0.01180
1222.76615	0.01178
1221.48039	0.01181
1220.19462	0.01183
1218.90885	0.01183
1217.62308	0.01180
1216.33731	0.01178
1215.05154	0.01178
1213.76577	0.01178
1212.48000	0.01176
1211.19423	0.01172
1209.90847	0.01169
1208.62270	0.01166
1207.33693	0.01164
1206.05116	0.01166
1204.76539	0.01170
1203.47962	0.01172
1202.19385	0.01170
1200.90808	0.01160
1199.62232	0.01149
1198.33655	0.01151
1197.05078	0.01161
1195.76501	0.01173
1194.47924	0.01186
1193.19347	0.01198
1191.90770	0.01206
1190.62193	0.01208
1189.33616	0.01199
1188.05040	0.01183
1186.76463	0.01167
1185.47886	0.01159
1184.19309	0.01159
1182.90732	0.01164
1181.62155	0.01167
1180.33578	0.01168
1179.05001	0.01170
1177.76425	0.01178
1176.47848	0.01191
1175.19271	0.01204
1173.90694	0.01215
1172.62117	0.01225
1171.33540	0.01241
1170.04963	0.01265
1168.76386	0.01293
1167.47809	0.01320
1166.19233	0.01344
1164.90656	0.01362
1163.62079	0.01377
1162.33502	0.01393
1161.04925	0.01412
1159.76348	0.01437
1158.47771	0.01466
1157.19194	0.01499
1155.90618	0.01537
1154.62041	0.01582
1153.33464	0.01629
1152.04887	0.01673
1150.76310	0.01712
1149.47733	0.01750
1148.19156	0.01794
1146.90579	0.01849
1145.62002	0.01915
1144.33426	0.01987
1143.04849	0.02060
1141.76272	0.02133
1140.47695	0.02207
1139.19118	0.02287
1137.90541	0.02374
1136.61964	0.02472
1135.33387	0.02582
1134.04811	0.02701
1132.76234	0.02826
1131.47657	0.02956
1130.19080	0.03098
1128.90503	0.03258
1127.61926	0.03438
1126.33349	0.03633
1125.04772	0.03838
1123.76195	0.04050
1122.47619	0.04268
1121.19042	0.04494
1119.90465	0.04729
1118.61888	0.04971
1117.33311	0.05220
1116.04734	0.05472
1114.76157	0.05724
1113.47580	0.05971
1112.19004	0.06219
1110.90427	0.06472
1109.61850	0.06729
1108.33273	0.06981
1107.04696	0.07221
1105.76119	0.07450
1104.47542	0.07673
1103.18965	0.07890
1101.90388	0.08100
1100.61812	0.08306
1099.33235	0.08510
1098.04658	0.08710
1096.76081	0.08902
1095.47504	0.09087
1094.18927	0.09263
1092.90350	0.09431
1091.61773	0.09586
1090.33197	0.09724
1089.04620	0.09850
1087.76043	0.09974
1086.47466	0.10110
1085.18889	0.10260
1083.90312	0.10416
1082.61735	0.10573
1081.33158	0.10732
1080.04581	0.10899
1078.76005	0.11076
1077.47428	0.11262
1076.18851	0.11457
1074.90274	0.11660
1073.61697	0.11874
1072.33120	0.12094
1071.04543	0.12316
1069.75966	0.12534
1068.47390	0.12752
1067.18813	0.12976
1065.90236	0.13206
1064.61659	0.13438
1063.33082	0.13666
1062.04505	0.13888
1060.75928	0.14105
1059.47351	0.14324
1058.18774	0.14545
1056.90198	0.14762
1055.61621	0.14971
1054.33044	0.15171
1053.04467	0.15369
1051.75890	0.15573
1050.47313	0.15789
1049.18736	0.16014
1047.90159	0.16244
1046.61583	0.16476
1045.33006	0.16709
1044.04429	0.16943
1042.75852	0.17176
1041.47275	0.17405
1040.18698	0.17630
1038.90121	0.17849
1037.61544	0.18065
1036.32967	0.18280
1035.04391	0.18493
1033.75814	0.18692
1032.47237	0.18867
1031.18660	0.19015
1029.90083	0.19142
1028.61506	0.19244
1027.32929	0.19320
1026.04352	0.19366
1024.75775	0.19384
1023.47199	0.19374
1022.18622	0.19335
1020.90045	0.19265
1019.61468	0.19166
1018.32891	0.19038
1017.04314	0.18887
1015.75737	0.18712
1014.47160	0.18514
1013.18584	0.18290
1011.90007	0.18042
1010.61430	0.17773
1009.32853	0.17484
1008.04276	0.17173
1006.75699	0.16834
1005.47122	0.16464
1004.18545	0.16067
1002.89968	0.15653
1001.61392	0.15232
1000.32815	0.14809
999.04238	0.14382
997.75661	0.13948
996.47084	0.13505
995.18507	0.13059
993.89930	0.12617
992.61353	0.12182
991.32777	0.11755
990.04200	0.11339
988.75623	0.10939
987.47046	0.10552
986.18469	0.10177
984.89892	0.09810
983.61315	0.09455
982.32738	0.09116
981.04161	0.08797
979.75585	0.08502
978.47008	0.08234
977.18431	0.07999
975.89854	0.07793
974.61277	0.07608
973.32700	0.07440
972.04123	0.07298
970.75546	0.07192
969.46970	0.07125
968.18393	0.07094
966.89816	0.07099
965.61239	0.07134
964.32662	0.07188
963.04085	0.07236
961.75508	0.07259
960.46931	0.07246
959.18354	0.07195
957.89778	0.07106
956.61201	0.06988
955.32624	0.06852
954.04047	0.06706
952.75470	0.06551
951.46893	0.06386
950.18316	0.06216
948.89739	0.06051
947.61163	0.05898
946.32586	0.05756
945.04009	0.05617
943.75432	0.05479
942.46855	0.05343
941.18278	0.05213
939.89701	0.05091
938.61124	0.04975
937.32547	0.04865
936.03971	0.04761
934.75394	0.04664
933.46817	0.04573
932.18240	0.04487
930.89663	0.04403
929.61086	0.04321
928.32509	0.04240
927.03932	0.04165
925.75356	0.04102
924.46779	0.04050
923.18202	0.04005
921.89625	0.03955
920.61048	0.03901
919.32471	0.03850
918.03894	0.03810
916.75317	0.03781
915.46740	0.03751
914.18164	0.03711
912.89587	0.03663
911.61010	0.03620
910.32433	0.03593
909.03856	0.03575
907.75279	0.03549
906.46702	0.03511
905.18125	0.03468
903.89549	0.03433
902.60972	0.03409
901.32395	0.03391
900.03818	0.03375
898.75241	0.03356
897.46664	0.03330
896.18087	0.03302
894.89510	0.03278
893.60933	0.03260
892.32357	0.03249
891.03780	0.03245
889.75203	0.03252
888.46626	0.03275
887.18049	0.03318
885.89472	0.03386
884.60895	0.03488
883.32318	0.03632
882.03742	0.03805
880.75165	0.03976
879.46588	0.04117
878.18011	0.04223
876.89434	0.04312
875.60857	0.04400
874.32280	0.04482
873.03703	0.04539
871.75126	0.04553
870.46550	0.04522
869.17973	0.04451
867.89396	0.04348
866.60819	0.04223
865.32242	0.04088
864.03665	0.03955
862.75088	0.03831
861.46511	0.03716
860.17935	0.03610
858.89358	0.03512
857.60781	0.03424
856.32204	0.03346
855.03627	0.03278
853.75050	0.03217
852.46473	0.03164
851.17896	0.03122
849.89319	0.03091
848.60743	0.03066
847.32166	0.03041
846.03589	0.03012
844.75012	0.02982
843.46435	0.02955
842.17858	0.02930
840.89281	0.02904
839.60704	0.02878
838.32128	0.02856
837.03551	0.02838
835.74974	0.02821
834.46397	0.02801
833.17820	0.02778
831.89243	0.02756
830.60666	0.02738
829.32089	0.02729
828.03512	0.02729
826.74936	0.02731
825.46359	0.02727
824.17782	0.02715
822.89205	0.02697
821.60628	0.02679
820.32051	0.02664
819.03474	0.02651
817.74897	0.02644
816.46321	0.02642
815.17744	0.02645
813.89167	0.02650
812.60590	0.02651
811.32013	0.02646
810.03436	0.02637
808.74859	0.02631
807.46282	0.02632
806.17705	0.02637
804.89129	0.02640
803.60552	0.02638
802.31975	0.02635
801.03398	0.02635
799.74821	0.02637
798.46244	0.02637
797.17667	0.02632
795.89090	0.02629
794.60513	0.02632
793.31937	0.02638
792.03360	0.02641
790.74783	0.02634
789.46206	0.02619
788.17629	0.02602
786.89052	0.02592
785.60475	0.02594
784.31898	0.02602
783.03322	0.02610
781.74745	0.02612
780.46168	0.02610
779.17591	0.02607
777.89014	0.02606
776.60437	0.02604
775.31860	0.02599
774.03283	0.02596
772.74706	0.02597
771.46130	0.02603
770.17553	0.02614
768.88976	0.02627
767.60399	0.02636
766.31822	0.02639
765.03245	0.02635
763.74668	0.02628
762.46091	0.02622
761.17515	0.02622
759.88938	0.02628
758.60361	0.02634
757.31784	0.02634
756.03207	0.02624
754.74630	0.02611
753.46053	0.02604
752.17476	0.02607
750.88899	0.02617
749.60323	0.02626
748.31746	0.02628
747.03169	0.02621
745.74592	0.02605
744.46015	0.02586
743.17438	0.02569
741.88861	0.02559
740.60284	0.02558
739.31708	0.02561
738.03131	0.02561
736.74554	0.02556
735.45977	0.02552
734.17400	0.02555
732.88823	0.02562
731.60246	0.02569
730.31669	0.02572
729.03092	0.02571
727.74516	0.02570
726.45939	0.02573
725.17362	0.02579
723.88785	0.02616
722.60208	0.02585
721.31631	0.02518
720.03054	0.02458
718.74477	0.02414
717.45901	0.02393
716.17324	0.02396
714.88747	0.02421
713.60170	0.02458
712.31593	0.02494
711.03016	0.02519
709.74439	0.02529
708.45862	0.02527
707.17285	0.02521
705.88709	0.02516
704.60132	0.02511
703.31555	0.02506
702.02978	0.02501
700.74401	0.02495
699.45824	0.02485
698.17247	0.02472
696.88670	0.02457
695.60094	0.02443
694.31517	0.02431
693.02940	0.02422
691.74363	0.02416
690.45786	0.02418
689.17209	0.02428
687.88632	0.02445
686.60055	0.02460
685.31478	0.02468
684.02902	0.02466
682.74325	0.02461
681.45748	0.02459
680.17171	0.02461
678.88594	0.02467
677.60017	0.02473
676.31440	0.02479
675.02863	0.02488
673.74287	0.02503
672.45710	0.02521
671.17133	0.02531
669.88556	0.02538
668.59979	0.02559
667.31402	0.02572
666.02825	0.02560
664.74248	0.02561
663.45671	0.02553
662.17095	0.02533
660.88518	0.02511
659.59941	0.02490
658.31364	0.02469
657.02787	0.02449
655.74210	0.02433
654.45633	0.02424
653.17056	0.02422
651.88480	0.02422
650.59903	0.02421
649.31326	0.02421
648.02749	0.02421
646.74172	0.02420
645.45595	0.02417
644.17018	0.02416
642.88441	0.02422
641.59864	0.02437
640.31288	0.02463
639.02711	0.02498
637.74134	0.02539
636.45557	0.02581
635.16980	0.02619
633.88403	0.02652
632.59826	0.02684
631.31249	0.02728
630.02673	0.02810
628.74096	0.02911
627.45519	0.02916
626.16942	0.03007
624.88365	0.03170
623.59788	0.03370
622.31211	0.03594
621.02634	0.03779
619.74057	0.03876
618.45481	0.03939
617.16904	0.04085
615.88327	0.04362
614.59750	0.04707
613.31173	0.05028
612.02596	0.05322
610.74019	0.05695
609.45442	0.06227
608.16866	0.06827
606.88289	0.07317
605.59712	0.07615
604.31135	0.07767
603.02558	0.07842
601.73981	0.07860
600.45404	0.07799
599.16827	0.07643
597.88250	0.07406
596.59674	0.07126
595.31097	0.06849
594.02520	0.06610
592.73943	0.06425
591.45366	0.06296
590.16789	0.06224
588.88212	0.06210
587.59635	0.06257
586.31059	0.06357
585.02482	0.06493
583.73905	0.06647
582.45328	0.06805
581.16751	0.06968
579.88174	0.07144
578.59597	0.07340
577.31020	0.07548
576.02443	0.07753
574.73867	0.07945
573.45290	0.08126
572.16713	0.08311
570.88136	0.08515
569.59559	0.08747
568.30982	0.09003
567.02405	0.09264
565.73828	0.09501
564.45251	0.09678
563.16675	0.09769
561.88098	0.09757
560.59521	0.09642
559.30944	0.09431
558.02367	0.09134
556.73790	0.08765
555.45213	0.08349
554.16636	0.07912
552.88060	0.07478
551.59483	0.07068
550.30906	0.06697
549.02329	0.06370
547.73752	0.06080
546.45175	0.05822
545.16598	0.05589
543.88021	0.05382
542.59444	0.05197
541.30868	0.05028
540.02291	0.04871
538.73714	0.04727
537.45137	0.04594
536.16560	0.04471
534.87983	0.04354
533.59406	0.04243
532.30829	0.04136
531.02253	0.04032
529.73676	0.03927
528.45099	0.03821
527.16522	0.03718
525.87945	0.03623
524.59368	0.03544
523.30791	0.03479
522.02214	0.03418
520.73637	0.03353
519.45061	0.03278
518.16484	0.03197
516.87907	0.03117
515.59330	0.03048
514.30753	0.02994
513.02176	0.02956
511.73599	0.02926
510.45022	0.02895
509.16446	0.02856
507.87869	0.02811
506.59292	0.02764
505.30715	0.02723
504.02138	0.02689
502.73561	0.02659
501.44984	0.02629
500.16407	0.02598
498.87830	0.02568
497.59254	0.02545
496.30677	0.02529
495.02100	0.02514
493.73523	0.02493
492.44946	0.02463
491.16369	0.02432
489.87792	0.02410
488.59215	0.02404
487.30639	0.02414
486.02062	0.02433
484.73485	0.02450
483.44908	0.02460
482.16331	0.02466
480.87754	0.02473
479.59177	0.02486
478.30600	0.02504
477.02023	0.02524
475.73447	0.02543
474.44870	0.02558
473.16293	0.02571
471.87716	0.02582
470.59139	0.02589
469.30562	0.02590
468.01985	0.02584
466.73408	0.02568
465.44832	0.02543
464.16255	0.02512
462.87678	0.02482
461.59101	0.02460
460.30524	0.02446
459.01947	0.02437
457.73370	0.02428
456.44793	0.02417
455.16216	0.02403
453.87640	0.02388
452.59063	0.02372
451.30486	0.02355
450.01909	0.02339
448.73332	0.02326
447.44755	0.02317
446.16178	0.02313
444.87601	0.02314
443.59025	0.02313
442.30448	0.02307
441.01871	0.02295
439.73294	0.02281
438.44717	0.02267
437.16140	0.02256
435.87563	0.02251
434.58986	0.02254
433.30409	0.02262
432.01833	0.02267
430.73256	0.02263
429.44679	0.02254
428.16102	0.02244
426.87525	0.02237
425.58948	0.02232
424.30371	0.02228
423.01794	0.02222
421.73218	0.02214
420.44641	0.02207
419.16064	0.02201
417.87487	0.02197
416.58910	0.02195
415.30333	0.02193
414.01756	0.02190
412.73179	0.02184
411.44602	0.02174
410.16026	0.02161
408.87449	0.02152
407.58872	0.02153
406.30295	0.02164
405.01718	0.02179
403.73141	0.02193
402.44564	0.02204
401.15987	0.02217
399.87411	0.02233
