3997.45528 0.04404
3996.16951 0.04366
3994.88374 0.04318
3993.59798 0.04245
3992.31221 0.04170
3991.02644 0.04136
3989.74067 0.04180
3988.45490 0.04305
3987.16913 0.04467
3985.88336 0.04594
3984.59759 0.04632
3983.31183 0.04589
3982.02606 0.04520
3980.74029 0.04478
3979.45452 0.04478
3978.16875 0.04492
3976.88298 0.04494
3975.59721 0.04483
3974.31144 0.04482
3973.02567 0.04510
3971.73991 0.04559
3970.45414 0.04607
3969.16837 0.04619
3967.88260 0.04574
3966.59683 0.04481
3965.31106 0.04376
3964.02529 0.04306
3962.73952 0.04290
3961.45376 0.04318
3960.16799 0.04368
3958.88222 0.04438
3957.59645 0.04531
3956.31068 0.04616
3955.02491 0.04634
3953.73914 0.04559
3952.45337 0.04437
3951.16760 0.04357
3949.88184 0.04370
3948.59607 0.04448
3947.31030 0.04523
3946.02453 0.04553
3944.73876 0.04535
3943.45299 0.04484
3942.16722 0.04403
3940.88145 0.04310
3939.59569 0.04246
3938.30992 0.04248
3937.02415 0.04310
3935.73838 0.04384
3934.45261 0.04431
3933.16684 0.04446
3931.88107 0.04436
3930.59530 0.04396
3929.30953 0.04316
3928.02377 0.04208
3926.73800 0.04112
3925.45223 0.04078
3924.16646 0.04119
3922.88069 0.04200
3921.59492 0.04270
3920.30915 0.04311
3919.02338 0.04338
3917.73762 0.04349
3916.45185 0.04318
3915.16608 0.04243
3913.88031 0.04179
3912.59454 0.04188
3911.30877 0.04279
3910.02300 0.04399
3908.73723 0.04486
3907.45146 0.04512
3906.16570 0.04498
3904.87993 0.04471
3903.59416 0.04433
3902.30839 0.04369
3901.02262 0.04273
3899.73685 0.04170
3898.45108 0.04100
3897.16531 0.04083
3895.87955 0.04107
3894.59378 0.04153
3893.30801 0.04221
3892.02224 0.04303
3890.73647 0.04345
3889.45070 0.04305
3888.16493 0.04218
3886.87916 0.04152
3885.59339 0.04125
3884.30763 0.04112
3883.02186 0.04088
3881.73609 0.04058
3880.45032 0.04046
3879.16455 0.04080
3877.87878 0.04178
3876.59301 0.04307
3875.30724 0.04392
3874.02148 0.04378
3872.73571 0.04296
3871.44994 0.04215
3870.16417 0.04160
3868.87840 0.04119
3867.59263 0.04108
3866.30686 0.04143
3865.02109 0.04198
3863.73532 0.04241
3862.44956 0.04271
3861.16379 0.04278
3859.87802 0.04230
3858.59225 0.04120
3857.30648 0.04009
3856.02071 0.03965
3854.73494 0.03987
3853.44917 0.04021
3852.16341 0.04051
3850.87764 0.04107
3849.59187 0.04176
3848.30610 0.04197
3847.02033 0.04145
3845.73456 0.04051
3844.44879 0.03954
3843.16302 0.03880
3841.87725 0.03863
3840.59149 0.03940
3839.30572 0.04089
3838.01995 0.04210
3836.73418 0.04226
3835.44841 0.04156
3834.16264 0.04070
3832.87687 0.03996
3831.59110 0.03915
3830.30534 0.03826
3829.01957 0.03764
3827.73380 0.03753
3826.44803 0.03763
3825.16226 0.03756
3823.87649 0.03737
3822.59072 0.03742
3821.30495 0.03781
3820.01918 0.03843
3818.73342 0.03928
3817.44765 0.04023
3816.16188 0.04074
3814.87611 0.04044
3813.59034 0.03965
3812.30457 0.03888
3811.01880 0.03832
3809.73303 0.03808
3808.44726 0.03816
3807.16150 0.03830
3805.87573 0.03828
3804.58996 0.03838
3803.30419 0.03889
3802.01842 0.03945
3800.73265 0.03943
3799.44688 0.03886
3798.16111 0.03828
3796.87535 0.03791
3795.58958 0.03770
3794.30381 0.03774
3793.01804 0.03811
3791.73227 0.03865
3790.44650 0.03918
3789.16073 0.03978
3787.87496 0.04062
3786.58919 0.04151
3785.30343 0.04187
3784.01766 0.04125
3782.73189 0.03992
3781.44612 0.03862
3780.16035 0.03789
3778.87458 0.03774
3777.58881 0.03801
3776.30304 0.03848
3775.01728 0.03892
3773.73151 0.03920
3772.44574 0.03943
3771.15997 0.03963
3769.87420 0.03953
3768.58843 0.03900
3767.30266 0.03848
3766.01689 0.03848
3764.73112 0.03896
3763.44536 0.03931
3762.15959 0.03906
3760.87382 0.03828
3759.58805 0.03749
3758.30228 0.03708
3757.01651 0.03702
3755.73074 0.03714
3754.44497 0.03754
3753.15921 0.03827
3751.87344 0.03896
3750.58767 0.03915
3749.30190 0.03862
3748.01613 0.03769
3746.73036 0.03704
3745.44459 0.03690
3744.15882 0.03673
3742.87305 0.03649
3741.58729 0.03677
3740.30152 0.03768
3739.01575 0.03862
3737.72998 0.03893
3736.44421 0.03824
3735.15844 0.03660
3733.87267 0.03469
3732.58690 0.03335
3731.30114 0.03296
3730.01537 0.03340
3728.72960 0.03441
3727.44383 0.03571
3726.15806 0.03702
3724.87229 0.03805
3723.58652 0.03839
3722.30075 0.03777
3721.01498 0.03647
3719.72922 0.03518
3718.44345 0.03444
3717.15768 0.03425
3715.87191 0.03439
3714.58614 0.03483
3713.30037 0.03553
3712.01460 0.03622
3710.72883 0.03665
3709.44307 0.03683
3708.15730 0.03696
3706.87153 0.03715
3705.58576 0.03742
3704.29999 0.03791
3703.01422 0.03874
3701.72845 0.03985
3700.44268 0.04072
3699.15691 0.04076
3697.87115 0.03973
3696.58538 0.03795
3695.29961 0.03605
3694.01384 0.03462
3692.72807 0.03403
3691.44230 0.03419
3690.15653 0.03463
3688.87076 0.03474
3687.58500 0.03435
3686.29923 0.03399
3685.01346 0.03420
3683.72769 0.03466
3682.44192 0.03476
3681.15615 0.03452
3679.87038 0.03458
3678.58461 0.03541
3677.29884 0.03669
3676.01308 0.03747
3674.72731 0.03720
3673.44154 0.03653
3672.15577 0.03651
3670.87000 0.03720
3669.58423 0.03790
3668.29846 0.03818
3667.01269 0.03812
3665.72693 0.03780
3664.44116 0.03736
3663.15539 0.03706
3661.86962 0.03716
3660.58385 0.03763
3659.29808 0.03818
3658.01231 0.03847
3656.72654 0.03839
3655.44077 0.03817
3654.15501 0.03830
3652.86924 0.03904
3651.58347 0.03998
3650.29770 0.04024
3649.01193 0.03943
3647.72616 0.03795
3646.44039 0.03667
3645.15462 0.03610
3643.86886 0.03612
3642.58309 0.03629
3641.29732 0.03640
3640.01155 0.03670
3638.72578 0.03741
3637.44001 0.03828
3636.15424 0.03875
3634.86847 0.03839
3633.58270 0.03740
3632.29694 0.03657
3631.01117 0.03666
3629.72540 0.03749
3628.43963 0.03815
3627.15386 0.03810
3625.86809 0.03768
3624.58232 0.03739
3623.29655 0.03741
3622.01079 0.03770
3620.72502 0.03821
3619.43925 0.03882
3618.15348 0.03937
3616.86771 0.03991
3615.58194 0.04060
3614.29617 0.04146
3613.01040 0.04229
3611.72463 0.04281
3610.43887 0.04290
3609.15310 0.04256
3607.86733 0.04199
3606.58156 0.04157
3605.29579 0.04154
3604.01002 0.04179
3602.72425 0.04209
3601.43848 0.04248
3600.15272 0.04320
3598.86695 0.04421
3597.58118 0.04514
3596.29541 0.04549
3595.00964 0.04501
3593.72387 0.04399
3592.43810 0.04315
3591.15233 0.04326
3589.86656 0.04440
3588.58080 0.04581
3587.29503 0.04642
3586.00926 0.04580
3584.72349 0.04447
3583.43772 0.04329
3582.15195 0.04276
3580.86618 0.04286
3579.58041 0.04347
3578.29464 0.04445
3577.00888 0.04561
3575.72311 0.04658
3574.43734 0.04703
3573.15157 0.04684
3571.86580 0.04610
3570.58003 0.04513
3569.29426 0.04431
3568.00849 0.04393
3566.72273 0.04401
3565.43696 0.04440
3564.15119 0.04479
3562.86542 0.04489
3561.57965 0.04463
3560.29388 0.04427
3559.00811 0.04433
3557.72234 0.04514
3556.43657 0.04649
3555.15081 0.04776
3553.86504 0.04846
3552.57927 0.04854
3551.29350 0.04830
3550.00773 0.04805
3548.72196 0.04794
3547.43619 0.04792
3546.15042 0.04806
3544.86466 0.04856
3543.57889 0.04952
3542.29312 0.05062
3541.00735 0.05129
3539.72158 0.05130
3538.43581 0.05094
3537.15004 0.05056
3535.86427 0.05018
3534.57850 0.04967
3533.29274 0.04914
3532.00697 0.04896
3530.72120 0.04938
3529.43543 0.05022
3528.14966 0.05106
3526.86389 0.05167
3525.57812 0.05216
3524.29235 0.05279
3523.00659 0.05348
3521.72082 0.05385
3520.43505 0.05356
3519.14928 0.05279
3517.86351 0.05206
3516.57774 0.05181
3515.29197 0.05205
3514.00620 0.05251
3512.72043 0.05293
3511.43467 0.05318
3510.14890 0.05328
3508.86313 0.05330
3507.57736 0.05336
3506.29159 0.05351
3505.00582 0.05371
3503.72005 0.05382
3502.43428 0.05369
3501.14852 0.05330
3499.86275 0.05296
3498.57698 0.05308
3497.29121 0.05383
3496.00544 0.05485
3494.71967 0.05552
3493.43390 0.05551
3492.14813 0.05501
3490.86236 0.05450
3489.57660 0.05427
3488.29083 0.05439
3487.00506 0.05485
3485.71929 0.05576
3484.43352 0.05703
3483.14775 0.05821
3481.86198 0.05875
3480.57621 0.05853
3479.29045 0.05791
3478.00468 0.05731
3476.71891 0.05682
3475.43314 0.05638
3474.14737 0.05623
3472.86160 0.05674
3471.57583 0.05785
3470.29006 0.05883
3469.00429 0.05898
3467.71853 0.05832
3466.43276 0.05755
3465.14699 0.05733
3463.86122 0.05764
3462.57545 0.05800
3461.28968 0.05795
3460.00391 0.05742
3458.71814 0.05664
3457.43238 0.05593
3456.14661 0.05549
3454.86084 0.05540
3453.57507 0.05559
3452.28930 0.05590
3451.00353 0.05615
3449.71776 0.05634
3448.43199 0.05662
3447.14622 0.05703
3445.86046 0.05746
3444.57469 0.05784
3443.28892 0.05829
3442.00315 0.05901
3440.71738 0.05998
3439.43161 0.06084
3438.14584 0.06117
3436.86007 0.06087
3435.57431 0.06024
3434.28854 0.05963
3433.00277 0.05925
3431.71700 0.05921
3430.43123 0.05963
3429.14546 0.06037
3427.85969 0.06098
3426.57392 0.06100
3425.28815 0.06042
3424.00239 0.05966
3422.71662 0.05925
3421.43085 0.05951
3420.14508 0.06030
3418.85931 0.06112
3417.57354 0.06150
3416.28777 0.06147
3415.00200 0.06155
3413.71624 0.06215
3412.43047 0.06309
3411.14470 0.06370
3409.85893 0.06355
3408.57316 0.06291
3407.28739 0.06246
3406.00162 0.06261
3404.71585 0.06316
3403.43008 0.06362
3402.14432 0.06378
3400.85855 0.06376
3399.57278 0.06339
3398.28701 0.06295
3397.00124 0.06294
3395.71547 0.06311
3394.42970 0.06311
3393.14393 0.06288
3391.85817 0.06269
3390.57240 0.06295
3389.28663 0.06388
3388.00086 0.06517
3386.71509 0.06623
3385.42932 0.06665
3384.14355 0.06643
3382.85778 0.06592
3381.57201 0.06561
3380.28625 0.06579
3379.00048 0.06634
3377.71471 0.06679
3376.42894 0.06678
3375.14317 0.06645
3373.85740 0.06621
3372.57163 0.06632
3371.28586 0.06660
3370.00010 0.06671
3368.71433 0.06652
3367.42856 0.06621
3366.14279 0.06602
3364.85702 0.06592
3363.57125 0.06571
3362.28548 0.06531
3360.99971 0.06497
3359.71394 0.06504
3358.42818 0.06561
3357.14241 0.06635
3355.85664 0.06691
3354.57087 0.06712
3353.28510 0.06703
3351.99933 0.06684
3350.71356 0.06665
3349.42779 0.06647
3348.14202 0.06620
3346.85626 0.06584
3345.57049 0.06564
3344.28472 0.06599
3342.99895 0.06692
3341.71318 0.06800
3340.42741 0.06857
3339.14164 0.06842
3337.85587 0.06792
3336.57011 0.06764
3335.28434 0.06783
3333.99857 0.06830
3332.71280 0.06872
3331.42703 0.06890
3330.14126 0.06884
3328.85549 0.06867
3327.56972 0.06853
3326.28395 0.06846
3324.99819 0.06836
3323.71242 0.06816
3322.42665 0.06799
3321.14088 0.06807
3319.85511 0.06852
3318.56934 0.06911
3317.28357 0.06958
3315.99780 0.06984
3314.71204 0.07006
3313.42627 0.07039
3312.14050 0.07069
3310.85473 0.07077
3309.56896 0.07069
3308.28319 0.07065
3306.99742 0.07071
3305.71165 0.07061
3304.42588 0.07023
3303.14012 0.06976
3301.85435 0.06954
3300.56858 0.06964
3299.28281 0.06982
3297.99704 0.06979
3296.71127 0.06949
3295.42550 0.06912
3294.13973 0.06897
3292.85397 0.06916
3291.56820 0.06957
3290.28243 0.07006
3288.99666 0.07055
3287.71089 0.07096
3286.42512 0.07112
3285.13935 0.07096
3283.85358 0.07067
3282.56781 0.07055
3281.28205 0.07063
3279.99628 0.07066
3278.71051 0.07041
3277.42474 0.06997
3276.13897 0.06960
3274.85320 0.06950
3273.56743 0.06968
3272.28166 0.06997
3270.99590 0.07014
3269.71013 0.07010
3268.42436 0.06997
3267.13859 0.06996
3265.85282 0.07003
3264.56705 0.06995
3263.28128 0.06960
3261.99551 0.06921
3260.70974 0.06906
3259.42398 0.06907
3258.13821 0.06887
3256.85244 0.06825
3255.56667 0.06745
3254.28090 0.06696
3252.99513 0.06703
3251.70936 0.06753
3250.42359 0.06810
3249.13783 0.06843
3247.85206 0.06836
3246.56629 0.06795
3245.28052 0.06745
3243.99475 0.06708
3242.70898 0.06690
3241.42321 0.06687
3240.13744 0.06689
3238.85167 0.06682
3237.56591 0.06652
3236.28014 0.06608
3234.99437 0.06576
3233.70860 0.06572
3232.42283 0.06588
3231.13706 0.06608
3229.85129 0.06624
3228.56552 0.06626
3227.27976 0.06604
3225.99399 0.06555
3224.70822 0.06502
3223.42245 0.06474
3222.13668 0.06481
3220.85091 0.06502
3219.56514 0.06508
3218.27937 0.06491
3216.99360 0.06466
3215.70784 0.06450
3214.42207 0.06448
3213.13630 0.06451
3211.85053 0.06453
3210.56476 0.06452
3209.27899 0.06457
3207.99322 0.06476
3206.70745 0.06501
3205.42169 0.06512
3204.13592 0.06501
3202.85015 0.06486
3201.56438 0.06491
3200.27861 0.06512
3198.99284 0.06524
3197.70707 0.06511
3196.42130 0.06476
3195.13553 0.06434
3193.84977 0.06393
3192.56400 0.06362
3191.27823 0.06349
3189.99246 0.06355
3188.70669 0.06376
3187.42092 0.06399
3186.13515 0.06413
3184.84938 0.06412
3183.56362 0.06397
3182.27785 0.06384
3180.99208 0.06391
3179.70631 0.06408
3178.42054 0.06403
3177.13477 0.06353
3175.84900 0.06268
3174.56323 0.06186
3173.27746 0.06135
3171.99170 0.06117
3170.70593 0.06125
3169.42016 0.06149
3168.13439 0.06168
3166.84862 0.06152
3165.56285 0.06093
3164.27708 0.06020
3162.99131 0.05979
3161.70555 0.05986
3160.41978 0.06018
3159.13401 0.06036
3157.84824 0.06019
3156.56247 0.05969
3155.27670 0.05899
3153.99093 0.05822
3152.70516 0.05757
3151.41939 0.05724
3150.13363 0.05731
3148.84786 0.05766
3147.56209 0.05809
3146.27632 0.05849
3144.99055 0.05893
3143.70478 0.05942
3142.41901 0.05984
3141.13324 0.06001
3139.84748 0.05987
3138.56171 0.05948
3137.27594 0.05900
3135.99017 0.05854
3134.70440 0.05825
3133.41863 0.05831
3132.13286 0.05870
3130.84709 0.05908
3129.56132 0.05903
3128.27556 0.05844
3126.98979 0.05761
3125.70402 0.05692
3124.41825 0.05653
3123.13248 0.05636
3121.84671 0.05627
3120.56094 0.05617
3119.27517 0.05603
3117.98940 0.05589
3116.70364 0.05588
3115.41787 0.05611
3114.13210 0.05650
3112.84633 0.05678
3111.56056 0.05669
3110.27479 0.05627
3108.98902 0.05580
3107.70325 0.05549
3106.41749 0.05526
3105.13172 0.05505
3103.84595 0.05500
3102.56018 0.05535
3101.27441 0.05603
3099.98864 0.05661
3098.70287 0.05669
3097.41710 0.05628
3096.13133 0.05574
3094.84557 0.05539
3093.55980 0.05531
3092.27403 0.05537
3090.98826 0.05543
3089.70249 0.05545
3088.41672 0.05545
3087.13095 0.05544
3085.84518 0.05538
3084.55942 0.05534
3083.27365 0.05540
3081.98788 0.05555
3080.70211 0.05568
3079.41634 0.05568
3078.13057 0.05563
3076.84480 0.05569
3075.55903 0.05590
3074.27326 0.05616
3072.98750 0.05632
3071.70173 0.05632
3070.41596 0.05619
3069.13019 0.05596
3067.84442 0.05568
3066.55865 0.05543
3065.27288 0.05536
3063.98711 0.05543
3062.70135 0.05536
3061.41558 0.05493
3060.12981 0.05427
3058.84404 0.05372
3057.55827 0.05348
3056.27250 0.05344
3054.98673 0.05338
3053.70096 0.05323
3052.41519 0.05306
3051.12943 0.05296
3049.84366 0.05294
3048.55789 0.05293
3047.27212 0.05282
3045.98635 0.05253
3044.70058 0.05210
3043.41481 0.05165
3042.12904 0.05135
3040.84328 0.05132
3039.55751 0.05154
3038.27174 0.05184
3036.98597 0.05199
3035.70020 0.05192
3034.41443 0.05171
3033.12866 0.05156
3031.84289 0.05153
3030.55712 0.05155
3029.27136 0.05150
3027.98559 0.05134
3026.69982 0.05109
3025.41405 0.05087
3024.12828 0.05079
3022.84251 0.05083
3021.55674 0.05082
3020.27097 0.05064
3018.98521 0.05037
3017.69944 0.05021
3016.41367 0.05020
3015.12790 0.05019
3013.84213 0.05009
3012.55636 0.05001
3011.27059 0.05010
3009.98482 0.05028
3008.69905 0.05034
3007.41329 0.05018
3006.12752 0.04996
3004.84175 0.04988
3003.55598 0.05002
3002.27021 0.05042
3000.98444 0.05079
2999.69867 0.05050
2998.41290 0.05030
2997.12714 0.05012
2995.84137 0.05010
2994.55560 0.05021
2993.26983 0.05024
2991.98406 0.05014
2990.69829 0.05010
2989.41252 0.05027
2988.12675 0.05050
2986.84098 0.05055
2985.55522 0.05049
2984.26945 0.05069
2982.98368 0.05129
2981.69791 0.05197
2980.41214 0.05238
2979.12637 0.05250
2977.84060 0.05250
2976.55483 0.05248
2975.26907 0.05251
2973.98330 0.05273
2972.69753 0.05325
2971.41176 0.05402
2970.12599 0.05488
2968.84022 0.05574
2967.55445 0.05660
2966.26868 0.05749
2964.98291 0.05847
2963.69715 0.05953
2962.41138 0.06058
2961.12561 0.06151
2959.83984 0.06226
2958.55407 0.06273
2957.26830 0.06291
2955.98253 0.06293
2954.69676 0.06308
2953.41100 0.06349
2952.12523 0.06406
2950.83946 0.06453
2949.55369 0.06472
2948.26792 0.06460
2946.98215 0.06431
2945.69638 0.06398
2944.41061 0.06372
2943.12484 0.06360
2941.83908 0.06370
2940.55331 0.06414
2939.26754 0.06495
2937.98177 0.06589
2936.69600 0.06664
2935.41023 0.06706
2934.12446 0.06735
2932.83869 0.06778
2931.55293 0.06839
2930.26716 0.06902
2928.98139 0.06958
2927.69562 0.07012
2926.40985 0.07059
2925.12408 0.07084
2923.83831 0.07074
2922.55254 0.07046
2921.26677 0.07020
2919.98101 0.06998
2918.69524 0.06958
2917.40947 0.06891
2916.12370 0.06819
2914.83793 0.06763
2913.55216 0.06724
2912.26639 0.06690
2910.98062 0.06660
2909.69486 0.06634
2908.40909 0.06605
2907.12332 0.06558
2905.83755 0.06493
2904.55178 0.06422
2903.26601 0.06361
2901.98024 0.06316
2900.69447 0.06290
2899.40870 0.06271
2898.12294 0.06243
2896.83717 0.06184
2895.55140 0.06093
2894.26563 0.05991
2892.97986 0.05912
2891.69409 0.05874
2890.40832 0.05861
2889.12255 0.05836
2887.83678 0.05781
2886.55102 0.05711
2885.26525 0.05657
2883.97948 0.05633
2882.69371 0.05637
2881.40794 0.05655
2880.12217 0.05672
2878.83640 0.05673
2877.55063 0.05662
2876.26487 0.05662
2874.97910 0.05697
2873.69333 0.05760
2872.40756 0.05817
2871.12179 0.05848
2869.83602 0.05864
2868.55025 0.05886
2867.26448 0.05911
2865.97871 0.05923
2864.69295 0.05906
2863.40718 0.05868
2862.12141 0.05822
2860.83564 0.05781
2859.54987 0.05755
2858.26410 0.05742
2856.97833 0.05736
2855.69256 0.05725
2854.40680 0.05710
2853.12103 0.05697
2851.83526 0.05688
2850.54949 0.05676
2849.26372 0.05650
2847.97795 0.05609
2846.69218 0.05558
2845.40641 0.05509
2844.12064 0.05463
2842.83488 0.05411
2841.54911 0.05340
2840.26334 0.05249
2838.97757 0.05152
2837.69180 0.05067
2836.40603 0.05001
2835.12026 0.04950
2833.83449 0.04909
2832.54873 0.04881
2831.26296 0.04863
2829.97719 0.04841
2828.69142 0.04795
2827.40565 0.04725
2826.11988 0.04651
2824.83411 0.04594
2823.54834 0.04560
2822.26257 0.04545
2820.97681 0.04540
2819.69104 0.04529
2818.40527 0.04509
2817.11950 0.04492
2815.83373 0.04489
2814.54796 0.04491
2813.26219 0.04478
2811.97642 0.04445
2810.69066 0.04403
2809.40489 0.04369
2808.11912 0.04357
2806.83335 0.04365
2805.54758 0.04372
2804.26181 0.04359
2802.97604 0.04326
2801.69027 0.04293
2800.40450 0.04280
2799.11874 0.04282
2797.83297 0.04284
2796.54720 0.04274
2795.26143 0.04254
2793.97566 0.04233
2792.68989 0.04214
2791.40412 0.04201
2790.11835 0.04197
2788.83259 0.04207
2787.54682 0.04221
2786.26105 0.04218
2784.97528 0.04194
2783.68951 0.04168
2782.40374 0.04156
2781.11797 0.04156
2779.83220 0.04162
2778.54643 0.04168
2777.26067 0.04172
2775.97490 0.04168
2774.68913 0.04152
2773.40336 0.04126
2772.11759 0.04097
2770.83182 0.04077
2769.54605 0.04080
2768.26028 0.04104
2766.97452 0.04129
2765.68875 0.04136
2764.40298 0.04121
2763.11721 0.04096
2761.83144 0.04071
2760.54567 0.04048
2759.25990 0.04022
2757.97413 0.03995
2756.68836 0.03973
2755.40260 0.03965
2754.11683 0.03977
2752.83106 0.04001
2751.54529 0.04017
2750.25952 0.04011
2748.97375 0.03988
2747.68798 0.03961
2746.40221 0.03941
2745.11645 0.03928
2743.83068 0.03924
2742.54491 0.03932
2741.25914 0.03949
2739.97337 0.03965
2738.68760 0.03972
2737.40183 0.03966
2736.11606 0.03945
2734.83029 0.03912
2733.54453 0.03879
2732.25876 0.03861
2730.97299 0.03861
2729.68722 0.03861
2728.40145 0.03843
2727.11568 0.03808
2725.82991 0.03767
2724.54414 0.03734
2723.25838 0.03716
2721.97261 0.03722
2720.68684 0.03752
2719.40107 0.03790
2718.11530 0.03817
2716.82953 0.03822
2715.54376 0.03810
2714.25799 0.03799
2712.97222 0.03797
2711.68646 0.03798
2710.40069 0.03791
2709.11492 0.03776
2707.82915 0.03761
2706.54338 0.03749
2705.25761 0.03733
2703.97184 0.03714
2702.68607 0.03701
2701.40031 0.03698
2700.11454 0.03699
2698.82877 0.03696
2697.54300 0.03694
2696.25723 0.03702
2694.97146 0.03717
2693.68569 0.03729
2692.39992 0.03728
2691.11415 0.03713
2689.82839 0.03698
2688.54262 0.03692
2687.25685 0.03696
2685.97108 0.03697
2684.68531 0.03683
2683.39954 0.03655
2682.11377 0.03621
2680.82800 0.03594
2679.54224 0.03581
2678.25647 0.03580
2676.97070 0.03584
2675.68493 0.03588
2674.39916 0.03587
2673.11339 0.03584
2671.82762 0.03580
2670.54185 0.03582
2669.25608 0.03589
2667.97032 0.03590
2666.68455 0.03566
2665.39878 0.03519
2664.11301 0.03478
2662.82724 0.03472
2661.54147 0.03502
2660.25570 0.03541
2658.96993 0.03568
2657.68417 0.03577
2656.39840 0.03575
2655.11263 0.03566
2653.82686 0.03556
2652.54109 0.03545
2651.25532 0.03527
2649.96955 0.03490
2648.68378 0.03436
2647.39801 0.03378
2646.11225 0.03337
2644.82648 0.03325
2643.54071 0.03343
2642.25494 0.03376
2640.96917 0.03401
2639.68340 0.03405
2638.39763 0.03388
2637.11186 0.03359
2635.82609 0.03322
2634.54033 0.03282
2633.25456 0.03252
2631.96879 0.03249
2630.68302 0.03284
2629.39725 0.03345
2628.11148 0.03405
2626.82571 0.03434
2625.53994 0.03422
2624.25418 0.03377
2622.96841 0.03314
2621.68264 0.03249
2620.39687 0.03195
2619.11110 0.03160
2617.82533 0.03139
2616.53956 0.03126
2615.25379 0.03125
2613.96802 0.03144
2612.68226 0.03179
2611.39649 0.03206
2610.11072 0.03208
2608.82495 0.03186
2607.53918 0.03155
2606.25341 0.03125
2604.96764 0.03099
2603.68187 0.03076
2602.39611 0.03061
2601.11034 0.03054
2599.82457 0.03043
2598.53880 0.03015
2597.25303 0.02973
2595.96726 0.02940
2594.68149 0.02937
2593.39572 0.02955
2592.10995 0.02969
2590.82419 0.02958
2589.53842 0.02927
2588.25265 0.02898
2586.96688 0.02888
2585.68111 0.02892
2584.39534 0.02891
2583.10957 0.02875
2581.82380 0.02851
2580.53804 0.02833
2579.25227 0.02833
2577.96650 0.02844
2576.68073 0.02856
2575.39496 0.02862
2574.10919 0.02874
2572.82342 0.02899
2571.53765 0.02929
2570.25188 0.02947
2568.96612 0.02952
2567.68035 0.02959
2566.39458 0.02975
2565.10881 0.02986
2563.82304 0.02973
2562.53727 0.02936
2561.25150 0.02895
2559.96573 0.02865
2558.67997 0.02837
2557.39420 0.02798
2556.10843 0.02752
2554.82266 0.02727
2553.53689 0.02741
2552.25112 0.02780
2550.96535 0.02818
2549.67958 0.02840
2548.39381 0.02852
2547.10805 0.02859
2545.82228 0.02861
2544.53651 0.02853
2543.25074 0.02831
2541.96497 0.02807
2540.67920 0.02790
2539.39343 0.02784
2538.10766 0.02781
2536.82190 0.02772
2535.53613 0.02753
2534.25036 0.02736
2532.96459 0.02739
2531.67882 0.02766
2530.39305 0.02792
2529.10728 0.02791
2527.82151 0.02770
2526.53574 0.02760
2525.24998 0.02774
2523.96421 0.02789
2522.67844 0.02787
2521.39267 0.02769
2520.10690 0.02749
2518.82113 0.02731
2517.53536 0.02712
2516.24959 0.02697
2514.96383 0.02693
2513.67806 0.02701
2512.39229 0.02720
2511.10652 0.02751
2509.82075 0.02785
2508.53498 0.02796
2507.24921 0.02760
2505.96344 0.02690
2504.67767 0.02627
2503.39191 0.02593
2502.10614 0.02579
2500.82037 0.02578
2499.53460 0.02607
2498.24883 0.02675
2496.96306 0.02757
2495.67729 0.02803
2494.39152 0.02790
2493.10576 0.02738
2491.81999 0.02684
2490.53422 0.02649
2489.24845 0.02630
2487.96268 0.02621
2486.67691 0.02617
2485.39114 0.02616
2484.10537 0.02619
2482.81960 0.02631
2481.53384 0.02653
2480.24807 0.02671
2478.96230 0.02666
2477.67653 0.02634
2476.39076 0.02593
2475.10499 0.02565
2473.81922 0.02552
2472.53345 0.02550
2471.24769 0.02554
2469.96192 0.02565
2468.67615 0.02576
2467.39038 0.02582
2466.10461 0.02583
2464.81884 0.02582
2463.53307 0.02586
2462.24730 0.02596
2460.96153 0.02612
2459.67577 0.02624
2458.39000 0.02619
2457.10423 0.02597
2455.81846 0.02571
2454.53269 0.02553
2453.24692 0.02553
2451.96115 0.02575
2450.67538 0.02611
2449.38962 0.02645
2448.10385 0.02655
2446.81808 0.02636
2445.53231 0.02595
2444.24654 0.02555
2442.96077 0.02534
2441.67500 0.02539
2440.38923 0.02561
2439.10346 0.02577
2437.81770 0.02576
2436.53193 0.02557
2435.24616 0.02529
2433.96039 0.02505
2432.67462 0.02499
2431.38885 0.02514
2430.10308 0.02536
2428.81731 0.02545
2427.53155 0.02531
2426.24578 0.02498
2424.96001 0.02459
2423.67424 0.02427
2422.38847 0.02410
2421.10270 0.02413
2419.81693 0.02435
2418.53116 0.02464
2417.24539 0.02481
2415.95963 0.02477
2414.67386 0.02463
2413.38809 0.02462
2412.10232 0.02486
2410.81655 0.02523
2409.53078 0.02554
2408.24501 0.02558
2406.95924 0.02523
2405.67347 0.02457
2404.38771 0.02388
2403.10194 0.02349
2401.81617 0.02347
2400.53040 0.02368
2399.24463 0.02462
2397.95886 0.02412
2396.67309 0.02372
2395.38732 0.02379
2394.10156 0.02403
2392.81579 0.02420
2391.53002 0.02419
2390.24425 0.02401
2388.95848 0.02375
2387.67271 0.02355
2386.38694 0.02349
2385.10117 0.02356
2383.81540 0.02368
2382.52964 0.02374
2381.24387 0.02367
2379.95810 0.02350
2378.67233 0.02332
2377.38656 0.02320
2376.10079 0.02321
2374.81502 0.02339
2373.52925 0.02378
2372.24349 0.02430
2370.95772 0.02478
2369.67195 0.02509
2368.38618 0.02525
2367.10041 0.02529
2365.81464 0.02523
2364.52887 0.02505
2363.24310 0.02485
2361.95733 0.02476
2360.67157 0.02481
2359.38580 0.02486
2358.10003 0.02487
2356.81426 0.02493
2355.52849 0.02507
2354.24272 0.02520
2352.95695 0.02523
2351.67118 0.02516
2350.38542 0.02503
2349.09965 0.02488
2347.81388 0.02481
2346.52811 0.02498
2345.24234 0.02518
2343.95657 0.02514
2342.67080 0.02496
2341.38503 0.02512
2340.09926 0.02558
2338.81350 0.02565
2337.52773 0.02517
2336.24196 0.02488
2334.95619 0.02486
2333.67042 0.02455
2332.38465 0.02420
2331.09888 0.02446
2329.81311 0.02477
2328.52735 0.02466
2327.24158 0.02489
2325.95581 0.02532
2324.67004 0.02534
2323.38427 0.02532
2322.09850 0.02539
2320.81273 0.02515
2319.52696 0.02503
2318.24119 0.02503
2316.95543 0.02479
2315.66966 0.02450
2314.38389 0.02412
2313.09812 0.02360
2311.81235 0.02316
2310.52658 0.02271
2309.24081 0.02228
2307.95504 0.02201
2306.66928 0.02185
2305.38351 0.02185
2304.09774 0.02189
2302.81197 0.02193
2301.52620 0.02203
2300.24043 0.02215
2298.95466 0.02224
2297.66889 0.02229
2296.38312 0.02238
2295.09736 0.02259
2293.81159 0.02277
2292.52582 0.02272
2291.24005 0.02240
2289.95428 0.02199
2288.66851 0.02170
2287.38274 0.02152
2286.09697 0.02128
2284.81121 0.02092
2283.52544 0.02060
2282.23967 0.02060
2280.95390 0.02100
2279.66813 0.02149
2278.38236 0.02158
2277.09659 0.02110
2275.81082 0.02036
2274.52505 0.01994
2273.23929 0.02006
2271.95352 0.02043
2270.66775 0.02053
2269.38198 0.02017
2268.09621 0.01970
2266.81044 0.01966
2265.52467 0.02024
2264.23890 0.02103
2262.95314 0.02136
2261.66737 0.02082
2260.38160 0.01962
2259.09583 0.01846
2257.81006 0.01795
2256.52429 0.01807
2255.23852 0.01834
2253.95275 0.01832
2252.66698 0.01795
2251.38122 0.01722
2250.09545 0.01664
2248.80968 0.01742
2247.52391 0.01739
2246.23814 0.01736
2244.95237 0.01739
2243.66660 0.01740
2242.38083 0.01732
2241.09507 0.01722
2239.80930 0.01730
2238.52353 0.01773
2237.23776 0.01851
2235.95199 0.01937
2234.66622 0.01991
2233.38045 0.01989
2232.09468 0.01941
2230.80891 0.01868
2229.52315 0.01779
2228.23738 0.01673
2226.95161 0.01555
2225.66584 0.01449
2224.38007 0.01389
2223.09430 0.01412
2221.80853 0.01524
2220.52276 0.01683
2219.23700 0.01819
2217.95123 0.01879
2216.66546 0.01850
2215.37969 0.01748
2214.09392 0.01616
2212.80815 0.01514
2211.52238 0.01484
2210.23661 0.01521
2208.95084 0.01590
2207.66508 0.01656
2206.37931 0.01692
2205.09354 0.01685
2203.80777 0.01643
2202.52200 0.01576
2201.23623 0.01483
2199.95046 0.01371
2198.66469 0.01273
2197.37893 0.01226
2196.09316 0.01238
2194.80739 0.01290
2193.52162 0.01362
2192.23585 0.01435
2190.95008 0.01486
2189.66431 0.01496
2188.37854 0.01461
2187.09277 0.01383
2185.80701 0.01274
2184.52124 0.01163
2183.23547 0.01088
2181.94970 0.01074
2180.66393 0.01116
2179.37816 0.01182
2178.09239 0.01228
2176.80662 0.01223
2175.52085 0.01176
2174.23509 0.01126
2172.94932 0.01111
2171.66355 0.01145
2170.37778 0.01214
2169.09201 0.01272
2167.80624 0.01270
2166.52047 0.01182
2165.23470 0.01038
2163.94894 0.00893
2162.66317 0.00796
2161.37740 0.00762
2160.09163 0.00781
2158.80586 0.00826
2157.52009 0.00870
2156.23432 0.00896
2154.94855 0.00896
2153.66278 0.00868
2152.37702 0.00827
2151.09125 0.00803
2149.80548 0.00819
2148.51971 0.00880
2147.23394 0.00970
2145.94817 0.01057
2144.66240 0.01109
2143.37663 0.01116
2142.09087 0.01110
2140.80510 0.01134
2139.51933 0.01192
2138.23356 0.01245
2136.94779 0.01257
2135.66202 0.01237
2134.37625 0.01211
2133.09048 0.01196
2131.80471 0.01186
2130.51895 0.01185
2129.23318 0.01202
2127.94741 0.01239
2126.66164 0.01282
2125.37587 0.01323
2124.09010 0.01361
2122.80433 0.01391
2121.51856 0.01400
2120.23280 0.01392
2118.94703 0.01393
2117.66126 0.01420
2116.37549 0.01450
2115.08972 0.01446
2113.80395 0.01399
2112.51818 0.01339
2111.23241 0.01302
2109.94664 0.01301
2108.66088 0.01326
2107.37511 0.01363
2106.08934 0.01403
2104.80357 0.01446
2103.51780 0.01486
2102.23203 0.01502
2100.94626 0.01466
2099.66049 0.01322
2098.37473 0.01224
2097.08896 0.01149
2095.80319 0.01085
2094.51742 0.01053
2093.23165 0.01073
2091.94588 0.01148
2090.66011 0.01241
2089.37434 0.01296
2088.08857 0.01277
2086.80281 0.01193
2085.51704 0.01092
2084.23127 0.01028
2082.94550 0.01024
2081.65973 0.01057
2080.37396 0.01086
2079.08819 0.01092
2077.80242 0.01082
2076.51666 0.01067
2075.23089 0.01051
2073.94512 0.01038
2072.65935 0.01033
2071.37358 0.01032
2070.08781 0.01015
2068.80204 0.00975
2067.51627 0.00925
2066.23050 0.00881
2064.94474 0.00848
2063.65897 0.00817
2062.37320 0.00783
2061.08743 0.00745
2059.80166 0.00712
2058.51589 0.00699
2057.23012 0.00715
2055.94435 0.00743
2054.65859 0.00760
2053.37282 0.00755
2052.08705 0.00739
2050.80128 0.00732
2049.51551 0.00746
2048.22974 0.00777
2046.94397 0.00791
2045.65820 0.00750
2044.37243 0.00654
2043.08667 0.00553
2041.80090 0.00508
2040.51513 0.00538
2039.22936 0.00618
2037.94359 0.00704
2036.65782 0.00761
2035.37205 0.00771
2034.08628 0.00733
2032.80052 0.00660
2031.51475 0.00581
2030.22898 0.00520
2028.94321 0.00493
2027.65744 0.00509
2026.37167 0.00562
2025.08590 0.00617
2023.80013 0.00625
2022.51436 0.00564
2021.22860 0.00469
2019.94283 0.00394
2018.65706 0.00377
2017.37129 0.00420
2016.08552 0.00503
2014.79975 0.00597
2013.51398 0.00675
2012.22821 0.00714
2010.94245 0.00706
2009.65668 0.00658
2008.37091 0.00600
2007.08514 0.00573
2005.79937 0.00593
2004.51360 0.00624
2003.22783 0.00623
2001.94206 0.00596
2000.65629 0.00596
1999.37053 0.00657
1998.08476 0.00737
1996.79899 0.00772
1995.51322 0.00760
1994.22745 0.00761
1992.94168 0.00817
1991.65591 0.00910
1990.37014 0.00993
1989.08438 0.01039
1987.79861 0.01039
1986.51284 0.00986
1985.22707 0.00897
1983.94130 0.00807
1982.65553 0.00740
1981.36976 0.00677
1980.08399 0.00595
1978.79822 0.00508
1977.51246 0.00458
1976.22669 0.00460
1974.94092 0.00488
1973.65515 0.00521
1972.36938 0.00582
1971.08361 0.00706
1969.79784 0.00883
1968.51207 0.01040
1967.22631 0.01099
1965.94054 0.01053
1964.65477 0.00978
1963.36900 0.00957
1962.08323 0.01004
1960.79746 0.01069
1959.51169 0.01117
1958.22592 0.01147
1956.94015 0.01165
1955.65439 0.01156
1954.36862 0.01115
1953.08285 0.01075
1951.79708 0.01079
1950.51131 0.01133
1949.22554 0.01205
1947.93977 0.01256
1946.65400 0.01273
1945.36823 0.01264
1944.08247 0.01238
1942.79670 0.01206
1941.51093 0.01188
1940.22516 0.01197
1938.93939 0.01231
1937.65362 0.01269
1936.36785 0.01288
1935.08208 0.01278
1933.79632 0.01246
1932.51055 0.01210
1931.22478 0.01186
1929.93901 0.01181
1928.65324 0.01189
1927.36747 0.01194
1926.08170 0.01192
1924.79593 0.01192
1923.51016 0.01208
1922.22440 0.01249
1920.93863 0.01298
1919.65286 0.01327
1918.36709 0.01320
1917.08132 0.01294
1915.79555 0.01277
1914.50978 0.01284
1913.22401 0.01305
1911.93825 0.01321
1910.65248 0.01327
1909.36671 0.01325
1908.08094 0.01316
1906.79517 0.01294
1905.50940 0.01254
1904.22363 0.01213
1902.93786 0.01194
1901.65209 0.01208
1900.36633 0.01241
1899.08056 0.01274
1897.79479 0.01296
1896.50902 0.01315
1895.22325 0.01337
1893.93748 0.01362
1892.65171 0.01380
1891.36594 0.01382
1890.08018 0.01363
1888.79441 0.01330
1887.50864 0.01297
1886.22287 0.01269
1884.93710 0.01245
1883.65133 0.01224
1882.36556 0.01213
1881.07979 0.01219
1879.79402 0.01234
1878.50826 0.01246
1877.22249 0.01247
1875.93672 0.01245
1874.65095 0.01250
1873.36518 0.01269
1872.07941 0.01296
1870.79364 0.01320
1869.50787 0.01324
1868.22211 0.01305
1866.93634 0.01277
1865.65057 0.01257
1864.36480 0.01251
1863.07903 0.01252
1861.79326 0.01251
1860.50749 0.01247
1859.22172 0.01242
1857.93595 0.01240
1856.65019 0.01243
1855.36442 0.01250
1854.07865 0.01260
1852.79288 0.01272
1851.50711 0.01283
1850.22134 0.01295
1848.93557 0.01309
1847.64980 0.01325
1846.36404 0.01347
1845.07827 0.01374
1843.79250 0.01392
1842.50673 0.01394
1841.22096 0.01384
1839.93519 0.01372
1838.64942 0.01360
1837.36365 0.01350
1836.07788 0.01345
1834.79212 0.01347
1833.50635 0.01351
1832.22058 0.01353
1830.93481 0.01349
1829.64904 0.01341
1828.36327 0.01335
1827.07750 0.01340
1825.79173 0.01348
1824.50597 0.01345
1823.22020 0.01330
1821.93443 0.01314
1820.64866 0.01307
1819.36289 0.01311
1818.07712 0.01319
1816.79135 0.01328
1815.50558 0.01338
1814.21981 0.01346
1812.93405 0.01351
1811.64828 0.01350
1810.36251 0.01347
1809.07674 0.01344
1807.79097 0.01349
1806.50520 0.01363
1805.21943 0.01386
1803.93366 0.01410
1802.64790 0.01425
1801.36213 0.01423
1800.07636 0.01408
1798.79059 0.01389
1797.50482 0.01373
1796.21905 0.01362
1794.93328 0.01363
1793.64751 0.01376
1792.36174 0.01395
1791.07598 0.01411
1789.79021 0.01417
1788.50444 0.01415
1787.21867 0.01407
1785.93290 0.01398
1784.64713 0.01390
1783.36136 0.01386
1782.07559 0.01390
1780.78983 0.01402
1779.50406 0.01413
1778.21829 0.01418
1776.93252 0.01414
1775.64675 0.01406
1774.36098 0.01398
1773.07521 0.01387
1771.78944 0.01372
1770.50367 0.01366
1769.21791 0.01380
1767.93214 0.01404
1766.64637 0.01421
1765.36060 0.01431
1764.07483 0.01450
1762.78906 0.01475
1761.50329 0.01493
1760.21752 0.01493
1758.93176 0.01482
1757.64599 0.01472
1756.36022 0.01464
1755.07445 0.01454
1753.78868 0.01446
1752.50291 0.01443
1751.21714 0.01444
1749.93137 0.01446
1748.64560 0.01454
1747.35984 0.01464
1746.07407 0.01471
1744.78830 0.01471
1743.50253 0.01467
1742.21676 0.01464
1740.93099 0.01465
1739.64522 0.01462
1738.35945 0.01449
1737.07369 0.01439
1735.78792 0.01451
1734.50215 0.01480
1733.21638 0.01504
1731.93061 0.01518
1730.64484 0.01529
1729.35907 0.01540
1728.07330 0.01545
1726.78753 0.01546
1725.50177 0.01548
1724.21600 0.01555
1722.93023 0.01565
1721.64446 0.01579
1720.35869 0.01608
1719.07292 0.01652
1717.78715 0.01696
1716.50138 0.01729
1715.21561 0.01756
1713.92985 0.01788
1712.64408 0.01831
1711.35831 0.01883
1710.07254 0.01940
1708.78677 0.01999
1707.50100 0.02059
1706.21523 0.02115
1704.92946 0.02162
1703.64370 0.02207
1702.35793 0.02269
1701.07216 0.02350
1699.78639 0.02427
1698.50062 0.02503
1697.21485 0.02599
1695.92908 0.02708
1694.64331 0.02801
1693.35754 0.02881
1692.07178 0.02966
1690.78601 0.03052
1689.50024 0.03127
1688.21447 0.03194
1686.92870 0.03275
1685.64293 0.03377
1684.35716 0.03479
1683.07139 0.03566
1681.78563 0.03649
1680.49986 0.03737
1679.21409 0.03824
1677.92832 0.03906
1676.64255 0.03993
1675.35678 0.04083
1674.07101 0.04167
1672.78524 0.04250
1671.49947 0.04344
1670.21371 0.04445
1668.92794 0.04541
1667.64217 0.04626
1666.35640 0.04709
1665.07063 0.04800
1663.78486 0.04898
1662.49909 0.04993
1661.21332 0.05076
1659.92756 0.05147
1658.64179 0.05204
1657.35602 0.05250
1656.07025 0.05300
1654.78448 0.05375
1653.49871 0.05458
1652.21294 0.05513
1650.92717 0.05537
1649.64140 0.05558
1648.35564 0.05595
1647.06987 0.05639
1645.78410 0.05672
1644.49833 0.05688
1643.21256 0.05691
1641.92679 0.05683
1640.64102 0.05662
1639.35525 0.05634
1638.06949 0.05612
1636.78372 0.05601
1635.49795 0.05581
1634.21218 0.05539
1632.92641 0.05483
1631.64064 0.05426
1630.35487 0.05370
1629.06910 0.05308
1627.78333 0.05240
1626.49757 0.05168
1625.21180 0.05098
1623.92603 0.05029
1622.64026 0.04952
1621.35449 0.04869
1620.06872 0.04792
1618.78295 0.04734
1617.49718 0.04690
1616.21142 0.04643
1614.92565 0.04589
1613.63988 0.04542
1612.35411 0.04508
1611.06834 0.04475
1609.78257 0.04438
1608.49680 0.04398
1607.21103 0.04360
1605.92526 0.04331
1604.63950 0.04311
1603.35373 0.04299
1602.06796 0.04294
1600.78219 0.04292
1599.49642 0.04292
1598.21065 0.04293
1596.92488 0.04298
1595.63911 0.04309
1594.35335 0.04325
1593.06758 0.04341
1591.78181 0.04355
1590.49604 0.04367
1589.21027 0.04381
1587.92450 0.04401
1586.63873 0.04425
1585.35296 0.04453
1584.06719 0.04481
1582.78143 0.04510
1581.49566 0.04541
1580.20989 0.04576
1578.92412 0.04625
1577.63835 0.04690
1576.35258 0.04756
1575.06681 0.04804
1573.78104 0.04842
1572.49528 0.04890
1571.20951 0.04950
1569.92374 0.05007
1568.63797 0.05051
1567.35220 0.05089
1566.06643 0.05131
1564.78066 0.05170
1563.49489 0.05198
1562.20912 0.05224
1560.92336 0.05261
1559.63759 0.05304
1558.35182 0.05339
1557.06605 0.05367
1555.78028 0.05402
1554.49451 0.05442
1553.20874 0.05471
1551.92297 0.05486
1550.63721 0.05497
1549.35144 0.05507
1548.06567 0.05513
1546.77990 0.05515
1545.49413 0.05510
1544.20836 0.05494
1542.92259 0.05470
1541.63682 0.05449
1540.35105 0.05429
1539.06529 0.05400
1537.77952 0.05359
1536.49375 0.05324
1535.20798 0.05307
1533.92221 0.05302
1532.63644 0.05295
1531.35067 0.05287
1530.06490 0.05283
1528.77914 0.05282
1527.49337 0.05278
1526.20760 0.05269
1524.92183 0.05259
1523.63606 0.05260
1522.35029 0.05280
1521.06452 0.05305
1519.77875 0.05328
1518.49298 0.05356
1517.20722 0.05390
1515.92145 0.05426
1514.63568 0.05465
1513.34991 0.05513
1512.06414 0.05563
1510.77837 0.05607
1509.49260 0.05651
1508.20683 0.05705
1506.92107 0.05766
1505.63530 0.05819
1504.34953 0.05864
1503.06376 0.05914
1501.77799 0.05972
1500.49222 0.06027
1499.20645 0.06071
1497.92068 0.06106
1496.63491 0.06131
1495.34915 0.06146
1494.06338 0.06157
1492.77761 0.06178
1491.49184 0.06212
1490.20607 0.06255
1488.92030 0.06307
1487.63453 0.06368
1486.34876 0.06437
1485.06299 0.06511
1483.77723 0.06587
1482.49146 0.06664
1481.20569 0.06739
1479.91992 0.06813
1478.63415 0.06892
1477.34838 0.06976
1476.06261 0.07064
1474.77684 0.07153
1473.49108 0.07244
1472.20531 0.07329
1470.91954 0.07407
1469.63377 0.07477
1468.34800 0.07544
1467.06223 0.07611
1465.77646 0.07679
1464.49069 0.07746
1463.20492 0.07811
1461.91916 0.07876
1460.63339 0.07947
1459.34762 0.08029
1458.06185 0.08118
1456.77608 0.08201
1455.49031 0.08268
1454.20454 0.08330
1452.91877 0.08396
1451.63301 0.08461
1450.34724 0.08518
1449.06147 0.08559
1447.77570 0.08583
1446.48993 0.08596
1445.20416 0.08604
1443.91839 0.08612
1442.63262 0.08614
1441.34685 0.08602
1440.06109 0.08581
1438.77532 0.08563
1437.48955 0.08550
1436.20378 0.08538
1434.91801 0.08529
1433.63224 0.08538
1432.34647 0.08569
1431.06070 0.08615
1429.77494 0.08670
1428.48917 0.08730
1427.20340 0.08800
1425.91763 0.08883
1424.63186 0.08976
1423.34609 0.09068
1422.06032 0.09159
1420.77455 0.09254
1419.48878 0.09348
1418.20302 0.09433
1416.91725 0.09509
1415.63148 0.09577
1414.34571 0.09635
1413.05994 0.09680
1411.77417 0.09712
1410.48840 0.09730
1409.20263 0.09734
1407.91687 0.09724
1406.63110 0.09698
1405.34533 0.09656
1404.05956 0.09594
1402.77379 0.09512
1401.48802 0.09414
1400.20225 0.09301
1398.91648 0.09178
1397.63071 0.09048
1396.34495 0.08920
1395.05918 0.08793
1393.77341 0.08659
1392.48764 0.08517
1391.20187 0.08372
1389.91610 0.08232
1388.63033 0.08096
1387.34456 0.07960
1386.05880 0.07821
1384.77303 0.07682
1383.48726 0.07543
1382.20149 0.07402
1380.91572 0.07261
1379.62995 0.07123
1378.34418 0.06989
1377.05841 0.06854
1375.77264 0.06712
1374.48688 0.06558
1373.20111 0.06394
1371.91534 0.06226
1370.62957 0.06065
1369.34380 0.05913
1368.05803 0.05768
1366.77226 0.05628
1365.48649 0.05496
1364.20073 0.05371
1362.91496 0.05251
1361.62919 0.05132
1360.34342 0.05019
1359.05765 0.04918
1357.77188 0.04831
1356.48611 0.04756
1355.20034 0.04686
1353.91457 0.04620
1352.62881 0.04560
1351.34304 0.04506
1350.05727 0.04459
1348.77150 0.04414
1347.48573 0.04370
1346.19996 0.04326
1344.91419 0.04283
1343.62842 0.04243
1342.34266 0.04204
1341.05689 0.04165
1339.77112 0.04123
1338.48535 0.04081
1337.19958 0.04043
1335.91381 0.04007
1334.62804 0.03970
1333.34227 0.03933
1332.05650 0.03898
1330.77074 0.03866
1329.48497 0.03834
1328.19920 0.03797
1326.91343 0.03757
1325.62766 0.03717
1324.34189 0.03681
1323.05612 0.03646
1321.77035 0.03611
1320.48459 0.03575
1319.19882 0.03539
1317.91305 0.03502
1316.62728 0.03465
1315.34151 0.03431
1314.05574 0.03401
1312.76997 0.03377
1311.48420 0.03356
1310.19843 0.03335
1308.91267 0.03311
1307.62690 0.03283
1306.34113 0.03251
1305.05536 0.03215
1303.76959 0.03180
1302.48382 0.03148
1301.19805 0.03121
1299.91228 0.03100
1298.62652 0.03079
1297.34075 0.03055
1296.05498 0.03027
1294.76921 0.02998
1293.48344 0.02974
1292.19767 0.02959
1290.91190 0.02953
1289.62613 0.02949
1288.34036 0.02940
1287.05460 0.02926
1285.76883 0.02909
1284.48306 0.02895
1283.19729 0.02884
1281.91152 0.02874
1280.62575 0.02865
1279.33998 0.02854
1278.05421 0.02842
1276.76845 0.02828
1275.48268 0.02814
1274.19691 0.02800
1272.91114 0.02786
1271.62537 0.02773
1270.33960 0.02761
1269.05383 0.02753
1267.76806 0.02748
1266.48229 0.02745
1265.19653 0.02738
1263.91076 0.02727
1262.62499 0.02712
1261.33922 0.02699
1260.05345 0.02690
1258.76768 0.02686
1257.48191 0.02684
1256.19614 0.02684
1254.91037 0.02681
1253.62461 0.02677
1252.33884 0.02674
1251.05307 0.02677
1249.76730 0.02683
1248.48153 0.02687
1247.19576 0.02684
1245.90999 0.02676
1244.62422 0.02668
1243.33846 0.02665
1242.05269 0.02665
1240.76692 0.02663
1239.48115 0.02653
1238.19538 0.02637
1236.90961 0.02620
1235.62384 0.02607
1234.33807 0.02598
1233.05230 0.02592
1231.76654 0.02586
1230.48077 0.02577
1229.19500 0.02560
1227.90923 0.02534
1226.62346 0.02503
1225.33769 0.02474
1224.05192 0.02450
1222.76615 0.02428
1221.48039 0.02401
1220.19462 0.02369
1218.90885 0.02336
1217.62308 0.02305
1216.33731 0.02279
1215.05154 0.02261
1213.76577 0.02249
1212.48000 0.02242
1211.19423 0.02239
1209.90847 0.02238
1208.62270 0.02236
1207.33693 0.02232
1206.05116 0.02224
1204.76539 0.02213
1203.47962 0.02197
1202.19385 0.02173
1200.90808 0.02151
1199.62232 0.02162
1198.33655 0.02157
1197.05078 0.02151
1195.76501 0.02141
1194.47924 0.02130
1193.19347 0.02119
1191.90770 0.02109
1190.62193 0.02098
1189.33616 0.02085
1188.05040 0.02071
1186.76463 0.02057
1185.47886 0.02044
1184.19309 0.02032
1182.90732 0.02020
1181.62155 0.02010
1180.33578 0.02001
1179.05001 0.01990
1177.76425 0.01979
1176.47848 0.01973
1175.19271 0.01972
1173.90694 0.01976
1172.62117 0.01983
1171.33540 0.01990
1170.04963 0.01998
1168.76386 0.02007
1167.47809 0.02014
1166.19233 0.02019
1164.90656 0.02021
1163.62079 0.02020
1162.33502 0.02017
1161.04925 0.02011
1159.76348 0.02003
1158.47771 0.01997
1157.19194 0.02000
1155.90618 0.02014
1154.62041 0.02034
1153.33464 0.02053
1152.04887 0.02064
1150.76310 0.02070
1149.47733 0.02075
1148.19156 0.02082
1146.90579 0.02095
1145.62002 0.02114
1144.33426 0.02143
1143.04849 0.02182
1141.76272 0.02229
1140.47695 0.02280
1139.19118 0.02336
1137.90541 0.02398
1136.61964 0.02470
1135.33387 0.02556
1134.04811 0.02654
1132.76234 0.02763
1131.47657 0.02884
1130.19080 0.03019
1128.90503 0.03173
1127.61926 0.03347
1126.33349 0.03539
1125.04772 0.03743
1123.76195 0.03955
1122.47619 0.04172
1121.19042 0.04394
1119.90465 0.04623
1118.61888 0.04860
1117.33311 0.05105
1116.04734 0.05355
1114.76157 0.05604
1113.47580 0.05845
1112.19004 0.06076
1110.90427 0.06296
1109.61850 0.06509
1108.33273 0.06715
1107.04696 0.06915
1105.76119 0.07107
1104.47542 0.07294
1103.18965 0.07474
1101.90388 0.07639
1100.61812 0.07786
1099.33235 0.07924
1098.04658 0.08067
1096.76081 0.08222
1095.47504 0.08380
1094.18927 0.08528
1092.90350 0.08656
1091.61773 0.08764
1090.33197 0.08859
1089.04620 0.08948
1087.76043 0.09037
1086.47466 0.09128
1085.18889 0.09220
1083.90312 0.09313
1082.61735 0.09409
1081.33158 0.09512
1080.04581 0.09629
1078.76005 0.09762
1077.47428 0.09912
1076.18851 0.10076
1074.90274 0.10244
1073.61697 0.10412
1072.33120 0.10582
1071.04543 0.10759
1069.75966 0.10945
1068.47390 0.11139
1067.18813 0.11336
1065.90236 0.11534
1064.61659 0.11728
1063.33082 0.11920
1062.04505 0.12116
1060.75928 0.12321
1059.47351 0.12530
1058.18774 0.12732
1056.90198 0.12919
1055.61621 0.13095
1054.33044 0.13271
1053.04467 0.13456
1051.75890 0.13648
1050.47313 0.13840
1049.18736 0.14030
1047.90159 0.14219
1046.61583 0.14413
1045.33006 0.14615
1044.04429 0.14825
1042.75852 0.15039
1041.47275 0.15255
1040.18698 0.15472
1038.90121 0.15692
1037.61544 0.15916
1036.32967 0.16139
1035.04391 0.16358
1033.75814 0.16570
1032.47237 0.16775
1031.18660 0.16972
1029.90083 0.17158
1028.61506 0.17327
1027.32929 0.17479
1026.04352 0.17613
1024.75775 0.17728
1023.47199 0.17825
1022.18622 0.17900
1020.90045 0.17956
1019.61468 0.17992
1018.32891 0.18003
1017.04314 0.17988
1015.75737 0.17949
1014.47160 0.17889
1013.18584 0.17809
1011.90007 0.17702
1010.61430 0.17565
1009.32853 0.17401
1008.04276 0.17214
1006.75699 0.17006
1005.47122 0.16778
1004.18545 0.16530
1002.89968 0.16260
1001.61392 0.15970
1000.32815 0.15664
999.04238 0.15349
997.75661 0.15028
996.47084 0.14699
995.18507 0.14362
993.89930 0.14019
992.61353 0.13670
991.32777 0.13314
990.04200 0.12956
988.75623 0.12605
987.47046 0.12268
986.18469 0.11940
984.89892 0.11614
983.61315 0.11291
982.32738 0.10974
981.04161 0.10669
979.75585 0.10372
978.47008 0.10085
977.18431 0.09810
975.89854 0.09556
974.61277 0.09329
973.32700 0.09132
972.04123 0.08964
970.75546 0.08830
969.46970 0.08739
968.18393 0.08699
966.89816 0.08706
965.61239 0.08746
964.32662 0.08797
963.04085 0.08843
961.75508 0.08873
960.46931 0.08878
959.18354 0.08846
957.89778 0.08766
956.61201 0.08641
955.32624 0.08490
954.04047 0.08333
952.75470 0.08179
951.46893 0.08021
950.18316 0.07854
948.89739 0.07683
947.61163 0.07515
946.32586 0.07352
945.04009 0.07194
943.75432 0.07038
942.46855 0.06882
941.18278 0.06728
939.89701 0.06577
938.61124 0.06436
937.32547 0.06308
936.03971 0.06192
934.75394 0.06082
933.46817 0.05974
932.18240 0.05867
930.89663 0.05761
929.61086 0.05665
928.32509 0.05580
927.03932 0.05506
925.75356 0.05438
924.46779 0.05377
923.18202 0.05319
921.89625 0.05259
920.61048 0.05191
919.32471 0.05110
918.03894 0.05021
916.75317 0.04939
915.46740 0.04877
914.18164 0.04838
912.89587 0.04805
911.61010 0.04758
910.32433 0.04691
909.03856 0.04616
907.75279 0.04554
906.46702 0.04510
905.18125 0.04477
903.89549 0.04443
902.60972 0.04400
901.32395 0.04348
900.03818 0.04292
898.75241 0.04237
897.46664 0.04184
896.18087 0.04136
894.89510 0.04100
893.60933 0.04077
892.32357 0.04063
891.03780 0.04050
889.75203 0.04042
888.46626 0.04049
887.18049 0.04086
885.89472 0.04166
884.60895 0.04305
883.32318 0.04511
882.03742 0.04770
880.75165 0.05042
879.46588 0.05278
878.18011 0.05454
876.89434 0.05588
875.60857 0.05715
874.32280 0.05852
873.03703 0.05978
871.75126 0.06054
870.46550 0.06053
869.17973 0.05975
867.89396 0.05836
866.60819 0.05658
865.32242 0.05462
864.03665 0.05263
862.75088 0.05070
861.46511 0.04885
860.17935 0.04709
858.89358 0.04548
857.60781 0.04409
856.32204 0.04290
855.03627 0.04189
853.75050 0.04104
852.46473 0.04040
851.17896 0.04002
849.89319 0.03981
848.60743 0.03960
847.32166 0.03927
846.03589 0.03880
844.75012 0.03826
843.46435 0.03776
842.17858 0.03736
840.89281 0.03711
839.60704 0.03694
838.32128 0.03675
837.03551 0.03646
835.74974 0.03608
834.46397 0.03570
833.17820 0.03541
831.89243 0.03523
830.60666 0.03511
829.32089 0.03502
828.03512 0.03493
826.74936 0.03487
825.46359 0.03481
824.17782 0.03473
822.89205 0.03461
821.60628 0.03450
820.32051 0.03440
819.03474 0.03429
817.74897 0.03413
816.46321 0.03394
815.17744 0.03376
813.89167 0.03364
812.60590 0.03354
811.32013 0.03346
810.03436 0.03340
808.74859 0.03334
807.46282 0.03330
806.17705 0.03329
804.89129 0.03329
803.60552 0.03330
802.31975 0.03331
801.03398 0.03330
799.74821 0.03324
798.46244 0.03311
797.17667 0.03293
795.89090 0.03275
794.60513 0.03258
793.31937 0.03245
792.03360 0.03238
790.74783 0.03240
789.46206 0.03247
788.17629 0.03254
786.89052 0.03260
785.60475 0.03263
784.31898 0.03264
783.03322 0.03256
781.74745 0.03238
780.46168 0.03217
779.17591 0.03203
777.89014 0.03203
776.60437 0.03211
775.31860 0.03218
774.03283 0.03217
772.74706 0.03213
771.46130 0.03214
770.17553 0.03223
768.88976 0.03234
767.60399 0.03238
766.31822 0.03235
765.03245 0.03232
763.74668 0.03230
762.46091 0.03227
761.17515 0.03219
759.88938 0.03210
758.60361 0.03206
757.31784 0.03211
756.03207 0.03223
754.74630 0.03239
753.46053 0.03253
752.17476 0.03262
750.88899 0.03262
749.60323 0.03255
748.31746 0.03245
747.03169 0.03235
745.74592 0.03222
744.46015 0.03207
743.17438 0.03187
741.88861 0.03167
740.60284 0.03149
739.31708 0.03142
738.03131 0.03145
736.74554 0.03156
735.45977 0.03167
734.17400 0.03175
732.88823 0.03181
731.60246 0.03187
730.31669 0.03194
729.03092 0.03199
727.74516 0.03199
726.45939 0.03196
725.17362 0.03194
723.88785 0.03216
722.60208 0.03208
721.31631 0.03208
720.03054 0.03219
718.74477 0.03234
717.45901 0.03252
716.17324 0.03268
714.88747 0.03278
713.60170 0.03279
712.31593 0.03274
711.03016 0.03264
709.74439 0.03253
708.45862 0.03240
707.17285 0.03225
705.88709 0.03211
704.60132 0.03202
703.31555 0.03198
702.02978 0.03199
700.74401 0.03198
699.45824 0.03190
698.17247 0.03179
696.88670 0.03172
695.60094 0.03170
694.31517 0.03170
693.02940 0.03168
691.74363 0.03165
690.45786 0.03162
689.17209 0.03160
687.88632 0.03159
686.60055 0.03157
685.31478 0.03151
684.02902 0.03141
682.74325 0.03129
681.45748 0.03118
680.17171 0.03109
678.88594 0.03101
677.60017 0.03096
676.31440 0.03094
675.02863 0.03098
673.74287 0.03107
672.45710 0.03120
671.17133 0.03134
669.88556 0.03147
668.59979 0.03156
667.31402 0.03159
666.02825 0.03157
664.74248 0.03149
663.45671 0.03136
662.17095 0.03122
660.88518 0.03110
659.59941 0.03099
658.31364 0.03087
657.02787 0.03071
655.74210 0.03049
654.45633 0.03026
653.17056 0.03006
651.88480 0.02993
650.59903 0.02986
649.31326 0.02984
648.02749 0.02986
646.74172 0.02987
645.45595 0.02985
644.17018 0.02979
642.88441 0.02972
641.59864 0.02962
640.31288 0.02951
639.02711 0.02941
637.74134 0.02934
636.45557 0.02935
635.16980 0.02943
633.88403 0.02959
632.59826 0.02970
631.31249 0.02908
630.02673 0.02713
628.74096 0.02657
627.45519 0.02897
626.16942 0.02984
624.88365 0.02950
623.59788 0.02921
622.31211 0.02960
621.02634 0.03124
619.74057 0.03413
618.45481 0.03731
617.16904 0.03964
615.88327 0.04096
614.59750 0.04231
613.31173 0.04495
612.02596 0.04917
610.74019 0.05419
609.45442 0.05914
608.16866 0.06392
606.88289 0.06867
605.59712 0.07305
604.31135 0.07642
603.02558 0.07834
601.73981 0.07879
600.45404 0.07796
599.16827 0.07623
597.88250 0.07406
596.59674 0.07191
595.31097 0.06999
594.02520 0.06828
592.73943 0.06671
591.45366 0.06529
590.16789 0.06416
588.88212 0.06345
587.59635 0.06325
586.31059 0.06358
585.02482 0.06440
583.73905 0.06567
582.45328 0.06729
581.16751 0.06913
579.88174 0.07104
578.59597 0.07284
577.31020 0.07447
576.02443 0.07597
574.73867 0.07744
573.45290 0.07896
572.16713 0.08050
570.88136 0.08209
569.59559 0.08383
568.30982 0.08587
567.02405 0.08830
565.73828 0.09103
564.45251 0.09372
563.16675 0.09599
561.88098 0.09754
560.59521 0.09823
559.30944 0.09798
558.02367 0.09672
556.73790 0.09442
555.45213 0.09127
554.16636 0.08758
552.88060 0.08371
551.59483 0.07992
550.30906 0.07639
549.02329 0.07312
547.73752 0.07009
546.45175 0.06733
545.16598 0.06488
543.88021 0.06281
542.59444 0.06108
541.30868 0.05958
540.02291 0.05814
538.73714 0.05670
537.45137 0.05524
536.16560 0.05382
534.87983 0.05249
533.59406 0.05131
532.30829 0.05028
531.02253 0.04935
529.73676 0.04842
528.45099 0.04741
527.16522 0.04631
525.87945 0.04523
524.59368 0.04432
523.30791 0.04366
522.02214 0.04320
520.73637 0.04272
519.45061 0.04205
518.16484 0.04119
516.87907 0.04030
515.59330 0.03950
514.30753 0.03882
513.02176 0.03825
511.73599 0.03776
510.45022 0.03737
509.16446 0.03706
507.87869 0.03676
506.59292 0.03641
505.30715 0.03600
504.02138 0.03558
502.73561 0.03520
501.44984 0.03487
500.16407 0.03454
498.87830 0.03416
497.59254 0.03371
496.30677 0.03319
495.02100 0.03263
493.73523 0.03214
492.44946 0.03183
491.16369 0.03172
489.87792 0.03171
488.59215 0.03162
487.30639 0.03139
486.02062 0.03108
484.73485 0.03084
483.44908 0.03075
482.16331 0.03073
480.87754 0.03072
479.59177 0.03071
478.30600 0.03077
477.02023 0.03092
475.73447 0.03116
474.44870 0.03140
473.16293 0.03155
471.87716 0.03156
470.59139 0.03143
469.30562 0.03123
468.01985 0.03108
466.73408 0.03099
465.44832 0.03086
464.16255 0.03061
462.87678 0.03020
461.59101 0.02969
460.30524 0.02917
459.01947 0.02867
457.73370 0.02826
456.44793 0.02793
455.16216 0.02766
453.87640 0.02739
452.59063 0.02706
451.30486 0.02669
450.01909 0.02633
448.73332 0.02601
447.44755 0.02573
446.16178 0.02546
444.87601 0.02519
443.59025 0.02491
442.30448 0.02466
441.01871 0.02446
439.73294 0.02434
438.44717 0.02425
437.16140 0.02414
435.87563 0.02398
434.58986 0.02379
433.30409 0.02361
432.01833 0.02345
430.73256 0.02329
429.44679 0.02309
428.16102 0.02286
426.87525 0.02262
425.58948 0.02240
424.30371 0.02221
423.01794 0.02204
421.73218 0.02195
420.44641 0.02192
419.16064 0.02187
417.87487 0.02170
416.58910 0.02144
415.30333 0.02115
414.01756 0.02092
412.73179 0.02077
411.44602 0.02068
410.16026 0.02063
408.87449 0.02060
407.58872 0.02056
406.30295 0.02053
405.01718 0.02053
403.73141 0.02054
402.44564 0.02057
401.15987 0.02059
399.87411 0.02061
