3997.45528	0.04628
3996.16951	0.04641
3994.88374	0.04663
3993.59798	0.04695
3992.31221	0.04748
3991.02644	0.04833
3989.74067	0.04935
3988.45490	0.05020
3987.16913	0.05058
3985.88336	0.05047
3984.59759	0.05013
3983.31183	0.04979
3982.02606	0.04962
3980.74029	0.04979
3979.45452	0.05047
3978.16875	0.05156
3976.88298	0.05257
3975.59721	0.05283
3974.31144	0.05200
3973.02567	0.05035
3971.73991	0.04866
3970.45414	0.04769
3969.16837	0.04766
3967.88260	0.04822
3966.59683	0.04887
3965.31106	0.04936
3964.02529	0.04964
3962.73952	0.04969
3961.45376	0.04957
3960.16799	0.04944
3958.88222	0.04956
3957.59645	0.04999
3956.31068	0.05059
3955.02491	0.05115
3953.73914	0.05157
3952.45337	0.05180
3951.16760	0.05171
3949.88184	0.05111
3948.59607	0.05003
3947.31030	0.04873
3946.02453	0.04755
3944.73876	0.04677
3943.45299	0.04665
3942.16722	0.04734
3940.88145	0.04864
3939.59569	0.04989
3938.30992	0.05048
3937.02415	0.05028
3935.73838	0.04970
3934.45261	0.04929
3933.16684	0.04927
3931.88107	0.04952
3930.59530	0.04971
3929.30953	0.04958
3928.02377	0.04902
3926.73800	0.04818
3925.45223	0.04740
3924.16646	0.04705
3922.88069	0.04728
3921.59492	0.04791
3920.30915	0.04856
3919.02338	0.04890
3917.73762	0.04894
3916.45185	0.04890
3915.16608	0.04884
3913.88031	0.04860
3912.59454	0.04810
3911.30877	0.04765
3910.02300	0.04772
3908.73723	0.04853
3907.45146	0.04975
3906.16570	0.05064
3904.87993	0.05055
3903.59416	0.04952
3902.30839	0.04828
3901.02262	0.04760
3899.73685	0.04757
3898.45108	0.04771
3897.16531	0.04763
3895.87955	0.04729
3894.59378	0.04675
3893.30801	0.04612
3892.02224	0.04559
3890.73647	0.04546
3889.45070	0.04585
3888.16493	0.04661
3886.87916	0.04736
3885.59339	0.04774
3884.30763	0.04759
3883.02186	0.04718
3881.73609	0.04700
3880.45032	0.04726
3879.16455	0.04769
3877.87878	0.04783
3876.59301	0.04760
3875.30724	0.04741
3874.02148	0.04768
3872.73571	0.04841
3871.44994	0.04908
3870.16417	0.04905
3868.87840	0.04798
3867.59263	0.04609
3866.30686	0.04401
3865.02109	0.04247
3863.73532	0.04197
3862.44956	0.04260
3861.16379	0.04402
3859.87802	0.04564
3858.59225	0.04687
3857.30648	0.04751
3856.02071	0.04764
3854.73494	0.04747
3853.44917	0.04708
3852.16341	0.04657
3850.87764	0.04619
3849.59187	0.04616
3848.30610	0.04639
3847.02033	0.04641
3845.73456	0.04594
3844.44879	0.04528
3843.16302	0.04497
3841.87725	0.04512
3840.59149	0.04530
3839.30572	0.04513
3838.01995	0.04480
3836.73418	0.04477
3835.44841	0.04517
3834.16264	0.04570
3832.87687	0.04601
3831.59110	0.04600
3830.30534	0.04580
3829.01957	0.04574
3827.73380	0.04605
3826.44803	0.04665
3825.16226	0.04708
3823.87649	0.04700
3822.59072	0.04647
3821.30495	0.04587
3820.01918	0.04545
3818.73342	0.04526
3817.44765	0.04528
3816.16188	0.04555
3814.87611	0.04603
3813.59034	0.04648
3812.30457	0.04659
3811.01880	0.04617
3809.73303	0.04541
3808.44726	0.04477
3807.16150	0.04467
3805.87573	0.04514
3804.58996	0.04571
3803.30419	0.04585
3802.01842	0.04547
3800.73265	0.04489
3799.44688	0.04455
3798.16111	0.04467
3796.87535	0.04518
3795.58958	0.04586
3794.30381	0.04635
3793.01804	0.04635
3791.73227	0.04587
3790.44650	0.04524
3789.16073	0.04478
3787.87496	0.04452
3786.58919	0.04438
3785.30343	0.04449
3784.01766	0.04508
3782.73189	0.04606
3781.44612	0.04692
3780.16035	0.04718
3778.87458	0.04687
3777.58881	0.04648
3776.30304	0.04635
3775.01728	0.04634
3773.73151	0.04607
3772.44574	0.04547
3771.15997	0.04494
3769.87420	0.04494
3768.58843	0.04551
3767.30266	0.04618
3766.01689	0.04641
3764.73112	0.04596
3763.44536	0.04504
3762.15959	0.04397
3760.87382	0.04304
3759.58805	0.04242
3758.30228	0.04222
3757.01651	0.04244
3755.73074	0.04286
3754.44497	0.04310
3753.15921	0.04295
3751.87344	0.04264
3750.58767	0.04256
3749.30190	0.04281
3748.01613	0.04313
3746.73036	0.04319
3745.44459	0.04298
3744.15882	0.04276
3742.87305	0.04265
3741.58729	0.04255
3740.30152	0.04226
3739.01575	0.04177
3737.72998	0.04135
3736.44421	0.04130
3735.15844	0.04175
3733.87267	0.04243
3732.58690	0.04292
3731.30114	0.04302
3730.01537	0.04298
3728.72960	0.04319
3727.44383	0.04364
3726.15806	0.04394
3724.87229	0.04384
3723.58652	0.04346
3722.30075	0.04298
3721.01498	0.04240
3719.72922	0.04161
3718.44345	0.04073
3717.15768	0.04018
3715.87191	0.04045
3714.58614	0.04174
3713.30037	0.04359
3712.01460	0.04501
3710.72883	0.04519
3709.44307	0.04421
3708.15730	0.04298
3706.87153	0.04227
3705.58576	0.04207
3704.29999	0.04187
3703.01422	0.04144
3701.72845	0.04102
3700.44268	0.04083
3699.15691	0.04082
3697.87115	0.04092
3696.58538	0.04122
3695.29961	0.04173
3694.01384	0.04218
3692.72807	0.04227
3691.44230	0.04195
3690.15653	0.04156
3688.87076	0.04136
3687.58500	0.04130
3686.29923	0.04105
3685.01346	0.04046
3683.72769	0.03975
3682.44192	0.03920
3681.15615	0.03877
3679.87038	0.03829
3678.58461	0.03798
3677.29884	0.03848
3676.01308	0.03998
3674.72731	0.04185
3673.44154	0.04322
3672.15577	0.04379
3670.87000	0.04386
3669.58423	0.04373
3668.29846	0.04351
3667.01269	0.04326
3665.72693	0.04301
3664.44116	0.04274
3663.15539	0.04230
3661.86962	0.04166
3660.58385	0.04101
3659.29808	0.04060
3658.01231	0.04059
3656.72654	0.04096
3655.44077	0.04163
3654.15501	0.04240
3652.86924	0.04296
3651.58347	0.04315
3650.29770	0.04316
3649.01193	0.04335
3647.72616	0.04377
3646.44039	0.04415
3645.15462	0.04438
3643.86886	0.04466
3642.58309	0.04515
3641.29732	0.04560
3640.01155	0.04558
3638.72578	0.04502
3637.44001	0.04438
3636.15424	0.04418
3634.86847	0.04454
3633.58270	0.04518
3632.29694	0.04567
3631.01117	0.04576
3629.72540	0.04554
3628.43963	0.04523
3627.15386	0.04498
3625.86809	0.04483
3624.58232	0.04480
3623.29655	0.04499
3622.01079	0.04551
3620.72502	0.04620
3619.43925	0.04673
3618.15348	0.04690
3616.86771	0.04693
3615.58194	0.04706
3614.29617	0.04722
3613.01040	0.04708
3611.72463	0.04665
3610.43887	0.04642
3609.15310	0.04686
3607.86733	0.04772
3606.58156	0.04827
3605.29579	0.04821
3604.01002	0.04790
3602.72425	0.04784
3601.43848	0.04801
3600.15272	0.04809
3598.86695	0.04787
3597.58118	0.04751
3596.29541	0.04742
3595.00964	0.04794
3593.72387	0.04907
3592.43810	0.05033
3591.15233	0.05107
3589.86656	0.05099
3588.58080	0.05029
3587.29503	0.04943
3586.00926	0.04888
3584.72349	0.04884
3583.43772	0.04922
3582.15195	0.04967
3580.86618	0.04988
3579.58041	0.04983
3578.29464	0.04976
3577.00888	0.04992
3575.72311	0.05040
3574.43734	0.05108
3573.15157	0.05179
3571.86580	0.05236
3570.58003	0.05270
3569.29426	0.05278
3568.00849	0.05276
3566.72273	0.05289
3565.43696	0.05329
3564.15119	0.05378
3562.86542	0.05402
3561.57965	0.05393
3560.29388	0.05376
3559.00811	0.05383
3557.72234	0.05426
3556.43657	0.05500
3555.15081	0.05587
3553.86504	0.05657
3552.57927	0.05675
3551.29350	0.05640
3550.00773	0.05594
3548.72196	0.05588
3547.43619	0.05626
3546.15042	0.05677
3544.86466	0.05714
3543.57889	0.05736
3542.29312	0.05752
3541.00735	0.05761
3539.72158	0.05772
3538.43581	0.05800
3537.15004	0.05851
3535.86427	0.05905
3534.57850	0.05928
3533.29274	0.05907
3532.00697	0.05852
3530.72120	0.05783
3529.43543	0.05733
3528.14966	0.05727
3526.86389	0.05769
3525.57812	0.05827
3524.29235	0.05862
3523.00659	0.05860
3521.72082	0.05839
3520.43505	0.05826
3519.14928	0.05842
3517.86351	0.05899
3516.57774	0.05983
3515.29197	0.06068
3514.00620	0.06131
3512.72043	0.06166
3511.43467	0.06171
3510.14890	0.06150
3508.86313	0.06112
3507.57736	0.06071
3506.29159	0.06037
3505.00582	0.06015
3503.72005	0.06019
3502.43428	0.06068
3501.14852	0.06162
3499.86275	0.06272
3498.57698	0.06356
3497.29121	0.06387
3496.00544	0.06366
3494.71967	0.06310
3493.43390	0.06242
3492.14813	0.06186
3490.86236	0.06170
3489.57660	0.06212
3488.29083	0.06302
3487.00506	0.06397
3485.71929	0.06451
3484.43352	0.06445
3483.14775	0.06386
3481.86198	0.06304
3480.57621	0.06245
3479.29045	0.06244
3478.00468	0.06301
3476.71891	0.06380
3475.43314	0.06438
3474.14737	0.06462
3472.86160	0.06465
3471.57583	0.06463
3470.29006	0.06458
3469.00429	0.06448
3467.71853	0.06442
3466.43276	0.06451
3465.14699	0.06476
3463.86122	0.06501
3462.57545	0.06508
3461.28968	0.06495
3460.00391	0.06468
3458.71814	0.06434
3457.43238	0.06398
3456.14661	0.06366
3454.86084	0.06356
3453.57507	0.06386
3452.28930	0.06449
3451.00353	0.06511
3449.71776	0.06545
3448.43199	0.06559
3447.14622	0.06574
3445.86046	0.06595
3444.57469	0.06614
3443.28892	0.06632
3442.00315	0.06654
3440.71738	0.06675
3439.43161	0.06681
3438.14584	0.06670
3436.86007	0.06656
3435.57431	0.06662
3434.28854	0.06694
3433.00277	0.06741
3431.71700	0.06783
3430.43123	0.06809
3429.14546	0.06824
3427.85969	0.06834
3426.57392	0.06833
3425.28815	0.06812
3424.00239	0.06778
3422.71662	0.06754
3421.43085	0.06765
3420.14508	0.06819
3418.85931	0.06888
3417.57354	0.06931
3416.28777	0.06923
3415.00200	0.06881
3413.71624	0.06848
3412.43047	0.06852
3411.14470	0.06890
3409.85893	0.06941
3408.57316	0.06993
3407.28739	0.07042
3406.00162	0.07085
3404.71585	0.07113
3403.43008	0.07121
3402.14432	0.07109
3400.85855	0.07084
3399.57278	0.07049
3398.28701	0.07007
3397.00124	0.06973
3395.71547	0.06962
3394.42970	0.06974
3393.14393	0.06989
3391.85817	0.06993
3390.57240	0.07006
3389.28663	0.07056
3388.00086	0.07133
3386.71509	0.07192
3385.42932	0.07197
3384.14355	0.07166
3382.85778	0.07145
3381.57201	0.07159
3380.28625	0.07193
3379.00048	0.07216
3377.71471	0.07212
3376.42894	0.07184
3375.14317	0.07146
3373.85740	0.07107
3372.57163	0.07081
3371.28586	0.07090
3370.00010	0.07144
3368.71433	0.07227
3367.42856	0.07306
3366.14279	0.07367
3364.85702	0.07418
3363.57125	0.07460
3362.28548	0.07470
3360.99971	0.07429
3359.71394	0.07351
3358.42818	0.07272
3357.14241	0.07219
3355.85664	0.07189
3354.57087	0.07172
3353.28510	0.07170
3351.99933	0.07195
3350.71356	0.07247
3349.42779	0.07307
3348.14202	0.07338
3346.85626	0.07323
3345.57049	0.07267
3344.28472	0.07200
3342.99895	0.07155
3341.71318	0.07153
3340.42741	0.07191
3339.14164	0.07235
3337.85587	0.07242
3336.57011	0.07206
3335.28434	0.07166
3333.99857	0.07162
3332.71280	0.07196
3331.42703	0.07231
3330.14126	0.07236
3328.85549	0.07216
3327.56972	0.07199
3326.28395	0.07204
3324.99819	0.07234
3323.71242	0.07284
3322.42665	0.07354
3321.14088	0.07434
3319.85511	0.07495
3318.56934	0.07513
3317.28357	0.07490
3315.99780	0.07455
3314.71204	0.07430
3313.42627	0.07416
3312.14050	0.07391
3310.85473	0.07351
3309.56896	0.07317
3308.28319	0.07319
3306.99742	0.07353
3305.71165	0.07392
3304.42588	0.07415
3303.14012	0.07422
3301.85435	0.07409
3300.56858	0.07368
3299.28281	0.07310
3297.99704	0.07271
3296.71127	0.07272
3295.42550	0.07292
3294.13973	0.07294
3292.85397	0.07269
3291.56820	0.07237
3290.28243	0.07219
3288.99666	0.07218
3287.71089	0.07230
3286.42512	0.07248
3285.13935	0.07260
3283.85358	0.07259
3282.56781	0.07252
3281.28205	0.07255
3279.99628	0.07269
3278.71051	0.07290
3277.42474	0.07316
3276.13897	0.07349
3274.85320	0.07372
3273.56743	0.07361
3272.28166	0.07310
3270.99590	0.07247
3269.71013	0.07212
3268.42436	0.07222
3267.13859	0.07268
3265.85282	0.07311
3264.56705	0.07307
3263.28128	0.07237
3261.99551	0.07120
3260.70974	0.07009
3259.42398	0.06951
3258.13821	0.06961
3256.85244	0.07021
3255.56667	0.07097
3254.28090	0.07153
3252.99513	0.07171
3251.70936	0.07153
3250.42359	0.07121
3249.13783	0.07100
3247.85206	0.07108
3246.56629	0.07135
3245.28052	0.07156
3243.99475	0.07145
3242.70898	0.07097
3241.42321	0.07034
3240.13744	0.06988
3238.85167	0.06973
3237.56591	0.06979
3236.28014	0.06986
3234.99437	0.06992
3233.70860	0.07007
3232.42283	0.07030
3231.13706	0.07040
3229.85129	0.07019
3228.56552	0.06974
3227.27976	0.06924
3225.99399	0.06882
3224.70822	0.06848
3223.42245	0.06826
3222.13668	0.06821
3220.85091	0.06831
3219.56514	0.06839
3218.27937	0.06829
3216.99360	0.06806
3215.70784	0.06799
3214.42207	0.06829
3213.13630	0.06886
3211.85053	0.06938
3210.56476	0.06955
3209.27899	0.06936
3207.99322	0.06899
3206.70745	0.06868
3205.42169	0.06857
3204.13592	0.06858
3202.85015	0.06849
3201.56438	0.06819
3200.27861	0.06779
3198.99284	0.06754
3197.70707	0.06760
3196.42130	0.06788
3195.13553	0.06810
3193.84977	0.06801
3192.56400	0.06764
3191.27823	0.06726
3189.99246	0.06713
3188.70669	0.06723
3187.42092	0.06738
3186.13515	0.06744
3184.84938	0.06746
3183.56362	0.06746
3182.27785	0.06739
3180.99208	0.06715
3179.70631	0.06675
3178.42054	0.06632
3177.13477	0.06594
3175.84900	0.06568
3174.56323	0.06557
3173.27746	0.06567
3171.99170	0.06598
3170.70593	0.06630
3169.42016	0.06640
3168.13439	0.06620
3166.84862	0.06585
3165.56285	0.06553
3164.27708	0.06535
3162.99131	0.06526
3161.70555	0.06520
3160.41978	0.06506
3159.13401	0.06479
3157.84824	0.06447
3156.56247	0.06428
3155.27670	0.06439
3153.99093	0.06465
3152.70516	0.06470
3151.41939	0.06429
3150.13363	0.06357
3148.84786	0.06301
3147.56209	0.06290
3146.27632	0.06312
3144.99055	0.06331
3143.70478	0.06321
3142.41901	0.06276
3141.13324	0.06204
3139.84748	0.06126
3138.56171	0.06067
3137.27594	0.06049
3135.99017	0.06075
3134.70440	0.06134
3133.41863	0.06205
3132.13286	0.06268
3130.84709	0.06311
3129.56132	0.06332
3128.27556	0.06332
3126.98979	0.06309
3125.70402	0.06265
3124.41825	0.06212
3123.13248	0.06168
3121.84671	0.06141
3120.56094	0.06120
3119.27517	0.06096
3117.98940	0.06068
3116.70364	0.06049
3115.41787	0.06046
3114.13210	0.06053
3112.84633	0.06063
3111.56056	0.06076
3110.27479	0.06097
3108.98902	0.06121
3107.70325	0.06126
3106.41749	0.06095
3105.13172	0.06040
3103.84595	0.05999
3102.56018	0.05994
3101.27441	0.06010
3099.98864	0.06019
3098.70287	0.06009
3097.41710	0.05994
3096.13133	0.05979
3094.84557	0.05956
3093.55980	0.05922
3092.27403	0.05894
3090.98826	0.05893
3089.70249	0.05916
3088.41672	0.05934
3087.13095	0.05922
3085.84518	0.05888
3084.55942	0.05860
3083.27365	0.05867
3081.98788	0.05913
3080.70211	0.05981
3079.41634	0.06040
3078.13057	0.06071
3076.84480	0.06071
3075.55903	0.06054
3074.27326	0.06025
3072.98750	0.05979
3071.70173	0.05918
3070.41596	0.05861
3069.13019	0.05836
3067.84442	0.05849
3066.55865	0.05877
3065.27288	0.05889
3063.98711	0.05875
3062.70135	0.05852
3061.41558	0.05842
3060.12981	0.05847
3058.84404	0.05849
3057.55827	0.05834
3056.27250	0.05808
3054.98673	0.05781
3053.70096	0.05757
3052.41519	0.05735
3051.12943	0.05719
3049.84366	0.05723
3048.55789	0.05747
3047.27212	0.05775
3045.98635	0.05789
3044.70058	0.05781
3043.41481	0.05755
3042.12904	0.05719
3040.84328	0.05678
3039.55751	0.05642
3038.27174	0.05629
3036.98597	0.05649
3035.70020	0.05690
3034.41443	0.05722
3033.12866	0.05718
3031.84289	0.05679
3030.55712	0.05632
3029.27136	0.05600
3027.98559	0.05591
3026.69982	0.05596
3025.41405	0.05603
3024.12828	0.05606
3022.84251	0.05605
3021.55674	0.05601
3020.27097	0.05589
3018.98521	0.05562
3017.69944	0.05513
3016.41367	0.05447
3015.12790	0.05377
3013.84213	0.05324
3012.55636	0.05306
3011.27059	0.05324
3009.98482	0.05368
3008.69905	0.05419
3007.41329	0.05459
3006.12752	0.05478
3004.84175	0.05472
3003.55598	0.05446
3002.27021	0.05406
3000.98444	0.05365
2999.69867	0.05337
2998.41290	0.05327
2997.12714	0.05322
2995.84137	0.05311
2994.55560	0.05300
2993.26983	0.05302
2991.98406	0.05311
2990.69829	0.05315
2989.41252	0.05311
2988.12675	0.05306
2986.84098	0.05309
2985.55522	0.05330
2984.26945	0.05378
2982.98368	0.05445
2981.69791	0.05513
2980.41214	0.05565
2979.12637	0.05597
2977.84060	0.05605
2976.55483	0.05592
2975.26907	0.05564
2973.98330	0.05540
2972.69753	0.05536
2971.41176	0.05570
2970.12599	0.05643
2968.84022	0.05739
2967.55445	0.05830
2966.26868	0.05897
2964.98291	0.05948
2963.69715	0.06004
2962.41138	0.06080
2961.12561	0.06164
2959.83984	0.06239
2958.55407	0.06293
2957.26830	0.06324
2955.98253	0.06328
2954.69676	0.06305
2953.41100	0.06270
2952.12523	0.06246
2950.83946	0.06242
2949.55369	0.06252
2948.26792	0.06266
2946.98215	0.06290
2945.69638	0.06331
2944.41061	0.06383
2943.12484	0.06429
2941.83908	0.06458
2940.55331	0.06468
2939.26754	0.06474
2937.98177	0.06496
2936.69600	0.06545
2935.41023	0.06608
2934.12446	0.06655
2932.83869	0.06666
2931.55293	0.06648
2930.26716	0.06627
2928.98139	0.06630
2927.69562	0.06667
2926.40985	0.06727
2925.12408	0.06790
2923.83831	0.06835
2922.55254	0.06847
2921.26677	0.06822
2919.98101	0.06778
2918.69524	0.06738
2917.40947	0.06712
2916.12370	0.06693
2914.83793	0.06677
2913.55216	0.06663
2912.26639	0.06644
2910.98062	0.06601
2909.69486	0.06519
2908.40909	0.06411
2907.12332	0.06307
2905.83755	0.06236
2904.55178	0.06202
2903.26601	0.06193
2901.98024	0.06194
2900.69447	0.06195
2899.40870	0.06192
2898.12294	0.06185
2896.83717	0.06168
2895.55140	0.06139
2894.26563	0.06099
2892.97986	0.06052
2891.69409	0.06003
2890.40832	0.05953
2889.12255	0.05905
2887.83678	0.05862
2886.55102	0.05824
2885.26525	0.05800
2883.97948	0.05801
2882.69371	0.05825
2881.40794	0.05853
2880.12217	0.05862
2878.83640	0.05850
2877.55063	0.05831
2876.26487	0.05818
2874.97910	0.05817
2873.69333	0.05822
2872.40756	0.05827
2871.12179	0.05828
2869.83602	0.05828
2868.55025	0.05832
2867.26448	0.05847
2865.97871	0.05868
2864.69295	0.05884
2863.40718	0.05883
2862.12141	0.05858
2860.83564	0.05819
2859.54987	0.05791
2858.26410	0.05795
2856.97833	0.05824
2855.69256	0.05847
2854.40680	0.05841
2853.12103	0.05808
2851.83526	0.05764
2850.54949	0.05722
2849.26372	0.05681
2847.97795	0.05640
2846.69218	0.05602
2845.40641	0.05575
2844.12064	0.05564
2842.83488	0.05555
2841.54911	0.05524
2840.26334	0.05464
2838.97757	0.05390
2837.69180	0.05330
2836.40603	0.05297
2835.12026	0.05279
2833.83449	0.05256
2832.54873	0.05218
2831.26296	0.05173
2829.97719	0.05134
2828.69142	0.05112
2827.40565	0.05102
2826.11988	0.05085
2824.83411	0.05046
2823.54834	0.04989
2822.26257	0.04932
2820.97681	0.04896
2819.69104	0.04884
2818.40527	0.04881
2817.11950	0.04871
2815.83373	0.04856
2814.54796	0.04849
2813.26219	0.04853
2811.97642	0.04852
2810.69066	0.04827
2809.40489	0.04780
2808.11912	0.04736
2806.83335	0.04716
2805.54758	0.04719
2804.26181	0.04726
2802.97604	0.04724
2801.69027	0.04710
2800.40450	0.04690
2799.11874	0.04673
2797.83297	0.04659
2796.54720	0.04648
2795.26143	0.04639
2793.97566	0.04632
2792.68989	0.04629
2791.40412	0.04630
2790.11835	0.04628
2788.83259	0.04614
2787.54682	0.04592
2786.26105	0.04573
2784.97528	0.04567
2783.68951	0.04573
2782.40374	0.04586
2781.11797	0.04597
2779.83220	0.04599
2778.54643	0.04585
2777.26067	0.04551
2775.97490	0.04505
2774.68913	0.04463
2773.40336	0.04438
2772.11759	0.04436
2770.83182	0.04452
2769.54605	0.04472
2768.26028	0.04487
2766.97452	0.04497
2765.68875	0.04503
2764.40298	0.04504
2763.11721	0.04492
2761.83144	0.04465
2760.54567	0.04434
2759.25990	0.04417
2757.97413	0.04423
2756.68836	0.04451
2755.40260	0.04485
2754.11683	0.04509
2752.83106	0.04514
2751.54529	0.04500
2750.25952	0.04479
2748.97375	0.04463
2747.68798	0.04451
2746.40221	0.04433
2745.11645	0.04401
2743.83068	0.04363
2742.54491	0.04340
2741.25914	0.04344
2739.97337	0.04367
2738.68760	0.04393
2737.40183	0.04402
2736.11606	0.04386
2734.83029	0.04353
2733.54453	0.04317
2732.25876	0.04291
2730.97299	0.04277
2729.68722	0.04277
2728.40145	0.04295
2727.11568	0.04323
2725.82991	0.04342
2724.54414	0.04332
2723.25838	0.04297
2721.97261	0.04259
2720.68684	0.04237
2719.40107	0.04237
2718.11530	0.04246
2716.82953	0.04245
2715.54376	0.04224
2714.25799	0.04188
2712.97222	0.04157
2711.68646	0.04149
2710.40069	0.04165
2709.11492	0.04189
2707.82915	0.04205
2706.54338	0.04204
2705.25761	0.04192
2703.97184	0.04183
2702.68607	0.04179
2701.40031	0.04172
2700.11454	0.04158
2698.82877	0.04142
2697.54300	0.04133
2696.25723	0.04131
2694.97146	0.04133
2693.68569	0.04134
2692.39992	0.04131
2691.11415	0.04120
2689.82839	0.04104
2688.54262	0.04084
2687.25685	0.04065
2685.97108	0.04050
2684.68531	0.04043
2683.39954	0.04047
2682.11377	0.04054
2680.82800	0.04055
2679.54224	0.04048
2678.25647	0.04041
2676.97070	0.04042
2675.68493	0.04050
2674.39916	0.04050
2673.11339	0.04033
2671.82762	0.04005
2670.54185	0.03989
2669.25608	0.03994
2667.97032	0.04013
2666.68455	0.04034
2665.39878	0.04056
2664.11301	0.04078
2662.82724	0.04094
2661.54147	0.04094
2660.25570	0.04078
2658.96993	0.04056
2657.68417	0.04036
2656.39840	0.04020
2655.11263	0.04007
2653.82686	0.03986
2652.54109	0.03952
2651.25532	0.03915
2649.96955	0.03892
2648.68378	0.03887
2647.39801	0.03885
2646.11225	0.03880
2644.82648	0.03878
2643.54071	0.03887
2642.25494	0.03896
2640.96917	0.03886
2639.68340	0.03857
2638.39763	0.03829
2637.11186	0.03823
2635.82609	0.03838
2634.54033	0.03850
2633.25456	0.03835
2631.96879	0.03784
2630.68302	0.03715
2629.39725	0.03658
2628.11148	0.03627
2626.82571	0.03617
2625.53994	0.03618
2624.25418	0.03631
2622.96841	0.03662
2621.68264	0.03701
2620.39687	0.03720
2619.11110	0.03702
2617.82533	0.03665
2616.53956	0.03639
2615.25379	0.03626
2613.96802	0.03604
2612.68226	0.03563
2611.39649	0.03523
2610.11072	0.03503
2608.82495	0.03493
2607.53918	0.03470
2606.25341	0.03424
2604.96764	0.03367
2603.68187	0.03321
2602.39611	0.03301
2601.11034	0.03318
2599.82457	0.03363
2598.53880	0.03415
2597.25303	0.03447
2595.96726	0.03454
2594.68149	0.03444
2593.39572	0.03422
2592.10995	0.03383
2590.82419	0.03331
2589.53842	0.03293
2588.25265	0.03297
2586.96688	0.03335
2585.68111	0.03370
2584.39534	0.03373
2583.10957	0.03356
2581.82380	0.03346
2580.53804	0.03354
2579.25227	0.03359
2577.96650	0.03328
2576.68073	0.03263
2575.39496	0.03202
2574.10919	0.03185
2572.82342	0.03211
2571.53765	0.03241
2570.25188	0.03242
2568.96612	0.03213
2567.68035	0.03178
2566.39458	0.03159
2565.10881	0.03166
2563.82304	0.03188
2562.53727	0.03205
2561.25150	0.03204
2559.96573	0.03191
2558.67997	0.03179
2557.39420	0.03169
2556.10843	0.03159
2554.82266	0.03149
2553.53689	0.03141
2552.25112	0.03138
2550.96535	0.03147
2549.67958	0.03178
2548.39381	0.03227
2547.10805	0.03270
2545.82228	0.03279
2544.53651	0.03242
2543.25074	0.03174
2541.96497	0.03109
2540.67920	0.03074
2539.39343	0.03079
2538.10766	0.03112
2536.82190	0.03156
2535.53613	0.03194
2534.25036	0.03213
2532.96459	0.03210
2531.67882	0.03192
2530.39305	0.03171
2529.10728	0.03155
2527.82151	0.03143
2526.53574	0.03125
2525.24998	0.03096
2523.96421	0.03062
2522.67844	0.03040
2521.39267	0.03044
2520.10690	0.03079
2518.82113	0.03131
2517.53536	0.03174
2516.24959	0.03181
2514.96383	0.03139
2513.67806	0.03067
2512.39229	0.03006
2511.10652	0.02979
2509.82075	0.02984
2508.53498	0.03001
2507.24921	0.03018
2505.96344	0.03037
2504.67767	0.03062
2503.39191	0.03087
2502.10614	0.03095
2500.82037	0.03080
2499.53460	0.03049
2498.24883	0.03020
2496.96306	0.03002
2495.67729	0.02994
2494.39152	0.02984
2493.10576	0.02960
2491.81999	0.02928
2490.53422	0.02909
2489.24845	0.02912
2487.96268	0.02928
2486.67691	0.02935
2485.39114	0.02935
2484.10537	0.02948
2482.81960	0.02990
2481.53384	0.03043
2480.24807	0.03070
2478.96230	0.03047
2477.67653	0.02994
2476.39076	0.02953
2475.10499	0.02958
2473.81922	0.03001
2472.53345	0.03055
2471.24769	0.03091
2469.96192	0.03093
2468.67615	0.03060
2467.39038	0.03009
2466.10461	0.02966
2464.81884	0.02943
2463.53307	0.02933
2462.24730	0.02926
2460.96153	0.02914
2459.67577	0.02900
2458.39000	0.02891
2457.10423	0.02897
2455.81846	0.02924
2454.53269	0.02955
2453.24692	0.02967
2451.96115	0.02947
2450.67538	0.02909
2449.38962	0.02882
2448.10385	0.02879
2446.81808	0.02893
2445.53231	0.02913
2444.24654	0.02927
2442.96077	0.02926
2441.67500	0.02906
2440.38923	0.02877
2439.10346	0.02859
2437.81770	0.02859
2436.53193	0.02869
2435.24616	0.02873
2433.96039	0.02863
2432.67462	0.02841
2431.38885	0.02816
2430.10308	0.02796
2428.81731	0.02781
2427.53155	0.02771
2426.24578	0.02776
2424.96001	0.02801
2423.67424	0.02840
2422.38847	0.02872
2421.10270	0.02881
2419.81693	0.02867
2418.53116	0.02841
2417.24539	0.02820
2415.95963	0.02814
2414.67386	0.02822
2413.38809	0.02829
2412.10232	0.02823
2410.81655	0.02801
2409.53078	0.02769
2408.24501	0.02734
2406.95924	0.02708
2405.67347	0.02703
2404.38771	0.02732
2403.10194	0.02791
2401.81617	0.02863
2400.53040	0.02924
2399.24463	0.02951
2397.95886	0.02936
2396.67309	0.02886
2395.38732	0.02830
2394.10156	0.02799
2392.81579	0.02803
2391.53002	0.02818
2390.24425	0.02820
2388.95848	0.02803
2387.67271	0.02782
2386.38694	0.02768
2385.10117	0.02767
2383.81540	0.02778
2382.52964	0.02798
2381.24387	0.02814
2379.95810	0.02817
2378.67233	0.02809
2377.38656	0.02803
2376.10079	0.02812
2374.81502	0.02841
2373.52925	0.02882
2372.24349	0.02933
2370.95772	0.02992
2369.67195	0.03053
2368.38618	0.03100
2367.10041	0.03118
2365.81464	0.03114
2364.52887	0.03112
2363.24310	0.03129
2361.95733	0.03165
2360.67157	0.03202
2359.38580	0.03225
2358.10003	0.03226
2356.81426	0.03205
2355.52849	0.03163
2354.24272	0.03109
2352.95695	0.03057
2351.67118	0.03018
2350.38542	0.02997
2349.09965	0.02995
2347.81388	0.03011
2346.52811	0.03042
2345.24234	0.03079
2343.95657	0.03106
2342.67080	0.03111
2341.38503	0.03091
2340.09926	0.03051
2338.81350	0.03009
2337.52773	0.02983
2336.24196	0.02982
2334.95619	0.02998
2333.67042	0.03014
2332.38465	0.03022
2331.09888	0.03025
2329.81311	0.03033
2328.52735	0.03053
2327.24158	0.03081
2325.95581	0.03103
2324.67004	0.03105
2323.38427	0.03082
2322.09850	0.03043
2320.81273	0.03005
2319.52696	0.02983
2318.24119	0.02975
2316.95543	0.02965
2315.66966	0.02939
2314.38389	0.02900
2313.09812	0.02866
2311.81235	0.02850
2310.52658	0.02842
2309.24081	0.02815
2307.95504	0.02755
2306.66928	0.02681
2305.38351	0.02622
2304.09774	0.02598
2302.81197	0.02606
2301.52620	0.02634
2300.24043	0.02667
2298.95466	0.02696
2297.66889	0.02710
2296.38312	0.02704
2295.09736	0.02680
2293.81159	0.02648
2292.52582	0.02623
2291.24005	0.02620
2289.95428	0.02638
2288.66851	0.02658
2287.38274	0.02657
2286.09697	0.02627
2284.81121	0.02575
2283.52544	0.02515
2282.23967	0.02464
2280.95390	0.02434
2279.66813	0.02429
2278.38236	0.02434
2277.09659	0.02418
2275.81082	0.02366
2274.52505	0.02294
2273.23929	0.02236
2271.95352	0.02212
2270.66775	0.02215
2269.38198	0.02226
2268.09621	0.02233
2266.81044	0.02232
2265.52467	0.02216
2264.23890	0.02191
2262.95314	0.02176
2261.66737	0.02192
2260.38160	0.02235
2259.09583	0.02270
2257.81006	0.02266
2256.52429	0.02217
2255.23852	0.02151
2253.95275	0.02109
2252.66698	0.02104
2251.38122	0.02113
2250.09545	0.02103
2248.80968	0.02074
2247.52391	0.02064
2246.23814	0.02089
2244.95237	0.02130
2243.66660	0.02153
2242.38083	0.02138
2241.09507	0.02093
2239.80930	0.02041
2238.52353	0.02004
2237.23776	0.01987
2235.95199	0.01978
2234.66622	0.01971
2233.38045	0.01972
2232.09468	0.01989
2230.80891	0.02002
2229.52315	0.01979
2228.23738	0.01913
2226.95161	0.01851
2225.66584	0.01842
2224.38007	0.01886
2223.09430	0.01935
2221.80853	0.01952
2220.52276	0.01934
2219.23700	0.01888
2217.95123	0.01820
2216.66546	0.01744
2215.37969	0.01690
2214.09392	0.01675
2212.80815	0.01698
2211.52238	0.01737
2210.23661	0.01759
2208.95084	0.01734
2207.66508	0.01670
2206.37931	0.01604
2205.09354	0.01566
2203.80777	0.01550
2202.52200	0.01544
2201.23623	0.01547
2199.95046	0.01551
2198.66469	0.01543
2197.37893	0.01512
2196.09316	0.01456
2194.80739	0.01375
2193.52162	0.01294
2192.23585	0.01274
2190.95008	0.01353
2189.66431	0.01494
2188.37854	0.01594
2187.09277	0.01581
2185.80701	0.01466
2184.52124	0.01331
2183.23547	0.01257
2181.94970	0.01267
2180.66393	0.01320
2179.37816	0.01355
2178.09239	0.01341
2176.80662	0.01301
2175.52085	0.01288
2174.23509	0.01342
2172.94932	0.01450
2171.66355	0.01547
2170.37778	0.01557
2169.09201	0.01454
2167.80624	0.01283
2166.52047	0.01129
2165.23470	0.01054
2163.94894	0.01042
2162.66317	0.01017
2161.37740	0.00935
2160.09163	0.00847
2158.80586	0.00851
2157.52009	0.00977
2156.23432	0.01159
2154.94855	0.01311
2153.66278	0.01390
2152.37702	0.01410
2151.09125	0.01417
2149.80548	0.01437
2148.51971	0.01443
2147.23394	0.01398
2145.94817	0.01317
2144.66240	0.01263
2143.37663	0.01274
2142.09087	0.01327
2140.80510	0.01394
2139.51933	0.01467
2138.23356	0.01539
2136.94779	0.01584
2135.66202	0.01579
2134.37625	0.01544
2133.09048	0.01530
2131.80471	0.01574
2130.51895	0.01661
2129.23318	0.01745
2127.94741	0.01793
2126.66164	0.01804
2125.37587	0.01793
2124.09010	0.01768
2122.80433	0.01725
2121.51856	0.01673
2120.23280	0.01637
2118.94703	0.01633
2117.66126	0.01663
2116.37549	0.01722
2115.08972	0.01798
2113.80395	0.01867
2112.51818	0.01898
2111.23241	0.01875
2109.94664	0.01814
2108.66088	0.01739
2107.37511	0.01664
2106.08934	0.01597
2104.80357	0.01553
2103.51780	0.01545
2102.23203	0.01563
2100.94626	0.01575
2099.66049	0.01531
2098.37473	0.01476
2097.08896	0.01433
2095.80319	0.01418
2094.51742	0.01435
2093.23165	0.01470
2091.94588	0.01503
2090.66011	0.01521
2089.37434	0.01521
2088.08857	0.01513
2086.80281	0.01509
2085.51704	0.01517
2084.23127	0.01534
2082.94550	0.01549
2081.65973	0.01553
2080.37396	0.01542
2079.08819	0.01515
2077.80242	0.01478
2076.51666	0.01433
2075.23089	0.01387
2073.94512	0.01338
2072.65935	0.01298
2071.37358	0.01295
2070.08781	0.01354
2068.80204	0.01453
2067.51627	0.01522
2066.23050	0.01506
2064.94474	0.01417
2063.65897	0.01316
2062.37320	0.01248
2061.08743	0.01209
2059.80166	0.01179
2058.51589	0.01154
2057.23012	0.01146
2055.94435	0.01168
2054.65859	0.01218
2053.37282	0.01277
2052.08705	0.01305
2050.80128	0.01267
2049.51551	0.01163
2048.22974	0.01037
2046.94397	0.00945
2045.65820	0.00915
2044.37243	0.00927
2043.08667	0.00934
2041.80090	0.00909
2040.51513	0.00866
2039.22936	0.00839
2037.94359	0.00837
2036.65782	0.00830
2035.37205	0.00784
2034.08628	0.00717
2032.80052	0.00689
2031.51475	0.00741
2030.22898	0.00841
2028.94321	0.00914
2027.65744	0.00918
2026.37167	0.00865
2025.08590	0.00784
2023.80013	0.00697
2022.51436	0.00624
2021.22860	0.00598
2019.94283	0.00640
2018.65706	0.00720
2017.37129	0.00778
2016.08552	0.00772
2014.79975	0.00711
2013.51398	0.00639
2012.22821	0.00605
2010.94245	0.00634
2009.65668	0.00719
2008.37091	0.00835
2007.08514	0.00947
2005.79937	0.01016
2004.51360	0.01022
2003.22783	0.00978
2001.94206	0.00918
2000.65629	0.00871
1999.37053	0.00843
1998.08476	0.00828
1996.79899	0.00830
1995.51322	0.00853
1994.22745	0.00877
1992.94168	0.00879
1991.65591	0.00862
1990.37014	0.00865
1989.08438	0.00912
1987.79861	0.00987
1986.51284	0.01050
1985.22707	0.01085
1983.94130	0.01109
1982.65553	0.01135
1981.36976	0.01154
1980.08399	0.01156
1978.79822	0.01142
1977.51246	0.01114
1976.22669	0.01066
1974.94092	0.01001
1973.65515	0.00946
1972.36938	0.00922
1971.08361	0.00930
1969.79784	0.00953
1968.51207	0.00981
1967.22631	0.01019
1965.94054	0.01060
1964.65477	0.01083
1963.36900	0.01069
1962.08323	0.01033
1960.79746	0.01026
1959.51169	0.01082
1958.22592	0.01185
1956.94015	0.01285
1955.65439	0.01351
1954.36862	0.01382
1953.08285	0.01384
1951.79708	0.01367
1950.51131	0.01345
1949.22554	0.01343
1947.93977	0.01365
1946.65400	0.01384
1945.36823	0.01369
1944.08247	0.01321
1942.79670	0.01277
1941.51093	0.01269
1940.22516	0.01290
1938.93939	0.01307
1937.65362	0.01293
1936.36785	0.01262
1935.08208	0.01249
1933.79632	0.01277
1932.51055	0.01332
1931.22478	0.01375
1929.93901	0.01378
1928.65324	0.01351
1927.36747	0.01325
1926.08170	0.01337
1924.79593	0.01396
1923.51016	0.01477
1922.22440	0.01540
1920.93863	0.01564
1919.65286	0.01567
1918.36709	0.01574
1917.08132	0.01583
1915.79555	0.01575
1914.50978	0.01543
1913.22401	0.01502
1911.93825	0.01472
1910.65248	0.01459
1909.36671	0.01461
1908.08094	0.01473
1906.79517	0.01497
1905.50940	0.01525
1904.22363	0.01546
1902.93786	0.01548
1901.65209	0.01532
1900.36633	0.01510
1899.08056	0.01498
1897.79479	0.01498
1896.50902	0.01499
1895.22325	0.01494
1893.93748	0.01486
1892.65171	0.01485
1891.36594	0.01497
1890.08018	0.01517
1888.79441	0.01537
1887.50864	0.01551
1886.22287	0.01558
1884.93710	0.01562
1883.65133	0.01568
1882.36556	0.01573
1881.07979	0.01569
1879.79402	0.01553
1878.50826	0.01536
1877.22249	0.01526
1875.93672	0.01524
1874.65095	0.01521
1873.36518	0.01518
1872.07941	0.01517
1870.79364	0.01521
1869.50787	0.01531
1868.22211	0.01552
1866.93634	0.01588
1865.65057	0.01629
1864.36480	0.01651
1863.07903	0.01639
1861.79326	0.01600
1860.50749	0.01561
1859.22172	0.01543
1857.93595	0.01543
1856.65019	0.01549
1855.36442	0.01548
1854.07865	0.01544
1852.79288	0.01547
1851.50711	0.01561
1850.22134	0.01580
1848.93557	0.01597
1847.64980	0.01610
1846.36404	0.01611
1845.07827	0.01596
1843.79250	0.01569
1842.50673	0.01546
1841.22096	0.01546
1839.93519	0.01569
1838.64942	0.01602
1837.36365	0.01629
1836.07788	0.01642
1834.79212	0.01642
1833.50635	0.01637
1832.22058	0.01631
1830.93481	0.01623
1829.64904	0.01607
1828.36327	0.01589
1827.07750	0.01580
1825.79173	0.01587
1824.50597	0.01602
1823.22020	0.01614
1821.93443	0.01617
1820.64866	0.01611
1819.36289	0.01600
1818.07712	0.01592
1816.79135	0.01591
1815.50558	0.01599
1814.21981	0.01613
1812.93405	0.01627
1811.64828	0.01639
1810.36251	0.01643
1809.07674	0.01638
1807.79097	0.01625
1806.50520	0.01609
1805.21943	0.01599
1803.93366	0.01599
1802.64790	0.01606
1801.36213	0.01613
1800.07636	0.01614
1798.79059	0.01613
1797.50482	0.01613
1796.21905	0.01617
1794.93328	0.01625
1793.64751	0.01632
1792.36174	0.01633
1791.07598	0.01628
1789.79021	0.01623
1788.50444	0.01625
1787.21867	0.01635
1785.93290	0.01647
1784.64713	0.01652
1783.36136	0.01650
1782.07559	0.01646
1780.78983	0.01642
1779.50406	0.01636
1778.21829	0.01627
1776.93252	0.01619
1775.64675	0.01617
1774.36098	0.01619
1773.07521	0.01622
1771.78944	0.01622
1770.50367	0.01623
1769.21791	0.01630
1767.93214	0.01644
1766.64637	0.01660
1765.36060	0.01671
1764.07483	0.01673
1762.78906	0.01666
1761.50329	0.01654
1760.21752	0.01645
1758.93176	0.01644
1757.64599	0.01651
1756.36022	0.01660
1755.07445	0.01663
1753.78868	0.01660
1752.50291	0.01655
1751.21714	0.01653
1749.93137	0.01653
1748.64560	0.01653
1747.35984	0.01651
1746.07407	0.01652
1744.78830	0.01659
1743.50253	0.01669
1742.21676	0.01678
1740.93099	0.01684
1739.64522	0.01683
1738.35945	0.01680
1737.07369	0.01679
1735.78792	0.01683
1734.50215	0.01695
1733.21638	0.01708
1731.93061	0.01718
1730.64484	0.01725
1729.35907	0.01729
1728.07330	0.01734
1726.78753	0.01737
1725.50177	0.01737
1724.21600	0.01735
1722.93023	0.01737
1721.64446	0.01750
1720.35869	0.01771
1719.07292	0.01797
1717.78715	0.01825
1716.50138	0.01852
1715.21561	0.01876
1713.92985	0.01899
1712.64408	0.01924
1711.35831	0.01955
1710.07254	0.01994
1708.78677	0.02040
1707.50100	0.02092
1706.21523	0.02149
1704.92946	0.02208
1703.64370	0.02263
1702.35793	0.02312
1701.07216	0.02361
1699.78639	0.02416
1698.50062	0.02480
1697.21485	0.02551
1695.92908	0.02626
1694.64331	0.02705
1693.35754	0.02786
1692.07178	0.02867
1690.78601	0.02945
1689.50024	0.03021
1688.21447	0.03092
1686.92870	0.03157
1685.64293	0.03220
1684.35716	0.03286
1683.07139	0.03357
1681.78563	0.03431
1680.49986	0.03505
1679.21409	0.03578
1677.92832	0.03652
1676.64255	0.03728
1675.35678	0.03805
1674.07101	0.03880
1672.78524	0.03954
1671.49947	0.04024
1670.21371	0.04092
1668.92794	0.04158
1667.64217	0.04222
1666.35640	0.04289
1665.07063	0.04359
1663.78486	0.04432
1662.49909	0.04503
1661.21332	0.04570
1659.92756	0.04633
1658.64179	0.04692
1657.35602	0.04747
1656.07025	0.04791
1654.78448	0.04827
1653.49871	0.04864
1652.21294	0.04908
1650.92717	0.04954
1649.64140	0.04990
1648.35564	0.05011
1647.06987	0.05026
1645.78410	0.05041
1644.49833	0.05061
1643.21256	0.05080
1641.92679	0.05093
1640.64102	0.05094
1639.35525	0.05082
1638.06949	0.05060
1636.78372	0.05032
1635.49795	0.05000
1634.21218	0.04963
1632.92641	0.04921
1631.64064	0.04876
1630.35487	0.04831
1629.06910	0.04787
1627.78333	0.04742
1626.49757	0.04697
1625.21180	0.04653
1623.92603	0.04608
1622.64026	0.04563
1621.35449	0.04519
1620.06872	0.04473
1618.78295	0.04423
1617.49718	0.04371
1616.21142	0.04321
1614.92565	0.04277
1613.63988	0.04241
1612.35411	0.04211
1611.06834	0.04185
1609.78257	0.04160
1608.49680	0.04135
1607.21103	0.04113
1605.92526	0.04095
1604.63950	0.04085
1603.35373	0.04079
1602.06796	0.04075
1600.78219	0.04064
1599.49642	0.04049
1598.21065	0.04034
1596.92488	0.04028
1595.63911	0.04034
1594.35335	0.04050
1593.06758	0.04068
1591.78181	0.04086
1590.49604	0.04101
1589.21027	0.04113
1587.92450	0.04122
1586.63873	0.04127
1585.35296	0.04135
1584.06719	0.04151
1582.78143	0.04182
1581.49566	0.04222
1580.20989	0.04255
1578.92412	0.04273
1577.63835	0.04282
1576.35258	0.04298
1575.06681	0.04330
1573.78104	0.04373
1572.49528	0.04419
1571.20951	0.04462
1569.92374	0.04501
1568.63797	0.04539
1567.35220	0.04573
1566.06643	0.04604
1564.78066	0.04633
1563.49489	0.04658
1562.20912	0.04676
1560.92336	0.04690
1559.63759	0.04707
1558.35182	0.04729
1557.06605	0.04756
1555.78028	0.04784
1554.49451	0.04809
1553.20874	0.04831
1551.92297	0.04849
1550.63721	0.04863
1549.35144	0.04873
1548.06567	0.04875
1546.77990	0.04870
1545.49413	0.04861
1544.20836	0.04850
1542.92259	0.04836
1541.63682	0.04820
1540.35105	0.04801
1539.06529	0.04786
1537.77952	0.04778
1536.49375	0.04778
1535.20798	0.04781
1533.92221	0.04779
1532.63644	0.04773
1531.35067	0.04768
1530.06490	0.04767
1528.77914	0.04775
1527.49337	0.04787
1526.20760	0.04803
1524.92183	0.04819
1523.63606	0.04835
1522.35029	0.04853
1521.06452	0.04876
1519.77875	0.04905
1518.49298	0.04941
1517.20722	0.04983
1515.92145	0.05027
1514.63568	0.05072
1513.34991	0.05119
1512.06414	0.05168
1510.77837	0.05222
1509.49260	0.05276
1508.20683	0.05330
1506.92107	0.05387
1505.63530	0.05450
1504.34953	0.05515
1503.06376	0.05575
1501.77799	0.05625
1500.49222	0.05667
1499.20645	0.05707
1497.92068	0.05749
1496.63491	0.05789
1495.34915	0.05823
1494.06338	0.05847
1492.77761	0.05866
1491.49184	0.05885
1490.20607	0.05914
1488.92030	0.05954
1487.63453	0.06006
1486.34876	0.06065
1485.06299	0.06128
1483.77723	0.06193
1482.49146	0.06262
1481.20569	0.06333
1479.91992	0.06407
1478.63415	0.06483
1477.34838	0.06560
1476.06261	0.06637
1474.77684	0.06709
1473.49108	0.06775
1472.20531	0.06833
1470.91954	0.06885
1469.63377	0.06931
1468.34800	0.06970
1467.06223	0.07006
1465.77646	0.07037
1464.49069	0.07066
1463.20492	0.07094
1461.91916	0.07122
1460.63339	0.07155
1459.34762	0.07197
1458.06185	0.07250
1456.77608	0.07311
1455.49031	0.07372
1454.20454	0.07428
1452.91877	0.07476
1451.63301	0.07514
1450.34724	0.07542
1449.06147	0.07561
1447.77570	0.07575
1446.48993	0.07589
1445.20416	0.07606
1443.91839	0.07617
1442.63262	0.07615
1441.34685	0.07597
1440.06109	0.07568
1438.77532	0.07540
1437.48955	0.07521
1436.20378	0.07515
1434.91801	0.07521
1433.63224	0.07534
1432.34647	0.07556
1431.06070	0.07591
1429.77494	0.07640
1428.48917	0.07701
1427.20340	0.07772
1425.91763	0.07849
1424.63186	0.07933
1423.34609	0.08021
1422.06032	0.08108
1420.77455	0.08190
1419.48878	0.08267
1418.20302	0.08336
1416.91725	0.08398
1415.63148	0.08451
1414.34571	0.08500
1413.05994	0.08540
1411.77417	0.08567
1410.48840	0.08575
1409.20263	0.08568
1407.91687	0.08550
1406.63110	0.08523
1405.34533	0.08485
1404.05956	0.08433
1402.77379	0.08367
1401.48802	0.08286
1400.20225	0.08191
1398.91648	0.08086
1397.63071	0.07971
1396.34495	0.07852
1395.05918	0.07731
1393.77341	0.07612
1392.48764	0.07497
1391.20187	0.07384
1389.91610	0.07269
1388.63033	0.07153
1387.34456	0.07037
1386.05880	0.06923
1384.77303	0.06811
1383.48726	0.06699
1382.20149	0.06588
1380.91572	0.06476
1379.62995	0.06365
1378.34418	0.06252
1377.05841	0.06132
1375.77264	0.06001
1374.48688	0.05861
1373.20111	0.05716
1371.91534	0.05573
1370.62957	0.05433
1369.34380	0.05293
1368.05803	0.05158
1366.77226	0.05034
1365.48649	0.04924
1364.20073	0.04824
1362.91496	0.04725
1361.62919	0.04622
1360.34342	0.04518
1359.05765	0.04420
1357.77188	0.04332
1356.48611	0.04256
1355.20034	0.04191
1353.91457	0.04133
1352.62881	0.04080
1351.34304	0.04029
1350.05727	0.03978
1348.77150	0.03926
1347.48573	0.03877
1346.19996	0.03831
1344.91419	0.03790
1343.62842	0.03751
1342.34266	0.03711
1341.05689	0.03673
1339.77112	0.03638
1338.48535	0.03607
1337.19958	0.03578
1335.91381	0.03552
1334.62804	0.03526
1333.34227	0.03498
1332.05650	0.03466
1330.77074	0.03428
1329.48497	0.03386
1328.19920	0.03344
1326.91343	0.03307
1325.62766	0.03277
1324.34189	0.03253
1323.05612	0.03234
1321.77035	0.03216
1320.48459	0.03198
1319.19882	0.03178
1317.91305	0.03155
1316.62728	0.03126
1315.34151	0.03091
1314.05574	0.03056
1312.76997	0.03023
1311.48420	0.02997
1310.19843	0.02977
1308.91267	0.02962
1307.62690	0.02947
1306.34113	0.02929
1305.05536	0.02905
1303.76959	0.02878
1302.48382	0.02851
1301.19805	0.02827
1299.91228	0.02805
1298.62652	0.02784
1297.34075	0.02764
1296.05498	0.02747
1294.76921	0.02734
1293.48344	0.02725
1292.19767	0.02719
1290.91190	0.02713
1289.62613	0.02704
1288.34036	0.02689
1287.05460	0.02672
1285.76883	0.02658
1284.48306	0.02649
1283.19729	0.02644
1281.91152	0.02639
1280.62575	0.02632
1279.33998	0.02624
1278.05421	0.02619
1276.76845	0.02615
1275.48268	0.02609
1274.19691	0.02599
1272.91114	0.02584
1271.62537	0.02569
1270.33960	0.02553
1269.05383	0.02536
1267.76806	0.02519
1266.48229	0.02505
1265.19653	0.02497
1263.91076	0.02494
1262.62499	0.02491
1261.33922	0.02483
1260.05345	0.02471
1258.76768	0.02462
1257.48191	0.02460
1256.19614	0.02465
1254.91037	0.02471
1253.62461	0.02473
1252.33884	0.02469
1251.05307	0.02462
1249.76730	0.02455
1248.48153	0.02451
1247.19576	0.02449
1245.90999	0.02444
1244.62422	0.02435
1243.33846	0.02423
1242.05269	0.02411
1240.76692	0.02401
1239.48115	0.02396
1238.19538	0.02394
1236.90961	0.02394
1235.62384	0.02389
1234.33807	0.02378
1233.05230	0.02360
1231.76654	0.02338
1230.48077	0.02315
1229.19500	0.02293
1227.90923	0.02271
1226.62346	0.02248
1225.33769	0.02225
1224.05192	0.02201
1222.76615	0.02180
1221.48039	0.02165
1220.19462	0.02154
1218.90885	0.02140
1217.62308	0.02123
1216.33731	0.02105
1215.05154	0.02090
1213.76577	0.02077
1212.48000	0.02061
1211.19423	0.02043
1209.90847	0.02025
1208.62270	0.02010
1207.33693	0.02001
1206.05116	0.01997
1204.76539	0.01997
1203.47962	0.01999
1202.19385	0.01998
1200.90808	0.01994
1199.62232	0.01988
1198.33655	0.01976
1197.05078	0.01960
1195.76501	0.01940
1194.47924	0.01916
1193.19347	0.01894
1191.90770	0.01877
1190.62193	0.01866
1189.33616	0.01859
1188.05040	0.01850
1186.76463	0.01839
1185.47886	0.01825
1184.19309	0.01812
1182.90732	0.01805
1181.62155	0.01801
1180.33578	0.01792
1179.05001	0.01778
1177.76425	0.01763
1176.47848	0.01754
1175.19271	0.01752
1173.90694	0.01754
1172.62117	0.01754
1171.33540	0.01752
1170.04963	0.01749
1168.76386	0.01747
1167.47809	0.01752
1166.19233	0.01764
1164.90656	0.01777
1163.62079	0.01782
1162.33502	0.01778
1161.04925	0.01769
1159.76348	0.01763
1158.47771	0.01762
1157.19194	0.01766
1155.90618	0.01771
1154.62041	0.01773
1153.33464	0.01775
1152.04887	0.01784
1150.76310	0.01802
1149.47733	0.01827
1148.19156	0.01851
1146.90579	0.01871
1145.62002	0.01893
1144.33426	0.01921
1143.04849	0.01957
1141.76272	0.02002
1140.47695	0.02053
1139.19118	0.02112
1137.90541	0.02175
1136.61964	0.02247
1135.33387	0.02329
1134.04811	0.02425
1132.76234	0.02534
1131.47657	0.02656
1130.19080	0.02790
1128.90503	0.02941
1127.61926	0.03116
1126.33349	0.03316
1125.04772	0.03536
1123.76195	0.03768
1122.47619	0.04007
1121.19042	0.04247
1119.90465	0.04486
1118.61888	0.04722
1117.33311	0.04959
1116.04734	0.05202
1114.76157	0.05449
1113.47580	0.05696
1112.19004	0.05937
1110.90427	0.06170
1109.61850	0.06393
1108.33273	0.06606
1107.04696	0.06808
1105.76119	0.07004
1104.47542	0.07196
1103.18965	0.07383
1101.90388	0.07564
1100.61812	0.07738
1099.33235	0.07902
1098.04658	0.08055
1096.76081	0.08197
1095.47504	0.08333
1094.18927	0.08466
1092.90350	0.08596
1091.61773	0.08718
1090.33197	0.08830
1089.04620	0.08930
1087.76043	0.09025
1086.47466	0.09122
1085.18889	0.09223
1083.90312	0.09330
1082.61735	0.09444
1081.33158	0.09573
1080.04581	0.09716
1078.76005	0.09869
1077.47428	0.10026
1076.18851	0.10190
1074.90274	0.10365
1073.61697	0.10553
1072.33120	0.10749
1071.04543	0.10949
1069.75966	0.11152
1068.47390	0.11357
1067.18813	0.11567
1065.90236	0.11777
1064.61659	0.11987
1063.33082	0.12197
1062.04505	0.12413
1060.75928	0.12635
1059.47351	0.12862
1058.18774	0.13088
1056.90198	0.13308
1055.61621	0.13520
1054.33044	0.13726
1053.04467	0.13931
1051.75890	0.14137
1050.47313	0.14345
1049.18736	0.14557
1047.90159	0.14777
1046.61583	0.15009
1045.33006	0.15250
1044.04429	0.15495
1042.75852	0.15739
1041.47275	0.15985
1040.18698	0.16234
1038.90121	0.16490
1037.61544	0.16749
1036.32967	0.17007
1035.04391	0.17259
1033.75814	0.17500
1032.47237	0.17727
1031.18660	0.17939
1029.90083	0.18135
1028.61506	0.18310
1027.32929	0.18460
1026.04352	0.18580
1024.75775	0.18674
1023.47199	0.18745
1022.18622	0.18795
1020.90045	0.18819
1019.61468	0.18815
1018.32891	0.18785
1017.04314	0.18734
1015.75737	0.18659
1014.47160	0.18552
1013.18584	0.18402
1011.90007	0.18204
1010.61430	0.17963
1009.32853	0.17692
1008.04276	0.17401
1006.75699	0.17090
1005.47122	0.16755
1004.18545	0.16393
1002.89968	0.16009
1001.61392	0.15609
1000.32815	0.15194
999.04238	0.14767
997.75661	0.14329
996.47084	0.13883
995.18507	0.13432
993.89930	0.12979
992.61353	0.12530
991.32777	0.12091
990.04200	0.11670
988.75623	0.11269
987.47046	0.10887
986.18469	0.10521
984.89892	0.10175
983.61315	0.09852
982.32738	0.09551
981.04161	0.09262
979.75585	0.08978
978.47008	0.08704
977.18431	0.08449
975.89854	0.08223
974.61277	0.08027
973.32700	0.07858
972.04123	0.07717
970.75546	0.07608
969.46970	0.07536
968.18393	0.07501
966.89816	0.07498
965.61239	0.07519
964.32662	0.07558
963.04085	0.07606
961.75508	0.07650
960.46931	0.07670
959.18354	0.07651
957.89778	0.07590
956.61201	0.07496
955.32624	0.07378
954.04047	0.07241
952.75470	0.07092
951.46893	0.06944
950.18316	0.06798
948.89739	0.06648
947.61163	0.06491
946.32586	0.06334
945.04009	0.06188
943.75432	0.06054
942.46855	0.05925
941.18278	0.05795
939.89701	0.05670
938.61124	0.05557
937.32547	0.05457
936.03971	0.05363
934.75394	0.05270
933.46817	0.05178
932.18240	0.05094
930.89663	0.05022
929.61086	0.04959
928.32509	0.04897
927.03932	0.04832
925.75356	0.04763
924.46779	0.04692
923.18202	0.04622
921.89625	0.04558
920.61048	0.04506
919.32471	0.04463
918.03894	0.04423
916.75317	0.04381
915.46740	0.04337
914.18164	0.04289
912.89587	0.04240
911.61010	0.04189
910.32433	0.04138
909.03856	0.04089
907.75279	0.04044
906.46702	0.04006
905.18125	0.03979
903.89549	0.03960
902.60972	0.03943
901.32395	0.03922
900.03818	0.03897
898.75241	0.03872
897.46664	0.03855
896.18087	0.03846
894.89510	0.03839
893.60933	0.03823
892.32357	0.03792
891.03780	0.03752
889.75203	0.03720
888.46626	0.03711
887.18049	0.03736
885.89472	0.03803
884.60895	0.03920
883.32318	0.04084
882.03742	0.04280
880.75165	0.04479
879.46588	0.04651
878.18011	0.04787
876.89434	0.04894
875.60857	0.04994
874.32280	0.05093
873.03703	0.05182
871.75126	0.05238
870.46550	0.05246
869.17973	0.05203
867.89396	0.05115
866.60819	0.04994
865.32242	0.04851
864.03665	0.04695
862.75088	0.04534
861.46511	0.04374
860.17935	0.04224
858.89358	0.04095
857.60781	0.03996
856.32204	0.03926
855.03627	0.03871
853.75050	0.03822
852.46473	0.03773
851.17896	0.03723
849.89319	0.03670
848.60743	0.03617
847.32166	0.03570
846.03589	0.03537
844.75012	0.03519
843.46435	0.03508
842.17858	0.03496
840.89281	0.03481
839.60704	0.03464
838.32128	0.03446
837.03551	0.03425
835.74974	0.03402
834.46397	0.03382
833.17820	0.03370
831.89243	0.03360
830.60666	0.03343
829.32089	0.03317
828.03512	0.03289
826.74936	0.03270
825.46359	0.03265
824.17782	0.03267
822.89205	0.03267
821.60628	0.03262
820.32051	0.03254
819.03474	0.03251
817.74897	0.03251
816.46321	0.03251
815.17744	0.03246
813.89167	0.03237
812.60590	0.03227
811.32013	0.03218
810.03436	0.03211
808.74859	0.03207
807.46282	0.03209
806.17705	0.03213
804.89129	0.03217
803.60552	0.03215
802.31975	0.03210
801.03398	0.03204
799.74821	0.03202
798.46244	0.03204
797.17667	0.03204
795.89090	0.03201
794.60513	0.03195
793.31937	0.03189
792.03360	0.03184
790.74783	0.03179
789.46206	0.03172
788.17629	0.03162
786.89052	0.03150
785.60475	0.03141
784.31898	0.03137
783.03322	0.03138
781.74745	0.03137
780.46168	0.03129
779.17591	0.03112
777.89014	0.03093
776.60437	0.03079
775.31860	0.03075
774.03283	0.03078
772.74706	0.03081
771.46130	0.03077
770.17553	0.03069
768.88976	0.03066
767.60399	0.03076
766.31822	0.03096
765.03245	0.03115
763.74668	0.03125
762.46091	0.03131
761.17515	0.03140
759.88938	0.03158
758.60361	0.03175
757.31784	0.03181
756.03207	0.03170
754.74630	0.03148
753.46053	0.03127
752.17476	0.03114
750.88899	0.03112
749.60323	0.03115
748.31746	0.03119
747.03169	0.03119
745.74592	0.03113
744.46015	0.03100
743.17438	0.03083
741.88861	0.03065
740.60284	0.03051
739.31708	0.03049
738.03131	0.03057
736.74554	0.03064
735.45977	0.03058
734.17400	0.03040
732.88823	0.03019
731.60246	0.03001
730.31669	0.02989
729.03092	0.02981
727.74516	0.02983
726.45939	0.02998
725.17362	0.03025
723.88785	0.03058
722.60208	0.03086
721.31631	0.03104
720.03054	0.03109
718.74477	0.03104
717.45901	0.03091
716.17324	0.03076
714.88747	0.03063
713.60170	0.03055
712.31593	0.03054
711.03016	0.03057
709.74439	0.03062
708.45862	0.03063
707.17285	0.03060
705.88709	0.03052
704.60132	0.03044
703.31555	0.03038
702.02978	0.03037
700.74401	0.03039
699.45824	0.03044
698.17247	0.03048
696.88670	0.03050
695.60094	0.03052
694.31517	0.03055
693.02940	0.03060
691.74363	0.03063
690.45786	0.03061
689.17209	0.03053
687.88632	0.03042
686.60055	0.03030
685.31478	0.03020
684.02902	0.03011
682.74325	0.03006
681.45748	0.03004
680.17171	0.03002
678.88594	0.03001
677.60017	0.02999
676.31440	0.02999
675.02863	0.03000
673.74287	0.03004
672.45710	0.03011
671.17133	0.03024
669.88556	0.03039
668.59979	0.03051
667.31402	0.03051
666.02825	0.03034
664.74248	0.03007
663.45671	0.02979
662.17095	0.02958
660.88518	0.02945
659.59941	0.02937
658.31364	0.02930
657.02787	0.02922
655.74210	0.02912
654.45633	0.02899
653.17056	0.02884
651.88480	0.02869
650.59903	0.02859
649.31326	0.02856
648.02749	0.02857
646.74172	0.02859
645.45595	0.02858
644.17018	0.02856
642.88441	0.02855
641.59864	0.02855
640.31288	0.02854
639.02711	0.02852
637.74134	0.02854
636.45557	0.02864
635.16980	0.02878
633.88403	0.02892
632.59826	0.02900
631.31249	0.02901
630.02673	0.02890
628.74096	0.02882
627.45519	0.02933
626.16942	0.02931
624.88365	0.02889
623.59788	0.02862
622.31211	0.02922
621.02634	0.03138
619.74057	0.03500
618.45481	0.03906
617.16904	0.04226
615.88327	0.04393
614.59750	0.04433
613.31173	0.04441
612.02596	0.04524
610.74019	0.04747
609.45442	0.05105
608.16866	0.05541
606.88289	0.05989
605.59712	0.06403
604.31135	0.06750
603.02558	0.07008
601.73981	0.07177
600.45404	0.07264
599.16827	0.07269
597.88250	0.07192
596.59674	0.07049
595.31097	0.06872
594.02520	0.06694
592.73943	0.06533
591.45366	0.06399
590.16789	0.06301
588.88212	0.06249
587.59635	0.06249
586.31059	0.06300
585.02482	0.06392
583.73905	0.06516
582.45328	0.06664
581.16751	0.06827
579.88174	0.06996
578.59597	0.07167
577.31020	0.07342
576.02443	0.07518
574.73867	0.07688
573.45290	0.07842
572.16713	0.07983
570.88136	0.08132
569.59559	0.08315
568.30982	0.08545
567.02405	0.08817
565.73828	0.09105
564.45251	0.09374
563.16675	0.09589
561.88098	0.09717
560.59521	0.09734
559.30944	0.09629
558.02367	0.09407
556.73790	0.09091
555.45213	0.08711
554.16636	0.08297
552.88060	0.07876
551.59483	0.07475
550.30906	0.07111
549.02329	0.06787
547.73752	0.06496
546.45175	0.06231
545.16598	0.05991
543.88021	0.05779
542.59444	0.05595
541.30868	0.05440
540.02291	0.05309
538.73714	0.05189
537.45137	0.05061
536.16560	0.04922
534.87983	0.04788
533.59406	0.04674
532.30829	0.04580
531.02253	0.04494
529.73676	0.04411
528.45099	0.04334
527.16522	0.04270
525.87945	0.04219
524.59368	0.04176
523.30791	0.04130
522.02214	0.04072
520.73637	0.04001
519.45061	0.03919
518.16484	0.03832
516.87907	0.03748
515.59330	0.03671
514.30753	0.03606
513.02176	0.03554
511.73599	0.03515
510.45022	0.03486
509.16446	0.03459
507.87869	0.03429
506.59292	0.03391
505.30715	0.03347
504.02138	0.03301
502.73561	0.03260
501.44984	0.03230
500.16407	0.03210
498.87830	0.03196
497.59254	0.03180
496.30677	0.03157
495.02100	0.03125
493.73523	0.03088
492.44946	0.03054
491.16369	0.03030
489.87792	0.03014
488.59215	0.02997
487.30639	0.02973
486.02062	0.02944
484.73485	0.02920
483.44908	0.02909
482.16331	0.02910
480.87754	0.02918
479.59177	0.02925
478.30600	0.02928
477.02023	0.02931
475.73447	0.02936
474.44870	0.02943
473.16293	0.02948
471.87716	0.02949
470.59139	0.02949
469.30562	0.02952
468.01985	0.02954
466.73408	0.02950
465.44832	0.02938
464.16255	0.02919
462.87678	0.02895
461.59101	0.02866
460.30524	0.02832
459.01947	0.02793
457.73370	0.02753
456.44793	0.02719
455.16216	0.02688
453.87640	0.02657
452.59063	0.02621
451.30486	0.02586
450.01909	0.02560
448.73332	0.02546
447.44755	0.02537
446.16178	0.02525
444.87601	0.02503
443.59025	0.02474
442.30448	0.02443
441.01871	0.02416
439.73294	0.02399
438.44717	0.02391
437.16140	0.02386
435.87563	0.02379
434.58986	0.02368
433.30409	0.02355
432.01833	0.02343
430.73256	0.02332
429.44679	0.02318
428.16102	0.02302
426.87525	0.02282
425.58948	0.02260
424.30371	0.02236
423.01794	0.02212
421.73218	0.02190
420.44641	0.02173
419.16064	0.02159
417.87487	0.02144
416.58910	0.02124
415.30333	0.02100
414.01756	0.02079
412.73179	0.02063
411.44602	0.02051
410.16026	0.02041
408.87449	0.02034
407.58872	0.02033
406.30295	0.02037
405.01718	0.02041
403.73141	0.02041
402.44564	0.02039
401.15987	0.02038
399.87411	0.02040
