3997.45528 0.01911
3996.16951 0.01994
3994.88374 0.02070
3993.59798 0.02106
3992.31221 0.02100
3991.02644 0.02082
3989.74067 0.02081
3988.45490 0.02116
3987.16913 0.02178
3985.88336 0.02231
3984.59759 0.02232
3983.31183 0.02178
3982.02606 0.02114
3980.74029 0.02084
3979.45452 0.02095
3978.16875 0.02125
3976.88298 0.02153
3975.59721 0.02160
3974.31144 0.02140
3973.02567 0.02103
3971.73991 0.02059
3970.45414 0.02003
3969.16837 0.01929
3967.88260 0.01855
3966.59683 0.01821
3965.31106 0.01856
3964.02529 0.01941
3962.73952 0.02024
3961.45376 0.02060
3960.16799 0.02047
3958.88222 0.02022
3957.59645 0.02020
3956.31068 0.02052
3955.02491 0.02095
3953.73914 0.02117
3952.45337 0.02110
3951.16760 0.02096
3949.88184 0.02111
3948.59607 0.02162
3947.31030 0.02227
3946.02453 0.02280
3944.73876 0.02313
3943.45299 0.02320
3942.16722 0.02288
3940.88145 0.02222
3939.59569 0.02165
3938.30992 0.02172
3937.02415 0.02248
3935.73838 0.02345
3934.45261 0.02406
3933.16684 0.02410
3931.88107 0.02362
3930.59530 0.02271
3929.30953 0.02141
3928.02377 0.01994
3926.73800 0.01871
3925.45223 0.01810
3924.16646 0.01820
3922.88069 0.01887
3921.59492 0.01967
3920.30915 0.02016
3919.02338 0.02026
3917.73762 0.02022
3916.45185 0.02014
3915.16608 0.01990
3913.88031 0.01954
3912.59454 0.01950
3911.30877 0.02011
3910.02300 0.02122
3908.73723 0.02244
3907.45146 0.02365
3906.16570 0.02483
3904.87993 0.02561
3903.59416 0.02527
3902.30839 0.02353
3901.02262 0.02119
3899.73685 0.01964
3898.45108 0.01973
3897.16531 0.02120
3895.87955 0.02300
3894.59378 0.02432
3893.30801 0.02496
3892.02224 0.02513
3890.73647 0.02496
3889.45070 0.02453
3888.16493 0.02395
3886.87916 0.02321
3885.59339 0.02231
3884.30763 0.02150
3883.02186 0.02121
3881.73609 0.02154
3880.45032 0.02212
3879.16455 0.02253
3877.87878 0.02267
3876.59301 0.02254
3875.30724 0.02209
3874.02148 0.02145
3872.73571 0.02096
3871.44994 0.02087
3870.16417 0.02095
3868.87840 0.02079
3867.59263 0.02044
3866.30686 0.02008
3865.02109 0.01964
3863.73532 0.01898
3862.44956 0.01823
3861.16379 0.01767
3859.87802 0.01752
3858.59225 0.01793
3857.30648 0.01893
3856.02071 0.02031
3854.73494 0.02151
3853.44917 0.02189
3852.16341 0.02146
3850.87764 0.02094
3849.59187 0.02091
3848.30610 0.02108
3847.02033 0.02081
3845.73456 0.01995
3844.44879 0.01919
3843.16302 0.01919
3841.87725 0.01974
3840.59149 0.02008
3839.30572 0.01994
3838.01995 0.01983
3836.73418 0.02042
3835.44841 0.02175
3834.16264 0.02312
3832.87687 0.02374
3831.59110 0.02343
3830.30534 0.02263
3829.01957 0.02183
3827.73380 0.02124
3826.44803 0.02083
3825.16226 0.02048
3823.87649 0.02019
3822.59072 0.01993
3821.30495 0.01962
3820.01918 0.01927
3818.73342 0.01903
3817.44765 0.01896
3816.16188 0.01884
3814.87611 0.01860
3813.59034 0.01863
3812.30457 0.01930
3811.01880 0.02053
3809.73303 0.02181
3808.44726 0.02242
3807.16150 0.02178
3805.87573 0.02018
3804.58996 0.01890
3803.30419 0.01899
3802.01842 0.02018
3800.73265 0.02135
3799.44688 0.02180
3798.16111 0.02157
3796.87535 0.02087
3795.58958 0.01992
3794.30381 0.01909
3793.01804 0.01875
3791.73227 0.01890
3790.44650 0.01926
3789.16073 0.01948
3787.87496 0.01934
3786.58919 0.01901
3785.30343 0.01879
3784.01766 0.01880
3782.73189 0.01891
3781.44612 0.01906
3780.16035 0.01939
3778.87458 0.02000
3777.58881 0.02069
3776.30304 0.02114
3775.01728 0.02131
3773.73151 0.02138
3772.44574 0.02152
3771.15997 0.02176
3769.87420 0.02206
3768.58843 0.02242
3767.30266 0.02262
3766.01689 0.02214
3764.73112 0.02085
3763.44536 0.01933
3762.15959 0.01840
3760.87382 0.01823
3759.58805 0.01845
3758.30228 0.01870
3757.01651 0.01884
3755.73074 0.01892
3754.44497 0.01904
3753.15921 0.01931
3751.87344 0.01973
3750.58767 0.02019
3749.30190 0.02045
3748.01613 0.02036
3746.73036 0.02020
3745.44459 0.02022
3744.15882 0.02031
3742.87305 0.02056
3741.58729 0.02125
3740.30152 0.02202
3739.01575 0.02206
3737.72998 0.02106
3736.44421 0.01962
3735.15844 0.01865
3733.87267 0.01860
3732.58690 0.01907
3731.30114 0.01928
3730.01537 0.01905
3728.72960 0.01869
3727.44383 0.01833
3726.15806 0.01782
3724.87229 0.01728
3723.58652 0.01709
3722.30075 0.01747
3721.01498 0.01833
3719.72922 0.01941
3718.44345 0.02047
3717.15768 0.02122
3715.87191 0.02130
3714.58614 0.02049
3713.30037 0.01901
3712.01460 0.01751
3710.72883 0.01661
3709.44307 0.01644
3708.15730 0.01653
3706.87153 0.01636
3705.58576 0.01580
3704.29999 0.01512
3703.01422 0.01464
3701.72845 0.01447
3700.44268 0.01447
3699.15691 0.01465
3697.87115 0.01524
3696.58538 0.01641
3695.29961 0.01792
3694.01384 0.01927
3692.72807 0.02005
3691.44230 0.02028
3690.15653 0.02012
3688.87076 0.01971
3687.58500 0.01929
3686.29923 0.01918
3685.01346 0.01935
3683.72769 0.01936
3682.44192 0.01913
3681.15615 0.01921
3679.87038 0.02003
3678.58461 0.02143
3677.29884 0.02283
3676.01308 0.02361
3674.72731 0.02364
3673.44154 0.02330
3672.15577 0.02297
3670.87000 0.02251
3669.58423 0.02167
3668.29846 0.02062
3667.01269 0.01971
3665.72693 0.01903
3664.44116 0.01870
3663.15539 0.01895
3661.86962 0.01978
3660.58385 0.02078
3659.29808 0.02148
3658.01231 0.02161
3656.72654 0.02115
3655.44077 0.02027
3654.15501 0.01936
3652.86924 0.01874
3651.58347 0.01841
3650.29770 0.01828
3649.01193 0.01844
3647.72616 0.01902
3646.44039 0.01992
3645.15462 0.02071
3643.86886 0.02097
3642.58309 0.02053
3641.29732 0.01968
3640.01155 0.01897
3638.72578 0.01881
3637.44001 0.01902
3636.15424 0.01914
3634.86847 0.01900
3633.58270 0.01896
3632.29694 0.01947
3631.01117 0.02042
3629.72540 0.02109
3628.43963 0.02100
3627.15386 0.02061
3625.86809 0.02079
3624.58232 0.02177
3623.29655 0.02297
3622.01079 0.02367
3620.72502 0.02357
3619.43925 0.02277
3618.15348 0.02166
3616.86771 0.02067
3615.58194 0.02012
3614.29617 0.02017
3613.01040 0.02075
3611.72463 0.02168
3610.43887 0.02261
3609.15310 0.02313
3607.86733 0.02313
3606.58156 0.02290
3605.29579 0.02290
3604.01002 0.02316
3602.72425 0.02322
3601.43848 0.02261
3600.15272 0.02144
3598.86695 0.02030
3597.58118 0.01974
3596.29541 0.01973
3595.00964 0.01985
3593.72387 0.01977
3592.43810 0.01971
3591.15233 0.02013
3589.86656 0.02113
3588.58080 0.02222
3587.29503 0.02287
3586.00926 0.02307
3584.72349 0.02313
3583.43772 0.02327
3582.15195 0.02342
3580.86618 0.02342
3579.58041 0.02318
3578.29464 0.02289
3577.00888 0.02289
3575.72311 0.02332
3574.43734 0.02389
3573.15157 0.02415
3571.86580 0.02407
3570.58003 0.02403
3569.29426 0.02429
3568.00849 0.02458
3566.72273 0.02444
3565.43696 0.02377
3564.15119 0.02292
3562.86542 0.02236
3561.57965 0.02225
3560.29388 0.02243
3559.00811 0.02268
3557.72234 0.02311
3556.43657 0.02397
3555.15081 0.02519
3553.86504 0.02614
3552.57927 0.02611
3551.29350 0.02503
3550.00773 0.02365
3548.72196 0.02286
3547.43619 0.02304
3546.15042 0.02391
3544.86466 0.02498
3543.57889 0.02592
3542.29312 0.02656
3541.00735 0.02678
3539.72158 0.02655
3538.43581 0.02600
3537.15004 0.02540
3535.86427 0.02503
3534.57850 0.02509
3533.29274 0.02564
3532.00697 0.02648
3530.72120 0.02722
3529.43543 0.02749
3528.14966 0.02721
3526.86389 0.02662
3525.57812 0.02597
3524.29235 0.02535
3523.00659 0.02477
3521.72082 0.02437
3520.43505 0.02433
3519.14928 0.02472
3517.86351 0.02544
3516.57774 0.02621
3515.29197 0.02673
3514.00620 0.02684
3512.72043 0.02665
3511.43467 0.02643
3510.14890 0.02633
3508.86313 0.02630
3507.57736 0.02624
3506.29159 0.02613
3505.00582 0.02601
3503.72005 0.02594
3502.43428 0.02599
3501.14852 0.02618
3499.86275 0.02652
3498.57698 0.02708
3497.29121 0.02789
3496.00544 0.02884
3494.71967 0.02967
3493.43390 0.03014
3492.14813 0.03021
3490.86236 0.02993
3489.57660 0.02928
3488.29083 0.02829
3487.00506 0.02721
3485.71929 0.02636
3484.43352 0.02584
3483.14775 0.02557
3481.86198 0.02547
3480.57621 0.02564
3479.29045 0.02630
3478.00468 0.02751
3476.71891 0.02899
3475.43314 0.03014
3474.14737 0.03053
3472.86160 0.03019
3471.57583 0.02961
3470.29006 0.02909
3469.00429 0.02863
3467.71853 0.02820
3466.43276 0.02802
3465.14699 0.02823
3463.86122 0.02860
3462.57545 0.02871
3461.28968 0.02845
3460.00391 0.02812
3458.71814 0.02808
3457.43238 0.02836
3456.14661 0.02868
3454.86084 0.02870
3453.57507 0.02834
3452.28930 0.02778
3451.00353 0.02734
3449.71776 0.02728
3448.43199 0.02765
3447.14622 0.02833
3445.86046 0.02904
3444.57469 0.02951
3443.28892 0.02956
3442.00315 0.02916
3440.71738 0.02849
3439.43161 0.02790
3438.14584 0.02773
3436.86007 0.02817
3435.57431 0.02912
3434.28854 0.03023
3433.00277 0.03114
3431.71700 0.03164
3430.43123 0.03174
3429.14546 0.03154
3427.85969 0.03119
3426.57392 0.03093
3425.28815 0.03105
3424.00239 0.03168
3422.71662 0.03258
3421.43085 0.03313
3420.14508 0.03292
3418.85931 0.03202
3417.57354 0.03095
3416.28777 0.03009
3415.00200 0.02954
3413.71624 0.02934
3412.43047 0.02962
3411.14470 0.03039
3409.85893 0.03139
3408.57316 0.03219
3407.28739 0.03253
3406.00162 0.03232
3404.71585 0.03168
3403.43008 0.03091
3402.14432 0.03032
3400.85855 0.03007
3399.57278 0.03005
3398.28701 0.03021
3397.00124 0.03061
3395.71547 0.03117
3394.42970 0.03180
3393.14393 0.03247
3391.85817 0.03325
3390.57240 0.03403
3389.28663 0.03443
3388.00086 0.03408
3386.71509 0.03308
3385.42932 0.03201
3384.14355 0.03148
3382.85778 0.03164
3381.57201 0.03210
3380.28625 0.03243
3379.00048 0.03249
3377.71471 0.03234
3376.42894 0.03208
3375.14317 0.03176
3373.85740 0.03163
3372.57163 0.03203
3371.28586 0.03306
3370.00010 0.03431
3368.71433 0.03507
3367.42856 0.03486
3366.14279 0.03378
3364.85702 0.03253
3363.57125 0.03185
3362.28548 0.03201
3360.99971 0.03268
3359.71394 0.03337
3358.42818 0.03389
3357.14241 0.03427
3355.85664 0.03440
3354.57087 0.03403
3353.28510 0.03312
3351.99933 0.03209
3350.71356 0.03152
3349.42779 0.03161
3348.14202 0.03207
3346.85626 0.03248
3345.57049 0.03274
3344.28472 0.03301
3342.99895 0.03342
3341.71318 0.03375
3340.42741 0.03359
3339.14164 0.03277
3337.85587 0.03170
3336.57011 0.03107
3335.28434 0.03125
3333.99857 0.03208
3332.71280 0.03318
3331.42703 0.03410
3330.14126 0.03448
3328.85549 0.03420
3327.56972 0.03351
3326.28395 0.03283
3324.99819 0.03238
3323.71242 0.03211
3322.42665 0.03199
3321.14088 0.03207
3319.85511 0.03235
3318.56934 0.03256
3317.28357 0.03245
3315.99780 0.03209
3314.71204 0.03190
3313.42627 0.03224
3312.14050 0.03297
3310.85473 0.03360
3309.56896 0.03377
3308.28319 0.03367
3306.99742 0.03373
3305.71165 0.03419
3304.42588 0.03477
3303.14012 0.03497
3301.85435 0.03458
3300.56858 0.03394
3299.28281 0.03361
3297.99704 0.03384
3296.71127 0.03436
3295.42550 0.03470
3294.13973 0.03461
3292.85397 0.03426
3291.56820 0.03397
3290.28243 0.03386
3288.99666 0.03383
3287.71089 0.03377
3286.42512 0.03371
3285.13935 0.03366
3283.85358 0.03349
3282.56781 0.03309
3281.28205 0.03265
3279.99628 0.03243
3278.71051 0.03242
3277.42474 0.03229
3276.13897 0.03189
3274.85320 0.03154
3273.56743 0.03174
3272.28166 0.03260
3270.99590 0.03365
3269.71013 0.03425
3268.42436 0.03410
3267.13859 0.03348
3265.85282 0.03296
3264.56705 0.03304
3263.28128 0.03380
3261.99551 0.03482
3260.70974 0.03538
3259.42398 0.03506
3258.13821 0.03412
3256.85244 0.03322
3255.56667 0.03276
3254.28090 0.03256
3252.99513 0.03222
3251.70936 0.03168
3250.42359 0.03124
3249.13783 0.03125
3247.85206 0.03181
3246.56629 0.03278
3245.28052 0.03383
3243.99475 0.03459
3242.70898 0.03484
3241.42321 0.03462
3240.13744 0.03412
3238.85167 0.03345
3237.56591 0.03260
3236.28014 0.03164
3234.99437 0.03080
3233.70860 0.03034
3232.42283 0.03031
3231.13706 0.03059
3229.85129 0.03103
3228.56552 0.03154
3227.27976 0.03191
3225.99399 0.03190
3224.70822 0.03144
3223.42245 0.03078
3222.13668 0.03035
3220.85091 0.03034
3219.56514 0.03061
3218.27937 0.03094
3216.99360 0.03129
3215.70784 0.03164
3214.42207 0.03188
3213.13630 0.03188
3211.85053 0.03173
3210.56476 0.03162
3209.27899 0.03168
3207.99322 0.03187
3206.70745 0.03213
3205.42169 0.03243
3204.13592 0.03266
3202.85015 0.03262
3201.56438 0.03216
3200.27861 0.03146
3198.99284 0.03088
3197.70707 0.03076
3196.42130 0.03104
3195.13553 0.03138
3193.84977 0.03156
3192.56400 0.03161
3191.27823 0.03156
3189.99246 0.03131
3188.70669 0.03088
3187.42092 0.03062
3186.13515 0.03086
3184.84938 0.03139
3183.56362 0.03160
3182.27785 0.03117
3180.99208 0.03041
3179.70631 0.02987
3178.42054 0.02981
3177.13477 0.03007
3175.84900 0.03033
3174.56323 0.03040
3173.27746 0.03034
3171.99170 0.03043
3170.70593 0.03087
3169.42016 0.03150
3168.13439 0.03193
3166.84862 0.03190
3165.56285 0.03158
3164.27708 0.03123
3162.99131 0.03096
3161.70555 0.03073
3160.41978 0.03052
3159.13401 0.03032
3157.84824 0.03007
3156.56247 0.02967
3155.27670 0.02918
3153.99093 0.02873
3152.70516 0.02850
3151.41939 0.02856
3150.13363 0.02878
3148.84786 0.02890
3147.56209 0.02879
3146.27632 0.02860
3144.99055 0.02852
3143.70478 0.02863
3142.41901 0.02890
3141.13324 0.02927
3139.84748 0.02959
3138.56171 0.02966
3137.27594 0.02932
3135.99017 0.02874
3134.70440 0.02825
3133.41863 0.02803
3132.13286 0.02800
3130.84709 0.02798
3129.56132 0.02797
3128.27556 0.02814
3126.98979 0.02861
3125.70402 0.02925
3124.41825 0.02974
3123.13248 0.02984
3121.84671 0.02965
3120.56094 0.02950
3119.27517 0.02950
3117.98940 0.02943
3116.70364 0.02904
3115.41787 0.02847
3114.13210 0.02808
3112.84633 0.02811
3111.56056 0.02839
3110.27479 0.02859
3108.98902 0.02856
3107.70325 0.02838
3106.41749 0.02816
3105.13172 0.02796
3103.84595 0.02781
3102.56018 0.02783
3101.27441 0.02808
3099.98864 0.02846
3098.70287 0.02877
3097.41710 0.02890
3096.13133 0.02890
3094.84557 0.02888
3093.55980 0.02883
3092.27403 0.02866
3090.98826 0.02844
3089.70249 0.02837
3088.41672 0.02856
3087.13095 0.02887
3085.84518 0.02905
3084.55942 0.02892
3083.27365 0.02854
3081.98788 0.02811
3080.70211 0.02787
3079.41634 0.02791
3078.13057 0.02807
3076.84480 0.02802
3075.55903 0.02762
3074.27326 0.02706
3072.98750 0.02672
3071.70173 0.02677
3070.41596 0.02703
3069.13019 0.02725
3067.84442 0.02736
3066.55865 0.02746
3065.27288 0.02761
3063.98711 0.02767
3062.70135 0.02750
3061.41558 0.02717
3060.12981 0.02686
3058.84404 0.02672
3057.55827 0.02662
3056.27250 0.02638
3054.98673 0.02595
3053.70096 0.02561
3052.41519 0.02566
3051.12943 0.02616
3049.84366 0.02681
3048.55789 0.02730
3047.27212 0.02749
3045.98635 0.02739
3044.70058 0.02709
3043.41481 0.02666
3042.12904 0.02624
3040.84328 0.02602
3039.55751 0.02611
3038.27174 0.02646
3036.98597 0.02684
3035.70020 0.02701
3034.41443 0.02691
3033.12866 0.02665
3031.84289 0.02637
3030.55712 0.02611
3029.27136 0.02583
3027.98559 0.02552
3026.69982 0.02530
3025.41405 0.02533
3024.12828 0.02570
3022.84251 0.02628
3021.55674 0.02681
3020.27097 0.02703
3018.98521 0.02687
3017.69944 0.02645
3016.41367 0.02604
3015.12790 0.02583
3013.84213 0.02576
3012.55636 0.02570
3011.27059 0.02568
3009.98482 0.02585
3008.69905 0.02620
3007.41329 0.02652
3006.12752 0.02656
3004.84175 0.02630
3003.55598 0.02590
3002.27021 0.02550
3000.98444 0.02512
2999.69867 0.02466
2998.41290 0.02423
2997.12714 0.02380
2995.84137 0.02338
2994.55560 0.02301
2993.26983 0.02283
2991.98406 0.02294
2990.69829 0.02330
2989.41252 0.02377
2988.12675 0.02425
2986.84098 0.02464
2985.55522 0.02487
2984.26945 0.02490
2982.98368 0.02486
2981.69791 0.02491
2980.41214 0.02514
2979.12637 0.02548
2977.84060 0.02580
2976.55483 0.02611
2975.26907 0.02641
2973.98330 0.02667
2972.69753 0.02681
2971.41176 0.02681
2970.12599 0.02674
2968.84022 0.02669
2967.55445 0.02666
2966.26868 0.02662
2964.98291 0.02652
2963.69715 0.02632
2962.41138 0.02604
2961.12561 0.02575
2959.83984 0.02551
2958.55407 0.02544
2957.26830 0.02568
2955.98253 0.02629
2954.69676 0.02714
2953.41100 0.02802
2952.12523 0.02886
2950.83946 0.02961
2949.55369 0.03010
2948.26792 0.03007
2946.98215 0.02957
2945.69638 0.02902
2944.41061 0.02885
2943.12484 0.02919
2941.83908 0.02972
2940.55331 0.02991
2939.26754 0.02943
2937.98177 0.02839
2936.69600 0.02721
2935.41023 0.02626
2934.12446 0.02559
2932.83869 0.02509
2931.55293 0.02459
2930.26716 0.02391
2928.98139 0.02292
2927.69562 0.02157
2926.40985 0.01984
2925.12408 0.01759
2923.83831 0.01456
2922.55254 0.01061
2921.26677 0.00597
2919.98101 0.00116
2918.69524 -0.00296
2917.40947 -0.00537
2916.12370 -0.00519
2914.83793 -0.00235
2913.55216 0.00232
2912.26639 0.00752
2910.98062 0.01226
2909.69486 0.01604
2908.40909 0.01879
2907.12332 0.02063
2905.83755 0.02187
2904.55178 0.02281
2903.26601 0.02351
2901.98024 0.02384
2900.69447 0.02377
2899.40870 0.02353
2898.12294 0.02342
2896.83717 0.02352
2895.55140 0.02374
2894.26563 0.02404
2892.97986 0.02440
2891.69409 0.02478
2890.40832 0.02505
2889.12255 0.02513
2887.83678 0.02509
2886.55102 0.02513
2885.26525 0.02537
2883.97948 0.02576
2882.69371 0.02609
2881.40794 0.02626
2880.12217 0.02640
2878.83640 0.02666
2877.55063 0.02700
2876.26487 0.02720
2874.97910 0.02711
2873.69333 0.02688
2872.40756 0.02681
2871.12179 0.02705
2869.83602 0.02745
2868.55025 0.02774
2867.26448 0.02779
2865.97871 0.02768
2864.69295 0.02741
2863.40718 0.02687
2862.12141 0.02599
2860.83564 0.02491
2859.54987 0.02380
2858.26410 0.02269
2856.97833 0.02140
2855.69256 0.01959
2854.40680 0.01694
2853.12103 0.01335
2851.83526 0.00927
2850.54949 0.00584
2849.26372 0.00445
2847.97795 0.00580
2846.69218 0.00938
2845.40641 0.01376
2844.12064 0.01760
2842.83488 0.02024
2841.54911 0.02177
2840.26334 0.02270
2838.97757 0.02345
2837.69180 0.02417
2836.40603 0.02473
2835.12026 0.02496
2833.83449 0.02492
2832.54873 0.02477
2831.26296 0.02467
2829.97719 0.02474
2828.69142 0.02494
2827.40565 0.02515
2826.11988 0.02519
2824.83411 0.02494
2823.54834 0.02439
2822.26257 0.02371
2820.97681 0.02313
2819.69104 0.02285
2818.40527 0.02286
2817.11950 0.02298
2815.83373 0.02311
2814.54796 0.02329
2813.26219 0.02354
2811.97642 0.02381
2810.69066 0.02393
2809.40489 0.02391
2808.11912 0.02388
2806.83335 0.02397
2805.54758 0.02409
2804.26181 0.02405
2802.97604 0.02381
2801.69027 0.02349
2800.40450 0.02322
2799.11874 0.02303
2797.83297 0.02292
2796.54720 0.02292
2795.26143 0.02298
2793.97566 0.02297
2792.68989 0.02284
2791.40412 0.02269
2790.11835 0.02265
2788.83259 0.02269
2787.54682 0.02271
2786.26105 0.02270
2784.97528 0.02280
2783.68951 0.02312
2782.40374 0.02351
2781.11797 0.02374
2779.83220 0.02371
2778.54643 0.02358
2777.26067 0.02351
2775.97490 0.02350
2774.68913 0.02339
2773.40336 0.02308
2772.11759 0.02266
2770.83182 0.02226
2769.54605 0.02195
2768.26028 0.02175
2766.97452 0.02167
2765.68875 0.02177
2764.40298 0.02205
2763.11721 0.02236
2761.83144 0.02253
2760.54567 0.02247
2759.25990 0.02222
2757.97413 0.02196
2756.68836 0.02182
2755.40260 0.02183
2754.11683 0.02195
2752.83106 0.02209
2751.54529 0.02222
2750.25952 0.02228
2748.97375 0.02222
2747.68798 0.02202
2746.40221 0.02177
2745.11645 0.02158
2743.83068 0.02159
2742.54491 0.02188
2741.25914 0.02239
2739.97337 0.02289
2738.68760 0.02315
2737.40183 0.02302
2736.11606 0.02260
2734.83029 0.02206
2733.54453 0.02161
2732.25876 0.02133
2730.97299 0.02123
2729.68722 0.02125
2728.40145 0.02135
2727.11568 0.02144
2725.82991 0.02145
2724.54414 0.02140
2723.25838 0.02139
2721.97261 0.02150
2720.68684 0.02165
2719.40107 0.02175
2718.11530 0.02180
2716.82953 0.02189
2715.54376 0.02203
2714.25799 0.02213
2712.97222 0.02212
2711.68646 0.02201
2710.40069 0.02188
2709.11492 0.02175
2707.82915 0.02162
2706.54338 0.02145
2705.25761 0.02122
2703.97184 0.02096
2702.68607 0.02077
2701.40031 0.02075
2700.11454 0.02091
2698.82877 0.02116
2697.54300 0.02139
2696.25723 0.02156
2694.97146 0.02172
2693.68569 0.02189
2692.39992 0.02200
2691.11415 0.02199
2689.82839 0.02184
2688.54262 0.02163
2687.25685 0.02148
2685.97108 0.02140
2684.68531 0.02128
2683.39954 0.02107
2682.11377 0.02081
2680.82800 0.02062
2679.54224 0.02050
2678.25647 0.02049
2676.97070 0.02064
2675.68493 0.02095
2674.39916 0.02122
2673.11339 0.02125
2671.82762 0.02101
2670.54185 0.02066
2669.25608 0.02044
2667.97032 0.02046
2666.68455 0.02074
2665.39878 0.02119
2664.11301 0.02160
2662.82724 0.02185
2661.54147 0.02193
2660.25570 0.02198
2658.96993 0.02210
2657.68417 0.02226
2656.39840 0.02237
2655.11263 0.02237
2653.82686 0.02220
2652.54109 0.02185
2651.25532 0.02143
2649.96955 0.02107
2648.68378 0.02089
2647.39801 0.02089
2646.11225 0.02100
2644.82648 0.02116
2643.54071 0.02133
2642.25494 0.02143
2640.96917 0.02140
2639.68340 0.02124
2638.39763 0.02093
2637.11186 0.02050
2635.82609 0.02011
2634.54033 0.01988
2633.25456 0.01981
2631.96879 0.01980
2630.68302 0.01980
2629.39725 0.01988
2628.11148 0.02008
2626.82571 0.02031
2625.53994 0.02045
2624.25418 0.02050
2622.96841 0.02047
2621.68264 0.02037
2620.39687 0.02016
2619.11110 0.01983
2617.82533 0.01941
2616.53956 0.01901
2615.25379 0.01877
2613.96802 0.01874
2612.68226 0.01878
2611.39649 0.01865
2610.11072 0.01831
2608.82495 0.01801
2607.53918 0.01802
2606.25341 0.01832
2604.96764 0.01868
2603.68187 0.01882
2602.39611 0.01865
2601.11034 0.01829
2599.82457 0.01798
2598.53880 0.01782
2597.25303 0.01776
2595.96726 0.01766
2594.68149 0.01754
2593.39572 0.01756
2592.10995 0.01792
2590.82419 0.01860
2589.53842 0.01930
2588.25265 0.01956
2586.96688 0.01920
2585.68111 0.01856
2584.39534 0.01820
2583.10957 0.01829
2581.82380 0.01846
2580.53804 0.01822
2579.25227 0.01756
2577.96650 0.01697
2576.68073 0.01689
2575.39496 0.01729
2574.10919 0.01769
2572.82342 0.01765
2571.53765 0.01725
2570.25188 0.01696
2568.96612 0.01711
2567.68035 0.01760
2566.39458 0.01813
2565.10881 0.01848
2563.82304 0.01863
2562.53727 0.01860
2561.25150 0.01835
2559.96573 0.01793
2558.67997 0.01746
2557.39420 0.01709
2556.10843 0.01685
2554.82266 0.01664
2553.53689 0.01645
2552.25112 0.01637
2550.96535 0.01652
2549.67958 0.01689
2548.39381 0.01733
2547.10805 0.01767
2545.82228 0.01774
2544.53651 0.01752
2543.25074 0.01717
2541.96497 0.01692
2540.67920 0.01689
2539.39343 0.01688
2538.10766 0.01668
2536.82190 0.01629
2535.53613 0.01586
2534.25036 0.01549
2532.96459 0.01525
2531.67882 0.01528
2530.39305 0.01567
2529.10728 0.01624
2527.82151 0.01655
2526.53574 0.01637
2525.24998 0.01588
2523.96421 0.01551
2522.67844 0.01549
2521.39267 0.01582
2520.10690 0.01629
2518.82113 0.01667
2517.53536 0.01673
2516.24959 0.01639
2514.96383 0.01581
2513.67806 0.01525
2512.39229 0.01494
2511.10652 0.01501
2509.82075 0.01543
2508.53498 0.01611
2507.24921 0.01682
2505.96344 0.01729
2504.67767 0.01734
2503.39191 0.01703
2502.10614 0.01661
2500.82037 0.01638
2499.53460 0.01653
2498.24883 0.01699
2496.96306 0.01741
2495.67729 0.01745
2494.39152 0.01704
2493.10576 0.01648
2491.81999 0.01608
2490.53422 0.01592
2489.24845 0.01589
2487.96268 0.01588
2486.67691 0.01583
2485.39114 0.01567
2484.10537 0.01539
2482.81960 0.01511
2481.53384 0.01501
2480.24807 0.01518
2478.96230 0.01554
2477.67653 0.01586
2476.39076 0.01591
2475.10499 0.01569
2473.81922 0.01541
2472.53345 0.01530
2471.24769 0.01538
2469.96192 0.01555
2468.67615 0.01586
2467.39038 0.01638
2466.10461 0.01704
2464.81884 0.01754
2463.53307 0.01767
2462.24730 0.01740
2460.96153 0.01682
2459.67577 0.01612
2458.39000 0.01555
2457.10423 0.01532
2455.81846 0.01538
2454.53269 0.01555
2453.24692 0.01567
2451.96115 0.01573
2450.67538 0.01575
2449.38962 0.01578
2448.10385 0.01584
2446.81808 0.01587
2445.53231 0.01577
2444.24654 0.01557
2442.96077 0.01543
2441.67500 0.01539
2440.38923 0.01529
2439.10346 0.01498
2437.81770 0.01464
2436.53193 0.01454
2435.24616 0.01479
2433.96039 0.01518
2432.67462 0.01539
2431.38885 0.01527
2430.10308 0.01494
2428.81731 0.01461
2427.53155 0.01444
2426.24578 0.01442
2424.96001 0.01451
2423.67424 0.01468
2422.38847 0.01498
2421.10270 0.01541
2419.81693 0.01579
2418.53116 0.01594
2417.24539 0.01579
2415.95963 0.01544
2414.67386 0.01513
2413.38809 0.01501
2412.10232 0.01507
2410.81655 0.01515
2409.53078 0.01514
2408.24501 0.01508
2406.95924 0.01506
2405.67347 0.01512
2404.38771 0.01512
2403.10194 0.01498
2401.81617 0.01469
2400.53040 0.01438
2399.24463 0.01424
2397.95886 0.01410
2396.67309 0.01408
2395.38732 0.01419
2394.10156 0.01439
2392.81579 0.01463
2391.53002 0.01475
2390.24425 0.01462
2388.95848 0.01429
2387.67271 0.01397
2386.38694 0.01385
2385.10117 0.01398
2383.81540 0.01426
2382.52964 0.01451
2381.24387 0.01456
2379.95810 0.01435
2378.67233 0.01403
2377.38656 0.01382
2376.10079 0.01383
2374.81502 0.01401
2373.52925 0.01424
2372.24349 0.01445
2370.95772 0.01458
2369.67195 0.01457
2368.38618 0.01442
2367.10041 0.01426
2365.81464 0.01421
2364.52887 0.01432
2363.24310 0.01454
2361.95733 0.01482
2360.67157 0.01516
2359.38580 0.01557
2358.10003 0.01599
2356.81426 0.01630
2355.52849 0.01640
2354.24272 0.01623
2352.95695 0.01585
2351.67118 0.01546
2350.38542 0.01527
2349.09965 0.01536
2347.81388 0.01558
2346.52811 0.01568
2345.24234 0.01557
2343.95657 0.01533
2342.67080 0.01512
2341.38503 0.01506
2340.09926 0.01513
2338.81350 0.01525
2337.52773 0.01532
2336.24196 0.01530
2334.95619 0.01527
2333.67042 0.01527
2332.38465 0.01536
2331.09888 0.01550
2329.81311 0.01568
2328.52735 0.01609
2327.24158 0.01681
2325.95581 0.01771
2324.67004 0.01842
2323.38427 0.01865
2322.09850 0.01842
2320.81273 0.01804
2319.52696 0.01770
2318.24119 0.01740
2316.95543 0.01704
2315.66966 0.01662
2314.38389 0.01625
2313.09812 0.01608
2311.81235 0.01620
2310.52658 0.01656
2309.24081 0.01694
2307.95504 0.01714
2306.66928 0.01711
2305.38351 0.01693
2304.09774 0.01664
2302.81197 0.01625
2301.52620 0.01587
2300.24043 0.01566
2298.95466 0.01569
2297.66889 0.01584
2296.38312 0.01595
2295.09736 0.01597
2293.81159 0.01595
2292.52582 0.01592
2291.24005 0.01591
2289.95428 0.01595
2288.66851 0.01603
2287.38274 0.01596
2286.09697 0.01559
2284.81121 0.01500
2283.52544 0.01454
2282.23967 0.01444
2280.95390 0.01459
2279.66813 0.01466
2278.38236 0.01442
2277.09659 0.01392
2275.81082 0.01339
2274.52505 0.01306
2273.23929 0.01308
2271.95352 0.01337
2270.66775 0.01368
2269.38198 0.01375
2268.09621 0.01351
2266.81044 0.01310
2265.52467 0.01277
2264.23890 0.01267
2262.95314 0.01270
2261.66737 0.01262
2260.38160 0.01226
2259.09583 0.01162
2257.81006 0.01091
2256.52429 0.01042
2255.23852 0.01045
2253.95275 0.01098
2252.66698 0.01151
2251.38122 0.01139
2250.09545 0.01060
2248.80968 0.00999
2247.52391 0.00975
2246.23814 0.01049
2244.95237 0.01156
2243.66660 0.01212
2242.38083 0.01204
2241.09507 0.01184
2239.80930 0.01199
2238.52353 0.01248
2237.23776 0.01301
2235.95199 0.01335
2234.66622 0.01344
2233.38045 0.01318
2232.09468 0.01247
2230.80891 0.01133
2229.52315 0.01013
2228.23738 0.00939
2226.95161 0.00937
2225.66584 0.00991
2224.38007 0.01062
2223.09430 0.01116
2221.80853 0.01139
2220.52276 0.01127
2219.23700 0.01086
2217.95123 0.01054
2216.66546 0.01079
2215.37969 0.01151
2214.09392 0.01187
2212.80815 0.01111
2211.52238 0.00934
2210.23661 0.00749
2208.95084 0.00653
2207.66508 0.00677
2206.37931 0.00771
2205.09354 0.00854
2203.80777 0.00885
2202.52200 0.00893
2201.23623 0.00931
2199.95046 0.01003
2198.66469 0.01067
2197.37893 0.01087
2196.09316 0.01063
2194.80739 0.01012
2193.52162 0.00950
2192.23585 0.00901
2190.95008 0.00871
2189.66431 0.00843
2188.37854 0.00800
2187.09277 0.00750
2185.80701 0.00724
2184.52124 0.00742
2183.23547 0.00787
2181.94970 0.00828
2180.66393 0.00854
2179.37816 0.00883
2178.09239 0.00939
2176.80662 0.01007
2175.52085 0.01022
2174.23509 0.00917
2172.94932 0.00697
2171.66355 0.00459
2170.37778 0.00320
2169.09201 0.00328
2167.80624 0.00428
2166.52047 0.00521
2165.23470 0.00561
2163.94894 0.00587
2162.66317 0.00645
2161.37740 0.00686
2160.09163 0.00590
2158.80586 0.00338
2157.52009 0.00079
2156.23432 -0.00042
2154.94855 -0.00024
2153.66278 0.00056
2152.37702 0.00172
2151.09125 0.00342
2149.80548 0.00542
2148.51971 0.00703
2147.23394 0.00784
2145.94817 0.00803
2144.66240 0.00792
2143.37663 0.00758
2142.09087 0.00691
2140.80510 0.00602
2139.51933 0.00525
2138.23356 0.00482
2136.94779 0.00456
2135.66202 0.00423
2134.37625 0.00388
2133.09048 0.00381
2131.80471 0.00415
2130.51895 0.00467
2129.23318 0.00511
2127.94741 0.00554
2126.66164 0.00615
2125.37587 0.00688
2124.09010 0.00745
2122.80433 0.00771
2121.51856 0.00784
2120.23280 0.00811
2118.94703 0.00862
2117.66126 0.00919
2116.37549 0.00956
2115.08972 0.00962
2113.80395 0.00946
2112.51818 0.00922
2111.23241 0.00892
2109.94664 0.00851
2108.66088 0.00800
2107.37511 0.00759
2106.08934 0.00744
2104.80357 0.00760
2103.51780 0.00787
2102.23203 0.00799
2100.94626 0.00792
2099.66049 0.00771
2098.37473 0.00770
2097.08896 0.00776
2095.80319 0.00777
2094.51742 0.00774
2093.23165 0.00776
2091.94588 0.00790
2090.66011 0.00812
2089.37434 0.00836
2088.08857 0.00854
2086.80281 0.00864
2085.51704 0.00864
2084.23127 0.00854
2082.94550 0.00835
2081.65973 0.00815
2080.37396 0.00801
2079.08819 0.00794
2077.80242 0.00782
2076.51666 0.00759
2075.23089 0.00735
2073.94512 0.00730
2072.65935 0.00755
2071.37358 0.00805
2070.08781 0.00859
2068.80204 0.00890
2067.51627 0.00888
2066.23050 0.00877
2064.94474 0.00877
2063.65897 0.00868
2062.37320 0.00807
2061.08743 0.00694
2059.80166 0.00595
2058.51589 0.00578
2057.23012 0.00643
2055.94435 0.00735
2054.65859 0.00803
2053.37282 0.00837
2052.08705 0.00857
2050.80128 0.00882
2049.51551 0.00918
2048.22974 0.00957
2046.94397 0.00981
2045.65820 0.00963
2044.37243 0.00891
2043.08667 0.00783
2041.80090 0.00669
2040.51513 0.00557
2039.22936 0.00440
2037.94359 0.00320
2036.65782 0.00223
2035.37205 0.00184
2034.08628 0.00215
2032.80052 0.00294
2031.51475 0.00377
2030.22898 0.00430
2028.94321 0.00452
2027.65744 0.00472
2026.37167 0.00515
2025.08590 0.00563
2023.80013 0.00571
2022.51436 0.00515
2021.22860 0.00430
2019.94283 0.00380
2018.65706 0.00402
2017.37129 0.00471
2016.08552 0.00527
2014.79975 0.00526
2013.51398 0.00469
2012.22821 0.00392
2010.94245 0.00340
2009.65668 0.00332
2008.37091 0.00356
2007.08514 0.00388
2005.79937 0.00423
2004.51360 0.00469
2003.22783 0.00526
2001.94206 0.00579
2000.65629 0.00618
1999.37053 0.00642
1998.08476 0.00657
1996.79899 0.00661
1995.51322 0.00650
1994.22745 0.00637
1992.94168 0.00646
1991.65591 0.00679
1990.37014 0.00707
1989.08438 0.00702
1987.79861 0.00678
1986.51284 0.00680
1985.22707 0.00729
1983.94130 0.00794
1982.65553 0.00827
1981.36976 0.00804
1980.08399 0.00741
1978.79822 0.00655
1977.51246 0.00556
1976.22669 0.00466
1974.94092 0.00428
1973.65515 0.00471
1972.36938 0.00580
1971.08361 0.00706
1969.79784 0.00802
1968.51207 0.00845
1967.22631 0.00836
1965.94054 0.00786
1964.65477 0.00706
1963.36900 0.00603
1962.08323 0.00503
1960.79746 0.00447
1959.51169 0.00467
1958.22592 0.00553
1956.94015 0.00658
1955.65439 0.00734
1954.36862 0.00760
1953.08285 0.00755
1951.79708 0.00754
1950.51131 0.00770
1949.22554 0.00777
1947.93977 0.00748
1946.65400 0.00692
1945.36823 0.00647
1944.08247 0.00633
1942.79670 0.00637
1941.51093 0.00634
1940.22516 0.00615
1938.93939 0.00597
1937.65362 0.00597
1936.36785 0.00624
1935.08208 0.00667
1933.79632 0.00709
1932.51055 0.00734
1931.22478 0.00740
1929.93901 0.00734
1928.65324 0.00732
1927.36747 0.00745
1926.08170 0.00772
1924.79593 0.00799
1923.51016 0.00805
1922.22440 0.00780
1920.93863 0.00741
1919.65286 0.00711
1918.36709 0.00699
1917.08132 0.00703
1915.79555 0.00730
1914.50978 0.00791
1913.22401 0.00872
1911.93825 0.00932
1910.65248 0.00939
1909.36671 0.00902
1908.08094 0.00859
1906.79517 0.00839
1905.50940 0.00837
1904.22363 0.00832
1902.93786 0.00821
1901.65209 0.00818
1900.36633 0.00832
1899.08056 0.00851
1897.79479 0.00847
1896.50902 0.00813
1895.22325 0.00770
1893.93748 0.00753
1892.65171 0.00770
1891.36594 0.00804
1890.08018 0.00829
1888.79441 0.00835
1887.50864 0.00837
1886.22287 0.00852
1884.93710 0.00882
1883.65133 0.00910
1882.36556 0.00913
1881.07979 0.00878
1879.79402 0.00820
1878.50826 0.00772
1877.22249 0.00759
1875.93672 0.00778
1874.65095 0.00806
1873.36518 0.00826
1872.07941 0.00839
1870.79364 0.00847
1869.50787 0.00849
1868.22211 0.00843
1866.93634 0.00838
1865.65057 0.00845
1864.36480 0.00866
1863.07903 0.00894
1861.79326 0.00917
1860.50749 0.00929
1859.22172 0.00928
1857.93595 0.00916
1856.65019 0.00902
1855.36442 0.00898
1854.07865 0.00913
1852.79288 0.00944
1851.50711 0.00974
1850.22134 0.00983
1848.93557 0.00965
1847.64980 0.00931
1846.36404 0.00900
1845.07827 0.00880
1843.79250 0.00862
1842.50673 0.00847
1841.22096 0.00847
1839.93519 0.00865
1838.64942 0.00886
1837.36365 0.00890
1836.07788 0.00873
1834.79212 0.00852
1833.50635 0.00842
1832.22058 0.00847
1830.93481 0.00860
1829.64904 0.00873
1828.36327 0.00886
1827.07750 0.00901
1825.79173 0.00913
1824.50597 0.00911
1823.22020 0.00895
1821.93443 0.00877
1820.64866 0.00864
1819.36289 0.00855
1818.07712 0.00844
1816.79135 0.00838
1815.50558 0.00846
1814.21981 0.00867
1812.93405 0.00888
1811.64828 0.00896
1810.36251 0.00891
1809.07674 0.00889
1807.79097 0.00895
1806.50520 0.00902
1805.21943 0.00904
1803.93366 0.00902
1802.64790 0.00902
1801.36213 0.00905
1800.07636 0.00904
1798.79059 0.00902
1797.50482 0.00907
1796.21905 0.00922
1794.93328 0.00942
1793.64751 0.00957
1792.36174 0.00961
1791.07598 0.00954
1789.79021 0.00945
1788.50444 0.00938
1787.21867 0.00931
1785.93290 0.00921
1784.64713 0.00911
1783.36136 0.00904
1782.07559 0.00906
1780.78983 0.00918
1779.50406 0.00934
1778.21829 0.00946
1776.93252 0.00949
1775.64675 0.00951
1774.36098 0.00961
1773.07521 0.00975
1771.78944 0.00984
1770.50367 0.00983
1769.21791 0.00980
1767.93214 0.00979
1766.64637 0.00978
1765.36060 0.00983
1764.07483 0.00994
1762.78906 0.01005
1761.50329 0.01009
1760.21752 0.01009
1758.93176 0.01010
1757.64599 0.01015
1756.36022 0.01018
1755.07445 0.01020
1753.78868 0.01026
1752.50291 0.01029
1751.21714 0.01021
1749.93137 0.01003
1748.64560 0.00989
1747.35984 0.00989
1746.07407 0.00994
1744.78830 0.00998
1743.50253 0.01000
1742.21676 0.01005
1740.93099 0.01016
1739.64522 0.01025
1738.35945 0.01029
1737.07369 0.01038
1735.78792 0.01059
1734.50215 0.01080
1733.21638 0.01083
1731.93061 0.01078
1730.64484 0.01088
1729.35907 0.01112
1728.07330 0.01134
1726.78753 0.01141
1725.50177 0.01140
1724.21600 0.01141
1722.93023 0.01152
1721.64446 0.01171
1720.35869 0.01194
1719.07292 0.01213
1717.78715 0.01217
1716.50138 0.01211
1715.21561 0.01213
1713.92985 0.01232
1712.64408 0.01266
1711.35831 0.01304
1710.07254 0.01339
1708.78677 0.01371
1707.50100 0.01399
1706.21523 0.01422
1704.92946 0.01439
1703.64370 0.01462
1702.35793 0.01505
1701.07216 0.01551
1699.78639 0.01571
1698.50062 0.01572
1697.21485 0.01583
1695.92908 0.01607
1694.64331 0.01627
1693.35754 0.01647
1692.07178 0.01680
1690.78601 0.01721
1689.50024 0.01757
1688.21447 0.01791
1686.92870 0.01834
1685.64293 0.01886
1684.35716 0.01926
1683.07139 0.01948
1681.78563 0.01970
1680.49986 0.02005
1679.21409 0.02046
1677.92832 0.02087
1676.64255 0.02126
1675.35678 0.02157
1674.07101 0.02181
1672.78524 0.02211
1671.49947 0.02258
1670.21371 0.02310
1668.92794 0.02348
1667.64217 0.02369
1666.35640 0.02387
1665.07063 0.02414
1663.78486 0.02452
1662.49909 0.02493
1661.21332 0.02531
1659.92756 0.02564
1658.64179 0.02590
1657.35602 0.02609
1656.07025 0.02630
1654.78448 0.02660
1653.49871 0.02680
1652.21294 0.02671
1650.92717 0.02647
1649.64140 0.02644
1648.35564 0.02669
1647.06987 0.02695
1645.78410 0.02706
1644.49833 0.02705
1643.21256 0.02705
1641.92679 0.02706
1640.64102 0.02704
1639.35525 0.02697
1638.06949 0.02694
1636.78372 0.02690
1635.49795 0.02673
1634.21218 0.02642
1632.92641 0.02612
1631.64064 0.02596
1630.35487 0.02584
1629.06910 0.02563
1627.78333 0.02534
1626.49757 0.02506
1625.21180 0.02488
1623.92603 0.02474
1622.64026 0.02453
1621.35449 0.02422
1620.06872 0.02396
1618.78295 0.02386
1617.49718 0.02385
1616.21142 0.02377
1614.92565 0.02361
1613.63988 0.02350
1612.35411 0.02351
1611.06834 0.02354
1609.78257 0.02352
1608.49680 0.02350
1607.21103 0.02348
1605.92526 0.02347
1604.63950 0.02347
1603.35373 0.02346
1602.06796 0.02347
1600.78219 0.02351
1599.49642 0.02358
1598.21065 0.02366
1596.92488 0.02373
1595.63911 0.02376
1594.35335 0.02375
1593.06758 0.02369
1591.78181 0.02361
1590.49604 0.02355
1589.21027 0.02353
1587.92450 0.02354
1586.63873 0.02353
1585.35296 0.02345
1584.06719 0.02334
1582.78143 0.02325
1581.49566 0.02322
1580.20989 0.02327
1578.92412 0.02345
1577.63835 0.02377
1576.35258 0.02412
1575.06681 0.02435
1573.78104 0.02453
1572.49528 0.02482
1571.20951 0.02523
1569.92374 0.02563
1568.63797 0.02595
1567.35220 0.02620
1566.06643 0.02646
1564.78066 0.02669
1563.49489 0.02688
1562.20912 0.02709
1560.92336 0.02737
1559.63759 0.02758
1558.35182 0.02759
1557.06605 0.02750
1555.78028 0.02755
1554.49451 0.02772
1553.20874 0.02784
1551.92297 0.02785
1550.63721 0.02776
1549.35144 0.02757
1548.06567 0.02729
1546.77990 0.02693
1545.49413 0.02651
1544.20836 0.02602
1542.92259 0.02557
1541.63682 0.02527
1540.35105 0.02513
1539.06529 0.02505
1537.77952 0.02502
1536.49375 0.02516
1535.20798 0.02549
1533.92221 0.02579
1532.63644 0.02590
1531.35067 0.02587
1530.06490 0.02584
1528.77914 0.02587
1527.49337 0.02592
1526.20760 0.02592
1524.92183 0.02589
1523.63606 0.02593
1522.35029 0.02602
1521.06452 0.02607
1519.77875 0.02605
1518.49298 0.02610
1517.20722 0.02629
1515.92145 0.02655
1514.63568 0.02682
1513.34991 0.02711
1512.06414 0.02738
1510.77837 0.02763
1509.49260 0.02792
1508.20683 0.02829
1506.92107 0.02860
1505.63530 0.02876
1504.34953 0.02886
1503.06376 0.02910
1501.77799 0.02950
1500.49222 0.02991
1499.20645 0.03021
1497.92068 0.03041
1496.63491 0.03055
1495.34915 0.03062
1494.06338 0.03066
1492.77761 0.03075
1491.49184 0.03090
1490.20607 0.03106
1488.92030 0.03123
1487.63453 0.03145
1486.34876 0.03174
1485.06299 0.03207
1483.77723 0.03243
1482.49146 0.03279
1481.20569 0.03315
1479.91992 0.03351
1478.63415 0.03384
1477.34838 0.03406
1476.06261 0.03416
1474.77684 0.03424
1473.49108 0.03443
1472.20531 0.03476
1470.91954 0.03521
1469.63377 0.03571
1468.34800 0.03621
1467.06223 0.03666
1465.77646 0.03706
1464.49069 0.03745
1463.20492 0.03794
1461.91916 0.03857
1460.63339 0.03929
1459.34762 0.04005
1458.06185 0.04074
1456.77608 0.04127
1455.49031 0.04165
1454.20454 0.04202
1452.91877 0.04243
1451.63301 0.04284
1450.34724 0.04317
1449.06147 0.04342
1447.77570 0.04356
1446.48993 0.04355
1445.20416 0.04341
1443.91839 0.04318
1442.63262 0.04290
1441.34685 0.04259
1440.06109 0.04229
1438.77532 0.04203
1437.48955 0.04179
1436.20378 0.04152
1434.91801 0.04127
1433.63224 0.04118
1432.34647 0.04131
1431.06070 0.04158
1429.77494 0.04194
1428.48917 0.04237
1427.20340 0.04288
1425.91763 0.04342
1424.63186 0.04396
1423.34609 0.04448
1422.06032 0.04502
1420.77455 0.04559
1419.48878 0.04610
1418.20302 0.04650
1416.91725 0.04684
1415.63148 0.04718
1414.34571 0.04752
1413.05994 0.04779
1411.77417 0.04798
1410.48840 0.04807
1409.20263 0.04806
1407.91687 0.04792
1406.63110 0.04767
1405.34533 0.04732
1404.05956 0.04685
1402.77379 0.04630
1401.48802 0.04570
1400.20225 0.04507
1398.91648 0.04438
1397.63071 0.04364
1396.34495 0.04287
1395.05918 0.04209
1393.77341 0.04128
1392.48764 0.04046
1391.20187 0.03969
1389.91610 0.03899
1388.63033 0.03831
1387.34456 0.03761
1386.05880 0.03689
1384.77303 0.03621
1383.48726 0.03560
1382.20149 0.03502
1380.91572 0.03443
1379.62995 0.03381
1378.34418 0.03318
1377.05841 0.03254
1375.77264 0.03188
1374.48688 0.03120
1373.20111 0.03047
1371.91534 0.02971
1370.62957 0.02897
1369.34380 0.02829
1368.05803 0.02765
1366.77226 0.02705
1365.48649 0.02650
1364.20073 0.02599
1362.91496 0.02550
1361.62919 0.02500
1360.34342 0.02450
1359.05765 0.02404
1357.77188 0.02364
1356.48611 0.02329
1355.20034 0.02298
1353.91457 0.02268
1352.62881 0.02241
1351.34304 0.02217
1350.05727 0.02197
1348.77150 0.02177
1347.48573 0.02158
1346.19996 0.02140
1344.91419 0.02120
1343.62842 0.02100
1342.34266 0.02081
1341.05689 0.02064
1339.77112 0.02050
1338.48535 0.02036
1337.19958 0.02024
1335.91381 0.02014
1334.62804 0.02002
1333.34227 0.01982
1332.05650 0.01954
1330.77074 0.01926
1329.48497 0.01906
1328.19920 0.01896
1326.91343 0.01889
1325.62766 0.01883
1324.34189 0.01875
1323.05612 0.01867
1321.77035 0.01859
1320.48459 0.01848
1319.19882 0.01832
1317.91305 0.01815
1316.62728 0.01797
1315.34151 0.01780
1314.05574 0.01762
1312.76997 0.01745
1311.48420 0.01730
1310.19843 0.01719
1308.91267 0.01711
1307.62690 0.01705
1306.34113 0.01698
1305.05536 0.01691
1303.76959 0.01684
1302.48382 0.01680
1301.19805 0.01679
1299.91228 0.01680
1298.62652 0.01677
1297.34075 0.01671
1296.05498 0.01662
1294.76921 0.01655
1293.48344 0.01649
1292.19767 0.01642
1290.91190 0.01632
1289.62613 0.01618
1288.34036 0.01605
1287.05460 0.01598
1285.76883 0.01598
1284.48306 0.01599
1283.19729 0.01599
1281.91152 0.01595
1280.62575 0.01588
1279.33998 0.01577
1278.05421 0.01565
1276.76845 0.01554
1275.48268 0.01549
1274.19691 0.01550
1272.91114 0.01549
1271.62537 0.01544
1270.33960 0.01536
1269.05383 0.01531
1267.76806 0.01529
1266.48229 0.01525
1265.19653 0.01518
1263.91076 0.01511
1262.62499 0.01507
1261.33922 0.01506
1260.05345 0.01505
1258.76768 0.01503
1257.48191 0.01498
1256.19614 0.01492
1254.91037 0.01487
1253.62461 0.01485
1252.33884 0.01486
1251.05307 0.01490
1249.76730 0.01493
1248.48153 0.01492
1247.19576 0.01488
1245.90999 0.01483
1244.62422 0.01480
1243.33846 0.01477
1242.05269 0.01473
1240.76692 0.01466
1239.48115 0.01455
1238.19538 0.01442
1236.90961 0.01428
1235.62384 0.01416
1234.33807 0.01408
1233.05230 0.01404
1231.76654 0.01404
1230.48077 0.01405
1229.19500 0.01405
1227.90923 0.01405
1226.62346 0.01402
1225.33769 0.01397
1224.05192 0.01387
1222.76615 0.01376
1221.48039 0.01366
1220.19462 0.01357
1218.90885 0.01349
1217.62308 0.01341
1216.33731 0.01335
1215.05154 0.01332
1213.76577 0.01333
1212.48000 0.01338
1211.19423 0.01341
1209.90847 0.01342
1208.62270 0.01341
1207.33693 0.01338
1206.05116 0.01335
1204.76539 0.01334
1203.47962 0.01333
1202.19385 0.01331
1200.90808 0.01327
1199.62232 0.01329
1198.33655 0.01328
1197.05078 0.01327
1195.76501 0.01322
1194.47924 0.01313
1193.19347 0.01303
1191.90770 0.01294
1190.62193 0.01288
1189.33616 0.01287
1188.05040 0.01291
1186.76463 0.01295
1185.47886 0.01292
1184.19309 0.01282
1182.90732 0.01271
1181.62155 0.01267
1180.33578 0.01272
1179.05001 0.01279
1177.76425 0.01284
1176.47848 0.01289
1175.19271 0.01297
1173.90694 0.01308
1172.62117 0.01319
1171.33540 0.01323
1170.04963 0.01321
1168.76386 0.01316
1167.47809 0.01311
1166.19233 0.01308
1164.90656 0.01312
1163.62079 0.01323
1162.33502 0.01342
1161.04925 0.01362
1159.76348 0.01379
1158.47771 0.01386
1157.19194 0.01384
1155.90618 0.01380
1154.62041 0.01379
1153.33464 0.01385
1152.04887 0.01397
1150.76310 0.01410
1149.47733 0.01424
1148.19156 0.01441
1146.90579 0.01462
1145.62002 0.01485
1144.33426 0.01508
1143.04849 0.01532
1141.76272 0.01561
1140.47695 0.01600
1139.19118 0.01649
1137.90541 0.01699
1136.61964 0.01748
1135.33387 0.01796
1134.04811 0.01850
1132.76234 0.01912
1131.47657 0.01984
1130.19080 0.02065
1128.90503 0.02158
1127.61926 0.02264
1126.33349 0.02384
1125.04772 0.02517
1123.76195 0.02662
1122.47619 0.02817
1121.19042 0.02984
1119.90465 0.03160
1118.61888 0.03346
1117.33311 0.03535
1116.04734 0.03721
1114.76157 0.03899
1113.47580 0.04067
1112.19004 0.04229
1110.90427 0.04392
1109.61850 0.04561
1108.33273 0.04735
1107.04696 0.04905
1105.76119 0.05062
1104.47542 0.05200
1103.18965 0.05323
1101.90388 0.05435
1100.61812 0.05541
1099.33235 0.05645
1098.04658 0.05752
1096.76081 0.05862
1095.47504 0.05970
1094.18927 0.06071
1092.90350 0.06159
1091.61773 0.06233
1090.33197 0.06297
1089.04620 0.06353
1087.76043 0.06407
1086.47466 0.06461
1085.18889 0.06516
1083.90312 0.06571
1082.61735 0.06633
1081.33158 0.06710
1080.04581 0.06806
1078.76005 0.06917
1077.47428 0.07032
1076.18851 0.07147
1074.90274 0.07266
1073.61697 0.07394
1072.33120 0.07532
1071.04543 0.07674
1069.75966 0.07814
1068.47390 0.07953
1067.18813 0.08092
1065.90236 0.08237
1064.61659 0.08391
1063.33082 0.08555
1062.04505 0.08724
1060.75928 0.08891
1059.47351 0.09050
1058.18774 0.09205
1056.90198 0.09360
1055.61621 0.09514
1054.33044 0.09661
1053.04467 0.09800
1051.75890 0.09940
1050.47313 0.10089
1049.18736 0.10249
1047.90159 0.10412
1046.61583 0.10573
1045.33006 0.10733
1044.04429 0.10897
1042.75852 0.11064
1041.47275 0.11226
1040.18698 0.11384
1038.90121 0.11541
1037.61544 0.11699
1036.32967 0.11855
1035.04391 0.12007
1033.75814 0.12152
1032.47237 0.12287
1031.18660 0.12408
1029.90083 0.12514
1028.61506 0.12609
1027.32929 0.12698
1026.04352 0.12778
1024.75775 0.12848
1023.47199 0.12903
1022.18622 0.12938
1020.90045 0.12953
1019.61468 0.12949
1018.32891 0.12931
1017.04314 0.12896
1015.75737 0.12842
1014.47160 0.12766
1013.18584 0.12667
1011.90007 0.12546
1010.61430 0.12407
1009.32853 0.12252
1008.04276 0.12084
1006.75699 0.11905
1005.47122 0.11716
1004.18545 0.11514
1002.89968 0.11299
1001.61392 0.11070
1000.32815 0.10830
999.04238 0.10579
997.75661 0.10318
996.47084 0.10050
995.18507 0.09777
993.89930 0.09502
992.61353 0.09223
991.32777 0.08938
990.04200 0.08652
988.75623 0.08374
987.47046 0.08113
986.18469 0.07870
984.89892 0.07640
983.61315 0.07419
982.32738 0.07203
981.04161 0.06993
979.75585 0.06791
978.47008 0.06600
977.18431 0.06420
975.89854 0.06255
974.61277 0.06110
973.32700 0.05989
972.04123 0.05890
970.75546 0.05808
969.46970 0.05746
968.18393 0.05714
966.89816 0.05717
965.61239 0.05746
964.32662 0.05787
963.04085 0.05826
961.75508 0.05854
960.46931 0.05862
959.18354 0.05841
957.89778 0.05785
956.61201 0.05702
955.32624 0.05606
954.04047 0.05506
952.75470 0.05403
951.46893 0.05295
950.18316 0.05180
948.89739 0.05064
947.61163 0.04947
946.32586 0.04830
945.04009 0.04718
943.75432 0.04616
942.46855 0.04525
941.18278 0.04437
939.89701 0.04347
938.61124 0.04258
937.32547 0.04176
936.03971 0.04102
934.75394 0.04032
933.46817 0.03966
932.18240 0.03904
930.89663 0.03845
929.61086 0.03789
928.32509 0.03737
927.03932 0.03688
925.75356 0.03644
924.46779 0.03601
923.18202 0.03561
921.89625 0.03524
920.61048 0.03487
919.32471 0.03449
918.03894 0.03408
916.75317 0.03368
915.46740 0.03326
914.18164 0.03281
912.89587 0.03237
911.61010 0.03202
910.32433 0.03180
909.03856 0.03163
907.75279 0.03145
906.46702 0.03126
905.18125 0.03107
903.89549 0.03083
902.60972 0.03049
901.32395 0.03005
900.03818 0.02957
898.75241 0.02915
897.46664 0.02883
896.18087 0.02860
894.89510 0.02839
893.60933 0.02817
892.32357 0.02794
891.03780 0.02769
889.75203 0.02747
888.46626 0.02736
887.18049 0.02744
885.89472 0.02776
884.60895 0.02839
883.32318 0.02935
882.03742 0.03056
880.75165 0.03177
879.46588 0.03273
878.18011 0.03340
876.89434 0.03390
875.60857 0.03442
874.32280 0.03500
873.03703 0.03556
871.75126 0.03593
870.46550 0.03601
869.17973 0.03577
867.89396 0.03525
866.60819 0.03452
865.32242 0.03357
864.03665 0.03244
862.75088 0.03118
861.46511 0.02998
860.17935 0.02900
858.89358 0.02831
857.60781 0.02784
856.32204 0.02748
855.03627 0.02710
853.75050 0.02667
852.46473 0.02623
851.17896 0.02588
849.89319 0.02563
848.60743 0.02547
847.32166 0.02530
846.03589 0.02509
844.75012 0.02485
843.46435 0.02463
842.17858 0.02443
840.89281 0.02426
839.60704 0.02410
838.32128 0.02395
837.03551 0.02380
835.74974 0.02364
834.46397 0.02349
833.17820 0.02337
831.89243 0.02331
830.60666 0.02329
829.32089 0.02328
828.03512 0.02323
826.74936 0.02314
825.46359 0.02304
824.17782 0.02295
822.89205 0.02286
821.60628 0.02272
820.32051 0.02257
819.03474 0.02243
817.74897 0.02231
816.46321 0.02217
815.17744 0.02204
813.89167 0.02201
812.60590 0.02209
811.32013 0.02217
810.03436 0.02215
808.74859 0.02206
807.46282 0.02202
806.17705 0.02206
804.89129 0.02213
803.60552 0.02217
802.31975 0.02224
801.03398 0.02235
799.74821 0.02248
798.46244 0.02256
797.17667 0.02258
795.89090 0.02255
794.60513 0.02247
793.31937 0.02235
792.03360 0.02222
790.74783 0.02213
789.46206 0.02209
788.17629 0.02206
786.89052 0.02201
785.60475 0.02194
784.31898 0.02187
783.03322 0.02177
781.74745 0.02164
780.46168 0.02152
779.17591 0.02150
777.89014 0.02162
776.60437 0.02180
775.31860 0.02193
774.03283 0.02196
772.74706 0.02191
771.46130 0.02183
770.17553 0.02174
768.88976 0.02162
767.60399 0.02148
766.31822 0.02134
765.03245 0.02124
763.74668 0.02117
762.46091 0.02118
761.17515 0.02131
759.88938 0.02157
758.60361 0.02186
757.31784 0.02204
756.03207 0.02206
754.74630 0.02194
753.46053 0.02175
752.17476 0.02151
750.88899 0.02131
749.60323 0.02122
748.31746 0.02126
747.03169 0.02136
745.74592 0.02147
744.46015 0.02158
743.17438 0.02167
741.88861 0.02167
740.60284 0.02147
739.31708 0.02107
738.03131 0.02067
736.74554 0.02046
735.45977 0.02049
734.17400 0.02063
732.88823 0.02071
731.60246 0.02069
730.31669 0.02059
729.03092 0.02044
727.74516 0.02031
726.45939 0.02021
725.17362 0.02016
723.88785 0.02007
722.60208 0.02006
721.31631 0.02015
720.03054 0.02029
718.74477 0.02043
717.45901 0.02055
716.17324 0.02062
714.88747 0.02063
713.60170 0.02059
712.31593 0.02051
711.03016 0.02041
709.74439 0.02030
708.45862 0.02021
707.17285 0.02015
705.88709 0.02011
704.60132 0.02011
703.31555 0.02013
702.02978 0.02014
700.74401 0.02013
699.45824 0.02012
698.17247 0.02011
696.88670 0.02011
695.60094 0.02010
694.31517 0.02010
693.02940 0.02011
691.74363 0.02015
690.45786 0.02020
689.17209 0.02025
687.88632 0.02026
686.60055 0.02025
685.31478 0.02019
684.02902 0.02005
682.74325 0.01987
681.45748 0.01970
680.17171 0.01961
678.88594 0.01958
677.60017 0.01958
676.31440 0.01957
675.02863 0.01957
673.74287 0.01963
672.45710 0.01977
671.17133 0.01998
669.88556 0.02021
668.59979 0.02036
667.31402 0.02036
666.02825 0.02021
664.74248 0.02001
663.45671 0.01983
662.17095 0.01969
660.88518 0.01960
659.59941 0.01956
658.31364 0.01958
657.02787 0.01964
655.74210 0.01970
654.45633 0.01974
653.17056 0.01975
651.88480 0.01976
650.59903 0.01979
649.31326 0.01985
648.02749 0.01996
646.74172 0.02011
645.45595 0.02026
644.17018 0.02036
642.88441 0.02038
641.59864 0.02032
640.31288 0.02022
639.02711 0.02014
637.74134 0.02012
636.45557 0.02020
635.16980 0.02041
633.88403 0.02077
632.59826 0.02121
631.31249 0.02159
630.02673 0.02175
628.74096 0.02212
627.45519 0.02318
626.16942 0.02414
624.88365 0.02503
623.59788 0.02577
622.31211 0.02595
621.02634 0.02544
619.74057 0.02474
618.45481 0.02454
617.16904 0.02518
615.88327 0.02634
614.59750 0.02747
613.31173 0.02853
612.02596 0.03035
610.74019 0.03361
609.45442 0.03771
608.16866 0.04146
606.88289 0.04464
605.59712 0.04794
604.31135 0.05142
603.02558 0.05415
601.73981 0.05523
600.45404 0.05463
599.16827 0.05304
597.88250 0.05114
596.59674 0.04928
595.31097 0.04756
594.02520 0.04602
592.73943 0.04474
591.45366 0.04378
590.16789 0.04317
588.88212 0.04290
587.59635 0.04296
586.31059 0.04333
585.02482 0.04397
583.73905 0.04487
582.45328 0.04603
581.16751 0.04740
579.88174 0.04891
578.59597 0.05048
577.31020 0.05201
576.02443 0.05343
574.73867 0.05474
573.45290 0.05603
572.16713 0.05739
570.88136 0.05891
569.59559 0.06063
568.30982 0.06262
567.02405 0.06479
565.73828 0.06694
564.45251 0.06880
563.16675 0.07007
561.88098 0.07059
560.59521 0.07031
559.30944 0.06932
558.02367 0.06775
556.73790 0.06567
555.45213 0.06313
554.16636 0.06022
552.88060 0.05713
551.59483 0.05411
550.30906 0.05135
549.02329 0.04887
547.73752 0.04659
546.45175 0.04451
545.16598 0.04268
543.88021 0.04115
542.59444 0.03986
541.30868 0.03865
540.02291 0.03744
538.73714 0.03629
537.45137 0.03527
536.16560 0.03439
534.87983 0.03360
533.59406 0.03288
532.30829 0.03224
531.02253 0.03165
529.73676 0.03109
528.45099 0.03054
527.16522 0.03004
525.87945 0.02962
524.59368 0.02925
523.30791 0.02888
522.02214 0.02849
520.73637 0.02813
519.45061 0.02779
518.16484 0.02741
516.87907 0.02695
515.59330 0.02643
514.30753 0.02595
513.02176 0.02554
511.73599 0.02517
510.45022 0.02480
509.16446 0.02446
507.87869 0.02416
506.59292 0.02391
505.30715 0.02367
504.02138 0.02338
502.73561 0.02304
501.44984 0.02271
500.16407 0.02252
498.87830 0.02248
497.59254 0.02249
496.30677 0.02245
495.02100 0.02230
493.73523 0.02205
492.44946 0.02176
491.16369 0.02146
489.87792 0.02124
488.59215 0.02116
487.30639 0.02122
486.02062 0.02134
484.73485 0.02141
483.44908 0.02140
482.16331 0.02133
480.87754 0.02128
479.59177 0.02130
478.30600 0.02139
477.02023 0.02151
475.73447 0.02166
474.44870 0.02185
473.16293 0.02207
471.87716 0.02229
470.59139 0.02246
469.30562 0.02255
468.01985 0.02256
466.73408 0.02248
465.44832 0.02234
464.16255 0.02219
462.87678 0.02204
461.59101 0.02189
460.30524 0.02169
459.01947 0.02142
457.73370 0.02112
456.44793 0.02084
455.16216 0.02059
453.87640 0.02036
452.59063 0.02015
451.30486 0.01999
450.01909 0.01986
448.73332 0.01972
447.44755 0.01955
446.16178 0.01936
444.87601 0.01917
443.59025 0.01898
442.30448 0.01876
441.01871 0.01851
439.73294 0.01827
438.44717 0.01809
437.16140 0.01797
435.87563 0.01788
434.58986 0.01783
433.30409 0.01785
432.01833 0.01794
430.73256 0.01804
429.44679 0.01806
428.16102 0.01796
426.87525 0.01778
425.58948 0.01758
424.30371 0.01740
423.01794 0.01724
421.73218 0.01711
420.44641 0.01703
419.16064 0.01698
417.87487 0.01691
416.58910 0.01680
415.30333 0.01666
414.01756 0.01654
412.73179 0.01643
411.44602 0.01635
410.16026 0.01627
408.87449 0.01622
407.58872 0.01618
406.30295 0.01616
405.01718 0.01613
403.73141 0.01609
402.44564 0.01603
401.15987 0.01599
399.87411 0.01601
