3997.45528	0.07082
3996.16951	0.06898
3994.88374	0.06762
3993.59798	0.06744
3992.31221	0.06836
3991.02644	0.06934
3989.74067	0.06954
3988.45490	0.06910
3987.16913	0.06884
3985.88336	0.06914
3984.59759	0.06945
3983.31183	0.06905
3982.02606	0.06795
3980.74029	0.06693
3979.45452	0.06654
3978.16875	0.06657
3976.88298	0.06646
3975.59721	0.06609
3974.31144	0.06594
3973.02567	0.06646
3971.73991	0.06764
3970.45414	0.06892
3969.16837	0.06968
3967.88260	0.06967
3966.59683	0.06928
3965.31106	0.06917
3964.02529	0.06959
3962.73952	0.07012
3961.45376	0.07011
3960.16799	0.06937
3958.88222	0.06828
3957.59645	0.06744
3956.31068	0.06721
3955.02491	0.06758
3953.73914	0.06838
3952.45337	0.06938
3951.16760	0.07022
3949.88184	0.07055
3948.59607	0.07026
3947.31030	0.06967
3946.02453	0.06921
3944.73876	0.06896
3943.45299	0.06870
3942.16722	0.06830
3940.88145	0.06785
3939.59569	0.06753
3938.30992	0.06744
3937.02415	0.06756
3935.73838	0.06786
3934.45261	0.06824
3933.16684	0.06861
3931.88107	0.06889
3930.59530	0.06902
3929.30953	0.06914
3928.02377	0.06935
3926.73800	0.06950
3925.45223	0.06929
3924.16646	0.06868
3922.88069	0.06811
3921.59492	0.06806
3920.30915	0.06865
3919.02338	0.06951
3917.73762	0.07011
3916.45185	0.07009
3915.16608	0.06940
3913.88031	0.06834
3912.59454	0.06744
3911.30877	0.06705
3910.02300	0.06712
3908.73723	0.06725
3907.45146	0.06709
3906.16570	0.06662
3904.87993	0.06618
3903.59416	0.06610
3902.30839	0.06650
3901.02262	0.06729
3899.73685	0.06820
3898.45108	0.06877
3897.16531	0.06871
3895.87955	0.06816
3894.59378	0.06755
3893.30801	0.06700
3892.02224	0.06629
3890.73647	0.06542
3889.45070	0.06478
3888.16493	0.06468
3886.87916	0.06504
3885.59339	0.06547
3884.30763	0.06568
3883.02186	0.06576
3881.73609	0.06604
3880.45032	0.06665
3879.16455	0.06723
3877.87878	0.06712
3876.59301	0.06606
3875.30724	0.06444
3874.02148	0.06309
3872.73571	0.06258
3871.44994	0.06289
3870.16417	0.06371
3868.87840	0.06462
3867.59263	0.06511
3866.30686	0.06488
3865.02109	0.06409
3863.73532	0.06325
3862.44956	0.06272
3861.16379	0.06257
3859.87802	0.06275
3858.59225	0.06313
3857.30648	0.06341
3856.02071	0.06329
3854.73494	0.06289
3853.44917	0.06275
3852.16341	0.06306
3850.87764	0.06342
3849.59187	0.06339
3848.30610	0.06313
3847.02033	0.06305
3845.73456	0.06327
3844.44879	0.06354
3843.16302	0.06365
3841.87725	0.06359
3840.59149	0.06344
3839.30572	0.06322
3838.01995	0.06298
3836.73418	0.06282
3835.44841	0.06288
3834.16264	0.06328
3832.87687	0.06390
3831.59110	0.06432
3830.30534	0.06412
3829.01957	0.06331
3827.73380	0.06239
3826.44803	0.06195
3825.16226	0.06229
3823.87649	0.06326
3822.59072	0.06432
3821.30495	0.06498
3820.01918	0.06506
3818.73342	0.06479
3817.44765	0.06455
3816.16188	0.06455
3814.87611	0.06461
3813.59034	0.06433
3812.30457	0.06370
3811.01880	0.06315
3809.73303	0.06306
3808.44726	0.06344
3807.16150	0.06411
3805.87573	0.06486
3804.58996	0.06540
3803.30419	0.06548
3802.01842	0.06514
3800.73265	0.06469
3799.44688	0.06433
3798.16111	0.06399
3796.87535	0.06345
3795.58958	0.06261
3794.30381	0.06163
3793.01804	0.06095
3791.73227	0.06088
3790.44650	0.06123
3789.16073	0.06147
3787.87496	0.06129
3786.58919	0.06090
3785.30343	0.06066
3784.01766	0.06063
3782.73189	0.06044
3781.44612	0.05975
3780.16035	0.05874
3778.87458	0.05794
3777.58881	0.05778
3776.30304	0.05835
3775.01728	0.05958
3773.73151	0.06114
3772.44574	0.06242
3771.15997	0.06279
3769.87420	0.06212
3768.58843	0.06091
3767.30266	0.05996
3766.01689	0.05973
3764.73112	0.06010
3763.44536	0.06060
3762.15959	0.06089
3760.87382	0.06103
3759.58805	0.06109
3758.30228	0.06097
3757.01651	0.06073
3755.73074	0.06065
3754.44497	0.06084
3753.15921	0.06102
3751.87344	0.06080
3750.58767	0.06008
3749.30190	0.05911
3748.01613	0.05819
3746.73036	0.05748
3745.44459	0.05723
3744.15882	0.05783
3742.87305	0.05914
3741.58729	0.06047
3740.30152	0.06131
3739.01575	0.06163
3737.72998	0.06156
3736.44421	0.06119
3735.15844	0.06056
3733.87267	0.05979
3732.58690	0.05922
3731.30114	0.05917
3730.01537	0.05957
3728.72960	0.05992
3727.44383	0.05982
3726.15806	0.05925
3724.87229	0.05852
3723.58652	0.05792
3722.30075	0.05769
3721.01498	0.05793
3719.72922	0.05853
3718.44345	0.05916
3717.15768	0.05947
3715.87191	0.05931
3714.58614	0.05872
3713.30037	0.05791
3712.01460	0.05717
3710.72883	0.05678
3709.44307	0.05670
3708.15730	0.05653
3706.87153	0.05596
3705.58576	0.05520
3704.29999	0.05481
3703.01422	0.05510
3701.72845	0.05576
3700.44268	0.05617
3699.15691	0.05591
3697.87115	0.05513
3696.58538	0.05440
3695.29961	0.05438
3694.01384	0.05520
3692.72807	0.05634
3691.44230	0.05701
3690.15653	0.05694
3688.87076	0.05660
3687.58500	0.05659
3686.29923	0.05701
3685.01346	0.05757
3683.72769	0.05802
3682.44192	0.05817
3681.15615	0.05790
3679.87038	0.05743
3678.58461	0.05719
3677.29884	0.05746
3676.01308	0.05828
3674.72731	0.05937
3673.44154	0.06012
3672.15577	0.05995
3670.87000	0.05887
3669.58423	0.05753
3668.29846	0.05661
3667.01269	0.05635
3665.72693	0.05647
3664.44116	0.05653
3663.15539	0.05636
3661.86962	0.05629
3660.58385	0.05674
3659.29808	0.05753
3658.01231	0.05804
3656.72654	0.05792
3655.44077	0.05741
3654.15501	0.05691
3652.86924	0.05657
3651.58347	0.05642
3650.29770	0.05668
3649.01193	0.05755
3647.72616	0.05887
3646.44039	0.06005
3645.15462	0.06070
3643.86886	0.06100
3642.58309	0.06137
3641.29732	0.06196
3640.01155	0.06243
3638.72578	0.06236
3637.44001	0.06156
3636.15424	0.06022
3634.86847	0.05891
3633.58270	0.05832
3632.29694	0.05880
3631.01117	0.06006
3629.72540	0.06139
3628.43963	0.06215
3627.15386	0.06218
3625.86809	0.06186
3624.58232	0.06184
3623.29655	0.06237
3622.01079	0.06309
3620.72502	0.06359
3619.43925	0.06391
3618.15348	0.06426
3616.86771	0.06459
3615.58194	0.06469
3614.29617	0.06460
3613.01040	0.06453
3611.72463	0.06453
3610.43887	0.06446
3609.15310	0.06426
3607.86733	0.06405
3606.58156	0.06395
3605.29579	0.06394
3604.01002	0.06404
3602.72425	0.06426
3601.43848	0.06454
3600.15272	0.06484
3598.86695	0.06528
3597.58118	0.06594
3596.29541	0.06666
3595.00964	0.06710
3593.72387	0.06713
3592.43810	0.06699
3591.15233	0.06694
3589.86656	0.06695
3588.58080	0.06686
3587.29503	0.06667
3586.00926	0.06663
3584.72349	0.06694
3583.43772	0.06749
3582.15195	0.06790
3580.86618	0.06800
3579.58041	0.06804
3578.29464	0.06837
3577.00888	0.06902
3575.72311	0.06962
3574.43734	0.06991
3573.15157	0.07005
3571.86580	0.07031
3570.58003	0.07075
3569.29426	0.07120
3568.00849	0.07153
3566.72273	0.07166
3565.43696	0.07153
3564.15119	0.07115
3562.86542	0.07087
3561.57965	0.07104
3560.29388	0.07155
3559.00811	0.07193
3557.72234	0.07184
3556.43657	0.07143
3555.15081	0.07113
3553.86504	0.07114
3552.57927	0.07134
3551.29350	0.07150
3550.00773	0.07161
3548.72196	0.07183
3547.43619	0.07233
3546.15042	0.07305
3544.86466	0.07376
3543.57889	0.07428
3542.29312	0.07460
3541.00735	0.07486
3539.72158	0.07518
3538.43581	0.07559
3537.15004	0.07599
3535.86427	0.07630
3534.57850	0.07655
3533.29274	0.07677
3532.00697	0.07686
3530.72120	0.07671
3529.43543	0.07631
3528.14966	0.07585
3526.86389	0.07552
3525.57812	0.07544
3524.29235	0.07556
3523.00659	0.07581
3521.72082	0.07617
3520.43505	0.07666
3519.14928	0.07720
3517.86351	0.07761
3516.57774	0.07775
3515.29197	0.07773
3514.00620	0.07774
3512.72043	0.07787
3511.43467	0.07793
3510.14890	0.07777
3508.86313	0.07747
3507.57736	0.07731
3506.29159	0.07749
3505.00582	0.07800
3503.72005	0.07865
3502.43428	0.07933
3501.14852	0.07998
3499.86275	0.08051
3498.57698	0.08071
3497.29121	0.08033
3496.00544	0.07931
3494.71967	0.07798
3493.43390	0.07693
3492.14813	0.07660
3490.86236	0.07706
3489.57660	0.07804
3488.29083	0.07921
3487.00506	0.08022
3485.71929	0.08088
3484.43352	0.08124
3483.14775	0.08157
3481.86198	0.08197
3480.57621	0.08222
3479.29045	0.08215
3478.00468	0.08188
3476.71891	0.08168
3475.43314	0.08164
3474.14737	0.08161
3472.86160	0.08150
3471.57583	0.08136
3470.29006	0.08127
3469.00429	0.08127
3467.71853	0.08145
3466.43276	0.08186
3465.14699	0.08249
3463.86122	0.08321
3462.57545	0.08393
3461.28968	0.08452
3460.00391	0.08478
3458.71814	0.08460
3457.43238	0.08418
3456.14661	0.08399
3454.86084	0.08439
3453.57507	0.08534
3452.28930	0.08643
3451.00353	0.08713
3449.71776	0.08710
3448.43199	0.08637
3447.14622	0.08528
3445.86046	0.08422
3444.57469	0.08348
3443.28892	0.08318
3442.00315	0.08330
3440.71738	0.08372
3439.43161	0.08422
3438.14584	0.08466
3436.86007	0.08504
3435.57431	0.08550
3434.28854	0.08608
3433.00277	0.08662
3431.71700	0.08687
3430.43123	0.08677
3429.14546	0.08643
3427.85969	0.08600
3426.57392	0.08563
3425.28815	0.08554
3424.00239	0.08590
3422.71662	0.08653
3421.43085	0.08701
3420.14508	0.08708
3418.85931	0.08699
3417.57354	0.08717
3416.28777	0.08767
3415.00200	0.08811
3413.71624	0.08806
3412.43047	0.08755
3411.14470	0.08698
3409.85893	0.08668
3408.57316	0.08664
3407.28739	0.08676
3406.00162	0.08714
3404.71585	0.08796
3403.43008	0.08907
3402.14432	0.08994
3400.85855	0.09009
3399.57278	0.08945
3398.28701	0.08833
3397.00124	0.08730
3395.71547	0.08683
3394.42970	0.08701
3393.14393	0.08753
3391.85817	0.08792
3390.57240	0.08793
3389.28663	0.08767
3388.00086	0.08741
3386.71509	0.08736
3385.42932	0.08754
3384.14355	0.08794
3382.85778	0.08851
3381.57201	0.08910
3380.28625	0.08949
3379.00048	0.08957
3377.71471	0.08942
3376.42894	0.08921
3375.14317	0.08904
3373.85740	0.08888
3372.57163	0.08854
3371.28586	0.08789
3370.00010	0.08717
3368.71433	0.08687
3367.42856	0.08731
3366.14279	0.08829
3364.85702	0.08931
3363.57125	0.08998
3362.28548	0.09028
3360.99971	0.09034
3359.71394	0.09027
3358.42818	0.09008
3357.14241	0.08979
3355.85664	0.08952
3354.57087	0.08954
3353.28510	0.08991
3351.99933	0.09044
3350.71356	0.09078
3349.42779	0.09074
3348.14202	0.09042
3346.85626	0.08991
3345.57049	0.08927
3344.28472	0.08868
3342.99895	0.08839
3341.71318	0.08858
3340.42741	0.08910
3339.14164	0.08965
3337.85587	0.09001
3336.57011	0.09017
3335.28434	0.09014
3333.99857	0.08982
3332.71280	0.08918
3331.42703	0.08846
3330.14126	0.08808
3328.85549	0.08819
3327.56972	0.08848
3326.28395	0.08847
3324.99819	0.08809
3323.71242	0.08772
3322.42665	0.08779
3321.14088	0.08834
3319.85511	0.08898
3318.56934	0.08927
3317.28357	0.08899
3315.99780	0.08834
3314.71204	0.08773
3313.42627	0.08746
3312.14050	0.08760
3310.85473	0.08807
3309.56896	0.08875
3308.28319	0.08949
3306.99742	0.09008
3305.71165	0.09035
3304.42588	0.09021
3303.14012	0.08983
3301.85435	0.08957
3300.56858	0.08973
3299.28281	0.09018
3297.99704	0.09044
3296.71127	0.09007
3295.42550	0.08910
3294.13973	0.08792
3292.85397	0.08699
3291.56820	0.08662
3290.28243	0.08695
3288.99666	0.08782
3287.71089	0.08877
3286.42512	0.08926
3285.13935	0.08906
3283.85358	0.08840
3282.56781	0.08772
3281.28205	0.08744
3279.99628	0.08774
3278.71051	0.08849
3277.42474	0.08927
3276.13897	0.08968
3274.85320	0.08965
3273.56743	0.08936
3272.28166	0.08901
3270.99590	0.08855
3269.71013	0.08787
3268.42436	0.08702
3267.13859	0.08628
3265.85282	0.08600
3264.56705	0.08634
3263.28128	0.08706
3261.99551	0.08765
3260.70974	0.08773
3259.42398	0.08736
3258.13821	0.08691
3256.85244	0.08671
3255.56667	0.08678
3254.28090	0.08693
3252.99513	0.08706
3251.70936	0.08721
3250.42359	0.08740
3249.13783	0.08749
3247.85206	0.08731
3246.56629	0.08691
3245.28052	0.08653
3243.99475	0.08637
3242.70898	0.08641
3241.42321	0.08643
3240.13744	0.08621
3238.85167	0.08568
3237.56591	0.08501
3236.28014	0.08448
3234.99437	0.08433
3233.70860	0.08460
3232.42283	0.08516
3231.13706	0.08574
3229.85129	0.08608
3228.56552	0.08605
3227.27976	0.08577
3225.99399	0.08545
3224.70822	0.08527
3223.42245	0.08533
3222.13668	0.08557
3220.85091	0.08579
3219.56514	0.08574
3218.27937	0.08538
3216.99360	0.08491
3215.70784	0.08459
3214.42207	0.08457
3213.13630	0.08481
3211.85053	0.08521
3210.56476	0.08555
3209.27899	0.08558
3207.99322	0.08520
3206.70745	0.08464
3205.42169	0.08426
3204.13592	0.08417
3202.85015	0.08418
3201.56438	0.08405
3200.27861	0.08369
3198.99284	0.08316
3197.70707	0.08256
3196.42130	0.08209
3195.13553	0.08194
3193.84977	0.08203
3192.56400	0.08202
3191.27823	0.08167
3189.99246	0.08112
3188.70669	0.08071
3187.42092	0.08069
3186.13515	0.08107
3184.84938	0.08164
3183.56362	0.08216
3182.27785	0.08243
3180.99208	0.08238
3179.70631	0.08201
3178.42054	0.08142
3177.13477	0.08073
3175.84900	0.08019
3174.56323	0.08000
3173.27746	0.08021
3171.99170	0.08060
3170.70593	0.08089
3169.42016	0.08098
3168.13439	0.08094
3166.84862	0.08084
3165.56285	0.08059
3164.27708	0.08008
3162.99131	0.07935
3161.70555	0.07862
3160.41978	0.07819
3159.13401	0.07820
3157.84824	0.07853
3156.56247	0.07892
3155.27670	0.07916
3153.99093	0.07919
3152.70516	0.07904
3151.41939	0.07876
3150.13363	0.07837
3148.84786	0.07796
3147.56209	0.07766
3146.27632	0.07750
3144.99055	0.07741
3143.70478	0.07733
3142.41901	0.07725
3141.13324	0.07720
3139.84748	0.07711
3138.56171	0.07689
3137.27594	0.07662
3135.99017	0.07649
3134.70440	0.07664
3133.41863	0.07695
3132.13286	0.07720
3130.84709	0.07725
3129.56132	0.07710
3128.27556	0.07677
3126.98979	0.07627
3125.70402	0.07579
3124.41825	0.07556
3123.13248	0.07566
3121.84671	0.07585
3120.56094	0.07576
3119.27517	0.07530
3117.98940	0.07474
3116.70364	0.07440
3115.41787	0.07436
3114.13210	0.07448
3112.84633	0.07461
3111.56056	0.07469
3110.27479	0.07471
3108.98902	0.07463
3107.70325	0.07447
3106.41749	0.07431
3105.13172	0.07425
3103.84595	0.07434
3102.56018	0.07448
3101.27441	0.07454
3099.98864	0.07435
3098.70287	0.07392
3097.41710	0.07344
3096.13133	0.07322
3094.84557	0.07332
3093.55980	0.07355
3092.27403	0.07361
3090.98826	0.07342
3089.70249	0.07317
3088.41672	0.07307
3087.13095	0.07312
3085.84518	0.07316
3084.55942	0.07308
3083.27365	0.07288
3081.98788	0.07274
3080.70211	0.07278
3079.41634	0.07298
3078.13057	0.07315
3076.84480	0.07312
3075.55903	0.07288
3074.27326	0.07255
3072.98750	0.07225
3071.70173	0.07201
3070.41596	0.07185
3069.13019	0.07180
3067.84442	0.07184
3066.55865	0.07180
3065.27288	0.07149
3063.98711	0.07092
3062.70135	0.07033
3061.41558	0.07008
3060.12981	0.07027
3058.84404	0.07075
3057.55827	0.07116
3056.27250	0.07120
3054.98673	0.07086
3053.70096	0.07033
3052.41519	0.06982
3051.12943	0.06942
3049.84366	0.06917
3048.55789	0.06914
3047.27212	0.06936
3045.98635	0.06980
3044.70058	0.07036
3043.41481	0.07083
3042.12904	0.07100
3040.84328	0.07084
3039.55751	0.07054
3038.27174	0.07032
3036.98597	0.07021
3035.70020	0.07009
3034.41443	0.06991
3033.12866	0.06967
3031.84289	0.06936
3030.55712	0.06898
3029.27136	0.06860
3027.98559	0.06837
3026.69982	0.06834
3025.41405	0.06838
3024.12828	0.06834
3022.84251	0.06821
3021.55674	0.06810
3020.27097	0.06801
3018.98521	0.06779
3017.69944	0.06738
3016.41367	0.06695
3015.12790	0.06671
3013.84213	0.06674
3012.55636	0.06692
3011.27059	0.06703
3009.98482	0.06697
3008.69905	0.06680
3007.41329	0.06672
3006.12752	0.06687
3004.84175	0.06719
3003.55598	0.06750
3002.27021	0.06765
3000.98444	0.06758
2999.69867	0.06731
2998.41290	0.06686
2997.12714	0.06633
2995.84137	0.06587
2994.55560	0.06562
2993.26983	0.06558
2991.98406	0.06568
2990.69829	0.06585
2989.41252	0.06609
2988.12675	0.06635
2986.84098	0.06650
2985.55522	0.06641
2984.26945	0.06618
2982.98368	0.06602
2981.69791	0.06612
2980.41214	0.06646
2979.12637	0.06684
2977.84060	0.06709
2976.55483	0.06716
2975.26907	0.06710
2973.98330	0.06694
2972.69753	0.06677
2971.41176	0.06682
2970.12599	0.06727
2968.84022	0.06805
2967.55445	0.06881
2966.26868	0.06927
2964.98291	0.06942
2963.69715	0.06941
2962.41138	0.06933
2961.12561	0.06926
2959.83984	0.06928
2958.55407	0.06950
2957.26830	0.06987
2955.98253	0.07031
2954.69676	0.07069
2953.41100	0.07096
2952.12523	0.07113
2950.83946	0.07122
2949.55369	0.07119
2948.26792	0.07102
2946.98215	0.07075
2945.69638	0.07058
2944.41061	0.07060
2943.12484	0.07068
2941.83908	0.07065
2940.55331	0.07054
2939.26754	0.07047
2937.98177	0.07053
2936.69600	0.07069
2935.41023	0.07095
2934.12446	0.07133
2932.83869	0.07173
2931.55293	0.07199
2930.26716	0.07211
2928.98139	0.07226
2927.69562	0.07251
2926.40985	0.07278
2925.12408	0.07289
2923.83831	0.07277
2922.55254	0.07244
2921.26677	0.07202
2919.98101	0.07161
2918.69524	0.07128
2917.40947	0.07098
2916.12370	0.07065
2914.83793	0.07034
2913.55216	0.07016
2912.26639	0.07008
2910.98062	0.06991
2909.69486	0.06954
2908.40909	0.06911
2907.12332	0.06886
2905.83755	0.06884
2904.55178	0.06882
2903.26601	0.06856
2901.98024	0.06803
2900.69447	0.06741
2899.40870	0.06693
2898.12294	0.06662
2896.83717	0.06638
2895.55140	0.06607
2894.26563	0.06559
2892.97986	0.06499
2891.69409	0.06440
2890.40832	0.06395
2889.12255	0.06373
2887.83678	0.06376
2886.55102	0.06393
2885.26525	0.06409
2883.97948	0.06412
2882.69371	0.06399
2881.40794	0.06380
2880.12217	0.06367
2878.83640	0.06366
2877.55063	0.06372
2876.26487	0.06378
2874.97910	0.06381
2873.69333	0.06383
2872.40756	0.06382
2871.12179	0.06374
2869.83602	0.06361
2868.55025	0.06351
2867.26448	0.06347
2865.97871	0.06339
2864.69295	0.06323
2863.40718	0.06310
2862.12141	0.06317
2860.83564	0.06340
2859.54987	0.06361
2858.26410	0.06365
2856.97833	0.06356
2855.69256	0.06346
2854.40680	0.06333
2853.12103	0.06311
2851.83526	0.06276
2850.54949	0.06234
2849.26372	0.06195
2847.97795	0.06160
2846.69218	0.06124
2845.40641	0.06084
2844.12064	0.06047
2842.83488	0.06025
2841.54911	0.06013
2840.26334	0.05988
2838.97757	0.05928
2837.69180	0.05839
2836.40603	0.05760
2835.12026	0.05724
2833.83449	0.05733
2832.54873	0.05756
2831.26296	0.05763
2829.97719	0.05751
2828.69142	0.05731
2827.40565	0.05712
2826.11988	0.05691
2824.83411	0.05660
2823.54834	0.05624
2822.26257	0.05595
2820.97681	0.05577
2819.69104	0.05566
2818.40527	0.05556
2817.11950	0.05544
2815.83373	0.05528
2814.54796	0.05508
2813.26219	0.05482
2811.97642	0.05454
2810.69066	0.05432
2809.40489	0.05427
2808.11912	0.05440
2806.83335	0.05457
2805.54758	0.05459
2804.26181	0.05438
2802.97604	0.05406
2801.69027	0.05385
2800.40450	0.05382
2799.11874	0.05390
2797.83297	0.05394
2796.54720	0.05389
2795.26143	0.05379
2793.97566	0.05372
2792.68989	0.05372
2791.40412	0.05379
2790.11835	0.05388
2788.83259	0.05388
2787.54682	0.05366
2786.26105	0.05325
2784.97528	0.05281
2783.68951	0.05250
2782.40374	0.05240
2781.11797	0.05248
2779.83220	0.05267
2778.54643	0.05290
2777.26067	0.05310
2775.97490	0.05316
2774.68913	0.05306
2773.40336	0.05285
2772.11759	0.05262
2770.83182	0.05238
2769.54605	0.05209
2768.26028	0.05173
2766.97452	0.05134
2765.68875	0.05101
2764.40298	0.05083
2763.11721	0.05081
2761.83144	0.05090
2760.54567	0.05102
2759.25990	0.05110
2757.97413	0.05109
2756.68836	0.05094
2755.40260	0.05068
2754.11683	0.05047
2752.83106	0.05046
2751.54529	0.05061
2750.25952	0.05074
2748.97375	0.05069
2747.68798	0.05041
2746.40221	0.04998
2745.11645	0.04959
2743.83068	0.04941
2742.54491	0.04954
2741.25914	0.04985
2739.97337	0.05017
2738.68760	0.05036
2737.40183	0.05034
2736.11606	0.05010
2734.83029	0.04973
2733.54453	0.04940
2732.25876	0.04927
2730.97299	0.04939
2729.68722	0.04954
2728.40145	0.04953
2727.11568	0.04931
2725.82991	0.04908
2724.54414	0.04899
2723.25838	0.04902
2721.97261	0.04903
2720.68684	0.04887
2719.40107	0.04858
2718.11530	0.04831
2716.82953	0.04822
2715.54376	0.04832
2714.25799	0.04842
2712.97222	0.04836
2711.68646	0.04810
2710.40069	0.04780
2709.11492	0.04767
2707.82915	0.04777
2706.54338	0.04799
2705.25761	0.04812
2703.97184	0.04807
2702.68607	0.04792
2701.40031	0.04776
2700.11454	0.04762
2698.82877	0.04746
2697.54300	0.04728
2696.25723	0.04709
2694.97146	0.04692
2693.68569	0.04677
2692.39992	0.04660
2691.11415	0.04640
2689.82839	0.04622
2688.54262	0.04616
2687.25685	0.04625
2685.97108	0.04642
2684.68531	0.04655
2683.39954	0.04658
2682.11377	0.04655
2680.82800	0.04652
2679.54224	0.04653
2678.25647	0.04654
2676.97070	0.04647
2675.68493	0.04631
2674.39916	0.04612
2673.11339	0.04601
2671.82762	0.04604
2670.54185	0.04618
2669.25608	0.04635
2667.97032	0.04645
2666.68455	0.04648
2665.39878	0.04642
2664.11301	0.04625
2662.82724	0.04599
2661.54147	0.04574
2660.25570	0.04564
2658.96993	0.04570
2657.68417	0.04579
2656.39840	0.04574
2655.11263	0.04552
2653.82686	0.04523
2652.54109	0.04502
2651.25532	0.04501
2649.96955	0.04518
2648.68378	0.04539
2647.39801	0.04545
2646.11225	0.04525
2644.82648	0.04480
2643.54071	0.04432
2642.25494	0.04408
2640.96917	0.04416
2639.68340	0.04435
2638.39763	0.04435
2637.11186	0.04410
2635.82609	0.04379
2634.54033	0.04358
2633.25456	0.04342
2631.96879	0.04317
2630.68302	0.04283
2629.39725	0.04255
2628.11148	0.04239
2626.82571	0.04225
2625.53994	0.04198
2624.25418	0.04159
2622.96841	0.04124
2621.68264	0.04106
2620.39687	0.04106
2619.11110	0.04111
2617.82533	0.04111
2616.53956	0.04106
2615.25379	0.04095
2613.96802	0.04075
2612.68226	0.04046
2611.39649	0.04014
2610.11072	0.03984
2608.82495	0.03963
2607.53918	0.03958
2606.25341	0.03972
2604.96764	0.03996
2603.68187	0.04015
2602.39611	0.04019
2601.11034	0.04006
2599.82457	0.03986
2598.53880	0.03974
2597.25303	0.03971
2595.96726	0.03962
2594.68149	0.03933
2593.39572	0.03891
2592.10995	0.03864
2590.82419	0.03870
2589.53842	0.03896
2588.25265	0.03917
2586.96688	0.03917
2585.68111	0.03900
2584.39534	0.03875
2583.10957	0.03844
2581.82380	0.03805
2580.53804	0.03766
2579.25227	0.03738
2577.96650	0.03721
2576.68073	0.03706
2575.39496	0.03686
2574.10919	0.03668
2572.82342	0.03656
2571.53765	0.03647
2570.25188	0.03641
2568.96612	0.03646
2567.68035	0.03667
2566.39458	0.03693
2565.10881	0.03711
2563.82304	0.03713
2562.53727	0.03700
2561.25150	0.03681
2559.96573	0.03665
2558.67997	0.03656
2557.39420	0.03649
2556.10843	0.03640
2554.82266	0.03642
2553.53689	0.03669
2552.25112	0.03725
2550.96535	0.03797
2549.67958	0.03853
2548.39381	0.03862
2547.10805	0.03815
2545.82228	0.03748
2544.53651	0.03704
2543.25074	0.03692
2541.96497	0.03684
2540.67920	0.03652
2539.39343	0.03590
2538.10766	0.03515
2536.82190	0.03454
2535.53613	0.03425
2534.25036	0.03428
2532.96459	0.03449
2531.67882	0.03466
2530.39305	0.03472
2529.10728	0.03466
2527.82151	0.03455
2526.53574	0.03450
2525.24998	0.03458
2523.96421	0.03479
2522.67844	0.03503
2521.39267	0.03515
2520.10690	0.03506
2518.82113	0.03478
2517.53536	0.03446
2516.24959	0.03422
2514.96383	0.03406
2513.67806	0.03395
2512.39229	0.03391
2511.10652	0.03395
2509.82075	0.03402
2508.53498	0.03411
2507.24921	0.03423
2505.96344	0.03436
2504.67767	0.03452
2503.39191	0.03475
2502.10614	0.03508
2500.82037	0.03533
2499.53460	0.03528
2498.24883	0.03498
2496.96306	0.03474
2495.67729	0.03473
2494.39152	0.03478
2493.10576	0.03460
2491.81999	0.03415
2490.53422	0.03363
2489.24845	0.03334
2487.96268	0.03342
2486.67691	0.03379
2485.39114	0.03417
2484.10537	0.03440
2482.81960	0.03450
2481.53384	0.03464
2480.24807	0.03481
2478.96230	0.03481
2477.67653	0.03450
2476.39076	0.03403
2475.10499	0.03368
2473.81922	0.03353
2472.53345	0.03347
2471.24769	0.03346
2469.96192	0.03362
2468.67615	0.03407
2467.39038	0.03466
2466.10461	0.03506
2464.81884	0.03510
2463.53307	0.03479
2462.24730	0.03432
2460.96153	0.03389
2459.67577	0.03367
2458.39000	0.03362
2457.10423	0.03363
2455.81846	0.03354
2454.53269	0.03328
2453.24692	0.03295
2451.96115	0.03266
2450.67538	0.03247
2449.38962	0.03235
2448.10385	0.03222
2446.81808	0.03214
2445.53231	0.03217
2444.24654	0.03227
2442.96077	0.03227
2441.67500	0.03208
2440.38923	0.03184
2439.10346	0.03173
2437.81770	0.03181
2436.53193	0.03202
2435.24616	0.03229
2433.96039	0.03252
2432.67462	0.03264
2431.38885	0.03256
2430.10308	0.03226
2428.81731	0.03188
2427.53155	0.03165
2426.24578	0.03163
2424.96001	0.03174
2423.67424	0.03182
2422.38847	0.03188
2421.10270	0.03197
2419.81693	0.03207
2418.53116	0.03210
2417.24539	0.03204
2415.95963	0.03194
2414.67386	0.03180
2413.38809	0.03155
2412.10232	0.03122
2410.81655	0.03094
2409.53078	0.03083
2408.24501	0.03090
2406.95924	0.03111
2405.67347	0.03137
2404.38771	0.03158
2403.10194	0.03165
2401.81617	0.03153
2400.53040	0.03129
2399.24463	0.03104
2397.95886	0.03093
2396.67309	0.03098
2395.38732	0.03117
2394.10156	0.03140
2392.81579	0.03156
2391.53002	0.03159
2390.24425	0.03156
2388.95848	0.03158
2387.67271	0.03172
2386.38694	0.03195
2385.10117	0.03219
2383.81540	0.03239
2382.52964	0.03258
2381.24387	0.03276
2379.95810	0.03292
2378.67233	0.03302
2377.38656	0.03308
2376.10079	0.03319
2374.81502	0.03338
2373.52925	0.03368
2372.24349	0.03408
2370.95772	0.03456
2369.67195	0.03499
2368.38618	0.03525
2367.10041	0.03531
2365.81464	0.03533
2364.52887	0.03549
2363.24310	0.03583
2361.95733	0.03621
2360.67157	0.03642
2359.38580	0.03637
2358.10003	0.03613
2356.81426	0.03576
2355.52849	0.03529
2354.24272	0.03474
2352.95695	0.03423
2351.67118	0.03388
2350.38542	0.03370
2349.09965	0.03365
2347.81388	0.03372
2346.52811	0.03393
2345.24234	0.03424
2343.95657	0.03454
2342.67080	0.03474
2341.38503	0.03484
2340.09926	0.03488
2338.81350	0.03491
2337.52773	0.03491
2336.24196	0.03488
2334.95619	0.03479
2333.67042	0.03468
2332.38465	0.03459
2331.09888	0.03452
2329.81311	0.03449
2328.52735	0.03457
2327.24158	0.03478
2325.95581	0.03499
2324.67004	0.03495
2323.38427	0.03454
2322.09850	0.03386
2320.81273	0.03320
2319.52696	0.03279
2318.24119	0.03267
2316.95543	0.03276
2315.66966	0.03288
2314.38389	0.03284
2313.09812	0.03254
2311.81235	0.03210
2310.52658	0.03171
2309.24081	0.03149
2307.95504	0.03136
2306.66928	0.03119
2305.38351	0.03095
2304.09774	0.03074
2302.81197	0.03064
2301.52620	0.03061
2300.24043	0.03056
2298.95466	0.03036
2297.66889	0.02998
2296.38312	0.02947
2295.09736	0.02896
2293.81159	0.02859
2292.52582	0.02847
2291.24005	0.02857
2289.95428	0.02880
2288.66851	0.02902
2287.38274	0.02912
2286.09697	0.02902
2284.81121	0.02868
2283.52544	0.02818
2282.23967	0.02769
2280.95390	0.02740
2279.66813	0.02744
2278.38236	0.02774
2277.09659	0.02808
2275.81082	0.02819
2274.52505	0.02801
2273.23929	0.02762
2271.95352	0.02710
2270.66775	0.02649
2269.38198	0.02586
2268.09621	0.02546
2266.81044	0.02547
2265.52467	0.02585
2264.23890	0.02627
2262.95314	0.02639
2261.66737	0.02612
2260.38160	0.02562
2259.09583	0.02508
2257.81006	0.02462
2256.52429	0.02429
2255.23852	0.02419
2253.95275	0.02433
2252.66698	0.02447
2251.38122	0.02435
2250.09545	0.02397
2248.80968	0.02366
2247.52391	0.02379
2246.23814	0.02395
2244.95237	0.02371
2243.66660	0.02301
2242.38083	0.02218
2241.09507	0.02157
2239.80930	0.02139
2238.52353	0.02161
2237.23776	0.02194
2235.95199	0.02206
2234.66622	0.02193
2233.38045	0.02183
2232.09468	0.02202
2230.80891	0.02249
2229.52315	0.02289
2228.23738	0.02283
2226.95161	0.02220
2225.66584	0.02119
2224.38007	0.02022
2223.09430	0.01962
2221.80853	0.01947
2220.52276	0.01959
2219.23700	0.01981
2217.95123	0.02026
2216.66546	0.02114
2215.37969	0.02204
2214.09392	0.02216
2212.80815	0.02122
2211.52238	0.02006
2210.23661	0.01980
2208.95084	0.02067
2207.66508	0.02180
2206.37931	0.02220
2205.09354	0.02169
2203.80777	0.02092
2202.52200	0.02053
2201.23623	0.02055
2199.95046	0.02056
2198.66469	0.02038
2197.37893	0.02030
2196.09316	0.02061
2194.80739	0.02122
2193.52162	0.02182
2192.23585	0.02214
2190.95008	0.02201
2189.66431	0.02144
2188.37854	0.02072
2187.09277	0.02018
2185.80701	0.01975
2184.52124	0.01909
2183.23547	0.01828
2181.94970	0.01801
2180.66393	0.01862
2179.37816	0.01951
2178.09239	0.01963
2176.80662	0.01867
2175.52085	0.01731
2174.23509	0.01641
2172.94932	0.01627
2171.66355	0.01663
2170.37778	0.01699
2169.09201	0.01693
2167.80624	0.01626
2166.52047	0.01532
2165.23470	0.01474
2163.94894	0.01485
2162.66317	0.01524
2161.37740	0.01504
2160.09163	0.01388
2158.80586	0.01247
2157.52009	0.01183
2156.23432	0.01210
2154.94855	0.01257
2153.66278	0.01265
2152.37702	0.01231
2151.09125	0.01176
2149.80548	0.01120
2148.51971	0.01095
2147.23394	0.01150
2145.94817	0.01296
2144.66240	0.01478
2143.37663	0.01619
2142.09087	0.01694
2140.80510	0.01736
2139.51933	0.01776
2138.23356	0.01823
2136.94779	0.01871
2135.66202	0.01920
2134.37625	0.01954
2133.09048	0.01950
2131.80471	0.01910
2130.51895	0.01862
2129.23318	0.01832
2127.94741	0.01817
2126.66164	0.01804
2125.37587	0.01803
2124.09010	0.01825
2122.80433	0.01864
2121.51856	0.01896
2120.23280	0.01899
2118.94703	0.01870
2117.66126	0.01834
2116.37549	0.01826
2115.08972	0.01849
2113.80395	0.01866
2112.51818	0.01841
2111.23241	0.01788
2109.94664	0.01755
2108.66088	0.01770
2107.37511	0.01817
2106.08934	0.01852
2104.80357	0.01842
2103.51780	0.01796
2102.23203	0.01754
2100.94626	0.01747
2099.66049	0.01849
2098.37473	0.01887
2097.08896	0.01861
2095.80319	0.01832
2094.51742	0.01830
2093.23165	0.01849
2091.94588	0.01865
2090.66011	0.01874
2089.37434	0.01885
2088.08857	0.01899
2086.80281	0.01898
2085.51704	0.01867
2084.23127	0.01833
2082.94550	0.01840
2081.65973	0.01904
2080.37396	0.01985
2079.08819	0.02029
2077.80242	0.02018
2076.51666	0.01979
2075.23089	0.01948
2073.94512	0.01930
2072.65935	0.01904
2071.37358	0.01850
2070.08781	0.01772
2068.80204	0.01685
2067.51627	0.01598
2066.23050	0.01530
2064.94474	0.01511
2063.65897	0.01545
2062.37320	0.01597
2061.08743	0.01614
2059.80166	0.01578
2058.51589	0.01505
2057.23012	0.01421
2055.94435	0.01344
2054.65859	0.01291
2053.37282	0.01292
2052.08705	0.01361
2050.80128	0.01458
2049.51551	0.01500
2048.22974	0.01437
2046.94397	0.01303
2045.65820	0.01186
2044.37243	0.01140
2043.08667	0.01163
2041.80090	0.01222
2040.51513	0.01293
2039.22936	0.01360
2037.94359	0.01410
2036.65782	0.01427
2035.37205	0.01406
2034.08628	0.01352
2032.80052	0.01289
2031.51475	0.01248
2030.22898	0.01244
2028.94321	0.01252
2027.65744	0.01226
2026.37167	0.01136
2025.08590	0.01007
2023.80013	0.00908
2022.51436	0.00891
2021.22860	0.00952
2019.94283	0.01023
2018.65706	0.01043
2017.37129	0.01012
2016.08552	0.00989
2014.79975	0.01031
2013.51398	0.01126
2012.22821	0.01212
2010.94245	0.01241
2009.65668	0.01212
2008.37091	0.01162
2007.08514	0.01127
2005.79937	0.01122
2004.51360	0.01142
2003.22783	0.01169
2001.94206	0.01190
2000.65629	0.01209
1999.37053	0.01240
1998.08476	0.01293
1996.79899	0.01363
1995.51322	0.01440
1994.22745	0.01504
1992.94168	0.01527
1991.65591	0.01496
1990.37014	0.01439
1989.08438	0.01402
1987.79861	0.01404
1986.51284	0.01413
1985.22707	0.01392
1983.94130	0.01336
1982.65553	0.01281
1981.36976	0.01272
1980.08399	0.01335
1978.79822	0.01462
1977.51246	0.01603
1976.22669	0.01703
1974.94092	0.01732
1973.65515	0.01703
1972.36938	0.01634
1971.08361	0.01541
1969.79784	0.01451
1968.51207	0.01406
1967.22631	0.01427
1965.94054	0.01483
1964.65477	0.01515
1963.36900	0.01505
1962.08323	0.01489
1960.79746	0.01502
1959.51169	0.01529
1958.22592	0.01529
1956.94015	0.01495
1955.65439	0.01470
1954.36862	0.01501
1953.08285	0.01585
1951.79708	0.01668
1950.51131	0.01699
1949.22554	0.01681
1947.93977	0.01659
1946.65400	0.01667
1945.36823	0.01704
1944.08247	0.01749
1942.79670	0.01779
1941.51093	0.01786
1940.22516	0.01770
1938.93939	0.01750
1937.65362	0.01751
1936.36785	0.01784
1935.08208	0.01830
1933.79632	0.01862
1932.51055	0.01866
1931.22478	0.01853
1929.93901	0.01844
1928.65324	0.01838
1927.36747	0.01816
1926.08170	0.01760
1924.79593	0.01683
1923.51016	0.01626
1922.22440	0.01623
1920.93863	0.01669
1919.65286	0.01726
1918.36709	0.01760
1917.08132	0.01764
1915.79555	0.01754
1914.50978	0.01751
1913.22401	0.01760
1911.93825	0.01773
1910.65248	0.01778
1909.36671	0.01771
1908.08094	0.01762
1906.79517	0.01764
1905.50940	0.01786
1904.22363	0.01817
1902.93786	0.01836
1901.65209	0.01833
1900.36633	0.01818
1899.08056	0.01808
1897.79479	0.01805
1896.50902	0.01800
1895.22325	0.01788
1893.93748	0.01769
1892.65171	0.01750
1891.36594	0.01740
1890.08018	0.01746
1888.79441	0.01771
1887.50864	0.01806
1886.22287	0.01839
1884.93710	0.01857
1883.65133	0.01850
1882.36556	0.01827
1881.07979	0.01808
1879.79402	0.01809
1878.50826	0.01826
1877.22249	0.01839
1875.93672	0.01837
1874.65095	0.01824
1873.36518	0.01815
1872.07941	0.01819
1870.79364	0.01830
1869.50787	0.01830
1868.22211	0.01816
1866.93634	0.01799
1865.65057	0.01793
1864.36480	0.01802
1863.07903	0.01818
1861.79326	0.01831
1860.50749	0.01836
1859.22172	0.01834
1857.93595	0.01828
1856.65019	0.01823
1855.36442	0.01821
1854.07865	0.01822
1852.79288	0.01824
1851.50711	0.01824
1850.22134	0.01822
1848.93557	0.01820
1847.64980	0.01820
1846.36404	0.01818
1845.07827	0.01814
1843.79250	0.01814
1842.50673	0.01825
1841.22096	0.01841
1839.93519	0.01854
1838.64942	0.01855
1837.36365	0.01841
1836.07788	0.01814
1834.79212	0.01786
1833.50635	0.01767
1832.22058	0.01763
1830.93481	0.01771
1829.64904	0.01783
1828.36327	0.01788
1827.07750	0.01784
1825.79173	0.01783
1824.50597	0.01800
1823.22020	0.01836
1821.93443	0.01877
1820.64866	0.01909
1819.36289	0.01921
1818.07712	0.01911
1816.79135	0.01885
1815.50558	0.01852
1814.21981	0.01822
1812.93405	0.01802
1811.64828	0.01792
1810.36251	0.01787
1809.07674	0.01787
1807.79097	0.01790
1806.50520	0.01801
1805.21943	0.01814
1803.93366	0.01823
1802.64790	0.01821
1801.36213	0.01812
1800.07636	0.01807
1798.79059	0.01813
1797.50482	0.01830
1796.21905	0.01847
1794.93328	0.01854
1793.64751	0.01848
1792.36174	0.01838
1791.07598	0.01834
1789.79021	0.01837
1788.50444	0.01843
1787.21867	0.01848
1785.93290	0.01848
1784.64713	0.01845
1783.36136	0.01843
1782.07559	0.01845
1780.78983	0.01854
1779.50406	0.01867
1778.21829	0.01878
1776.93252	0.01880
1775.64675	0.01875
1774.36098	0.01870
1773.07521	0.01872
1771.78944	0.01882
1770.50367	0.01890
1769.21791	0.01886
1767.93214	0.01874
1766.64637	0.01863
1765.36060	0.01859
1764.07483	0.01860
1762.78906	0.01860
1761.50329	0.01861
1760.21752	0.01863
1758.93176	0.01869
1757.64599	0.01882
1756.36022	0.01903
1755.07445	0.01926
1753.78868	0.01940
1752.50291	0.01938
1751.21714	0.01927
1749.93137	0.01917
1748.64560	0.01915
1747.35984	0.01917
1746.07407	0.01917
1744.78830	0.01911
1743.50253	0.01906
1742.21676	0.01908
1740.93099	0.01917
1739.64522	0.01933
1738.35945	0.01957
1737.07369	0.01981
1735.78792	0.01996
1734.50215	0.01999
1733.21638	0.01996
1731.93061	0.01991
1730.64484	0.01982
1729.35907	0.01970
1728.07330	0.01964
1726.78753	0.01970
1725.50177	0.01987
1724.21600	0.02010
1722.93023	0.02034
1721.64446	0.02057
1720.35869	0.02078
1719.07292	0.02098
1717.78715	0.02120
1716.50138	0.02145
1715.21561	0.02168
1713.92985	0.02184
1712.64408	0.02196
1711.35831	0.02212
1710.07254	0.02238
1708.78677	0.02273
1707.50100	0.02311
1706.21523	0.02353
1704.92946	0.02405
1703.64370	0.02471
1702.35793	0.02540
1701.07216	0.02605
1699.78639	0.02667
1698.50062	0.02724
1697.21485	0.02770
1695.92908	0.02811
1694.64331	0.02861
1693.35754	0.02915
1692.07178	0.02968
1690.78601	0.03026
1689.50024	0.03100
1688.21447	0.03186
1686.92870	0.03269
1685.64293	0.03339
1684.35716	0.03402
1683.07139	0.03463
1681.78563	0.03517
1680.49986	0.03564
1679.21409	0.03611
1677.92832	0.03663
1676.64255	0.03721
1675.35678	0.03785
1674.07101	0.03855
1672.78524	0.03927
1671.49947	0.03995
1670.21371	0.04060
1668.92794	0.04123
1667.64217	0.04181
1666.35640	0.04234
1665.07063	0.04281
1663.78486	0.04328
1662.49909	0.04377
1661.21332	0.04424
1659.92756	0.04467
1658.64179	0.04508
1657.35602	0.04556
1656.07025	0.04606
1654.78448	0.04649
1653.49871	0.04685
1652.21294	0.04722
1650.92717	0.04756
1649.64140	0.04777
1648.35564	0.04787
1647.06987	0.04795
1645.78410	0.04805
1644.49833	0.04812
1643.21256	0.04810
1641.92679	0.04799
1640.64102	0.04789
1639.35525	0.04784
1638.06949	0.04782
1636.78372	0.04774
1635.49795	0.04759
1634.21218	0.04740
1632.92641	0.04719
1631.64064	0.04697
1630.35487	0.04671
1629.06910	0.04641
1627.78333	0.04605
1626.49757	0.04568
1625.21180	0.04533
1623.92603	0.04502
1622.64026	0.04477
1621.35449	0.04458
1620.06872	0.04438
1618.78295	0.04410
1617.49718	0.04372
1616.21142	0.04332
1614.92565	0.04299
1613.63988	0.04271
1612.35411	0.04249
1611.06834	0.04233
1609.78257	0.04222
1608.49680	0.04211
1607.21103	0.04196
1605.92526	0.04179
1604.63950	0.04159
1603.35373	0.04142
1602.06796	0.04133
1600.78219	0.04132
1599.49642	0.04137
1598.21065	0.04144
1596.92488	0.04152
1595.63911	0.04161
1594.35335	0.04170
1593.06758	0.04178
1591.78181	0.04182
1590.49604	0.04184
1589.21027	0.04186
1587.92450	0.04195
1586.63873	0.04209
1585.35296	0.04226
1584.06719	0.04242
1582.78143	0.04260
1581.49566	0.04288
1580.20989	0.04326
1578.92412	0.04366
1577.63835	0.04398
1576.35258	0.04424
1575.06681	0.04454
1573.78104	0.04484
1572.49528	0.04507
1571.20951	0.04524
1569.92374	0.04542
1568.63797	0.04568
1567.35220	0.04600
1566.06643	0.04633
1564.78066	0.04667
1563.49489	0.04703
1562.20912	0.04736
1560.92336	0.04763
1559.63759	0.04790
1558.35182	0.04819
1557.06605	0.04839
1555.78028	0.04840
1554.49451	0.04829
1553.20874	0.04825
1551.92297	0.04833
1550.63721	0.04846
1549.35144	0.04859
1548.06567	0.04868
1546.77990	0.04873
1545.49413	0.04875
1544.20836	0.04880
1542.92259	0.04886
1541.63682	0.04892
1540.35105	0.04896
1539.06529	0.04897
1537.77952	0.04892
1536.49375	0.04877
1535.20798	0.04857
1533.92221	0.04843
1532.63644	0.04844
1531.35067	0.04854
1530.06490	0.04868
1528.77914	0.04884
1527.49337	0.04905
1526.20760	0.04933
1524.92183	0.04969
1523.63606	0.05008
1522.35029	0.05047
1521.06452	0.05087
1519.77875	0.05132
1518.49298	0.05177
1517.20722	0.05222
1515.92145	0.05269
1514.63568	0.05322
1513.34991	0.05382
1512.06414	0.05449
1510.77837	0.05524
1509.49260	0.05602
1508.20683	0.05676
1506.92107	0.05747
1505.63530	0.05818
1504.34953	0.05889
1503.06376	0.05955
1501.77799	0.06014
1500.49222	0.06070
1499.20645	0.06119
1497.92068	0.06161
1496.63491	0.06199
1495.34915	0.06239
1494.06338	0.06282
1492.77761	0.06325
1491.49184	0.06366
1490.20607	0.06410
1488.92030	0.06458
1487.63453	0.06509
1486.34876	0.06561
1485.06299	0.06615
1483.77723	0.06672
1482.49146	0.06737
1481.20569	0.06813
1479.91992	0.06898
1478.63415	0.06984
1477.34838	0.07067
1476.06261	0.07144
1474.77684	0.07213
1473.49108	0.07272
1472.20531	0.07327
1470.91954	0.07379
1469.63377	0.07428
1468.34800	0.07471
1467.06223	0.07509
1465.77646	0.07542
1464.49069	0.07573
1463.20492	0.07604
1461.91916	0.07639
1460.63339	0.07682
1459.34762	0.07736
1458.06185	0.07796
1456.77608	0.07856
1455.49031	0.07905
1454.20454	0.07938
1452.91877	0.07956
1451.63301	0.07971
1450.34724	0.07988
1449.06147	0.08006
1447.77570	0.08017
1446.48993	0.08018
1445.20416	0.08011
1443.91839	0.08000
1442.63262	0.07990
1441.34685	0.07985
1440.06109	0.07985
1438.77532	0.07990
1437.48955	0.07999
1436.20378	0.08013
1434.91801	0.08032
1433.63224	0.08053
1432.34647	0.08082
1431.06070	0.08128
1429.77494	0.08192
1428.48917	0.08275
1427.20340	0.08370
1425.91763	0.08470
1424.63186	0.08573
1423.34609	0.08677
1422.06032	0.08778
1420.77455	0.08871
1419.48878	0.08953
1418.20302	0.09022
1416.91725	0.09079
1415.63148	0.09122
1414.34571	0.09156
1413.05994	0.09180
1411.77417	0.09188
1410.48840	0.09179
1409.20263	0.09154
1407.91687	0.09113
1406.63110	0.09057
1405.34533	0.08986
1404.05956	0.08900
1402.77379	0.08799
1401.48802	0.08685
1400.20225	0.08562
1398.91648	0.08436
1397.63071	0.08306
1396.34495	0.08168
1395.05918	0.08021
1393.77341	0.07868
1392.48764	0.07714
1391.20187	0.07560
1389.91610	0.07408
1388.63033	0.07259
1387.34456	0.07113
1386.05880	0.06970
1384.77303	0.06826
1383.48726	0.06680
1382.20149	0.06532
1380.91572	0.06385
1379.62995	0.06236
1378.34418	0.06085
1377.05841	0.05933
1375.77264	0.05779
1374.48688	0.05622
1373.20111	0.05466
1371.91534	0.05311
1370.62957	0.05160
1369.34380	0.05015
1368.05803	0.04883
1366.77226	0.04762
1365.48649	0.04650
1364.20073	0.04540
1362.91496	0.04433
1361.62919	0.04330
1360.34342	0.04234
1359.05765	0.04143
1357.77188	0.04054
1356.48611	0.03970
1355.20034	0.03892
1353.91457	0.03819
1352.62881	0.03751
1351.34304	0.03687
1350.05727	0.03629
1348.77150	0.03579
1347.48573	0.03534
1346.19996	0.03491
1344.91419	0.03449
1343.62842	0.03405
1342.34266	0.03362
1341.05689	0.03322
1339.77112	0.03287
1338.48535	0.03253
1337.19958	0.03217
1335.91381	0.03179
1334.62804	0.03141
1333.34227	0.03109
1332.05650	0.03080
1330.77074	0.03051
1329.48497	0.03019
1328.19920	0.02985
1326.91343	0.02955
1325.62766	0.02931
1324.34189	0.02914
1323.05612	0.02897
1321.77035	0.02875
1320.48459	0.02847
1319.19882	0.02817
1317.91305	0.02790
1316.62728	0.02768
1315.34151	0.02752
1314.05574	0.02737
1312.76997	0.02723
1311.48420	0.02708
1310.19843	0.02694
1308.91267	0.02677
1307.62690	0.02655
1306.34113	0.02629
1305.05536	0.02600
1303.76959	0.02575
1302.48382	0.02555
1301.19805	0.02539
1299.91228	0.02524
1298.62652	0.02508
1297.34075	0.02491
1296.05498	0.02474
1294.76921	0.02457
1293.48344	0.02442
1292.19767	0.02431
1290.91190	0.02426
1289.62613	0.02423
1288.34036	0.02417
1287.05460	0.02405
1285.76883	0.02390
1284.48306	0.02376
1283.19729	0.02366
1281.91152	0.02358
1280.62575	0.02348
1279.33998	0.02339
1278.05421	0.02333
1276.76845	0.02328
1275.48268	0.02322
1274.19691	0.02313
1272.91114	0.02301
1271.62537	0.02288
1270.33960	0.02277
1269.05383	0.02270
1267.76806	0.02266
1266.48229	0.02261
1265.19653	0.02256
1263.91076	0.02253
1262.62499	0.02254
1261.33922	0.02258
1260.05345	0.02256
1258.76768	0.02247
1257.48191	0.02232
1256.19614	0.02219
1254.91037	0.02211
1253.62461	0.02208
1252.33884	0.02205
1251.05307	0.02201
1249.76730	0.02196
1248.48153	0.02190
1247.19576	0.02183
1245.90999	0.02175
1244.62422	0.02168
1243.33846	0.02164
1242.05269	0.02160
1240.76692	0.02156
1239.48115	0.02149
1238.19538	0.02140
1236.90961	0.02129
1235.62384	0.02115
1234.33807	0.02103
1233.05230	0.02094
1231.76654	0.02087
1230.48077	0.02080
1229.19500	0.02071
1227.90923	0.02060
1226.62346	0.02048
1225.33769	0.02035
1224.05192	0.02022
1222.76615	0.02009
1221.48039	0.01997
1220.19462	0.01986
1218.90885	0.01974
1217.62308	0.01963
1216.33731	0.01953
1215.05154	0.01944
1213.76577	0.01938
1212.48000	0.01935
1211.19423	0.01935
1209.90847	0.01937
1208.62270	0.01939
1207.33693	0.01940
1206.05116	0.01938
1204.76539	0.01933
1203.47962	0.01930
1202.19385	0.01929
1200.90808	0.01926
1199.62232	0.01913
1198.33655	0.01911
1197.05078	0.01905
1195.76501	0.01897
1194.47924	0.01890
1193.19347	0.01885
1191.90770	0.01883
1190.62193	0.01883
1189.33616	0.01884
1188.05040	0.01885
1186.76463	0.01889
1185.47886	0.01893
1184.19309	0.01893
1182.90732	0.01888
1181.62155	0.01883
1180.33578	0.01882
1179.05001	0.01888
1177.76425	0.01896
1176.47848	0.01902
1175.19271	0.01904
1173.90694	0.01903
1172.62117	0.01907
1171.33540	0.01918
1170.04963	0.01937
1168.76386	0.01961
1167.47809	0.01987
1166.19233	0.02011
1164.90656	0.02028
1163.62079	0.02040
1162.33502	0.02053
1161.04925	0.02071
1159.76348	0.02095
1158.47771	0.02119
1157.19194	0.02142
1155.90618	0.02161
1154.62041	0.02178
1153.33464	0.02195
1152.04887	0.02216
1150.76310	0.02245
1149.47733	0.02283
1148.19156	0.02329
1146.90579	0.02383
1145.62002	0.02443
1144.33426	0.02509
1143.04849	0.02579
1141.76272	0.02652
1140.47695	0.02727
1139.19118	0.02806
1137.90541	0.02896
1136.61964	0.03003
1135.33387	0.03122
1134.04811	0.03245
1132.76234	0.03375
1131.47657	0.03521
1130.19080	0.03690
1128.90503	0.03876
1127.61926	0.04072
1126.33349	0.04281
1125.04772	0.04513
1123.76195	0.04768
1122.47619	0.05035
1121.19042	0.05302
1119.90465	0.05566
1118.61888	0.05836
1117.33311	0.06117
1116.04734	0.06405
1114.76157	0.06688
1113.47580	0.06957
1112.19004	0.07209
1110.90427	0.07452
1109.61850	0.07697
1108.33273	0.07948
1107.04696	0.08203
1105.76119	0.08457
1104.47542	0.08708
1103.18965	0.08956
1101.90388	0.09194
1100.61812	0.09418
1099.33235	0.09627
1098.04658	0.09823
1096.76081	0.10014
1095.47504	0.10201
1094.18927	0.10381
1092.90350	0.10546
1091.61773	0.10698
1090.33197	0.10845
1089.04620	0.10992
1087.76043	0.11143
1086.47466	0.11297
1085.18889	0.11454
1083.90312	0.11610
1082.61735	0.11764
1081.33158	0.11921
1080.04581	0.12088
1078.76005	0.12273
1077.47428	0.12474
1076.18851	0.12684
1074.90274	0.12898
1073.61697	0.13118
1072.33120	0.13350
1071.04543	0.13594
1069.75966	0.13848
1068.47390	0.14107
1067.18813	0.14370
1065.90236	0.14637
1064.61659	0.14906
1063.33082	0.15174
1062.04505	0.15442
1060.75928	0.15711
1059.47351	0.15981
1058.18774	0.16247
1056.90198	0.16500
1055.61621	0.16741
1054.33044	0.16976
1053.04467	0.17213
1051.75890	0.17457
1050.47313	0.17708
1049.18736	0.17965
1047.90159	0.18227
1046.61583	0.18494
1045.33006	0.18766
1044.04429	0.19040
1042.75852	0.19316
1041.47275	0.19590
1040.18698	0.19861
1038.90121	0.20131
1037.61544	0.20400
1036.32967	0.20668
1035.04391	0.20935
1033.75814	0.21197
1032.47237	0.21447
1031.18660	0.21678
1029.90083	0.21882
1028.61506	0.22056
1027.32929	0.22202
1026.04352	0.22322
1024.75775	0.22420
1023.47199	0.22498
1022.18622	0.22552
1020.90045	0.22573
1019.61468	0.22554
1018.32891	0.22497
1017.04314	0.22410
1015.75737	0.22295
1014.47160	0.22149
1013.18584	0.21966
1011.90007	0.21744
1010.61430	0.21481
1009.32853	0.21178
1008.04276	0.20843
1006.75699	0.20489
1005.47122	0.20123
1004.18545	0.19740
1002.89968	0.19334
1001.61392	0.18899
1000.32815	0.18436
999.04238	0.17951
997.75661	0.17451
996.47084	0.16942
995.18507	0.16428
993.89930	0.15912
992.61353	0.15397
991.32777	0.14878
990.04200	0.14358
988.75623	0.13844
987.47046	0.13346
986.18469	0.12867
984.89892	0.12407
983.61315	0.11968
982.32738	0.11556
981.04161	0.11172
979.75585	0.10813
978.47008	0.10474
977.18431	0.10156
975.89854	0.09865
974.61277	0.09606
973.32700	0.09385
972.04123	0.09202
970.75546	0.09060
969.46970	0.08963
968.18393	0.08912
966.89816	0.08907
965.61239	0.08940
964.32662	0.08992
963.04085	0.09040
961.75508	0.09060
960.46931	0.09040
959.18354	0.08975
957.89778	0.08867
956.61201	0.08722
955.32624	0.08553
954.04047	0.08369
952.75470	0.08179
951.46893	0.07980
950.18316	0.07773
948.89739	0.07567
947.61163	0.07375
946.32586	0.07197
945.04009	0.07027
943.75432	0.06858
942.46855	0.06694
941.18278	0.06542
939.89701	0.06402
938.61124	0.06269
937.32547	0.06135
936.03971	0.06001
934.75394	0.05869
933.46817	0.05743
932.18240	0.05625
930.89663	0.05512
929.61086	0.05407
928.32509	0.05316
927.03932	0.05239
925.75356	0.05172
924.46779	0.05112
923.18202	0.05053
921.89625	0.04995
920.61048	0.04935
919.32471	0.04876
918.03894	0.04815
916.75317	0.04750
915.46740	0.04683
914.18164	0.04622
912.89587	0.04574
911.61010	0.04541
910.32433	0.04514
909.03856	0.04482
907.75279	0.04440
906.46702	0.04394
905.18125	0.04350
903.89549	0.04313
902.60972	0.04279
901.32395	0.04246
900.03818	0.04211
898.75241	0.04175
897.46664	0.04137
896.18087	0.04103
894.89510	0.04081
893.60933	0.04072
892.32357	0.04071
891.03780	0.04070
889.75203	0.04072
888.46626	0.04087
887.18049	0.04131
885.89472	0.04216
884.60895	0.04348
883.32318	0.04524
882.03742	0.04730
880.75165	0.04939
879.46588	0.05127
878.18011	0.05283
876.89434	0.05421
875.60857	0.05561
874.32280	0.05708
873.03703	0.05834
871.75126	0.05901
870.46550	0.05888
869.17973	0.05808
867.89396	0.05687
866.60819	0.05541
865.32242	0.05371
864.03665	0.05180
862.75088	0.04985
861.46511	0.04808
860.17935	0.04655
858.89358	0.04519
857.60781	0.04394
856.32204	0.04280
855.03627	0.04183
853.75050	0.04110
852.46473	0.04064
851.17896	0.04037
849.89319	0.04016
848.60743	0.03991
847.32166	0.03957
846.03589	0.03921
844.75012	0.03889
843.46435	0.03863
842.17858	0.03841
840.89281	0.03818
839.60704	0.03793
838.32128	0.03767
837.03551	0.03738
835.74974	0.03707
834.46397	0.03678
833.17820	0.03657
831.89243	0.03642
830.60666	0.03631
829.32089	0.03622
828.03512	0.03615
826.74936	0.03609
825.46359	0.03602
824.17782	0.03595
822.89205	0.03588
821.60628	0.03580
820.32051	0.03565
819.03474	0.03549
817.74897	0.03542
816.46321	0.03549
815.17744	0.03561
813.89167	0.03562
812.60590	0.03546
811.32013	0.03519
810.03436	0.03493
808.74859	0.03473
807.46282	0.03460
806.17705	0.03457
804.89129	0.03464
803.60552	0.03473
802.31975	0.03474
801.03398	0.03463
799.74821	0.03447
798.46244	0.03439
797.17667	0.03442
795.89090	0.03453
794.60513	0.03460
793.31937	0.03453
792.03360	0.03434
790.74783	0.03415
789.46206	0.03406
788.17629	0.03408
786.89052	0.03412
785.60475	0.03410
784.31898	0.03402
783.03322	0.03394
781.74745	0.03392
780.46168	0.03397
779.17591	0.03404
777.89014	0.03408
776.60437	0.03410
775.31860	0.03411
774.03283	0.03409
772.74706	0.03403
771.46130	0.03396
770.17553	0.03392
768.88976	0.03391
767.60399	0.03392
766.31822	0.03391
765.03245	0.03388
763.74668	0.03382
762.46091	0.03376
761.17515	0.03372
759.88938	0.03371
758.60361	0.03377
757.31784	0.03388
756.03207	0.03405
754.74630	0.03425
753.46053	0.03443
752.17476	0.03452
750.88899	0.03447
749.60323	0.03430
748.31746	0.03410
747.03169	0.03395
745.74592	0.03387
744.46015	0.03384
743.17438	0.03385
741.88861	0.03389
740.60284	0.03392
739.31708	0.03388
738.03131	0.03379
736.74554	0.03367
735.45977	0.03359
734.17400	0.03356
732.88823	0.03361
731.60246	0.03373
730.31669	0.03389
729.03092	0.03403
727.74516	0.03411
726.45939	0.03410
725.17362	0.03404
723.88785	0.03401
722.60208	0.03393
721.31631	0.03383
720.03054	0.03374
718.74477	0.03366
717.45901	0.03362
716.17324	0.03361
714.88747	0.03363
713.60170	0.03367
712.31593	0.03372
711.03016	0.03376
709.74439	0.03377
708.45862	0.03374
707.17285	0.03369
705.88709	0.03363
704.60132	0.03357
703.31555	0.03353
702.02978	0.03351
700.74401	0.03349
699.45824	0.03343
698.17247	0.03335
696.88670	0.03329
695.60094	0.03327
694.31517	0.03330
693.02940	0.03334
691.74363	0.03337
690.45786	0.03338
689.17209	0.03333
687.88632	0.03322
686.60055	0.03308
685.31478	0.03296
684.02902	0.03291
682.74325	0.03288
681.45748	0.03281
680.17171	0.03268
678.88594	0.03256
677.60017	0.03251
676.31440	0.03255
675.02863	0.03265
673.74287	0.03279
672.45710	0.03296
671.17133	0.03317
669.88556	0.03338
668.59979	0.03354
667.31402	0.03356
666.02825	0.03342
664.74248	0.03318
663.45671	0.03292
662.17095	0.03270
660.88518	0.03253
659.59941	0.03242
658.31364	0.03234
657.02787	0.03222
655.74210	0.03202
654.45633	0.03178
653.17056	0.03160
651.88480	0.03152
650.59903	0.03151
649.31326	0.03150
648.02749	0.03146
646.74172	0.03141
645.45595	0.03136
644.17018	0.03131
642.88441	0.03128
641.59864	0.03131
640.31288	0.03141
639.02711	0.03156
637.74134	0.03172
636.45557	0.03192
635.16980	0.03219
633.88403	0.03253
632.59826	0.03289
631.31249	0.03332
630.02673	0.03432
628.74096	0.03556
627.45519	0.03492
626.16942	0.03629
624.88365	0.03905
623.59788	0.04164
622.31211	0.04350
621.02634	0.04491
619.74057	0.04671
618.45481	0.04941
617.16904	0.05262
615.88327	0.05548
614.59750	0.05766
613.31173	0.05969
612.02596	0.06241
610.74019	0.06622
609.45442	0.07089
608.16866	0.07598
606.88289	0.08115
605.59712	0.08595
604.31135	0.08972
603.02558	0.09191
601.73981	0.09251
600.45404	0.09193
599.16827	0.09057
597.88250	0.08868
596.59674	0.08640
595.31097	0.08395
594.02520	0.08165
592.73943	0.07977
591.45366	0.07840
590.16789	0.07747
588.88212	0.07697
587.59635	0.07701
586.31059	0.07764
585.02482	0.07878
583.73905	0.08026
582.45328	0.08200
581.16751	0.08401
579.88174	0.08623
578.59597	0.08848
577.31020	0.09060
576.02443	0.09255
574.73867	0.09441
573.45290	0.09622
572.16713	0.09802
570.88136	0.09992
569.59559	0.10220
568.30982	0.10502
567.02405	0.10828
565.73828	0.11160
564.45251	0.11444
563.16675	0.11633
561.88098	0.11696
560.59521	0.11632
559.30944	0.11456
558.02367	0.11188
556.73790	0.10839
555.45213	0.10424
554.16636	0.09968
552.88060	0.09496
551.59483	0.09031
550.30906	0.08585
549.02329	0.08172
547.73752	0.07803
546.45175	0.07481
545.16598	0.07200
543.88021	0.06949
542.59444	0.06717
541.30868	0.06495
540.02291	0.06281
538.73714	0.06080
537.45137	0.05897
536.16560	0.05733
534.87983	0.05583
533.59406	0.05444
532.30829	0.05316
531.02253	0.05198
529.73676	0.05083
528.45099	0.04972
527.16522	0.04865
525.87945	0.04763
524.59368	0.04662
523.30791	0.04558
522.02214	0.04456
520.73637	0.04366
519.45061	0.04296
518.16484	0.04244
516.87907	0.04198
515.59330	0.04146
514.30753	0.04084
513.02176	0.04017
511.73599	0.03952
510.45022	0.03893
509.16446	0.03834
507.87869	0.03774
506.59292	0.03712
505.30715	0.03650
504.02138	0.03595
502.73561	0.03548
501.44984	0.03510
500.16407	0.03478
498.87830	0.03449
497.59254	0.03418
496.30677	0.03387
495.02100	0.03354
493.73523	0.03319
492.44946	0.03281
491.16369	0.03245
489.87792	0.03214
488.59215	0.03189
487.30639	0.03168
486.02062	0.03151
484.73485	0.03137
483.44908	0.03125
482.16331	0.03115
480.87754	0.03110
479.59177	0.03110
478.30600	0.03114
477.02023	0.03121
475.73447	0.03129
474.44870	0.03140
473.16293	0.03152
471.87716	0.03164
470.59139	0.03173
469.30562	0.03177
468.01985	0.03175
466.73408	0.03163
465.44832	0.03138
464.16255	0.03096
462.87678	0.03044
461.59101	0.02996
460.30524	0.02962
459.01947	0.02940
457.73370	0.02920
456.44793	0.02895
455.16216	0.02863
453.87640	0.02827
452.59063	0.02793
451.30486	0.02766
450.01909	0.02743
448.73332	0.02725
447.44755	0.02709
446.16178	0.02693
444.87601	0.02678
443.59025	0.02662
442.30448	0.02645
441.01871	0.02623
439.73294	0.02597
438.44717	0.02569
437.16140	0.02548
435.87563	0.02537
434.58986	0.02537
433.30409	0.02540
432.01833	0.02546
430.73256	0.02551
429.44679	0.02555
428.16102	0.02555
426.87525	0.02548
425.58948	0.02539
424.30371	0.02531
423.01794	0.02527
421.73218	0.02526
420.44641	0.02521
419.16064	0.02511
417.87487	0.02498
416.58910	0.02485
415.30333	0.02474
414.01756	0.02468
412.73179	0.02465
411.44602	0.02464
410.16026	0.02464
408.87449	0.02464
407.58872	0.02465
406.30295	0.02468
405.01718	0.02474
403.73141	0.02485
402.44564	0.02496
401.15987	0.02501
399.87411	0.02500
