3997.45528	0.05579
3996.16951	0.05556
3994.88374	0.05520
3993.59798	0.05472
3992.31221	0.05426
3991.02644	0.05395
3989.74067	0.05395
3988.45490	0.05429
3987.16913	0.05483
3985.88336	0.05532
3984.59759	0.05563
3983.31183	0.05579
3982.02606	0.05598
3980.74029	0.05634
3979.45452	0.05680
3978.16875	0.05706
3976.88298	0.05685
3975.59721	0.05626
3974.31144	0.05569
3973.02567	0.05552
3971.73991	0.05578
3970.45414	0.05617
3969.16837	0.05640
3967.88260	0.05643
3966.59683	0.05638
3965.31106	0.05636
3964.02529	0.05632
3962.73952	0.05614
3961.45376	0.05579
3960.16799	0.05536
3958.88222	0.05491
3957.59645	0.05448
3956.31068	0.05420
3955.02491	0.05434
3953.73914	0.05508
3952.45337	0.05617
3951.16760	0.05708
3949.88184	0.05740
3948.59607	0.05723
3947.31030	0.05703
3946.02453	0.05722
3944.73876	0.05781
3943.45299	0.05852
3942.16722	0.05895
3940.88145	0.05891
3939.59569	0.05851
3938.30992	0.05802
3937.02415	0.05753
3935.73838	0.05689
3934.45261	0.05594
3933.16684	0.05489
3931.88107	0.05418
3930.59530	0.05407
3929.30953	0.05443
3928.02377	0.05490
3926.73800	0.05529
3925.45223	0.05563
3924.16646	0.05601
3922.88069	0.05650
3921.59492	0.05703
3920.30915	0.05734
3919.02338	0.05707
3917.73762	0.05611
3916.45185	0.05487
3915.16608	0.05402
3913.88031	0.05400
3912.59454	0.05467
3911.30877	0.05550
3910.02300	0.05603
3908.73723	0.05610
3907.45146	0.05592
3906.16570	0.05580
3904.87993	0.05581
3903.59416	0.05579
3902.30839	0.05553
3901.02262	0.05512
3899.73685	0.05482
3898.45108	0.05472
3897.16531	0.05465
3895.87955	0.05437
3894.59378	0.05397
3893.30801	0.05373
3892.02224	0.05390
3890.73647	0.05435
3889.45070	0.05483
3888.16493	0.05504
3886.87916	0.05482
3885.59339	0.05409
3884.30763	0.05301
3883.02186	0.05190
3881.73609	0.05112
3880.45032	0.05082
3879.16455	0.05099
3877.87878	0.05150
3876.59301	0.05211
3875.30724	0.05252
3874.02148	0.05249
3872.73571	0.05208
3871.44994	0.05176
3870.16417	0.05207
3868.87840	0.05308
3867.59263	0.05427
3866.30686	0.05496
3865.02109	0.05493
3863.73532	0.05443
3862.44956	0.05380
3861.16379	0.05318
3859.87802	0.05265
3858.59225	0.05235
3857.30648	0.05245
3856.02071	0.05289
3854.73494	0.05334
3853.44917	0.05342
3852.16341	0.05300
3850.87764	0.05229
3849.59187	0.05164
3848.30610	0.05133
3847.02033	0.05154
3845.73456	0.05222
3844.44879	0.05303
3843.16302	0.05345
3841.87725	0.05318
3840.59149	0.05240
3839.30572	0.05163
3838.01995	0.05132
3836.73418	0.05157
3835.44841	0.05219
3834.16264	0.05289
3832.87687	0.05352
3831.59110	0.05407
3830.30534	0.05455
3829.01957	0.05487
3827.73380	0.05482
3826.44803	0.05434
3825.16226	0.05369
3823.87649	0.05325
3822.59072	0.05309
3821.30495	0.05287
3820.01918	0.05235
3818.73342	0.05169
3817.44765	0.05118
3816.16188	0.05095
3814.87611	0.05086
3813.59034	0.05083
3812.30457	0.05085
3811.01880	0.05101
3809.73303	0.05127
3808.44726	0.05158
3807.16150	0.05185
3805.87573	0.05202
3804.58996	0.05203
3803.30419	0.05177
3802.01842	0.05123
3800.73265	0.05062
3799.44688	0.05032
3798.16111	0.05057
3796.87535	0.05113
3795.58958	0.05143
3794.30381	0.05110
3793.01804	0.05026
3791.73227	0.04940
3790.44650	0.04889
3789.16073	0.04874
3787.87496	0.04871
3786.58919	0.04859
3785.30343	0.04836
3784.01766	0.04817
3782.73189	0.04829
3781.44612	0.04885
3780.16035	0.04970
3778.87458	0.05047
3777.58881	0.05082
3776.30304	0.05073
3775.01728	0.05049
3773.73151	0.05042
3772.44574	0.05067
3771.15997	0.05118
3769.87420	0.05167
3768.58843	0.05185
3767.30266	0.05163
3766.01689	0.05118
3764.73112	0.05077
3763.44536	0.05044
3762.15959	0.04995
3760.87382	0.04914
3759.58805	0.04813
3758.30228	0.04731
3757.01651	0.04696
3755.73074	0.04706
3754.44497	0.04728
3753.15921	0.04738
3751.87344	0.04738
3750.58767	0.04746
3749.30190	0.04776
3748.01613	0.04835
3746.73036	0.04912
3745.44459	0.04978
3744.15882	0.04999
3742.87305	0.04975
3741.58729	0.04931
3740.30152	0.04893
3739.01575	0.04865
3737.72998	0.04846
3736.44421	0.04849
3735.15844	0.04876
3733.87267	0.04897
3732.58690	0.04878
3731.30114	0.04811
3730.01537	0.04727
3728.72960	0.04664
3727.44383	0.04639
3726.15806	0.04659
3724.87229	0.04725
3723.58652	0.04828
3722.30075	0.04940
3721.01498	0.05027
3719.72922	0.05065
3718.44345	0.05054
3717.15768	0.05015
3715.87191	0.04977
3714.58614	0.04957
3713.30037	0.04951
3712.01460	0.04945
3710.72883	0.04941
3709.44307	0.04943
3708.15730	0.04942
3706.87153	0.04902
3705.58576	0.04798
3704.29999	0.04656
3703.01422	0.04546
3701.72845	0.04520
3700.44268	0.04565
3699.15691	0.04623
3697.87115	0.04657
3696.58538	0.04690
3695.29961	0.04773
3694.01384	0.04913
3692.72807	0.05046
3691.44230	0.05100
3690.15653	0.05055
3688.87076	0.04946
3687.58500	0.04836
3686.29923	0.04765
3685.01346	0.04735
3683.72769	0.04728
3682.44192	0.04730
3681.15615	0.04733
3679.87038	0.04724
3678.58461	0.04688
3677.29884	0.04624
3676.01308	0.04564
3674.72731	0.04555
3673.44154	0.04626
3672.15577	0.04764
3670.87000	0.04899
3669.58423	0.04953
3668.29846	0.04897
3667.01269	0.04785
3665.72693	0.04709
3664.44116	0.04719
3663.15539	0.04791
3661.86962	0.04854
3660.58385	0.04857
3659.29808	0.04801
3658.01231	0.04725
3656.72654	0.04665
3655.44077	0.04639
3654.15501	0.04656
3652.86924	0.04721
3651.58347	0.04821
3650.29770	0.04934
3649.01193	0.05041
3647.72616	0.05126
3646.44039	0.05172
3645.15462	0.05164
3643.86886	0.05113
3642.58309	0.05043
3641.29732	0.04969
3640.01155	0.04897
3638.72578	0.04854
3637.44001	0.04878
3636.15424	0.04982
3634.86847	0.05125
3633.58270	0.05243
3632.29694	0.05295
3631.01117	0.05284
3629.72540	0.05245
3628.43963	0.05226
3627.15386	0.05258
3625.86809	0.05343
3624.58232	0.05453
3623.29655	0.05559
3622.01079	0.05648
3620.72502	0.05710
3619.43925	0.05728
3618.15348	0.05691
3616.86771	0.05618
3615.58194	0.05554
3614.29617	0.05542
3613.01040	0.05585
3611.72463	0.05645
3610.43887	0.05676
3609.15310	0.05657
3607.86733	0.05609
3606.58156	0.05578
3605.29579	0.05599
3604.01002	0.05663
3602.72425	0.05729
3601.43848	0.05762
3600.15272	0.05767
3598.86695	0.05782
3597.58118	0.05834
3596.29541	0.05910
3595.00964	0.05979
3593.72387	0.06028
3592.43810	0.06061
3591.15233	0.06081
3589.86656	0.06085
3588.58080	0.06073
3587.29503	0.06057
3586.00926	0.06054
3584.72349	0.06071
3583.43772	0.06094
3582.15195	0.06108
3580.86618	0.06125
3579.58041	0.06165
3578.29464	0.06220
3577.00888	0.06256
3575.72311	0.06249
3574.43734	0.06218
3573.15157	0.06207
3571.86580	0.06246
3570.58003	0.06330
3569.29426	0.06422
3568.00849	0.06486
3566.72273	0.06498
3565.43696	0.06465
3564.15119	0.06421
3562.86542	0.06404
3561.57965	0.06433
3560.29388	0.06494
3559.00811	0.06566
3557.72234	0.06629
3556.43657	0.06673
3555.15081	0.06686
3553.86504	0.06667
3552.57927	0.06642
3551.29350	0.06652
3550.00773	0.06720
3548.72196	0.06820
3547.43619	0.06898
3546.15042	0.06914
3544.86466	0.06881
3543.57889	0.06849
3542.29312	0.06864
3541.00735	0.06919
3539.72158	0.06965
3538.43581	0.06968
3537.15004	0.06951
3535.86427	0.06974
3534.57850	0.07058
3533.29274	0.07166
3532.00697	0.07241
3530.72120	0.07269
3529.43543	0.07277
3528.14966	0.07294
3526.86389	0.07331
3525.57812	0.07375
3524.29235	0.07409
3523.00659	0.07414
3521.72082	0.07387
3520.43505	0.07348
3519.14928	0.07327
3517.86351	0.07339
3516.57774	0.07372
3515.29197	0.07409
3514.00620	0.07448
3512.72043	0.07490
3511.43467	0.07528
3510.14890	0.07546
3508.86313	0.07544
3507.57736	0.07536
3506.29159	0.07538
3505.00582	0.07551
3503.72005	0.07566
3502.43428	0.07583
3501.14852	0.07609
3499.86275	0.07648
3498.57698	0.07696
3497.29121	0.07750
3496.00544	0.07820
3494.71967	0.07906
3493.43390	0.07993
3492.14813	0.08057
3490.86236	0.08081
3489.57660	0.08064
3488.29083	0.08023
3487.00506	0.07982
3485.71929	0.07967
3484.43352	0.07981
3483.14775	0.08003
3481.86198	0.08018
3480.57621	0.08036
3479.29045	0.08078
3478.00468	0.08140
3476.71891	0.08186
3475.43314	0.08197
3474.14737	0.08191
3472.86160	0.08201
3471.57583	0.08229
3470.29006	0.08250
3469.00429	0.08255
3467.71853	0.08262
3466.43276	0.08295
3465.14699	0.08349
3463.86122	0.08402
3462.57545	0.08444
3461.28968	0.08485
3460.00391	0.08533
3458.71814	0.08576
3457.43238	0.08578
3456.14661	0.08525
3454.86084	0.08440
3453.57507	0.08374
3452.28930	0.08360
3451.00353	0.08394
3449.71776	0.08444
3448.43199	0.08482
3447.14622	0.08498
3445.86046	0.08504
3444.57469	0.08521
3443.28892	0.08560
3442.00315	0.08615
3440.71738	0.08671
3439.43161	0.08714
3438.14584	0.08735
3436.86007	0.08735
3435.57431	0.08720
3434.28854	0.08701
3433.00277	0.08690
3431.71700	0.08687
3430.43123	0.08688
3429.14546	0.08691
3427.85969	0.08702
3426.57392	0.08730
3425.28815	0.08784
3424.00239	0.08852
3422.71662	0.08897
3421.43085	0.08885
3420.14508	0.08822
3418.85931	0.08764
3417.57354	0.08765
3416.28777	0.08830
3415.00200	0.08910
3413.71624	0.08960
3412.43047	0.08973
3411.14470	0.08975
3409.85893	0.08989
3408.57316	0.09017
3407.28739	0.09047
3406.00162	0.09069
3404.71585	0.09085
3403.43008	0.09102
3402.14432	0.09126
3400.85855	0.09153
3399.57278	0.09179
3398.28701	0.09202
3397.00124	0.09216
3395.71547	0.09212
3394.42970	0.09184
3393.14393	0.09148
3391.85817	0.09129
3390.57240	0.09141
3389.28663	0.09173
3388.00086	0.09206
3386.71509	0.09235
3385.42932	0.09255
3384.14355	0.09265
3382.85778	0.09264
3381.57201	0.09267
3380.28625	0.09290
3379.00048	0.09335
3377.71471	0.09382
3376.42894	0.09419
3375.14317	0.09450
3373.85740	0.09484
3372.57163	0.09518
3371.28586	0.09538
3370.00010	0.09538
3368.71433	0.09525
3367.42856	0.09501
3366.14279	0.09461
3364.85702	0.09410
3363.57125	0.09367
3362.28548	0.09356
3360.99971	0.09384
3359.71394	0.09429
3358.42818	0.09453
3357.14241	0.09429
3355.85664	0.09374
3354.57087	0.09340
3353.28510	0.09362
3351.99933	0.09425
3350.71356	0.09471
3349.42779	0.09464
3348.14202	0.09408
3346.85626	0.09346
3345.57049	0.09311
3344.28472	0.09315
3342.99895	0.09342
3341.71318	0.09368
3340.42741	0.09378
3339.14164	0.09377
3337.85587	0.09380
3336.57011	0.09398
3335.28434	0.09435
3333.99857	0.09480
3332.71280	0.09515
3331.42703	0.09520
3330.14126	0.09495
3328.85549	0.09459
3327.56972	0.09445
3326.28395	0.09472
3324.99819	0.09524
3323.71242	0.09561
3322.42665	0.09553
3321.14088	0.09506
3319.85511	0.09460
3318.56934	0.09446
3317.28357	0.09464
3315.99780	0.09489
3314.71204	0.09497
3313.42627	0.09480
3312.14050	0.09449
3310.85473	0.09423
3309.56896	0.09408
3308.28319	0.09403
3306.99742	0.09403
3305.71165	0.09405
3304.42588	0.09401
3303.14012	0.09393
3301.85435	0.09396
3300.56858	0.09430
3299.28281	0.09501
3297.99704	0.09585
3296.71127	0.09648
3295.42550	0.09667
3294.13973	0.09650
3292.85397	0.09628
3291.56820	0.09617
3290.28243	0.09618
3288.99666	0.09623
3287.71089	0.09625
3286.42512	0.09617
3285.13935	0.09585
3283.85358	0.09526
3282.56781	0.09453
3281.28205	0.09389
3279.99628	0.09354
3278.71051	0.09358
3277.42474	0.09398
3276.13897	0.09462
3274.85320	0.09526
3273.56743	0.09551
3272.28166	0.09513
3270.99590	0.09421
3269.71013	0.09325
3268.42436	0.09274
3267.13859	0.09282
3265.85282	0.09326
3264.56705	0.09375
3263.28128	0.09404
3261.99551	0.09399
3260.70974	0.09365
3259.42398	0.09319
3258.13821	0.09282
3256.85244	0.09266
3255.56667	0.09270
3254.28090	0.09288
3252.99513	0.09304
3251.70936	0.09300
3250.42359	0.09274
3249.13783	0.09250
3247.85206	0.09247
3246.56629	0.09263
3245.28052	0.09279
3243.99475	0.09280
3242.70898	0.09273
3241.42321	0.09270
3240.13744	0.09269
3238.85167	0.09254
3237.56591	0.09207
3236.28014	0.09126
3234.99437	0.09036
3233.70860	0.08977
3232.42283	0.08976
3231.13706	0.09025
3229.85129	0.09083
3228.56552	0.09108
3227.27976	0.09093
3225.99399	0.09072
3224.70822	0.09071
3223.42245	0.09081
3222.13668	0.09071
3220.85091	0.09031
3219.56514	0.08987
3218.27937	0.08973
3216.99360	0.08997
3215.70784	0.09032
3214.42207	0.09040
3213.13630	0.09010
3211.85053	0.08969
3210.56476	0.08956
3209.27899	0.08980
3207.99322	0.09015
3206.70745	0.09021
3205.42169	0.08987
3204.13592	0.08939
3202.85015	0.08910
3201.56438	0.08910
3200.27861	0.08924
3198.99284	0.08928
3197.70707	0.08909
3196.42130	0.08872
3195.13553	0.08832
3193.84977	0.08802
3192.56400	0.08783
3191.27823	0.08769
3189.99246	0.08756
3188.70669	0.08750
3187.42092	0.08752
3186.13515	0.08755
3184.84938	0.08741
3183.56362	0.08702
3182.27785	0.08647
3180.99208	0.08597
3179.70631	0.08564
3178.42054	0.08541
3177.13477	0.08511
3175.84900	0.08477
3174.56323	0.08462
3173.27746	0.08476
3171.99170	0.08495
3170.70593	0.08486
3169.42016	0.08446
3168.13439	0.08409
3166.84862	0.08407
3165.56285	0.08435
3164.27708	0.08456
3162.99131	0.08451
3161.70555	0.08433
3160.41978	0.08433
3159.13401	0.08459
3157.84824	0.08492
3156.56247	0.08505
3155.27670	0.08485
3153.99093	0.08436
3152.70516	0.08369
3151.41939	0.08294
3150.13363	0.08225
3148.84786	0.08182
3147.56209	0.08184
3146.27632	0.08222
3144.99055	0.08260
3143.70478	0.08270
3142.41901	0.08258
3141.13324	0.08253
3139.84748	0.08264
3138.56171	0.08272
3137.27594	0.08248
3135.99017	0.08180
3134.70440	0.08082
3133.41863	0.07990
3132.13286	0.07937
3130.84709	0.07937
3129.56132	0.07976
3128.27556	0.08021
3126.98979	0.08042
3125.70402	0.08029
3124.41825	0.07999
3123.13248	0.07972
3121.84671	0.07956
3120.56094	0.07946
3119.27517	0.07940
3117.98940	0.07937
3116.70364	0.07936
3115.41787	0.07931
3114.13210	0.07921
3112.84633	0.07915
3111.56056	0.07917
3110.27479	0.07925
3108.98902	0.07928
3107.70325	0.07918
3106.41749	0.07902
3105.13172	0.07893
3103.84595	0.07896
3102.56018	0.07897
3101.27441	0.07880
3099.98864	0.07847
3098.70287	0.07817
3097.41710	0.07798
3096.13133	0.07780
3094.84557	0.07753
3093.55980	0.07726
3092.27403	0.07723
3090.98826	0.07748
3089.70249	0.07782
3088.41672	0.07798
3087.13095	0.07782
3085.84518	0.07746
3084.55942	0.07710
3083.27365	0.07692
3081.98788	0.07697
3080.70211	0.07719
3079.41634	0.07744
3078.13057	0.07753
3076.84480	0.07738
3075.55903	0.07707
3074.27326	0.07676
3072.98750	0.07649
3071.70173	0.07621
3070.41596	0.07595
3069.13019	0.07585
3067.84442	0.07598
3066.55865	0.07622
3065.27288	0.07637
3063.98711	0.07632
3062.70135	0.07607
3061.41558	0.07573
3060.12981	0.07540
3058.84404	0.07524
3057.55827	0.07528
3056.27250	0.07547
3054.98673	0.07570
3053.70096	0.07585
3052.41519	0.07582
3051.12943	0.07550
3049.84366	0.07500
3048.55789	0.07452
3047.27212	0.07426
3045.98635	0.07418
3044.70058	0.07414
3043.41481	0.07407
3042.12904	0.07397
3040.84328	0.07381
3039.55751	0.07351
3038.27174	0.07311
3036.98597	0.07275
3035.70020	0.07252
3034.41443	0.07241
3033.12866	0.07229
3031.84289	0.07207
3030.55712	0.07175
3029.27136	0.07141
3027.98559	0.07115
3026.69982	0.07100
3025.41405	0.07084
3024.12828	0.07057
3022.84251	0.07023
3021.55674	0.07004
3020.27097	0.07017
3018.98521	0.07059
3017.69944	0.07103
3016.41367	0.07124
3015.12790	0.07116
3013.84213	0.07095
3012.55636	0.07072
3011.27059	0.07049
3009.98482	0.07030
3008.69905	0.07020
3007.41329	0.07016
3006.12752	0.07010
3004.84175	0.06996
3003.55598	0.06980
3002.27021	0.06969
3000.98444	0.06965
2999.69867	0.06961
2998.41290	0.06951
2997.12714	0.06935
2995.84137	0.06919
2994.55560	0.06908
2993.26983	0.06909
2991.98406	0.06926
2990.69829	0.06956
2989.41252	0.06991
2988.12675	0.07022
2986.84098	0.07038
2985.55522	0.07031
2984.26945	0.07003
2982.98368	0.06971
2981.69791	0.06958
2980.41214	0.06975
2979.12637	0.07016
2977.84060	0.07067
2976.55483	0.07122
2975.26907	0.07179
2973.98330	0.07232
2972.69753	0.07275
2971.41176	0.07301
2970.12599	0.07319
2968.84022	0.07349
2967.55445	0.07407
2966.26868	0.07492
2964.98291	0.07583
2963.69715	0.07663
2962.41138	0.07729
2961.12561	0.07787
2959.83984	0.07840
2958.55407	0.07886
2957.26830	0.07919
2955.98253	0.07941
2954.69676	0.07951
2953.41100	0.07948
2952.12523	0.07934
2950.83946	0.07911
2949.55369	0.07885
2948.26792	0.07861
2946.98215	0.07850
2945.69638	0.07862
2944.41061	0.07898
2943.12484	0.07936
2941.83908	0.07952
2940.55331	0.07938
2939.26754	0.07920
2937.98177	0.07921
2936.69600	0.07947
2935.41023	0.07990
2934.12446	0.08045
2932.83869	0.08106
2931.55293	0.08167
2930.26716	0.08213
2928.98139	0.08239
2927.69562	0.08250
2926.40985	0.08262
2925.12408	0.08288
2923.83831	0.08323
2922.55254	0.08350
2921.26677	0.08353
2919.98101	0.08329
2918.69524	0.08282
2917.40947	0.08216
2916.12370	0.08140
2914.83793	0.08064
2913.55216	0.07992
2912.26639	0.07923
2910.98062	0.07855
2909.69486	0.07784
2908.40909	0.07714
2907.12332	0.07650
2905.83755	0.07601
2904.55178	0.07572
2903.26601	0.07559
2901.98024	0.07551
2900.69447	0.07530
2899.40870	0.07485
2898.12294	0.07422
2896.83717	0.07360
2895.55140	0.07312
2894.26563	0.07281
2892.97986	0.07255
2891.69409	0.07229
2890.40832	0.07203
2889.12255	0.07183
2887.83678	0.07170
2886.55102	0.07156
2885.26525	0.07130
2883.97948	0.07094
2882.69371	0.07066
2881.40794	0.07065
2880.12217	0.07090
2878.83640	0.07117
2877.55063	0.07124
2876.26487	0.07108
2874.97910	0.07084
2873.69333	0.07066
2872.40756	0.07056
2871.12179	0.07053
2869.83602	0.07058
2868.55025	0.07073
2867.26448	0.07090
2865.97871	0.07097
2864.69295	0.07083
2863.40718	0.07056
2862.12141	0.07038
2860.83564	0.07039
2859.54987	0.07051
2858.26410	0.07061
2856.97833	0.07063
2855.69256	0.07055
2854.40680	0.07029
2853.12103	0.06981
2851.83526	0.06922
2850.54949	0.06867
2849.26372	0.06820
2847.97795	0.06774
2846.69218	0.06722
2845.40641	0.06664
2844.12064	0.06601
2842.83488	0.06539
2841.54911	0.06482
2840.26334	0.06426
2838.97757	0.06368
2837.69180	0.06313
2836.40603	0.06272
2835.12026	0.06250
2833.83449	0.06241
2832.54873	0.06227
2831.26296	0.06193
2829.97719	0.06139
2828.69142	0.06075
2827.40565	0.06013
2826.11988	0.05960
2824.83411	0.05925
2823.54834	0.05909
2822.26257	0.05906
2820.97681	0.05906
2819.69104	0.05908
2818.40527	0.05913
2817.11950	0.05915
2815.83373	0.05897
2814.54796	0.05849
2813.26219	0.05785
2811.97642	0.05735
2810.69066	0.05716
2809.40489	0.05723
2808.11912	0.05735
2806.83335	0.05739
2805.54758	0.05736
2804.26181	0.05731
2802.97604	0.05725
2801.69027	0.05718
2800.40450	0.05706
2799.11874	0.05685
2797.83297	0.05658
2796.54720	0.05635
2795.26143	0.05618
2793.97566	0.05605
2792.68989	0.05596
2791.40412	0.05596
2790.11835	0.05604
2788.83259	0.05611
2787.54682	0.05601
2786.26105	0.05576
2784.97528	0.05548
2783.68951	0.05529
2782.40374	0.05521
2781.11797	0.05522
2779.83220	0.05530
2778.54643	0.05537
2777.26067	0.05534
2775.97490	0.05516
2774.68913	0.05488
2773.40336	0.05457
2772.11759	0.05426
2770.83182	0.05397
2769.54605	0.05375
2768.26028	0.05365
2766.97452	0.05366
2765.68875	0.05370
2764.40298	0.05373
2763.11721	0.05372
2761.83144	0.05370
2760.54567	0.05364
2759.25990	0.05350
2757.97413	0.05327
2756.68836	0.05301
2755.40260	0.05284
2754.11683	0.05283
2752.83106	0.05298
2751.54529	0.05319
2750.25952	0.05335
2748.97375	0.05335
2747.68798	0.05316
2746.40221	0.05287
2745.11645	0.05262
2743.83068	0.05250
2742.54491	0.05248
2741.25914	0.05250
2739.97337	0.05249
2738.68760	0.05249
2737.40183	0.05252
2736.11606	0.05256
2734.83029	0.05251
2733.54453	0.05230
2732.25876	0.05196
2730.97299	0.05157
2729.68722	0.05132
2728.40145	0.05133
2727.11568	0.05158
2725.82991	0.05182
2724.54414	0.05179
2723.25838	0.05142
2721.97261	0.05095
2720.68684	0.05065
2719.40107	0.05063
2718.11530	0.05075
2716.82953	0.05081
2715.54376	0.05071
2714.25799	0.05047
2712.97222	0.05016
2711.68646	0.04990
2710.40069	0.04980
2709.11492	0.04987
2707.82915	0.04999
2706.54338	0.05003
2705.25761	0.05002
2703.97184	0.05004
2702.68607	0.05006
2701.40031	0.05000
2700.11454	0.04991
2698.82877	0.04986
2697.54300	0.04979
2696.25723	0.04961
2694.97146	0.04934
2693.68569	0.04910
2692.39992	0.04895
2691.11415	0.04884
2689.82839	0.04866
2688.54262	0.04843
2687.25685	0.04826
2685.97108	0.04823
2684.68531	0.04833
2683.39954	0.04849
2682.11377	0.04867
2680.82800	0.04887
2679.54224	0.04904
2678.25647	0.04912
2676.97070	0.04908
2675.68493	0.04895
2674.39916	0.04873
2673.11339	0.04844
2671.82762	0.04811
2670.54185	0.04781
2669.25608	0.04764
2667.97032	0.04764
2666.68455	0.04778
2665.39878	0.04795
2664.11301	0.04802
2662.82724	0.04795
2661.54147	0.04776
2660.25570	0.04758
2658.96993	0.04747
2657.68417	0.04741
2656.39840	0.04734
2655.11263	0.04727
2653.82686	0.04724
2652.54109	0.04718
2651.25532	0.04695
2649.96955	0.04651
2648.68378	0.04604
2647.39801	0.04570
2646.11225	0.04549
2644.82648	0.04530
2643.54071	0.04512
2642.25494	0.04495
2640.96917	0.04477
2639.68340	0.04452
2638.39763	0.04427
2637.11186	0.04413
2635.82609	0.04405
2634.54033	0.04394
2633.25456	0.04380
2631.96879	0.04370
2630.68302	0.04367
2629.39725	0.04368
2628.11148	0.04372
2626.82571	0.04380
2625.53994	0.04388
2624.25418	0.04385
2622.96841	0.04372
2621.68264	0.04347
2620.39687	0.04306
2619.11110	0.04242
2617.82533	0.04168
2616.53956	0.04113
2615.25379	0.04106
2613.96802	0.04146
2612.68226	0.04206
2611.39649	0.04245
2610.11072	0.04243
2608.82495	0.04207
2607.53918	0.04158
2606.25341	0.04115
2604.96764	0.04086
2603.68187	0.04075
2602.39611	0.04089
2601.11034	0.04122
2599.82457	0.04146
2598.53880	0.04131
2597.25303	0.04076
2595.96726	0.04017
2594.68149	0.03987
2593.39572	0.03994
2592.10995	0.04017
2590.82419	0.04027
2589.53842	0.04013
2588.25265	0.03983
2586.96688	0.03956
2585.68111	0.03936
2584.39534	0.03916
2583.10957	0.03899
2581.82380	0.03897
2580.53804	0.03912
2579.25227	0.03926
2577.96650	0.03926
2576.68073	0.03916
2575.39496	0.03915
2574.10919	0.03927
2572.82342	0.03940
2571.53765	0.03940
2570.25188	0.03924
2568.96612	0.03890
2567.68035	0.03836
2566.39458	0.03776
2565.10881	0.03736
2563.82304	0.03730
2562.53727	0.03739
2561.25150	0.03738
2559.96573	0.03727
2558.67997	0.03722
2557.39420	0.03727
2556.10843	0.03737
2554.82266	0.03747
2553.53689	0.03756
2552.25112	0.03759
2550.96535	0.03751
2549.67958	0.03735
2548.39381	0.03712
2547.10805	0.03681
2545.82228	0.03651
2544.53651	0.03641
2543.25074	0.03662
2541.96497	0.03704
2540.67920	0.03740
2539.39343	0.03751
2538.10766	0.03731
2536.82190	0.03689
2535.53613	0.03642
2534.25036	0.03611
2532.96459	0.03611
2531.67882	0.03638
2530.39305	0.03668
2529.10728	0.03678
2527.82151	0.03665
2526.53574	0.03635
2525.24998	0.03595
2523.96421	0.03559
2522.67844	0.03551
2521.39267	0.03580
2520.10690	0.03622
2518.82113	0.03641
2517.53536	0.03623
2516.24959	0.03581
2514.96383	0.03541
2513.67806	0.03522
2512.39229	0.03528
2511.10652	0.03548
2509.82075	0.03563
2508.53498	0.03555
2507.24921	0.03523
2505.96344	0.03485
2504.67767	0.03475
2503.39191	0.03506
2502.10614	0.03554
2500.82037	0.03581
2499.53460	0.03566
2498.24883	0.03528
2496.96306	0.03497
2495.67729	0.03486
2494.39152	0.03485
2493.10576	0.03483
2491.81999	0.03473
2490.53422	0.03454
2489.24845	0.03428
2487.96268	0.03413
2486.67691	0.03431
2485.39114	0.03476
2484.10537	0.03517
2482.81960	0.03531
2481.53384	0.03521
2480.24807	0.03509
2478.96230	0.03508
2477.67653	0.03514
2476.39076	0.03514
2475.10499	0.03502
2473.81922	0.03482
2472.53345	0.03461
2471.24769	0.03444
2469.96192	0.03432
2468.67615	0.03424
2467.39038	0.03421
2466.10461	0.03430
2464.81884	0.03454
2463.53307	0.03492
2462.24730	0.03527
2460.96153	0.03539
2459.67577	0.03526
2458.39000	0.03513
2457.10423	0.03517
2455.81846	0.03529
2454.53269	0.03528
2453.24692	0.03505
2451.96115	0.03473
2450.67538	0.03447
2449.38962	0.03434
2448.10385	0.03428
2446.81808	0.03420
2445.53231	0.03407
2444.24654	0.03389
2442.96077	0.03373
2441.67500	0.03363
2440.38923	0.03358
2439.10346	0.03357
2437.81770	0.03359
2436.53193	0.03357
2435.24616	0.03343
2433.96039	0.03316
2432.67462	0.03288
2431.38885	0.03274
2430.10308	0.03275
2428.81731	0.03283
2427.53155	0.03288
2426.24578	0.03282
2424.96001	0.03269
2423.67424	0.03256
2422.38847	0.03254
2421.10270	0.03264
2419.81693	0.03279
2418.53116	0.03292
2417.24539	0.03300
2415.95963	0.03300
2414.67386	0.03292
2413.38809	0.03279
2412.10232	0.03269
2410.81655	0.03270
2409.53078	0.03286
2408.24501	0.03310
2406.95924	0.03325
2405.67347	0.03315
2404.38771	0.03285
2403.10194	0.03257
2401.81617	0.03248
2400.53040	0.03249
2399.24463	0.03218
2397.95886	0.03205
2396.67309	0.03218
2395.38732	0.03241
2394.10156	0.03258
2392.81579	0.03260
2391.53002	0.03256
2390.24425	0.03256
2388.95848	0.03265
2387.67271	0.03283
2386.38694	0.03305
2385.10117	0.03337
2383.81540	0.03383
2382.52964	0.03445
2381.24387	0.03514
2379.95810	0.03574
2378.67233	0.03619
2377.38656	0.03659
2376.10079	0.03705
2374.81502	0.03769
2373.52925	0.03834
2372.24349	0.03890
2370.95772	0.03927
2369.67195	0.03965
2368.38618	0.04017
2367.10041	0.04086
2365.81464	0.04154
2364.52887	0.04225
2363.24310	0.04286
2361.95733	0.04330
2360.67157	0.04348
2359.38580	0.04362
2358.10003	0.04368
2356.81426	0.04355
2355.52849	0.04318
2354.24272	0.04263
2352.95695	0.04207
2351.67118	0.04150
2350.38542	0.04108
2349.09965	0.04102
2347.81388	0.04127
2346.52811	0.04127
2345.24234	0.04094
2343.95657	0.04071
2342.67080	0.04079
2341.38503	0.04061
2340.09926	0.04015
2338.81350	0.04031
2337.52773	0.04114
2336.24196	0.04148
2334.95619	0.04150
2333.67042	0.04239
2332.38465	0.04387
2331.09888	0.04438
2329.81311	0.04479
2328.52735	0.04612
2327.24158	0.04641
2325.95581	0.04567
2324.67004	0.04497
2323.38427	0.04315
2322.09850	0.04032
2320.81273	0.03824
2319.52696	0.03617
2318.24119	0.03434
2316.95543	0.03346
2315.66966	0.03266
2314.38389	0.03205
2313.09812	0.03202
2311.81235	0.03206
2310.52658	0.03240
2309.24081	0.03273
2307.95504	0.03275
2306.66928	0.03276
2305.38351	0.03264
2304.09774	0.03254
2302.81197	0.03254
2301.52620	0.03256
2300.24043	0.03271
2298.95466	0.03287
2297.66889	0.03300
2296.38312	0.03307
2295.09736	0.03306
2293.81159	0.03297
2292.52582	0.03264
2291.24005	0.03204
2289.95428	0.03124
2288.66851	0.03046
2287.38274	0.02982
2286.09697	0.02934
2284.81121	0.02903
2283.52544	0.02891
2282.23967	0.02881
2280.95390	0.02840
2279.66813	0.02754
2278.38236	0.02651
2277.09659	0.02578
2275.81082	0.02562
2274.52505	0.02588
2273.23929	0.02620
2271.95352	0.02634
2270.66775	0.02625
2269.38198	0.02608
2268.09621	0.02602
2266.81044	0.02618
2265.52467	0.02649
2264.23890	0.02677
2262.95314	0.02686
2261.66737	0.02669
2260.38160	0.02642
2259.09583	0.02620
2257.81006	0.02615
2256.52429	0.02631
2255.23852	0.02668
2253.95275	0.02707
2252.66698	0.02731
2251.38122	0.02722
2250.09545	0.02621
2248.80968	0.02433
2247.52391	0.02440
2246.23814	0.02480
2244.95237	0.02512
2243.66660	0.02519
2242.38083	0.02518
2241.09507	0.02526
2239.80930	0.02522
2238.52353	0.02462
2237.23776	0.02331
2235.95199	0.02184
2234.66622	0.02096
2233.38045	0.02104
2232.09468	0.02187
2230.80891	0.02291
2229.52315	0.02370
2228.23738	0.02392
2226.95161	0.02347
2225.66584	0.02255
2224.38007	0.02163
2223.09430	0.02111
2221.80853	0.02111
2220.52276	0.02151
2219.23700	0.02202
2217.95123	0.02226
2216.66546	0.02200
2215.37969	0.02145
2214.09392	0.02109
2212.80815	0.02111
2211.52238	0.02115
2210.23661	0.02070
2208.95084	0.01969
2207.66508	0.01864
2206.37931	0.01817
2205.09354	0.01844
2203.80777	0.01903
2202.52200	0.01935
2201.23623	0.01917
2199.95046	0.01876
2198.66469	0.01848
2197.37893	0.01838
2196.09316	0.01815
2194.80739	0.01766
2193.52162	0.01713
2192.23585	0.01692
2190.95008	0.01706
2189.66431	0.01716
2188.37854	0.01691
2187.09277	0.01640
2185.80701	0.01595
2184.52124	0.01572
2183.23547	0.01564
2181.94970	0.01552
2180.66393	0.01528
2179.37816	0.01492
2178.09239	0.01456
2176.80662	0.01441
2175.52085	0.01468
2174.23509	0.01530
2172.94932	0.01575
2171.66355	0.01541
2170.37778	0.01425
2169.09201	0.01296
2167.80624	0.01243
2166.52047	0.01312
2165.23470	0.01475
2163.94894	0.01647
2162.66317	0.01698
2161.37740	0.01538
2160.09163	0.01220
2158.80586	0.00946
2157.52009	0.00868
2156.23432	0.00940
2154.94855	0.01014
2153.66278	0.01024
2152.37702	0.01004
2151.09125	0.00994
2149.80548	0.00989
2148.51971	0.00982
2147.23394	0.01004
2145.94817	0.01089
2144.66240	0.01223
2143.37663	0.01351
2142.09087	0.01432
2140.80510	0.01479
2139.51933	0.01522
2138.23356	0.01562
2136.94779	0.01573
2135.66202	0.01544
2134.37625	0.01490
2133.09048	0.01448
2131.80471	0.01448
2130.51895	0.01494
2129.23318	0.01556
2127.94741	0.01602
2126.66164	0.01629
2125.37587	0.01664
2124.09010	0.01717
2122.80433	0.01770
2121.51856	0.01802
2120.23280	0.01814
2118.94703	0.01826
2117.66126	0.01843
2116.37549	0.01853
2115.08972	0.01841
2113.80395	0.01811
2112.51818	0.01793
2111.23241	0.01799
2109.94664	0.01807
2108.66088	0.01781
2107.37511	0.01726
2106.08934	0.01683
2104.80357	0.01685
2103.51780	0.01720
2102.23203	0.01749
2100.94626	0.01742
2099.66049	0.01675
2098.37473	0.01610
2097.08896	0.01568
2095.80319	0.01555
2094.51742	0.01579
2093.23165	0.01637
2091.94588	0.01711
2090.66011	0.01775
2089.37434	0.01808
2088.08857	0.01807
2086.80281	0.01784
2085.51704	0.01751
2084.23127	0.01720
2082.94550	0.01697
2081.65973	0.01673
2080.37396	0.01629
2079.08819	0.01559
2077.80242	0.01485
2076.51666	0.01448
2075.23089	0.01468
2073.94512	0.01526
2072.65935	0.01582
2071.37358	0.01607
2070.08781	0.01593
2068.80204	0.01545
2067.51627	0.01470
2066.23050	0.01392
2064.94474	0.01345
2063.65897	0.01348
2062.37320	0.01380
2061.08743	0.01410
2059.80166	0.01424
2058.51589	0.01428
2057.23012	0.01417
2055.94435	0.01375
2054.65859	0.01305
2053.37282	0.01233
2052.08705	0.01168
2050.80128	0.01096
2049.51551	0.00996
2048.22974	0.00867
2046.94397	0.00726
2045.65820	0.00602
2044.37243	0.00519
2043.08667	0.00483
2041.80090	0.00482
2040.51513	0.00507
2039.22936	0.00547
2037.94359	0.00565
2036.65782	0.00523
2035.37205	0.00424
2034.08628	0.00332
2032.80052	0.00305
2031.51475	0.00345
2030.22898	0.00413
2028.94321	0.00473
2027.65744	0.00523
2026.37167	0.00580
2025.08590	0.00649
2023.80013	0.00707
2022.51436	0.00731
2021.22860	0.00727
2019.94283	0.00725
2018.65706	0.00755
2017.37129	0.00812
2016.08552	0.00860
2014.79975	0.00858
2013.51398	0.00793
2012.22821	0.00700
2010.94245	0.00637
2009.65668	0.00646
2008.37091	0.00727
2007.08514	0.00845
2005.79937	0.00958
2004.51360	0.01042
2003.22783	0.01095
2001.94206	0.01124
2000.65629	0.01135
1999.37053	0.01139
1998.08476	0.01160
1996.79899	0.01222
1995.51322	0.01315
1994.22745	0.01397
1992.94168	0.01424
1991.65591	0.01390
1990.37014	0.01336
1989.08438	0.01302
1987.79861	0.01293
1986.51284	0.01278
1985.22707	0.01228
1983.94130	0.01148
1982.65553	0.01074
1981.36976	0.01039
1980.08399	0.01044
1978.79822	0.01051
1977.51246	0.01019
1976.22669	0.00939
1974.94092	0.00852
1973.65515	0.00823
1972.36938	0.00884
1971.08361	0.01002
1969.79784	0.01097
1968.51207	0.01103
1967.22631	0.01025
1965.94054	0.00930
1964.65477	0.00891
1963.36900	0.00933
1962.08323	0.01032
1960.79746	0.01146
1959.51169	0.01248
1958.22592	0.01332
1956.94015	0.01399
1955.65439	0.01450
1954.36862	0.01484
1953.08285	0.01505
1951.79708	0.01518
1950.51131	0.01525
1949.22554	0.01520
1947.93977	0.01503
1946.65400	0.01490
1945.36823	0.01492
1944.08247	0.01499
1942.79670	0.01497
1941.51093	0.01484
1940.22516	0.01473
1938.93939	0.01476
1937.65362	0.01486
1936.36785	0.01490
1935.08208	0.01487
1933.79632	0.01492
1932.51055	0.01521
1931.22478	0.01570
1929.93901	0.01616
1928.65324	0.01637
1927.36747	0.01633
1926.08170	0.01615
1924.79593	0.01600
1923.51016	0.01597
1922.22440	0.01607
1920.93863	0.01623
1919.65286	0.01633
1918.36709	0.01628
1917.08132	0.01615
1915.79555	0.01608
1914.50978	0.01614
1913.22401	0.01632
1911.93825	0.01648
1910.65248	0.01656
1909.36671	0.01662
1908.08094	0.01677
1906.79517	0.01705
1905.50940	0.01736
1904.22363	0.01757
1902.93786	0.01759
1901.65209	0.01748
1900.36633	0.01736
1899.08056	0.01731
1897.79479	0.01730
1896.50902	0.01722
1895.22325	0.01708
1893.93748	0.01700
1892.65171	0.01707
1891.36594	0.01725
1890.08018	0.01741
1888.79441	0.01749
1887.50864	0.01751
1886.22287	0.01749
1884.93710	0.01744
1883.65133	0.01740
1882.36556	0.01747
1881.07979	0.01764
1879.79402	0.01777
1878.50826	0.01769
1877.22249	0.01746
1875.93672	0.01729
1874.65095	0.01734
1873.36518	0.01755
1872.07941	0.01775
1870.79364	0.01781
1869.50787	0.01778
1868.22211	0.01777
1866.93634	0.01782
1865.65057	0.01790
1864.36480	0.01802
1863.07903	0.01814
1861.79326	0.01820
1860.50749	0.01810
1859.22172	0.01784
1857.93595	0.01758
1856.65019	0.01748
1855.36442	0.01755
1854.07865	0.01765
1852.79288	0.01773
1851.50711	0.01790
1850.22134	0.01819
1848.93557	0.01851
1847.64980	0.01872
1846.36404	0.01876
1845.07827	0.01873
1843.79250	0.01864
1842.50673	0.01846
1841.22096	0.01818
1839.93519	0.01790
1838.64942	0.01774
1837.36365	0.01774
1836.07788	0.01787
1834.79212	0.01809
1833.50635	0.01833
1832.22058	0.01851
1830.93481	0.01857
1829.64904	0.01852
1828.36327	0.01841
1827.07750	0.01829
1825.79173	0.01816
1824.50597	0.01800
1823.22020	0.01785
1821.93443	0.01769
1820.64866	0.01753
1819.36289	0.01742
1818.07712	0.01742
1816.79135	0.01758
1815.50558	0.01783
1814.21981	0.01809
1812.93405	0.01831
1811.64828	0.01850
1810.36251	0.01867
1809.07674	0.01879
1807.79097	0.01887
1806.50520	0.01896
1805.21943	0.01907
1803.93366	0.01915
1802.64790	0.01913
1801.36213	0.01898
1800.07636	0.01881
1798.79059	0.01871
1797.50482	0.01870
1796.21905	0.01875
1794.93328	0.01879
1793.64751	0.01879
1792.36174	0.01874
1791.07598	0.01865
1789.79021	0.01856
1788.50444	0.01853
1787.21867	0.01860
1785.93290	0.01873
1784.64713	0.01889
1783.36136	0.01904
1782.07559	0.01914
1780.78983	0.01919
1779.50406	0.01914
1778.21829	0.01901
1776.93252	0.01887
1775.64675	0.01886
1774.36098	0.01901
1773.07521	0.01926
1771.78944	0.01951
1770.50367	0.01969
1769.21791	0.01980
1767.93214	0.01987
1766.64637	0.01991
1765.36060	0.01995
1764.07483	0.01998
1762.78906	0.02000
1761.50329	0.02003
1760.21752	0.02008
1758.93176	0.02014
1757.64599	0.02016
1756.36022	0.02016
1755.07445	0.02017
1753.78868	0.02025
1752.50291	0.02041
1751.21714	0.02054
1749.93137	0.02058
1748.64560	0.02053
1747.35984	0.02046
1746.07407	0.02044
1744.78830	0.02051
1743.50253	0.02066
1742.21676	0.02084
1740.93099	0.02100
1739.64522	0.02110
1738.35945	0.02115
1737.07369	0.02118
1735.78792	0.02123
1734.50215	0.02130
1733.21638	0.02143
1731.93061	0.02164
1730.64484	0.02189
1729.35907	0.02211
1728.07330	0.02223
1726.78753	0.02230
1725.50177	0.02243
1724.21600	0.02265
1722.93023	0.02290
1721.64446	0.02312
1720.35869	0.02331
1719.07292	0.02354
1717.78715	0.02384
1716.50138	0.02419
1715.21561	0.02455
1713.92985	0.02493
1712.64408	0.02537
1711.35831	0.02585
1710.07254	0.02634
1708.78677	0.02683
1707.50100	0.02737
1706.21523	0.02797
1704.92946	0.02859
1703.64370	0.02921
1702.35793	0.02984
1701.07216	0.03053
1699.78639	0.03130
1698.50062	0.03215
1697.21485	0.03304
1695.92908	0.03393
1694.64331	0.03479
1693.35754	0.03561
1692.07178	0.03638
1690.78601	0.03713
1689.50024	0.03790
1688.21447	0.03874
1686.92870	0.03966
1685.64293	0.04064
1684.35716	0.04160
1683.07139	0.04250
1681.78563	0.04330
1680.49986	0.04406
1679.21409	0.04480
1677.92832	0.04559
1676.64255	0.04644
1675.35678	0.04735
1674.07101	0.04830
1672.78524	0.04925
1671.49947	0.05017
1670.21371	0.05106
1668.92794	0.05189
1667.64217	0.05267
1666.35640	0.05339
1665.07063	0.05411
1663.78486	0.05487
1662.49909	0.05564
1661.21332	0.05636
1659.92756	0.05699
1658.64179	0.05755
1657.35602	0.05808
1656.07025	0.05859
1654.78448	0.05909
1653.49871	0.05956
1652.21294	0.06001
1650.92717	0.06043
1649.64140	0.06079
1648.35564	0.06110
1647.06987	0.06133
1645.78410	0.06149
1644.49833	0.06159
1643.21256	0.06167
1641.92679	0.06175
1640.64102	0.06179
1639.35525	0.06180
1638.06949	0.06177
1636.78372	0.06169
1635.49795	0.06159
1634.21218	0.06147
1632.92641	0.06132
1631.64064	0.06115
1630.35487	0.06095
1629.06910	0.06076
1627.78333	0.06061
1626.49757	0.06044
1625.21180	0.06023
1623.92603	0.05997
1622.64026	0.05970
1621.35449	0.05945
1620.06872	0.05923
1618.78295	0.05904
1617.49718	0.05890
1616.21142	0.05884
1614.92565	0.05883
1613.63988	0.05887
1612.35411	0.05893
1611.06834	0.05901
1609.78257	0.05909
1608.49680	0.05914
1607.21103	0.05917
1605.92526	0.05922
1604.63950	0.05934
1603.35373	0.05955
1602.06796	0.05980
1600.78219	0.06002
1599.49642	0.06017
1598.21065	0.06031
1596.92488	0.06047
1595.63911	0.06069
1594.35335	0.06093
1593.06758	0.06118
1591.78181	0.06142
1590.49604	0.06167
1589.21027	0.06192
1587.92450	0.06221
1586.63873	0.06251
1585.35296	0.06281
1584.06719	0.06309
1582.78143	0.06334
1581.49566	0.06361
1580.20989	0.06390
1578.92412	0.06425
1577.63835	0.06465
1576.35258	0.06508
1575.06681	0.06553
1573.78104	0.06596
1572.49528	0.06632
1571.20951	0.06662
1569.92374	0.06689
1568.63797	0.06718
1567.35220	0.06747
1566.06643	0.06772
1564.78066	0.06791
1563.49489	0.06809
1562.20912	0.06829
1560.92336	0.06852
1559.63759	0.06874
1558.35182	0.06888
1557.06605	0.06896
1555.78028	0.06898
1554.49451	0.06897
1553.20874	0.06893
1551.92297	0.06886
1550.63721	0.06875
1549.35144	0.06863
1548.06567	0.06849
1546.77990	0.06830
1545.49413	0.06804
1544.20836	0.06769
1542.92259	0.06729
1541.63682	0.06684
1540.35105	0.06635
1539.06529	0.06582
1537.77952	0.06530
1536.49375	0.06486
1535.20798	0.06452
1533.92221	0.06425
1532.63644	0.06405
1531.35067	0.06393
1530.06490	0.06393
1528.77914	0.06402
1527.49337	0.06414
1526.20760	0.06425
1524.92183	0.06438
1523.63606	0.06458
1522.35029	0.06486
1521.06452	0.06523
1519.77875	0.06567
1518.49298	0.06618
1517.20722	0.06677
1515.92145	0.06745
1514.63568	0.06821
1513.34991	0.06906
1512.06414	0.07000
1510.77837	0.07101
1509.49260	0.07203
1508.20683	0.07299
1506.92107	0.07388
1505.63530	0.07471
1504.34953	0.07549
1503.06376	0.07626
1501.77799	0.07699
1500.49222	0.07765
1499.20645	0.07822
1497.92068	0.07874
1496.63491	0.07924
1495.34915	0.07977
1494.06338	0.08032
1492.77761	0.08088
1491.49184	0.08147
1490.20607	0.08210
1488.92030	0.08280
1487.63453	0.08358
1486.34876	0.08448
1485.06299	0.08552
1483.77723	0.08670
1482.49146	0.08798
1481.20569	0.08932
1479.91992	0.09067
1478.63415	0.09198
1477.34838	0.09320
1476.06261	0.09434
1474.77684	0.09540
1473.49108	0.09639
1472.20531	0.09733
1470.91954	0.09818
1469.63377	0.09891
1468.34800	0.09949
1467.06223	0.09995
1465.77646	0.10035
1464.49069	0.10078
1463.20492	0.10131
1461.91916	0.10196
1460.63339	0.10267
1459.34762	0.10339
1458.06185	0.10410
1456.77608	0.10480
1455.49031	0.10546
1454.20454	0.10605
1452.91877	0.10659
1451.63301	0.10708
1450.34724	0.10750
1449.06147	0.10782
1447.77570	0.10802
1446.48993	0.10811
1445.20416	0.10808
1443.91839	0.10792
1442.63262	0.10762
1441.34685	0.10723
1440.06109	0.10682
1438.77532	0.10649
1437.48955	0.10629
1436.20378	0.10627
1434.91801	0.10645
1433.63224	0.10684
1432.34647	0.10745
1431.06070	0.10830
1429.77494	0.10938
1428.48917	0.11067
1427.20340	0.11216
1425.91763	0.11380
1424.63186	0.11552
1423.34609	0.11724
1422.06032	0.11889
1420.77455	0.12042
1419.48878	0.12180
1418.20302	0.12297
1416.91725	0.12390
1415.63148	0.12455
1414.34571	0.12498
1413.05994	0.12523
1411.77417	0.12529
1410.48840	0.12510
1409.20263	0.12462
1407.91687	0.12388
1406.63110	0.12286
1405.34533	0.12157
1404.05956	0.12003
1402.77379	0.11831
1401.48802	0.11648
1400.20225	0.11457
1398.91648	0.11253
1397.63071	0.11035
1396.34495	0.10803
1395.05918	0.10564
1393.77341	0.10322
1392.48764	0.10085
1391.20187	0.09860
1389.91610	0.09648
1388.63033	0.09447
1387.34456	0.09246
1386.05880	0.09042
1384.77303	0.08833
1383.48726	0.08625
1382.20149	0.08424
1380.91572	0.08230
1379.62995	0.08038
1378.34418	0.07840
1377.05841	0.07633
1375.77264	0.07416
1374.48688	0.07196
1373.20111	0.06975
1371.91534	0.06759
1370.62957	0.06556
1369.34380	0.06369
1368.05803	0.06200
1366.77226	0.06045
1365.48649	0.05898
1364.20073	0.05755
1362.91496	0.05615
1361.62919	0.05484
1360.34342	0.05366
1359.05765	0.05263
1357.77188	0.05173
1356.48611	0.05090
1355.20034	0.05009
1353.91457	0.04928
1352.62881	0.04846
1351.34304	0.04768
1350.05727	0.04697
1348.77150	0.04636
1347.48573	0.04581
1346.19996	0.04526
1344.91419	0.04470
1343.62842	0.04413
1342.34266	0.04359
1341.05689	0.04310
1339.77112	0.04264
1338.48535	0.04215
1337.19958	0.04162
1335.91381	0.04110
1334.62804	0.04060
1333.34227	0.04012
1332.05650	0.03964
1330.77074	0.03915
1329.48497	0.03869
1328.19920	0.03827
1326.91343	0.03786
1325.62766	0.03742
1324.34189	0.03696
1323.05612	0.03653
1321.77035	0.03617
1320.48459	0.03587
1319.19882	0.03560
1317.91305	0.03529
1316.62728	0.03496
1315.34151	0.03463
1314.05574	0.03430
1312.76997	0.03397
1311.48420	0.03365
1310.19843	0.03335
1308.91267	0.03308
1307.62690	0.03283
1306.34113	0.03258
1305.05536	0.03233
1303.76959	0.03209
1302.48382	0.03187
1301.19805	0.03164
1299.91228	0.03142
1298.62652	0.03118
1297.34075	0.03094
1296.05498	0.03071
1294.76921	0.03051
1293.48344	0.03036
1292.19767	0.03026
1290.91190	0.03018
1289.62613	0.03009
1288.34036	0.02998
1287.05460	0.02986
1285.76883	0.02973
1284.48306	0.02960
1283.19729	0.02948
1281.91152	0.02939
1280.62575	0.02931
1279.33998	0.02920
1278.05421	0.02905
1276.76845	0.02888
1275.48268	0.02872
1274.19691	0.02860
1272.91114	0.02850
1271.62537	0.02842
1270.33960	0.02836
1269.05383	0.02829
1267.76806	0.02822
1266.48229	0.02813
1265.19653	0.02803
1263.91076	0.02793
1262.62499	0.02782
1261.33922	0.02771
1260.05345	0.02760
1258.76768	0.02752
1257.48191	0.02749
1256.19614	0.02748
1254.91037	0.02745
1253.62461	0.02739
1252.33884	0.02728
1251.05307	0.02718
1249.76730	0.02710
1248.48153	0.02706
1247.19576	0.02704
1245.90999	0.02702
1244.62422	0.02698
1243.33846	0.02693
1242.05269	0.02684
1240.76692	0.02673
1239.48115	0.02660
1238.19538	0.02650
1236.90961	0.02646
1235.62384	0.02644
1234.33807	0.02641
1233.05230	0.02630
1231.76654	0.02613
1230.48077	0.02594
1229.19500	0.02574
1227.90923	0.02555
1226.62346	0.02536
1225.33769	0.02517
1224.05192	0.02498
1222.76615	0.02482
1221.48039	0.02468
1220.19462	0.02455
1218.90885	0.02442
1217.62308	0.02428
1216.33731	0.02412
1215.05154	0.02396
1213.76577	0.02382
1212.48000	0.02371
1211.19423	0.02365
1209.90847	0.02362
1208.62270	0.02361
1207.33693	0.02356
1206.05116	0.02348
1204.76539	0.02339
1203.47962	0.02331
1202.19385	0.02323
1200.90808	0.02316
1199.62232	0.02313
1198.33655	0.02309
1197.05078	0.02310
1195.76501	0.02309
1194.47924	0.02302
1193.19347	0.02286
1191.90770	0.02266
1190.62193	0.02248
1189.33616	0.02233
1188.05040	0.02218
1186.76463	0.02204
1185.47886	0.02191
1184.19309	0.02183
1182.90732	0.02181
1181.62155	0.02186
1180.33578	0.02197
1179.05001	0.02209
1177.76425	0.02220
1176.47848	0.02231
1175.19271	0.02245
1173.90694	0.02262
1172.62117	0.02280
1171.33540	0.02299
1170.04963	0.02316
1168.76386	0.02331
1167.47809	0.02341
1166.19233	0.02351
1164.90656	0.02365
1163.62079	0.02387
1162.33502	0.02416
1161.04925	0.02448
1159.76348	0.02478
1158.47771	0.02501
1157.19194	0.02520
1155.90618	0.02545
1154.62041	0.02583
1153.33464	0.02630
1152.04887	0.02679
1150.76310	0.02722
1149.47733	0.02764
1148.19156	0.02813
1146.90579	0.02875
1145.62002	0.02950
1144.33426	0.03037
1143.04849	0.03129
1141.76272	0.03222
1140.47695	0.03316
1139.19118	0.03419
1137.90541	0.03539
1136.61964	0.03681
1135.33387	0.03845
1134.04811	0.04028
1132.76234	0.04226
1131.47657	0.04437
1130.19080	0.04664
1128.90503	0.04915
1127.61926	0.05193
1126.33349	0.05498
1125.04772	0.05825
1123.76195	0.06173
1122.47619	0.06537
1121.19042	0.06913
1119.90465	0.07291
1118.61888	0.07661
1117.33311	0.08027
1116.04734	0.08402
1114.76157	0.08794
1113.47580	0.09196
1112.19004	0.09590
1110.90427	0.09967
1109.61850	0.10327
1108.33273	0.10677
1107.04696	0.11023
1105.76119	0.11366
1104.47542	0.11708
1103.18965	0.12048
1101.90388	0.12383
1100.61812	0.12705
1099.33235	0.13007
1098.04658	0.13294
1096.76081	0.13570
1095.47504	0.13840
1094.18927	0.14100
1092.90350	0.14345
1091.61773	0.14572
1090.33197	0.14786
1089.04620	0.14993
1087.76043	0.15201
1086.47466	0.15411
1085.18889	0.15625
1083.90312	0.15848
1082.61735	0.16085
1081.33158	0.16340
1080.04581	0.16612
1078.76005	0.16894
1077.47428	0.17185
1076.18851	0.17484
1074.90274	0.17794
1073.61697	0.18118
1072.33120	0.18458
1071.04543	0.18815
1069.75966	0.19188
1068.47390	0.19573
1067.18813	0.19966
1065.90236	0.20364
1064.61659	0.20761
1063.33082	0.21154
1062.04505	0.21542
1060.75928	0.21933
1059.47351	0.22333
1058.18774	0.22739
1056.90198	0.23139
1055.61621	0.23522
1054.33044	0.23886
1053.04467	0.24242
1051.75890	0.24605
1050.47313	0.24984
1049.18736	0.25381
1047.90159	0.25790
1046.61583	0.26207
1045.33006	0.26635
1044.04429	0.27075
1042.75852	0.27528
1041.47275	0.27987
1040.18698	0.28446
1038.90121	0.28900
1037.61544	0.29346
1036.32967	0.29787
1035.04391	0.30226
1033.75814	0.30667
1032.47237	0.31099
1031.18660	0.31504
1029.90083	0.31868
1028.61506	0.32182
1027.32929	0.32452
1026.04352	0.32684
1024.75775	0.32881
1023.47199	0.33044
1022.18622	0.33173
1020.90045	0.33263
1019.61468	0.33302
1018.32891	0.33276
1017.04314	0.33181
1015.75737	0.33019
1014.47160	0.32793
1013.18584	0.32503
1011.90007	0.32155
1010.61430	0.31759
1009.32853	0.31319
1008.04276	0.30827
1006.75699	0.30274
1005.47122	0.29666
1004.18545	0.29008
1002.89968	0.28302
1001.61392	0.27551
1000.32815	0.26760
999.04238	0.25942
997.75661	0.25102
996.47084	0.24246
995.18507	0.23382
993.89930	0.22520
992.61353	0.21663
991.32777	0.20819
990.04200	0.19996
988.75623	0.19204
987.47046	0.18445
986.18469	0.17716
984.89892	0.17017
983.61315	0.16347
982.32738	0.15710
981.04161	0.15111
979.75585	0.14555
978.47008	0.14043
977.18431	0.13569
975.89854	0.13139
974.61277	0.12765
973.32700	0.12458
972.04123	0.12218
970.75546	0.12040
969.46970	0.11922
968.18393	0.11868
966.89816	0.11879
965.61239	0.11945
964.32662	0.12046
963.04085	0.12151
961.75508	0.12224
960.46931	0.12232
959.18354	0.12160
957.89778	0.12010
956.61201	0.11801
955.32624	0.11551
954.04047	0.11273
952.75470	0.10975
951.46893	0.10668
950.18316	0.10361
948.89739	0.10065
947.61163	0.09779
946.32586	0.09499
945.04009	0.09225
943.75432	0.08959
942.46855	0.08706
941.18278	0.08469
939.89701	0.08249
938.61124	0.08043
937.32547	0.07849
936.03971	0.07666
934.75394	0.07496
933.46817	0.07335
932.18240	0.07180
930.89663	0.07029
929.61086	0.06886
928.32509	0.06759
927.03932	0.06647
925.75356	0.06544
924.46779	0.06444
923.18202	0.06345
921.89625	0.06251
920.61048	0.06170
919.32471	0.06103
918.03894	0.06044
916.75317	0.05985
915.46740	0.05921
914.18164	0.05855
912.89587	0.05791
911.61010	0.05731
910.32433	0.05674
909.03856	0.05617
907.75279	0.05562
906.46702	0.05504
905.18125	0.05442
903.89549	0.05377
902.60972	0.05322
901.32395	0.05283
900.03818	0.05256
898.75241	0.05227
897.46664	0.05192
896.18087	0.05150
894.89510	0.05110
893.60933	0.05080
892.32357	0.05065
891.03780	0.05066
889.75203	0.05081
888.46626	0.05110
887.18049	0.05165
885.89472	0.05269
884.60895	0.05447
883.32318	0.05710
882.03742	0.06036
880.75165	0.06371
879.46588	0.06652
878.18011	0.06858
876.89434	0.07017
875.60857	0.07175
874.32280	0.07341
873.03703	0.07482
871.75126	0.07544
870.46550	0.07505
869.17973	0.07373
867.89396	0.07173
866.60819	0.06935
865.32242	0.06684
864.03665	0.06442
862.75088	0.06215
861.46511	0.06002
860.17935	0.05798
858.89358	0.05606
857.60781	0.05437
856.32204	0.05300
855.03627	0.05200
853.75050	0.05127
852.46473	0.05070
851.17896	0.05019
849.89319	0.04973
848.60743	0.04932
847.32166	0.04897
846.03589	0.04866
844.75012	0.04833
843.46435	0.04796
842.17858	0.04758
840.89281	0.04721
839.60704	0.04688
838.32128	0.04660
837.03551	0.04636
835.74974	0.04618
834.46397	0.04600
833.17820	0.04575
831.89243	0.04540
830.60666	0.04501
829.32089	0.04466
828.03512	0.04440
826.74936	0.04421
825.46359	0.04410
824.17782	0.04407
822.89205	0.04409
821.60628	0.04413
820.32051	0.04413
819.03474	0.04405
817.74897	0.04390
816.46321	0.04375
815.17744	0.04365
813.89167	0.04360
812.60590	0.04356
811.32013	0.04351
810.03436	0.04350
808.74859	0.04352
807.46282	0.04354
806.17705	0.04348
804.89129	0.04331
803.60552	0.04308
802.31975	0.04291
801.03398	0.04290
799.74821	0.04301
798.46244	0.04314
797.17667	0.04318
795.89090	0.04309
794.60513	0.04287
793.31937	0.04262
792.03360	0.04244
790.74783	0.04236
789.46206	0.04236
788.17629	0.04239
786.89052	0.04243
785.60475	0.04249
784.31898	0.04253
783.03322	0.04247
781.74745	0.04231
780.46168	0.04212
779.17591	0.04197
777.89014	0.04189
776.60437	0.04187
775.31860	0.04192
774.03283	0.04202
772.74706	0.04214
771.46130	0.04226
770.17553	0.04235
768.88976	0.04240
767.60399	0.04244
766.31822	0.04249
765.03245	0.04256
763.74668	0.04266
762.46091	0.04279
761.17515	0.04293
759.88938	0.04305
758.60361	0.04314
757.31784	0.04317
756.03207	0.04317
754.74630	0.04316
753.46053	0.04314
752.17476	0.04308
750.88899	0.04296
749.60323	0.04276
748.31746	0.04254
747.03169	0.04238
745.74592	0.04230
744.46015	0.04230
743.17438	0.04237
741.88861	0.04249
740.60284	0.04260
739.31708	0.04263
738.03131	0.04253
736.74554	0.04238
735.45977	0.04227
734.17400	0.04225
732.88823	0.04226
731.60246	0.04222
730.31669	0.04212
729.03092	0.04203
727.74516	0.04201
726.45939	0.04205
725.17362	0.04213
723.88785	0.04265
722.60208	0.04222
721.31631	0.04135
720.03054	0.04063
718.74477	0.04017
717.45901	0.03998
716.17324	0.04005
714.88747	0.04036
713.60170	0.04080
712.31593	0.04124
711.03016	0.04158
709.74439	0.04178
708.45862	0.04187
707.17285	0.04191
705.88709	0.04193
704.60132	0.04192
703.31555	0.04186
702.02978	0.04175
700.74401	0.04158
699.45824	0.04135
698.17247	0.04107
696.88670	0.04078
695.60094	0.04053
694.31517	0.04039
693.02940	0.04036
691.74363	0.04035
690.45786	0.04031
689.17209	0.04025
687.88632	0.04026
686.60055	0.04043
685.31478	0.04071
684.02902	0.04097
682.74325	0.04110
681.45748	0.04109
680.17171	0.04106
678.88594	0.04112
677.60017	0.04126
676.31440	0.04141
675.02863	0.04154
673.74287	0.04168
672.45710	0.04183
671.17133	0.04195
669.88556	0.04203
668.59979	0.04221
667.31402	0.04228
666.02825	0.04206
664.74248	0.04197
663.45671	0.04187
662.17095	0.04171
660.88518	0.04155
659.59941	0.04135
658.31364	0.04107
657.02787	0.04070
655.74210	0.04033
654.45633	0.04005
653.17056	0.03991
651.88480	0.03984
650.59903	0.03977
649.31326	0.03964
648.02749	0.03942
646.74172	0.03917
645.45595	0.03896
644.17018	0.03885
642.88441	0.03887
641.59864	0.03900
640.31288	0.03922
639.02711	0.03951
637.74134	0.03987
636.45557	0.04030
635.16980	0.04079
633.88403	0.04136
632.59826	0.04202
631.31249	0.04266
630.02673	0.04303
628.74096	0.04317
627.45519	0.04373
626.16942	0.04387
624.88365	0.04408
623.59788	0.04515
622.31211	0.04764
621.02634	0.05165
619.74057	0.05682
618.45481	0.06251
617.16904	0.06805
615.88327	0.07273
614.59750	0.07605
613.31173	0.07811
612.02596	0.08001
610.74019	0.08351
609.45442	0.08967
608.16866	0.09779
606.88289	0.10605
605.59712	0.11285
604.31135	0.11744
603.02558	0.11979
601.73981	0.12032
600.45404	0.11948
599.16827	0.11759
597.88250	0.11487
596.59674	0.11166
595.31097	0.10842
594.02520	0.10557
592.73943	0.10334
591.45366	0.10167
590.16789	0.10047
588.88212	0.09981
587.59635	0.09987
586.31059	0.10075
585.02482	0.10234
583.73905	0.10443
582.45328	0.10690
581.16751	0.10972
579.88174	0.11291
578.59597	0.11638
577.31020	0.11994
576.02443	0.12330
574.73867	0.12629
573.45290	0.12891
572.16713	0.13142
570.88136	0.13418
569.59559	0.13755
568.30982	0.14167
567.02405	0.14642
565.73828	0.15136
564.45251	0.15583
563.16675	0.15915
561.88098	0.16080
560.59521	0.16046
559.30944	0.15807
558.02367	0.15379
556.73790	0.14804
555.45213	0.14140
554.16636	0.13441
552.88060	0.12743
551.59483	0.12067
550.30906	0.11428
549.02329	0.10841
547.73752	0.10320
546.45175	0.09862
545.16598	0.09451
543.88021	0.09065
542.59444	0.08699
541.30868	0.08364
540.02291	0.08069
538.73714	0.07808
537.45137	0.07566
536.16560	0.07332
534.87983	0.07108
533.59406	0.06902
532.30829	0.06722
531.02253	0.06560
529.73676	0.06404
528.45099	0.06249
527.16522	0.06097
525.87945	0.05955
524.59368	0.05824
523.30791	0.05696
522.02214	0.05568
520.73637	0.05441
519.45061	0.05320
518.16484	0.05211
516.87907	0.05115
515.59330	0.05026
514.30753	0.04942
513.02176	0.04861
511.73599	0.04781
510.45022	0.04702
509.16446	0.04628
507.87869	0.04564
506.59292	0.04509
505.30715	0.04453
504.02138	0.04393
502.73561	0.04337
501.44984	0.04291
500.16407	0.04254
498.87830	0.04221
497.59254	0.04188
496.30677	0.04152
495.02100	0.04114
493.73523	0.04069
492.44946	0.04017
491.16369	0.03963
489.87792	0.03918
488.59215	0.03889
487.30639	0.03877
486.02062	0.03875
484.73485	0.03876
483.44908	0.03875
482.16331	0.03872
480.87754	0.03870
479.59177	0.03875
478.30600	0.03891
477.02023	0.03913
475.73447	0.03935
474.44870	0.03956
473.16293	0.03979
471.87716	0.04001
470.59139	0.04009
469.30562	0.03992
468.01985	0.03950
466.73408	0.03897
465.44832	0.03849
464.16255	0.03810
462.87678	0.03774
461.59101	0.03736
460.30524	0.03694
459.01947	0.03652
457.73370	0.03612
456.44793	0.03573
455.16216	0.03536
453.87640	0.03503
452.59063	0.03471
451.30486	0.03439
450.01909	0.03407
448.73332	0.03377
447.44755	0.03353
446.16178	0.03334
444.87601	0.03319
443.59025	0.03306
442.30448	0.03293
441.01871	0.03274
439.73294	0.03248
438.44717	0.03220
437.16140	0.03197
435.87563	0.03183
434.58986	0.03175
433.30409	0.03168
432.01833	0.03159
430.73256	0.03150
429.44679	0.03141
428.16102	0.03134
426.87525	0.03125
425.58948	0.03111
424.30371	0.03093
423.01794	0.03072
421.73218	0.03054
420.44641	0.03041
419.16064	0.03033
417.87487	0.03025
416.58910	0.03012
415.30333	0.02999
414.01756	0.02989
412.73179	0.02988
411.44602	0.02991
410.16026	0.02994
408.87449	0.02995
407.58872	0.02997
406.30295	0.03003
405.01718	0.03013
403.73141	0.03023
402.44564	0.03031
401.15987	0.03038
399.87411	0.03044
