3997.45528 0.03341
3996.16951 0.03198
3994.88374 0.03122
3993.59798 0.03089
3992.31221 0.03079
3991.02644 0.03104
3989.74067 0.03194
3988.45490 0.03355
3987.16913 0.03536
3985.88336 0.03652
3984.59759 0.03640
3983.31183 0.03514
3982.02606 0.03342
3980.74029 0.03186
3979.45452 0.03081
3978.16875 0.03040
3976.88298 0.03062
3975.59721 0.03123
3974.31144 0.03190
3973.02567 0.03242
3971.73991 0.03286
3970.45414 0.03336
3969.16837 0.03379
3967.88260 0.03375
3966.59683 0.03296
3965.31106 0.03167
3964.02529 0.03051
3962.73952 0.02999
3961.45376 0.03007
3960.16799 0.03048
3958.88222 0.03122
3957.59645 0.03247
3956.31068 0.03405
3955.02491 0.03521
3953.73914 0.03524
3952.45337 0.03410
3951.16760 0.03253
3949.88184 0.03147
3948.59607 0.03142
3947.31030 0.03213
3946.02453 0.03274
3944.73876 0.03250
3943.45299 0.03143
3942.16722 0.03030
3940.88145 0.02987
3939.59569 0.03030
3938.30992 0.03124
3937.02415 0.03228
3935.73838 0.03318
3934.45261 0.03378
3933.16684 0.03401
3931.88107 0.03391
3930.59530 0.03375
3929.30953 0.03379
3928.02377 0.03390
3926.73800 0.03361
3925.45223 0.03262
3924.16646 0.03121
3922.88069 0.03013
3921.59492 0.03013
3920.30915 0.03141
3919.02338 0.03349
3917.73762 0.03538
3916.45185 0.03616
3915.16608 0.03564
3913.88031 0.03444
3912.59454 0.03348
3911.30877 0.03332
3910.02300 0.03392
3908.73723 0.03488
3907.45146 0.03587
3906.16570 0.03669
3904.87993 0.03716
3903.59416 0.03699
3902.30839 0.03597
3901.02262 0.03439
3899.73685 0.03305
3898.45108 0.03264
3897.16531 0.03307
3895.87955 0.03357
3894.59378 0.03357
3893.30801 0.03312
3892.02224 0.03268
3890.73647 0.03248
3889.45070 0.03233
3888.16493 0.03198
3886.87916 0.03166
3885.59339 0.03174
3884.30763 0.03216
3883.02186 0.03242
3881.73609 0.03228
3880.45032 0.03211
3879.16455 0.03238
3877.87878 0.03309
3876.59301 0.03395
3875.30724 0.03463
3874.02148 0.03473
3872.73571 0.03387
3871.44994 0.03218
3870.16417 0.03066
3868.87840 0.03026
3867.59263 0.03086
3866.30686 0.03165
3865.02109 0.03211
3863.73532 0.03232
3862.44956 0.03243
3861.16379 0.03247
3859.87802 0.03248
3858.59225 0.03258
3857.30648 0.03278
3856.02071 0.03289
3854.73494 0.03281
3853.44917 0.03273
3852.16341 0.03281
3850.87764 0.03286
3849.59187 0.03254
3848.30610 0.03175
3847.02033 0.03074
3845.73456 0.02981
3844.44879 0.02916
3843.16302 0.02888
3841.87725 0.02911
3840.59149 0.02984
3839.30572 0.03066
3838.01995 0.03108
3836.73418 0.03098
3835.44841 0.03071
3834.16264 0.03060
3832.87687 0.03069
3831.59110 0.03066
3830.30534 0.03023
3829.01957 0.02958
3827.73380 0.02920
3826.44803 0.02937
3825.16226 0.02994
3823.87649 0.03046
3822.59072 0.03088
3821.30495 0.03156
3820.01918 0.03264
3818.73342 0.03363
3817.44765 0.03389
3816.16188 0.03340
3814.87611 0.03256
3813.59034 0.03168
3812.30457 0.03096
3811.01880 0.03058
3809.73303 0.03052
3808.44726 0.03058
3807.16150 0.03061
3805.87573 0.03059
3804.58996 0.03039
3803.30419 0.02994
3802.01842 0.02951
3800.73265 0.02954
3799.44688 0.03005
3798.16111 0.03069
3796.87535 0.03122
3795.58958 0.03158
3794.30381 0.03163
3793.01804 0.03127
3791.73227 0.03056
3790.44650 0.02985
3789.16073 0.02956
3787.87496 0.02996
3786.58919 0.03080
3785.30343 0.03150
3784.01766 0.03164
3782.73189 0.03132
3781.44612 0.03100
3780.16035 0.03097
3778.87458 0.03110
3777.58881 0.03104
3776.30304 0.03059
3775.01728 0.02995
3773.73151 0.02942
3772.44574 0.02920
3771.15997 0.02935
3769.87420 0.02983
3768.58843 0.03047
3767.30266 0.03100
3766.01689 0.03141
3764.73112 0.03186
3763.44536 0.03230
3762.15959 0.03238
3760.87382 0.03189
3759.58805 0.03104
3758.30228 0.03024
3757.01651 0.02982
3755.73074 0.02989
3754.44497 0.03029
3753.15921 0.03077
3751.87344 0.03096
3750.58767 0.03060
3749.30190 0.02993
3748.01613 0.02949
3746.73036 0.02946
3745.44459 0.02969
3744.15882 0.03008
3742.87305 0.03043
3741.58729 0.03041
3740.30152 0.02995
3739.01575 0.02933
3737.72998 0.02879
3736.44421 0.02844
3735.15844 0.02825
3733.87267 0.02820
3732.58690 0.02834
3731.30114 0.02871
3730.01537 0.02909
3728.72960 0.02925
3727.44383 0.02934
3726.15806 0.02977
3724.87229 0.03058
3723.58652 0.03137
3722.30075 0.03157
3721.01498 0.03094
3719.72922 0.02966
3718.44345 0.02822
3717.15768 0.02716
3715.87191 0.02675
3714.58614 0.02691
3713.30037 0.02739
3712.01460 0.02799
3710.72883 0.02867
3709.44307 0.02952
3708.15730 0.03057
3706.87153 0.03163
3705.58576 0.03226
3704.29999 0.03212
3703.01422 0.03138
3701.72845 0.03060
3700.44268 0.03000
3699.15691 0.02924
3697.87115 0.02815
3696.58538 0.02714
3695.29961 0.02666
3694.01384 0.02674
3692.72807 0.02718
3691.44230 0.02759
3690.15653 0.02749
3688.87076 0.02667
3687.58500 0.02539
3686.29923 0.02428
3685.01346 0.02403
3683.72769 0.02485
3682.44192 0.02615
3681.15615 0.02720
3679.87038 0.02781
3678.58461 0.02825
3677.29884 0.02878
3676.01308 0.02937
3674.72731 0.02991
3673.44154 0.03027
3672.15577 0.03030
3670.87000 0.03011
3669.58423 0.02986
3668.29846 0.02954
3667.01269 0.02918
3665.72693 0.02901
3664.44116 0.02915
3663.15539 0.02945
3661.86962 0.02965
3660.58385 0.02963
3659.29808 0.02943
3658.01231 0.02918
3656.72654 0.02904
3655.44077 0.02927
3654.15501 0.02991
3652.86924 0.03071
3651.58347 0.03121
3650.29770 0.03109
3649.01193 0.03031
3647.72616 0.02924
3646.44039 0.02844
3645.15462 0.02822
3643.86886 0.02845
3642.58309 0.02875
3641.29732 0.02893
3640.01155 0.02922
3638.72578 0.02985
3637.44001 0.03059
3636.15424 0.03077
3634.86847 0.03011
3633.58270 0.02922
3632.29694 0.02887
3631.01117 0.02915
3629.72540 0.02956
3628.43963 0.02965
3627.15386 0.02932
3625.86809 0.02869
3624.58232 0.02799
3623.29655 0.02739
3622.01079 0.02697
3620.72502 0.02693
3619.43925 0.02766
3618.15348 0.02923
3616.86771 0.03103
3615.58194 0.03223
3614.29617 0.03253
3613.01040 0.03227
3611.72463 0.03200
3610.43887 0.03196
3609.15310 0.03209
3607.86733 0.03235
3606.58156 0.03275
3605.29579 0.03318
3604.01002 0.03340
3602.72425 0.03319
3601.43848 0.03268
3600.15272 0.03228
3598.86695 0.03223
3597.58118 0.03240
3596.29541 0.03246
3595.00964 0.03210
3593.72387 0.03132
3592.43810 0.03063
3591.15233 0.03080
3589.86656 0.03209
3588.58080 0.03393
3587.29503 0.03525
3586.00926 0.03525
3584.72349 0.03395
3583.43772 0.03211
3582.15195 0.03064
3580.86618 0.03007
3579.58041 0.03050
3578.29464 0.03160
3577.00888 0.03283
3575.72311 0.03373
3574.43734 0.03418
3573.15157 0.03441
3571.86580 0.03471
3570.58003 0.03507
3569.29426 0.03527
3568.00849 0.03524
3566.72273 0.03511
3565.43696 0.03505
3564.15119 0.03504
3562.86542 0.03498
3561.57965 0.03483
3560.29388 0.03472
3559.00811 0.03490
3557.72234 0.03555
3556.43657 0.03657
3555.15081 0.03747
3553.86504 0.03770
3552.57927 0.03708
3551.29350 0.03597
3550.00773 0.03511
3548.72196 0.03503
3547.43619 0.03555
3546.15042 0.03604
3544.86466 0.03610
3543.57889 0.03593
3542.29312 0.03599
3541.00735 0.03643
3539.72158 0.03698
3538.43581 0.03726
3537.15004 0.03702
3535.86427 0.03634
3534.57850 0.03557
3533.29274 0.03520
3532.00697 0.03559
3530.72120 0.03677
3529.43543 0.03833
3528.14966 0.03960
3526.86389 0.03998
3525.57812 0.03933
3524.29235 0.03810
3523.00659 0.03692
3521.72082 0.03618
3520.43505 0.03591
3519.14928 0.03602
3517.86351 0.03646
3516.57774 0.03719
3515.29197 0.03808
3514.00620 0.03901
3512.72043 0.04000
3511.43467 0.04098
3510.14890 0.04174
3508.86313 0.04205
3507.57736 0.04189
3506.29159 0.04137
3505.00582 0.04062
3503.72005 0.03980
3502.43428 0.03919
3501.14852 0.03913
3499.86275 0.03969
3498.57698 0.04062
3497.29121 0.04151
3496.00544 0.04204
3494.71967 0.04214
3493.43390 0.04193
3492.14813 0.04154
3490.86236 0.04102
3489.57660 0.04045
3488.29083 0.04000
3487.00506 0.03982
3485.71929 0.03998
3484.43352 0.04038
3483.14775 0.04083
3481.86198 0.04114
3480.57621 0.04119
3479.29045 0.04105
3478.00468 0.04088
3476.71891 0.04079
3475.43314 0.04075
3474.14737 0.04081
3472.86160 0.04111
3471.57583 0.04166
3470.29006 0.04221
3469.00429 0.04245
3467.71853 0.04232
3466.43276 0.04213
3465.14699 0.04216
3463.86122 0.04236
3462.57545 0.04244
3461.28968 0.04231
3460.00391 0.04211
3458.71814 0.04201
3457.43238 0.04194
3456.14661 0.04174
3454.86084 0.04144
3453.57507 0.04124
3452.28930 0.04139
3451.00353 0.04185
3449.71776 0.04232
3448.43199 0.04249
3447.14622 0.04228
3445.86046 0.04192
3444.57469 0.04170
3443.28892 0.04175
3442.00315 0.04211
3440.71738 0.04268
3439.43161 0.04331
3438.14584 0.04385
3436.86007 0.04406
3435.57431 0.04363
3434.28854 0.04247
3433.00277 0.04098
3431.71700 0.04000
3430.43123 0.04023
3429.14546 0.04157
3427.85969 0.04316
3426.57392 0.04407
3425.28815 0.04401
3424.00239 0.04343
3422.71662 0.04298
3421.43085 0.04301
3420.14508 0.04338
3418.85931 0.04385
3417.57354 0.04434
3416.28777 0.04492
3415.00200 0.04557
3413.71624 0.04612
3412.43047 0.04640
3411.14470 0.04633
3409.85893 0.04597
3408.57316 0.04553
3407.28739 0.04529
3406.00162 0.04545
3404.71585 0.04586
3403.43008 0.04617
3402.14432 0.04633
3400.85855 0.04662
3399.57278 0.04687
3398.28701 0.04707
3397.00124 0.04751
3395.71547 0.04776
3394.42970 0.04751
3393.14393 0.04689
3391.85817 0.04625
3390.57240 0.04594
3389.28663 0.04611
3388.00086 0.04666
3386.71509 0.04739
3385.42932 0.04814
3384.14355 0.04884
3382.85778 0.04936
3381.57201 0.04953
3380.28625 0.04927
3379.00048 0.04870
3377.71471 0.04806
3376.42894 0.04755
3375.14317 0.04732
3373.85740 0.04742
3372.57163 0.04773
3371.28586 0.04801
3370.00010 0.04808
3368.71433 0.04799
3367.42856 0.04800
3366.14279 0.04827
3364.85702 0.04870
3363.57125 0.04903
3362.28548 0.04913
3360.99971 0.04905
3359.71394 0.04898
3358.42818 0.04904
3357.14241 0.04922
3355.85664 0.04935
3354.57087 0.04928
3353.28510 0.04908
3351.99933 0.04904
3350.71356 0.04930
3349.42779 0.04965
3348.14202 0.04970
3346.85626 0.04935
3345.57049 0.04890
3344.28472 0.04871
3342.99895 0.04886
3341.71318 0.04911
3340.42741 0.04924
3339.14164 0.04924
3337.85587 0.04929
3336.57011 0.04950
3335.28434 0.04983
3333.99857 0.05019
3332.71280 0.05056
3331.42703 0.05094
3330.14126 0.05121
3328.85549 0.05113
3327.56972 0.05062
3326.28395 0.04989
3324.99819 0.04935
3323.71242 0.04926
3322.42665 0.04962
3321.14088 0.05020
3319.85511 0.05077
3318.56934 0.05120
3317.28357 0.05156
3315.99780 0.05194
3314.71204 0.05235
3313.42627 0.05263
3312.14050 0.05265
3310.85473 0.05250
3309.56896 0.05251
3308.28319 0.05283
3306.99742 0.05324
3305.71165 0.05327
3304.42588 0.05279
3303.14012 0.05215
3301.85435 0.05176
3300.56858 0.05173
3299.28281 0.05186
3297.99704 0.05198
3296.71127 0.05210
3295.42550 0.05232
3294.13973 0.05262
3292.85397 0.05288
3291.56820 0.05298
3290.28243 0.05292
3288.99666 0.05277
3287.71089 0.05252
3286.42512 0.05217
3285.13935 0.05181
3283.85358 0.05167
3282.56781 0.05180
3281.28205 0.05203
3279.99628 0.05213
3278.71051 0.05205
3277.42474 0.05192
3276.13897 0.05188
3274.85320 0.05195
3273.56743 0.05211
3272.28166 0.05236
3270.99590 0.05270
3269.71013 0.05305
3268.42436 0.05341
3267.13859 0.05382
3265.85282 0.05421
3264.56705 0.05437
3263.28128 0.05421
3261.99551 0.05391
3260.70974 0.05376
3259.42398 0.05383
3258.13821 0.05389
3256.85244 0.05370
3255.56667 0.05327
3254.28090 0.05282
3252.99513 0.05257
3251.70936 0.05263
3250.42359 0.05295
3249.13783 0.05339
3247.85206 0.05377
3246.56629 0.05383
3245.28052 0.05349
3243.99475 0.05287
3242.70898 0.05219
3241.42321 0.05163
3240.13744 0.05132
3238.85167 0.05129
3237.56591 0.05141
3236.28014 0.05139
3234.99437 0.05106
3233.70860 0.05043
3232.42283 0.04977
3231.13706 0.04933
3229.85129 0.04921
3228.56552 0.04927
3227.27976 0.04932
3225.99399 0.04931
3224.70822 0.04941
3223.42245 0.04982
3222.13668 0.05052
3220.85091 0.05121
3219.56514 0.05155
3218.27937 0.05141
3216.99360 0.05102
3215.70784 0.05069
3214.42207 0.05055
3213.13630 0.05039
3211.85053 0.04998
3210.56476 0.04943
3209.27899 0.04916
3207.99322 0.04948
3206.70745 0.05016
3205.42169 0.05063
3204.13592 0.05056
3202.85015 0.05021
3201.56438 0.05005
3200.27861 0.05025
3198.99284 0.05056
3197.70707 0.05072
3196.42130 0.05073
3195.13553 0.05073
3193.84977 0.05084
3192.56400 0.05107
3191.27823 0.05144
3189.99246 0.05188
3188.70669 0.05220
3187.42092 0.05219
3186.13515 0.05176
3184.84938 0.05102
3183.56362 0.05017
3182.27785 0.04949
3180.99208 0.04918
3179.70631 0.04921
3178.42054 0.04926
3177.13477 0.04905
3175.84900 0.04866
3174.56323 0.04838
3173.27746 0.04823
3171.99170 0.04794
3170.70593 0.04733
3169.42016 0.04671
3168.13439 0.04658
3166.84862 0.04702
3165.56285 0.04765
3164.27708 0.04804
3162.99131 0.04816
3161.70555 0.04820
3160.41978 0.04825
3159.13401 0.04820
3157.84824 0.04792
3156.56247 0.04740
3155.27670 0.04679
3153.99093 0.04632
3152.70516 0.04624
3151.41939 0.04662
3150.13363 0.04726
3148.84786 0.04779
3147.56209 0.04805
3146.27632 0.04813
3144.99055 0.04823
3143.70478 0.04839
3142.41901 0.04853
3141.13324 0.04856
3139.84748 0.04852
3138.56171 0.04844
3137.27594 0.04826
3135.99017 0.04789
3134.70440 0.04739
3133.41863 0.04702
3132.13286 0.04703
3130.84709 0.04733
3129.56132 0.04749
3128.27556 0.04717
3126.98979 0.04652
3125.70402 0.04601
3124.41825 0.04590
3123.13248 0.04605
3121.84671 0.04614
3120.56094 0.04600
3119.27517 0.04565
3117.98940 0.04523
3116.70364 0.04487
3115.41787 0.04466
3114.13210 0.04469
3112.84633 0.04499
3111.56056 0.04542
3110.27479 0.04575
3108.98902 0.04580
3107.70325 0.04559
3106.41749 0.04526
3105.13172 0.04494
3103.84595 0.04476
3102.56018 0.04488
3101.27441 0.04528
3099.98864 0.04574
3098.70287 0.04596
3097.41710 0.04590
3096.13133 0.04572
3094.84557 0.04564
3093.55980 0.04570
3092.27403 0.04582
3090.98826 0.04588
3089.70249 0.04585
3088.41672 0.04573
3087.13095 0.04557
3085.84518 0.04542
3084.55942 0.04538
3083.27365 0.04557
3081.98788 0.04592
3080.70211 0.04623
3079.41634 0.04628
3078.13057 0.04610
3076.84480 0.04591
3075.55903 0.04587
3074.27326 0.04599
3072.98750 0.04614
3071.70173 0.04623
3070.41596 0.04622
3069.13019 0.04614
3067.84442 0.04595
3066.55865 0.04567
3065.27288 0.04546
3063.98711 0.04545
3062.70135 0.04557
3061.41558 0.04557
3060.12981 0.04530
3058.84404 0.04492
3057.55827 0.04469
3056.27250 0.04469
3054.98673 0.04475
3053.70096 0.04470
3052.41519 0.04461
3051.12943 0.04463
3049.84366 0.04470
3048.55789 0.04456
3047.27212 0.04405
3045.98635 0.04334
3044.70058 0.04283
3043.41481 0.04275
3042.12904 0.04304
3040.84328 0.04343
3039.55751 0.04366
3038.27174 0.04367
3036.98597 0.04354
3035.70020 0.04344
3034.41443 0.04348
3033.12866 0.04362
3031.84289 0.04376
3030.55712 0.04380
3029.27136 0.04374
3027.98559 0.04361
3026.69982 0.04342
3025.41405 0.04316
3024.12828 0.04283
3022.84251 0.04247
3021.55674 0.04220
3020.27097 0.04214
3018.98521 0.04234
3017.69944 0.04270
3016.41367 0.04298
3015.12790 0.04303
3013.84213 0.04292
3012.55636 0.04273
3011.27059 0.04251
3009.98482 0.04222
3008.69905 0.04192
3007.41329 0.04177
3006.12752 0.04185
3004.84175 0.04205
3003.55598 0.04219
3002.27021 0.04231
3000.98444 0.04238
2999.69867 0.04200
2998.41290 0.04205
2997.12714 0.04218
2995.84137 0.04233
2994.55560 0.04246
2993.26983 0.04252
2991.98406 0.04253
2990.69829 0.04255
2989.41252 0.04262
2988.12675 0.04266
2986.84098 0.04256
2985.55522 0.04239
2984.26945 0.04236
2982.98368 0.04260
2981.69791 0.04299
2980.41214 0.04334
2979.12637 0.04362
2977.84060 0.04391
2976.55483 0.04421
2975.26907 0.04447
2973.98330 0.04469
2972.69753 0.04502
2971.41176 0.04560
2970.12599 0.04640
2968.84022 0.04724
2967.55445 0.04800
2966.26868 0.04868
2964.98291 0.04936
2963.69715 0.04999
2962.41138 0.05047
2961.12561 0.05083
2959.83984 0.05122
2958.55407 0.05178
2957.26830 0.05243
2955.98253 0.05300
2954.69676 0.05336
2953.41100 0.05356
2952.12523 0.05372
2950.83946 0.05391
2949.55369 0.05408
2948.26792 0.05410
2946.98215 0.05387
2945.69638 0.05348
2944.41061 0.05316
2943.12484 0.05309
2941.83908 0.05332
2940.55331 0.05380
2939.26754 0.05443
2937.98177 0.05503
2936.69600 0.05537
2935.41023 0.05547
2934.12446 0.05558
2932.83869 0.05602
2931.55293 0.05679
2930.26716 0.05765
2928.98139 0.05837
2927.69562 0.05891
2926.40985 0.05929
2925.12408 0.05949
2923.83831 0.05946
2922.55254 0.05924
2921.26677 0.05899
2919.98101 0.05883
2918.69524 0.05871
2917.40947 0.05853
2916.12370 0.05822
2914.83793 0.05778
2913.55216 0.05722
2912.26639 0.05665
2910.98062 0.05628
2909.69486 0.05618
2908.40909 0.05617
2907.12332 0.05601
2905.83755 0.05561
2904.55178 0.05508
2903.26601 0.05457
2901.98024 0.05418
2900.69447 0.05395
2899.40870 0.05377
2898.12294 0.05347
2896.83717 0.05288
2895.55140 0.05203
2894.26563 0.05117
2892.97986 0.05057
2891.69409 0.05027
2890.40832 0.05008
2889.12255 0.04980
2887.83678 0.04943
2886.55102 0.04910
2885.26525 0.04887
2883.97948 0.04877
2882.69371 0.04879
2881.40794 0.04888
2880.12217 0.04891
2878.83640 0.04879
2877.55063 0.04866
2876.26487 0.04878
2874.97910 0.04926
2873.69333 0.04990
2872.40756 0.05035
2871.12179 0.05051
2869.83602 0.05061
2868.55025 0.05079
2867.26448 0.05095
2865.97871 0.05091
2864.69295 0.05069
2863.40718 0.05052
2862.12141 0.05051
2860.83564 0.05055
2859.54987 0.05051
2858.26410 0.05038
2856.97833 0.05028
2855.69256 0.05028
2854.40680 0.05032
2853.12103 0.05024
2851.83526 0.04998
2850.54949 0.04961
2849.26372 0.04924
2847.97795 0.04892
2846.69218 0.04864
2845.40641 0.04836
2844.12064 0.04803
2842.83488 0.04760
2841.54911 0.04699
2840.26334 0.04619
2838.97757 0.04531
2837.69180 0.04454
2836.40603 0.04396
2835.12026 0.04354
2833.83449 0.04317
2832.54873 0.04286
2831.26296 0.04258
2829.97719 0.04227
2828.69142 0.04189
2827.40565 0.04151
2826.11988 0.04129
2824.83411 0.04125
2823.54834 0.04130
2822.26257 0.04124
2820.97681 0.04101
2819.69104 0.04065
2818.40527 0.04030
2817.11950 0.04007
2815.83373 0.03996
2814.54796 0.03989
2813.26219 0.03979
2811.97642 0.03960
2810.69066 0.03933
2809.40489 0.03903
2808.11912 0.03883
2806.83335 0.03877
2805.54758 0.03874
2804.26181 0.03858
2802.97604 0.03828
2801.69027 0.03802
2800.40450 0.03804
2799.11874 0.03831
2797.83297 0.03859
2796.54720 0.03862
2795.26143 0.03839
2793.97566 0.03801
2792.68989 0.03766
2791.40412 0.03746
2790.11835 0.03748
2788.83259 0.03762
2787.54682 0.03766
2786.26105 0.03749
2784.97528 0.03719
2783.68951 0.03693
2782.40374 0.03680
2781.11797 0.03681
2779.83220 0.03693
2778.54643 0.03710
2777.26067 0.03724
2775.97490 0.03725
2774.68913 0.03711
2773.40336 0.03690
2772.11759 0.03674
2770.83182 0.03676
2769.54605 0.03697
2768.26028 0.03718
2766.97452 0.03715
2765.68875 0.03685
2764.40298 0.03647
2763.11721 0.03623
2761.83144 0.03613
2760.54567 0.03604
2759.25990 0.03582
2757.97413 0.03550
2756.68836 0.03526
2755.40260 0.03528
2754.11683 0.03558
2752.83106 0.03598
2751.54529 0.03622
2750.25952 0.03620
2748.97375 0.03600
2747.68798 0.03574
2746.40221 0.03544
2745.11645 0.03512
2743.83068 0.03489
2742.54491 0.03490
2741.25914 0.03513
2739.97337 0.03536
2738.68760 0.03544
2737.40183 0.03542
2736.11606 0.03539
2734.83029 0.03532
2733.54453 0.03520
2732.25876 0.03510
2730.97299 0.03511
2729.68722 0.03522
2728.40145 0.03527
2727.11568 0.03516
2725.82991 0.03487
2724.54414 0.03453
2723.25838 0.03431
2721.97261 0.03427
2720.68684 0.03433
2719.40107 0.03434
2718.11530 0.03429
2716.82953 0.03422
2715.54376 0.03419
2714.25799 0.03420
2712.97222 0.03424
2711.68646 0.03429
2710.40069 0.03428
2709.11492 0.03417
2707.82915 0.03400
2706.54338 0.03384
2705.25761 0.03369
2703.97184 0.03355
2702.68607 0.03345
2701.40031 0.03341
2700.11454 0.03337
2698.82877 0.03326
2697.54300 0.03311
2696.25723 0.03301
2694.97146 0.03305
2693.68569 0.03320
2692.39992 0.03332
2691.11415 0.03335
2689.82839 0.03339
2688.54262 0.03353
2687.25685 0.03364
2685.97108 0.03349
2684.68531 0.03305
2683.39954 0.03255
2682.11377 0.03226
2680.82800 0.03222
2679.54224 0.03230
2678.25647 0.03236
2676.97070 0.03233
2675.68493 0.03224
2674.39916 0.03220
2673.11339 0.03231
2671.82762 0.03257
2670.54185 0.03286
2669.25608 0.03304
2667.97032 0.03307
2666.68455 0.03294
2665.39878 0.03270
2664.11301 0.03245
2662.82724 0.03235
2661.54147 0.03246
2660.25570 0.03266
2658.96993 0.03282
2657.68417 0.03288
2656.39840 0.03293
2655.11263 0.03305
2653.82686 0.03325
2652.54109 0.03347
2651.25532 0.03352
2649.96955 0.03326
2648.68378 0.03270
2647.39801 0.03204
2646.11225 0.03153
2644.82648 0.03128
2643.54071 0.03128
2642.25494 0.03143
2640.96917 0.03158
2639.68340 0.03161
2638.39763 0.03150
2637.11186 0.03134
2635.82609 0.03125
2634.54033 0.03122
2633.25456 0.03119
2631.96879 0.03112
2630.68302 0.03111
2629.39725 0.03126
2628.11148 0.03150
2626.82571 0.03159
2625.53994 0.03137
2624.25418 0.03092
2622.96841 0.03045
2621.68264 0.03010
2620.39687 0.02981
2619.11110 0.02948
2617.82533 0.02914
2616.53956 0.02894
2615.25379 0.02900
2613.96802 0.02932
2612.68226 0.02969
2611.39649 0.02983
2610.11072 0.02960
2608.82495 0.02911
2607.53918 0.02860
2606.25341 0.02832
2604.96764 0.02836
2603.68187 0.02868
2602.39611 0.02909
2601.11034 0.02940
2599.82457 0.02948
2598.53880 0.02922
2597.25303 0.02871
2595.96726 0.02817
2594.68149 0.02782
2593.39572 0.02769
2592.10995 0.02760
2590.82419 0.02747
2589.53842 0.02739
2588.25265 0.02749
2586.96688 0.02776
2585.68111 0.02800
2584.39534 0.02802
2583.10957 0.02785
2581.82380 0.02766
2580.53804 0.02758
2579.25227 0.02757
2577.96650 0.02757
2576.68073 0.02749
2575.39496 0.02734
2574.10919 0.02719
2572.82342 0.02717
2571.53765 0.02721
2570.25188 0.02717
2568.96612 0.02694
2567.68035 0.02667
2566.39458 0.02651
2565.10881 0.02648
2563.82304 0.02644
2562.53727 0.02630
2561.25150 0.02612
2559.96573 0.02605
2558.67997 0.02602
2557.39420 0.02584
2556.10843 0.02545
2554.82266 0.02509
2553.53689 0.02503
2552.25112 0.02527
2550.96535 0.02558
2549.67958 0.02573
2548.39381 0.02568
2547.10805 0.02555
2545.82228 0.02547
2544.53651 0.02549
2543.25074 0.02555
2541.96497 0.02558
2540.67920 0.02555
2539.39343 0.02541
2538.10766 0.02514
2536.82190 0.02483
2535.53613 0.02461
2534.25036 0.02457
2532.96459 0.02472
2531.67882 0.02506
2530.39305 0.02547
2529.10728 0.02569
2527.82151 0.02552
2526.53574 0.02509
2525.24998 0.02482
2523.96421 0.02493
2522.67844 0.02529
2521.39267 0.02556
2520.10690 0.02552
2518.82113 0.02521
2517.53536 0.02485
2516.24959 0.02459
2514.96383 0.02447
2513.67806 0.02441
2512.39229 0.02436
2511.10652 0.02436
2509.82075 0.02443
2508.53498 0.02451
2507.24921 0.02451
2505.96344 0.02450
2504.67767 0.02458
2503.39191 0.02473
2502.10614 0.02475
2500.82037 0.02454
2499.53460 0.02426
2498.24883 0.02423
2496.96306 0.02455
2495.67729 0.02505
2494.39152 0.02542
2493.10576 0.02552
2491.81999 0.02539
2490.53422 0.02513
2489.24845 0.02481
2487.96268 0.02450
2486.67691 0.02436
2485.39114 0.02442
2484.10537 0.02456
2482.81960 0.02463
2481.53384 0.02460
2480.24807 0.02454
2478.96230 0.02450
2477.67653 0.02450
2476.39076 0.02457
2475.10499 0.02465
2473.81922 0.02463
2472.53345 0.02438
2471.24769 0.02396
2469.96192 0.02354
2468.67615 0.02332
2467.39038 0.02333
2466.10461 0.02348
2464.81884 0.02364
2463.53307 0.02375
2462.24730 0.02383
2460.96153 0.02392
2459.67577 0.02399
2458.39000 0.02400
2457.10423 0.02388
2455.81846 0.02367
2454.53269 0.02349
2453.24692 0.02351
2451.96115 0.02386
2450.67538 0.02445
2449.38962 0.02496
2448.10385 0.02508
2446.81808 0.02477
2445.53231 0.02425
2444.24654 0.02384
2442.96077 0.02366
2441.67500 0.02366
2440.38923 0.02368
2439.10346 0.02366
2437.81770 0.02364
2436.53193 0.02367
2435.24616 0.02377
2433.96039 0.02395
2432.67462 0.02418
2431.38885 0.02435
2430.10308 0.02434
2428.81731 0.02412
2427.53155 0.02382
2426.24578 0.02353
2424.96001 0.02322
2423.67424 0.02287
2422.38847 0.02253
2421.10270 0.02228
2419.81693 0.02220
2418.53116 0.02235
2417.24539 0.02266
2415.95963 0.02298
2414.67386 0.02316
2413.38809 0.02328
2412.10232 0.02346
2410.81655 0.02369
2409.53078 0.02376
2408.24501 0.02347
2406.95924 0.02278
2405.67347 0.02190
2404.38771 0.02122
2403.10194 0.02110
2401.81617 0.02154
2400.53040 0.02228
2399.24463 0.02373
2397.95886 0.02344
2396.67309 0.02303
2395.38732 0.02298
2394.10156 0.02309
2392.81579 0.02319
2391.53002 0.02315
2390.24425 0.02288
2388.95848 0.02250
2387.67271 0.02217
2386.38694 0.02204
2385.10117 0.02209
2383.81540 0.02221
2382.52964 0.02228
2381.24387 0.02228
2379.95810 0.02224
2378.67233 0.02211
2377.38656 0.02192
2376.10079 0.02179
2374.81502 0.02186
2373.52925 0.02221
2372.24349 0.02272
2370.95772 0.02319
2369.67195 0.02339
2368.38618 0.02337
2367.10041 0.02331
2365.81464 0.02338
2364.52887 0.02349
2363.24310 0.02358
2361.95733 0.02367
2360.67157 0.02385
2359.38580 0.02389
2358.10003 0.02376
2356.81426 0.02364
2355.52849 0.02361
2354.24272 0.02361
2352.95695 0.02358
2351.67118 0.02358
2350.38542 0.02352
2349.09965 0.02325
2347.81388 0.02300
2346.52811 0.02326
2345.24234 0.02373
2343.95657 0.02367
2342.67080 0.02323
2341.38503 0.02352
2340.09926 0.02456
2338.81350 0.02477
2337.52773 0.02400
2336.24196 0.02404
2334.95619 0.02473
2333.67042 0.02433
2332.38465 0.02344
2331.09888 0.02393
2329.81311 0.02452
2328.52735 0.02397
2327.24158 0.02443
2325.95581 0.02555
2324.67004 0.02564
2323.38427 0.02579
2322.09850 0.02623
2320.81273 0.02568
2319.52696 0.02527
2318.24119 0.02509
2316.95543 0.02438
2315.66966 0.02392
2314.38389 0.02365
2313.09812 0.02319
2311.81235 0.02301
2310.52658 0.02281
2309.24081 0.02262
2307.95504 0.02256
2306.66928 0.02235
2305.38351 0.02217
2304.09774 0.02208
2302.81197 0.02207
2301.52620 0.02218
2300.24043 0.02217
2298.95466 0.02201
2297.66889 0.02174
2296.38312 0.02154
2295.09736 0.02158
2293.81159 0.02178
2292.52582 0.02198
2291.24005 0.02205
2289.95428 0.02211
2288.66851 0.02225
2287.38274 0.02236
2286.09697 0.02230
2284.81121 0.02209
2283.52544 0.02196
2282.23967 0.02210
2280.95390 0.02250
2279.66813 0.02288
2278.38236 0.02288
2277.09659 0.02234
2275.81082 0.02152
2274.52505 0.02085
2273.23929 0.02051
2271.95352 0.02029
2270.66775 0.01992
2269.38198 0.01941
2268.09621 0.01901
2266.81044 0.01896
2265.52467 0.01923
2264.23890 0.01951
2262.95314 0.01945
2261.66737 0.01891
2260.38160 0.01804
2259.09583 0.01719
2257.81006 0.01659
2256.52429 0.01617
2255.23852 0.01582
2253.95275 0.01571
2252.66698 0.01594
2251.38122 0.01616
2250.09545 0.01632
2248.80968 0.01744
2247.52391 0.01742
2246.23814 0.01754
2244.95237 0.01811
2243.66660 0.01882
2242.38083 0.01917
2241.09507 0.01890
2239.80930 0.01829
2238.52353 0.01783
2237.23776 0.01776
2235.95199 0.01794
2234.66622 0.01805
2233.38045 0.01800
2232.09468 0.01794
2230.80891 0.01794
2229.52315 0.01775
2228.23738 0.01714
2226.95161 0.01623
2225.66584 0.01541
2224.38007 0.01490
2223.09430 0.01467
2221.80853 0.01465
2220.52276 0.01483
2219.23700 0.01521
2217.95123 0.01567
2216.66546 0.01605
2215.37969 0.01626
2214.09392 0.01636
2212.80815 0.01653
2211.52238 0.01689
2210.23661 0.01730
2208.95084 0.01741
2207.66508 0.01703
2206.37931 0.01625
2205.09354 0.01540
2203.80777 0.01473
2202.52200 0.01429
2201.23623 0.01404
2199.95046 0.01406
2198.66469 0.01449
2197.37893 0.01515
2196.09316 0.01549
2194.80739 0.01518
2193.52162 0.01438
2192.23585 0.01360
2190.95008 0.01315
2189.66431 0.01310
2188.37854 0.01326
2187.09277 0.01325
2185.80701 0.01270
2184.52124 0.01167
2183.23547 0.01081
2181.94970 0.01081
2180.66393 0.01161
2179.37816 0.01229
2178.09239 0.01203
2176.80662 0.01104
2175.52085 0.01017
2174.23509 0.00982
2172.94932 0.00970
2171.66355 0.00959
2170.37778 0.00992
2169.09201 0.01112
2167.80624 0.01280
2166.52047 0.01387
2165.23470 0.01355
2163.94894 0.01216
2162.66317 0.01058
2161.37740 0.00924
2160.09163 0.00791
2158.80586 0.00650
2157.52009 0.00550
2156.23432 0.00524
2154.94855 0.00525
2153.66278 0.00495
2152.37702 0.00452
2151.09125 0.00465
2149.80548 0.00563
2148.51971 0.00710
2147.23394 0.00851
2145.94817 0.00950
2144.66240 0.00982
2143.37663 0.00940
2142.09087 0.00867
2140.80510 0.00836
2139.51933 0.00884
2138.23356 0.00969
2136.94779 0.01025
2135.66202 0.01030
2134.37625 0.01003
2133.09048 0.00965
2131.80471 0.00928
2130.51895 0.00914
2129.23318 0.00936
2127.94741 0.00976
2126.66164 0.01010
2125.37587 0.01041
2124.09010 0.01088
2122.80433 0.01141
2121.51856 0.01169
2120.23280 0.01178
2118.94703 0.01210
2117.66126 0.01279
2116.37549 0.01347
2115.08972 0.01374
2113.80395 0.01353
2112.51818 0.01314
2111.23241 0.01299
2109.94664 0.01336
2108.66088 0.01416
2107.37511 0.01488
2106.08934 0.01498
2104.80357 0.01441
2103.51780 0.01361
2102.23203 0.01306
2100.94626 0.01289
2099.66049 0.01363
2098.37473 0.01396
2097.08896 0.01341
2095.80319 0.01258
2094.51742 0.01193
2093.23165 0.01160
2091.94588 0.01157
2090.66011 0.01181
2089.37434 0.01219
2088.08857 0.01251
2086.80281 0.01255
2085.51704 0.01224
2084.23127 0.01174
2082.94550 0.01136
2081.65973 0.01133
2080.37396 0.01161
2079.08819 0.01201
2077.80242 0.01233
2076.51666 0.01253
2075.23089 0.01262
2073.94512 0.01263
2072.65935 0.01257
2071.37358 0.01245
2070.08781 0.01228
2068.80204 0.01205
2067.51627 0.01177
2066.23050 0.01137
2064.94474 0.01082
2063.65897 0.01020
2062.37320 0.00966
2061.08743 0.00940
2059.80166 0.00953
2058.51589 0.00990
2057.23012 0.01020
2055.94435 0.01025
2054.65859 0.01020
2053.37282 0.01035
2052.08705 0.01065
2050.80128 0.01064
2049.51551 0.00999
2048.22974 0.00897
2046.94397 0.00826
2045.65820 0.00820
2044.37243 0.00856
2043.08667 0.00893
2041.80090 0.00919
2040.51513 0.00945
2039.22936 0.00980
2037.94359 0.01021
2036.65782 0.01054
2035.37205 0.01064
2034.08628 0.01037
2032.80052 0.00956
2031.51475 0.00813
2030.22898 0.00638
2028.94321 0.00508
2027.65744 0.00508
2026.37167 0.00645
2025.08590 0.00824
2023.80013 0.00929
2022.51436 0.00911
2021.22860 0.00812
2019.94283 0.00709
2018.65706 0.00665
2017.37129 0.00699
2016.08552 0.00796
2014.79975 0.00920
2013.51398 0.01036
2012.22821 0.01124
2010.94245 0.01172
2009.65668 0.01161
2008.37091 0.01086
2007.08514 0.00962
2005.79937 0.00822
2004.51360 0.00699
2003.22783 0.00618
2001.94206 0.00601
2000.65629 0.00653
1999.37053 0.00744
1998.08476 0.00822
1996.79899 0.00850
1995.51322 0.00845
1994.22745 0.00865
1992.94168 0.00945
1991.65591 0.01055
1990.37014 0.01125
1989.08438 0.01116
1987.79861 0.01061
1986.51284 0.01017
1985.22707 0.01000
1983.94130 0.00986
1982.65553 0.00957
1981.36976 0.00937
1980.08399 0.00961
1978.79822 0.01031
1977.51246 0.01108
1976.22669 0.01155
1974.94092 0.01172
1973.65515 0.01188
1972.36938 0.01224
1971.08361 0.01277
1969.79784 0.01333
1968.51207 0.01375
1967.22631 0.01386
1965.94054 0.01354
1964.65477 0.01289
1963.36900 0.01215
1962.08323 0.01139
1960.79746 0.01054
1959.51169 0.00967
1958.22592 0.00905
1956.94015 0.00882
1955.65439 0.00880
1954.36862 0.00880
1953.08285 0.00893
1951.79708 0.00948
1950.51131 0.01043
1949.22554 0.01140
1947.93977 0.01199
1946.65400 0.01217
1945.36823 0.01226
1944.08247 0.01252
1942.79670 0.01295
1941.51093 0.01329
1940.22516 0.01329
1938.93939 0.01297
1937.65362 0.01256
1936.36785 0.01232
1935.08208 0.01233
1933.79632 0.01255
1932.51055 0.01291
1931.22478 0.01327
1929.93901 0.01349
1928.65324 0.01351
1927.36747 0.01334
1926.08170 0.01300
1924.79593 0.01254
1923.51016 0.01225
1922.22440 0.01243
1920.93863 0.01301
1919.65286 0.01356
1918.36709 0.01372
1917.08132 0.01353
1915.79555 0.01335
1914.50978 0.01340
1913.22401 0.01364
1911.93825 0.01390
1910.65248 0.01402
1909.36671 0.01397
1908.08094 0.01376
1906.79517 0.01344
1905.50940 0.01306
1904.22363 0.01275
1902.93786 0.01264
1901.65209 0.01279
1900.36633 0.01307
1899.08056 0.01328
1897.79479 0.01338
1896.50902 0.01346
1895.22325 0.01368
1893.93748 0.01403
1892.65171 0.01436
1891.36594 0.01448
1890.08018 0.01431
1888.79441 0.01391
1887.50864 0.01338
1886.22287 0.01286
1884.93710 0.01245
1883.65133 0.01227
1882.36556 0.01236
1881.07979 0.01261
1879.79402 0.01282
1878.50826 0.01291
1877.22249 0.01297
1875.93672 0.01311
1874.65095 0.01332
1873.36518 0.01350
1872.07941 0.01358
1870.79364 0.01353
1869.50787 0.01339
1868.22211 0.01324
1866.93634 0.01316
1865.65057 0.01321
1864.36480 0.01333
1863.07903 0.01345
1861.79326 0.01346
1860.50749 0.01332
1859.22172 0.01312
1857.93595 0.01298
1856.65019 0.01304
1855.36442 0.01328
1854.07865 0.01357
1852.79288 0.01374
1851.50711 0.01371
1850.22134 0.01348
1848.93557 0.01321
1847.64980 0.01307
1846.36404 0.01314
1845.07827 0.01336
1843.79250 0.01358
1842.50673 0.01368
1841.22096 0.01364
1839.93519 0.01356
1838.64942 0.01353
1837.36365 0.01354
1836.07788 0.01355
1834.79212 0.01356
1833.50635 0.01355
1832.22058 0.01347
1830.93481 0.01339
1829.64904 0.01341
1828.36327 0.01359
1827.07750 0.01389
1825.79173 0.01419
1824.50597 0.01439
1823.22020 0.01441
1821.93443 0.01423
1820.64866 0.01394
1819.36289 0.01366
1818.07712 0.01345
1816.79135 0.01330
1815.50558 0.01320
1814.21981 0.01311
1812.93405 0.01300
1811.64828 0.01286
1810.36251 0.01275
1809.07674 0.01272
1807.79097 0.01281
1806.50520 0.01300
1805.21943 0.01325
1803.93366 0.01347
1802.64790 0.01359
1801.36213 0.01360
1800.07636 0.01355
1798.79059 0.01353
1797.50482 0.01357
1796.21905 0.01369
1794.93328 0.01381
1793.64751 0.01389
1792.36174 0.01394
1791.07598 0.01405
1789.79021 0.01421
1788.50444 0.01435
1787.21867 0.01439
1785.93290 0.01435
1784.64713 0.01426
1783.36136 0.01420
1782.07559 0.01419
1780.78983 0.01425
1779.50406 0.01433
1778.21829 0.01437
1776.93252 0.01435
1775.64675 0.01428
1774.36098 0.01412
1773.07521 0.01391
1771.78944 0.01377
1770.50367 0.01372
1769.21791 0.01373
1767.93214 0.01373
1766.64637 0.01376
1765.36060 0.01383
1764.07483 0.01393
1762.78906 0.01402
1761.50329 0.01408
1760.21752 0.01407
1758.93176 0.01400
1757.64599 0.01393
1756.36022 0.01394
1755.07445 0.01400
1753.78868 0.01403
1752.50291 0.01400
1751.21714 0.01397
1749.93137 0.01400
1748.64560 0.01404
1747.35984 0.01406
1746.07407 0.01407
1744.78830 0.01408
1743.50253 0.01413
1742.21676 0.01420
1740.93099 0.01429
1739.64522 0.01440
1738.35945 0.01455
1737.07369 0.01466
1735.78792 0.01467
1734.50215 0.01463
1733.21638 0.01463
1731.93061 0.01466
1730.64484 0.01463
1729.35907 0.01457
1728.07330 0.01454
1726.78753 0.01454
1725.50177 0.01453
1724.21600 0.01456
1722.93023 0.01475
1721.64446 0.01511
1720.35869 0.01552
1719.07292 0.01585
1717.78715 0.01608
1716.50138 0.01627
1715.21561 0.01650
1713.92985 0.01679
1712.64408 0.01716
1711.35831 0.01763
1710.07254 0.01818
1708.78677 0.01877
1707.50100 0.01937
1706.21523 0.01996
1704.92946 0.02058
1703.64370 0.02124
1702.35793 0.02188
1701.07216 0.02251
1699.78639 0.02326
1698.50062 0.02405
1697.21485 0.02474
1695.92908 0.02535
1694.64331 0.02603
1693.35754 0.02674
1692.07178 0.02738
1690.78601 0.02800
1689.50024 0.02875
1688.21447 0.02963
1686.92870 0.03050
1685.64293 0.03127
1684.35716 0.03204
1683.07139 0.03289
1681.78563 0.03375
1680.49986 0.03454
1679.21409 0.03534
1677.92832 0.03615
1676.64255 0.03695
1675.35678 0.03774
1674.07101 0.03858
1672.78524 0.03943
1671.49947 0.04022
1670.21371 0.04096
1668.92794 0.04172
1667.64217 0.04253
1666.35640 0.04337
1665.07063 0.04418
1663.78486 0.04497
1662.49909 0.04576
1661.21332 0.04653
1659.92756 0.04725
1658.64179 0.04794
1657.35602 0.04869
1656.07025 0.04943
1654.78448 0.05004
1653.49871 0.05053
1652.21294 0.05102
1650.92717 0.05151
1649.64140 0.05183
1648.35564 0.05197
1647.06987 0.05204
1645.78410 0.05213
1644.49833 0.05219
1643.21256 0.05215
1641.92679 0.05205
1640.64102 0.05195
1639.35525 0.05187
1638.06949 0.05172
1636.78372 0.05144
1635.49795 0.05107
1634.21218 0.05063
1632.92641 0.05013
1631.64064 0.04955
1630.35487 0.04898
1629.06910 0.04848
1627.78333 0.04803
1626.49757 0.04755
1625.21180 0.04695
1623.92603 0.04623
1622.64026 0.04552
1621.35449 0.04492
1620.06872 0.04445
1618.78295 0.04399
1617.49718 0.04353
1616.21142 0.04315
1614.92565 0.04284
1613.63988 0.04255
1612.35411 0.04224
1611.06834 0.04195
1609.78257 0.04174
1608.49680 0.04159
1607.21103 0.04152
1605.92526 0.04148
1604.63950 0.04146
1603.35373 0.04145
1602.06796 0.04147
1600.78219 0.04152
1599.49642 0.04159
1598.21065 0.04169
1596.92488 0.04188
1595.63911 0.04217
1594.35335 0.04254
1593.06758 0.04290
1591.78181 0.04319
1590.49604 0.04342
1589.21027 0.04367
1587.92450 0.04398
1586.63873 0.04435
1585.35296 0.04477
1584.06719 0.04520
1582.78143 0.04564
1581.49566 0.04614
1580.20989 0.04672
1578.92412 0.04736
1577.63835 0.04797
1576.35258 0.04858
1575.06681 0.04924
1573.78104 0.04992
1572.49528 0.05051
1571.20951 0.05103
1569.92374 0.05156
1568.63797 0.05212
1567.35220 0.05271
1566.06643 0.05327
1564.78066 0.05387
1563.49489 0.05454
1562.20912 0.05518
1560.92336 0.05569
1559.63759 0.05607
1558.35182 0.05643
1557.06605 0.05678
1555.78028 0.05703
1554.49451 0.05719
1553.20874 0.05730
1551.92297 0.05737
1550.63721 0.05738
1549.35144 0.05737
1548.06567 0.05736
1546.77990 0.05731
1545.49413 0.05723
1544.20836 0.05713
1542.92259 0.05696
1541.63682 0.05664
1540.35105 0.05614
1539.06529 0.05561
1537.77952 0.05511
1536.49375 0.05460
1535.20798 0.05405
1533.92221 0.05352
1532.63644 0.05312
1531.35067 0.05282
1530.06490 0.05258
1528.77914 0.05240
1527.49337 0.05230
1526.20760 0.05229
1524.92183 0.05236
1523.63606 0.05244
1522.35029 0.05253
1521.06452 0.05267
1519.77875 0.05288
1518.49298 0.05306
1517.20722 0.05321
1515.92145 0.05342
1514.63568 0.05378
1513.34991 0.05430
1512.06414 0.05496
1510.77837 0.05571
1509.49260 0.05641
1508.20683 0.05694
1506.92107 0.05736
1505.63530 0.05779
1504.34953 0.05826
1503.06376 0.05869
1501.77799 0.05907
1500.49222 0.05948
1499.20645 0.05991
1497.92068 0.06026
1496.63491 0.06047
1495.34915 0.06062
1494.06338 0.06076
1492.77761 0.06095
1491.49184 0.06121
1490.20607 0.06160
1488.92030 0.06210
1487.63453 0.06268
1486.34876 0.06327
1485.06299 0.06386
1483.77723 0.06446
1482.49146 0.06510
1481.20569 0.06583
1479.91992 0.06667
1478.63415 0.06760
1477.34838 0.06856
1476.06261 0.06950
1474.77684 0.07036
1473.49108 0.07113
1472.20531 0.07189
1470.91954 0.07264
1469.63377 0.07334
1468.34800 0.07398
1467.06223 0.07458
1465.77646 0.07521
1464.49069 0.07590
1463.20492 0.07665
1461.91916 0.07745
1460.63339 0.07830
1459.34762 0.07917
1458.06185 0.08003
1456.77608 0.08092
1455.49031 0.08182
1454.20454 0.08261
1452.91877 0.08322
1451.63301 0.08370
1450.34724 0.08413
1449.06147 0.08451
1447.77570 0.08480
1446.48993 0.08501
1445.20416 0.08513
1443.91839 0.08521
1442.63262 0.08528
1441.34685 0.08531
1440.06109 0.08528
1438.77532 0.08513
1437.48955 0.08493
1436.20378 0.08481
1434.91801 0.08484
1433.63224 0.08498
1432.34647 0.08524
1431.06070 0.08564
1429.77494 0.08622
1428.48917 0.08695
1427.20340 0.08780
1425.91763 0.08874
1424.63186 0.08978
1423.34609 0.09090
1422.06032 0.09196
1420.77455 0.09286
1419.48878 0.09367
1418.20302 0.09446
1416.91725 0.09521
1415.63148 0.09586
1414.34571 0.09638
1413.05994 0.09679
1411.77417 0.09714
1410.48840 0.09739
1409.20263 0.09750
1407.91687 0.09741
1406.63110 0.09709
1405.34533 0.09657
1404.05956 0.09589
1402.77379 0.09508
1401.48802 0.09411
1400.20225 0.09296
1398.91648 0.09171
1397.63071 0.09040
1396.34495 0.08905
1395.05918 0.08764
1393.77341 0.08618
1392.48764 0.08469
1391.20187 0.08316
1389.91610 0.08158
1388.63033 0.07997
1387.34456 0.07838
1386.05880 0.07686
1384.77303 0.07539
1383.48726 0.07394
1382.20149 0.07246
1380.91572 0.07097
1379.62995 0.06952
1378.34418 0.06812
1377.05841 0.06671
1375.77264 0.06522
1374.48688 0.06362
1373.20111 0.06197
1371.91534 0.06032
1370.62957 0.05868
1369.34380 0.05707
1368.05803 0.05554
1366.77226 0.05413
1365.48649 0.05281
1364.20073 0.05155
1362.91496 0.05033
1361.62919 0.04916
1360.34342 0.04807
1359.05765 0.04710
1357.77188 0.04626
1356.48611 0.04552
1355.20034 0.04484
1353.91457 0.04416
1352.62881 0.04350
1351.34304 0.04289
1350.05727 0.04237
1348.77150 0.04192
1347.48573 0.04151
1346.19996 0.04111
1344.91419 0.04071
1343.62842 0.04034
1342.34266 0.03999
1341.05689 0.03964
1339.77112 0.03931
1338.48535 0.03901
1337.19958 0.03872
1335.91381 0.03840
1334.62804 0.03802
1333.34227 0.03759
1332.05650 0.03715
1330.77074 0.03672
1329.48497 0.03629
1328.19920 0.03584
1326.91343 0.03537
1325.62766 0.03496
1324.34189 0.03463
1323.05612 0.03435
1321.77035 0.03409
1320.48459 0.03381
1319.19882 0.03350
1317.91305 0.03321
1316.62728 0.03296
1315.34151 0.03273
1314.05574 0.03248
1312.76997 0.03221
1311.48420 0.03194
1310.19843 0.03171
1308.91267 0.03151
1307.62690 0.03131
1306.34113 0.03105
1305.05536 0.03073
1303.76959 0.03038
1302.48382 0.03005
1301.19805 0.02974
1299.91228 0.02944
1298.62652 0.02915
1297.34075 0.02885
1296.05498 0.02858
1294.76921 0.02834
1293.48344 0.02816
1292.19767 0.02803
1290.91190 0.02793
1289.62613 0.02784
1288.34036 0.02774
1287.05460 0.02763
1285.76883 0.02749
1284.48306 0.02735
1283.19729 0.02721
1281.91152 0.02709
1280.62575 0.02697
1279.33998 0.02684
1278.05421 0.02672
1276.76845 0.02659
1275.48268 0.02644
1274.19691 0.02625
1272.91114 0.02604
1271.62537 0.02585
1270.33960 0.02574
1269.05383 0.02571
1267.76806 0.02576
1266.48229 0.02581
1265.19653 0.02581
1263.91076 0.02574
1262.62499 0.02560
1261.33922 0.02545
1260.05345 0.02533
1258.76768 0.02527
1257.48191 0.02528
1256.19614 0.02533
1254.91037 0.02537
1253.62461 0.02538
1252.33884 0.02537
1251.05307 0.02537
1249.76730 0.02537
1248.48153 0.02534
1247.19576 0.02528
1245.90999 0.02519
1244.62422 0.02513
1243.33846 0.02509
1242.05269 0.02507
1240.76692 0.02502
1239.48115 0.02494
1238.19538 0.02484
1236.90961 0.02473
1235.62384 0.02460
1234.33807 0.02445
1233.05230 0.02429
1231.76654 0.02416
1230.48077 0.02404
1229.19500 0.02389
1227.90923 0.02367
1226.62346 0.02340
1225.33769 0.02314
1224.05192 0.02291
1222.76615 0.02269
1221.48039 0.02245
1220.19462 0.02218
1218.90885 0.02190
1217.62308 0.02165
1216.33731 0.02143
1215.05154 0.02127
1213.76577 0.02116
1212.48000 0.02108
1211.19423 0.02100
1209.90847 0.02094
1208.62270 0.02089
1207.33693 0.02087
1206.05116 0.02087
1204.76539 0.02089
1203.47962 0.02089
1202.19385 0.02079
1200.90808 0.02054
1199.62232 0.02039
1198.33655 0.02015
1197.05078 0.01989
1195.76501 0.01967
1194.47924 0.01956
1193.19347 0.01951
1191.90770 0.01946
1190.62193 0.01934
1189.33616 0.01915
1188.05040 0.01895
1186.76463 0.01881
1185.47886 0.01874
1184.19309 0.01871
1182.90732 0.01865
1181.62155 0.01855
1180.33578 0.01843
1179.05001 0.01833
1177.76425 0.01827
1176.47848 0.01825
1175.19271 0.01826
1173.90694 0.01825
1172.62117 0.01823
1171.33540 0.01820
1170.04963 0.01818
1168.76386 0.01817
1167.47809 0.01819
1166.19233 0.01823
1164.90656 0.01827
1163.62079 0.01829
1162.33502 0.01828
1161.04925 0.01823
1159.76348 0.01817
1158.47771 0.01813
1157.19194 0.01816
1155.90618 0.01829
1154.62041 0.01848
1153.33464 0.01864
1152.04887 0.01871
1150.76310 0.01867
1149.47733 0.01859
1148.19156 0.01855
1146.90579 0.01862
1145.62002 0.01882
1144.33426 0.01916
1143.04849 0.01961
1141.76272 0.02016
1140.47695 0.02079
1139.19118 0.02148
1137.90541 0.02219
1136.61964 0.02293
1135.33387 0.02374
1134.04811 0.02468
1132.76234 0.02577
1131.47657 0.02700
1130.19080 0.02836
1128.90503 0.02989
1127.61926 0.03164
1126.33349 0.03361
1125.04772 0.03577
1123.76195 0.03806
1122.47619 0.04046
1121.19042 0.04294
1119.90465 0.04546
1118.61888 0.04800
1117.33311 0.05056
1116.04734 0.05314
1114.76157 0.05571
1113.47580 0.05823
1112.19004 0.06065
1110.90427 0.06291
1109.61850 0.06503
1108.33273 0.06702
1107.04696 0.06895
1105.76119 0.07088
1104.47542 0.07281
1103.18965 0.07468
1101.90388 0.07643
1100.61812 0.07804
1099.33235 0.07961
1098.04658 0.08119
1096.76081 0.08275
1095.47504 0.08422
1094.18927 0.08552
1092.90350 0.08669
1091.61773 0.08777
1090.33197 0.08879
1089.04620 0.08975
1087.76043 0.09068
1086.47466 0.09160
1085.18889 0.09250
1083.90312 0.09339
1082.61735 0.09434
1081.33158 0.09543
1080.04581 0.09669
1078.76005 0.09810
1077.47428 0.09967
1076.18851 0.10137
1074.90274 0.10316
1073.61697 0.10499
1072.33120 0.10681
1071.04543 0.10865
1069.75966 0.11051
1068.47390 0.11241
1067.18813 0.11436
1065.90236 0.11636
1064.61659 0.11838
1063.33082 0.12039
1062.04505 0.12239
1060.75928 0.12439
1059.47351 0.12641
1058.18774 0.12840
1056.90198 0.13033
1055.61621 0.13217
1054.33044 0.13396
1053.04467 0.13575
1051.75890 0.13758
1050.47313 0.13951
1049.18736 0.14156
1047.90159 0.14371
1046.61583 0.14587
1045.33006 0.14799
1044.04429 0.15005
1042.75852 0.15208
1041.47275 0.15409
1040.18698 0.15613
1038.90121 0.15824
1037.61544 0.16043
1036.32967 0.16265
1035.04391 0.16486
1033.75814 0.16703
1032.47237 0.16911
1031.18660 0.17107
1029.90083 0.17290
1028.61506 0.17456
1027.32929 0.17603
1026.04352 0.17729
1024.75775 0.17838
1023.47199 0.17935
1022.18622 0.18021
1020.90045 0.18095
1019.61468 0.18148
1018.32891 0.18175
1017.04314 0.18172
1015.75737 0.18141
1014.47160 0.18088
1013.18584 0.18019
1011.90007 0.17929
1010.61430 0.17815
1009.32853 0.17670
1008.04276 0.17496
1006.75699 0.17298
1005.47122 0.17080
1004.18545 0.16844
1002.89968 0.16585
1001.61392 0.16298
1000.32815 0.15985
999.04238 0.15652
997.75661 0.15306
996.47084 0.14948
995.18507 0.14579
993.89930 0.14201
992.61353 0.13812
991.32777 0.13413
990.04200 0.13005
988.75623 0.12597
987.47046 0.12201
986.18469 0.11826
984.89892 0.11469
983.61315 0.11121
982.32738 0.10776
981.04161 0.10435
979.75585 0.10109
978.47008 0.09802
977.18431 0.09516
975.89854 0.09251
974.61277 0.09012
973.32700 0.08811
972.04123 0.08654
970.75546 0.08543
969.46970 0.08473
968.18393 0.08446
966.89816 0.08465
965.61239 0.08521
964.32662 0.08593
963.04085 0.08654
961.75508 0.08683
960.46931 0.08673
959.18354 0.08623
957.89778 0.08533
956.61201 0.08406
955.32624 0.08251
954.04047 0.08085
952.75470 0.07916
951.46893 0.07743
950.18316 0.07562
948.89739 0.07371
947.61163 0.07181
946.32586 0.07002
945.04009 0.06838
943.75432 0.06686
942.46855 0.06539
941.18278 0.06393
939.89701 0.06251
938.61124 0.06113
937.32547 0.05978
936.03971 0.05847
934.75394 0.05725
933.46817 0.05615
932.18240 0.05520
930.89663 0.05433
929.61086 0.05350
928.32509 0.05266
927.03932 0.05180
925.75356 0.05090
924.46779 0.05002
923.18202 0.04921
921.89625 0.04852
920.61048 0.04791
919.32471 0.04728
918.03894 0.04657
916.75317 0.04583
915.46740 0.04518
914.18164 0.04469
912.89587 0.04433
911.61010 0.04399
910.32433 0.04358
909.03856 0.04309
907.75279 0.04258
906.46702 0.04215
905.18125 0.04182
903.89549 0.04152
902.60972 0.04118
901.32395 0.04071
900.03818 0.04015
898.75241 0.03961
897.46664 0.03918
896.18087 0.03883
894.89510 0.03854
893.60933 0.03829
892.32357 0.03813
891.03780 0.03806
889.75203 0.03808
888.46626 0.03821
887.18049 0.03858
885.89472 0.03934
884.60895 0.04068
883.32318 0.04268
882.03742 0.04515
880.75165 0.04769
879.46588 0.04987
878.18011 0.05157
876.89434 0.05299
875.60857 0.05442
874.32280 0.05590
873.03703 0.05720
871.75126 0.05802
870.46550 0.05818
869.17973 0.05768
867.89396 0.05655
866.60819 0.05483
865.32242 0.05264
864.03665 0.05023
862.75088 0.04787
861.46511 0.04577
860.17935 0.04401
858.89358 0.04260
857.60781 0.04149
856.32204 0.04056
855.03627 0.03972
853.75050 0.03894
852.46473 0.03829
851.17896 0.03782
849.89319 0.03749
848.60743 0.03719
847.32166 0.03680
846.03589 0.03633
844.75012 0.03584
843.46435 0.03540
842.17858 0.03505
840.89281 0.03481
839.60704 0.03466
838.32128 0.03452
837.03551 0.03432
835.74974 0.03405
834.46397 0.03372
833.17820 0.03339
831.89243 0.03311
830.60666 0.03294
829.32089 0.03289
828.03512 0.03293
826.74936 0.03301
825.46359 0.03305
824.17782 0.03304
822.89205 0.03297
821.60628 0.03290
820.32051 0.03283
819.03474 0.03272
817.74897 0.03257
816.46321 0.03241
815.17744 0.03227
813.89167 0.03217
812.60590 0.03211
811.32013 0.03206
810.03436 0.03201
808.74859 0.03189
807.46282 0.03167
806.17705 0.03142
804.89129 0.03122
803.60552 0.03115
802.31975 0.03120
801.03398 0.03130
799.74821 0.03141
798.46244 0.03146
797.17667 0.03143
795.89090 0.03135
794.60513 0.03125
793.31937 0.03115
792.03360 0.03107
790.74783 0.03103
789.46206 0.03104
788.17629 0.03107
786.89052 0.03107
785.60475 0.03102
784.31898 0.03094
783.03322 0.03082
781.74745 0.03068
780.46168 0.03058
779.17591 0.03059
777.89014 0.03070
776.60437 0.03080
775.31860 0.03080
774.03283 0.03072
772.74706 0.03062
771.46130 0.03057
770.17553 0.03059
768.88976 0.03067
767.60399 0.03076
766.31822 0.03083
765.03245 0.03091
763.74668 0.03103
762.46091 0.03114
761.17515 0.03116
759.88938 0.03103
758.60361 0.03087
757.31784 0.03080
756.03207 0.03087
754.74630 0.03103
753.46053 0.03122
752.17476 0.03137
750.88899 0.03138
749.60323 0.03124
748.31746 0.03101
747.03169 0.03084
745.74592 0.03075
744.46015 0.03071
743.17438 0.03063
741.88861 0.03050
740.60284 0.03039
739.31708 0.03035
738.03131 0.03038
736.74554 0.03038
735.45977 0.03032
734.17400 0.03024
732.88823 0.03023
731.60246 0.03032
730.31669 0.03045
729.03092 0.03053
727.74516 0.03053
726.45939 0.03046
725.17362 0.03036
723.88785 0.03054
722.60208 0.03039
721.31631 0.03032
720.03054 0.03038
718.74477 0.03048
717.45901 0.03061
716.17324 0.03074
714.88747 0.03084
713.60170 0.03087
712.31593 0.03082
711.03016 0.03072
709.74439 0.03059
708.45862 0.03046
707.17285 0.03035
705.88709 0.03027
704.60132 0.03025
703.31555 0.03030
702.02978 0.03040
700.74401 0.03048
699.45824 0.03051
698.17247 0.03051
696.88670 0.03049
695.60094 0.03048
694.31517 0.03047
693.02940 0.03044
691.74363 0.03037
690.45786 0.03028
689.17209 0.03018
687.88632 0.03012
686.60055 0.03009
685.31478 0.03005
684.02902 0.02996
682.74325 0.02981
681.45748 0.02965
680.17171 0.02955
678.88594 0.02953
677.60017 0.02959
676.31440 0.02971
675.02863 0.02988
673.74287 0.03007
672.45710 0.03029
671.17133 0.03052
669.88556 0.03074
668.59979 0.03084
667.31402 0.03080
666.02825 0.03075
664.74248 0.03060
663.45671 0.03050
662.17095 0.03046
660.88518 0.03041
659.59941 0.03027
658.31364 0.03005
657.02787 0.02980
655.74210 0.02957
654.45633 0.02936
653.17056 0.02915
651.88480 0.02894
650.59903 0.02877
649.31326 0.02867
648.02749 0.02863
646.74172 0.02859
645.45595 0.02852
644.17018 0.02844
642.88441 0.02834
641.59864 0.02824
640.31288 0.02816
639.02711 0.02815
637.74134 0.02823
636.45557 0.02838
635.16980 0.02855
633.88403 0.02877
632.59826 0.02893
631.31249 0.02854
630.02673 0.02787
628.74096 0.02938
627.45519 0.03114
626.16942 0.03448
624.88365 0.03883
623.59788 0.04274
622.31211 0.04520
621.02634 0.04614
619.74057 0.04650
618.45481 0.04715
617.16904 0.04807
615.88327 0.04906
614.59750 0.05061
613.31173 0.05362
612.02596 0.05827
610.74019 0.06372
609.45442 0.06885
608.16866 0.07323
606.88289 0.07695
605.59712 0.08014
604.31135 0.08263
603.02558 0.08407
601.73981 0.08408
600.45404 0.08264
599.16827 0.08019
597.88250 0.07735
596.59674 0.07457
595.31097 0.07204
594.02520 0.06984
592.73943 0.06807
591.45366 0.06682
590.16789 0.06603
588.88212 0.06558
587.59635 0.06543
586.31059 0.06568
585.02482 0.06647
583.73905 0.06782
582.45328 0.06955
581.16751 0.07143
579.88174 0.07327
578.59597 0.07500
577.31020 0.07665
576.02443 0.07824
574.73867 0.07980
573.45290 0.08139
572.16713 0.08310
570.88136 0.08504
569.59559 0.08724
568.30982 0.08972
567.02405 0.09242
565.73828 0.09528
564.45251 0.09805
563.16675 0.10032
561.88098 0.10166
560.59521 0.10180
559.30944 0.10077
558.02367 0.09867
556.73790 0.09563
555.45213 0.09185
554.16636 0.08768
552.88060 0.08351
551.59483 0.07956
550.30906 0.07583
549.02329 0.07220
547.73752 0.06867
546.45175 0.06541
545.16598 0.06262
543.88021 0.06034
542.59444 0.05848
541.30868 0.05681
540.02291 0.05516
538.73714 0.05348
537.45137 0.05187
536.16560 0.05045
534.87983 0.04926
533.59406 0.04825
532.30829 0.04728
531.02253 0.04627
529.73676 0.04515
528.45099 0.04398
527.16522 0.04284
525.87945 0.04188
524.59368 0.04118
523.30791 0.04072
522.02214 0.04034
520.73637 0.03984
519.45061 0.03914
518.16484 0.03833
516.87907 0.03756
515.59330 0.03687
514.30753 0.03625
513.02176 0.03565
511.73599 0.03512
510.45022 0.03469
509.16446 0.03434
507.87869 0.03395
506.59292 0.03348
505.30715 0.03301
504.02138 0.03266
502.73561 0.03244
501.44984 0.03222
500.16407 0.03189
498.87830 0.03144
497.59254 0.03095
496.30677 0.03047
495.02100 0.03002
493.73523 0.02962
492.44946 0.02932
491.16369 0.02913
489.87792 0.02901
488.59215 0.02890
487.30639 0.02875
486.02062 0.02857
484.73485 0.02839
483.44908 0.02823
482.16331 0.02805
480.87754 0.02784
479.59177 0.02767
478.30600 0.02760
477.02023 0.02766
475.73447 0.02781
474.44870 0.02803
473.16293 0.02828
471.87716 0.02850
470.59139 0.02860
469.30562 0.02854
468.01985 0.02832
466.73408 0.02801
465.44832 0.02763
464.16255 0.02721
462.87678 0.02676
461.59101 0.02632
460.30524 0.02590
459.01947 0.02552
457.73370 0.02518
456.44793 0.02486
455.16216 0.02453
453.87640 0.02416
452.59063 0.02380
451.30486 0.02349
450.01909 0.02322
448.73332 0.02300
447.44755 0.02282
446.16178 0.02267
444.87601 0.02253
443.59025 0.02237
442.30448 0.02218
441.01871 0.02199
439.73294 0.02184
438.44717 0.02174
437.16140 0.02166
435.87563 0.02153
434.58986 0.02134
433.30409 0.02110
432.01833 0.02087
430.73256 0.02070
429.44679 0.02060
428.16102 0.02054
426.87525 0.02046
425.58948 0.02031
424.30371 0.02009
423.01794 0.01990
421.73218 0.01980
420.44641 0.01978
419.16064 0.01976
417.87487 0.01967
416.58910 0.01947
415.30333 0.01921
414.01756 0.01896
412.73179 0.01875
411.44602 0.01859
410.16026 0.01849
408.87449 0.01845
407.58872 0.01848
406.30295 0.01855
405.01718 0.01861
403.73141 0.01865
402.44564 0.01867
401.15987 0.01873
399.87411 0.01881
