3997.45528	0.04584
3996.16951	0.04599
3994.88374	0.04583
3993.59798	0.04546
3992.31221	0.04538
3991.02644	0.04580
3989.74067	0.04628
3988.45490	0.04612
3987.16913	0.04523
3985.88336	0.04427
3984.59759	0.04407
3983.31183	0.04488
3982.02606	0.04627
3980.74029	0.04769
3979.45452	0.04878
3978.16875	0.04946
3976.88298	0.04978
3975.59721	0.04972
3974.31144	0.04906
3973.02567	0.04757
3971.73991	0.04546
3970.45414	0.04349
3969.16837	0.04242
3967.88260	0.04250
3966.59683	0.04349
3965.31106	0.04481
3964.02529	0.04582
3962.73952	0.04612
3961.45376	0.04576
3960.16799	0.04523
3958.88222	0.04490
3957.59645	0.04489
3956.31068	0.04514
3955.02491	0.04564
3953.73914	0.04633
3952.45337	0.04707
3951.16760	0.04763
3949.88184	0.04773
3948.59607	0.04697
3947.31030	0.04524
3946.02453	0.04307
3944.73876	0.04152
3943.45299	0.04140
3942.16722	0.04260
3940.88145	0.04424
3939.59569	0.04543
3938.30992	0.04580
3937.02415	0.04547
3935.73838	0.04476
3934.45261	0.04412
3933.16684	0.04405
3931.88107	0.04476
3930.59530	0.04590
3929.30953	0.04679
3928.02377	0.04695
3926.73800	0.04641
3925.45223	0.04558
3924.16646	0.04498
3922.88069	0.04510
3921.59492	0.04610
3920.30915	0.04752
3919.02338	0.04860
3917.73762	0.04886
3916.45185	0.04833
3915.16608	0.04727
3913.88031	0.04591
3912.59454	0.04453
3911.30877	0.04357
3910.02300	0.04345
3908.73723	0.04414
3907.45146	0.04511
3906.16570	0.04558
3904.87993	0.04515
3903.59416	0.04417
3902.30839	0.04339
3901.02262	0.04317
3899.73685	0.04329
3898.45108	0.04342
3897.16531	0.04351
3895.87955	0.04358
3894.59378	0.04337
3893.30801	0.04270
3892.02224	0.04183
3890.73647	0.04130
3889.45070	0.04137
3888.16493	0.04184
3886.87916	0.04236
3885.59339	0.04266
3884.30763	0.04262
3883.02186	0.04227
3881.73609	0.04198
3880.45032	0.04214
3879.16455	0.04282
3877.87878	0.04366
3876.59301	0.04434
3875.30724	0.04490
3874.02148	0.04563
3872.73571	0.04670
3871.44994	0.04779
3870.16417	0.04818
3868.87840	0.04730
3867.59263	0.04529
3866.30686	0.04293
3865.02109	0.04103
3863.73532	0.03991
3862.44956	0.03947
3861.16379	0.03954
3859.87802	0.04012
3858.59225	0.04122
3857.30648	0.04263
3856.02071	0.04393
3854.73494	0.04473
3853.44917	0.04491
3852.16341	0.04467
3850.87764	0.04418
3849.59187	0.04355
3848.30610	0.04289
3847.02033	0.04239
3845.73456	0.04211
3844.44879	0.04192
3843.16302	0.04167
3841.87725	0.04137
3840.59149	0.04116
3839.30572	0.04113
3838.01995	0.04127
3836.73418	0.04142
3835.44841	0.04142
3834.16264	0.04125
3832.87687	0.04108
3831.59110	0.04110
3830.30534	0.04124
3829.01957	0.04126
3827.73380	0.04101
3826.44803	0.04060
3825.16226	0.04031
3823.87649	0.04029
3822.59072	0.04049
3821.30495	0.04081
3820.01918	0.04126
3818.73342	0.04186
3817.44765	0.04249
3816.16188	0.04287
3814.87611	0.04289
3813.59034	0.04266
3812.30457	0.04238
3811.01880	0.04219
3809.73303	0.04214
3808.44726	0.04220
3807.16150	0.04225
3805.87573	0.04218
3804.58996	0.04197
3803.30419	0.04172
3802.01842	0.04146
3800.73265	0.04107
3799.44688	0.04046
3798.16111	0.03969
3796.87535	0.03896
3795.58958	0.03846
3794.30381	0.03828
3793.01804	0.03849
3791.73227	0.03906
3790.44650	0.03981
3789.16073	0.04041
3787.87496	0.04060
3786.58919	0.04040
3785.30343	0.04006
3784.01766	0.03980
3782.73189	0.03962
3781.44612	0.03949
3780.16035	0.03952
3778.87458	0.03991
3777.58881	0.04062
3776.30304	0.04126
3775.01728	0.04140
3773.73151	0.04101
3772.44574	0.04046
3771.15997	0.04013
3769.87420	0.04022
3768.58843	0.04068
3767.30266	0.04126
3766.01689	0.04151
3764.73112	0.04103
3763.44536	0.03988
3762.15959	0.03865
3760.87382	0.03797
3759.58805	0.03788
3758.30228	0.03783
3757.01651	0.03735
3755.73074	0.03651
3754.44497	0.03576
3753.15921	0.03551
3751.87344	0.03589
3750.58767	0.03681
3749.30190	0.03805
3748.01613	0.03919
3746.73036	0.03965
3745.44459	0.03910
3744.15882	0.03778
3742.87305	0.03642
3741.58729	0.03578
3740.30152	0.03611
3739.01575	0.03708
3737.72998	0.03817
3736.44421	0.03902
3735.15844	0.03958
3733.87267	0.03989
3732.58690	0.03992
3731.30114	0.03965
3730.01537	0.03923
3728.72960	0.03900
3727.44383	0.03900
3726.15806	0.03887
3724.87229	0.03826
3723.58652	0.03721
3722.30075	0.03619
3721.01498	0.03557
3719.72922	0.03533
3718.44345	0.03531
3717.15768	0.03541
3715.87191	0.03571
3714.58614	0.03627
3713.30037	0.03700
3712.01460	0.03769
3710.72883	0.03822
3709.44307	0.03864
3708.15730	0.03908
3706.87153	0.03937
3705.58576	0.03912
3704.29999	0.03808
3703.01422	0.03657
3701.72845	0.03533
3700.44268	0.03489
3699.15691	0.03517
3697.87115	0.03586
3696.58538	0.03683
3695.29961	0.03805
3694.01384	0.03938
3692.72807	0.04062
3691.44230	0.04143
3690.15653	0.04153
3688.87076	0.04092
3687.58500	0.03987
3686.29923	0.03861
3685.01346	0.03742
3683.72769	0.03639
3682.44192	0.03552
3681.15615	0.03498
3679.87038	0.03508
3678.58461	0.03608
3677.29884	0.03792
3676.01308	0.03997
3674.72731	0.04154
3673.44154	0.04246
3672.15577	0.04303
3670.87000	0.04354
3669.58423	0.04372
3668.29846	0.04307
3667.01269	0.04157
3665.72693	0.03995
3664.44116	0.03907
3663.15539	0.03917
3661.86962	0.03973
3660.58385	0.04005
3659.29808	0.03976
3658.01231	0.03897
3656.72654	0.03814
3655.44077	0.03779
3654.15501	0.03821
3652.86924	0.03926
3651.58347	0.04048
3650.29770	0.04130
3649.01193	0.04136
3647.72616	0.04079
3646.44039	0.04028
3645.15462	0.04069
3643.86886	0.04230
3642.58309	0.04446
3641.29732	0.04598
3640.01155	0.04604
3638.72578	0.04475
3637.44001	0.04296
3636.15424	0.04162
3634.86847	0.04123
3633.58270	0.04171
3632.29694	0.04262
3631.01117	0.04345
3629.72540	0.04389
3628.43963	0.04391
3627.15386	0.04368
3625.86809	0.04340
3624.58232	0.04330
3623.29655	0.04366
3622.01079	0.04459
3620.72502	0.04581
3619.43925	0.04684
3618.15348	0.04748
3616.86771	0.04788
3615.58194	0.04818
3614.29617	0.04823
3613.01040	0.04795
3611.72463	0.04774
3610.43887	0.04809
3609.15310	0.04894
3607.86733	0.04957
3606.58156	0.04942
3605.29579	0.04867
3604.01002	0.04794
3602.72425	0.04762
3601.43848	0.04772
3600.15272	0.04813
3598.86695	0.04861
3597.58118	0.04886
3596.29541	0.04878
3595.00964	0.04880
3593.72387	0.04948
3592.43810	0.05094
3591.15233	0.05260
3589.86656	0.05369
3588.58080	0.05393
3587.29503	0.05354
3586.00926	0.05293
3584.72349	0.05232
3583.43772	0.05175
3582.15195	0.05114
3580.86618	0.05046
3579.58041	0.04980
3578.29464	0.04940
3577.00888	0.04956
3575.72311	0.05049
3574.43734	0.05204
3573.15157	0.05371
3571.86580	0.05497
3570.58003	0.05555
3569.29426	0.05554
3568.00849	0.05533
3566.72273	0.05542
3565.43696	0.05600
3564.15119	0.05671
3562.86542	0.05701
3561.57965	0.05677
3560.29388	0.05642
3559.00811	0.05647
3557.72234	0.05703
3556.43657	0.05783
3555.15081	0.05853
3553.86504	0.05893
3552.57927	0.05898
3551.29350	0.05885
3550.00773	0.05891
3548.72196	0.05937
3547.43619	0.06005
3546.15042	0.06052
3544.86466	0.06049
3543.57889	0.06007
3542.29312	0.05965
3541.00735	0.05957
3539.72158	0.05986
3538.43581	0.06024
3537.15004	0.06050
3535.86427	0.06073
3534.57850	0.06109
3533.29274	0.06146
3532.00697	0.06147
3530.72120	0.06095
3529.43543	0.06024
3528.14966	0.06011
3526.86389	0.06104
3525.57812	0.06272
3524.29235	0.06425
3523.00659	0.06490
3521.72082	0.06468
3520.43505	0.06422
3519.14928	0.06406
3517.86351	0.06431
3516.57774	0.06474
3515.29197	0.06508
3514.00620	0.06527
3512.72043	0.06538
3511.43467	0.06548
3510.14890	0.06563
3508.86313	0.06587
3507.57736	0.06613
3506.29159	0.06622
3505.00582	0.06598
3503.72005	0.06558
3502.43428	0.06539
3501.14852	0.06562
3499.86275	0.06609
3498.57698	0.06646
3497.29121	0.06653
3496.00544	0.06640
3494.71967	0.06631
3493.43390	0.06632
3492.14813	0.06632
3490.86236	0.06634
3489.57660	0.06658
3488.29083	0.06724
3487.00506	0.06816
3485.71929	0.06889
3484.43352	0.06897
3483.14775	0.06831
3481.86198	0.06740
3480.57621	0.06700
3479.29045	0.06752
3478.00468	0.06870
3476.71891	0.06989
3475.43314	0.07071
3474.14737	0.07126
3472.86160	0.07178
3471.57583	0.07221
3470.29006	0.07237
3469.00429	0.07230
3467.71853	0.07231
3466.43276	0.07256
3465.14699	0.07286
3463.86122	0.07282
3462.57545	0.07232
3461.28968	0.07159
3460.00391	0.07105
3458.71814	0.07097
3457.43238	0.07124
3456.14661	0.07158
3454.86084	0.07181
3453.57507	0.07202
3452.28930	0.07234
3451.00353	0.07271
3449.71776	0.07294
3448.43199	0.07302
3447.14622	0.07308
3445.86046	0.07320
3444.57469	0.07324
3443.28892	0.07312
3442.00315	0.07292
3440.71738	0.07283
3439.43161	0.07286
3438.14584	0.07295
3436.86007	0.07314
3435.57431	0.07356
3434.28854	0.07418
3433.00277	0.07478
3431.71700	0.07504
3430.43123	0.07484
3429.14546	0.07434
3427.85969	0.07392
3426.57392	0.07385
3425.28815	0.07415
3424.00239	0.07458
3422.71662	0.07495
3421.43085	0.07529
3420.14508	0.07565
3418.85931	0.07597
3417.57354	0.07600
3416.28777	0.07566
3415.00200	0.07516
3413.71624	0.07483
3412.43047	0.07490
3411.14470	0.07540
3409.85893	0.07617
3408.57316	0.07690
3407.28739	0.07733
3406.00162	0.07738
3404.71585	0.07716
3403.43008	0.07679
3402.14432	0.07633
3400.85855	0.07595
3399.57278	0.07588
3398.28701	0.07627
3397.00124	0.07695
3395.71547	0.07758
3394.42970	0.07796
3393.14393	0.07813
3391.85817	0.07835
3390.57240	0.07883
3389.28663	0.07947
3388.00086	0.07994
3386.71509	0.07999
3385.42932	0.07978
3384.14355	0.07978
3382.85778	0.08023
3381.57201	0.08075
3380.28625	0.08074
3379.00048	0.08001
3377.71471	0.07905
3376.42894	0.07845
3375.14317	0.07841
3373.85740	0.07872
3372.57163	0.07912
3371.28586	0.07941
3370.00010	0.07956
3368.71433	0.07962
3367.42856	0.07974
3366.14279	0.08006
3364.85702	0.08058
3363.57125	0.08109
3362.28548	0.08129
3360.99971	0.08104
3359.71394	0.08054
3358.42818	0.08012
3357.14241	0.07988
3355.85664	0.07968
3354.57087	0.07941
3353.28510	0.07918
3351.99933	0.07913
3350.71356	0.07924
3349.42779	0.07931
3348.14202	0.07918
3346.85626	0.07890
3345.57049	0.07864
3344.28472	0.07858
3342.99895	0.07875
3341.71318	0.07910
3340.42741	0.07950
3339.14164	0.07980
3337.85587	0.07983
3336.57011	0.07960
3335.28434	0.07928
3333.99857	0.07905
3332.71280	0.07892
3331.42703	0.07871
3330.14126	0.07835
3328.85549	0.07802
3327.56972	0.07805
3326.28395	0.07851
3324.99819	0.07915
3323.71242	0.07956
3322.42665	0.07956
3321.14088	0.07922
3319.85511	0.07879
3318.56934	0.07847
3317.28357	0.07835
3315.99780	0.07834
3314.71204	0.07837
3313.42627	0.07843
3312.14050	0.07849
3310.85473	0.07849
3309.56896	0.07842
3308.28319	0.07839
3306.99742	0.07850
3305.71165	0.07873
3304.42588	0.07891
3303.14012	0.07886
3301.85435	0.07848
3300.56858	0.07791
3299.28281	0.07740
3297.99704	0.07710
3296.71127	0.07691
3295.42550	0.07664
3294.13973	0.07633
3292.85397	0.07630
3291.56820	0.07680
3290.28243	0.07766
3288.99666	0.07841
3287.71089	0.07871
3286.42512	0.07856
3285.13935	0.07824
3283.85358	0.07803
3282.56781	0.07796
3281.28205	0.07786
3279.99628	0.07757
3278.71051	0.07722
3277.42474	0.07715
3276.13897	0.07749
3274.85320	0.07801
3273.56743	0.07841
3272.28166	0.07865
3270.99590	0.07879
3269.71013	0.07882
3268.42436	0.07860
3267.13859	0.07807
3265.85282	0.07739
3264.56705	0.07667
3263.28128	0.07595
3261.99551	0.07530
3260.70974	0.07488
3259.42398	0.07488
3258.13821	0.07538
3256.85244	0.07620
3255.56667	0.07702
3254.28090	0.07751
3252.99513	0.07755
3251.70936	0.07724
3250.42359	0.07690
3249.13783	0.07677
3247.85206	0.07684
3246.56629	0.07687
3245.28052	0.07663
3243.99475	0.07607
3242.70898	0.07539
3241.42321	0.07488
3240.13744	0.07475
3238.85167	0.07496
3237.56591	0.07518
3236.28014	0.07513
3234.99437	0.07484
3233.70860	0.07460
3232.42283	0.07455
3231.13706	0.07455
3229.85129	0.07434
3228.56552	0.07390
3227.27976	0.07349
3225.99399	0.07343
3224.70822	0.07382
3223.42245	0.07453
3222.13668	0.07533
3220.85091	0.07590
3219.56514	0.07594
3218.27937	0.07546
3216.99360	0.07478
3215.70784	0.07437
3214.42207	0.07440
3213.13630	0.07457
3211.85053	0.07455
3210.56476	0.07431
3209.27899	0.07407
3207.99322	0.07402
3206.70745	0.07414
3205.42169	0.07431
3204.13592	0.07447
3202.85015	0.07453
3201.56438	0.07441
3200.27861	0.07409
3198.99284	0.07371
3197.70707	0.07350
3196.42130	0.07349
3195.13553	0.07349
3193.84977	0.07327
3192.56400	0.07284
3191.27823	0.07248
3189.99246	0.07240
3188.70669	0.07250
3187.42092	0.07256
3186.13515	0.07250
3184.84938	0.07246
3183.56362	0.07253
3182.27785	0.07255
3180.99208	0.07232
3179.70631	0.07183
3178.42054	0.07130
3177.13477	0.07100
3175.84900	0.07099
3174.56323	0.07116
3173.27746	0.07131
3171.99170	0.07127
3170.70593	0.07107
3169.42016	0.07085
3168.13439	0.07075
3166.84862	0.07079
3165.56285	0.07091
3164.27708	0.07105
3162.99131	0.07121
3161.70555	0.07140
3160.41978	0.07156
3159.13401	0.07158
3157.84824	0.07136
3156.56247	0.07099
3155.27670	0.07073
3153.99093	0.07077
3152.70516	0.07099
3151.41939	0.07115
3150.13363	0.07113
3148.84786	0.07102
3147.56209	0.07091
3146.27632	0.07080
3144.99055	0.07064
3143.70478	0.07031
3142.41901	0.06969
3141.13324	0.06882
3139.84748	0.06797
3138.56171	0.06754
3137.27594	0.06765
3135.99017	0.06808
3134.70440	0.06852
3133.41863	0.06884
3132.13286	0.06908
3130.84709	0.06927
3129.56132	0.06942
3128.27556	0.06950
3126.98979	0.06946
3125.70402	0.06925
3124.41825	0.06886
3123.13248	0.06835
3121.84671	0.06781
3120.56094	0.06730
3119.27517	0.06688
3117.98940	0.06654
3116.70364	0.06624
3115.41787	0.06593
3114.13210	0.06569
3112.84633	0.06568
3111.56056	0.06602
3110.27479	0.06659
3108.98902	0.06706
3107.70325	0.06709
3106.41749	0.06659
3105.13172	0.06585
3103.84595	0.06533
3102.56018	0.06526
3101.27441	0.06545
3099.98864	0.06553
3098.70287	0.06532
3097.41710	0.06497
3096.13133	0.06469
3094.84557	0.06452
3093.55980	0.06437
3092.27403	0.06417
3090.98826	0.06398
3089.70249	0.06394
3088.41672	0.06408
3087.13095	0.06428
3085.84518	0.06436
3084.55942	0.06424
3083.27365	0.06405
3081.98788	0.06398
3080.70211	0.06413
3079.41634	0.06433
3078.13057	0.06437
3076.84480	0.06428
3075.55903	0.06426
3074.27326	0.06443
3072.98750	0.06466
3071.70173	0.06470
3070.41596	0.06450
3069.13019	0.06421
3067.84442	0.06395
3066.55865	0.06367
3065.27288	0.06330
3063.98711	0.06287
3062.70135	0.06255
3061.41558	0.06246
3060.12981	0.06260
3058.84404	0.06278
3057.55827	0.06276
3056.27250	0.06247
3054.98673	0.06202
3053.70096	0.06155
3052.41519	0.06122
3051.12943	0.06113
3049.84366	0.06128
3048.55789	0.06156
3047.27212	0.06168
3045.98635	0.06147
3044.70058	0.06100
3043.41481	0.06052
3042.12904	0.06024
3040.84328	0.06014
3039.55751	0.06013
3038.27174	0.06020
3036.98597	0.06038
3035.70020	0.06061
3034.41443	0.06076
3033.12866	0.06077
3031.84289	0.06070
3030.55712	0.06058
3029.27136	0.06044
3027.98559	0.06024
3026.69982	0.05996
3025.41405	0.05962
3024.12828	0.05931
3022.84251	0.05912
3021.55674	0.05905
3020.27097	0.05891
3018.98521	0.05855
3017.69944	0.05799
3016.41367	0.05741
3015.12790	0.05706
3013.84213	0.05699
3012.55636	0.05710
3011.27059	0.05721
3009.98482	0.05726
3008.69905	0.05726
3007.41329	0.05729
3006.12752	0.05732
3004.84175	0.05727
3003.55598	0.05703
3002.27021	0.05659
3000.98444	0.05607
2999.69867	0.05565
2998.41290	0.05552
2997.12714	0.05565
2995.84137	0.05593
2994.55560	0.05620
2993.26983	0.05628
2991.98406	0.05618
2990.69829	0.05608
2989.41252	0.05619
2988.12675	0.05649
2986.84098	0.05686
2985.55522	0.05727
2984.26945	0.05775
2982.98368	0.05824
2981.69791	0.05855
2980.41214	0.05862
2979.12637	0.05857
2977.84060	0.05856
2976.55483	0.05863
2975.26907	0.05877
2973.98330	0.05903
2972.69753	0.05958
2971.41176	0.06051
2970.12599	0.06170
2968.84022	0.06284
2967.55445	0.06364
2966.26868	0.06414
2964.98291	0.06461
2963.69715	0.06530
2962.41138	0.06627
2961.12561	0.06734
2959.83984	0.06836
2958.55407	0.06922
2957.26830	0.06989
2955.98253	0.07028
2954.69676	0.07035
2953.41100	0.07015
2952.12523	0.06985
2950.83946	0.06958
2949.55369	0.06935
2948.26792	0.06916
2946.98215	0.06901
2945.69638	0.06889
2944.41061	0.06883
2943.12484	0.06885
2941.83908	0.06889
2940.55331	0.06891
2939.26754	0.06900
2937.98177	0.06939
2936.69600	0.07018
2935.41023	0.07114
2934.12446	0.07192
2932.83869	0.07232
2931.55293	0.07245
2930.26716	0.07259
2928.98139	0.07299
2927.69562	0.07364
2926.40985	0.07426
2925.12408	0.07455
2923.83831	0.07443
2922.55254	0.07410
2921.26677	0.07374
2919.98101	0.07339
2918.69524	0.07304
2917.40947	0.07263
2916.12370	0.07212
2914.83793	0.07148
2913.55216	0.07083
2912.26639	0.07033
2910.98062	0.06995
2909.69486	0.06947
2908.40909	0.06874
2907.12332	0.06784
2905.83755	0.06700
2904.55178	0.06634
2903.26601	0.06585
2901.98024	0.06550
2900.69447	0.06521
2899.40870	0.06490
2898.12294	0.06450
2896.83717	0.06407
2895.55140	0.06376
2894.26563	0.06361
2892.97986	0.06349
2891.69409	0.06313
2890.40832	0.06244
2889.12255	0.06158
2887.83678	0.06086
2886.55102	0.06047
2885.26525	0.06041
2883.97948	0.06049
2882.69371	0.06052
2881.40794	0.06036
2880.12217	0.06003
2878.83640	0.05973
2877.55063	0.05968
2876.26487	0.05999
2874.97910	0.06052
2873.69333	0.06104
2872.40756	0.06131
2871.12179	0.06124
2869.83602	0.06094
2868.55025	0.06061
2867.26448	0.06041
2865.97871	0.06045
2864.69295	0.06070
2863.40718	0.06097
2862.12141	0.06099
2860.83564	0.06060
2859.54987	0.06000
2858.26410	0.05950
2856.97833	0.05927
2855.69256	0.05919
2854.40680	0.05905
2853.12103	0.05878
2851.83526	0.05849
2850.54949	0.05820
2849.26372	0.05782
2847.97795	0.05725
2846.69218	0.05651
2845.40641	0.05574
2844.12064	0.05506
2842.83488	0.05444
2841.54911	0.05383
2840.26334	0.05321
2838.97757	0.05263
2837.69180	0.05216
2836.40603	0.05184
2835.12026	0.05155
2833.83449	0.05106
2832.54873	0.05032
2831.26296	0.04950
2829.97719	0.04889
2828.69142	0.04858
2827.40565	0.04847
2826.11988	0.04843
2824.83411	0.04832
2823.54834	0.04805
2822.26257	0.04755
2820.97681	0.04694
2819.69104	0.04641
2818.40527	0.04612
2817.11950	0.04602
2815.83373	0.04598
2814.54796	0.04592
2813.26219	0.04587
2811.97642	0.04587
2810.69066	0.04589
2809.40489	0.04583
2808.11912	0.04566
2806.83335	0.04547
2805.54758	0.04531
2804.26181	0.04518
2802.97604	0.04506
2801.69027	0.04494
2800.40450	0.04480
2799.11874	0.04458
2797.83297	0.04424
2796.54720	0.04382
2795.26143	0.04345
2793.97566	0.04321
2792.68989	0.04317
2791.40412	0.04326
2790.11835	0.04337
2788.83259	0.04337
2787.54682	0.04322
2786.26105	0.04303
2784.97528	0.04298
2783.68951	0.04316
2782.40374	0.04347
2781.11797	0.04370
2779.83220	0.04371
2778.54643	0.04344
2777.26067	0.04299
2775.97490	0.04253
2774.68913	0.04220
2773.40336	0.04206
2772.11759	0.04207
2770.83182	0.04214
2769.54605	0.04222
2768.26028	0.04228
2766.97452	0.04236
2765.68875	0.04242
2764.40298	0.04240
2763.11721	0.04228
2761.83144	0.04209
2760.54567	0.04195
2759.25990	0.04190
2757.97413	0.04196
2756.68836	0.04209
2755.40260	0.04223
2754.11683	0.04226
2752.83106	0.04211
2751.54529	0.04185
2750.25952	0.04169
2748.97375	0.04173
2747.68798	0.04183
2746.40221	0.04177
2745.11645	0.04143
2743.83068	0.04091
2742.54491	0.04047
2741.25914	0.04030
2739.97337	0.04042
2738.68760	0.04067
2737.40183	0.04085
2736.11606	0.04082
2734.83029	0.04057
2733.54453	0.04024
2732.25876	0.03999
2730.97299	0.03992
2729.68722	0.04008
2728.40145	0.04040
2727.11568	0.04072
2725.82991	0.04089
2724.54414	0.04083
2723.25838	0.04061
2721.97261	0.04036
2720.68684	0.04019
2719.40107	0.04011
2718.11530	0.04005
2716.82953	0.03989
2715.54376	0.03956
2714.25799	0.03913
2712.97222	0.03877
2711.68646	0.03864
2710.40069	0.03876
2709.11492	0.03900
2707.82915	0.03916
2706.54338	0.03909
2705.25761	0.03879
2703.97184	0.03845
2702.68607	0.03822
2701.40031	0.03815
2700.11454	0.03818
2698.82877	0.03825
2697.54300	0.03838
2696.25723	0.03850
2694.97146	0.03852
2693.68569	0.03840
2692.39992	0.03817
2691.11415	0.03795
2689.82839	0.03775
2688.54262	0.03752
2687.25685	0.03726
2685.97108	0.03707
2684.68531	0.03707
2683.39954	0.03726
2682.11377	0.03749
2680.82800	0.03765
2679.54224	0.03774
2678.25647	0.03777
2676.97070	0.03778
2675.68493	0.03772
2674.39916	0.03758
2673.11339	0.03739
2671.82762	0.03726
2670.54185	0.03726
2669.25608	0.03738
2667.97032	0.03752
2666.68455	0.03764
2665.39878	0.03774
2664.11301	0.03784
2662.82724	0.03787
2661.54147	0.03780
2660.25570	0.03760
2658.96993	0.03734
2657.68417	0.03711
2656.39840	0.03698
2655.11263	0.03689
2653.82686	0.03668
2652.54109	0.03627
2651.25532	0.03579
2649.96955	0.03548
2648.68378	0.03538
2647.39801	0.03538
2646.11225	0.03533
2644.82648	0.03523
2643.54071	0.03510
2642.25494	0.03497
2640.96917	0.03482
2639.68340	0.03465
2638.39763	0.03442
2637.11186	0.03417
2635.82609	0.03406
2634.54033	0.03410
2633.25456	0.03413
2631.96879	0.03396
2630.68302	0.03357
2629.39725	0.03319
2628.11148	0.03300
2626.82571	0.03300
2625.53994	0.03305
2624.25418	0.03306
2622.96841	0.03305
2621.68264	0.03296
2620.39687	0.03267
2619.11110	0.03215
2617.82533	0.03164
2616.53956	0.03142
2615.25379	0.03149
2613.96802	0.03155
2612.68226	0.03146
2611.39649	0.03134
2610.11072	0.03134
2608.82495	0.03137
2607.53918	0.03114
2606.25341	0.03054
2604.96764	0.02975
2603.68187	0.02909
2602.39611	0.02883
2601.11034	0.02902
2599.82457	0.02953
2598.53880	0.03010
2597.25303	0.03049
2595.96726	0.03063
2594.68149	0.03058
2593.39572	0.03032
2592.10995	0.02981
2590.82419	0.02917
2589.53842	0.02872
2588.25265	0.02871
2586.96688	0.02901
2585.68111	0.02921
2584.39534	0.02907
2583.10957	0.02874
2581.82380	0.02860
2580.53804	0.02880
2579.25227	0.02905
2577.96650	0.02892
2576.68073	0.02834
2575.39496	0.02769
2574.10919	0.02741
2572.82342	0.02756
2571.53765	0.02787
2570.25188	0.02809
2568.96612	0.02818
2567.68035	0.02819
2566.39458	0.02813
2565.10881	0.02803
2563.82304	0.02794
2562.53727	0.02786
2561.25150	0.02773
2559.96573	0.02749
2558.67997	0.02726
2557.39420	0.02721
2556.10843	0.02750
2554.82266	0.02806
2553.53689	0.02866
2552.25112	0.02904
2550.96535	0.02910
2549.67958	0.02899
2548.39381	0.02892
2547.10805	0.02896
2545.82228	0.02899
2544.53651	0.02887
2543.25074	0.02852
2541.96497	0.02804
2540.67920	0.02765
2539.39343	0.02753
2538.10766	0.02773
2536.82190	0.02808
2535.53613	0.02835
2534.25036	0.02838
2532.96459	0.02816
2531.67882	0.02781
2530.39305	0.02754
2529.10728	0.02749
2527.82151	0.02764
2526.53574	0.02781
2525.24998	0.02776
2523.96421	0.02745
2522.67844	0.02705
2521.39267	0.02677
2520.10690	0.02667
2518.82113	0.02663
2517.53536	0.02650
2516.24959	0.02627
2514.96383	0.02607
2513.67806	0.02599
2512.39229	0.02599
2511.10652	0.02599
2509.82075	0.02600
2508.53498	0.02610
2507.24921	0.02633
2505.96344	0.02661
2504.67767	0.02682
2503.39191	0.02687
2502.10614	0.02679
2500.82037	0.02664
2499.53460	0.02647
2498.24883	0.02636
2496.96306	0.02634
2495.67729	0.02639
2494.39152	0.02636
2493.10576	0.02619
2491.81999	0.02600
2490.53422	0.02592
2489.24845	0.02593
2487.96268	0.02591
2486.67691	0.02575
2485.39114	0.02550
2484.10537	0.02530
2482.81960	0.02534
2481.53384	0.02558
2480.24807	0.02575
2478.96230	0.02559
2477.67653	0.02516
2476.39076	0.02485
2475.10499	0.02503
2473.81922	0.02573
2472.53345	0.02655
2471.24769	0.02699
2469.96192	0.02690
2468.67615	0.02652
2467.39038	0.02618
2466.10461	0.02594
2464.81884	0.02574
2463.53307	0.02565
2462.24730	0.02575
2460.96153	0.02594
2459.67577	0.02597
2458.39000	0.02576
2457.10423	0.02553
2455.81846	0.02553
2454.53269	0.02568
2453.24692	0.02566
2451.96115	0.02518
2450.67538	0.02442
2449.38962	0.02386
2448.10385	0.02381
2446.81808	0.02419
2445.53231	0.02471
2444.24654	0.02512
2442.96077	0.02530
2441.67500	0.02524
2440.38923	0.02498
2439.10346	0.02469
2437.81770	0.02449
2436.53193	0.02443
2435.24616	0.02449
2433.96039	0.02459
2432.67462	0.02458
2431.38885	0.02439
2430.10308	0.02407
2428.81731	0.02379
2427.53155	0.02371
2426.24578	0.02385
2424.96001	0.02409
2423.67424	0.02429
2422.38847	0.02446
2421.10270	0.02466
2419.81693	0.02481
2418.53116	0.02476
2417.24539	0.02455
2415.95963	0.02443
2414.67386	0.02458
2413.38809	0.02493
2412.10232	0.02522
2410.81655	0.02520
2409.53078	0.02487
2408.24501	0.02439
2406.95924	0.02395
2405.67347	0.02368
2404.38771	0.02370
2403.10194	0.02402
2401.81617	0.02458
2400.53040	0.02520
2399.24463	0.02560
2397.95886	0.02569
2396.67309	0.02543
2395.38732	0.02491
2394.10156	0.02434
2392.81579	0.02394
2391.53002	0.02378
2390.24425	0.02384
2388.95848	0.02408
2387.67271	0.02448
2386.38694	0.02499
2385.10117	0.02553
2383.81540	0.02605
2382.52964	0.02645
2381.24387	0.02671
2379.95810	0.02682
2378.67233	0.02691
2377.38656	0.02718
2376.10079	0.02771
2374.81502	0.02851
2373.52925	0.02956
2372.24349	0.03068
2370.95772	0.03194
2369.67195	0.03299
2368.38618	0.03379
2367.10041	0.03443
2365.81464	0.03502
2364.52887	0.03522
2363.24310	0.03529
2361.95733	0.03549
2360.67157	0.03590
2359.38580	0.03599
2358.10003	0.03594
2356.81426	0.03570
2355.52849	0.03511
2354.24272	0.03419
2352.95695	0.03283
2351.67118	0.03156
2350.38542	0.03090
2349.09965	0.03061
2347.81388	0.03036
2346.52811	0.03067
2345.24234	0.03159
2343.95657	0.03264
2342.67080	0.03312
2341.38503	0.03341
2340.09926	0.03374
2338.81350	0.03356
2337.52773	0.03295
2336.24196	0.03245
2334.95619	0.03227
2333.67042	0.03233
2332.38465	0.03217
2331.09888	0.03280
2329.81311	0.03356
2328.52735	0.03323
2327.24158	0.03353
2325.95581	0.03405
2324.67004	0.03338
2323.38427	0.03272
2322.09850	0.03231
2320.81273	0.03087
2319.52696	0.03013
2318.24119	0.02997
2316.95543	0.02929
2315.66966	0.02885
2314.38389	0.02826
2313.09812	0.02732
2311.81235	0.02687
2310.52658	0.02634
2309.24081	0.02578
2307.95504	0.02525
2306.66928	0.02437
2305.38351	0.02368
2304.09774	0.02315
2302.81197	0.02281
2301.52620	0.02285
2300.24043	0.02313
2298.95466	0.02368
2297.66889	0.02420
2296.38312	0.02452
2295.09736	0.02460
2293.81159	0.02440
2292.52582	0.02403
2291.24005	0.02353
2289.95428	0.02305
2288.66851	0.02269
2287.38274	0.02246
2286.09697	0.02231
2284.81121	0.02215
2283.52544	0.02195
2282.23967	0.02175
2280.95390	0.02164
2279.66813	0.02156
2278.38236	0.02132
2277.09659	0.02078
2275.81082	0.02001
2274.52505	0.01930
2273.23929	0.01902
2271.95352	0.01930
2270.66775	0.01994
2269.38198	0.02050
2268.09621	0.02063
2266.81044	0.02041
2265.52467	0.02017
2264.23890	0.02005
2262.95314	0.01994
2261.66737	0.01977
2260.38160	0.01965
2259.09583	0.01974
2257.81006	0.01986
2256.52429	0.01972
2255.23852	0.01926
2253.95275	0.01874
2252.66698	0.01834
2251.38122	0.01804
2250.09545	0.01766
2248.80968	0.01712
2247.52391	0.01681
2246.23814	0.01656
2244.95237	0.01633
2243.66660	0.01607
2242.38083	0.01579
2241.09507	0.01558
2239.80930	0.01557
2238.52353	0.01588
2237.23776	0.01650
2235.95199	0.01721
2234.66622	0.01762
2233.38045	0.01739
2232.09468	0.01669
2230.80891	0.01614
2229.52315	0.01609
2228.23738	0.01613
2226.95161	0.01565
2225.66584	0.01464
2224.38007	0.01380
2223.09430	0.01375
2221.80853	0.01435
2220.52276	0.01496
2219.23700	0.01497
2217.95123	0.01424
2216.66546	0.01311
2215.37969	0.01213
2214.09392	0.01173
2212.80815	0.01202
2211.52238	0.01268
2210.23661	0.01308
2208.95084	0.01283
2207.66508	0.01233
2206.37931	0.01241
2205.09354	0.01325
2203.80777	0.01402
2202.52200	0.01405
2201.23623	0.01358
2199.95046	0.01330
2198.66469	0.01328
2197.37893	0.01299
2196.09316	0.01211
2194.80739	0.01086
2193.52162	0.00984
2192.23585	0.00951
2190.95008	0.00995
2189.66431	0.01081
2188.37854	0.01165
2187.09277	0.01216
2185.80701	0.01208
2184.52124	0.01137
2183.23547	0.01035
2181.94970	0.00959
2180.66393	0.00930
2179.37816	0.00919
2178.09239	0.00892
2176.80662	0.00858
2175.52085	0.00861
2174.23509	0.00929
2172.94932	0.01036
2171.66355	0.01114
2170.37778	0.01104
2169.09201	0.00996
2167.80624	0.00839
2166.52047	0.00702
2165.23470	0.00628
2163.94894	0.00609
2162.66317	0.00592
2161.37740	0.00534
2160.09163	0.00450
2158.80586	0.00394
2157.52009	0.00406
2156.23432	0.00488
2154.94855	0.00605
2153.66278	0.00723
2152.37702	0.00817
2151.09125	0.00869
2149.80548	0.00860
2148.51971	0.00776
2147.23394	0.00645
2145.94817	0.00545
2144.66240	0.00544
2143.37663	0.00652
2142.09087	0.00810
2140.80510	0.00950
2139.51933	0.01033
2138.23356	0.01059
2136.94779	0.01045
2135.66202	0.01008
2134.37625	0.00972
2133.09048	0.00966
2131.80471	0.01007
2130.51895	0.01075
2129.23318	0.01131
2127.94741	0.01156
2126.66164	0.01169
2125.37587	0.01195
2124.09010	0.01228
2122.80433	0.01240
2121.51856	0.01228
2120.23280	0.01216
2118.94703	0.01223
2117.66126	0.01239
2116.37549	0.01241
2115.08972	0.01220
2113.80395	0.01186
2112.51818	0.01152
2111.23241	0.01122
2109.94664	0.01099
2108.66088	0.01097
2107.37511	0.01125
2106.08934	0.01174
2104.80357	0.01213
2103.51780	0.01211
2102.23203	0.01162
2100.94626	0.01096
2099.66049	0.01100
2098.37473	0.01091
2097.08896	0.01064
2095.80319	0.01042
2094.51742	0.01039
2093.23165	0.01056
2091.94588	0.01077
2090.66011	0.01077
2089.37434	0.01048
2088.08857	0.01016
2086.80281	0.01021
2085.51704	0.01075
2084.23127	0.01143
2082.94550	0.01178
2081.65973	0.01158
2080.37396	0.01100
2079.08819	0.01027
2077.80242	0.00957
2076.51666	0.00904
2075.23089	0.00885
2073.94512	0.00902
2072.65935	0.00945
2071.37358	0.01007
2070.08781	0.01075
2068.80204	0.01121
2067.51627	0.01110
2066.23050	0.01034
2064.94474	0.00926
2063.65897	0.00828
2062.37320	0.00764
2061.08743	0.00733
2059.80166	0.00729
2058.51589	0.00743
2057.23012	0.00762
2055.94435	0.00770
2054.65859	0.00767
2053.37282	0.00763
2052.08705	0.00772
2050.80128	0.00801
2049.51551	0.00849
2048.22974	0.00896
2046.94397	0.00906
2045.65820	0.00860
2044.37243	0.00784
2043.08667	0.00733
2041.80090	0.00743
2040.51513	0.00798
2039.22936	0.00846
2037.94359	0.00843
2036.65782	0.00779
2035.37205	0.00676
2034.08628	0.00569
2032.80052	0.00486
2031.51475	0.00433
2030.22898	0.00401
2028.94321	0.00384
2027.65744	0.00397
2026.37167	0.00444
2025.08590	0.00499
2023.80013	0.00513
2022.51436	0.00465
2021.22860	0.00377
2019.94283	0.00295
2018.65706	0.00255
2017.37129	0.00283
2016.08552	0.00377
2014.79975	0.00495
2013.51398	0.00570
2012.22821	0.00570
2010.94245	0.00526
2009.65668	0.00500
2008.37091	0.00526
2007.08514	0.00596
2005.79937	0.00696
2004.51360	0.00808
2003.22783	0.00903
2001.94206	0.00943
2000.65629	0.00917
1999.37053	0.00840
1998.08476	0.00737
1996.79899	0.00629
1995.51322	0.00540
1994.22745	0.00498
1992.94168	0.00516
1991.65591	0.00586
1990.37014	0.00683
1989.08438	0.00765
1987.79861	0.00790
1986.51284	0.00751
1985.22707	0.00696
1983.94130	0.00697
1982.65553	0.00793
1981.36976	0.00957
1980.08399	0.01114
1978.79822	0.01177
1977.51246	0.01103
1976.22669	0.00928
1974.94092	0.00744
1973.65515	0.00635
1972.36938	0.00636
1971.08361	0.00727
1969.79784	0.00849
1968.51207	0.00946
1967.22631	0.01008
1965.94054	0.01061
1964.65477	0.01119
1963.36900	0.01156
1962.08323	0.01145
1960.79746	0.01100
1959.51169	0.01069
1958.22592	0.01078
1956.94015	0.01099
1955.65439	0.01092
1954.36862	0.01054
1953.08285	0.01019
1951.79708	0.01021
1950.51131	0.01066
1949.22554	0.01139
1947.93977	0.01214
1946.65400	0.01262
1945.36823	0.01264
1944.08247	0.01227
1942.79670	0.01186
1941.51093	0.01171
1940.22516	0.01184
1938.93939	0.01202
1937.65362	0.01197
1936.36785	0.01173
1935.08208	0.01156
1933.79632	0.01165
1932.51055	0.01190
1931.22478	0.01213
1929.93901	0.01235
1928.65324	0.01265
1927.36747	0.01298
1926.08170	0.01315
1924.79593	0.01306
1923.51016	0.01282
1922.22440	0.01268
1920.93863	0.01280
1919.65286	0.01311
1918.36709	0.01334
1917.08132	0.01326
1915.79555	0.01295
1914.50978	0.01275
1913.22401	0.01288
1911.93825	0.01327
1910.65248	0.01367
1909.36671	0.01386
1908.08094	0.01381
1906.79517	0.01366
1905.50940	0.01360
1904.22363	0.01369
1902.93786	0.01387
1901.65209	0.01410
1900.36633	0.01443
1899.08056	0.01481
1897.79479	0.01498
1896.50902	0.01470
1895.22325	0.01404
1893.93748	0.01340
1892.65171	0.01318
1891.36594	0.01345
1890.08018	0.01395
1888.79441	0.01437
1887.50864	0.01459
1886.22287	0.01461
1884.93710	0.01448
1883.65133	0.01420
1882.36556	0.01384
1881.07979	0.01346
1879.79402	0.01314
1878.50826	0.01297
1877.22249	0.01302
1875.93672	0.01332
1874.65095	0.01377
1873.36518	0.01427
1872.07941	0.01467
1870.79364	0.01486
1869.50787	0.01486
1868.22211	0.01485
1866.93634	0.01504
1865.65057	0.01546
1864.36480	0.01582
1863.07903	0.01583
1861.79326	0.01547
1860.50749	0.01497
1859.22172	0.01461
1857.93595	0.01448
1856.65019	0.01443
1855.36442	0.01435
1854.07865	0.01425
1852.79288	0.01424
1851.50711	0.01433
1850.22134	0.01446
1848.93557	0.01456
1847.64980	0.01466
1846.36404	0.01474
1845.07827	0.01477
1843.79250	0.01474
1842.50673	0.01472
1841.22096	0.01482
1839.93519	0.01501
1838.64942	0.01517
1837.36365	0.01519
1836.07788	0.01507
1834.79212	0.01494
1833.50635	0.01492
1832.22058	0.01502
1830.93481	0.01514
1829.64904	0.01513
1828.36327	0.01500
1827.07750	0.01487
1825.79173	0.01489
1824.50597	0.01509
1823.22020	0.01538
1821.93443	0.01562
1820.64866	0.01570
1819.36289	0.01559
1818.07712	0.01529
1816.79135	0.01492
1815.50558	0.01465
1814.21981	0.01457
1812.93405	0.01466
1811.64828	0.01478
1810.36251	0.01480
1809.07674	0.01471
1807.79097	0.01458
1806.50520	0.01450
1805.21943	0.01456
1803.93366	0.01475
1802.64790	0.01501
1801.36213	0.01520
1800.07636	0.01527
1798.79059	0.01526
1797.50482	0.01525
1796.21905	0.01529
1794.93328	0.01537
1793.64751	0.01547
1792.36174	0.01556
1791.07598	0.01560
1789.79021	0.01563
1788.50444	0.01570
1787.21867	0.01580
1785.93290	0.01587
1784.64713	0.01582
1783.36136	0.01571
1782.07559	0.01564
1780.78983	0.01569
1779.50406	0.01582
1778.21829	0.01590
1776.93252	0.01592
1775.64675	0.01595
1774.36098	0.01605
1773.07521	0.01617
1771.78944	0.01622
1770.50367	0.01620
1769.21791	0.01621
1767.93214	0.01629
1766.64637	0.01641
1765.36060	0.01645
1764.07483	0.01637
1762.78906	0.01623
1761.50329	0.01613
1760.21752	0.01615
1758.93176	0.01627
1757.64599	0.01639
1756.36022	0.01649
1755.07445	0.01660
1753.78868	0.01673
1752.50291	0.01687
1751.21714	0.01694
1749.93137	0.01691
1748.64560	0.01682
1747.35984	0.01672
1746.07407	0.01667
1744.78830	0.01671
1743.50253	0.01680
1742.21676	0.01693
1740.93099	0.01706
1739.64522	0.01719
1738.35945	0.01732
1737.07369	0.01751
1735.78792	0.01777
1734.50215	0.01803
1733.21638	0.01820
1731.93061	0.01821
1730.64484	0.01811
1729.35907	0.01798
1728.07330	0.01790
1726.78753	0.01789
1725.50177	0.01797
1724.21600	0.01811
1722.93023	0.01831
1721.64446	0.01857
1720.35869	0.01891
1719.07292	0.01928
1717.78715	0.01957
1716.50138	0.01974
1715.21561	0.01978
1713.92985	0.01980
1712.64408	0.01990
1711.35831	0.02016
1710.07254	0.02052
1708.78677	0.02093
1707.50100	0.02131
1706.21523	0.02165
1704.92946	0.02197
1703.64370	0.02234
1702.35793	0.02275
1701.07216	0.02318
1699.78639	0.02358
1698.50062	0.02391
1697.21485	0.02417
1695.92908	0.02434
1694.64331	0.02443
1693.35754	0.02451
1692.07178	0.02468
1690.78601	0.02499
1689.50024	0.02538
1688.21447	0.02581
1686.92870	0.02626
1685.64293	0.02670
1684.35716	0.02706
1683.07139	0.02729
1681.78563	0.02740
1680.49986	0.02748
1679.21409	0.02766
1677.92832	0.02797
1676.64255	0.02837
1675.35678	0.02881
1674.07101	0.02923
1672.78524	0.02960
1671.49947	0.02988
1670.21371	0.03002
1668.92794	0.03006
1667.64217	0.03013
1666.35640	0.03036
1665.07063	0.03076
1663.78486	0.03123
1662.49909	0.03161
1661.21332	0.03183
1659.92756	0.03192
1658.64179	0.03202
1657.35602	0.03224
1656.07025	0.03264
1654.78448	0.03312
1653.49871	0.03348
1652.21294	0.03363
1650.92717	0.03362
1649.64140	0.03360
1648.35564	0.03368
1647.06987	0.03382
1645.78410	0.03393
1644.49833	0.03399
1643.21256	0.03404
1641.92679	0.03412
1640.64102	0.03423
1639.35525	0.03437
1638.06949	0.03454
1636.78372	0.03470
1635.49795	0.03478
1634.21218	0.03474
1632.92641	0.03465
1631.64064	0.03458
1630.35487	0.03459
1629.06910	0.03465
1627.78333	0.03474
1626.49757	0.03483
1625.21180	0.03496
1623.92603	0.03512
1622.64026	0.03531
1621.35449	0.03552
1620.06872	0.03575
1618.78295	0.03600
1617.49718	0.03620
1616.21142	0.03629
1614.92565	0.03628
1613.63988	0.03626
1612.35411	0.03628
1611.06834	0.03636
1609.78257	0.03647
1608.49680	0.03660
1607.21103	0.03677
1605.92526	0.03698
1604.63950	0.03722
1603.35373	0.03747
1602.06796	0.03770
1600.78219	0.03787
1599.49642	0.03800
1598.21065	0.03810
1596.92488	0.03819
1595.63911	0.03831
1594.35335	0.03848
1593.06758	0.03872
1591.78181	0.03897
1590.49604	0.03917
1589.21027	0.03928
1587.92450	0.03934
1586.63873	0.03942
1585.35296	0.03957
1584.06719	0.03981
1582.78143	0.04013
1581.49566	0.04046
1580.20989	0.04078
1578.92412	0.04110
1577.63835	0.04144
1576.35258	0.04177
1575.06681	0.04207
1573.78104	0.04231
1572.49528	0.04254
1571.20951	0.04279
1569.92374	0.04304
1568.63797	0.04327
1567.35220	0.04348
1566.06643	0.04367
1564.78066	0.04388
1563.49489	0.04418
1562.20912	0.04457
1560.92336	0.04503
1559.63759	0.04542
1558.35182	0.04567
1557.06605	0.04575
1555.78028	0.04576
1554.49451	0.04584
1553.20874	0.04601
1551.92297	0.04628
1550.63721	0.04658
1549.35144	0.04686
1548.06567	0.04711
1546.77990	0.04734
1545.49413	0.04758
1544.20836	0.04783
1542.92259	0.04806
1541.63682	0.04820
1540.35105	0.04822
1539.06529	0.04811
1537.77952	0.04800
1536.49375	0.04805
1535.20798	0.04829
1533.92221	0.04863
1532.63644	0.04896
1531.35067	0.04926
1530.06490	0.04962
1528.77914	0.05013
1527.49337	0.05080
1526.20760	0.05157
1524.92183	0.05238
1523.63606	0.05322
1522.35029	0.05409
1521.06452	0.05502
1519.77875	0.05602
1518.49298	0.05714
1517.20722	0.05838
1515.92145	0.05969
1514.63568	0.06103
1513.34991	0.06240
1512.06414	0.06386
1510.77837	0.06543
1509.49260	0.06710
1508.20683	0.06878
1506.92107	0.07038
1505.63530	0.07183
1504.34953	0.07312
1503.06376	0.07430
1501.77799	0.07544
1500.49222	0.07655
1499.20645	0.07763
1497.92068	0.07868
1496.63491	0.07966
1495.34915	0.08055
1494.06338	0.08136
1492.77761	0.08216
1491.49184	0.08302
1490.20607	0.08400
1488.92030	0.08509
1487.63453	0.08630
1486.34876	0.08763
1485.06299	0.08904
1483.77723	0.09050
1482.49146	0.09196
1481.20569	0.09340
1479.91992	0.09482
1478.63415	0.09625
1477.34838	0.09769
1476.06261	0.09909
1474.77684	0.10037
1473.49108	0.10145
1472.20531	0.10226
1470.91954	0.10283
1469.63377	0.10324
1468.34800	0.10360
1467.06223	0.10394
1465.77646	0.10426
1464.49069	0.10452
1463.20492	0.10474
1461.91916	0.10499
1460.63339	0.10535
1459.34762	0.10585
1458.06185	0.10647
1456.77608	0.10712
1455.49031	0.10767
1454.20454	0.10810
1452.91877	0.10842
1451.63301	0.10869
1450.34724	0.10892
1449.06147	0.10907
1447.77570	0.10913
1446.48993	0.10906
1445.20416	0.10883
1443.91839	0.10842
1442.63262	0.10787
1441.34685	0.10729
1440.06109	0.10679
1438.77532	0.10642
1437.48955	0.10619
1436.20378	0.10613
1434.91801	0.10633
1433.63224	0.10688
1432.34647	0.10782
1431.06070	0.10912
1429.77494	0.11071
1428.48917	0.11248
1427.20340	0.11436
1425.91763	0.11630
1424.63186	0.11826
1423.34609	0.12019
1422.06032	0.12206
1420.77455	0.12379
1419.48878	0.12533
1418.20302	0.12659
1416.91725	0.12752
1415.63148	0.12813
1414.34571	0.12849
1413.05994	0.12863
1411.77417	0.12850
1410.48840	0.12806
1409.20263	0.12728
1407.91687	0.12620
1406.63110	0.12485
1405.34533	0.12322
1404.05956	0.12133
1402.77379	0.11920
1401.48802	0.11687
1400.20225	0.11437
1398.91648	0.11171
1397.63071	0.10891
1396.34495	0.10601
1395.05918	0.10306
1393.77341	0.10015
1392.48764	0.09731
1391.20187	0.09457
1389.91610	0.09193
1388.63033	0.08935
1387.34456	0.08680
1386.05880	0.08430
1384.77303	0.08184
1383.48726	0.07945
1382.20149	0.07708
1380.91572	0.07471
1379.62995	0.07230
1378.34418	0.06984
1377.05841	0.06735
1375.77264	0.06484
1374.48688	0.06233
1373.20111	0.05986
1371.91534	0.05745
1370.62957	0.05513
1369.34380	0.05291
1368.05803	0.05084
1366.77226	0.04897
1365.48649	0.04731
1364.20073	0.04579
1362.91496	0.04432
1361.62919	0.04287
1360.34342	0.04150
1359.05765	0.04021
1357.77188	0.03902
1356.48611	0.03792
1355.20034	0.03689
1353.91457	0.03596
1352.62881	0.03513
1351.34304	0.03436
1350.05727	0.03361
1348.77150	0.03289
1347.48573	0.03220
1346.19996	0.03158
1344.91419	0.03103
1343.62842	0.03055
1342.34266	0.03010
1341.05689	0.02967
1339.77112	0.02924
1338.48535	0.02879
1337.19958	0.02836
1335.91381	0.02798
1334.62804	0.02766
1333.34227	0.02737
1332.05650	0.02708
1330.77074	0.02676
1329.48497	0.02642
1328.19920	0.02611
1326.91343	0.02585
1325.62766	0.02564
1324.34189	0.02548
1323.05612	0.02534
1321.77035	0.02518
1320.48459	0.02499
1319.19882	0.02477
1317.91305	0.02455
1316.62728	0.02434
1315.34151	0.02415
1314.05574	0.02396
1312.76997	0.02378
1311.48420	0.02362
1310.19843	0.02349
1308.91267	0.02336
1307.62690	0.02322
1306.34113	0.02304
1305.05536	0.02283
1303.76959	0.02260
1302.48382	0.02239
1301.19805	0.02222
1299.91228	0.02209
1298.62652	0.02196
1297.34075	0.02184
1296.05498	0.02171
1294.76921	0.02159
1293.48344	0.02148
1292.19767	0.02138
1290.91190	0.02127
1289.62613	0.02113
1288.34036	0.02097
1287.05460	0.02082
1285.76883	0.02070
1284.48306	0.02060
1283.19729	0.02049
1281.91152	0.02036
1280.62575	0.02022
1279.33998	0.02009
1278.05421	0.01997
1276.76845	0.01985
1275.48268	0.01974
1274.19691	0.01965
1272.91114	0.01961
1271.62537	0.01959
1270.33960	0.01957
1269.05383	0.01947
1267.76806	0.01932
1266.48229	0.01914
1265.19653	0.01901
1263.91076	0.01892
1262.62499	0.01885
1261.33922	0.01877
1260.05345	0.01870
1258.76768	0.01866
1257.48191	0.01868
1256.19614	0.01872
1254.91037	0.01872
1253.62461	0.01863
1252.33884	0.01847
1251.05307	0.01830
1249.76730	0.01817
1248.48153	0.01809
1247.19576	0.01804
1245.90999	0.01799
1244.62422	0.01792
1243.33846	0.01786
1242.05269	0.01780
1240.76692	0.01775
1239.48115	0.01772
1238.19538	0.01770
1236.90961	0.01766
1235.62384	0.01758
1234.33807	0.01747
1233.05230	0.01738
1231.76654	0.01731
1230.48077	0.01725
1229.19500	0.01720
1227.90923	0.01716
1226.62346	0.01715
1225.33769	0.01712
1224.05192	0.01707
1222.76615	0.01699
1221.48039	0.01693
1220.19462	0.01689
1218.90885	0.01688
1217.62308	0.01688
1216.33731	0.01688
1215.05154	0.01687
1213.76577	0.01684
1212.48000	0.01676
1211.19423	0.01665
1209.90847	0.01654
1208.62270	0.01648
1207.33693	0.01649
1206.05116	0.01657
1204.76539	0.01667
1203.47962	0.01677
1202.19385	0.01684
1200.90808	0.01683
1199.62232	0.01673
1198.33655	0.01672
1197.05078	0.01672
1195.76501	0.01669
1194.47924	0.01662
1193.19347	0.01651
1191.90770	0.01644
1190.62193	0.01646
1189.33616	0.01656
1188.05040	0.01671
1186.76463	0.01684
1185.47886	0.01694
1184.19309	0.01702
1182.90732	0.01710
1181.62155	0.01718
1180.33578	0.01725
1179.05001	0.01730
1177.76425	0.01734
1176.47848	0.01741
1175.19271	0.01752
1173.90694	0.01765
1172.62117	0.01778
1171.33540	0.01790
1170.04963	0.01801
1168.76386	0.01816
1167.47809	0.01839
1166.19233	0.01871
1164.90656	0.01909
1163.62079	0.01948
1162.33502	0.01982
1161.04925	0.02010
1159.76348	0.02038
1158.47771	0.02067
1157.19194	0.02099
1155.90618	0.02135
1154.62041	0.02175
1153.33464	0.02224
1152.04887	0.02285
1150.76310	0.02358
1149.47733	0.02439
1148.19156	0.02524
1146.90579	0.02606
1145.62002	0.02688
1144.33426	0.02773
1143.04849	0.02870
1141.76272	0.02984
1140.47695	0.03115
1139.19118	0.03257
1137.90541	0.03407
1136.61964	0.03569
1135.33387	0.03752
1134.04811	0.03962
1132.76234	0.04198
1131.47657	0.04457
1130.19080	0.04736
1128.90503	0.05039
1127.61926	0.05368
1126.33349	0.05725
1125.04772	0.06105
1123.76195	0.06506
1122.47619	0.06926
1121.19042	0.07359
1119.90465	0.07794
1118.61888	0.08227
1117.33311	0.08660
1116.04734	0.09095
1114.76157	0.09527
1113.47580	0.09950
1112.19004	0.10363
1110.90427	0.10771
1109.61850	0.11177
1108.33273	0.11578
1107.04696	0.11969
1105.76119	0.12352
1104.47542	0.12732
1103.18965	0.13109
1101.90388	0.13478
1100.61812	0.13830
1099.33235	0.14162
1098.04658	0.14476
1096.76081	0.14778
1095.47504	0.15073
1094.18927	0.15364
1092.90350	0.15649
1091.61773	0.15924
1090.33197	0.16187
1089.04620	0.16438
1087.76043	0.16683
1086.47466	0.16929
1085.18889	0.17182
1083.90312	0.17452
1082.61735	0.17741
1081.33158	0.18050
1080.04581	0.18374
1078.76005	0.18709
1077.47428	0.19051
1076.18851	0.19401
1074.90274	0.19764
1073.61697	0.20143
1072.33120	0.20543
1071.04543	0.20962
1069.75966	0.21397
1068.47390	0.21845
1067.18813	0.22305
1065.90236	0.22778
1064.61659	0.23261
1063.33082	0.23747
1062.04505	0.24228
1060.75928	0.24705
1059.47351	0.25180
1058.18774	0.25656
1056.90198	0.26129
1055.61621	0.26597
1054.33044	0.27064
1053.04467	0.27533
1051.75890	0.28008
1050.47313	0.28490
1049.18736	0.28984
1047.90159	0.29497
1046.61583	0.30035
1045.33006	0.30595
1044.04429	0.31172
1042.75852	0.31760
1041.47275	0.32362
1040.18698	0.32978
1038.90121	0.33608
1037.61544	0.34254
1036.32967	0.34915
1035.04391	0.35577
1033.75814	0.36222
1032.47237	0.36836
1031.18660	0.37419
1029.90083	0.37971
1028.61506	0.38482
1027.32929	0.38945
1026.04352	0.39351
1024.75775	0.39693
1023.47199	0.39959
1022.18622	0.40150
1020.90045	0.40275
1019.61468	0.40343
1018.32891	0.40348
1017.04314	0.40273
1015.75737	0.40103
1014.47160	0.39838
1013.18584	0.39476
1011.90007	0.39015
1010.61430	0.38454
1009.32853	0.37796
1008.04276	0.37045
1006.75699	0.36196
1005.47122	0.35249
1004.18545	0.34212
1002.89968	0.33102
1001.61392	0.31931
1000.32815	0.30701
999.04238	0.29416
997.75661	0.28095
996.47084	0.26765
995.18507	0.25446
993.89930	0.24151
992.61353	0.22882
991.32777	0.21649
990.04200	0.20465
988.75623	0.19344
987.47046	0.18287
986.18469	0.17295
984.89892	0.16370
983.61315	0.15517
982.32738	0.14733
981.04161	0.14014
979.75585	0.13361
978.47008	0.12775
977.18431	0.12260
975.89854	0.11823
974.61277	0.11470
973.32700	0.11206
972.04123	0.11023
970.75546	0.10915
969.46970	0.10877
968.18393	0.10910
966.89816	0.11006
965.61239	0.11146
964.32662	0.11302
963.04085	0.11448
961.75508	0.11557
960.46931	0.11592
959.18354	0.11527
957.89778	0.11349
956.61201	0.11074
955.32624	0.10729
954.04047	0.10345
952.75470	0.09950
951.46893	0.09563
950.18316	0.09198
948.89739	0.08855
947.61163	0.08528
946.32586	0.08211
945.04009	0.07905
943.75432	0.07616
942.46855	0.07347
941.18278	0.07096
939.89701	0.06867
938.61124	0.06663
937.32547	0.06483
936.03971	0.06315
934.75394	0.06151
933.46817	0.05994
932.18240	0.05851
930.89663	0.05725
929.61086	0.05613
928.32509	0.05509
927.03932	0.05410
925.75356	0.05315
924.46779	0.05228
923.18202	0.05153
921.89625	0.05088
920.61048	0.05032
919.32471	0.04979
918.03894	0.04930
916.75317	0.04884
915.46740	0.04840
914.18164	0.04795
912.89587	0.04749
911.61010	0.04703
910.32433	0.04660
909.03856	0.04620
907.75279	0.04584
906.46702	0.04548
905.18125	0.04512
903.89549	0.04478
902.60972	0.04450
901.32395	0.04427
900.03818	0.04406
898.75241	0.04386
897.46664	0.04374
896.18087	0.04372
894.89510	0.04379
893.60933	0.04385
892.32357	0.04389
891.03780	0.04398
889.75203	0.04426
888.46626	0.04487
887.18049	0.04598
885.89472	0.04780
884.60895	0.05055
883.32318	0.05426
882.03742	0.05859
880.75165	0.06281
879.46588	0.06619
878.18011	0.06850
876.89434	0.07019
875.60857	0.07191
874.32280	0.07385
873.03703	0.07551
871.75126	0.07619
870.46550	0.07558
869.17973	0.07380
867.89396	0.07116
866.60819	0.06795
865.32242	0.06449
864.03665	0.06113
862.75088	0.05810
861.46511	0.05543
860.17935	0.05307
858.89358	0.05105
857.60781	0.04942
856.32204	0.04813
855.03627	0.04706
853.75050	0.04614
852.46473	0.04534
851.17896	0.04463
849.89319	0.04398
848.60743	0.04335
847.32166	0.04281
846.03589	0.04241
844.75012	0.04217
843.46435	0.04201
842.17858	0.04182
840.89281	0.04153
839.60704	0.04115
838.32128	0.04075
837.03551	0.04036
835.74974	0.04003
834.46397	0.03977
833.17820	0.03963
831.89243	0.03959
830.60666	0.03955
829.32089	0.03943
828.03512	0.03924
826.74936	0.03901
825.46359	0.03882
824.17782	0.03870
822.89205	0.03865
821.60628	0.03866
820.32051	0.03873
819.03474	0.03882
817.74897	0.03887
816.46321	0.03888
815.17744	0.03886
813.89167	0.03887
812.60590	0.03891
811.32013	0.03892
810.03436	0.03886
808.74859	0.03872
807.46282	0.03859
806.17705	0.03853
804.89129	0.03854
803.60552	0.03852
802.31975	0.03842
801.03398	0.03826
799.74821	0.03812
798.46244	0.03806
797.17667	0.03805
795.89090	0.03806
794.60513	0.03807
793.31937	0.03808
792.03360	0.03810
790.74783	0.03814
789.46206	0.03813
788.17629	0.03803
786.89052	0.03783
785.60475	0.03760
784.31898	0.03743
783.03322	0.03740
781.74745	0.03750
780.46168	0.03762
779.17591	0.03770
777.89014	0.03769
776.60437	0.03766
775.31860	0.03765
774.03283	0.03764
772.74706	0.03760
771.46130	0.03752
770.17553	0.03745
768.88976	0.03746
767.60399	0.03752
766.31822	0.03763
765.03245	0.03776
763.74668	0.03791
762.46091	0.03808
761.17515	0.03827
759.88938	0.03847
758.60361	0.03864
757.31784	0.03872
756.03207	0.03867
754.74630	0.03853
753.46053	0.03837
752.17476	0.03825
750.88899	0.03815
749.60323	0.03804
748.31746	0.03793
747.03169	0.03785
745.74592	0.03776
744.46015	0.03759
743.17438	0.03734
741.88861	0.03705
740.60284	0.03686
739.31708	0.03681
738.03131	0.03687
736.74554	0.03697
735.45977	0.03705
734.17400	0.03709
732.88823	0.03708
731.60246	0.03705
730.31669	0.03700
729.03092	0.03696
727.74516	0.03696
726.45939	0.03703
725.17362	0.03716
723.88785	0.03739
722.60208	0.03752
721.31631	0.03756
720.03054	0.03758
718.74477	0.03758
717.45901	0.03753
716.17324	0.03747
714.88747	0.03742
713.60170	0.03738
712.31593	0.03736
711.03016	0.03737
709.74439	0.03739
708.45862	0.03739
707.17285	0.03736
705.88709	0.03728
704.60132	0.03720
703.31555	0.03713
702.02978	0.03710
700.74401	0.03710
699.45824	0.03711
698.17247	0.03711
696.88670	0.03711
695.60094	0.03709
694.31517	0.03706
693.02940	0.03703
691.74363	0.03702
690.45786	0.03706
689.17209	0.03711
687.88632	0.03716
686.60055	0.03716
685.31478	0.03709
684.02902	0.03698
682.74325	0.03686
681.45748	0.03677
680.17171	0.03672
678.88594	0.03671
677.60017	0.03674
676.31440	0.03683
675.02863	0.03695
673.74287	0.03710
672.45710	0.03739
671.17133	0.03796
669.88556	0.03861
668.59979	0.03854
667.31402	0.03852
666.02825	0.03878
664.74248	0.03804
663.45671	0.03727
662.17095	0.03683
660.88518	0.03654
659.59941	0.03635
658.31364	0.03624
657.02787	0.03624
655.74210	0.03627
654.45633	0.03630
653.17056	0.03628
651.88480	0.03629
650.59903	0.03637
649.31326	0.03652
648.02749	0.03673
646.74172	0.03690
645.45595	0.03702
644.17018	0.03715
642.88441	0.03734
641.59864	0.03762
640.31288	0.03797
639.02711	0.03837
637.74134	0.03882
636.45557	0.03932
635.16980	0.03985
633.88403	0.04040
632.59826	0.04096
631.31249	0.04167
630.02673	0.04294
628.74096	0.04456
627.45519	0.04510
626.16942	0.04688
624.88365	0.04951
623.59788	0.05243
622.31211	0.05595
621.02634	0.06030
619.74057	0.06504
618.45481	0.06947
617.16904	0.07314
615.88327	0.07602
614.59750	0.07832
613.31173	0.08054
612.02596	0.08379
610.74019	0.08959
609.45442	0.09842
608.16866	0.10847
606.88289	0.11700
605.59712	0.12273
604.31135	0.12617
603.02558	0.12818
601.73981	0.12896
600.45404	0.12833
599.16827	0.12632
597.88250	0.12332
596.59674	0.11987
595.31097	0.11634
594.02520	0.11291
592.73943	0.10973
591.45366	0.10710
590.16789	0.10544
588.88212	0.10500
587.59635	0.10569
586.31059	0.10721
585.02482	0.10929
583.73905	0.11185
582.45328	0.11486
581.16751	0.11820
579.88174	0.12170
578.59597	0.12529
577.31020	0.12900
576.02443	0.13281
574.73867	0.13662
573.45290	0.14035
572.16713	0.14408
570.88136	0.14808
569.59559	0.15265
568.30982	0.15804
567.02405	0.16421
565.73828	0.17074
564.45251	0.17687
563.16675	0.18171
561.88098	0.18444
560.59521	0.18448
559.30944	0.18152
558.02367	0.17568
556.73790	0.16743
555.45213	0.15754
554.16636	0.14683
552.88060	0.13610
551.59483	0.12599
550.30906	0.11689
549.02329	0.10886
547.73752	0.10175
546.45175	0.09537
545.16598	0.08965
543.88021	0.08461
542.59444	0.08023
541.30868	0.07642
540.02291	0.07305
538.73714	0.07004
537.45137	0.06731
536.16560	0.06479
534.87983	0.06247
533.59406	0.06035
532.30829	0.05843
531.02253	0.05665
529.73676	0.05494
528.45099	0.05330
527.16522	0.05181
525.87945	0.05052
524.59368	0.04938
523.30791	0.04828
522.02214	0.04715
520.73637	0.04598
519.45061	0.04480
518.16484	0.04368
516.87907	0.04267
515.59330	0.04177
514.30753	0.04095
513.02176	0.04021
511.73599	0.03954
510.45022	0.03894
509.16446	0.03839
507.87869	0.03786
506.59292	0.03732
505.30715	0.03680
504.02138	0.03634
502.73561	0.03595
501.44984	0.03563
500.16407	0.03535
498.87830	0.03508
497.59254	0.03483
496.30677	0.03462
495.02100	0.03444
493.73523	0.03426
492.44946	0.03406
491.16369	0.03382
489.87792	0.03354
488.59215	0.03323
487.30639	0.03290
486.02062	0.03264
484.73485	0.03249
483.44908	0.03250
482.16331	0.03262
480.87754	0.03282
479.59177	0.03306
478.30600	0.03332
477.02023	0.03358
475.73447	0.03389
474.44870	0.03425
473.16293	0.03463
471.87716	0.03492
470.59139	0.03506
469.30562	0.03507
468.01985	0.03500
466.73408	0.03488
465.44832	0.03468
464.16255	0.03440
462.87678	0.03407
461.59101	0.03371
460.30524	0.03334
459.01947	0.03295
457.73370	0.03253
456.44793	0.03212
455.16216	0.03176
453.87640	0.03147
452.59063	0.03121
451.30486	0.03096
450.01909	0.03077
448.73332	0.03067
447.44755	0.03063
446.16178	0.03055
444.87601	0.03040
443.59025	0.03021
442.30448	0.03003
441.01871	0.02990
439.73294	0.02984
438.44717	0.02986
437.16140	0.02992
435.87563	0.02996
434.58986	0.02997
433.30409	0.02993
432.01833	0.02989
430.73256	0.02983
429.44679	0.02977
428.16102	0.02970
426.87525	0.02965
425.58948	0.02961
424.30371	0.02957
423.01794	0.02952
421.73218	0.02943
420.44641	0.02931
419.16064	0.02919
417.87487	0.02912
416.58910	0.02912
415.30333	0.02918
414.01756	0.02926
412.73179	0.02932
411.44602	0.02934
410.16026	0.02931
408.87449	0.02930
407.58872	0.02937
406.30295	0.02953
405.01718	0.02972
403.73141	0.02988
402.44564	0.02998
401.15987	0.03008
399.87411	0.03021
