3997.45528	0.09841
3996.16951	0.09785
3994.88374	0.09811
3993.59798	0.09934
3992.31221	0.10105
3991.02644	0.10249
3989.74067	0.10305
3988.45490	0.10270
3987.16913	0.10195
3985.88336	0.10145
3984.59759	0.10141
3983.31183	0.10150
3982.02606	0.10141
3980.74029	0.10116
3979.45452	0.10096
3978.16875	0.10091
3976.88298	0.10095
3975.59721	0.10102
3974.31144	0.10100
3973.02567	0.10076
3971.73991	0.10031
3970.45414	0.09990
3969.16837	0.09985
3967.88260	0.10019
3966.59683	0.10061
3965.31106	0.10074
3964.02529	0.10047
3962.73952	0.10011
3961.45376	0.10018
3960.16799	0.10087
3958.88222	0.10171
3957.59645	0.10195
3956.31068	0.10136
3955.02491	0.10053
3953.73914	0.10021
3952.45337	0.10057
3951.16760	0.10121
3949.88184	0.10164
3948.59607	0.10161
3947.31030	0.10103
3946.02453	0.09998
3944.73876	0.09893
3943.45299	0.09869
3942.16722	0.09972
3940.88145	0.10146
3939.59569	0.10264
3938.30992	0.10233
3937.02415	0.10063
3935.73838	0.09850
3934.45261	0.09693
3933.16684	0.09635
3931.88107	0.09654
3930.59530	0.09703
3929.30953	0.09755
3928.02377	0.09811
3926.73800	0.09867
3925.45223	0.09904
3924.16646	0.09920
3922.88069	0.09930
3921.59492	0.09945
3920.30915	0.09949
3919.02338	0.09933
3917.73762	0.09923
3916.45185	0.09951
3915.16608	0.09998
3913.88031	0.09998
3912.59454	0.09925
3911.30877	0.09814
3910.02300	0.09718
3908.73723	0.09656
3907.45146	0.09617
3906.16570	0.09589
3904.87993	0.09566
3903.59416	0.09541
3902.30839	0.09513
3901.02262	0.09497
3899.73685	0.09507
3898.45108	0.09535
3897.16531	0.09549
3895.87955	0.09519
3894.59378	0.09443
3893.30801	0.09353
3892.02224	0.09282
3890.73647	0.09246
3889.45070	0.09234
3888.16493	0.09239
3886.87916	0.09279
3885.59339	0.09364
3884.30763	0.09456
3883.02186	0.09506
3881.73609	0.09517
3880.45032	0.09537
3879.16455	0.09584
3877.87878	0.09625
3876.59301	0.09635
3875.30724	0.09637
3874.02148	0.09672
3872.73571	0.09739
3871.44994	0.09786
3870.16417	0.09758
3868.87840	0.09634
3867.59263	0.09441
3866.30686	0.09253
3865.02109	0.09149
3863.73532	0.09153
3862.44956	0.09219
3861.16379	0.09278
3859.87802	0.09297
3858.59225	0.09293
3857.30648	0.09308
3856.02071	0.09363
3854.73494	0.09428
3853.44917	0.09452
3852.16341	0.09396
3850.87764	0.09282
3849.59187	0.09183
3848.30610	0.09165
3847.02033	0.09211
3845.73456	0.09244
3844.44879	0.09206
3843.16302	0.09119
3841.87725	0.09057
3840.59149	0.09072
3839.30572	0.09150
3838.01995	0.09238
3836.73418	0.09293
3835.44841	0.09293
3834.16264	0.09248
3832.87687	0.09187
3831.59110	0.09137
3830.30534	0.09114
3829.01957	0.09117
3827.73380	0.09140
3826.44803	0.09174
3825.16226	0.09203
3823.87649	0.09196
3822.59072	0.09147
3821.30495	0.09098
3820.01918	0.09095
3818.73342	0.09131
3817.44765	0.09158
3816.16188	0.09158
3814.87611	0.09142
3813.59034	0.09113
3812.30457	0.09074
3811.01880	0.09039
3809.73303	0.09029
3808.44726	0.09049
3807.16150	0.09092
3805.87573	0.09138
3804.58996	0.09140
3803.30419	0.09066
3802.01842	0.08937
3800.73265	0.08812
3799.44688	0.08732
3798.16111	0.08697
3796.87535	0.08696
3795.58958	0.08711
3794.30381	0.08726
3793.01804	0.08747
3791.73227	0.08805
3790.44650	0.08910
3789.16073	0.09019
3787.87496	0.09074
3786.58919	0.09063
3785.30343	0.09020
3784.01766	0.08973
3782.73189	0.08914
3781.44612	0.08831
3780.16035	0.08749
3778.87458	0.08697
3777.58881	0.08670
3776.30304	0.08644
3775.01728	0.08618
3773.73151	0.08611
3772.44574	0.08627
3771.15997	0.08651
3769.87420	0.08673
3768.58843	0.08684
3767.30266	0.08679
3766.01689	0.08667
3764.73112	0.08670
3763.44536	0.08706
3762.15959	0.08759
3760.87382	0.08789
3759.58805	0.08755
3758.30228	0.08646
3757.01651	0.08493
3755.73074	0.08352
3754.44497	0.08262
3753.15921	0.08227
3751.87344	0.08233
3750.58767	0.08263
3749.30190	0.08305
3748.01613	0.08339
3746.73036	0.08333
3745.44459	0.08284
3744.15882	0.08243
3742.87305	0.08249
3741.58729	0.08292
3740.30152	0.08350
3739.01575	0.08398
3737.72998	0.08405
3736.44421	0.08361
3735.15844	0.08286
3733.87267	0.08210
3732.58690	0.08159
3731.30114	0.08157
3730.01537	0.08206
3728.72960	0.08271
3727.44383	0.08315
3726.15806	0.08326
3724.87229	0.08310
3723.58652	0.08279
3722.30075	0.08232
3721.01498	0.08171
3719.72922	0.08102
3718.44345	0.08039
3717.15768	0.07997
3715.87191	0.07988
3714.58614	0.08011
3713.30037	0.08053
3712.01460	0.08092
3710.72883	0.08118
3709.44307	0.08138
3708.15730	0.08171
3706.87153	0.08206
3705.58576	0.08194
3704.29999	0.08095
3703.01422	0.07935
3701.72845	0.07794
3700.44268	0.07733
3699.15691	0.07741
3697.87115	0.07768
3696.58538	0.07799
3695.29961	0.07856
3694.01384	0.07953
3692.72807	0.08056
3691.44230	0.08126
3690.15653	0.08147
3688.87076	0.08127
3687.58500	0.08084
3686.29923	0.08027
3685.01346	0.07963
3683.72769	0.07911
3682.44192	0.07884
3681.15615	0.07877
3679.87038	0.07891
3678.58461	0.07941
3677.29884	0.08051
3676.01308	0.08239
3674.72731	0.08482
3673.44154	0.08705
3672.15577	0.08830
3670.87000	0.08841
3669.58423	0.08783
3668.29846	0.08712
3667.01269	0.08655
3665.72693	0.08611
3664.44116	0.08553
3663.15539	0.08466
3661.86962	0.08375
3660.58385	0.08327
3659.29808	0.08341
3658.01231	0.08391
3656.72654	0.08442
3655.44077	0.08478
3654.15501	0.08506
3652.86924	0.08532
3651.58347	0.08556
3650.29770	0.08582
3649.01193	0.08624
3647.72616	0.08690
3646.44039	0.08762
3645.15462	0.08813
3643.86886	0.08852
3642.58309	0.08920
3641.29732	0.09026
3640.01155	0.09122
3638.72578	0.09152
3637.44001	0.09110
3636.15424	0.09033
3634.86847	0.08968
3633.58270	0.08945
3632.29694	0.08967
3631.01117	0.09008
3629.72540	0.09043
3628.43963	0.09063
3627.15386	0.09072
3625.86809	0.09070
3624.58232	0.09066
3623.29655	0.09082
3622.01079	0.09132
3620.72502	0.09206
3619.43925	0.09279
3618.15348	0.09342
3616.86771	0.09403
3615.58194	0.09471
3614.29617	0.09538
3613.01040	0.09595
3611.72463	0.09653
3610.43887	0.09719
3609.15310	0.09771
3607.86733	0.09761
3606.58156	0.09666
3605.29579	0.09536
3604.01002	0.09469
3602.72425	0.09523
3601.43848	0.09658
3600.15272	0.09785
3598.86695	0.09849
3597.58118	0.09875
3596.29541	0.09924
3595.00964	0.10038
3593.72387	0.10203
3592.43810	0.10364
3591.15233	0.10474
3589.86656	0.10527
3588.58080	0.10548
3587.29503	0.10560
3586.00926	0.10580
3584.72349	0.10614
3583.43772	0.10651
3582.15195	0.10656
3580.86618	0.10605
3579.58041	0.10524
3578.29464	0.10475
3577.00888	0.10496
3575.72311	0.10577
3574.43734	0.10678
3573.15157	0.10782
3571.86580	0.10891
3570.58003	0.10999
3569.29426	0.11088
3568.00849	0.11144
3566.72273	0.11175
3565.43696	0.11186
3564.15119	0.11176
3562.86542	0.11151
3561.57965	0.11146
3560.29388	0.11194
3559.00811	0.11279
3557.72234	0.11346
3556.43657	0.11366
3555.15081	0.11366
3553.86504	0.11398
3552.57927	0.11476
3551.29350	0.11574
3550.00773	0.11656
3548.72196	0.11706
3547.43619	0.11726
3546.15042	0.11728
3544.86466	0.11730
3543.57889	0.11747
3542.29312	0.11784
3541.00735	0.11833
3539.72158	0.11869
3538.43581	0.11876
3537.15004	0.11862
3535.86427	0.11860
3534.57850	0.11905
3533.29274	0.12003
3532.00697	0.12118
3530.72120	0.12202
3529.43543	0.12234
3528.14966	0.12242
3526.86389	0.12264
3525.57812	0.12309
3524.29235	0.12348
3523.00659	0.12362
3521.72082	0.12366
3520.43505	0.12386
3519.14928	0.12430
3517.86351	0.12485
3516.57774	0.12535
3515.29197	0.12576
3514.00620	0.12611
3512.72043	0.12635
3511.43467	0.12640
3510.14890	0.12615
3508.86313	0.12568
3507.57736	0.12518
3506.29159	0.12476
3505.00582	0.12444
3503.72005	0.12426
3502.43428	0.12444
3501.14852	0.12515
3499.86275	0.12625
3498.57698	0.12734
3497.29121	0.12814
3496.00544	0.12866
3494.71967	0.12907
3493.43390	0.12953
3492.14813	0.13011
3490.86236	0.13090
3489.57660	0.13191
3488.29083	0.13294
3487.00506	0.13365
3485.71929	0.13379
3484.43352	0.13345
3483.14775	0.13288
3481.86198	0.13236
3480.57621	0.13212
3479.29045	0.13236
3478.00468	0.13306
3476.71891	0.13388
3475.43314	0.13442
3474.14737	0.13466
3472.86160	0.13491
3471.57583	0.13538
3470.29006	0.13591
3469.00429	0.13624
3467.71853	0.13636
3466.43276	0.13655
3465.14699	0.13711
3463.86122	0.13796
3462.57545	0.13873
3461.28968	0.13904
3460.00391	0.13887
3458.71814	0.13855
3457.43238	0.13843
3456.14661	0.13862
3454.86084	0.13892
3453.57507	0.13912
3452.28930	0.13906
3451.00353	0.13879
3449.71776	0.13853
3448.43199	0.13858
3447.14622	0.13907
3445.86046	0.13984
3444.57469	0.14061
3443.28892	0.14123
3442.00315	0.14177
3440.71738	0.14231
3439.43161	0.14285
3438.14584	0.14329
3436.86007	0.14355
3435.57431	0.14372
3434.28854	0.14406
3433.00277	0.14465
3431.71700	0.14528
3430.43123	0.14561
3429.14546	0.14563
3427.85969	0.14557
3426.57392	0.14551
3425.28815	0.14534
3424.00239	0.14504
3422.71662	0.14487
3421.43085	0.14511
3420.14508	0.14573
3418.85931	0.14638
3417.57354	0.14668
3416.28777	0.14649
3415.00200	0.14597
3413.71624	0.14544
3412.43047	0.14525
3411.14470	0.14561
3409.85893	0.14641
3408.57316	0.14732
3407.28739	0.14795
3406.00162	0.14813
3404.71585	0.14796
3403.43008	0.14771
3402.14432	0.14759
3400.85855	0.14771
3399.57278	0.14804
3398.28701	0.14854
3397.00124	0.14908
3395.71547	0.14942
3394.42970	0.14947
3393.14393	0.14931
3391.85817	0.14927
3390.57240	0.14965
3389.28663	0.15041
3388.00086	0.15115
3386.71509	0.15152
3385.42932	0.15153
3384.14355	0.15153
3382.85778	0.15177
3381.57201	0.15208
3380.28625	0.15216
3379.00048	0.15188
3377.71471	0.15134
3376.42894	0.15065
3375.14317	0.14989
3373.85740	0.14922
3372.57163	0.14889
3371.28586	0.14900
3370.00010	0.14938
3368.71433	0.14979
3367.42856	0.15018
3366.14279	0.15071
3364.85702	0.15149
3363.57125	0.15236
3362.28548	0.15285
3360.99971	0.15266
3359.71394	0.15205
3358.42818	0.15166
3357.14241	0.15185
3355.85664	0.15239
3354.57087	0.15279
3353.28510	0.15278
3351.99933	0.15245
3350.71356	0.15210
3349.42779	0.15185
3348.14202	0.15163
3346.85626	0.15130
3345.57049	0.15083
3344.28472	0.15036
3342.99895	0.15008
3341.71318	0.15007
3340.42741	0.15033
3339.14164	0.15082
3337.85587	0.15140
3336.57011	0.15188
3335.28434	0.15212
3333.99857	0.15210
3332.71280	0.15183
3331.42703	0.15132
3330.14126	0.15061
3328.85549	0.14993
3327.56972	0.14957
3326.28395	0.14969
3324.99819	0.15020
3323.71242	0.15076
3322.42665	0.15103
3321.14088	0.15085
3319.85511	0.15031
3318.56934	0.14972
3317.28357	0.14935
3315.99780	0.14933
3314.71204	0.14957
3313.42627	0.14992
3312.14050	0.15022
3310.85473	0.15038
3309.56896	0.15047
3308.28319	0.15061
3306.99742	0.15090
3305.71165	0.15130
3304.42588	0.15161
3303.14012	0.15169
3301.85435	0.15147
3300.56858	0.15106
3299.28281	0.15068
3297.99704	0.15045
3296.71127	0.15033
3295.42550	0.15008
3294.13973	0.14958
3292.85397	0.14908
3291.56820	0.14896
3290.28243	0.14930
3288.99666	0.14979
3287.71089	0.14997
3286.42512	0.14963
3285.13935	0.14889
3283.85358	0.14810
3282.56781	0.14759
3281.28205	0.14747
3279.99628	0.14756
3278.71051	0.14757
3277.42474	0.14740
3276.13897	0.14715
3274.85320	0.14692
3273.56743	0.14673
3272.28166	0.14655
3270.99590	0.14645
3269.71013	0.14651
3268.42436	0.14675
3267.13859	0.14698
3265.85282	0.14695
3264.56705	0.14648
3263.28128	0.14570
3261.99551	0.14500
3260.70974	0.14484
3259.42398	0.14548
3258.13821	0.14674
3256.85244	0.14810
3255.56667	0.14900
3254.28090	0.14912
3252.99513	0.14851
3251.70936	0.14753
3250.42359	0.14656
3249.13783	0.14592
3247.85206	0.14571
3246.56629	0.14582
3245.28052	0.14602
3243.99475	0.14607
3242.70898	0.14592
3241.42321	0.14577
3240.13744	0.14586
3238.85167	0.14619
3237.56591	0.14637
3236.28014	0.14605
3234.99437	0.14527
3233.70860	0.14443
3232.42283	0.14385
3231.13706	0.14353
3229.85129	0.14322
3228.56552	0.14278
3227.27976	0.14229
3225.99399	0.14198
3224.70822	0.14198
3223.42245	0.14223
3222.13668	0.14258
3220.85091	0.14286
3219.56514	0.14291
3218.27937	0.14269
3216.99360	0.14237
3215.70784	0.14216
3214.42207	0.14216
3213.13630	0.14233
3211.85053	0.14261
3210.56476	0.14295
3209.27899	0.14329
3207.99322	0.14350
3206.70745	0.14353
3205.42169	0.14336
3204.13592	0.14295
3202.85015	0.14224
3201.56438	0.14129
3200.27861	0.14031
3198.99284	0.13962
3197.70707	0.13938
3196.42130	0.13959
3195.13553	0.14000
3193.84977	0.14025
3192.56400	0.14015
3191.27823	0.13987
3189.99246	0.13976
3188.70669	0.13996
3187.42092	0.14026
3186.13515	0.14041
3184.84938	0.14042
3183.56362	0.14040
3182.27785	0.14036
3180.99208	0.14011
3179.70631	0.13956
3178.42054	0.13887
3177.13477	0.13829
3175.84900	0.13789
3174.56323	0.13763
3173.27746	0.13751
3171.99170	0.13756
3170.70593	0.13767
3169.42016	0.13768
3168.13439	0.13751
3166.84862	0.13725
3165.56285	0.13702
3164.27708	0.13684
3162.99131	0.13668
3161.70555	0.13659
3160.41978	0.13657
3159.13401	0.13658
3157.84824	0.13658
3156.56247	0.13660
3155.27670	0.13672
3153.99093	0.13685
3152.70516	0.13678
3151.41939	0.13646
3150.13363	0.13600
3148.84786	0.13552
3147.56209	0.13493
3146.27632	0.13415
3144.99055	0.13327
3143.70478	0.13254
3142.41901	0.13207
3141.13324	0.13184
3139.84748	0.13176
3138.56171	0.13180
3137.27594	0.13190
3135.99017	0.13195
3134.70440	0.13182
3133.41863	0.13149
3132.13286	0.13108
3130.84709	0.13082
3129.56132	0.13086
3128.27556	0.13111
3126.98979	0.13126
3125.70402	0.13111
3124.41825	0.13076
3123.13248	0.13041
3121.84671	0.13008
3120.56094	0.12964
3119.27517	0.12907
3117.98940	0.12862
3116.70364	0.12847
3115.41787	0.12852
3114.13210	0.12855
3112.84633	0.12843
3111.56056	0.12826
3110.27479	0.12816
3108.98902	0.12804
3107.70325	0.12770
3106.41749	0.12703
3105.13172	0.12622
3103.84595	0.12562
3102.56018	0.12542
3101.27441	0.12555
3099.98864	0.12578
3098.70287	0.12592
3097.41710	0.12587
3096.13133	0.12558
3094.84557	0.12505
3093.55980	0.12444
3092.27403	0.12403
3090.98826	0.12392
3089.70249	0.12393
3088.41672	0.12382
3087.13095	0.12356
3085.84518	0.12333
3084.55942	0.12324
3083.27365	0.12324
3081.98788	0.12325
3080.70211	0.12331
3079.41634	0.12346
3078.13057	0.12367
3076.84480	0.12384
3075.55903	0.12393
3074.27326	0.12387
3072.98750	0.12358
3071.70173	0.12303
3070.41596	0.12235
3069.13019	0.12181
3067.84442	0.12156
3066.55865	0.12160
3065.27288	0.12185
3063.98711	0.12220
3062.70135	0.12250
3061.41558	0.12255
3060.12981	0.12223
3058.84404	0.12165
3057.55827	0.12097
3056.27250	0.12032
3054.98673	0.11971
3053.70096	0.11920
3052.41519	0.11891
3051.12943	0.11898
3049.84366	0.11941
3048.55789	0.11994
3047.27212	0.12020
3045.98635	0.12001
3044.70058	0.11947
3043.41481	0.11890
3042.12904	0.11852
3040.84328	0.11838
3039.55751	0.11838
3038.27174	0.11843
3036.98597	0.11842
3035.70020	0.11825
3034.41443	0.11791
3033.12866	0.11745
3031.84289	0.11699
3030.55712	0.11668
3029.27136	0.11651
3027.98559	0.11634
3026.69982	0.11598
3025.41405	0.11540
3024.12828	0.11485
3022.84251	0.11467
3021.55674	0.11495
3020.27097	0.11547
3018.98521	0.11581
3017.69944	0.11568
3016.41367	0.11505
3015.12790	0.11418
3013.84213	0.11343
3012.55636	0.11302
3011.27059	0.11289
3009.98482	0.11285
3008.69905	0.11273
3007.41329	0.11251
3006.12752	0.11224
3004.84175	0.11193
3003.55598	0.11150
3002.27021	0.11094
3000.98444	0.11040
2999.69867	0.11011
2998.41290	0.11025
2997.12714	0.11062
2995.84137	0.11099
2994.55560	0.11128
2993.26983	0.11154
2991.98406	0.11181
2990.69829	0.11199
2989.41252	0.11198
2988.12675	0.11180
2986.84098	0.11164
2985.55522	0.11186
2984.26945	0.11271
2982.98368	0.11417
2981.69791	0.11588
2980.41214	0.11737
2979.12637	0.11838
2977.84060	0.11907
2976.55483	0.11986
2975.26907	0.12107
2973.98330	0.12280
2972.69753	0.12501
2971.41176	0.12771
2970.12599	0.13075
2968.84022	0.13380
2967.55445	0.13663
2966.26868	0.13935
2964.98291	0.14226
2963.69715	0.14544
2962.41138	0.14860
2961.12561	0.15141
2959.83984	0.15382
2958.55407	0.15606
2957.26830	0.15829
2955.98253	0.16035
2954.69676	0.16194
2953.41100	0.16294
2952.12523	0.16350
2950.83946	0.16380
2949.55369	0.16392
2948.26792	0.16388
2946.98215	0.16381
2945.69638	0.16390
2944.41061	0.16417
2943.12484	0.16454
2941.83908	0.16496
2940.55331	0.16553
2939.26754	0.16650
2937.98177	0.16807
2936.69600	0.17022
2935.41023	0.17266
2934.12446	0.17505
2932.83869	0.17730
2931.55293	0.17956
2930.26716	0.18204
2928.98139	0.18467
2927.69562	0.18718
2926.40985	0.18925
2925.12408	0.19073
2923.83831	0.19155
2922.55254	0.19163
2921.26677	0.19096
2919.98101	0.18972
2918.69524	0.18822
2917.40947	0.18665
2916.12370	0.18500
2914.83793	0.18326
2913.55216	0.18151
2912.26639	0.17985
2910.98062	0.17809
2909.69486	0.17593
2908.40909	0.17330
2907.12332	0.17053
2905.83755	0.16805
2904.55178	0.16603
2903.26601	0.16439
2901.98024	0.16294
2900.69447	0.16159
2899.40870	0.16027
2898.12294	0.15894
2896.83717	0.15754
2895.55140	0.15602
2894.26563	0.15443
2892.97986	0.15286
2891.69409	0.15135
2890.40832	0.14985
2889.12255	0.14828
2887.83678	0.14661
2886.55102	0.14493
2885.26525	0.14345
2883.97948	0.14246
2882.69371	0.14202
2881.40794	0.14182
2880.12217	0.14146
2878.83640	0.14093
2877.55063	0.14067
2876.26487	0.14114
2874.97910	0.14241
2873.69333	0.14410
2872.40756	0.14570
2871.12179	0.14689
2869.83602	0.14764
2868.55025	0.14808
2867.26448	0.14838
2865.97871	0.14871
2864.69295	0.14907
2863.40718	0.14934
2862.12141	0.14944
2860.83564	0.14944
2859.54987	0.14953
2858.26410	0.14972
2856.97833	0.14990
2855.69256	0.14990
2854.40680	0.14966
2853.12103	0.14914
2851.83526	0.14829
2850.54949	0.14705
2849.26372	0.14544
2847.97795	0.14353
2846.69218	0.14144
2845.40641	0.13930
2844.12064	0.13718
2842.83488	0.13500
2841.54911	0.13264
2840.26334	0.13007
2838.97757	0.12748
2837.69180	0.12511
2836.40603	0.12306
2835.12026	0.12124
2833.83449	0.11946
2832.54873	0.11765
2831.26296	0.11588
2829.97719	0.11425
2828.69142	0.11274
2827.40565	0.11130
2826.11988	0.10993
2824.83411	0.10871
2823.54834	0.10761
2822.26257	0.10657
2820.97681	0.10559
2819.69104	0.10475
2818.40527	0.10407
2817.11950	0.10341
2815.83373	0.10274
2814.54796	0.10217
2813.26219	0.10180
2811.97642	0.10155
2810.69066	0.10125
2809.40489	0.10085
2808.11912	0.10040
2806.83335	0.10000
2805.54758	0.09962
2804.26181	0.09917
2802.97604	0.09860
2801.69027	0.09796
2800.40450	0.09741
2799.11874	0.09699
2797.83297	0.09662
2796.54720	0.09616
2795.26143	0.09555
2793.97566	0.09493
2792.68989	0.09447
2791.40412	0.09422
2790.11835	0.09405
2788.83259	0.09377
2787.54682	0.09338
2786.26105	0.09307
2784.97528	0.09296
2783.68951	0.09297
2782.40374	0.09291
2781.11797	0.09272
2779.83220	0.09242
2778.54643	0.09204
2777.26067	0.09160
2775.97490	0.09112
2774.68913	0.09067
2773.40336	0.09037
2772.11759	0.09028
2770.83182	0.09035
2769.54605	0.09046
2768.26028	0.09048
2766.97452	0.09035
2765.68875	0.09008
2764.40298	0.08973
2763.11721	0.08935
2761.83144	0.08905
2760.54567	0.08885
2759.25990	0.08874
2757.97413	0.08870
2756.68836	0.08871
2755.40260	0.08876
2754.11683	0.08874
2752.83106	0.08853
2751.54529	0.08812
2750.25952	0.08768
2748.97375	0.08742
2747.68798	0.08738
2746.40221	0.08742
2745.11645	0.08737
2743.83068	0.08723
2742.54491	0.08712
2741.25914	0.08711
2739.97337	0.08709
2738.68760	0.08699
2737.40183	0.08681
2736.11606	0.08661
2734.83029	0.08638
2733.54453	0.08602
2732.25876	0.08549
2730.97299	0.08497
2729.68722	0.08471
2728.40145	0.08484
2727.11568	0.08515
2725.82991	0.08524
2724.54414	0.08492
2723.25838	0.08434
2721.97261	0.08384
2720.68684	0.08361
2719.40107	0.08360
2718.11530	0.08363
2716.82953	0.08359
2715.54376	0.08344
2714.25799	0.08321
2712.97222	0.08295
2711.68646	0.08269
2710.40069	0.08248
2709.11492	0.08235
2707.82915	0.08228
2706.54338	0.08218
2705.25761	0.08195
2703.97184	0.08160
2702.68607	0.08125
2701.40031	0.08101
2700.11454	0.08089
2698.82877	0.08087
2697.54300	0.08085
2696.25723	0.08075
2694.97146	0.08055
2693.68569	0.08036
2692.39992	0.08030
2691.11415	0.08036
2689.82839	0.08040
2688.54262	0.08028
2687.25685	0.07997
2685.97108	0.07961
2684.68531	0.07937
2683.39954	0.07928
2682.11377	0.07929
2680.82800	0.07930
2679.54224	0.07924
2678.25647	0.07912
2676.97070	0.07898
2675.68493	0.07879
2674.39916	0.07851
2673.11339	0.07809
2671.82762	0.07763
2670.54185	0.07731
2669.25608	0.07722
2667.97032	0.07732
2666.68455	0.07752
2665.39878	0.07781
2664.11301	0.07815
2662.82724	0.07837
2661.54147	0.07831
2660.25570	0.07794
2658.96993	0.07739
2657.68417	0.07683
2656.39840	0.07641
2655.11263	0.07620
2653.82686	0.07609
2652.54109	0.07591
2651.25532	0.07561
2649.96955	0.07528
2648.68378	0.07501
2647.39801	0.07476
2646.11225	0.07441
2644.82648	0.07400
2643.54071	0.07360
2642.25494	0.07322
2640.96917	0.07284
2639.68340	0.07246
2638.39763	0.07220
2637.11186	0.07210
2635.82609	0.07209
2634.54033	0.07204
2633.25456	0.07183
2631.96879	0.07140
2630.68302	0.07080
2629.39725	0.07024
2628.11148	0.06993
2626.82571	0.06983
2625.53994	0.06979
2624.25418	0.06974
2622.96841	0.06974
2621.68264	0.06977
2620.39687	0.06957
2619.11110	0.06901
2617.82533	0.06831
2616.53956	0.06785
2615.25379	0.06772
2613.96802	0.06760
2612.68226	0.06725
2611.39649	0.06675
2610.11072	0.06643
2608.82495	0.06638
2607.53918	0.06639
2606.25341	0.06616
2604.96764	0.06559
2603.68187	0.06489
2602.39611	0.06437
2601.11034	0.06423
2599.82457	0.06442
2598.53880	0.06472
2597.25303	0.06492
2595.96726	0.06491
2594.68149	0.06461
2593.39572	0.06404
2592.10995	0.06333
2590.82419	0.06277
2589.53842	0.06257
2588.25265	0.06272
2586.96688	0.06293
2585.68111	0.06290
2584.39534	0.06265
2583.10957	0.06251
2581.82380	0.06272
2580.53804	0.06310
2579.25227	0.06327
2577.96650	0.06297
2576.68073	0.06233
2575.39496	0.06175
2574.10919	0.06158
2572.82342	0.06171
2571.53765	0.06174
2570.25188	0.06142
2568.96612	0.06100
2567.68035	0.06091
2566.39458	0.06120
2565.10881	0.06153
2563.82304	0.06154
2562.53727	0.06115
2561.25150	0.06052
2559.96573	0.05984
2558.67997	0.05923
2557.39420	0.05880
2556.10843	0.05868
2554.82266	0.05893
2553.53689	0.05940
2552.25112	0.05982
2550.96535	0.05997
2549.67958	0.05986
2548.39381	0.05972
2547.10805	0.05971
2545.82228	0.05974
2544.53651	0.05954
2543.25074	0.05898
2541.96497	0.05831
2540.67920	0.05788
2539.39343	0.05785
2538.10766	0.05801
2536.82190	0.05810
2535.53613	0.05805
2534.25036	0.05800
2532.96459	0.05807
2531.67882	0.05818
2530.39305	0.05821
2529.10728	0.05809
2527.82151	0.05787
2526.53574	0.05768
2525.24998	0.05759
2523.96421	0.05750
2522.67844	0.05734
2521.39267	0.05725
2520.10690	0.05740
2518.82113	0.05771
2517.53536	0.05786
2516.24959	0.05770
2514.96383	0.05736
2513.67806	0.05704
2512.39229	0.05676
2511.10652	0.05644
2509.82075	0.05606
2508.53498	0.05576
2507.24921	0.05573
2505.96344	0.05604
2504.67767	0.05643
2503.39191	0.05656
2502.10614	0.05637
2500.82037	0.05607
2499.53460	0.05593
2498.24883	0.05596
2496.96306	0.05604
2495.67729	0.05603
2494.39152	0.05591
2493.10576	0.05573
2491.81999	0.05555
2490.53422	0.05543
2489.24845	0.05533
2487.96268	0.05522
2486.67691	0.05520
2485.39114	0.05541
2484.10537	0.05580
2482.81960	0.05616
2481.53384	0.05628
2480.24807	0.05613
2478.96230	0.05576
2477.67653	0.05522
2476.39076	0.05458
2475.10499	0.05400
2473.81922	0.05373
2472.53345	0.05392
2471.24769	0.05445
2469.96192	0.05501
2468.67615	0.05527
2467.39038	0.05519
2466.10461	0.05497
2464.81884	0.05483
2463.53307	0.05489
2462.24730	0.05510
2460.96153	0.05536
2459.67577	0.05550
2458.39000	0.05546
2457.10423	0.05532
2455.81846	0.05520
2454.53269	0.05507
2453.24692	0.05468
2451.96115	0.05403
2450.67538	0.05336
2449.38962	0.05293
2448.10385	0.05276
2446.81808	0.05272
2445.53231	0.05273
2444.24654	0.05276
2442.96077	0.05274
2441.67500	0.05261
2440.38923	0.05241
2439.10346	0.05228
2437.81770	0.05237
2436.53193	0.05264
2435.24616	0.05291
2433.96039	0.05294
2432.67462	0.05272
2431.38885	0.05248
2430.10308	0.05236
2428.81731	0.05222
2427.53155	0.05192
2426.24578	0.05159
2424.96001	0.05152
2423.67424	0.05177
2422.38847	0.05215
2421.10270	0.05246
2419.81693	0.05259
2418.53116	0.05257
2417.24539	0.05249
2415.95963	0.05249
2414.67386	0.05260
2413.38809	0.05266
2412.10232	0.05242
2410.81655	0.05181
2409.53078	0.05097
2408.24501	0.05024
2406.95924	0.04986
2405.67347	0.04993
2404.38771	0.05035
2403.10194	0.05096
2401.81617	0.05159
2400.53040	0.05207
2399.24463	0.05221
2397.95886	0.05201
2396.67309	0.05160
2395.38732	0.05118
2394.10156	0.05088
2392.81579	0.05069
2391.53002	0.05052
2390.24425	0.05033
2388.95848	0.05021
2387.67271	0.05027
2386.38694	0.05054
2385.10117	0.05095
2383.81540	0.05138
2382.52964	0.05173
2381.24387	0.05194
2379.95810	0.05198
2378.67233	0.05187
2377.38656	0.05166
2376.10079	0.05139
2374.81502	0.05115
2373.52925	0.05100
2372.24349	0.05099
2370.95772	0.05107
2369.67195	0.05127
2368.38618	0.05147
2367.10041	0.05156
2365.81464	0.05152
2364.52887	0.05152
2363.24310	0.05152
2361.95733	0.05145
2360.67157	0.05132
2359.38580	0.05140
2358.10003	0.05162
2356.81426	0.05183
2355.52849	0.05196
2354.24272	0.05200
2352.95695	0.05200
2351.67118	0.05184
2350.38542	0.05144
2349.09965	0.05106
2347.81388	0.05099
2346.52811	0.05105
2345.24234	0.05115
2343.95657	0.05137
2342.67080	0.05171
2341.38503	0.05178
2340.09926	0.05153
2338.81350	0.05147
2337.52773	0.05169
2336.24196	0.05170
2334.95619	0.05149
2333.67042	0.05150
2332.38465	0.05172
2331.09888	0.05143
2329.81311	0.05117
2328.52735	0.05174
2327.24158	0.05204
2325.95581	0.05205
2324.67004	0.05236
2323.38427	0.05215
2322.09850	0.05144
2320.81273	0.05120
2319.52696	0.05082
2318.24119	0.05050
2316.95543	0.05072
2315.66966	0.05077
2314.38389	0.05061
2313.09812	0.05049
2311.81235	0.05010
2310.52658	0.04973
2309.24081	0.04922
2307.95504	0.04846
2306.66928	0.04786
2305.38351	0.04745
2304.09774	0.04738
2302.81197	0.04762
2301.52620	0.04793
2300.24043	0.04823
2298.95466	0.04828
2297.66889	0.04806
2296.38312	0.04764
2295.09736	0.04715
2293.81159	0.04669
2292.52582	0.04624
2291.24005	0.04588
2289.95428	0.04569
2288.66851	0.04573
2287.38274	0.04592
2286.09697	0.04605
2284.81121	0.04585
2283.52544	0.04520
2282.23967	0.04431
2280.95390	0.04363
2279.66813	0.04342
2278.38236	0.04353
2277.09659	0.04349
2275.81082	0.04298
2274.52505	0.04209
2273.23929	0.04128
2271.95352	0.04092
2270.66775	0.04098
2269.38198	0.04117
2268.09621	0.04131
2266.81044	0.04145
2265.52467	0.04165
2264.23890	0.04186
2262.95314	0.04195
2261.66737	0.04189
2260.38160	0.04166
2259.09583	0.04118
2257.81006	0.04034
2256.52429	0.03926
2255.23852	0.03826
2253.95275	0.03763
2252.66698	0.03743
2251.38122	0.03751
2250.09545	0.03778
2248.80968	0.03821
2247.52391	0.03863
2246.23814	0.03871
2244.95237	0.03827
2243.66660	0.03761
2242.38083	0.03715
2241.09507	0.03704
2239.80930	0.03705
2238.52353	0.03683
2237.23776	0.03630
2235.95199	0.03574
2234.66622	0.03536
2233.38045	0.03520
2232.09468	0.03514
2230.80891	0.03496
2229.52315	0.03435
2228.23738	0.03321
2226.95161	0.03195
2225.66584	0.03122
2224.38007	0.03130
2223.09430	0.03195
2221.80853	0.03271
2220.52276	0.03318
2219.23700	0.03307
2217.95123	0.03241
2216.66546	0.03165
2215.37969	0.03133
2214.09392	0.03154
2212.80815	0.03194
2211.52238	0.03215
2210.23661	0.03208
2208.95084	0.03193
2207.66508	0.03183
2206.37931	0.03161
2205.09354	0.03088
2203.80777	0.02958
2202.52200	0.02820
2201.23623	0.02741
2199.95046	0.02757
2198.66469	0.02843
2197.37893	0.02931
2196.09316	0.02943
2194.80739	0.02841
2193.52162	0.02664
2192.23585	0.02520
2190.95008	0.02502
2189.66431	0.02604
2188.37854	0.02728
2187.09277	0.02775
2185.80701	0.02716
2184.52124	0.02598
2183.23547	0.02501
2181.94970	0.02486
2180.66393	0.02539
2179.37816	0.02579
2178.09239	0.02530
2176.80662	0.02413
2175.52085	0.02337
2174.23509	0.02390
2172.94932	0.02551
2171.66355	0.02700
2170.37778	0.02721
2169.09201	0.02586
2167.80624	0.02365
2166.52047	0.02179
2165.23470	0.02098
2163.94894	0.02092
2162.66317	0.02071
2161.37740	0.01986
2160.09163	0.01892
2158.80586	0.01882
2157.52009	0.01983
2156.23432	0.02122
2154.94855	0.02218
2153.66278	0.02260
2152.37702	0.02285
2151.09125	0.02319
2149.80548	0.02349
2148.51971	0.02359
2147.23394	0.02355
2145.94817	0.02358
2144.66240	0.02369
2143.37663	0.02380
2142.09087	0.02403
2140.80510	0.02458
2139.51933	0.02539
2138.23356	0.02611
2136.94779	0.02652
2135.66202	0.02673
2134.37625	0.02704
2133.09048	0.02764
2131.80471	0.02856
2130.51895	0.02951
2129.23318	0.03007
2127.94741	0.03005
2126.66164	0.02970
2125.37587	0.02948
2124.09010	0.02950
2122.80433	0.02955
2121.51856	0.02947
2120.23280	0.02947
2118.94703	0.02980
2117.66126	0.03044
2116.37549	0.03106
2115.08972	0.03143
2113.80395	0.03150
2112.51818	0.03136
2111.23241	0.03115
2109.94664	0.03095
2108.66088	0.03078
2107.37511	0.03057
2106.08934	0.03012
2104.80357	0.02929
2103.51780	0.02818
2102.23203	0.02716
2100.94626	0.02670
2099.66049	0.02741
2098.37473	0.02827
2097.08896	0.02884
2095.80319	0.02904
2094.51742	0.02902
2093.23165	0.02906
2091.94588	0.02926
2090.66011	0.02947
2089.37434	0.02950
2088.08857	0.02937
2086.80281	0.02927
2085.51704	0.02926
2084.23127	0.02916
2082.94550	0.02876
2081.65973	0.02812
2080.37396	0.02755
2079.08819	0.02725
2077.80242	0.02709
2076.51666	0.02677
2075.23089	0.02616
2073.94512	0.02543
2072.65935	0.02483
2071.37358	0.02466
2070.08781	0.02502
2068.80204	0.02571
2067.51627	0.02617
2066.23050	0.02596
2064.94474	0.02511
2063.65897	0.02409
2062.37320	0.02336
2061.08743	0.02305
2059.80166	0.02303
2058.51589	0.02305
2057.23012	0.02292
2055.94435	0.02272
2054.65859	0.02269
2053.37282	0.02281
2052.08705	0.02274
2050.80128	0.02219
2049.51551	0.02134
2048.22974	0.02072
2046.94397	0.02074
2045.65820	0.02131
2044.37243	0.02197
2043.08667	0.02225
2041.80090	0.02203
2040.51513	0.02157
2039.22936	0.02119
2037.94359	0.02083
2036.65782	0.02007
2035.37205	0.01860
2034.08628	0.01667
2032.80052	0.01496
2031.51475	0.01403
2030.22898	0.01399
2028.94321	0.01463
2027.65744	0.01556
2026.37167	0.01628
2025.08590	0.01641
2023.80013	0.01599
2022.51436	0.01554
2021.22860	0.01556
2019.94283	0.01598
2018.65706	0.01640
2017.37129	0.01655
2016.08552	0.01654
2014.79975	0.01667
2013.51398	0.01709
2012.22821	0.01782
2010.94245	0.01882
2009.65668	0.01992
2008.37091	0.02074
2007.08514	0.02095
2005.79937	0.02066
2004.51360	0.02033
2003.22783	0.02024
2001.94206	0.02035
2000.65629	0.02052
1999.37053	0.02066
1998.08476	0.02070
1996.79899	0.02066
1995.51322	0.02064
1994.22745	0.02069
1992.94168	0.02075
1991.65591	0.02080
1990.37014	0.02097
1989.08438	0.02132
1987.79861	0.02161
1986.51284	0.02166
1985.22707	0.02168
1983.94130	0.02200
1982.65553	0.02250
1981.36976	0.02260
1980.08399	0.02188
1978.79822	0.02054
1977.51246	0.01916
1976.22669	0.01830
1974.94092	0.01822
1973.65515	0.01880
1972.36938	0.01967
1971.08361	0.02054
1969.79784	0.02132
1968.51207	0.02204
1967.22631	0.02263
1965.94054	0.02299
1964.65477	0.02304
1963.36900	0.02292
1962.08323	0.02293
1960.79746	0.02338
1959.51169	0.02429
1958.22592	0.02535
1956.94015	0.02606
1955.65439	0.02618
1954.36862	0.02577
1953.08285	0.02510
1951.79708	0.02439
1950.51131	0.02372
1949.22554	0.02307
1947.93977	0.02261
1946.65400	0.02261
1945.36823	0.02308
1944.08247	0.02372
1942.79670	0.02414
1941.51093	0.02425
1940.22516	0.02436
1938.93939	0.02466
1937.65362	0.02505
1936.36785	0.02533
1935.08208	0.02560
1933.79632	0.02612
1932.51055	0.02690
1931.22478	0.02758
1929.93901	0.02785
1928.65324	0.02775
1927.36747	0.02751
1926.08170	0.02726
1924.79593	0.02698
1923.51016	0.02672
1922.22440	0.02669
1920.93863	0.02709
1919.65286	0.02792
1918.36709	0.02884
1917.08132	0.02940
1915.79555	0.02935
1914.50978	0.02886
1913.22401	0.02837
1911.93825	0.02822
1910.65248	0.02834
1909.36671	0.02848
1908.08094	0.02846
1906.79517	0.02838
1905.50940	0.02842
1904.22363	0.02864
1902.93786	0.02892
1901.65209	0.02916
1900.36633	0.02933
1899.08056	0.02944
1897.79479	0.02945
1896.50902	0.02928
1895.22325	0.02898
1893.93748	0.02870
1892.65171	0.02862
1891.36594	0.02877
1890.08018	0.02900
1888.79441	0.02912
1887.50864	0.02904
1886.22287	0.02882
1884.93710	0.02858
1883.65133	0.02843
1882.36556	0.02841
1881.07979	0.02843
1879.79402	0.02844
1878.50826	0.02843
1877.22249	0.02849
1875.93672	0.02868
1874.65095	0.02896
1873.36518	0.02918
1872.07941	0.02920
1870.79364	0.02904
1869.50787	0.02891
1868.22211	0.02901
1866.93634	0.02930
1865.65057	0.02960
1864.36480	0.02969
1863.07903	0.02953
1861.79326	0.02923
1860.50749	0.02895
1859.22172	0.02885
1857.93595	0.02893
1856.65019	0.02910
1855.36442	0.02917
1854.07865	0.02911
1852.79288	0.02902
1851.50711	0.02903
1850.22134	0.02916
1848.93557	0.02934
1847.64980	0.02948
1846.36404	0.02952
1845.07827	0.02946
1843.79250	0.02933
1842.50673	0.02925
1841.22096	0.02928
1839.93519	0.02940
1838.64942	0.02954
1837.36365	0.02960
1836.07788	0.02956
1834.79212	0.02950
1833.50635	0.02952
1832.22058	0.02963
1830.93481	0.02976
1829.64904	0.02981
1828.36327	0.02978
1827.07750	0.02970
1825.79173	0.02967
1824.50597	0.02974
1823.22020	0.02992
1821.93443	0.03018
1820.64866	0.03045
1819.36289	0.03058
1818.07712	0.03047
1816.79135	0.03019
1815.50558	0.02990
1814.21981	0.02976
1812.93405	0.02974
1811.64828	0.02980
1810.36251	0.02990
1809.07674	0.03001
1807.79097	0.03010
1806.50520	0.03014
1805.21943	0.03017
1803.93366	0.03025
1802.64790	0.03039
1801.36213	0.03049
1800.07636	0.03046
1798.79059	0.03032
1797.50482	0.03017
1796.21905	0.03011
1794.93328	0.03019
1793.64751	0.03039
1792.36174	0.03066
1791.07598	0.03092
1789.79021	0.03108
1788.50444	0.03115
1787.21867	0.03116
1785.93290	0.03115
1784.64713	0.03112
1783.36136	0.03109
1782.07559	0.03106
1780.78983	0.03107
1779.50406	0.03110
1778.21829	0.03112
1776.93252	0.03113
1775.64675	0.03117
1774.36098	0.03123
1773.07521	0.03131
1771.78944	0.03136
1770.50367	0.03137
1769.21791	0.03136
1767.93214	0.03140
1766.64637	0.03153
1765.36060	0.03168
1764.07483	0.03175
1762.78906	0.03177
1761.50329	0.03182
1760.21752	0.03193
1758.93176	0.03205
1757.64599	0.03212
1756.36022	0.03221
1755.07445	0.03236
1753.78868	0.03255
1752.50291	0.03274
1751.21714	0.03286
1749.93137	0.03292
1748.64560	0.03291
1747.35984	0.03286
1746.07407	0.03285
1744.78830	0.03289
1743.50253	0.03298
1742.21676	0.03308
1740.93099	0.03319
1739.64522	0.03333
1738.35945	0.03355
1737.07369	0.03381
1735.78792	0.03403
1734.50215	0.03424
1733.21638	0.03444
1731.93061	0.03457
1730.64484	0.03459
1729.35907	0.03458
1728.07330	0.03461
1726.78753	0.03467
1725.50177	0.03472
1724.21600	0.03477
1722.93023	0.03490
1721.64446	0.03516
1720.35869	0.03553
1719.07292	0.03593
1717.78715	0.03634
1716.50138	0.03677
1715.21561	0.03720
1713.92985	0.03764
1712.64408	0.03814
1711.35831	0.03868
1710.07254	0.03923
1708.78677	0.03972
1707.50100	0.04015
1706.21523	0.04057
1704.92946	0.04109
1703.64370	0.04172
1702.35793	0.04236
1701.07216	0.04295
1699.78639	0.04352
1698.50062	0.04400
1697.21485	0.04431
1695.92908	0.04450
1694.64331	0.04472
1693.35754	0.04496
1692.07178	0.04517
1690.78601	0.04540
1689.50024	0.04574
1688.21447	0.04617
1686.92870	0.04662
1685.64293	0.04705
1684.35716	0.04750
1683.07139	0.04795
1681.78563	0.04828
1680.49986	0.04848
1679.21409	0.04870
1677.92832	0.04902
1676.64255	0.04940
1675.35678	0.04981
1674.07101	0.05026
1672.78524	0.05071
1671.49947	0.05110
1670.21371	0.05144
1668.92794	0.05183
1667.64217	0.05230
1666.35640	0.05282
1665.07063	0.05331
1663.78486	0.05375
1662.49909	0.05412
1661.21332	0.05441
1659.92756	0.05465
1658.64179	0.05494
1657.35602	0.05536
1656.07025	0.05588
1654.78448	0.05634
1653.49871	0.05671
1652.21294	0.05708
1650.92717	0.05741
1649.64140	0.05758
1648.35564	0.05762
1647.06987	0.05768
1645.78410	0.05785
1644.49833	0.05810
1643.21256	0.05834
1641.92679	0.05851
1640.64102	0.05864
1639.35525	0.05874
1638.06949	0.05880
1636.78372	0.05883
1635.49795	0.05889
1634.21218	0.05901
1632.92641	0.05918
1631.64064	0.05934
1630.35487	0.05949
1629.06910	0.05966
1627.78333	0.05987
1626.49757	0.06014
1625.21180	0.06043
1623.92603	0.06075
1622.64026	0.06110
1621.35449	0.06151
1620.06872	0.06194
1618.78295	0.06233
1617.49718	0.06268
1616.21142	0.06307
1614.92565	0.06350
1613.63988	0.06391
1612.35411	0.06429
1611.06834	0.06469
1609.78257	0.06509
1608.49680	0.06549
1607.21103	0.06586
1605.92526	0.06626
1604.63950	0.06671
1603.35373	0.06723
1602.06796	0.06778
1600.78219	0.06832
1599.49642	0.06878
1598.21065	0.06916
1596.92488	0.06953
1595.63911	0.06995
1594.35335	0.07045
1593.06758	0.07103
1591.78181	0.07162
1590.49604	0.07218
1589.21027	0.07267
1587.92450	0.07311
1586.63873	0.07353
1585.35296	0.07401
1584.06719	0.07461
1582.78143	0.07533
1581.49566	0.07611
1580.20989	0.07689
1578.92412	0.07757
1577.63835	0.07814
1576.35258	0.07874
1575.06681	0.07946
1573.78104	0.08028
1572.49528	0.08109
1571.20951	0.08185
1569.92374	0.08260
1568.63797	0.08334
1567.35220	0.08405
1566.06643	0.08475
1564.78066	0.08548
1563.49489	0.08626
1562.20912	0.08702
1560.92336	0.08771
1559.63759	0.08838
1558.35182	0.08909
1557.06605	0.08975
1555.78028	0.09031
1554.49451	0.09080
1553.20874	0.09132
1551.92297	0.09182
1550.63721	0.09220
1549.35144	0.09247
1548.06567	0.09265
1546.77990	0.09272
1545.49413	0.09266
1544.20836	0.09246
1542.92259	0.09210
1541.63682	0.09158
1540.35105	0.09092
1539.06529	0.09022
1537.77952	0.08955
1536.49375	0.08889
1535.20798	0.08825
1533.92221	0.08769
1532.63644	0.08726
1531.35067	0.08692
1530.06490	0.08666
1528.77914	0.08647
1527.49337	0.08640
1526.20760	0.08646
1524.92183	0.08669
1523.63606	0.08703
1522.35029	0.08746
1521.06452	0.08802
1519.77875	0.08874
1518.49298	0.08956
1517.20722	0.09046
1515.92145	0.09148
1514.63568	0.09262
1513.34991	0.09389
1512.06414	0.09533
1510.77837	0.09697
1509.49260	0.09870
1508.20683	0.10040
1506.92107	0.10204
1505.63530	0.10365
1504.34953	0.10520
1503.06376	0.10659
1501.77799	0.10783
1500.49222	0.10897
1499.20645	0.11005
1497.92068	0.11106
1496.63491	0.11199
1495.34915	0.11285
1494.06338	0.11368
1492.77761	0.11448
1491.49184	0.11531
1490.20607	0.11626
1488.92030	0.11737
1487.63453	0.11862
1486.34876	0.11995
1485.06299	0.12133
1483.77723	0.12276
1482.49146	0.12428
1481.20569	0.12593
1479.91992	0.12768
1478.63415	0.12948
1477.34838	0.13128
1476.06261	0.13307
1474.77684	0.13479
1473.49108	0.13641
1472.20531	0.13797
1470.91954	0.13954
1469.63377	0.14113
1468.34800	0.14275
1467.06223	0.14432
1465.77646	0.14577
1464.49069	0.14707
1463.20492	0.14823
1461.91916	0.14933
1460.63339	0.15047
1459.34762	0.15169
1458.06185	0.15301
1456.77608	0.15436
1455.49031	0.15562
1454.20454	0.15663
1452.91877	0.15737
1451.63301	0.15793
1450.34724	0.15842
1449.06147	0.15886
1447.77570	0.15924
1446.48993	0.15952
1445.20416	0.15962
1443.91839	0.15949
1442.63262	0.15913
1441.34685	0.15862
1440.06109	0.15806
1438.77532	0.15754
1437.48955	0.15716
1436.20378	0.15702
1434.91801	0.15713
1433.63224	0.15747
1432.34647	0.15810
1431.06070	0.15911
1429.77494	0.16048
1428.48917	0.16211
1427.20340	0.16393
1425.91763	0.16591
1424.63186	0.16806
1423.34609	0.17032
1422.06032	0.17259
1420.77455	0.17472
1419.48878	0.17667
1418.20302	0.17842
1416.91725	0.17995
1415.63148	0.18119
1414.34571	0.18213
1413.05994	0.18274
1411.77417	0.18301
1410.48840	0.18293
1409.20263	0.18251
1407.91687	0.18177
1406.63110	0.18065
1405.34533	0.17916
1404.05956	0.17732
1402.77379	0.17517
1401.48802	0.17272
1400.20225	0.16997
1398.91648	0.16693
1397.63071	0.16365
1396.34495	0.16018
1395.05918	0.15664
1393.77341	0.15314
1392.48764	0.14971
1391.20187	0.14635
1389.91610	0.14305
1388.63033	0.13987
1387.34456	0.13688
1386.05880	0.13409
1384.77303	0.13147
1383.48726	0.12897
1382.20149	0.12656
1380.91572	0.12422
1379.62995	0.12190
1378.34418	0.11951
1377.05841	0.11689
1375.77264	0.11395
1374.48688	0.11070
1373.20111	0.10725
1371.91534	0.10373
1370.62957	0.10025
1369.34380	0.09691
1368.05803	0.09381
1366.77226	0.09101
1365.48649	0.08848
1364.20073	0.08612
1362.91496	0.08381
1361.62919	0.08152
1360.34342	0.07925
1359.05765	0.07706
1357.77188	0.07506
1356.48611	0.07326
1355.20034	0.07169
1353.91457	0.07028
1352.62881	0.06898
1351.34304	0.06775
1350.05727	0.06657
1348.77150	0.06546
1347.48573	0.06443
1346.19996	0.06350
1344.91419	0.06263
1343.62842	0.06178
1342.34266	0.06093
1341.05689	0.06005
1339.77112	0.05919
1338.48535	0.05839
1337.19958	0.05768
1335.91381	0.05705
1334.62804	0.05645
1333.34227	0.05587
1332.05650	0.05529
1330.77074	0.05471
1329.48497	0.05417
1328.19920	0.05368
1326.91343	0.05326
1325.62766	0.05289
1324.34189	0.05253
1323.05612	0.05216
1321.77035	0.05178
1320.48459	0.05140
1319.19882	0.05101
1317.91305	0.05062
1316.62728	0.05026
1315.34151	0.04993
1314.05574	0.04962
1312.76997	0.04928
1311.48420	0.04893
1310.19843	0.04858
1308.91267	0.04828
1307.62690	0.04800
1306.34113	0.04769
1305.05536	0.04732
1303.76959	0.04691
1302.48382	0.04653
1301.19805	0.04618
1299.91228	0.04585
1298.62652	0.04552
1297.34075	0.04518
1296.05498	0.04485
1294.76921	0.04457
1293.48344	0.04435
1292.19767	0.04419
1290.91190	0.04400
1289.62613	0.04373
1288.34036	0.04337
1287.05460	0.04297
1285.76883	0.04260
1284.48306	0.04228
1283.19729	0.04199
1281.91152	0.04171
1280.62575	0.04142
1279.33998	0.04113
1278.05421	0.04085
1276.76845	0.04058
1275.48268	0.04030
1274.19691	0.04002
1272.91114	0.03976
1271.62537	0.03954
1270.33960	0.03932
1269.05383	0.03908
1267.76806	0.03881
1266.48229	0.03854
1265.19653	0.03830
1263.91076	0.03806
1262.62499	0.03783
1261.33922	0.03758
1260.05345	0.03732
1258.76768	0.03709
1257.48191	0.03691
1256.19614	0.03678
1254.91037	0.03665
1253.62461	0.03648
1252.33884	0.03624
1251.05307	0.03596
1249.76730	0.03568
1248.48153	0.03542
1247.19576	0.03521
1245.90999	0.03505
1244.62422	0.03490
1243.33846	0.03475
1242.05269	0.03457
1240.76692	0.03439
1239.48115	0.03425
1238.19538	0.03414
1236.90961	0.03405
1235.62384	0.03393
1234.33807	0.03376
1233.05230	0.03353
1231.76654	0.03326
1230.48077	0.03301
1229.19500	0.03280
1227.90923	0.03264
1226.62346	0.03251
1225.33769	0.03239
1224.05192	0.03226
1222.76615	0.03213
1221.48039	0.03200
1220.19462	0.03186
1218.90885	0.03173
1217.62308	0.03159
1216.33731	0.03144
1215.05154	0.03129
1213.76577	0.03114
1212.48000	0.03097
1211.19423	0.03077
1209.90847	0.03059
1208.62270	0.03043
1207.33693	0.03035
1206.05116	0.03032
1204.76539	0.03032
1203.47962	0.03030
1202.19385	0.03023
1200.90808	0.03006
1199.62232	0.02982
1198.33655	0.02967
1197.05078	0.02956
1195.76501	0.02947
1194.47924	0.02936
1193.19347	0.02924
1191.90770	0.02912
1190.62193	0.02903
1189.33616	0.02899
1188.05040	0.02900
1186.76463	0.02901
1185.47886	0.02901
1184.19309	0.02896
1182.90732	0.02890
1181.62155	0.02881
1180.33578	0.02871
1179.05001	0.02864
1177.76425	0.02863
1176.47848	0.02870
1175.19271	0.02879
1173.90694	0.02887
1172.62117	0.02892
1171.33540	0.02897
1170.04963	0.02906
1168.76386	0.02922
1167.47809	0.02945
1166.19233	0.02973
1164.90656	0.03002
1163.62079	0.03028
1162.33502	0.03051
1161.04925	0.03074
1159.76348	0.03104
1158.47771	0.03141
1157.19194	0.03183
1155.90618	0.03227
1154.62041	0.03275
1153.33464	0.03326
1152.04887	0.03385
1150.76310	0.03451
1149.47733	0.03525
1148.19156	0.03603
1146.90579	0.03683
1145.62002	0.03764
1144.33426	0.03851
1143.04849	0.03950
1141.76272	0.04067
1140.47695	0.04202
1139.19118	0.04353
1137.90541	0.04515
1136.61964	0.04685
1135.33387	0.04865
1134.04811	0.05064
1132.76234	0.05285
1131.47657	0.05535
1130.19080	0.05816
1128.90503	0.06138
1127.61926	0.06505
1126.33349	0.06911
1125.04772	0.07346
1123.76195	0.07804
1122.47619	0.08283
1121.19042	0.08777
1119.90465	0.09277
1118.61888	0.09778
1117.33311	0.10278
1116.04734	0.10775
1114.76157	0.11263
1113.47580	0.11736
1112.19004	0.12192
1110.90427	0.12633
1109.61850	0.13065
1108.33273	0.13485
1107.04696	0.13888
1105.76119	0.14277
1104.47542	0.14656
1103.18965	0.15028
1101.90388	0.15389
1100.61812	0.15734
1099.33235	0.16057
1098.04658	0.16357
1096.76081	0.16633
1095.47504	0.16892
1094.18927	0.17138
1092.90350	0.17372
1091.61773	0.17591
1090.33197	0.17792
1089.04620	0.17982
1087.76043	0.18167
1086.47466	0.18354
1085.18889	0.18547
1083.90312	0.18750
1082.61735	0.18971
1081.33158	0.19216
1080.04581	0.19483
1078.76005	0.19771
1077.47428	0.20074
1076.18851	0.20392
1074.90274	0.20722
1073.61697	0.21062
1072.33120	0.21411
1071.04543	0.21769
1069.75966	0.22141
1068.47390	0.22528
1067.18813	0.22930
1065.90236	0.23346
1064.61659	0.23773
1063.33082	0.24209
1062.04505	0.24649
1060.75928	0.25093
1059.47351	0.25541
1058.18774	0.25995
1056.90198	0.26447
1055.61621	0.26888
1054.33044	0.27320
1053.04467	0.27753
1051.75890	0.28198
1050.47313	0.28655
1049.18736	0.29121
1047.90159	0.29595
1046.61583	0.30089
1045.33006	0.30611
1044.04429	0.31161
1042.75852	0.31732
1041.47275	0.32316
1040.18698	0.32911
1038.90121	0.33518
1037.61544	0.34135
1036.32967	0.34759
1035.04391	0.35385
1033.75814	0.36009
1032.47237	0.36623
1031.18660	0.37210
1029.90083	0.37753
1028.61506	0.38242
1027.32929	0.38682
1026.04352	0.39079
1024.75775	0.39429
1023.47199	0.39724
1022.18622	0.39960
1020.90045	0.40135
1019.61468	0.40253
1018.32891	0.40316
1017.04314	0.40321
1015.75737	0.40257
1014.47160	0.40120
1013.18584	0.39910
1011.90007	0.39633
1010.61430	0.39299
1009.32853	0.38911
1008.04276	0.38465
1006.75699	0.37954
1005.47122	0.37371
1004.18545	0.36724
1002.89968	0.36022
1001.61392	0.35276
1000.32815	0.34487
999.04238	0.33651
997.75661	0.32765
996.47084	0.31835
995.18507	0.30877
993.89930	0.29907
992.61353	0.28937
991.32777	0.27976
990.04200	0.27030
988.75623	0.26107
987.47046	0.25205
986.18469	0.24323
984.89892	0.23465
983.61315	0.22638
982.32738	0.21849
981.04161	0.21104
979.75585	0.20404
978.47008	0.19751
977.18431	0.19151
975.89854	0.18612
974.61277	0.18142
973.32700	0.17739
972.04123	0.17401
970.75546	0.17135
969.46970	0.16956
968.18393	0.16870
966.89816	0.16870
965.61239	0.16935
964.32662	0.17044
963.04085	0.17172
961.75508	0.17286
960.46931	0.17342
959.18354	0.17304
957.89778	0.17160
956.61201	0.16921
955.32624	0.16609
954.04047	0.16244
952.75470	0.15846
951.46893	0.15437
950.18316	0.15038
948.89739	0.14655
947.61163	0.14282
946.32586	0.13912
945.04009	0.13550
943.75432	0.13201
942.46855	0.12866
941.18278	0.12539
939.89701	0.12219
938.61124	0.11915
937.32547	0.11634
936.03971	0.11377
934.75394	0.11139
933.46817	0.10915
932.18240	0.10700
930.89663	0.10496
929.61086	0.10304
928.32509	0.10131
927.03932	0.09975
925.75356	0.09828
924.46779	0.09682
923.18202	0.09536
921.89625	0.09395
920.61048	0.09265
919.32471	0.09151
918.03894	0.09048
916.75317	0.08948
915.46740	0.08843
914.18164	0.08734
912.89587	0.08629
911.61010	0.08537
910.32433	0.08461
909.03856	0.08392
907.75279	0.08318
906.46702	0.08235
905.18125	0.08148
903.89549	0.08067
902.60972	0.07997
901.32395	0.07939
900.03818	0.07889
898.75241	0.07846
897.46664	0.07809
896.18087	0.07778
894.89510	0.07748
893.60933	0.07715
892.32357	0.07683
891.03780	0.07662
889.75203	0.07667
888.46626	0.07707
887.18049	0.07800
885.89472	0.07973
884.60895	0.08256
883.32318	0.08655
882.03742	0.09133
880.75165	0.09611
879.46588	0.09999
878.18011	0.10261
876.89434	0.10433
875.60857	0.10589
874.32280	0.10764
873.03703	0.10928
871.75126	0.11019
870.46550	0.10995
869.17973	0.10856
867.89396	0.10622
866.60819	0.10321
865.32242	0.09984
864.03665	0.09641
862.75088	0.09313
861.46511	0.09006
860.17935	0.08723
858.89358	0.08470
857.60781	0.08258
856.32204	0.08088
855.03627	0.07948
853.75050	0.07824
852.46473	0.07708
851.17896	0.07596
849.89319	0.07487
848.60743	0.07383
847.32166	0.07290
846.03589	0.07210
844.75012	0.07145
843.46435	0.07091
842.17858	0.07042
840.89281	0.06993
839.60704	0.06940
838.32128	0.06885
837.03551	0.06830
835.74974	0.06775
834.46397	0.06720
833.17820	0.06672
831.89243	0.06632
830.60666	0.06599
829.32089	0.06566
828.03512	0.06536
826.74936	0.06512
825.46359	0.06496
824.17782	0.06484
822.89205	0.06473
821.60628	0.06465
820.32051	0.06465
819.03474	0.06469
817.74897	0.06468
816.46321	0.06457
815.17744	0.06439
813.89167	0.06421
812.60590	0.06408
811.32013	0.06396
810.03436	0.06382
808.74859	0.06365
807.46282	0.06345
806.17705	0.06324
804.89129	0.06303
803.60552	0.06283
802.31975	0.06265
801.03398	0.06242
799.74821	0.06215
798.46244	0.06187
797.17667	0.06167
795.89090	0.06154
794.60513	0.06140
793.31937	0.06120
792.03360	0.06096
790.74783	0.06071
789.46206	0.06045
788.17629	0.06015
786.89052	0.05985
785.60475	0.05962
784.31898	0.05952
783.03322	0.05952
781.74745	0.05954
780.46168	0.05945
779.17591	0.05923
777.89014	0.05894
776.60437	0.05872
775.31860	0.05862
774.03283	0.05863
772.74706	0.05871
771.46130	0.05879
770.17553	0.05882
768.88976	0.05878
767.60399	0.05871
766.31822	0.05869
765.03245	0.05875
763.74668	0.05884
762.46091	0.05892
761.17515	0.05900
759.88938	0.05909
758.60361	0.05917
757.31784	0.05919
756.03207	0.05919
754.74630	0.05919
753.46053	0.05922
752.17476	0.05920
750.88899	0.05910
749.60323	0.05893
748.31746	0.05871
747.03169	0.05844
745.74592	0.05817
744.46015	0.05794
743.17438	0.05776
741.88861	0.05757
740.60284	0.05730
739.31708	0.05698
738.03131	0.05666
736.74554	0.05643
735.45977	0.05631
734.17400	0.05623
732.88823	0.05614
731.60246	0.05606
730.31669	0.05602
729.03092	0.05603
727.74516	0.05606
726.45939	0.05607
725.17362	0.05608
723.88785	0.05609
722.60208	0.05611
721.31631	0.05613
720.03054	0.05613
718.74477	0.05608
717.45901	0.05595
716.17324	0.05573
714.88747	0.05544
713.60170	0.05512
712.31593	0.05483
711.03016	0.05457
709.74439	0.05436
708.45862	0.05418
707.17285	0.05400
705.88709	0.05381
704.60132	0.05358
703.31555	0.05333
702.02978	0.05311
700.74401	0.05294
699.45824	0.05282
698.17247	0.05274
696.88670	0.05266
695.60094	0.05256
694.31517	0.05243
693.02940	0.05229
691.74363	0.05215
690.45786	0.05199
689.17209	0.05181
687.88632	0.05161
686.60055	0.05141
685.31478	0.05125
684.02902	0.05111
682.74325	0.05099
681.45748	0.05086
680.17171	0.05072
678.88594	0.05060
677.60017	0.05051
676.31440	0.05049
675.02863	0.05050
673.74287	0.05052
672.45710	0.05054
671.17133	0.05056
669.88556	0.05063
668.59979	0.05088
667.31402	0.05095
666.02825	0.05062
664.74248	0.05032
663.45671	0.04992
662.17095	0.04948
660.88518	0.04912
659.59941	0.04887
658.31364	0.04873
657.02787	0.04865
655.74210	0.04858
654.45633	0.04845
653.17056	0.04827
651.88480	0.04812
650.59903	0.04804
649.31326	0.04802
648.02749	0.04801
646.74172	0.04800
645.45595	0.04798
644.17018	0.04801
642.88441	0.04810
641.59864	0.04824
640.31288	0.04840
639.02711	0.04856
637.74134	0.04876
636.45557	0.04905
635.16980	0.04946
633.88403	0.04998
632.59826	0.05054
631.31249	0.05116
630.02673	0.05208
628.74096	0.05319
627.45519	0.05361
626.16942	0.05534
624.88365	0.05842
623.59788	0.06258
622.31211	0.06755
621.02634	0.07251
619.74057	0.07643
618.45481	0.07907
617.16904	0.08088
615.88327	0.08240
614.59750	0.08406
613.31173	0.08658
612.02596	0.09088
610.74019	0.09747
609.45442	0.10577
608.16866	0.11440
606.88289	0.12213
605.59712	0.12849
604.31135	0.13357
603.02558	0.13761
601.73981	0.14066
600.45404	0.14249
599.16827	0.14276
597.88250	0.14124
596.59674	0.13810
595.31097	0.13389
594.02520	0.12936
592.73943	0.12521
591.45366	0.12187
590.16789	0.11957
588.88212	0.11837
587.59635	0.11822
586.31059	0.11892
585.02482	0.12024
583.73905	0.12199
582.45328	0.12414
581.16751	0.12674
579.88174	0.12973
578.59597	0.13298
577.31020	0.13634
576.02443	0.13972
574.73867	0.14306
573.45290	0.14624
572.16713	0.14933
570.88136	0.15267
569.59559	0.15676
568.30982	0.16194
567.02405	0.16811
565.73828	0.17480
564.45251	0.18131
563.16675	0.18693
561.88098	0.19101
560.59521	0.19304
559.30944	0.19267
558.02367	0.18979
556.73790	0.18456
555.45213	0.17741
554.16636	0.16903
552.88060	0.16025
551.59483	0.15178
550.30906	0.14409
549.02329	0.13724
547.73752	0.13100
546.45175	0.12511
545.16598	0.11948
543.88021	0.11422
542.59444	0.10947
541.30868	0.10527
540.02291	0.10157
538.73714	0.09829
537.45137	0.09528
536.16560	0.09240
534.87983	0.08961
533.59406	0.08695
532.30829	0.08445
531.02253	0.08208
529.73676	0.07980
528.45099	0.07766
527.16522	0.07574
525.87945	0.07407
524.59368	0.07256
523.30791	0.07110
522.02214	0.06961
520.73637	0.06806
519.45061	0.06647
518.16484	0.06489
516.87907	0.06336
515.59330	0.06196
514.30753	0.06070
513.02176	0.05955
511.73599	0.05846
510.45022	0.05741
509.16446	0.05638
507.87869	0.05538
506.59292	0.05441
505.30715	0.05351
504.02138	0.05271
502.73561	0.05204
501.44984	0.05148
500.16407	0.05102
498.87830	0.05064
497.59254	0.05025
496.30677	0.04976
495.02100	0.04911
493.73523	0.04840
492.44946	0.04781
491.16369	0.04741
489.87792	0.04713
488.59215	0.04681
487.30639	0.04636
486.02062	0.04583
484.73485	0.04539
483.44908	0.04515
482.16331	0.04510
480.87754	0.04511
479.59177	0.04511
478.30600	0.04511
477.02023	0.04518
475.73447	0.04535
474.44870	0.04558
473.16293	0.04583
471.87716	0.04602
470.59139	0.04611
469.30562	0.04607
468.01985	0.04589
466.73408	0.04561
465.44832	0.04528
464.16255	0.04491
462.87678	0.04451
461.59101	0.04409
460.30524	0.04364
459.01947	0.04314
457.73370	0.04256
456.44793	0.04190
455.16216	0.04124
453.87640	0.04068
452.59063	0.04025
451.30486	0.03995
450.01909	0.03974
448.73332	0.03961
447.44755	0.03952
446.16178	0.03937
444.87601	0.03910
443.59025	0.03874
442.30448	0.03841
441.01871	0.03824
439.73294	0.03824
438.44717	0.03829
437.16140	0.03829
435.87563	0.03819
434.58986	0.03802
433.30409	0.03784
432.01833	0.03769
430.73256	0.03758
429.44679	0.03746
428.16102	0.03732
426.87525	0.03717
425.58948	0.03703
424.30371	0.03693
423.01794	0.03683
421.73218	0.03669
420.44641	0.03650
419.16064	0.03633
417.87487	0.03620
416.58910	0.03613
415.30333	0.03610
414.01756	0.03612
412.73179	0.03619
411.44602	0.03626
410.16026	0.03630
408.87449	0.03632
407.58872	0.03637
406.30295	0.03647
405.01718	0.03660
403.73141	0.03669
402.44564	0.03675
401.15987	0.03679
399.87411	0.03685
