3997.45528	0.05496
3996.16951	0.05547
3994.88374	0.05610
3993.59798	0.05683
3992.31221	0.05752
3991.02644	0.05787
3989.74067	0.05754
3988.45490	0.05645
3987.16913	0.05502
3985.88336	0.05393
3984.59759	0.05377
3983.31183	0.05463
3982.02606	0.05606
3980.74029	0.05738
3979.45452	0.05813
3978.16875	0.05836
3976.88298	0.05850
3975.59721	0.05870
3974.31144	0.05845
3973.02567	0.05709
3971.73991	0.05478
3970.45414	0.05262
3969.16837	0.05173
3967.88260	0.05229
3966.59683	0.05366
3965.31106	0.05499
3964.02529	0.05577
3962.73952	0.05597
3961.45376	0.05590
3960.16799	0.05584
3958.88222	0.05572
3957.59645	0.05537
3956.31068	0.05478
3955.02491	0.05426
3953.73914	0.05407
3952.45337	0.05421
3951.16760	0.05444
3949.88184	0.05448
3948.59607	0.05411
3947.31030	0.05325
3946.02453	0.05199
3944.73876	0.05077
3943.45299	0.05019
3942.16722	0.05069
3940.88145	0.05208
3939.59569	0.05356
3938.30992	0.05430
3937.02415	0.05399
3935.73838	0.05314
3934.45261	0.05252
3933.16684	0.05254
3931.88107	0.05305
3930.59530	0.05367
3929.30953	0.05418
3928.02377	0.05461
3926.73800	0.05508
3925.45223	0.05562
3924.16646	0.05614
3922.88069	0.05650
3921.59492	0.05664
3920.30915	0.05653
3919.02338	0.05612
3917.73762	0.05551
3916.45185	0.05494
3915.16608	0.05456
3913.88031	0.05424
3912.59454	0.05379
3911.30877	0.05323
3910.02300	0.05275
3908.73723	0.05245
3907.45146	0.05216
3906.16570	0.05166
3904.87993	0.05089
3903.59416	0.05014
3902.30839	0.04989
3901.02262	0.05025
3899.73685	0.05090
3898.45108	0.05142
3897.16531	0.05174
3895.87955	0.05199
3894.59378	0.05209
3893.30801	0.05176
3892.02224	0.05097
3890.73647	0.05007
3889.45070	0.04950
3888.16493	0.04945
3886.87916	0.04981
3885.59339	0.05028
3884.30763	0.05051
3883.02186	0.05034
3881.73609	0.05003
3880.45032	0.05009
3879.16455	0.05077
3877.87878	0.05176
3876.59301	0.05258
3875.30724	0.05301
3874.02148	0.05325
3872.73571	0.05350
3871.44994	0.05366
3870.16417	0.05337
3868.87840	0.05236
3867.59263	0.05084
3866.30686	0.04936
3865.02109	0.04839
3863.73532	0.04797
3862.44956	0.04785
3861.16379	0.04784
3859.87802	0.04791
3858.59225	0.04820
3857.30648	0.04888
3856.02071	0.04993
3854.73494	0.05102
3853.44917	0.05169
3852.16341	0.05176
3850.87764	0.05150
3849.59187	0.05121
3848.30610	0.05098
3847.02033	0.05069
3845.73456	0.05028
3844.44879	0.04977
3843.16302	0.04930
3841.87725	0.04903
3840.59149	0.04903
3839.30572	0.04928
3838.01995	0.04960
3836.73418	0.04978
3835.44841	0.04976
3834.16264	0.04964
3832.87687	0.04959
3831.59110	0.04959
3830.30534	0.04951
3829.01957	0.04930
3827.73380	0.04907
3826.44803	0.04890
3825.16226	0.04874
3823.87649	0.04851
3822.59072	0.04825
3821.30495	0.04806
3820.01918	0.04793
3818.73342	0.04790
3817.44765	0.04807
3816.16188	0.04864
3814.87611	0.04955
3813.59034	0.05052
3812.30457	0.05115
3811.01880	0.05117
3809.73303	0.05057
3808.44726	0.04967
3807.16150	0.04903
3805.87573	0.04902
3804.58996	0.04961
3803.30419	0.05035
3802.01842	0.05072
3800.73265	0.05046
3799.44688	0.04971
3798.16111	0.04892
3796.87535	0.04856
3795.58958	0.04882
3794.30381	0.04941
3793.01804	0.04982
3791.73227	0.04974
3790.44650	0.04930
3789.16073	0.04881
3787.87496	0.04851
3786.58919	0.04844
3785.30343	0.04857
3784.01766	0.04874
3782.73189	0.04869
3781.44612	0.04819
3780.16035	0.04737
3778.87458	0.04657
3777.58881	0.04610
3776.30304	0.04601
3775.01728	0.04616
3773.73151	0.04631
3772.44574	0.04628
3771.15997	0.04620
3769.87420	0.04646
3768.58843	0.04736
3767.30266	0.04861
3766.01689	0.04952
3764.73112	0.04951
3763.44536	0.04854
3762.15959	0.04711
3760.87382	0.04580
3759.58805	0.04500
3758.30228	0.04479
3757.01651	0.04502
3755.73074	0.04534
3754.44497	0.04545
3753.15921	0.04540
3751.87344	0.04552
3750.58767	0.04601
3749.30190	0.04666
3748.01613	0.04701
3746.73036	0.04686
3745.44459	0.04637
3744.15882	0.04586
3742.87305	0.04552
3741.58729	0.04536
3740.30152	0.04519
3739.01575	0.04485
3737.72998	0.04436
3736.44421	0.04404
3735.15844	0.04430
3733.87267	0.04518
3732.58690	0.04633
3731.30114	0.04731
3730.01537	0.04792
3728.72960	0.04818
3727.44383	0.04807
3726.15806	0.04753
3724.87229	0.04662
3723.58652	0.04551
3722.30075	0.04444
3721.01498	0.04367
3719.72922	0.04342
3718.44345	0.04385
3717.15768	0.04479
3715.87191	0.04578
3714.58614	0.04643
3713.30037	0.04654
3712.01460	0.04623
3710.72883	0.04568
3709.44307	0.04522
3708.15730	0.04530
3706.87153	0.04589
3705.58576	0.04633
3704.29999	0.04587
3703.01422	0.04453
3701.72845	0.04315
3700.44268	0.04245
3699.15691	0.04237
3697.87115	0.04253
3696.58538	0.04290
3695.29961	0.04367
3694.01384	0.04478
3692.72807	0.04589
3691.44230	0.04654
3690.15653	0.04659
3688.87076	0.04632
3687.58500	0.04585
3686.29923	0.04494
3685.01346	0.04363
3683.72769	0.04234
3682.44192	0.04156
3681.15615	0.04158
3679.87038	0.04225
3678.58461	0.04315
3677.29884	0.04406
3676.01308	0.04501
3674.72731	0.04616
3673.44154	0.04749
3672.15577	0.04868
3670.87000	0.04937
3669.58423	0.04932
3668.29846	0.04857
3667.01269	0.04746
3665.72693	0.04647
3664.44116	0.04588
3663.15539	0.04559
3661.86962	0.04544
3660.58385	0.04545
3659.29808	0.04571
3658.01231	0.04613
3656.72654	0.04647
3655.44077	0.04660
3654.15501	0.04659
3652.86924	0.04656
3651.58347	0.04666
3650.29770	0.04705
3649.01193	0.04777
3647.72616	0.04858
3646.44039	0.04920
3645.15462	0.04954
3643.86886	0.04975
3642.58309	0.04984
3641.29732	0.04973
3640.01155	0.04938
3638.72578	0.04899
3637.44001	0.04881
3636.15424	0.04895
3634.86847	0.04934
3633.58270	0.04987
3632.29694	0.05034
3631.01117	0.05058
3629.72540	0.05063
3628.43963	0.05076
3627.15386	0.05122
3625.86809	0.05190
3624.58232	0.05253
3623.29655	0.05301
3622.01079	0.05352
3620.72502	0.05426
3619.43925	0.05522
3618.15348	0.05621
3616.86771	0.05705
3615.58194	0.05760
3614.29617	0.05778
3613.01040	0.05768
3611.72463	0.05756
3610.43887	0.05778
3609.15310	0.05836
3607.86733	0.05888
3606.58156	0.05879
3605.29579	0.05809
3604.01002	0.05743
3602.72425	0.05758
3601.43848	0.05864
3600.15272	0.05994
3598.86695	0.06062
3597.58118	0.06042
3596.29541	0.05986
3595.00964	0.05962
3593.72387	0.05997
3592.43810	0.06068
3591.15233	0.06120
3589.86656	0.06111
3588.58080	0.06052
3587.29503	0.05996
3586.00926	0.05990
3584.72349	0.06041
3583.43772	0.06115
3582.15195	0.06162
3580.86618	0.06154
3579.58041	0.06111
3578.29464	0.06082
3577.00888	0.06096
3575.72311	0.06152
3574.43734	0.06215
3573.15157	0.06261
3571.86580	0.06293
3570.58003	0.06324
3569.29426	0.06370
3568.00849	0.06445
3566.72273	0.06565
3565.43696	0.06717
3564.15119	0.06847
3562.86542	0.06898
3561.57965	0.06864
3560.29388	0.06792
3559.00811	0.06732
3557.72234	0.06705
3556.43657	0.06717
3555.15081	0.06772
3553.86504	0.06852
3552.57927	0.06909
3551.29350	0.06924
3550.00773	0.06939
3548.72196	0.07005
3547.43619	0.07115
3546.15042	0.07214
3544.86466	0.07266
3543.57889	0.07283
3542.29312	0.07294
3541.00735	0.07300
3539.72158	0.07287
3538.43581	0.07248
3537.15004	0.07200
3535.86427	0.07181
3534.57850	0.07218
3533.29274	0.07305
3532.00697	0.07394
3530.72120	0.07426
3529.43543	0.07378
3528.14966	0.07290
3526.86389	0.07230
3525.57812	0.07239
3524.29235	0.07303
3523.00659	0.07383
3521.72082	0.07459
3520.43505	0.07534
3519.14928	0.07617
3517.86351	0.07701
3516.57774	0.07766
3515.29197	0.07797
3514.00620	0.07790
3512.72043	0.07758
3511.43467	0.07709
3510.14890	0.07648
3508.86313	0.07586
3507.57736	0.07545
3506.29159	0.07533
3505.00582	0.07545
3503.72005	0.07572
3502.43428	0.07623
3501.14852	0.07704
3499.86275	0.07799
3498.57698	0.07869
3497.29121	0.07888
3496.00544	0.07862
3494.71967	0.07823
3493.43390	0.07804
3492.14813	0.07820
3490.86236	0.07875
3489.57660	0.07955
3488.29083	0.08038
3487.00506	0.08099
3485.71929	0.08125
3484.43352	0.08112
3483.14775	0.08069
3481.86198	0.08026
3480.57621	0.08033
3479.29045	0.08114
3478.00468	0.08233
3476.71891	0.08320
3475.43314	0.08334
3474.14737	0.08294
3472.86160	0.08251
3471.57583	0.08245
3470.29006	0.08277
3469.00429	0.08330
3467.71853	0.08390
3466.43276	0.08453
3465.14699	0.08512
3463.86122	0.08551
3462.57545	0.08556
3461.28968	0.08538
3460.00391	0.08520
3458.71814	0.08508
3457.43238	0.08481
3456.14661	0.08425
3454.86084	0.08363
3453.57507	0.08338
3452.28930	0.08373
3451.00353	0.08446
3449.71776	0.08515
3448.43199	0.08550
3447.14622	0.08550
3445.86046	0.08537
3444.57469	0.08540
3443.28892	0.08577
3442.00315	0.08648
3440.71738	0.08728
3439.43161	0.08787
3438.14584	0.08813
3436.86007	0.08823
3435.57431	0.08843
3434.28854	0.08876
3433.00277	0.08900
3431.71700	0.08898
3430.43123	0.08876
3429.14546	0.08861
3427.85969	0.08868
3426.57392	0.08885
3425.28815	0.08890
3424.00239	0.08874
3422.71662	0.08859
3421.43085	0.08880
3420.14508	0.08951
3418.85931	0.09043
3417.57354	0.09107
3416.28777	0.09119
3415.00200	0.09096
3413.71624	0.09071
3412.43047	0.09069
3411.14470	0.09094
3409.85893	0.09142
3408.57316	0.09199
3407.28739	0.09238
3406.00162	0.09236
3404.71585	0.09195
3403.43008	0.09143
3402.14432	0.09112
3400.85855	0.09111
3399.57278	0.09127
3398.28701	0.09143
3397.00124	0.09164
3395.71547	0.09189
3394.42970	0.09206
3393.14393	0.09200
3391.85817	0.09187
3390.57240	0.09203
3389.28663	0.09260
3388.00086	0.09318
3386.71509	0.09323
3385.42932	0.09274
3384.14355	0.09230
3382.85778	0.09243
3381.57201	0.09303
3380.28625	0.09349
3379.00048	0.09338
3377.71471	0.09283
3376.42894	0.09228
3375.14317	0.09197
3373.85740	0.09181
3372.57163	0.09162
3371.28586	0.09141
3370.00010	0.09140
3368.71433	0.09176
3367.42856	0.09254
3366.14279	0.09366
3364.85702	0.09481
3363.57125	0.09550
3362.28548	0.09540
3360.99971	0.09467
3359.71394	0.09384
3358.42818	0.09329
3357.14241	0.09298
3355.85664	0.09272
3354.57087	0.09252
3353.28510	0.09248
3351.99933	0.09256
3350.71356	0.09259
3349.42779	0.09251
3348.14202	0.09248
3346.85626	0.09276
3345.57049	0.09333
3344.28472	0.09384
3342.99895	0.09390
3341.71318	0.09355
3340.42741	0.09318
3339.14164	0.09315
3337.85587	0.09346
3336.57011	0.09384
3335.28434	0.09409
3333.99857	0.09421
3332.71280	0.09420
3331.42703	0.09398
3330.14126	0.09345
3328.85549	0.09275
3327.56972	0.09219
3326.28395	0.09201
3324.99819	0.09220
3323.71242	0.09250
3322.42665	0.09265
3321.14088	0.09261
3319.85511	0.09253
3318.56934	0.09250
3317.28357	0.09240
3315.99780	0.09215
3314.71204	0.09187
3313.42627	0.09177
3312.14050	0.09193
3310.85473	0.09220
3309.56896	0.09241
3308.28319	0.09250
3306.99742	0.09250
3305.71165	0.09248
3304.42588	0.09246
3303.14012	0.09235
3301.85435	0.09196
3300.56858	0.09123
3299.28281	0.09051
3297.99704	0.09032
3296.71127	0.09083
3295.42550	0.09165
3294.13973	0.09223
3292.85397	0.09239
3291.56820	0.09237
3290.28243	0.09244
3288.99666	0.09255
3287.71089	0.09249
3286.42512	0.09225
3285.13935	0.09198
3283.85358	0.09185
3282.56781	0.09177
3281.28205	0.09150
3279.99628	0.09088
3278.71051	0.09014
3277.42474	0.08963
3276.13897	0.08953
3274.85320	0.08973
3273.56743	0.09003
3272.28166	0.09041
3270.99590	0.09083
3269.71013	0.09114
3268.42436	0.09118
3267.13859	0.09094
3265.85282	0.09058
3264.56705	0.09022
3263.28128	0.08987
3261.99551	0.08952
3260.70974	0.08927
3259.42398	0.08917
3258.13821	0.08919
3256.85244	0.08927
3255.56667	0.08937
3254.28090	0.08945
3252.99513	0.08942
3251.70936	0.08919
3250.42359	0.08883
3249.13783	0.08853
3247.85206	0.08847
3246.56629	0.08860
3245.28052	0.08875
3243.99475	0.08874
3242.70898	0.08853
3241.42321	0.08822
3240.13744	0.08794
3238.85167	0.08776
3237.56591	0.08763
3236.28014	0.08746
3234.99437	0.08721
3233.70860	0.08697
3232.42283	0.08690
3231.13706	0.08707
3229.85129	0.08740
3228.56552	0.08764
3227.27976	0.08757
3225.99399	0.08720
3224.70822	0.08669
3223.42245	0.08622
3222.13668	0.08593
3220.85091	0.08596
3219.56514	0.08626
3218.27937	0.08659
3216.99360	0.08671
3215.70784	0.08665
3214.42207	0.08654
3213.13630	0.08640
3211.85053	0.08614
3210.56476	0.08582
3209.27899	0.08561
3207.99322	0.08561
3206.70745	0.08573
3205.42169	0.08578
3204.13592	0.08565
3202.85015	0.08537
3201.56438	0.08503
3200.27861	0.08470
3198.99284	0.08450
3197.70707	0.08449
3196.42130	0.08467
3195.13553	0.08487
3193.84977	0.08489
3192.56400	0.08475
3191.27823	0.08468
3189.99246	0.08484
3188.70669	0.08510
3187.42092	0.08522
3186.13515	0.08509
3184.84938	0.08480
3183.56362	0.08452
3182.27785	0.08429
3180.99208	0.08416
3179.70631	0.08409
3178.42054	0.08397
3177.13477	0.08368
3175.84900	0.08319
3174.56323	0.08264
3173.27746	0.08228
3171.99170	0.08230
3170.70593	0.08262
3169.42016	0.08295
3168.13439	0.08303
3166.84862	0.08281
3165.56285	0.08248
3164.27708	0.08219
3162.99131	0.08200
3161.70555	0.08188
3160.41978	0.08183
3159.13401	0.08187
3157.84824	0.08194
3156.56247	0.08191
3155.27670	0.08176
3153.99093	0.08157
3152.70516	0.08137
3151.41939	0.08105
3150.13363	0.08055
3148.84786	0.07995
3147.56209	0.07938
3146.27632	0.07896
3144.99055	0.07873
3143.70478	0.07867
3142.41901	0.07863
3141.13324	0.07851
3139.84748	0.07841
3138.56171	0.07849
3137.27594	0.07872
3135.99017	0.07886
3134.70440	0.07875
3133.41863	0.07852
3132.13286	0.07847
3130.84709	0.07872
3129.56132	0.07912
3128.27556	0.07936
3126.98979	0.07925
3125.70402	0.07878
3124.41825	0.07810
3123.13248	0.07737
3121.84671	0.07669
3120.56094	0.07615
3119.27517	0.07583
3117.98940	0.07571
3116.70364	0.07572
3115.41787	0.07575
3114.13210	0.07579
3112.84633	0.07596
3111.56056	0.07635
3110.27479	0.07687
3108.98902	0.07721
3107.70325	0.07701
3106.41749	0.07622
3105.13172	0.07518
3103.84595	0.07436
3102.56018	0.07396
3101.27441	0.07386
3099.98864	0.07390
3098.70287	0.07401
3097.41710	0.07416
3096.13133	0.07426
3094.84557	0.07422
3093.55980	0.07407
3092.27403	0.07391
3090.98826	0.07377
3089.70249	0.07351
3088.41672	0.07312
3087.13095	0.07276
3085.84518	0.07266
3084.55942	0.07290
3083.27365	0.07325
3081.98788	0.07344
3080.70211	0.07336
3079.41634	0.07312
3078.13057	0.07288
3076.84480	0.07273
3075.55903	0.07272
3074.27326	0.07288
3072.98750	0.07313
3071.70173	0.07325
3070.41596	0.07312
3069.13019	0.07278
3067.84442	0.07238
3066.55865	0.07199
3065.27288	0.07161
3063.98711	0.07122
3062.70135	0.07086
3061.41558	0.07055
3060.12981	0.07029
3058.84404	0.07004
3057.55827	0.06979
3056.27250	0.06955
3054.98673	0.06935
3053.70096	0.06925
3052.41519	0.06932
3051.12943	0.06969
3049.84366	0.07032
3048.55789	0.07098
3047.27212	0.07134
3045.98635	0.07123
3044.70058	0.07073
3043.41481	0.07009
3042.12904	0.06957
3040.84328	0.06930
3039.55751	0.06930
3038.27174	0.06951
3036.98597	0.06978
3035.70020	0.06987
3034.41443	0.06956
3033.12866	0.06892
3031.84289	0.06826
3030.55712	0.06788
3029.27136	0.06783
3027.98559	0.06789
3026.69982	0.06779
3025.41405	0.06748
3024.12828	0.06713
3022.84251	0.06693
3021.55674	0.06695
3020.27097	0.06709
3018.98521	0.06713
3017.69944	0.06689
3016.41367	0.06641
3015.12790	0.06593
3013.84213	0.06574
3012.55636	0.06580
3011.27059	0.06585
3009.98482	0.06574
3008.69905	0.06556
3007.41329	0.06545
3006.12752	0.06538
3004.84175	0.06518
3003.55598	0.06477
3002.27021	0.06428
3000.98444	0.06391
2999.69867	0.06379
2998.41290	0.06388
2997.12714	0.06410
2995.84137	0.06430
2994.55560	0.06439
2993.26983	0.06435
2991.98406	0.06421
2990.69829	0.06411
2989.41252	0.06415
2988.12675	0.06430
2986.84098	0.06447
2985.55522	0.06463
2984.26945	0.06484
2982.98368	0.06510
2981.69791	0.06530
2980.41214	0.06539
2979.12637	0.06549
2977.84060	0.06567
2976.55483	0.06589
2975.26907	0.06607
2973.98330	0.06626
2972.69753	0.06657
2971.41176	0.06704
2970.12599	0.06761
2968.84022	0.06810
2967.55445	0.06842
2966.26868	0.06859
2964.98291	0.06865
2963.69715	0.06862
2962.41138	0.06852
2961.12561	0.06849
2959.83984	0.06866
2958.55407	0.06900
2957.26830	0.06930
2955.98253	0.06940
2954.69676	0.06925
2953.41100	0.06897
2952.12523	0.06862
2950.83946	0.06819
2949.55369	0.06774
2948.26792	0.06744
2946.98215	0.06743
2945.69638	0.06764
2944.41061	0.06787
2943.12484	0.06800
2941.83908	0.06803
2940.55331	0.06801
2939.26754	0.06801
2937.98177	0.06819
2936.69600	0.06863
2935.41023	0.06919
2934.12446	0.06962
2932.83869	0.06979
2931.55293	0.06977
2930.26716	0.06972
2928.98139	0.06974
2927.69562	0.06982
2926.40985	0.06985
2925.12408	0.06974
2923.83831	0.06940
2922.55254	0.06889
2921.26677	0.06839
2919.98101	0.06803
2918.69524	0.06784
2917.40947	0.06769
2916.12370	0.06752
2914.83793	0.06735
2913.55216	0.06724
2912.26639	0.06713
2910.98062	0.06685
2909.69486	0.06632
2908.40909	0.06567
2907.12332	0.06512
2905.83755	0.06481
2904.55178	0.06469
2903.26601	0.06460
2901.98024	0.06443
2900.69447	0.06414
2899.40870	0.06374
2898.12294	0.06325
2896.83717	0.06266
2895.55140	0.06206
2894.26563	0.06155
2892.97986	0.06124
2891.69409	0.06113
2890.40832	0.06110
2889.12255	0.06109
2887.83678	0.06103
2886.55102	0.06083
2885.26525	0.06047
2883.97948	0.06012
2882.69371	0.06003
2881.40794	0.06023
2880.12217	0.06054
2878.83640	0.06070
2877.55063	0.06061
2876.26487	0.06044
2874.97910	0.06040
2873.69333	0.06056
2872.40756	0.06082
2871.12179	0.06099
2869.83602	0.06095
2868.55025	0.06070
2867.26448	0.06035
2865.97871	0.06008
2864.69295	0.05997
2863.40718	0.05989
2862.12141	0.05960
2860.83564	0.05906
2859.54987	0.05847
2858.26410	0.05804
2856.97833	0.05778
2855.69256	0.05761
2854.40680	0.05748
2853.12103	0.05741
2851.83526	0.05734
2850.54949	0.05718
2849.26372	0.05686
2847.97795	0.05641
2846.69218	0.05592
2845.40641	0.05551
2844.12064	0.05523
2842.83488	0.05502
2841.54911	0.05468
2840.26334	0.05409
2838.97757	0.05337
2837.69180	0.05287
2836.40603	0.05280
2835.12026	0.05303
2833.83449	0.05320
2832.54873	0.05308
2831.26296	0.05272
2829.97719	0.05236
2828.69142	0.05216
2827.40565	0.05212
2826.11988	0.05210
2824.83411	0.05193
2823.54834	0.05154
2822.26257	0.05096
2820.97681	0.05041
2819.69104	0.05009
2818.40527	0.05006
2817.11950	0.05013
2815.83373	0.05013
2814.54796	0.05004
2813.26219	0.04998
2811.97642	0.05002
2810.69066	0.05006
2809.40489	0.04996
2808.11912	0.04967
2806.83335	0.04935
2805.54758	0.04918
2804.26181	0.04918
2802.97604	0.04923
2801.69027	0.04917
2800.40450	0.04902
2799.11874	0.04883
2797.83297	0.04860
2796.54720	0.04832
2795.26143	0.04801
2793.97566	0.04776
2792.68989	0.04767
2791.40412	0.04770
2790.11835	0.04773
2788.83259	0.04761
2787.54682	0.04732
2786.26105	0.04700
2784.97528	0.04686
2783.68951	0.04695
2782.40374	0.04717
2781.11797	0.04729
2779.83220	0.04719
2778.54643	0.04690
2777.26067	0.04658
2775.97490	0.04634
2774.68913	0.04624
2773.40336	0.04623
2772.11759	0.04628
2770.83182	0.04634
2769.54605	0.04639
2768.26028	0.04635
2766.97452	0.04620
2765.68875	0.04602
2764.40298	0.04591
2763.11721	0.04590
2761.83144	0.04590
2760.54567	0.04587
2759.25990	0.04585
2757.97413	0.04586
2756.68836	0.04592
2755.40260	0.04601
2754.11683	0.04608
2752.83106	0.04602
2751.54529	0.04580
2750.25952	0.04552
2748.97375	0.04535
2747.68798	0.04537
2746.40221	0.04542
2745.11645	0.04537
2743.83068	0.04525
2742.54491	0.04520
2741.25914	0.04529
2739.97337	0.04537
2738.68760	0.04528
2737.40183	0.04500
2736.11606	0.04461
2734.83029	0.04424
2733.54453	0.04395
2732.25876	0.04374
2730.97299	0.04362
2729.68722	0.04364
2728.40145	0.04384
2727.11568	0.04414
2725.82991	0.04435
2724.54414	0.04428
2723.25838	0.04396
2721.97261	0.04353
2720.68684	0.04320
2719.40107	0.04301
2718.11530	0.04290
2716.82953	0.04274
2715.54376	0.04247
2714.25799	0.04222
2712.97222	0.04218
2711.68646	0.04239
2710.40069	0.04274
2709.11492	0.04306
2707.82915	0.04323
2706.54338	0.04320
2705.25761	0.04301
2703.97184	0.04268
2702.68607	0.04230
2701.40031	0.04197
2700.11454	0.04176
2698.82877	0.04167
2697.54300	0.04162
2696.25723	0.04156
2694.97146	0.04156
2693.68569	0.04165
2692.39992	0.04182
2691.11415	0.04192
2689.82839	0.04183
2688.54262	0.04153
2687.25685	0.04112
2685.97108	0.04080
2684.68531	0.04071
2683.39954	0.04083
2682.11377	0.04104
2680.82800	0.04124
2679.54224	0.04137
2678.25647	0.04139
2676.97070	0.04128
2675.68493	0.04112
2674.39916	0.04099
2673.11339	0.04094
2671.82762	0.04091
2670.54185	0.04080
2669.25608	0.04062
2667.97032	0.04047
2666.68455	0.04048
2665.39878	0.04067
2664.11301	0.04086
2662.82724	0.04086
2661.54147	0.04065
2660.25570	0.04038
2658.96993	0.04018
2657.68417	0.04005
2656.39840	0.03989
2655.11263	0.03965
2653.82686	0.03935
2652.54109	0.03907
2651.25532	0.03894
2649.96955	0.03906
2648.68378	0.03936
2647.39801	0.03962
2646.11225	0.03970
2644.82648	0.03958
2643.54071	0.03935
2642.25494	0.03908
2640.96917	0.03875
2639.68340	0.03832
2638.39763	0.03787
2637.11186	0.03757
2635.82609	0.03757
2634.54033	0.03777
2633.25456	0.03785
2631.96879	0.03758
2630.68302	0.03703
2629.39725	0.03648
2628.11148	0.03615
2626.82571	0.03610
2625.53994	0.03621
2624.25418	0.03636
2622.96841	0.03647
2621.68264	0.03651
2620.39687	0.03641
2619.11110	0.03617
2617.82533	0.03588
2616.53956	0.03568
2615.25379	0.03559
2613.96802	0.03551
2612.68226	0.03536
2611.39649	0.03517
2610.11072	0.03494
2608.82495	0.03462
2607.53918	0.03419
2606.25341	0.03372
2604.96764	0.03324
2603.68187	0.03284
2602.39611	0.03272
2601.11034	0.03305
2599.82457	0.03378
2598.53880	0.03451
2597.25303	0.03490
2595.96726	0.03486
2594.68149	0.03460
2593.39572	0.03430
2592.10995	0.03396
2590.82419	0.03352
2589.53842	0.03309
2588.25265	0.03288
2586.96688	0.03297
2585.68111	0.03317
2584.39534	0.03322
2583.10957	0.03307
2581.82380	0.03283
2580.53804	0.03258
2579.25227	0.03224
2577.96650	0.03176
2576.68073	0.03124
2575.39496	0.03091
2574.10919	0.03091
2572.82342	0.03113
2571.53765	0.03132
2570.25188	0.03133
2568.96612	0.03128
2567.68035	0.03137
2566.39458	0.03169
2565.10881	0.03208
2563.82304	0.03227
2562.53727	0.03213
2561.25150	0.03174
2559.96573	0.03136
2558.67997	0.03113
2557.39420	0.03103
2556.10843	0.03099
2554.82266	0.03102
2553.53689	0.03117
2552.25112	0.03137
2550.96535	0.03153
2549.67958	0.03162
2548.39381	0.03170
2547.10805	0.03175
2545.82228	0.03171
2544.53651	0.03152
2543.25074	0.03126
2541.96497	0.03101
2540.67920	0.03080
2539.39343	0.03069
2538.10766	0.03084
2536.82190	0.03132
2535.53613	0.03188
2534.25036	0.03206
2532.96459	0.03156
2531.67882	0.03064
2530.39305	0.02987
2529.10728	0.02970
2527.82151	0.03003
2526.53574	0.03044
2525.24998	0.03062
2523.96421	0.03053
2522.67844	0.03027
2521.39267	0.03001
2520.10690	0.02998
2518.82113	0.03037
2517.53536	0.03108
2516.24959	0.03169
2514.96383	0.03181
2513.67806	0.03134
2512.39229	0.03040
2511.10652	0.02932
2509.82075	0.02845
2508.53498	0.02806
2507.24921	0.02808
2505.96344	0.02825
2504.67767	0.02846
2503.39191	0.02883
2502.10614	0.02942
2500.82037	0.02999
2499.53460	0.03024
2498.24883	0.03013
2496.96306	0.02986
2495.67729	0.02963
2494.39152	0.02948
2493.10576	0.02937
2491.81999	0.02928
2490.53422	0.02924
2489.24845	0.02920
2487.96268	0.02904
2486.67691	0.02876
2485.39114	0.02844
2484.10537	0.02828
2482.81960	0.02842
2481.53384	0.02884
2480.24807	0.02928
2478.96230	0.02944
2477.67653	0.02922
2476.39076	0.02884
2475.10499	0.02856
2473.81922	0.02852
2472.53345	0.02873
2471.24769	0.02908
2469.96192	0.02932
2468.67615	0.02925
2467.39038	0.02886
2466.10461	0.02836
2464.81884	0.02800
2463.53307	0.02798
2462.24730	0.02830
2460.96153	0.02873
2459.67577	0.02897
2458.39000	0.02895
2457.10423	0.02884
2455.81846	0.02884
2454.53269	0.02897
2453.24692	0.02909
2451.96115	0.02903
2450.67538	0.02875
2449.38962	0.02835
2448.10385	0.02796
2446.81808	0.02761
2445.53231	0.02733
2444.24654	0.02720
2442.96077	0.02732
2441.67500	0.02760
2440.38923	0.02787
2439.10346	0.02803
2437.81770	0.02810
2436.53193	0.02814
2435.24616	0.02811
2433.96039	0.02786
2432.67462	0.02743
2431.38885	0.02712
2430.10308	0.02723
2428.81731	0.02768
2427.53155	0.02808
2426.24578	0.02820
2424.96001	0.02816
2423.67424	0.02808
2422.38847	0.02791
2421.10270	0.02755
2419.81693	0.02709
2418.53116	0.02678
2417.24539	0.02677
2415.95963	0.02700
2414.67386	0.02722
2413.38809	0.02721
2412.10232	0.02697
2410.81655	0.02668
2409.53078	0.02649
2408.24501	0.02629
2406.95924	0.02599
2405.67347	0.02567
2404.38771	0.02564
2403.10194	0.02604
2401.81617	0.02676
2400.53040	0.02750
2399.24463	0.02795
2397.95886	0.02798
2396.67309	0.02762
2395.38732	0.02708
2394.10156	0.02666
2392.81579	0.02651
2391.53002	0.02648
2390.24425	0.02639
2388.95848	0.02625
2387.67271	0.02620
2386.38694	0.02632
2385.10117	0.02655
2383.81540	0.02680
2382.52964	0.02703
2381.24387	0.02724
2379.95810	0.02733
2378.67233	0.02726
2377.38656	0.02718
2376.10079	0.02721
2374.81502	0.02733
2373.52925	0.02757
2372.24349	0.02777
2370.95772	0.02820
2369.67195	0.02851
2368.38618	0.02878
2367.10041	0.02920
2365.81464	0.02967
2364.52887	0.02944
2363.24310	0.02896
2361.95733	0.02877
2360.67157	0.02918
2359.38580	0.02930
2358.10003	0.02940
2356.81426	0.02956
2355.52849	0.02968
2354.24272	0.02982
2352.95695	0.02955
2351.67118	0.02927
2350.38542	0.02936
2349.09965	0.02921
2347.81388	0.02831
2346.52811	0.02782
2345.24234	0.02819
2343.95657	0.02888
2342.67080	0.02886
2341.38503	0.02882
2340.09926	0.02916
2338.81350	0.02899
2337.52773	0.02838
2336.24196	0.02818
2334.95619	0.02843
2333.67042	0.02849
2332.38465	0.02775
2331.09888	0.02820
2329.81311	0.02902
2328.52735	0.02830
2327.24158	0.02900
2325.95581	0.03038
2324.67004	0.02991
2323.38427	0.02965
2322.09850	0.02998
2320.81273	0.02867
2319.52696	0.02843
2318.24119	0.02903
2316.95543	0.02874
2315.66966	0.02897
2314.38389	0.02897
2313.09812	0.02811
2311.81235	0.02773
2310.52658	0.02712
2309.24081	0.02668
2307.95504	0.02660
2306.66928	0.02614
2305.38351	0.02594
2304.09774	0.02580
2302.81197	0.02564
2301.52620	0.02577
2300.24043	0.02589
2298.95466	0.02606
2297.66889	0.02601
2296.38312	0.02573
2295.09736	0.02540
2293.81159	0.02508
2292.52582	0.02490
2291.24005	0.02475
2289.95428	0.02461
2288.66851	0.02445
2287.38274	0.02428
2286.09697	0.02414
2284.81121	0.02398
2283.52544	0.02368
2282.23967	0.02318
2280.95390	0.02266
2279.66813	0.02233
2278.38236	0.02218
2277.09659	0.02197
2275.81082	0.02154
2274.52505	0.02106
2273.23929	0.02086
2271.95352	0.02105
2270.66775	0.02144
2269.38198	0.02178
2268.09621	0.02199
2266.81044	0.02208
2265.52467	0.02200
2264.23890	0.02170
2262.95314	0.02134
2261.66737	0.02125
2260.38160	0.02147
2259.09583	0.02176
2257.81006	0.02176
2256.52429	0.02134
2255.23852	0.02076
2253.95275	0.02050
2252.66698	0.02073
2251.38122	0.02111
2250.09545	0.02109
2248.80968	0.02045
2247.52391	0.01945
2246.23814	0.01855
2244.95237	0.01791
2243.66660	0.01750
2242.38083	0.01734
2241.09507	0.01749
2239.80930	0.01795
2238.52353	0.01864
2237.23776	0.01941
2235.95199	0.02000
2234.66622	0.02013
2233.38045	0.01980
2232.09468	0.01941
2230.80891	0.01944
2229.52315	0.01987
2228.23738	0.02015
2226.95161	0.01975
2225.66584	0.01874
2224.38007	0.01756
2223.09430	0.01666
2221.80853	0.01622
2220.52276	0.01613
2219.23700	0.01605
2217.95123	0.01568
2216.66546	0.01510
2215.37969	0.01469
2214.09392	0.01468
2212.80815	0.01480
2211.52238	0.01463
2210.23661	0.01403
2208.95084	0.01327
2207.66508	0.01285
2206.37931	0.01312
2205.09354	0.01391
2203.80777	0.01471
2202.52200	0.01516
2201.23623	0.01539
2199.95046	0.01570
2198.66469	0.01620
2197.37893	0.01668
2196.09316	0.01672
2194.80739	0.01594
2193.52162	0.01444
2192.23585	0.01294
2190.95008	0.01244
2189.66431	0.01333
2188.37854	0.01500
2187.09277	0.01618
2185.80701	0.01599
2184.52124	0.01464
2183.23547	0.01313
2181.94970	0.01234
2180.66393	0.01222
2179.37816	0.01207
2178.09239	0.01141
2176.80662	0.01045
2175.52085	0.00975
2174.23509	0.00971
2172.94932	0.01024
2171.66355	0.01087
2170.37778	0.01109
2169.09201	0.01059
2167.80624	0.00950
2166.52047	0.00835
2165.23470	0.00785
2163.94894	0.00819
2162.66317	0.00866
2161.37740	0.00818
2160.09163	0.00663
2158.80586	0.00525
2157.52009	0.00536
2156.23432	0.00690
2154.94855	0.00884
2153.66278	0.01034
2152.37702	0.01110
2151.09125	0.01111
2149.80548	0.01058
2148.51971	0.00996
2147.23394	0.00977
2145.94817	0.01015
2144.66240	0.01076
2143.37663	0.01117
2142.09087	0.01124
2140.80510	0.01113
2139.51933	0.01110
2138.23356	0.01130
2136.94779	0.01171
2135.66202	0.01209
2134.37625	0.01229
2133.09048	0.01249
2131.80471	0.01297
2130.51895	0.01368
2129.23318	0.01421
2127.94741	0.01429
2126.66164	0.01412
2125.37587	0.01409
2124.09010	0.01424
2122.80433	0.01435
2121.51856	0.01431
2120.23280	0.01425
2118.94703	0.01435
2117.66126	0.01466
2116.37549	0.01518
2115.08972	0.01586
2113.80395	0.01648
2112.51818	0.01672
2111.23241	0.01642
2109.94664	0.01579
2108.66088	0.01516
2107.37511	0.01477
2106.08934	0.01463
2104.80357	0.01455
2103.51780	0.01431
2102.23203	0.01386
2100.94626	0.01342
2099.66049	0.01284
2098.37473	0.01258
2097.08896	0.01248
2095.80319	0.01239
2094.51742	0.01237
2093.23165	0.01248
2091.94588	0.01265
2090.66011	0.01273
2089.37434	0.01261
2088.08857	0.01232
2086.80281	0.01206
2085.51704	0.01205
2084.23127	0.01227
2082.94550	0.01244
2081.65973	0.01229
2080.37396	0.01185
2079.08819	0.01133
2077.80242	0.01081
2076.51666	0.01017
2075.23089	0.00939
2073.94512	0.00876
2072.65935	0.00869
2071.37358	0.00936
2070.08781	0.01055
2068.80204	0.01178
2067.51627	0.01246
2066.23050	0.01234
2064.94474	0.01161
2063.65897	0.01074
2062.37320	0.01010
2061.08743	0.00978
2059.80166	0.00972
2058.51589	0.00985
2057.23012	0.01008
2055.94435	0.01030
2054.65859	0.01037
2053.37282	0.01018
2052.08705	0.00970
2050.80128	0.00913
2049.51551	0.00868
2048.22974	0.00839
2046.94397	0.00806
2045.65820	0.00761
2044.37243	0.00721
2043.08667	0.00706
2041.80090	0.00711
2040.51513	0.00716
2039.22936	0.00711
2037.94359	0.00703
2036.65782	0.00699
2035.37205	0.00692
2034.08628	0.00683
2032.80052	0.00688
2031.51475	0.00715
2030.22898	0.00734
2028.94321	0.00703
2027.65744	0.00621
2026.37167	0.00536
2025.08590	0.00496
2023.80013	0.00500
2022.51436	0.00511
2021.22860	0.00493
2019.94283	0.00449
2018.65706	0.00414
2017.37129	0.00423
2016.08552	0.00476
2014.79975	0.00532
2013.51398	0.00535
2012.22821	0.00478
2010.94245	0.00420
2009.65668	0.00439
2008.37091	0.00547
2007.08514	0.00687
2005.79937	0.00790
2004.51360	0.00830
2003.22783	0.00823
2001.94206	0.00800
2000.65629	0.00786
1999.37053	0.00797
1998.08476	0.00827
1996.79899	0.00863
1995.51322	0.00904
1994.22745	0.00956
1992.94168	0.01017
1991.65591	0.01069
1990.37014	0.01094
1989.08438	0.01095
1987.79861	0.01091
1986.51284	0.01097
1985.22707	0.01114
1983.94130	0.01140
1982.65553	0.01164
1981.36976	0.01163
1980.08399	0.01110
1978.79822	0.01005
1977.51246	0.00882
1976.22669	0.00789
1974.94092	0.00755
1973.65515	0.00772
1972.36938	0.00800
1971.08361	0.00813
1969.79784	0.00813
1968.51207	0.00819
1967.22631	0.00852
1965.94054	0.00915
1964.65477	0.00993
1963.36900	0.01058
1962.08323	0.01095
1960.79746	0.01126
1959.51169	0.01179
1958.22592	0.01250
1956.94015	0.01305
1955.65439	0.01326
1954.36862	0.01336
1953.08285	0.01362
1951.79708	0.01405
1950.51131	0.01433
1949.22554	0.01429
1947.93977	0.01401
1946.65400	0.01369
1945.36823	0.01339
1944.08247	0.01297
1942.79670	0.01239
1941.51093	0.01182
1940.22516	0.01149
1938.93939	0.01134
1937.65362	0.01115
1936.36785	0.01092
1935.08208	0.01099
1933.79632	0.01163
1932.51055	0.01264
1931.22478	0.01348
1929.93901	0.01380
1928.65324	0.01367
1927.36747	0.01339
1926.08170	0.01326
1924.79593	0.01342
1923.51016	0.01379
1922.22440	0.01415
1920.93863	0.01436
1919.65286	0.01445
1918.36709	0.01450
1917.08132	0.01453
1915.79555	0.01454
1914.50978	0.01454
1913.22401	0.01455
1911.93825	0.01459
1910.65248	0.01464
1909.36671	0.01457
1908.08094	0.01436
1906.79517	0.01411
1905.50940	0.01397
1904.22363	0.01395
1902.93786	0.01391
1901.65209	0.01374
1900.36633	0.01355
1899.08056	0.01350
1897.79479	0.01362
1896.50902	0.01378
1895.22325	0.01381
1893.93748	0.01371
1892.65171	0.01361
1891.36594	0.01362
1890.08018	0.01371
1888.79441	0.01381
1887.50864	0.01396
1886.22287	0.01421
1884.93710	0.01449
1883.65133	0.01465
1882.36556	0.01460
1881.07979	0.01436
1879.79402	0.01408
1878.50826	0.01388
1877.22249	0.01382
1875.93672	0.01393
1874.65095	0.01421
1873.36518	0.01461
1872.07941	0.01499
1870.79364	0.01516
1869.50787	0.01507
1868.22211	0.01490
1866.93634	0.01487
1865.65057	0.01502
1864.36480	0.01515
1863.07903	0.01503
1861.79326	0.01468
1860.50749	0.01434
1859.22172	0.01424
1857.93595	0.01443
1856.65019	0.01473
1855.36442	0.01492
1854.07865	0.01493
1852.79288	0.01481
1851.50711	0.01467
1850.22134	0.01459
1848.93557	0.01465
1847.64980	0.01484
1846.36404	0.01505
1845.07827	0.01510
1843.79250	0.01494
1842.50673	0.01476
1841.22096	0.01477
1839.93519	0.01501
1838.64942	0.01534
1837.36365	0.01558
1836.07788	0.01565
1834.79212	0.01559
1833.50635	0.01549
1832.22058	0.01544
1830.93481	0.01545
1829.64904	0.01545
1828.36327	0.01541
1827.07750	0.01534
1825.79173	0.01531
1824.50597	0.01534
1823.22020	0.01539
1821.93443	0.01537
1820.64866	0.01520
1819.36289	0.01491
1818.07712	0.01464
1816.79135	0.01453
1815.50558	0.01465
1814.21981	0.01493
1812.93405	0.01525
1811.64828	0.01553
1810.36251	0.01572
1809.07674	0.01579
1807.79097	0.01573
1806.50520	0.01558
1805.21943	0.01549
1803.93366	0.01552
1802.64790	0.01562
1801.36213	0.01567
1800.07636	0.01563
1798.79059	0.01554
1797.50482	0.01548
1796.21905	0.01550
1794.93328	0.01556
1793.64751	0.01562
1792.36174	0.01566
1791.07598	0.01569
1789.79021	0.01577
1788.50444	0.01598
1787.21867	0.01626
1785.93290	0.01649
1784.64713	0.01656
1783.36136	0.01647
1782.07559	0.01635
1780.78983	0.01630
1779.50406	0.01633
1778.21829	0.01640
1776.93252	0.01647
1775.64675	0.01657
1774.36098	0.01669
1773.07521	0.01679
1771.78944	0.01686
1770.50367	0.01689
1769.21791	0.01696
1767.93214	0.01710
1766.64637	0.01728
1765.36060	0.01741
1764.07483	0.01742
1762.78906	0.01734
1761.50329	0.01725
1760.21752	0.01722
1758.93176	0.01725
1757.64599	0.01730
1756.36022	0.01734
1755.07445	0.01737
1753.78868	0.01747
1752.50291	0.01765
1751.21714	0.01788
1749.93137	0.01804
1748.64560	0.01809
1747.35984	0.01804
1746.07407	0.01796
1744.78830	0.01791
1743.50253	0.01794
1742.21676	0.01805
1740.93099	0.01823
1739.64522	0.01842
1738.35945	0.01857
1737.07369	0.01869
1735.78792	0.01879
1734.50215	0.01892
1733.21638	0.01908
1731.93061	0.01924
1730.64484	0.01941
1729.35907	0.01958
1728.07330	0.01976
1726.78753	0.01992
1725.50177	0.02008
1724.21600	0.02026
1722.93023	0.02048
1721.64446	0.02074
1720.35869	0.02100
1719.07292	0.02123
1717.78715	0.02143
1716.50138	0.02161
1715.21561	0.02184
1713.92985	0.02217
1712.64408	0.02257
1711.35831	0.02303
1710.07254	0.02351
1708.78677	0.02397
1707.50100	0.02439
1706.21523	0.02479
1704.92946	0.02517
1703.64370	0.02555
1702.35793	0.02595
1701.07216	0.02636
1699.78639	0.02677
1698.50062	0.02721
1697.21485	0.02771
1695.92908	0.02825
1694.64331	0.02880
1693.35754	0.02932
1692.07178	0.02980
1690.78601	0.03027
1689.50024	0.03077
1688.21447	0.03131
1686.92870	0.03186
1685.64293	0.03241
1684.35716	0.03296
1683.07139	0.03352
1681.78563	0.03407
1680.49986	0.03460
1679.21409	0.03512
1677.92832	0.03563
1676.64255	0.03616
1675.35678	0.03670
1674.07101	0.03725
1672.78524	0.03777
1671.49947	0.03825
1670.21371	0.03871
1668.92794	0.03918
1667.64217	0.03967
1666.35640	0.04017
1665.07063	0.04066
1663.78486	0.04112
1662.49909	0.04151
1661.21332	0.04182
1659.92756	0.04206
1658.64179	0.04230
1657.35602	0.04261
1656.07025	0.04297
1654.78448	0.04337
1653.49871	0.04376
1652.21294	0.04411
1650.92717	0.04437
1649.64140	0.04456
1648.35564	0.04469
1647.06987	0.04484
1645.78410	0.04503
1644.49833	0.04524
1643.21256	0.04546
1641.92679	0.04565
1640.64102	0.04581
1639.35525	0.04591
1638.06949	0.04597
1636.78372	0.04600
1635.49795	0.04602
1634.21218	0.04607
1632.92641	0.04612
1631.64064	0.04618
1630.35487	0.04624
1629.06910	0.04629
1627.78333	0.04636
1626.49757	0.04645
1625.21180	0.04656
1623.92603	0.04667
1622.64026	0.04677
1621.35449	0.04688
1620.06872	0.04703
1618.78295	0.04721
1617.49718	0.04739
1616.21142	0.04755
1614.92565	0.04768
1613.63988	0.04782
1612.35411	0.04800
1611.06834	0.04824
1609.78257	0.04850
1608.49680	0.04875
1607.21103	0.04899
1605.92526	0.04923
1604.63950	0.04947
1603.35373	0.04970
1602.06796	0.04992
1600.78219	0.05014
1599.49642	0.05035
1598.21065	0.05056
1596.92488	0.05076
1595.63911	0.05097
1594.35335	0.05119
1593.06758	0.05144
1591.78181	0.05169
1590.49604	0.05195
1589.21027	0.05216
1587.92450	0.05230
1586.63873	0.05241
1585.35296	0.05255
1584.06719	0.05281
1582.78143	0.05318
1581.49566	0.05358
1580.20989	0.05390
1578.92412	0.05410
1577.63835	0.05425
1576.35258	0.05444
1575.06681	0.05472
1573.78104	0.05503
1572.49528	0.05533
1571.20951	0.05559
1569.92374	0.05582
1568.63797	0.05603
1567.35220	0.05621
1566.06643	0.05637
1564.78066	0.05653
1563.49489	0.05668
1562.20912	0.05683
1560.92336	0.05697
1559.63759	0.05711
1558.35182	0.05727
1557.06605	0.05741
1555.78028	0.05753
1554.49451	0.05763
1553.20874	0.05773
1551.92297	0.05785
1550.63721	0.05798
1549.35144	0.05809
1548.06567	0.05814
1546.77990	0.05810
1545.49413	0.05799
1544.20836	0.05782
1542.92259	0.05760
1541.63682	0.05734
1540.35105	0.05707
1539.06529	0.05684
1537.77952	0.05670
1536.49375	0.05664
1535.20798	0.05661
1533.92221	0.05659
1532.63644	0.05658
1531.35067	0.05664
1530.06490	0.05684
1528.77914	0.05719
1527.49337	0.05765
1526.20760	0.05814
1524.92183	0.05862
1523.63606	0.05912
1522.35029	0.05967
1521.06452	0.06032
1519.77875	0.06111
1518.49298	0.06203
1517.20722	0.06307
1515.92145	0.06419
1514.63568	0.06536
1513.34991	0.06657
1512.06414	0.06782
1510.77837	0.06911
1509.49260	0.07044
1508.20683	0.07178
1506.92107	0.07312
1505.63530	0.07445
1504.34953	0.07572
1503.06376	0.07692
1501.77799	0.07801
1500.49222	0.07904
1499.20645	0.08003
1497.92068	0.08101
1496.63491	0.08195
1495.34915	0.08281
1494.06338	0.08356
1492.77761	0.08425
1491.49184	0.08496
1490.20607	0.08576
1488.92030	0.08672
1487.63453	0.08781
1486.34876	0.08898
1485.06299	0.09019
1483.77723	0.09141
1482.49146	0.09268
1481.20569	0.09401
1479.91992	0.09538
1478.63415	0.09677
1477.34838	0.09814
1476.06261	0.09940
1474.77684	0.10044
1473.49108	0.10124
1472.20531	0.10184
1470.91954	0.10233
1469.63377	0.10278
1468.34800	0.10320
1467.06223	0.10356
1465.77646	0.10383
1464.49069	0.10403
1463.20492	0.10420
1461.91916	0.10442
1460.63339	0.10474
1459.34762	0.10519
1458.06185	0.10573
1456.77608	0.10630
1455.49031	0.10688
1454.20454	0.10745
1452.91877	0.10800
1451.63301	0.10848
1450.34724	0.10887
1449.06147	0.10915
1447.77570	0.10937
1446.48993	0.10954
1445.20416	0.10964
1443.91839	0.10967
1442.63262	0.10964
1441.34685	0.10953
1440.06109	0.10936
1438.77532	0.10918
1437.48955	0.10911
1436.20378	0.10925
1434.91801	0.10964
1433.63224	0.11028
1432.34647	0.11114
1431.06070	0.11222
1429.77494	0.11350
1428.48917	0.11497
1427.20340	0.11658
1425.91763	0.11830
1424.63186	0.12009
1423.34609	0.12191
1422.06032	0.12368
1420.77455	0.12532
1419.48878	0.12672
1418.20302	0.12784
1416.91725	0.12870
1415.63148	0.12938
1414.34571	0.12993
1413.05994	0.13032
1411.77417	0.13046
1410.48840	0.13030
1409.20263	0.12981
1407.91687	0.12903
1406.63110	0.12799
1405.34533	0.12672
1404.05956	0.12521
1402.77379	0.12349
1401.48802	0.12157
1400.20225	0.11945
1398.91648	0.11716
1397.63071	0.11473
1396.34495	0.11221
1395.05918	0.10965
1393.77341	0.10706
1392.48764	0.10447
1391.20187	0.10188
1389.91610	0.09929
1388.63033	0.09672
1387.34456	0.09419
1386.05880	0.09174
1384.77303	0.08932
1383.48726	0.08690
1382.20149	0.08447
1380.91572	0.08202
1379.62995	0.07958
1378.34418	0.07711
1377.05841	0.07459
1375.77264	0.07204
1374.48688	0.06951
1373.20111	0.06711
1371.91534	0.06485
1370.62957	0.06271
1369.34380	0.06063
1368.05803	0.05858
1366.77226	0.05664
1365.48649	0.05484
1364.20073	0.05321
1362.91496	0.05170
1361.62919	0.05026
1360.34342	0.04886
1359.05765	0.04751
1357.77188	0.04622
1356.48611	0.04501
1355.20034	0.04390
1353.91457	0.04288
1352.62881	0.04192
1351.34304	0.04101
1350.05727	0.04013
1348.77150	0.03930
1347.48573	0.03857
1346.19996	0.03794
1344.91419	0.03738
1343.62842	0.03683
1342.34266	0.03627
1341.05689	0.03572
1339.77112	0.03518
1338.48535	0.03467
1337.19958	0.03418
1335.91381	0.03372
1334.62804	0.03330
1333.34227	0.03288
1332.05650	0.03246
1330.77074	0.03201
1329.48497	0.03156
1328.19920	0.03115
1326.91343	0.03080
1325.62766	0.03052
1324.34189	0.03028
1323.05612	0.03004
1321.77035	0.02977
1320.48459	0.02950
1319.19882	0.02925
1317.91305	0.02902
1316.62728	0.02877
1315.34151	0.02848
1314.05574	0.02814
1312.76997	0.02778
1311.48420	0.02744
1310.19843	0.02714
1308.91267	0.02688
1307.62690	0.02665
1306.34113	0.02643
1305.05536	0.02622
1303.76959	0.02602
1302.48382	0.02582
1301.19805	0.02564
1299.91228	0.02544
1298.62652	0.02525
1297.34075	0.02507
1296.05498	0.02494
1294.76921	0.02484
1293.48344	0.02477
1292.19767	0.02470
1290.91190	0.02461
1289.62613	0.02447
1288.34036	0.02429
1287.05460	0.02411
1285.76883	0.02396
1284.48306	0.02383
1283.19729	0.02372
1281.91152	0.02361
1280.62575	0.02350
1279.33998	0.02340
1278.05421	0.02332
1276.76845	0.02324
1275.48268	0.02313
1274.19691	0.02299
1272.91114	0.02282
1271.62537	0.02265
1270.33960	0.02247
1269.05383	0.02228
1267.76806	0.02210
1266.48229	0.02197
1265.19653	0.02192
1263.91076	0.02192
1262.62499	0.02192
1261.33922	0.02184
1260.05345	0.02171
1258.76768	0.02160
1257.48191	0.02155
1256.19614	0.02158
1254.91037	0.02162
1253.62461	0.02161
1252.33884	0.02151
1251.05307	0.02136
1249.76730	0.02123
1248.48153	0.02116
1247.19576	0.02113
1245.90999	0.02108
1244.62422	0.02099
1243.33846	0.02084
1242.05269	0.02067
1240.76692	0.02052
1239.48115	0.02043
1238.19538	0.02043
1236.90961	0.02047
1235.62384	0.02050
1234.33807	0.02049
1233.05230	0.02043
1231.76654	0.02033
1230.48077	0.02023
1229.19500	0.02014
1227.90923	0.02006
1226.62346	0.02000
1225.33769	0.01993
1224.05192	0.01985
1222.76615	0.01978
1221.48039	0.01972
1220.19462	0.01967
1218.90885	0.01964
1217.62308	0.01964
1216.33731	0.01969
1215.05154	0.01974
1213.76577	0.01977
1212.48000	0.01973
1211.19423	0.01964
1209.90847	0.01955
1208.62270	0.01950
1207.33693	0.01950
1206.05116	0.01954
1204.76539	0.01961
1203.47962	0.01968
1202.19385	0.01970
1200.90808	0.01969
1199.62232	0.01969
1198.33655	0.01966
1197.05078	0.01966
1195.76501	0.01967
1194.47924	0.01965
1193.19347	0.01960
1191.90770	0.01953
1190.62193	0.01949
1189.33616	0.01951
1188.05040	0.01962
1186.76463	0.01976
1185.47886	0.01987
1184.19309	0.01993
1182.90732	0.02001
1181.62155	0.02009
1180.33578	0.02016
1179.05001	0.02016
1177.76425	0.02014
1176.47848	0.02017
1175.19271	0.02029
1173.90694	0.02043
1172.62117	0.02054
1171.33540	0.02058
1170.04963	0.02063
1168.76386	0.02075
1167.47809	0.02100
1166.19233	0.02134
1164.90656	0.02172
1163.62079	0.02208
1162.33502	0.02238
1161.04925	0.02265
1159.76348	0.02297
1158.47771	0.02337
1157.19194	0.02384
1155.90618	0.02429
1154.62041	0.02470
1153.33464	0.02511
1152.04887	0.02559
1150.76310	0.02621
1149.47733	0.02693
1148.19156	0.02771
1146.90579	0.02851
1145.62002	0.02933
1144.33426	0.03023
1143.04849	0.03120
1141.76272	0.03226
1140.47695	0.03341
1139.19118	0.03469
1137.90541	0.03612
1136.61964	0.03772
1135.33387	0.03951
1134.04811	0.04151
1132.76234	0.04370
1131.47657	0.04604
1130.19080	0.04853
1128.90503	0.05124
1127.61926	0.05421
1126.33349	0.05747
1125.04772	0.06095
1123.76195	0.06459
1122.47619	0.06834
1121.19042	0.07217
1119.90465	0.07601
1118.61888	0.07981
1117.33311	0.08361
1116.04734	0.08748
1114.76157	0.09141
1113.47580	0.09529
1112.19004	0.09907
1110.90427	0.10278
1109.61850	0.10647
1108.33273	0.11013
1107.04696	0.11371
1105.76119	0.11720
1104.47542	0.12065
1103.18965	0.12411
1101.90388	0.12753
1100.61812	0.13084
1099.33235	0.13400
1098.04658	0.13704
1096.76081	0.14005
1095.47504	0.14305
1094.18927	0.14599
1092.90350	0.14873
1091.61773	0.15124
1090.33197	0.15357
1089.04620	0.15590
1087.76043	0.15832
1086.47466	0.16083
1085.18889	0.16333
1083.90312	0.16576
1082.61735	0.16818
1081.33158	0.17073
1080.04581	0.17349
1078.76005	0.17648
1077.47428	0.17970
1076.18851	0.18312
1074.90274	0.18668
1073.61697	0.19031
1072.33120	0.19401
1071.04543	0.19779
1069.75966	0.20170
1068.47390	0.20576
1067.18813	0.20995
1065.90236	0.21426
1064.61659	0.21864
1063.33082	0.22310
1062.04505	0.22763
1060.75928	0.23218
1059.47351	0.23670
1058.18774	0.24113
1056.90198	0.24545
1055.61621	0.24966
1054.33044	0.25383
1053.04467	0.25806
1051.75890	0.26240
1050.47313	0.26686
1049.18736	0.27144
1047.90159	0.27612
1046.61583	0.28087
1045.33006	0.28572
1044.04429	0.29073
1042.75852	0.29587
1041.47275	0.30105
1040.18698	0.30619
1038.90121	0.31134
1037.61544	0.31664
1036.32967	0.32213
1035.04391	0.32769
1033.75814	0.33313
1032.47237	0.33834
1031.18660	0.34330
1029.90083	0.34798
1028.61506	0.35233
1027.32929	0.35629
1026.04352	0.35976
1024.75775	0.36272
1023.47199	0.36519
1022.18622	0.36723
1020.90045	0.36887
1019.61468	0.37004
1018.32891	0.37063
1017.04314	0.37049
1015.75737	0.36954
1014.47160	0.36782
1013.18584	0.36539
1011.90007	0.36229
1010.61430	0.35851
1009.32853	0.35406
1008.04276	0.34891
1006.75699	0.34303
1005.47122	0.33639
1004.18545	0.32904
1002.89968	0.32106
1001.61392	0.31252
1000.32815	0.30348
999.04238	0.29401
997.75661	0.28419
996.47084	0.27416
995.18507	0.26401
993.89930	0.25378
992.61353	0.24348
991.32777	0.23321
990.04200	0.22311
988.75623	0.21329
987.47046	0.20381
986.18469	0.19467
984.89892	0.18589
983.61315	0.17753
982.32738	0.16960
981.04161	0.16213
979.75585	0.15515
978.47008	0.14872
977.18431	0.14290
975.89854	0.13777
974.61277	0.13338
973.32700	0.12970
972.04123	0.12671
970.75546	0.12442
969.46970	0.12295
968.18393	0.12237
966.89816	0.12265
965.61239	0.12356
964.32662	0.12477
963.04085	0.12598
961.75508	0.12688
960.46931	0.12720
959.18354	0.12673
957.89778	0.12535
956.61201	0.12310
955.32624	0.12012
954.04047	0.11668
952.75470	0.11300
951.46893	0.10932
950.18316	0.10574
948.89739	0.10228
947.61163	0.09887
946.32586	0.09548
945.04009	0.09217
943.75432	0.08900
942.46855	0.08600
941.18278	0.08315
939.89701	0.08052
938.61124	0.07812
937.32547	0.07592
936.03971	0.07382
934.75394	0.07180
933.46817	0.06991
932.18240	0.06823
930.89663	0.06677
929.61086	0.06546
928.32509	0.06423
927.03932	0.06303
925.75356	0.06185
924.46779	0.06066
923.18202	0.05952
921.89625	0.05846
920.61048	0.05753
919.32471	0.05671
918.03894	0.05596
916.75317	0.05525
915.46740	0.05457
914.18164	0.05394
912.89587	0.05336
911.61010	0.05281
910.32433	0.05223
909.03856	0.05162
907.75279	0.05100
906.46702	0.05040
905.18125	0.04990
903.89549	0.04955
902.60972	0.04932
901.32395	0.04910
900.03818	0.04881
898.75241	0.04851
897.46664	0.04830
896.18087	0.04824
894.89510	0.04829
893.60933	0.04830
892.32357	0.04821
891.03780	0.04805
889.75203	0.04798
888.46626	0.04821
887.18049	0.04899
885.89472	0.05061
884.60895	0.05325
883.32318	0.05684
882.03742	0.06096
880.75165	0.06490
879.46588	0.06808
878.18011	0.07034
876.89434	0.07209
875.60857	0.07386
874.32280	0.07582
873.03703	0.07760
871.75126	0.07854
870.46550	0.07827
869.17973	0.07681
867.89396	0.07447
866.60819	0.07159
865.32242	0.06844
864.03665	0.06527
862.75088	0.06224
861.46511	0.05949
860.17935	0.05704
858.89358	0.05495
857.60781	0.05324
856.32204	0.05189
855.03627	0.05081
853.75050	0.04989
852.46473	0.04905
851.17896	0.04828
849.89319	0.04757
848.60743	0.04694
847.32166	0.04639
846.03589	0.04591
844.75012	0.04553
843.46435	0.04521
842.17858	0.04493
840.89281	0.04465
839.60704	0.04436
838.32128	0.04407
837.03551	0.04377
835.74974	0.04346
834.46397	0.04319
833.17820	0.04300
831.89243	0.04287
830.60666	0.04275
829.32089	0.04262
828.03512	0.04250
826.74936	0.04241
825.46359	0.04230
824.17782	0.04216
822.89205	0.04201
821.60628	0.04192
820.32051	0.04189
819.03474	0.04191
817.74897	0.04194
816.46321	0.04194
815.17744	0.04190
813.89167	0.04184
812.60590	0.04180
811.32013	0.04177
810.03436	0.04175
808.74859	0.04173
807.46282	0.04170
806.17705	0.04166
804.89129	0.04158
803.60552	0.04145
802.31975	0.04132
801.03398	0.04124
799.74821	0.04125
798.46244	0.04132
797.17667	0.04137
795.89090	0.04137
794.60513	0.04130
793.31937	0.04120
792.03360	0.04112
790.74783	0.04108
789.46206	0.04107
788.17629	0.04107
786.89052	0.04104
785.60475	0.04096
784.31898	0.04084
783.03322	0.04076
781.74745	0.04075
780.46168	0.04077
779.17591	0.04074
777.89014	0.04063
776.60437	0.04048
775.31860	0.04037
774.03283	0.04034
772.74706	0.04039
771.46130	0.04049
770.17553	0.04057
768.88976	0.04064
767.60399	0.04067
766.31822	0.04070
765.03245	0.04074
763.74668	0.04084
762.46091	0.04098
761.17515	0.04115
759.88938	0.04132
758.60361	0.04146
757.31784	0.04150
756.03207	0.04142
754.74630	0.04129
753.46053	0.04116
752.17476	0.04106
750.88899	0.04098
749.60323	0.04093
748.31746	0.04094
747.03169	0.04100
745.74592	0.04103
744.46015	0.04093
743.17438	0.04068
741.88861	0.04038
740.60284	0.04018
739.31708	0.04017
738.03131	0.04034
736.74554	0.04055
735.45977	0.04069
734.17400	0.04068
732.88823	0.04052
731.60246	0.04028
730.31669	0.04009
729.03092	0.04008
727.74516	0.04024
726.45939	0.04046
725.17362	0.04061
723.88785	0.04070
722.60208	0.04075
721.31631	0.04080
720.03054	0.04090
718.74477	0.04103
717.45901	0.04110
716.17324	0.04109
714.88747	0.04098
713.60170	0.04082
712.31593	0.04068
711.03016	0.04063
709.74439	0.04066
708.45862	0.04069
707.17285	0.04068
705.88709	0.04062
704.60132	0.04053
703.31555	0.04045
702.02978	0.04038
700.74401	0.04032
699.45824	0.04028
698.17247	0.04026
696.88670	0.04026
695.60094	0.04029
694.31517	0.04033
693.02940	0.04036
691.74363	0.04036
690.45786	0.04032
689.17209	0.04025
687.88632	0.04017
686.60055	0.04008
685.31478	0.04001
684.02902	0.03996
682.74325	0.03993
681.45748	0.03990
680.17171	0.03983
678.88594	0.03976
677.60017	0.03972
676.31440	0.03976
675.02863	0.03985
673.74287	0.03995
672.45710	0.04016
671.17133	0.04068
669.88556	0.04119
668.59979	0.04064
667.31402	0.04056
666.02825	0.04135
664.74248	0.04069
663.45671	0.03990
662.17095	0.03945
660.88518	0.03913
659.59941	0.03891
658.31364	0.03886
657.02787	0.03893
655.74210	0.03905
654.45633	0.03911
653.17056	0.03905
651.88480	0.03895
650.59903	0.03891
649.31326	0.03897
648.02749	0.03915
646.74172	0.03935
645.45595	0.03951
644.17018	0.03965
642.88441	0.03981
641.59864	0.04003
640.31288	0.04026
639.02711	0.04049
637.74134	0.04076
636.45557	0.04112
635.16980	0.04159
633.88403	0.04212
632.59826	0.04264
631.31249	0.04312
630.02673	0.04341
628.74096	0.04368
627.45519	0.04469
626.16942	0.04500
624.88365	0.04487
623.59788	0.04518
622.31211	0.04684
621.02634	0.05069
619.74057	0.05665
618.45481	0.06329
617.16904	0.06871
615.88327	0.07193
614.59750	0.07350
613.31173	0.07508
612.02596	0.07836
610.74019	0.08421
609.45442	0.09209
608.16866	0.10035
606.88289	0.10753
605.59712	0.11324
604.31135	0.11779
603.02558	0.12135
601.73981	0.12369
600.45404	0.12445
599.16827	0.12361
597.88250	0.12150
596.59674	0.11864
595.31097	0.11552
594.02520	0.11257
592.73943	0.11006
591.45366	0.10815
590.16789	0.10692
588.88212	0.10643
587.59635	0.10671
586.31059	0.10770
585.02482	0.10929
583.73905	0.11138
582.45328	0.11390
581.16751	0.11686
579.88174	0.12023
578.59597	0.12392
577.31020	0.12772
576.02443	0.13141
574.73867	0.13480
573.45290	0.13787
572.16713	0.14083
570.88136	0.14407
569.59559	0.14800
568.30982	0.15281
567.02405	0.15839
565.73828	0.16427
564.45251	0.16977
563.16675	0.17418
561.88098	0.17683
560.59521	0.17726
559.30944	0.17524
558.02367	0.17089
556.73790	0.16460
555.45213	0.15691
554.16636	0.14841
552.88060	0.13968
551.59483	0.13125
550.30906	0.12349
549.02329	0.11653
547.73752	0.11027
546.45175	0.10460
545.16598	0.09940
543.88021	0.09462
542.59444	0.09023
541.30868	0.08621
540.02291	0.08256
538.73714	0.07924
537.45137	0.07620
536.16560	0.07338
534.87983	0.07079
533.59406	0.06846
532.30829	0.06641
531.02253	0.06458
529.73676	0.06288
528.45099	0.06128
527.16522	0.05975
525.87945	0.05832
524.59368	0.05699
523.30791	0.05573
522.02214	0.05449
520.73637	0.05325
519.45061	0.05201
518.16484	0.05085
516.87907	0.04983
515.59330	0.04893
514.30753	0.04810
513.02176	0.04727
511.73599	0.04646
510.45022	0.04569
509.16446	0.04495
507.87869	0.04422
506.59292	0.04348
505.30715	0.04278
504.02138	0.04215
502.73561	0.04161
501.44984	0.04116
500.16407	0.04074
498.87830	0.04032
497.59254	0.03987
496.30677	0.03945
495.02100	0.03910
493.73523	0.03880
492.44946	0.03849
491.16369	0.03816
489.87792	0.03787
488.59215	0.03769
487.30639	0.03762
486.02062	0.03758
484.73485	0.03749
483.44908	0.03736
482.16331	0.03725
480.87754	0.03724
479.59177	0.03736
478.30600	0.03755
477.02023	0.03779
475.73447	0.03802
474.44870	0.03822
473.16293	0.03837
471.87716	0.03849
470.59139	0.03860
469.30562	0.03868
468.01985	0.03868
466.73408	0.03850
465.44832	0.03816
464.16255	0.03777
462.87678	0.03741
461.59101	0.03710
460.30524	0.03671
459.01947	0.03619
457.73370	0.03561
456.44793	0.03508
455.16216	0.03469
453.87640	0.03438
452.59063	0.03407
451.30486	0.03375
450.01909	0.03348
448.73332	0.03329
447.44755	0.03315
446.16178	0.03299
444.87601	0.03278
443.59025	0.03255
442.30448	0.03232
441.01871	0.03212
439.73294	0.03196
438.44717	0.03184
437.16140	0.03177
435.87563	0.03173
434.58986	0.03172
433.30409	0.03174
432.01833	0.03175
430.73256	0.03169
429.44679	0.03156
428.16102	0.03140
426.87525	0.03127
425.58948	0.03120
424.30371	0.03115
423.01794	0.03104
421.73218	0.03083
420.44641	0.03055
419.16064	0.03028
417.87487	0.03008
416.58910	0.02998
415.30333	0.02996
414.01756	0.03000
412.73179	0.03006
411.44602	0.03008
410.16026	0.03004
408.87449	0.02998
407.58872	0.02999
406.30295	0.03007
405.01718	0.03019
403.73141	0.03029
402.44564	0.03039
401.15987	0.03054
399.87411	0.03071
