3997.45528 0.04288
3996.16951 0.04227
3994.88374 0.04195
3993.59798 0.04153
3992.31221 0.04081
3991.02644 0.04018
3989.74067 0.04042
3988.45490 0.04200
3987.16913 0.04440
3985.88336 0.04624
3984.59759 0.04643
3983.31183 0.04498
3982.02606 0.04297
3980.74029 0.04157
3979.45452 0.04127
3978.16875 0.04189
3976.88298 0.04307
3975.59721 0.04448
3974.31144 0.04559
3973.02567 0.04585
3971.73991 0.04519
3970.45414 0.04411
3969.16837 0.04313
3967.88260 0.04223
3966.59683 0.04117
3965.31106 0.03994
3964.02529 0.03886
3962.73952 0.03817
3961.45376 0.03795
3960.16799 0.03832
3958.88222 0.03944
3957.59645 0.04119
3956.31068 0.04292
3955.02491 0.04379
3953.73914 0.04351
3952.45337 0.04268
3951.16760 0.04213
3949.88184 0.04215
3948.59607 0.04249
3947.31030 0.04282
3946.02453 0.04296
3944.73876 0.04280
3943.45299 0.04226
3942.16722 0.04147
3940.88145 0.04071
3939.59569 0.04024
3938.30992 0.04020
3937.02415 0.04064
3935.73838 0.04127
3934.45261 0.04155
3933.16684 0.04111
3931.88107 0.04023
3930.59530 0.03959
3929.30953 0.03969
3928.02377 0.04029
3926.73800 0.04076
3925.45223 0.04066
3924.16646 0.04011
3922.88069 0.03958
3921.59492 0.03943
3920.30915 0.03975
3919.02338 0.04041
3917.73762 0.04124
3916.45185 0.04211
3915.16608 0.04286
3913.88031 0.04328
3912.59454 0.04323
3911.30877 0.04294
3910.02300 0.04294
3908.73723 0.04354
3907.45146 0.04448
3906.16570 0.04526
3904.87993 0.04554
3903.59416 0.04522
3902.30839 0.04430
3901.02262 0.04305
3899.73685 0.04200
3898.45108 0.04155
3897.16531 0.04156
3895.87955 0.04164
3894.59378 0.04167
3893.30801 0.04179
3892.02224 0.04196
3890.73647 0.04179
3889.45070 0.04093
3888.16493 0.03961
3886.87916 0.03852
3885.59339 0.03816
3884.30763 0.03827
3883.02186 0.03836
3881.73609 0.03843
3880.45032 0.03898
3879.16455 0.04018
3877.87878 0.04162
3876.59301 0.04268
3875.30724 0.04310
3874.02148 0.04290
3872.73571 0.04215
3871.44994 0.04106
3870.16417 0.04016
3868.87840 0.03991
3867.59263 0.04021
3866.30686 0.04067
3865.02109 0.04107
3863.73532 0.04131
3862.44956 0.04116
3861.16379 0.04045
3859.87802 0.03939
3858.59225 0.03861
3857.30648 0.03863
3856.02071 0.03928
3854.73494 0.03993
3853.44917 0.04028
3852.16341 0.04051
3850.87764 0.04080
3849.59187 0.04101
3848.30610 0.04087
3847.02033 0.04044
3845.73456 0.03992
3844.44879 0.03944
3843.16302 0.03900
3841.87725 0.03875
3840.59149 0.03884
3839.30572 0.03929
3838.01995 0.03999
3836.73418 0.04076
3835.44841 0.04133
3834.16264 0.04140
3832.87687 0.04094
3831.59110 0.04021
3830.30534 0.03948
3829.01957 0.03886
3827.73380 0.03832
3826.44803 0.03797
3825.16226 0.03796
3823.87649 0.03830
3822.59072 0.03882
3821.30495 0.03941
3820.01918 0.03999
3818.73342 0.04045
3817.44765 0.04066
3816.16188 0.04063
3814.87611 0.04035
3813.59034 0.03973
3812.30457 0.03888
3811.01880 0.03810
3809.73303 0.03761
3808.44726 0.03738
3807.16150 0.03740
3805.87573 0.03772
3804.58996 0.03821
3803.30419 0.03871
3802.01842 0.03920
3800.73265 0.03966
3799.44688 0.03977
3798.16111 0.03921
3796.87535 0.03824
3795.58958 0.03745
3794.30381 0.03723
3793.01804 0.03753
3791.73227 0.03804
3790.44650 0.03838
3789.16073 0.03832
3787.87496 0.03793
3786.58919 0.03749
3785.30343 0.03721
3784.01766 0.03713
3782.73189 0.03718
3781.44612 0.03735
3780.16035 0.03763
3778.87458 0.03788
3777.58881 0.03801
3776.30304 0.03821
3775.01728 0.03871
3773.73151 0.03946
3772.44574 0.04011
3771.15997 0.04039
3769.87420 0.04028
3768.58843 0.03985
3767.30266 0.03919
3766.01689 0.03863
3764.73112 0.03857
3763.44536 0.03895
3762.15959 0.03907
3760.87382 0.03832
3759.58805 0.03690
3758.30228 0.03568
3757.01651 0.03553
3755.73074 0.03662
3754.44497 0.03826
3753.15921 0.03947
3751.87344 0.03971
3750.58767 0.03917
3749.30190 0.03856
3748.01613 0.03840
3746.73036 0.03847
3745.44459 0.03838
3744.15882 0.03825
3742.87305 0.03831
3741.58729 0.03848
3740.30152 0.03851
3739.01575 0.03827
3737.72998 0.03767
3736.44421 0.03673
3735.15844 0.03560
3733.87267 0.03450
3732.58690 0.03379
3731.30114 0.03364
3730.01537 0.03382
3728.72960 0.03395
3727.44383 0.03397
3726.15806 0.03411
3724.87229 0.03435
3723.58652 0.03442
3722.30075 0.03417
3721.01498 0.03385
3719.72922 0.03377
3718.44345 0.03403
3717.15768 0.03450
3715.87191 0.03507
3714.58614 0.03567
3713.30037 0.03630
3712.01460 0.03691
3710.72883 0.03736
3709.44307 0.03763
3708.15730 0.03797
3706.87153 0.03860
3705.58576 0.03935
3704.29999 0.03975
3703.01422 0.03960
3701.72845 0.03913
3700.44268 0.03846
3699.15691 0.03740
3697.87115 0.03587
3696.58538 0.03428
3695.29961 0.03316
3694.01384 0.03280
3692.72807 0.03327
3691.44230 0.03424
3690.15653 0.03498
3688.87076 0.03490
3687.58500 0.03424
3686.29923 0.03376
3685.01346 0.03394
3683.72769 0.03453
3682.44192 0.03501
3681.15615 0.03525
3679.87038 0.03560
3678.58461 0.03618
3677.29884 0.03651
3676.01308 0.03623
3674.72731 0.03561
3673.44154 0.03531
3672.15577 0.03559
3670.87000 0.03619
3669.58423 0.03666
3668.29846 0.03684
3667.01269 0.03685
3665.72693 0.03685
3664.44116 0.03673
3663.15539 0.03646
3661.86962 0.03626
3660.58385 0.03635
3659.29808 0.03665
3658.01231 0.03688
3656.72654 0.03701
3655.44077 0.03719
3654.15501 0.03740
3652.86924 0.03738
3651.58347 0.03691
3650.29770 0.03609
3649.01193 0.03536
3647.72616 0.03519
3646.44039 0.03569
3645.15462 0.03647
3643.86886 0.03698
3642.58309 0.03702
3641.29732 0.03691
3640.01155 0.03714
3638.72578 0.03787
3637.44001 0.03875
3636.15424 0.03919
3634.86847 0.03891
3633.58270 0.03818
3632.29694 0.03759
3631.01117 0.03742
3629.72540 0.03750
3628.43963 0.03746
3627.15386 0.03710
3625.86809 0.03648
3624.58232 0.03587
3623.29655 0.03551
3622.01079 0.03559
3620.72502 0.03633
3619.43925 0.03776
3618.15348 0.03943
3616.86771 0.04056
3615.58194 0.04059
3614.29617 0.03980
3613.01040 0.03903
3611.72463 0.03893
3610.43887 0.03949
3609.15310 0.04020
3607.86733 0.04064
3606.58156 0.04075
3605.29579 0.04080
3604.01002 0.04110
3602.72425 0.04173
3601.43848 0.04255
3600.15272 0.04326
3598.86695 0.04364
3597.58118 0.04369
3596.29541 0.04343
3595.00964 0.04284
3593.72387 0.04196
3592.43810 0.04125
3591.15233 0.04135
3589.86656 0.04240
3588.58080 0.04371
3587.29503 0.04425
3586.00926 0.04355
3584.72349 0.04209
3583.43772 0.04081
3582.15195 0.04037
3580.86618 0.04087
3579.58041 0.04202
3578.29464 0.04332
3577.00888 0.04429
3575.72311 0.04474
3574.43734 0.04478
3573.15157 0.04464
3571.86580 0.04437
3570.58003 0.04383
3569.29426 0.04302
3568.00849 0.04233
3566.72273 0.04230
3565.43696 0.04304
3564.15119 0.04397
3562.86542 0.04437
3561.57965 0.04410
3560.29388 0.04365
3559.00811 0.04364
3557.72234 0.04427
3556.43657 0.04523
3555.15081 0.04608
3553.86504 0.04660
3552.57927 0.04686
3551.29350 0.04708
3550.00773 0.04742
3548.72196 0.04789
3547.43619 0.04832
3546.15042 0.04850
3544.86466 0.04846
3543.57889 0.04845
3542.29312 0.04864
3541.00735 0.04887
3539.72158 0.04885
3538.43581 0.04856
3537.15004 0.04829
3535.86427 0.04825
3534.57850 0.04832
3533.29274 0.04828
3532.00697 0.04833
3530.72120 0.04891
3529.43543 0.05011
3528.14966 0.05147
3526.86389 0.05249
3525.57812 0.05308
3524.29235 0.05343
3523.00659 0.05349
3521.72082 0.05301
3520.43505 0.05201
3519.14928 0.05097
3517.86351 0.05050
3516.57774 0.05074
3515.29197 0.05141
3514.00620 0.05210
3512.72043 0.05261
3511.43467 0.05289
3510.14890 0.05292
3508.86313 0.05276
3507.57736 0.05258
3506.29159 0.05251
3505.00582 0.05251
3503.72005 0.05239
3502.43428 0.05210
3501.14852 0.05178
3499.86275 0.05164
3498.57698 0.05175
3497.29121 0.05209
3496.00544 0.05255
3494.71967 0.05301
3493.43390 0.05331
3492.14813 0.05338
3490.86236 0.05333
3489.57660 0.05330
3488.29083 0.05334
3487.00506 0.05348
3485.71929 0.05396
3484.43352 0.05493
3483.14775 0.05611
3481.86198 0.05685
3480.57621 0.05668
3479.29045 0.05578
3478.00468 0.05475
3476.71891 0.05410
3475.43314 0.05387
3474.14737 0.05386
3472.86160 0.05398
3471.57583 0.05434
3470.29006 0.05490
3469.00429 0.05534
3467.71853 0.05535
3466.43276 0.05495
3465.14699 0.05446
3463.86122 0.05418
3462.57545 0.05414
3461.28968 0.05415
3460.00391 0.05400
3458.71814 0.05370
3457.43238 0.05360
3456.14661 0.05400
3454.86084 0.05479
3453.57507 0.05546
3452.28930 0.05557
3451.00353 0.05514
3449.71776 0.05466
3448.43199 0.05457
3447.14622 0.05486
3445.86046 0.05519
3444.57469 0.05534
3443.28892 0.05553
3442.00315 0.05607
3440.71738 0.05691
3439.43161 0.05774
3438.14584 0.05833
3436.86007 0.05872
3435.57431 0.05887
3434.28854 0.05860
3433.00277 0.05795
3431.71700 0.05738
3430.43123 0.05739
3429.14546 0.05786
3427.85969 0.05820
3426.57392 0.05796
3425.28815 0.05733
3424.00239 0.05686
3422.71662 0.05693
3421.43085 0.05746
3420.14508 0.05811
3418.85931 0.05868
3417.57354 0.05919
3416.28777 0.05969
3415.00200 0.06017
3413.71624 0.06051
3412.43047 0.06059
3411.14470 0.06034
3409.85893 0.05991
3408.57316 0.05965
3407.28739 0.05976
3406.00162 0.06009
3404.71585 0.06019
3403.43008 0.05983
3402.14432 0.05940
3400.85855 0.05952
3399.57278 0.05999
3398.28701 0.06046
3397.00124 0.06082
3395.71547 0.06061
3394.42970 0.05984
3393.14393 0.05898
3391.85817 0.05855
3390.57240 0.05884
3389.28663 0.05971
3388.00086 0.06070
3386.71509 0.06148
3385.42932 0.06203
3384.14355 0.06256
3382.85778 0.06308
3381.57201 0.06344
3380.28625 0.06347
3379.00048 0.06321
3377.71471 0.06285
3376.42894 0.06264
3375.14317 0.06276
3373.85740 0.06317
3372.57163 0.06356
3371.28586 0.06357
3370.00010 0.06306
3368.71433 0.06229
3367.42856 0.06166
3366.14279 0.06133
3364.85702 0.06117
3363.57125 0.06104
3362.28548 0.06097
3360.99971 0.06103
3359.71394 0.06118
3358.42818 0.06136
3357.14241 0.06158
3355.85664 0.06180
3354.57087 0.06189
3353.28510 0.06178
3351.99933 0.06156
3350.71356 0.06139
3349.42779 0.06129
3348.14202 0.06111
3346.85626 0.06084
3345.57049 0.06071
3344.28472 0.06107
3342.99895 0.06187
3341.71318 0.06265
3340.42741 0.06289
3339.14164 0.06251
3337.85587 0.06199
3336.57011 0.06184
3335.28434 0.06228
3333.99857 0.06309
3332.71280 0.06383
3331.42703 0.06416
3330.14126 0.06397
3328.85549 0.06339
3327.56972 0.06267
3326.28395 0.06207
3324.99819 0.06174
3323.71242 0.06173
3322.42665 0.06199
3321.14088 0.06239
3319.85511 0.06270
3318.56934 0.06274
3317.28357 0.06259
3315.99780 0.06254
3314.71204 0.06278
3313.42627 0.06318
3312.14050 0.06347
3310.85473 0.06362
3309.56896 0.06391
3308.28319 0.06455
3306.99742 0.06532
3305.71165 0.06572
3304.42588 0.06552
3303.14012 0.06506
3301.85435 0.06480
3300.56858 0.06480
3299.28281 0.06466
3297.99704 0.06400
3296.71127 0.06298
3295.42550 0.06208
3294.13973 0.06179
3292.85397 0.06219
3291.56820 0.06302
3290.28243 0.06386
3288.99666 0.06441
3287.71089 0.06456
3286.42512 0.06435
3285.13935 0.06392
3283.85358 0.06351
3282.56781 0.06338
3281.28205 0.06359
3279.99628 0.06392
3278.71051 0.06404
3277.42474 0.06386
3276.13897 0.06350
3274.85320 0.06323
3273.56743 0.06318
3272.28166 0.06330
3270.99590 0.06337
3269.71013 0.06326
3268.42436 0.06303
3267.13859 0.06283
3265.85282 0.06273
3264.56705 0.06266
3263.28128 0.06261
3261.99551 0.06270
3260.70974 0.06302
3259.42398 0.06346
3258.13821 0.06375
3256.85244 0.06374
3255.56667 0.06349
3254.28090 0.06317
3252.99513 0.06288
3251.70936 0.06267
3250.42359 0.06263
3249.13783 0.06283
3247.85206 0.06312
3246.56629 0.06324
3245.28052 0.06308
3243.99475 0.06276
3242.70898 0.06252
3241.42321 0.06248
3240.13744 0.06258
3238.85167 0.06259
3237.56591 0.06228
3236.28014 0.06166
3234.99437 0.06104
3233.70860 0.06071
3232.42283 0.06073
3231.13706 0.06095
3229.85129 0.06118
3228.56552 0.06129
3227.27976 0.06123
3225.99399 0.06105
3224.70822 0.06093
3223.42245 0.06101
3222.13668 0.06125
3220.85091 0.06150
3219.56514 0.06162
3218.27937 0.06150
3216.99360 0.06114
3215.70784 0.06071
3214.42207 0.06049
3213.13630 0.06062
3211.85053 0.06094
3210.56476 0.06112
3209.27899 0.06094
3207.99322 0.06050
3206.70745 0.06009
3205.42169 0.05988
3204.13592 0.05997
3202.85015 0.06033
3201.56438 0.06083
3200.27861 0.06116
3198.99284 0.06108
3197.70707 0.06068
3196.42130 0.06029
3195.13553 0.06012
3193.84977 0.06005
3192.56400 0.05990
3191.27823 0.05967
3189.99246 0.05955
3188.70669 0.05962
3187.42092 0.05973
3186.13515 0.05965
3184.84938 0.05933
3183.56362 0.05900
3182.27785 0.05898
3180.99208 0.05942
3179.70631 0.06006
3178.42054 0.06037
3177.13477 0.05999
3175.84900 0.05898
3174.56323 0.05779
3173.27746 0.05684
3171.99170 0.05628
3170.70593 0.05599
3169.42016 0.05582
3168.13439 0.05575
3166.84862 0.05581
3165.56285 0.05597
3164.27708 0.05610
3162.99131 0.05616
3161.70555 0.05615
3160.41978 0.05617
3159.13401 0.05628
3157.84824 0.05653
3156.56247 0.05681
3155.27670 0.05692
3153.99093 0.05665
3152.70516 0.05605
3151.41939 0.05535
3150.13363 0.05481
3148.84786 0.05453
3147.56209 0.05454
3146.27632 0.05484
3144.99055 0.05540
3143.70478 0.05606
3142.41901 0.05659
3141.13324 0.05682
3139.84748 0.05682
3138.56171 0.05679
3137.27594 0.05681
3135.99017 0.05679
3134.70440 0.05664
3133.41863 0.05641
3132.13286 0.05618
3130.84709 0.05589
3129.56132 0.05535
3128.27556 0.05455
3126.98979 0.05381
3125.70402 0.05349
3124.41825 0.05366
3123.13248 0.05405
3121.84671 0.05431
3120.56094 0.05431
3119.27517 0.05415
3117.98940 0.05405
3116.70364 0.05415
3115.41787 0.05442
3114.13210 0.05476
3112.84633 0.05508
3111.56056 0.05531
3110.27479 0.05539
3108.98902 0.05523
3107.70325 0.05480
3106.41749 0.05416
3105.13172 0.05347
3103.84595 0.05299
3102.56018 0.05293
3101.27441 0.05331
3099.98864 0.05388
3098.70287 0.05427
3097.41710 0.05427
3096.13133 0.05398
3094.84557 0.05369
3093.55980 0.05361
3092.27403 0.05377
3090.98826 0.05404
3089.70249 0.05426
3088.41672 0.05430
3087.13095 0.05409
3085.84518 0.05362
3084.55942 0.05305
3083.27365 0.05260
3081.98788 0.05241
3080.70211 0.05245
3079.41634 0.05258
3078.13057 0.05271
3076.84480 0.05285
3075.55903 0.05297
3074.27326 0.05300
3072.98750 0.05290
3071.70173 0.05283
3070.41596 0.05297
3069.13019 0.05328
3067.84442 0.05345
3066.55865 0.05319
3065.27288 0.05261
3063.98711 0.05200
3062.70135 0.05156
3061.41558 0.05130
3060.12981 0.05120
3058.84404 0.05126
3057.55827 0.05133
3056.27250 0.05122
3054.98673 0.05092
3053.70096 0.05064
3052.41519 0.05056
3051.12943 0.05060
3049.84366 0.05055
3048.55789 0.05032
3047.27212 0.05004
3045.98635 0.04993
3044.70058 0.05004
3043.41481 0.05026
3042.12904 0.05044
3040.84328 0.05051
3039.55751 0.05052
3038.27174 0.05055
3036.98597 0.05067
3035.70020 0.05085
3034.41443 0.05091
3033.12866 0.05070
3031.84289 0.05032
3030.55712 0.05003
3029.27136 0.05001
3027.98559 0.05012
3026.69982 0.05018
3025.41405 0.05013
3024.12828 0.05002
3022.84251 0.04985
3021.55674 0.04962
3020.27097 0.04936
3018.98521 0.04918
3017.69944 0.04913
3016.41367 0.04917
3015.12790 0.04917
3013.84213 0.04905
3012.55636 0.04882
3011.27059 0.04855
3009.98482 0.04838
3008.69905 0.04836
3007.41329 0.04845
3006.12752 0.04852
3004.84175 0.04843
3003.55598 0.04823
3002.27021 0.04817
3000.98444 0.04826
2999.69867 0.04796
2998.41290 0.04796
2997.12714 0.04797
2995.84137 0.04809
2994.55560 0.04836
2993.26983 0.04863
2991.98406 0.04872
2990.69829 0.04853
2989.41252 0.04821
2988.12675 0.04796
2986.84098 0.04788
2985.55522 0.04796
2984.26945 0.04818
2982.98368 0.04857
2981.69791 0.04905
2980.41214 0.04951
2979.12637 0.04984
2977.84060 0.04998
2976.55483 0.04990
2975.26907 0.04963
2973.98330 0.04934
2972.69753 0.04927
2971.41176 0.04957
2970.12599 0.05006
2968.84022 0.05048
2967.55445 0.05069
2966.26868 0.05083
2964.98291 0.05109
2963.69715 0.05152
2962.41138 0.05201
2961.12561 0.05243
2959.83984 0.05274
2958.55407 0.05299
2957.26830 0.05320
2955.98253 0.05340
2954.69676 0.05363
2953.41100 0.05389
2952.12523 0.05410
2950.83946 0.05419
2949.55369 0.05412
2948.26792 0.05396
2946.98215 0.05375
2945.69638 0.05348
2944.41061 0.05317
2943.12484 0.05290
2941.83908 0.05279
2940.55331 0.05292
2939.26754 0.05317
2937.98177 0.05334
2936.69600 0.05332
2935.41023 0.05319
2934.12446 0.05315
2932.83869 0.05340
2931.55293 0.05391
2930.26716 0.05443
2928.98139 0.05480
2927.69562 0.05508
2926.40985 0.05539
2925.12408 0.05556
2923.83831 0.05535
2922.55254 0.05484
2921.26677 0.05443
2919.98101 0.05437
2918.69524 0.05445
2917.40947 0.05434
2916.12370 0.05400
2914.83793 0.05354
2913.55216 0.05307
2912.26639 0.05264
2910.98062 0.05237
2909.69486 0.05231
2908.40909 0.05232
2907.12332 0.05217
2905.83755 0.05181
2904.55178 0.05140
2903.26601 0.05115
2901.98024 0.05109
2900.69447 0.05109
2899.40870 0.05101
2898.12294 0.05081
2896.83717 0.05048
2895.55140 0.05006
2894.26563 0.04961
2892.97986 0.04920
2891.69409 0.04879
2890.40832 0.04836
2889.12255 0.04798
2887.83678 0.04777
2886.55102 0.04776
2885.26525 0.04781
2883.97948 0.04786
2882.69371 0.04794
2881.40794 0.04807
2880.12217 0.04816
2878.83640 0.04812
2877.55063 0.04799
2876.26487 0.04799
2874.97910 0.04819
2873.69333 0.04843
2872.40756 0.04854
2871.12179 0.04849
2869.83602 0.04840
2868.55025 0.04831
2867.26448 0.04818
2865.97871 0.04798
2864.69295 0.04778
2863.40718 0.04760
2862.12141 0.04744
2860.83564 0.04728
2859.54987 0.04718
2858.26410 0.04716
2856.97833 0.04722
2855.69256 0.04727
2854.40680 0.04731
2853.12103 0.04735
2851.83526 0.04733
2850.54949 0.04719
2849.26372 0.04688
2847.97795 0.04646
2846.69218 0.04604
2845.40641 0.04570
2844.12064 0.04541
2842.83488 0.04511
2841.54911 0.04474
2840.26334 0.04430
2838.97757 0.04385
2837.69180 0.04344
2836.40603 0.04312
2835.12026 0.04293
2833.83449 0.04285
2832.54873 0.04286
2831.26296 0.04292
2829.97719 0.04295
2828.69142 0.04289
2827.40565 0.04274
2826.11988 0.04258
2824.83411 0.04243
2823.54834 0.04228
2822.26257 0.04211
2820.97681 0.04192
2819.69104 0.04173
2818.40527 0.04158
2817.11950 0.04149
2815.83373 0.04148
2814.54796 0.04156
2813.26219 0.04171
2811.97642 0.04184
2810.69066 0.04181
2809.40489 0.04157
2808.11912 0.04123
2806.83335 0.04091
2805.54758 0.04061
2804.26181 0.04033
2802.97604 0.04011
2801.69027 0.04008
2800.40450 0.04028
2799.11874 0.04056
2797.83297 0.04073
2796.54720 0.04070
2795.26143 0.04058
2793.97566 0.04054
2792.68989 0.04062
2791.40412 0.04071
2790.11835 0.04071
2788.83259 0.04062
2787.54682 0.04050
2786.26105 0.04033
2784.97528 0.04007
2783.68951 0.03974
2782.40374 0.03946
2781.11797 0.03934
2779.83220 0.03938
2778.54643 0.03943
2777.26067 0.03940
2775.97490 0.03930
2774.68913 0.03919
2773.40336 0.03910
2772.11759 0.03902
2770.83182 0.03905
2769.54605 0.03932
2768.26028 0.03977
2766.97452 0.04013
2765.68875 0.04013
2764.40298 0.03979
2763.11721 0.03938
2761.83144 0.03906
2760.54567 0.03883
2759.25990 0.03862
2757.97413 0.03843
2756.68836 0.03834
2755.40260 0.03839
2754.11683 0.03857
2752.83106 0.03879
2751.54529 0.03892
2750.25952 0.03888
2748.97375 0.03873
2747.68798 0.03855
2746.40221 0.03834
2745.11645 0.03807
2743.83068 0.03782
2742.54491 0.03777
2741.25914 0.03796
2739.97337 0.03825
2738.68760 0.03844
2737.40183 0.03846
2736.11606 0.03832
2734.83029 0.03805
2733.54453 0.03778
2732.25876 0.03768
2730.97299 0.03780
2729.68722 0.03792
2728.40145 0.03784
2727.11568 0.03756
2725.82991 0.03725
2724.54414 0.03703
2723.25838 0.03689
2721.97261 0.03682
2720.68684 0.03681
2719.40107 0.03688
2718.11530 0.03702
2716.82953 0.03713
2715.54376 0.03711
2714.25799 0.03696
2712.97222 0.03676
2711.68646 0.03656
2710.40069 0.03635
2709.11492 0.03618
2707.82915 0.03617
2706.54338 0.03642
2705.25761 0.03683
2703.97184 0.03718
2702.68607 0.03728
2701.40031 0.03710
2700.11454 0.03677
2698.82877 0.03642
2697.54300 0.03614
2696.25723 0.03601
2694.97146 0.03601
2693.68569 0.03605
2692.39992 0.03600
2691.11415 0.03586
2689.82839 0.03573
2688.54262 0.03569
2687.25685 0.03571
2685.97108 0.03567
2684.68531 0.03553
2683.39954 0.03538
2682.11377 0.03531
2680.82800 0.03531
2679.54224 0.03532
2678.25647 0.03531
2676.97070 0.03522
2675.68493 0.03510
2674.39916 0.03505
2673.11339 0.03519
2671.82762 0.03550
2670.54185 0.03584
2669.25608 0.03605
2667.97032 0.03598
2666.68455 0.03560
2665.39878 0.03506
2664.11301 0.03470
2662.82724 0.03475
2661.54147 0.03509
2660.25570 0.03546
2658.96993 0.03568
2657.68417 0.03579
2656.39840 0.03587
2655.11263 0.03592
2653.82686 0.03586
2652.54109 0.03568
2651.25532 0.03541
2649.96955 0.03515
2648.68378 0.03497
2647.39801 0.03483
2646.11225 0.03468
2644.82648 0.03451
2643.54071 0.03434
2642.25494 0.03421
2640.96917 0.03410
2639.68340 0.03397
2638.39763 0.03383
2637.11186 0.03375
2635.82609 0.03375
2634.54033 0.03381
2633.25456 0.03387
2631.96879 0.03389
2630.68302 0.03386
2629.39725 0.03385
2628.11148 0.03389
2626.82571 0.03392
2625.53994 0.03385
2624.25418 0.03363
2622.96841 0.03330
2621.68264 0.03294
2620.39687 0.03260
2619.11110 0.03235
2617.82533 0.03217
2616.53956 0.03204
2615.25379 0.03203
2613.96802 0.03219
2612.68226 0.03239
2611.39649 0.03237
2610.11072 0.03207
2608.82495 0.03165
2607.53918 0.03138
2606.25341 0.03135
2604.96764 0.03147
2603.68187 0.03161
2602.39611 0.03163
2601.11034 0.03145
2599.82457 0.03113
2598.53880 0.03082
2597.25303 0.03058
2595.96726 0.03041
2594.68149 0.03030
2593.39572 0.03031
2592.10995 0.03037
2590.82419 0.03034
2589.53842 0.03015
2588.25265 0.02996
2586.96688 0.02999
2585.68111 0.03026
2584.39534 0.03059
2583.10957 0.03077
2581.82380 0.03069
2580.53804 0.03039
2579.25227 0.03008
2577.96650 0.02996
2576.68073 0.03001
2575.39496 0.02999
2574.10919 0.02974
2572.82342 0.02939
2571.53765 0.02923
2570.25188 0.02934
2568.96612 0.02953
2567.68035 0.02963
2566.39458 0.02964
2565.10881 0.02952
2563.82304 0.02918
2562.53727 0.02857
2561.25150 0.02792
2559.96573 0.02755
2558.67997 0.02753
2557.39420 0.02771
2556.10843 0.02797
2554.82266 0.02829
2553.53689 0.02864
2552.25112 0.02882
2550.96535 0.02865
2549.67958 0.02821
2548.39381 0.02778
2547.10805 0.02759
2545.82228 0.02764
2544.53651 0.02775
2543.25074 0.02782
2541.96497 0.02790
2540.67920 0.02803
2539.39343 0.02814
2538.10766 0.02817
2536.82190 0.02813
2535.53613 0.02812
2534.25036 0.02820
2532.96459 0.02832
2531.67882 0.02832
2530.39305 0.02806
2529.10728 0.02757
2527.82151 0.02712
2526.53574 0.02699
2525.24998 0.02723
2523.96421 0.02760
2522.67844 0.02777
2521.39267 0.02768
2520.10690 0.02743
2518.82113 0.02718
2517.53536 0.02702
2516.24959 0.02698
2514.96383 0.02708
2513.67806 0.02726
2512.39229 0.02752
2511.10652 0.02779
2509.82075 0.02793
2508.53498 0.02772
2507.24921 0.02715
2505.96344 0.02655
2504.67767 0.02627
2503.39191 0.02631
2502.10614 0.02638
2500.82037 0.02633
2499.53460 0.02626
2498.24883 0.02630
2496.96306 0.02646
2495.67729 0.02659
2494.39152 0.02665
2493.10576 0.02667
2491.81999 0.02676
2490.53422 0.02694
2489.24845 0.02710
2487.96268 0.02714
2486.67691 0.02703
2485.39114 0.02688
2484.10537 0.02683
2482.81960 0.02691
2481.53384 0.02703
2480.24807 0.02708
2478.96230 0.02705
2477.67653 0.02695
2476.39076 0.02678
2475.10499 0.02657
2473.81922 0.02646
2472.53345 0.02657
2471.24769 0.02681
2469.96192 0.02691
2468.67615 0.02666
2467.39038 0.02611
2466.10461 0.02561
2464.81884 0.02546
2463.53307 0.02564
2462.24730 0.02586
2460.96153 0.02590
2459.67577 0.02581
2458.39000 0.02573
2457.10423 0.02573
2455.81846 0.02575
2454.53269 0.02579
2453.24692 0.02590
2451.96115 0.02615
2450.67538 0.02652
2449.38962 0.02690
2448.10385 0.02713
2446.81808 0.02714
2445.53231 0.02697
2444.24654 0.02671
2442.96077 0.02644
2441.67500 0.02624
2440.38923 0.02617
2439.10346 0.02627
2437.81770 0.02645
2436.53193 0.02655
2435.24616 0.02650
2433.96039 0.02639
2432.67462 0.02635
2431.38885 0.02641
2430.10308 0.02648
2428.81731 0.02650
2427.53155 0.02646
2426.24578 0.02639
2424.96001 0.02629
2423.67424 0.02609
2422.38847 0.02570
2421.10270 0.02521
2419.81693 0.02480
2418.53116 0.02461
2417.24539 0.02464
2415.95963 0.02486
2414.67386 0.02527
2413.38809 0.02581
2412.10232 0.02627
2410.81655 0.02647
2409.53078 0.02636
2408.24501 0.02598
2406.95924 0.02537
2405.67347 0.02467
2404.38771 0.02420
2403.10194 0.02425
2401.81617 0.02468
2400.53040 0.02508
2399.24463 0.02585
2397.95886 0.02509
2396.67309 0.02457
2395.38732 0.02466
2394.10156 0.02494
2392.81579 0.02516
2391.53002 0.02520
2390.24425 0.02509
2388.95848 0.02492
2387.67271 0.02481
2386.38694 0.02488
2385.10117 0.02511
2383.81540 0.02532
2382.52964 0.02536
2381.24387 0.02520
2379.95810 0.02498
2378.67233 0.02489
2377.38656 0.02493
2376.10079 0.02500
2374.81502 0.02500
2373.52925 0.02500
2372.24349 0.02507
2370.95772 0.02521
2369.67195 0.02534
2368.38618 0.02546
2367.10041 0.02558
2365.81464 0.02566
2364.52887 0.02570
2363.24310 0.02580
2361.95733 0.02606
2360.67157 0.02646
2359.38580 0.02672
2358.10003 0.02664
2356.81426 0.02632
2355.52849 0.02599
2354.24272 0.02584
2352.95695 0.02590
2351.67118 0.02615
2350.38542 0.02637
2349.09965 0.02639
2347.81388 0.02633
2346.52811 0.02645
2345.24234 0.02661
2343.95657 0.02647
2342.67080 0.02610
2341.38503 0.02614
2340.09926 0.02659
2338.81350 0.02666
2337.52773 0.02628
2336.24196 0.02627
2334.95619 0.02638
2333.67042 0.02582
2332.38465 0.02497
2331.09888 0.02487
2329.81311 0.02489
2328.52735 0.02464
2327.24158 0.02512
2325.95581 0.02619
2324.67004 0.02700
2323.38427 0.02771
2322.09850 0.02836
2320.81273 0.02843
2319.52696 0.02832
2318.24119 0.02812
2316.95543 0.02768
2315.66966 0.02729
2314.38389 0.02694
2313.09812 0.02654
2311.81235 0.02628
2310.52658 0.02602
2309.24081 0.02573
2307.95504 0.02540
2306.66928 0.02497
2305.38351 0.02463
2304.09774 0.02450
2302.81197 0.02460
2301.52620 0.02479
2300.24043 0.02477
2298.95466 0.02450
2297.66889 0.02410
2296.38312 0.02379
2295.09736 0.02371
2293.81159 0.02383
2292.52582 0.02394
2291.24005 0.02387
2289.95428 0.02369
2288.66851 0.02360
2287.38274 0.02367
2286.09697 0.02373
2284.81121 0.02361
2283.52544 0.02334
2282.23967 0.02313
2280.95390 0.02313
2279.66813 0.02331
2278.38236 0.02346
2277.09659 0.02340
2275.81082 0.02318
2274.52505 0.02300
2273.23929 0.02293
2271.95352 0.02283
2270.66775 0.02252
2269.38198 0.02201
2268.09621 0.02144
2266.81044 0.02095
2265.52467 0.02061
2264.23890 0.02049
2262.95314 0.02050
2261.66737 0.02032
2260.38160 0.01971
2259.09583 0.01886
2257.81006 0.01826
2256.52429 0.01822
2255.23852 0.01859
2253.95275 0.01913
2252.66698 0.01963
2251.38122 0.01976
2250.09545 0.01979
2248.80968 0.02087
2247.52391 0.02024
2246.23814 0.01944
2244.95237 0.01890
2243.66660 0.01871
2242.38083 0.01871
2241.09507 0.01868
2239.80930 0.01846
2238.52353 0.01807
2237.23776 0.01779
2235.95199 0.01801
2234.66622 0.01881
2233.38045 0.01979
2232.09468 0.02040
2230.80891 0.02043
2229.52315 0.02001
2228.23738 0.01922
2226.95161 0.01799
2225.66584 0.01635
2224.38007 0.01466
2223.09430 0.01348
2221.80853 0.01322
2220.52276 0.01391
2219.23700 0.01524
2217.95123 0.01677
2216.66546 0.01806
2215.37969 0.01872
2214.09392 0.01865
2212.80815 0.01812
2211.52238 0.01758
2210.23661 0.01737
2208.95084 0.01762
2207.66508 0.01813
2206.37931 0.01845
2205.09354 0.01829
2203.80777 0.01776
2202.52200 0.01713
2201.23623 0.01633
2199.95046 0.01522
2198.66469 0.01404
2197.37893 0.01323
2196.09316 0.01279
2194.80739 0.01251
2193.52162 0.01250
2192.23585 0.01310
2190.95008 0.01426
2189.66431 0.01541
2188.37854 0.01594
2187.09277 0.01559
2185.80701 0.01454
2184.52124 0.01340
2183.23547 0.01289
2181.94970 0.01326
2180.66393 0.01406
2179.37816 0.01463
2178.09239 0.01461
2176.80662 0.01400
2175.52085 0.01290
2174.23509 0.01153
2172.94932 0.01037
2171.66355 0.00999
2170.37778 0.01062
2169.09201 0.01187
2167.80624 0.01291
2166.52047 0.01297
2165.23470 0.01178
2163.94894 0.00969
2162.66317 0.00739
2161.37740 0.00536
2160.09163 0.00384
2158.80586 0.00314
2157.52009 0.00364
2156.23432 0.00511
2154.94855 0.00656
2153.66278 0.00717
2152.37702 0.00719
2151.09125 0.00746
2149.80548 0.00839
2148.51971 0.00963
2147.23394 0.01075
2145.94817 0.01159
2144.66240 0.01202
2143.37663 0.01186
2142.09087 0.01128
2140.80510 0.01087
2139.51933 0.01099
2138.23356 0.01140
2136.94779 0.01172
2135.66202 0.01181
2134.37625 0.01173
2133.09048 0.01140
2131.80471 0.01084
2130.51895 0.01038
2129.23318 0.01042
2127.94741 0.01104
2126.66164 0.01197
2125.37587 0.01286
2124.09010 0.01344
2122.80433 0.01353
2121.51856 0.01314
2120.23280 0.01260
2118.94703 0.01246
2117.66126 0.01302
2116.37549 0.01401
2115.08972 0.01480
2113.80395 0.01499
2112.51818 0.01482
2111.23241 0.01476
2109.94664 0.01498
2108.66088 0.01524
2107.37511 0.01528
2106.08934 0.01520
2104.80357 0.01518
2103.51780 0.01523
2102.23203 0.01514
2100.94626 0.01481
2099.66049 0.01488
2098.37473 0.01498
2097.08896 0.01463
2095.80319 0.01405
2094.51742 0.01357
2093.23165 0.01346
2091.94588 0.01368
2090.66011 0.01387
2089.37434 0.01367
2088.08857 0.01310
2086.80281 0.01249
2085.51704 0.01213
2084.23127 0.01209
2082.94550 0.01232
2081.65973 0.01279
2080.37396 0.01343
2079.08819 0.01397
2077.80242 0.01401
2076.51666 0.01340
2075.23089 0.01250
2073.94512 0.01194
2072.65935 0.01211
2071.37358 0.01272
2070.08781 0.01315
2068.80204 0.01307
2067.51627 0.01269
2066.23050 0.01236
2064.94474 0.01216
2063.65897 0.01194
2062.37320 0.01156
2061.08743 0.01115
2059.80166 0.01098
2058.51589 0.01124
2057.23012 0.01178
2055.94435 0.01219
2054.65859 0.01221
2053.37282 0.01194
2052.08705 0.01166
2050.80128 0.01145
2049.51551 0.01123
2048.22974 0.01102
2046.94397 0.01085
2045.65820 0.01051
2044.37243 0.00981
2043.08667 0.00896
2041.80090 0.00858
2040.51513 0.00912
2039.22936 0.01035
2037.94359 0.01148
2036.65782 0.01193
2035.37205 0.01173
2034.08628 0.01126
2032.80052 0.01057
2031.51475 0.00938
2030.22898 0.00769
2028.94321 0.00610
2027.65744 0.00538
2026.37167 0.00570
2025.08590 0.00651
2023.80013 0.00708
2022.51436 0.00702
2021.22860 0.00635
2019.94283 0.00544
2018.65706 0.00491
2017.37129 0.00526
2016.08552 0.00650
2014.79975 0.00800
2013.51398 0.00903
2012.22821 0.00929
2010.94245 0.00896
2009.65668 0.00838
2008.37091 0.00780
2007.08514 0.00751
2005.79937 0.00764
2004.51360 0.00794
2003.22783 0.00805
2001.94206 0.00797
2000.65629 0.00812
1999.37053 0.00872
1998.08476 0.00944
1996.79899 0.00980
1995.51322 0.00977
1994.22745 0.00975
1992.94168 0.00992
1991.65591 0.01000
1990.37014 0.00972
1989.08438 0.00931
1987.79861 0.00928
1986.51284 0.00980
1985.22707 0.01057
1983.94130 0.01112
1982.65553 0.01118
1981.36976 0.01072
1980.08399 0.00993
1978.79822 0.00909
1977.51246 0.00865
1976.22669 0.00886
1974.94092 0.00951
1973.65515 0.01014
1972.36938 0.01054
1971.08361 0.01101
1969.79784 0.01184
1968.51207 0.01277
1967.22631 0.01318
1965.94054 0.01287
1964.65477 0.01235
1963.36900 0.01224
1962.08323 0.01259
1960.79746 0.01296
1959.51169 0.01292
1958.22592 0.01237
1956.94015 0.01157
1955.65439 0.01085
1954.36862 0.01054
1953.08285 0.01075
1951.79708 0.01126
1950.51131 0.01169
1949.22554 0.01176
1947.93977 0.01156
1946.65400 0.01141
1945.36823 0.01159
1944.08247 0.01210
1942.79670 0.01267
1941.51093 0.01305
1940.22516 0.01322
1938.93939 0.01329
1937.65362 0.01331
1936.36785 0.01323
1935.08208 0.01304
1933.79632 0.01281
1932.51055 0.01266
1931.22478 0.01268
1929.93901 0.01299
1928.65324 0.01355
1927.36747 0.01410
1926.08170 0.01433
1924.79593 0.01421
1923.51016 0.01405
1922.22440 0.01417
1920.93863 0.01455
1919.65286 0.01490
1918.36709 0.01500
1917.08132 0.01489
1915.79555 0.01472
1914.50978 0.01463
1913.22401 0.01469
1911.93825 0.01485
1910.65248 0.01502
1909.36671 0.01508
1908.08094 0.01492
1906.79517 0.01450
1905.50940 0.01401
1904.22363 0.01371
1902.93786 0.01372
1901.65209 0.01390
1900.36633 0.01401
1899.08056 0.01401
1897.79479 0.01406
1896.50902 0.01432
1895.22325 0.01471
1893.93748 0.01505
1892.65171 0.01522
1891.36594 0.01519
1890.08018 0.01507
1888.79441 0.01497
1887.50864 0.01490
1886.22287 0.01480
1884.93710 0.01464
1883.65133 0.01449
1882.36556 0.01443
1881.07979 0.01450
1879.79402 0.01469
1878.50826 0.01492
1877.22249 0.01510
1875.93672 0.01517
1874.65095 0.01517
1873.36518 0.01516
1872.07941 0.01517
1870.79364 0.01516
1869.50787 0.01509
1868.22211 0.01498
1866.93634 0.01487
1865.65057 0.01478
1864.36480 0.01470
1863.07903 0.01465
1861.79326 0.01464
1860.50749 0.01464
1859.22172 0.01458
1857.93595 0.01442
1856.65019 0.01428
1855.36442 0.01428
1854.07865 0.01448
1852.79288 0.01477
1851.50711 0.01504
1850.22134 0.01521
1848.93557 0.01530
1847.64980 0.01534
1846.36404 0.01535
1845.07827 0.01533
1843.79250 0.01531
1842.50673 0.01530
1841.22096 0.01531
1839.93519 0.01534
1838.64942 0.01538
1837.36365 0.01540
1836.07788 0.01539
1834.79212 0.01540
1833.50635 0.01544
1832.22058 0.01548
1830.93481 0.01549
1829.64904 0.01548
1828.36327 0.01547
1827.07750 0.01548
1825.79173 0.01550
1824.50597 0.01555
1823.22020 0.01561
1821.93443 0.01563
1820.64866 0.01557
1819.36289 0.01540
1818.07712 0.01511
1816.79135 0.01471
1815.50558 0.01432
1814.21981 0.01403
1812.93405 0.01394
1811.64828 0.01406
1810.36251 0.01431
1809.07674 0.01458
1807.79097 0.01479
1806.50520 0.01498
1805.21943 0.01520
1803.93366 0.01540
1802.64790 0.01550
1801.36213 0.01544
1800.07636 0.01528
1798.79059 0.01515
1797.50482 0.01516
1796.21905 0.01530
1794.93328 0.01544
1793.64751 0.01549
1792.36174 0.01551
1791.07598 0.01559
1789.79021 0.01575
1788.50444 0.01588
1787.21867 0.01590
1785.93290 0.01585
1784.64713 0.01581
1783.36136 0.01582
1782.07559 0.01583
1780.78983 0.01584
1779.50406 0.01585
1778.21829 0.01590
1776.93252 0.01598
1775.64675 0.01603
1774.36098 0.01597
1773.07521 0.01581
1771.78944 0.01563
1770.50367 0.01552
1769.21791 0.01552
1767.93214 0.01563
1766.64637 0.01586
1765.36060 0.01615
1764.07483 0.01642
1762.78906 0.01660
1761.50329 0.01667
1760.21752 0.01665
1758.93176 0.01655
1757.64599 0.01644
1756.36022 0.01641
1755.07445 0.01646
1753.78868 0.01650
1752.50291 0.01650
1751.21714 0.01649
1749.93137 0.01655
1748.64560 0.01665
1747.35984 0.01674
1746.07407 0.01679
1744.78830 0.01680
1743.50253 0.01686
1742.21676 0.01696
1740.93099 0.01707
1739.64522 0.01714
1738.35945 0.01724
1737.07369 0.01738
1735.78792 0.01753
1734.50215 0.01769
1733.21638 0.01781
1731.93061 0.01785
1730.64484 0.01778
1729.35907 0.01769
1728.07330 0.01767
1726.78753 0.01774
1725.50177 0.01787
1724.21600 0.01804
1722.93023 0.01828
1721.64446 0.01861
1720.35869 0.01897
1719.07292 0.01930
1717.78715 0.01956
1716.50138 0.01978
1715.21561 0.02000
1713.92985 0.02025
1712.64408 0.02058
1711.35831 0.02101
1710.07254 0.02150
1708.78677 0.02205
1707.50100 0.02261
1706.21523 0.02315
1704.92946 0.02368
1703.64370 0.02422
1702.35793 0.02475
1701.07216 0.02531
1699.78639 0.02598
1698.50062 0.02672
1697.21485 0.02743
1695.92908 0.02808
1694.64331 0.02874
1693.35754 0.02933
1692.07178 0.02983
1690.78601 0.03036
1689.50024 0.03103
1688.21447 0.03185
1686.92870 0.03270
1685.64293 0.03349
1684.35716 0.03422
1683.07139 0.03495
1681.78563 0.03566
1680.49986 0.03637
1679.21409 0.03710
1677.92832 0.03782
1676.64255 0.03848
1675.35678 0.03914
1674.07101 0.03987
1672.78524 0.04066
1671.49947 0.04141
1670.21371 0.04211
1668.92794 0.04277
1667.64217 0.04344
1666.35640 0.04414
1665.07063 0.04488
1663.78486 0.04564
1662.49909 0.04638
1661.21332 0.04705
1659.92756 0.04762
1658.64179 0.04818
1657.35602 0.04881
1656.07025 0.04954
1654.78448 0.05024
1653.49871 0.05085
1652.21294 0.05136
1650.92717 0.05173
1649.64140 0.05194
1648.35564 0.05207
1647.06987 0.05224
1645.78410 0.05249
1644.49833 0.05270
1643.21256 0.05278
1641.92679 0.05271
1640.64102 0.05261
1639.35525 0.05256
1638.06949 0.05258
1636.78372 0.05261
1635.49795 0.05259
1634.21218 0.05248
1632.92641 0.05229
1631.64064 0.05208
1630.35487 0.05195
1629.06910 0.05192
1627.78333 0.05193
1626.49757 0.05193
1625.21180 0.05189
1623.92603 0.05181
1622.64026 0.05171
1621.35449 0.05162
1620.06872 0.05153
1618.78295 0.05144
1617.49718 0.05137
1616.21142 0.05140
1614.92565 0.05153
1613.63988 0.05168
1612.35411 0.05181
1611.06834 0.05192
1609.78257 0.05200
1608.49680 0.05206
1607.21103 0.05212
1605.92526 0.05219
1604.63950 0.05230
1603.35373 0.05248
1602.06796 0.05271
1600.78219 0.05295
1599.49642 0.05316
1598.21065 0.05335
1596.92488 0.05356
1595.63911 0.05384
1594.35335 0.05417
1593.06758 0.05447
1591.78181 0.05470
1590.49604 0.05486
1589.21027 0.05499
1587.92450 0.05512
1586.63873 0.05526
1585.35296 0.05536
1584.06719 0.05543
1582.78143 0.05554
1581.49566 0.05574
1580.20989 0.05607
1578.92412 0.05647
1577.63835 0.05680
1576.35258 0.05705
1575.06681 0.05726
1573.78104 0.05748
1572.49528 0.05768
1571.20951 0.05787
1569.92374 0.05806
1568.63797 0.05824
1567.35220 0.05840
1566.06643 0.05852
1564.78066 0.05863
1563.49489 0.05875
1562.20912 0.05881
1560.92336 0.05880
1559.63759 0.05875
1558.35182 0.05873
1557.06605 0.05874
1555.78028 0.05869
1554.49451 0.05857
1553.20874 0.05843
1551.92297 0.05825
1550.63721 0.05801
1549.35144 0.05775
1548.06567 0.05750
1546.77990 0.05727
1545.49413 0.05704
1544.20836 0.05678
1542.92259 0.05647
1541.63682 0.05605
1540.35105 0.05553
1539.06529 0.05500
1537.77952 0.05454
1536.49375 0.05409
1535.20798 0.05363
1533.92221 0.05318
1532.63644 0.05281
1531.35067 0.05252
1530.06490 0.05231
1528.77914 0.05219
1527.49337 0.05214
1526.20760 0.05215
1524.92183 0.05220
1523.63606 0.05224
1522.35029 0.05230
1521.06452 0.05243
1519.77875 0.05265
1518.49298 0.05294
1517.20722 0.05326
1515.92145 0.05363
1514.63568 0.05406
1513.34991 0.05454
1512.06414 0.05513
1510.77837 0.05585
1509.49260 0.05662
1508.20683 0.05732
1506.92107 0.05792
1505.63530 0.05847
1504.34953 0.05902
1503.06376 0.05954
1501.77799 0.06005
1500.49222 0.06057
1499.20645 0.06107
1497.92068 0.06150
1496.63491 0.06184
1495.34915 0.06215
1494.06338 0.06245
1492.77761 0.06275
1491.49184 0.06309
1490.20607 0.06354
1488.92030 0.06411
1487.63453 0.06478
1486.34876 0.06548
1485.06299 0.06618
1483.77723 0.06687
1482.49146 0.06759
1481.20569 0.06834
1479.91992 0.06915
1478.63415 0.07003
1477.34838 0.07096
1476.06261 0.07189
1474.77684 0.07271
1473.49108 0.07336
1472.20531 0.07390
1470.91954 0.07439
1469.63377 0.07484
1468.34800 0.07526
1467.06223 0.07567
1465.77646 0.07610
1464.49069 0.07658
1463.20492 0.07707
1461.91916 0.07758
1460.63339 0.07810
1459.34762 0.07868
1458.06185 0.07927
1456.77608 0.07984
1455.49031 0.08031
1454.20454 0.08066
1452.91877 0.08093
1451.63301 0.08123
1450.34724 0.08158
1449.06147 0.08189
1447.77570 0.08208
1446.48993 0.08217
1445.20416 0.08219
1443.91839 0.08221
1442.63262 0.08228
1441.34685 0.08241
1440.06109 0.08259
1438.77532 0.08274
1437.48955 0.08288
1436.20378 0.08308
1434.91801 0.08342
1433.63224 0.08394
1432.34647 0.08465
1431.06070 0.08552
1429.77494 0.08649
1428.48917 0.08750
1427.20340 0.08853
1425.91763 0.08960
1424.63186 0.09074
1423.34609 0.09192
1422.06032 0.09307
1420.77455 0.09408
1419.48878 0.09497
1418.20302 0.09580
1416.91725 0.09654
1415.63148 0.09715
1414.34571 0.09762
1413.05994 0.09794
1411.77417 0.09810
1410.48840 0.09807
1409.20263 0.09786
1407.91687 0.09748
1406.63110 0.09692
1405.34533 0.09620
1404.05956 0.09533
1402.77379 0.09430
1401.48802 0.09311
1400.20225 0.09181
1398.91648 0.09045
1397.63071 0.08908
1396.34495 0.08769
1395.05918 0.08624
1393.77341 0.08477
1392.48764 0.08329
1391.20187 0.08184
1389.91610 0.08041
1388.63033 0.07897
1387.34456 0.07748
1386.05880 0.07593
1384.77303 0.07434
1383.48726 0.07274
1382.20149 0.07119
1380.91572 0.06969
1379.62995 0.06821
1378.34418 0.06675
1377.05841 0.06529
1375.77264 0.06381
1374.48688 0.06230
1373.20111 0.06079
1371.91534 0.05929
1370.62957 0.05784
1369.34380 0.05648
1368.05803 0.05524
1366.77226 0.05407
1365.48649 0.05295
1364.20073 0.05185
1362.91496 0.05080
1361.62919 0.04978
1360.34342 0.04880
1359.05765 0.04789
1357.77188 0.04711
1356.48611 0.04643
1355.20034 0.04577
1353.91457 0.04505
1352.62881 0.04430
1351.34304 0.04363
1350.05727 0.04310
1348.77150 0.04266
1347.48573 0.04221
1346.19996 0.04169
1344.91419 0.04115
1343.62842 0.04063
1342.34266 0.04014
1341.05689 0.03966
1339.77112 0.03917
1338.48535 0.03869
1337.19958 0.03823
1335.91381 0.03780
1334.62804 0.03739
1333.34227 0.03701
1332.05650 0.03668
1330.77074 0.03636
1329.48497 0.03603
1328.19920 0.03567
1326.91343 0.03529
1325.62766 0.03490
1324.34189 0.03454
1323.05612 0.03419
1321.77035 0.03389
1320.48459 0.03360
1319.19882 0.03330
1317.91305 0.03299
1316.62728 0.03268
1315.34151 0.03239
1314.05574 0.03212
1312.76997 0.03185
1311.48420 0.03158
1310.19843 0.03131
1308.91267 0.03103
1307.62690 0.03074
1306.34113 0.03046
1305.05536 0.03017
1303.76959 0.02990
1302.48382 0.02965
1301.19805 0.02940
1299.91228 0.02914
1298.62652 0.02885
1297.34075 0.02855
1296.05498 0.02827
1294.76921 0.02805
1293.48344 0.02788
1292.19767 0.02776
1290.91190 0.02769
1289.62613 0.02763
1288.34036 0.02755
1287.05460 0.02743
1285.76883 0.02728
1284.48306 0.02713
1283.19729 0.02701
1281.91152 0.02693
1280.62575 0.02687
1279.33998 0.02678
1278.05421 0.02663
1276.76845 0.02647
1275.48268 0.02633
1274.19691 0.02620
1272.91114 0.02606
1271.62537 0.02589
1270.33960 0.02573
1269.05383 0.02563
1267.76806 0.02560
1266.48229 0.02563
1265.19653 0.02564
1263.91076 0.02559
1262.62499 0.02551
1261.33922 0.02543
1260.05345 0.02537
1258.76768 0.02534
1257.48191 0.02530
1256.19614 0.02527
1254.91037 0.02524
1253.62461 0.02523
1252.33884 0.02522
1251.05307 0.02519
1249.76730 0.02512
1248.48153 0.02504
1247.19576 0.02501
1245.90999 0.02504
1244.62422 0.02513
1243.33846 0.02520
1242.05269 0.02520
1240.76692 0.02512
1239.48115 0.02498
1238.19538 0.02484
1236.90961 0.02472
1235.62384 0.02462
1234.33807 0.02455
1233.05230 0.02454
1231.76654 0.02457
1230.48077 0.02460
1229.19500 0.02458
1227.90923 0.02449
1226.62346 0.02436
1225.33769 0.02426
1224.05192 0.02419
1222.76615 0.02413
1221.48039 0.02404
1220.19462 0.02390
1218.90885 0.02374
1217.62308 0.02360
1216.33731 0.02351
1215.05154 0.02347
1213.76577 0.02346
1212.48000 0.02349
1211.19423 0.02355
1209.90847 0.02361
1208.62270 0.02368
1207.33693 0.02375
1206.05116 0.02380
1204.76539 0.02386
1203.47962 0.02391
1202.19385 0.02390
1200.90808 0.02383
1199.62232 0.02395
1198.33655 0.02404
1197.05078 0.02412
1195.76501 0.02418
1194.47924 0.02423
1193.19347 0.02427
1191.90770 0.02430
1190.62193 0.02429
1189.33616 0.02426
1188.05040 0.02422
1186.76463 0.02416
1185.47886 0.02408
1184.19309 0.02399
1182.90732 0.02393
1181.62155 0.02392
1180.33578 0.02393
1179.05001 0.02391
1177.76425 0.02386
1176.47848 0.02384
1175.19271 0.02390
1173.90694 0.02402
1172.62117 0.02415
1171.33540 0.02423
1170.04963 0.02425
1168.76386 0.02425
1167.47809 0.02429
1166.19233 0.02438
1164.90656 0.02451
1163.62079 0.02464
1162.33502 0.02475
1161.04925 0.02482
1159.76348 0.02487
1158.47771 0.02495
1157.19194 0.02512
1155.90618 0.02541
1154.62041 0.02573
1153.33464 0.02601
1152.04887 0.02621
1150.76310 0.02640
1149.47733 0.02662
1148.19156 0.02687
1146.90579 0.02716
1145.62002 0.02751
1144.33426 0.02794
1143.04849 0.02847
1141.76272 0.02908
1140.47695 0.02976
1139.19118 0.03050
1137.90541 0.03131
1136.61964 0.03225
1135.33387 0.03336
1134.04811 0.03462
1132.76234 0.03596
1131.47657 0.03736
1130.19080 0.03886
1128.90503 0.04059
1127.61926 0.04261
1126.33349 0.04489
1125.04772 0.04734
1123.76195 0.04986
1122.47619 0.05243
1121.19042 0.05508
1119.90465 0.05781
1118.61888 0.06060
1117.33311 0.06342
1116.04734 0.06627
1114.76157 0.06915
1113.47580 0.07205
1112.19004 0.07489
1110.90427 0.07759
1109.61850 0.08017
1108.33273 0.08269
1107.04696 0.08518
1105.76119 0.08763
1104.47542 0.09004
1103.18965 0.09239
1101.90388 0.09465
1100.61812 0.09682
1099.33235 0.09895
1098.04658 0.10107
1096.76081 0.10316
1095.47504 0.10512
1094.18927 0.10687
1092.90350 0.10840
1091.61773 0.10977
1090.33197 0.11111
1089.04620 0.11249
1087.76043 0.11392
1086.47466 0.11535
1085.18889 0.11674
1083.90312 0.11812
1082.61735 0.11955
1081.33158 0.12116
1080.04581 0.12297
1078.76005 0.12498
1077.47428 0.12709
1076.18851 0.12925
1074.90274 0.13143
1073.61697 0.13366
1072.33120 0.13599
1071.04543 0.13842
1069.75966 0.14096
1068.47390 0.14360
1067.18813 0.14634
1065.90236 0.14913
1064.61659 0.15195
1063.33082 0.15477
1062.04505 0.15763
1060.75928 0.16052
1059.47351 0.16340
1058.18774 0.16620
1056.90198 0.16890
1055.61621 0.17151
1054.33044 0.17409
1053.04467 0.17673
1051.75890 0.17946
1050.47313 0.18230
1049.18736 0.18522
1047.90159 0.18817
1046.61583 0.19112
1045.33006 0.19405
1044.04429 0.19704
1042.75852 0.20011
1041.47275 0.20327
1040.18698 0.20644
1038.90121 0.20958
1037.61544 0.21265
1036.32967 0.21564
1035.04391 0.21856
1033.75814 0.22137
1032.47237 0.22402
1031.18660 0.22643
1029.90083 0.22857
1028.61506 0.23046
1027.32929 0.23214
1026.04352 0.23364
1024.75775 0.23491
1023.47199 0.23589
1022.18622 0.23651
1020.90045 0.23674
1019.61468 0.23655
1018.32891 0.23594
1017.04314 0.23489
1015.75737 0.23346
1014.47160 0.23172
1013.18584 0.22961
1011.90007 0.22704
1010.61430 0.22396
1009.32853 0.22048
1008.04276 0.21674
1006.75699 0.21275
1005.47122 0.20845
1004.18545 0.20374
1002.89968 0.19863
1001.61392 0.19323
1000.32815 0.18769
999.04238 0.18211
997.75661 0.17656
996.47084 0.17105
995.18507 0.16558
993.89930 0.16010
992.61353 0.15454
991.32777 0.14895
990.04200 0.14345
988.75623 0.13824
987.47046 0.13336
986.18469 0.12871
984.89892 0.12419
983.61315 0.11975
982.32738 0.11548
981.04161 0.11143
979.75585 0.10763
978.47008 0.10409
977.18431 0.10083
975.89854 0.09791
974.61277 0.09536
973.32700 0.09319
972.04123 0.09142
970.75546 0.09013
969.46970 0.08941
968.18393 0.08927
966.89816 0.08963
965.61239 0.09026
964.32662 0.09087
963.04085 0.09127
961.75508 0.09134
960.46931 0.09100
959.18354 0.09021
957.89778 0.08893
956.61201 0.08725
955.32624 0.08536
954.04047 0.08342
952.75470 0.08150
951.46893 0.07957
950.18316 0.07759
948.89739 0.07556
947.61163 0.07353
946.32586 0.07159
945.04009 0.06980
943.75432 0.06815
942.46855 0.06659
941.18278 0.06510
939.89701 0.06366
938.61124 0.06227
937.32547 0.06091
936.03971 0.05961
934.75394 0.05840
933.46817 0.05731
932.18240 0.05634
930.89663 0.05546
929.61086 0.05461
928.32509 0.05379
927.03932 0.05298
925.75356 0.05218
924.46779 0.05143
923.18202 0.05080
921.89625 0.05026
920.61048 0.04972
919.32471 0.04909
918.03894 0.04835
916.75317 0.04759
915.46740 0.04695
914.18164 0.04650
912.89587 0.04620
911.61010 0.04592
910.32433 0.04553
909.03856 0.04498
907.75279 0.04434
906.46702 0.04374
905.18125 0.04327
903.89549 0.04289
902.60972 0.04254
901.32395 0.04217
900.03818 0.04178
898.75241 0.04138
897.46664 0.04099
896.18087 0.04064
894.89510 0.04034
893.60933 0.04014
892.32357 0.03999
891.03780 0.03987
889.75203 0.03976
888.46626 0.03973
887.18049 0.03990
885.89472 0.04045
884.60895 0.04153
883.32318 0.04320
882.03742 0.04532
880.75165 0.04758
879.46588 0.04962
878.18011 0.05131
876.89434 0.05274
875.60857 0.05414
874.32280 0.05555
873.03703 0.05678
871.75126 0.05756
870.46550 0.05774
869.17973 0.05731
867.89396 0.05632
866.60819 0.05485
865.32242 0.05298
864.03665 0.05093
862.75088 0.04890
861.46511 0.04704
860.17935 0.04536
858.89358 0.04389
857.60781 0.04263
856.32204 0.04158
855.03627 0.04067
853.75050 0.03988
852.46473 0.03924
851.17896 0.03878
849.89319 0.03846
848.60743 0.03819
847.32166 0.03792
846.03589 0.03764
844.75012 0.03738
843.46435 0.03712
842.17858 0.03688
840.89281 0.03668
839.60704 0.03651
838.32128 0.03637
837.03551 0.03621
835.74974 0.03600
834.46397 0.03575
833.17820 0.03549
831.89243 0.03526
830.60666 0.03506
829.32089 0.03489
828.03512 0.03479
826.74936 0.03480
825.46359 0.03490
824.17782 0.03504
822.89205 0.03515
821.60628 0.03519
820.32051 0.03517
819.03474 0.03507
817.74897 0.03483
816.46321 0.03449
815.17744 0.03415
813.89167 0.03395
812.60590 0.03389
811.32013 0.03390
810.03436 0.03387
808.74859 0.03378
807.46282 0.03370
806.17705 0.03366
804.89129 0.03367
803.60552 0.03373
802.31975 0.03386
801.03398 0.03403
799.74821 0.03419
798.46244 0.03427
797.17667 0.03425
795.89090 0.03417
794.60513 0.03407
793.31937 0.03395
792.03360 0.03381
790.74783 0.03372
789.46206 0.03370
788.17629 0.03373
786.89052 0.03379
785.60475 0.03387
784.31898 0.03395
783.03322 0.03394
781.74745 0.03382
780.46168 0.03365
779.17591 0.03354
777.89014 0.03350
776.60437 0.03346
775.31860 0.03337
774.03283 0.03326
772.74706 0.03319
771.46130 0.03319
770.17553 0.03324
768.88976 0.03333
767.60399 0.03342
766.31822 0.03352
765.03245 0.03361
763.74668 0.03368
762.46091 0.03368
761.17515 0.03362
759.88938 0.03355
758.60361 0.03356
757.31784 0.03364
756.03207 0.03370
754.74630 0.03370
753.46053 0.03367
752.17476 0.03366
750.88899 0.03359
749.60323 0.03345
748.31746 0.03329
747.03169 0.03317
745.74592 0.03307
744.46015 0.03294
743.17438 0.03276
741.88861 0.03256
740.60284 0.03243
739.31708 0.03243
738.03131 0.03257
736.74554 0.03276
735.45977 0.03290
734.17400 0.03293
732.88823 0.03291
731.60246 0.03290
730.31669 0.03294
729.03092 0.03299
727.74516 0.03302
726.45939 0.03299
725.17362 0.03293
723.88785 0.03300
722.60208 0.03294
721.31631 0.03307
720.03054 0.03330
718.74477 0.03348
717.45901 0.03357
716.17324 0.03354
714.88747 0.03339
713.60170 0.03319
712.31593 0.03302
711.03016 0.03294
709.74439 0.03291
708.45862 0.03289
707.17285 0.03285
705.88709 0.03280
704.60132 0.03277
703.31555 0.03277
702.02978 0.03282
700.74401 0.03287
699.45824 0.03292
698.17247 0.03297
696.88670 0.03303
695.60094 0.03309
694.31517 0.03314
693.02940 0.03318
691.74363 0.03323
690.45786 0.03327
689.17209 0.03329
687.88632 0.03327
686.60055 0.03320
685.31478 0.03310
684.02902 0.03295
682.74325 0.03273
681.45748 0.03247
680.17171 0.03223
678.88594 0.03206
677.60017 0.03197
676.31440 0.03197
675.02863 0.03202
673.74287 0.03211
672.45710 0.03223
671.17133 0.03239
669.88556 0.03259
668.59979 0.03280
667.31402 0.03289
666.02825 0.03288
664.74248 0.03275
663.45671 0.03260
662.17095 0.03251
660.88518 0.03250
659.59941 0.03252
658.31364 0.03253
657.02787 0.03250
655.74210 0.03243
654.45633 0.03236
653.17056 0.03231
651.88480 0.03227
650.59903 0.03224
649.31326 0.03224
648.02749 0.03225
646.74172 0.03228
645.45595 0.03232
644.17018 0.03234
642.88441 0.03232
641.59864 0.03225
640.31288 0.03218
639.02711 0.03217
637.74134 0.03224
636.45557 0.03236
635.16980 0.03254
633.88403 0.03283
632.59826 0.03314
631.31249 0.03294
630.02673 0.03227
628.74096 0.03348
627.45519 0.03532
626.16942 0.03770
624.88365 0.04035
623.59788 0.04290
622.31211 0.04524
621.02634 0.04763
619.74057 0.05038
618.45481 0.05314
617.16904 0.05497
615.88327 0.05564
614.59750 0.05666
613.31173 0.06032
612.02596 0.06733
610.74019 0.07571
609.45442 0.08263
608.16866 0.08719
606.88289 0.09050
605.59712 0.09361
604.31135 0.09648
603.02558 0.09835
601.73981 0.09849
600.45404 0.09677
599.16827 0.09374
597.88250 0.09024
596.59674 0.08682
595.31097 0.08375
594.02520 0.08112
592.73943 0.07906
591.45366 0.07766
590.16789 0.07689
588.88212 0.07667
587.59635 0.07696
586.31059 0.07772
585.02482 0.07895
583.73905 0.08066
582.45328 0.08283
581.16751 0.08538
579.88174 0.08810
578.59597 0.09073
577.31020 0.09305
576.02443 0.09504
574.73867 0.09688
573.45290 0.09878
572.16713 0.10092
570.88136 0.10338
569.59559 0.10614
568.30982 0.10913
567.02405 0.11214
565.73828 0.11494
564.45251 0.11731
563.16675 0.11900
561.88098 0.11974
560.59521 0.11924
559.30944 0.11729
558.02367 0.11392
556.73790 0.10945
555.45213 0.10426
554.16636 0.09873
552.88060 0.09313
551.59483 0.08769
550.30906 0.08263
549.02329 0.07813
547.73752 0.07424
546.45175 0.07088
545.16598 0.06793
543.88021 0.06537
542.59444 0.06323
541.30868 0.06151
540.02291 0.06006
538.73714 0.05865
537.45137 0.05715
536.16560 0.05558
534.87983 0.05408
533.59406 0.05282
532.30829 0.05181
531.02253 0.05091
529.73676 0.04996
528.45099 0.04887
527.16522 0.04770
525.87945 0.04658
524.59368 0.04564
523.30791 0.04492
522.02214 0.04435
520.73637 0.04380
519.45061 0.04320
518.16484 0.04255
516.87907 0.04190
515.59330 0.04127
514.30753 0.04063
513.02176 0.04000
511.73599 0.03943
510.45022 0.03893
509.16446 0.03846
507.87869 0.03799
506.59292 0.03755
505.30715 0.03720
504.02138 0.03696
502.73561 0.03678
501.44984 0.03655
500.16407 0.03622
498.87830 0.03582
497.59254 0.03539
496.30677 0.03495
495.02100 0.03449
493.73523 0.03404
492.44946 0.03365
491.16369 0.03338
489.87792 0.03317
488.59215 0.03295
487.30639 0.03273
486.02062 0.03259
484.73485 0.03256
483.44908 0.03260
482.16331 0.03263
480.87754 0.03262
479.59177 0.03260
478.30600 0.03261
477.02023 0.03269
475.73447 0.03281
474.44870 0.03294
473.16293 0.03306
471.87716 0.03317
470.59139 0.03325
469.30562 0.03328
468.01985 0.03326
466.73408 0.03318
465.44832 0.03298
464.16255 0.03263
462.87678 0.03215
461.59101 0.03164
460.30524 0.03121
459.01947 0.03090
457.73370 0.03066
456.44793 0.03040
455.16216 0.03005
453.87640 0.02965
452.59063 0.02930
451.30486 0.02903
450.01909 0.02880
448.73332 0.02855
447.44755 0.02825
446.16178 0.02793
444.87601 0.02766
443.59025 0.02748
442.30448 0.02737
441.01871 0.02731
439.73294 0.02725
438.44717 0.02717
437.16140 0.02705
435.87563 0.02692
434.58986 0.02679
433.30409 0.02666
432.01833 0.02647
430.73256 0.02623
429.44679 0.02596
428.16102 0.02574
426.87525 0.02560
425.58948 0.02549
424.30371 0.02536
423.01794 0.02521
421.73218 0.02506
420.44641 0.02494
419.16064 0.02481
417.87487 0.02465
416.58910 0.02444
415.30333 0.02420
414.01756 0.02397
412.73179 0.02377
411.44602 0.02361
410.16026 0.02351
408.87449 0.02346
407.58872 0.02346
406.30295 0.02350
405.01718 0.02359
403.73141 0.02371
402.44564 0.02381
401.15987 0.02386
399.87411 0.02387
