3997.45528 0.04298
3996.16951 0.04269
3994.88374 0.04255
3993.59798 0.04263
3992.31221 0.04285
3991.02644 0.04307
3989.74067 0.04324
3988.45490 0.04336
3987.16913 0.04341
3985.88336 0.04332
3984.59759 0.04302
3983.31183 0.04268
3982.02606 0.04262
3980.74029 0.04287
3979.45452 0.04300
3978.16875 0.04251
3976.88298 0.04143
3975.59721 0.04042
3974.31144 0.04020
3973.02567 0.04098
3971.73991 0.04226
3970.45414 0.04327
3969.16837 0.04345
3967.88260 0.04282
3966.59683 0.04187
3965.31106 0.04120
3964.02529 0.04119
3962.73952 0.04177
3961.45376 0.04252
3960.16799 0.04299
3958.88222 0.04294
3957.59645 0.04237
3956.31068 0.04147
3955.02491 0.04049
3953.73914 0.03975
3952.45337 0.03951
3951.16760 0.03996
3949.88184 0.04108
3948.59607 0.04251
3947.31030 0.04380
3946.02453 0.04468
3944.73876 0.04524
3943.45299 0.04563
3942.16722 0.04576
3940.88145 0.04545
3939.59569 0.04480
3938.30992 0.04429
3937.02415 0.04424
3935.73838 0.04441
3934.45261 0.04431
3933.16684 0.04382
3931.88107 0.04322
3930.59530 0.04267
3929.30953 0.04208
3928.02377 0.04135
3926.73800 0.04065
3925.45223 0.04012
3924.16646 0.03979
3922.88069 0.03976
3921.59492 0.04020
3920.30915 0.04112
3919.02338 0.04229
3917.73762 0.04332
3916.45185 0.04375
3915.16608 0.04327
3913.88031 0.04205
3912.59454 0.04080
3911.30877 0.04025
3910.02300 0.04069
3908.73723 0.04178
3907.45146 0.04300
3906.16570 0.04403
3904.87993 0.04464
3903.59416 0.04454
3902.30839 0.04369
3901.02262 0.04269
3899.73685 0.04244
3898.45108 0.04343
3897.16531 0.04523
3895.87955 0.04683
3894.59378 0.04735
3893.30801 0.04659
3892.02224 0.04516
3890.73647 0.04394
3889.45070 0.04354
3888.16493 0.04392
3886.87916 0.04439
3885.59339 0.04418
3884.30763 0.04312
3883.02186 0.04178
3881.73609 0.04094
3880.45032 0.04097
3879.16455 0.04161
3877.87878 0.04221
3876.59301 0.04222
3875.30724 0.04159
3874.02148 0.04075
3872.73571 0.04033
3871.44994 0.04052
3870.16417 0.04087
3868.87840 0.04094
3867.59263 0.04100
3866.30686 0.04153
3865.02109 0.04237
3863.73532 0.04285
3862.44956 0.04262
3861.16379 0.04185
3859.87802 0.04089
3858.59225 0.03992
3857.30648 0.03910
3856.02071 0.03849
3854.73494 0.03802
3853.44917 0.03755
3852.16341 0.03742
3850.87764 0.03822
3849.59187 0.03982
3848.30610 0.04112
3847.02033 0.04112
3845.73456 0.03996
3844.44879 0.03877
3843.16302 0.03842
3841.87725 0.03875
3840.59149 0.03904
3839.30572 0.03893
3838.01995 0.03872
3836.73418 0.03887
3835.44841 0.03959
3834.16264 0.04053
3832.87687 0.04109
3831.59110 0.04100
3830.30534 0.04060
3829.01957 0.04043
3827.73380 0.04065
3826.44803 0.04086
3825.16226 0.04065
3823.87649 0.04015
3822.59072 0.03978
3821.30495 0.03964
3820.01918 0.03953
3818.73342 0.03937
3817.44765 0.03921
3816.16188 0.03879
3814.87611 0.03787
3813.59034 0.03679
3812.30457 0.03633
3811.01880 0.03694
3809.73303 0.03826
3808.44726 0.03933
3807.16150 0.03932
3805.87573 0.03843
3804.58996 0.03781
3803.30419 0.03833
3802.01842 0.03962
3800.73265 0.04069
3799.44688 0.04102
3798.16111 0.04071
3796.87535 0.03993
3795.58958 0.03888
3794.30381 0.03806
3793.01804 0.03790
3791.73227 0.03837
3790.44650 0.03900
3789.16073 0.03929
3787.87496 0.03901
3786.58919 0.03837
3785.30343 0.03778
3784.01766 0.03747
3782.73189 0.03736
3781.44612 0.03730
3780.16035 0.03729
3778.87458 0.03737
3777.58881 0.03743
3776.30304 0.03738
3775.01728 0.03734
3773.73151 0.03772
3772.44574 0.03871
3771.15997 0.03994
3769.87420 0.04076
3768.58843 0.04087
3767.30266 0.04043
3766.01689 0.03965
3764.73112 0.03870
3763.44536 0.03791
3762.15959 0.03775
3760.87382 0.03835
3759.58805 0.03930
3758.30228 0.04001
3757.01651 0.04013
3755.73074 0.03979
3754.44497 0.03934
3753.15921 0.03890
3751.87344 0.03841
3750.58767 0.03794
3749.30190 0.03759
3748.01613 0.03734
3746.73036 0.03723
3745.44459 0.03722
3744.15882 0.03721
3742.87305 0.03734
3741.58729 0.03785
3740.30152 0.03841
3739.01575 0.03843
3737.72998 0.03785
3736.44421 0.03721
3735.15844 0.03712
3733.87267 0.03771
3732.58690 0.03839
3731.30114 0.03838
3730.01537 0.03753
3728.72960 0.03631
3727.44383 0.03514
3726.15806 0.03420
3724.87229 0.03364
3723.58652 0.03349
3722.30075 0.03358
3721.01498 0.03390
3719.72922 0.03465
3718.44345 0.03581
3717.15768 0.03680
3715.87191 0.03701
3714.58614 0.03660
3713.30037 0.03631
3712.01460 0.03655
3710.72883 0.03696
3709.44307 0.03689
3708.15730 0.03617
3706.87153 0.03525
3705.58576 0.03477
3704.29999 0.03496
3703.01422 0.03547
3701.72845 0.03562
3700.44268 0.03501
3699.15691 0.03402
3697.87115 0.03348
3696.58538 0.03397
3695.29961 0.03543
3694.01384 0.03717
3692.72807 0.03838
3691.44230 0.03873
3690.15653 0.03861
3688.87076 0.03860
3687.58500 0.03894
3686.29923 0.03935
3685.01346 0.03907
3683.72769 0.03765
3682.44192 0.03573
3681.15615 0.03459
3679.87038 0.03489
3678.58461 0.03621
3677.29884 0.03759
3676.01308 0.03828
3674.72731 0.03817
3673.44154 0.03790
3672.15577 0.03817
3670.87000 0.03893
3669.58423 0.03954
3668.29846 0.03954
3667.01269 0.03885
3665.72693 0.03767
3664.44116 0.03649
3663.15539 0.03601
3661.86962 0.03659
3660.58385 0.03782
3659.29808 0.03897
3658.01231 0.03954
3656.72654 0.03955
3655.44077 0.03919
3654.15501 0.03867
3652.86924 0.03815
3651.58347 0.03780
3650.29770 0.03774
3649.01193 0.03805
3647.72616 0.03866
3646.44039 0.03942
3645.15462 0.04014
3643.86886 0.04052
3642.58309 0.04036
3641.29732 0.03981
3640.01155 0.03929
3638.72578 0.03908
3637.44001 0.03908
3636.15424 0.03913
3634.86847 0.03931
3633.58270 0.03982
3632.29694 0.04076
3631.01117 0.04198
3629.72540 0.04299
3628.43963 0.04336
3627.15386 0.04325
3625.86809 0.04324
3624.58232 0.04356
3623.29655 0.04392
3622.01079 0.04410
3620.72502 0.04416
3619.43925 0.04420
3618.15348 0.04416
3616.86771 0.04396
3615.58194 0.04371
3614.29617 0.04366
3613.01040 0.04393
3611.72463 0.04442
3610.43887 0.04492
3609.15310 0.04519
3607.86733 0.04512
3606.58156 0.04482
3605.29579 0.04444
3604.01002 0.04408
3602.72425 0.04375
3601.43848 0.04356
3600.15272 0.04368
3598.86695 0.04422
3597.58118 0.04512
3596.29541 0.04609
3595.00964 0.04681
3593.72387 0.04721
3592.43810 0.04763
3591.15233 0.04852
3589.86656 0.04988
3588.58080 0.05102
3587.29503 0.05115
3586.00926 0.05029
3584.72349 0.04927
3583.43772 0.04894
3582.15195 0.04949
3580.86618 0.05053
3579.58041 0.05145
3578.29464 0.05190
3577.00888 0.05199
3575.72311 0.05199
3574.43734 0.05209
3573.15157 0.05236
3571.86580 0.05290
3570.58003 0.05374
3569.29426 0.05456
3568.00849 0.05469
3566.72273 0.05381
3565.43696 0.05235
3564.15119 0.05120
3562.86542 0.05090
3561.57965 0.05128
3560.29388 0.05184
3559.00811 0.05224
3557.72234 0.05265
3556.43657 0.05344
3555.15081 0.05468
3553.86504 0.05591
3552.57927 0.05649
3551.29350 0.05620
3550.00773 0.05548
3548.72196 0.05505
3547.43619 0.05534
3546.15042 0.05625
3544.86466 0.05739
3543.57889 0.05834
3542.29312 0.05881
3541.00735 0.05861
3539.72158 0.05794
3538.43581 0.05737
3537.15004 0.05749
3535.86427 0.05842
3534.57850 0.05976
3533.29274 0.06105
3532.00697 0.06217
3530.72120 0.06316
3529.43543 0.06391
3528.14966 0.06413
3526.86389 0.06366
3525.57812 0.06277
3524.29235 0.06192
3523.00659 0.06142
3521.72082 0.06122
3520.43505 0.06118
3519.14928 0.06130
3517.86351 0.06175
3516.57774 0.06249
3515.29197 0.06312
3514.00620 0.06324
3512.72043 0.06297
3511.43467 0.06300
3510.14890 0.06384
3508.86313 0.06523
3507.57736 0.06632
3506.29159 0.06652
3505.00582 0.06605
3503.72005 0.06560
3502.43428 0.06560
3501.14852 0.06601
3499.86275 0.06664
3498.57698 0.06746
3497.29121 0.06853
3496.00544 0.06961
3494.71967 0.07020
3493.43390 0.06990
3492.14813 0.06881
3490.86236 0.06746
3489.57660 0.06642
3488.29083 0.06602
3487.00506 0.06633
3485.71929 0.06721
3484.43352 0.06827
3483.14775 0.06906
3481.86198 0.06942
3480.57621 0.06965
3479.29045 0.07018
3478.00468 0.07111
3476.71891 0.07221
3475.43314 0.07308
3474.14737 0.07343
3472.86160 0.07320
3471.57583 0.07256
3470.29006 0.07177
3469.00429 0.07103
3467.71853 0.07063
3466.43276 0.07087
3465.14699 0.07173
3463.86122 0.07265
3462.57545 0.07291
3461.28968 0.07234
3460.00391 0.07146
3458.71814 0.07099
3457.43238 0.07125
3456.14661 0.07207
3454.86084 0.07300
3453.57507 0.07369
3452.28930 0.07399
3451.00353 0.07399
3449.71776 0.07386
3448.43199 0.07381
3447.14622 0.07395
3445.86046 0.07429
3444.57469 0.07466
3443.28892 0.07486
3442.00315 0.07475
3440.71738 0.07441
3439.43161 0.07412
3438.14584 0.07407
3436.86007 0.07430
3435.57431 0.07466
3434.28854 0.07497
3433.00277 0.07516
3431.71700 0.07540
3430.43123 0.07596
3429.14546 0.07687
3427.85969 0.07782
3426.57392 0.07850
3425.28815 0.07891
3424.00239 0.07927
3422.71662 0.07965
3421.43085 0.07987
3420.14508 0.07972
3418.85931 0.07930
3417.57354 0.07893
3416.28777 0.07879
3415.00200 0.07885
3413.71624 0.07894
3412.43047 0.07903
3411.14470 0.07924
3409.85893 0.07972
3408.57316 0.08048
3407.28739 0.08134
3406.00162 0.08200
3404.71585 0.08218
3403.43008 0.08182
3402.14432 0.08117
3400.85855 0.08065
3399.57278 0.08060
3398.28701 0.08092
3397.00124 0.08132
3395.71547 0.08155
3394.42970 0.08167
3393.14393 0.08205
3391.85817 0.08288
3390.57240 0.08386
3389.28663 0.08438
3388.00086 0.08405
3386.71509 0.08325
3385.42932 0.08283
3384.14355 0.08333
3382.85778 0.08443
3381.57201 0.08537
3380.28625 0.08570
3379.00048 0.08554
3377.71471 0.08516
3376.42894 0.08468
3375.14317 0.08426
3373.85740 0.08426
3372.57163 0.08497
3371.28586 0.08624
3370.00010 0.08748
3368.71433 0.08803
3367.42856 0.08763
3366.14279 0.08658
3364.85702 0.08548
3363.57125 0.08478
3362.28548 0.08461
3360.99971 0.08479
3359.71394 0.08509
3358.42818 0.08540
3357.14241 0.08571
3355.85664 0.08601
3354.57087 0.08613
3353.28510 0.08584
3351.99933 0.08513
3350.71356 0.08429
3349.42779 0.08379
3348.14202 0.08385
3346.85626 0.08431
3345.57049 0.08481
3344.28472 0.08517
3342.99895 0.08549
3341.71318 0.08588
3340.42741 0.08621
3339.14164 0.08631
3337.85587 0.08614
3336.57011 0.08588
3335.28434 0.08581
3333.99857 0.08616
3332.71280 0.08696
3331.42703 0.08786
3330.14126 0.08839
3328.85549 0.08842
3327.56972 0.08819
3326.28395 0.08794
3324.99819 0.08769
3323.71242 0.08749
3322.42665 0.08756
3321.14088 0.08814
3319.85511 0.08905
3318.56934 0.08975
3317.28357 0.08976
3315.99780 0.08920
3314.71204 0.08867
3313.42627 0.08868
3312.14050 0.08916
3310.85473 0.08954
3309.56896 0.08946
3308.28319 0.08911
3306.99742 0.08891
3305.71165 0.08901
3304.42588 0.08921
3303.14012 0.08924
3301.85435 0.08905
3300.56858 0.08888
3299.28281 0.08899
3297.99704 0.08946
3296.71127 0.09005
3295.42550 0.09036
3294.13973 0.09024
3292.85397 0.09002
3291.56820 0.09019
3290.28243 0.09093
3288.99666 0.09178
3287.71089 0.09207
3286.42512 0.09154
3285.13935 0.09051
3283.85358 0.08950
3282.56781 0.08885
3281.28205 0.08859
3279.99628 0.08859
3278.71051 0.08861
3277.42474 0.08848
3276.13897 0.08828
3274.85320 0.08828
3273.56743 0.08875
3272.28166 0.08966
3270.99590 0.09066
3269.71013 0.09121
3268.42436 0.09100
3267.13859 0.09021
3265.85282 0.08936
3264.56705 0.08894
3263.28128 0.08908
3261.99551 0.08951
3260.70974 0.08975
3259.42398 0.08951
3258.13821 0.08890
3256.85244 0.08827
3255.56667 0.08787
3254.28090 0.08762
3252.99513 0.08729
3251.70936 0.08680
3250.42359 0.08636
3249.13783 0.08631
3247.85206 0.08680
3246.56629 0.08759
3245.28052 0.08825
3243.99475 0.08853
3242.70898 0.08842
3241.42321 0.08805
3240.13744 0.08756
3238.85167 0.08706
3237.56591 0.08657
3236.28014 0.08602
3234.99437 0.08543
3233.70860 0.08496
3232.42283 0.08470
3231.13706 0.08458
3229.85129 0.08450
3228.56552 0.08455
3227.27976 0.08472
3225.99399 0.08478
3224.70822 0.08447
3223.42245 0.08382
3222.13668 0.08318
3220.85091 0.08283
3219.56514 0.08285
3218.27937 0.08311
3216.99360 0.08346
3215.70784 0.08373
3214.42207 0.08375
3213.13630 0.08354
3211.85053 0.08338
3210.56476 0.08355
3209.27899 0.08401
3207.99322 0.08439
3206.70745 0.08438
3205.42169 0.08414
3204.13592 0.08391
3202.85015 0.08364
3201.56438 0.08309
3200.27861 0.08231
3198.99284 0.08170
3197.70707 0.08157
3196.42130 0.08182
3195.13553 0.08216
3193.84977 0.08233
3192.56400 0.08222
3191.27823 0.08180
3189.99246 0.08114
3188.70669 0.08051
3187.42092 0.08012
3186.13515 0.08002
3184.84938 0.08001
3183.56362 0.07985
3182.27785 0.07948
3180.99208 0.07903
3179.70631 0.07864
3178.42054 0.07834
3177.13477 0.07820
3175.84900 0.07835
3174.56323 0.07873
3173.27746 0.07914
3171.99170 0.07942
3170.70593 0.07962
3169.42016 0.07972
3168.13439 0.07955
3166.84862 0.07893
3165.56285 0.07795
3164.27708 0.07693
3162.99131 0.07609
3161.70555 0.07548
3160.41978 0.07516
3159.13401 0.07517
3157.84824 0.07552
3156.56247 0.07602
3155.27670 0.07647
3153.99093 0.07670
3152.70516 0.07659
3151.41939 0.07615
3150.13363 0.07547
3148.84786 0.07481
3147.56209 0.07436
3146.27632 0.07419
3144.99055 0.07420
3143.70478 0.07423
3142.41901 0.07422
3141.13324 0.07422
3139.84748 0.07428
3138.56171 0.07431
3137.27594 0.07414
3135.99017 0.07369
3134.70440 0.07306
3133.41863 0.07236
3132.13286 0.07162
3130.84709 0.07090
3129.56132 0.07044
3128.27556 0.07051
3126.98979 0.07110
3125.70402 0.07188
3124.41825 0.07248
3123.13248 0.07274
3121.84671 0.07277
3120.56094 0.07271
3119.27517 0.07261
3117.98940 0.07240
3116.70364 0.07203
3115.41787 0.07158
3114.13210 0.07125
3112.84633 0.07121
3111.56056 0.07148
3110.27479 0.07184
3108.98902 0.07200
3107.70325 0.07177
3106.41749 0.07122
3105.13172 0.07061
3103.84595 0.07019
3102.56018 0.07006
3101.27441 0.07019
3099.98864 0.07046
3098.70287 0.07071
3097.41710 0.07087
3096.13133 0.07095
3094.84557 0.07094
3093.55980 0.07077
3092.27403 0.07043
3090.98826 0.07009
3089.70249 0.06991
3088.41672 0.06990
3087.13095 0.06990
3085.84518 0.06983
3084.55942 0.06973
3083.27365 0.06962
3081.98788 0.06950
3080.70211 0.06938
3079.41634 0.06926
3078.13057 0.06913
3076.84480 0.06894
3075.55903 0.06872
3074.27326 0.06860
3072.98750 0.06865
3071.70173 0.06872
3070.41596 0.06864
3069.13019 0.06845
3067.84442 0.06836
3066.55865 0.06856
3065.27288 0.06897
3063.98711 0.06927
3062.70135 0.06923
3061.41558 0.06886
3060.12981 0.06841
3058.84404 0.06809
3057.55827 0.06799
3056.27250 0.06805
3054.98673 0.06818
3053.70096 0.06828
3052.41519 0.06818
3051.12943 0.06775
3049.84366 0.06710
3048.55789 0.06654
3047.27212 0.06631
3045.98635 0.06636
3044.70058 0.06649
3043.41481 0.06655
3042.12904 0.06651
3040.84328 0.06639
3039.55751 0.06622
3038.27174 0.06600
3036.98597 0.06572
3035.70020 0.06536
3034.41443 0.06491
3033.12866 0.06441
3031.84289 0.06399
3030.55712 0.06378
3029.27136 0.06376
3027.98559 0.06381
3026.69982 0.06378
3025.41405 0.06362
3024.12828 0.06339
3022.84251 0.06321
3021.55674 0.06315
3020.27097 0.06312
3018.98521 0.06293
3017.69944 0.06253
3016.41367 0.06210
3015.12790 0.06191
3013.84213 0.06208
3012.55636 0.06248
3011.27059 0.06286
3009.98482 0.06302
3008.69905 0.06287
3007.41329 0.06244
3006.12752 0.06187
3004.84175 0.06135
3003.55598 0.06101
3002.27021 0.06082
3000.98444 0.06078
2999.69867 0.06089
2998.41290 0.06111
2997.12714 0.06135
2995.84137 0.06138
2994.55560 0.06118
2993.26983 0.06097
2991.98406 0.06095
2990.69829 0.06101
2989.41252 0.06099
2988.12675 0.06095
2986.84098 0.06109
2985.55522 0.06145
2984.26945 0.06183
2982.98368 0.06203
2981.69791 0.06201
2980.41214 0.06183
2979.12637 0.06159
2977.84060 0.06146
2976.55483 0.06158
2975.26907 0.06196
2973.98330 0.06244
2972.69753 0.06275
2971.41176 0.06271
2970.12599 0.06233
2968.84022 0.06183
2967.55445 0.06147
2966.26868 0.06132
2964.98291 0.06125
2963.69715 0.06113
2962.41138 0.06089
2961.12561 0.06057
2959.83984 0.06020
2958.55407 0.05985
2957.26830 0.05973
2955.98253 0.06001
2954.69676 0.06065
2953.41100 0.06142
2952.12523 0.06207
2950.83946 0.06247
2949.55369 0.06256
2948.26792 0.06244
2946.98215 0.06233
2945.69638 0.06238
2944.41061 0.06261
2943.12484 0.06292
2941.83908 0.06317
2940.55331 0.06316
2939.26754 0.06274
2937.98177 0.06196
2936.69600 0.06106
2935.41023 0.06024
2934.12446 0.05952
2932.83869 0.05881
2931.55293 0.05806
2930.26716 0.05720
2928.98139 0.05608
2927.69562 0.05453
2926.40985 0.05241
2925.12408 0.04961
2923.83831 0.04614
2922.55254 0.04213
2921.26677 0.03781
2919.98101 0.03349
2918.69524 0.02975
2917.40947 0.02742
2916.12370 0.02737
2914.83793 0.02982
2913.55216 0.03400
2912.26639 0.03860
2910.98062 0.04260
2909.69486 0.04571
2908.40909 0.04810
2907.12332 0.04993
2905.83755 0.05129
2904.55178 0.05228
2903.26601 0.05303
2901.98024 0.05359
2900.69447 0.05399
2899.40870 0.05433
2898.12294 0.05467
2896.83717 0.05494
2895.55140 0.05504
2894.26563 0.05505
2892.97986 0.05509
2891.69409 0.05521
2890.40832 0.05529
2889.12255 0.05526
2887.83678 0.05520
2886.55102 0.05531
2885.26525 0.05565
2883.97948 0.05605
2882.69371 0.05626
2881.40794 0.05626
2880.12217 0.05624
2878.83640 0.05633
2877.55063 0.05648
2876.26487 0.05652
2874.97910 0.05640
2873.69333 0.05618
2872.40756 0.05602
2871.12179 0.05602
2869.83602 0.05617
2868.55025 0.05628
2867.26448 0.05615
2865.97871 0.05570
2864.69295 0.05503
2863.40718 0.05418
2862.12141 0.05318
2860.83564 0.05206
2859.54987 0.05097
2858.26410 0.04998
2856.97833 0.04886
2855.69256 0.04712
2854.40680 0.04430
2853.12103 0.04031
2851.83526 0.03585
2850.54949 0.03232
2849.26372 0.03116
2847.97795 0.03292
2846.69218 0.03684
2845.40641 0.04136
2844.12064 0.04515
2842.83488 0.04762
2841.54911 0.04892
2840.26334 0.04957
2838.97757 0.05008
2837.69180 0.05069
2836.40603 0.05135
2835.12026 0.05190
2833.83449 0.05221
2832.54873 0.05224
2831.26296 0.05208
2829.97719 0.05193
2828.69142 0.05194
2827.40565 0.05205
2826.11988 0.05201
2824.83411 0.05159
2823.54834 0.05082
2822.26257 0.04993
2820.97681 0.04922
2819.69104 0.04891
2818.40527 0.04908
2817.11950 0.04954
2815.83373 0.04999
2814.54796 0.05018
2813.26219 0.05014
2811.97642 0.05007
2810.69066 0.05007
2809.40489 0.05005
2808.11912 0.04990
2806.83335 0.04968
2805.54758 0.04952
2804.26181 0.04952
2802.97604 0.04966
2801.69027 0.04988
2800.40450 0.05003
2799.11874 0.04998
2797.83297 0.04973
2796.54720 0.04934
2795.26143 0.04892
2793.97566 0.04857
2792.68989 0.04837
2791.40412 0.04834
2790.11835 0.04840
2788.83259 0.04835
2787.54682 0.04806
2786.26105 0.04767
2784.97528 0.04741
2783.68951 0.04743
2782.40374 0.04765
2781.11797 0.04789
2779.83220 0.04808
2778.54643 0.04825
2777.26067 0.04840
2775.97490 0.04838
2774.68913 0.04810
2773.40336 0.04765
2772.11759 0.04726
2770.83182 0.04704
2769.54605 0.04691
2768.26028 0.04682
2766.97452 0.04683
2765.68875 0.04704
2764.40298 0.04733
2763.11721 0.04744
2761.83144 0.04721
2760.54567 0.04672
2759.25990 0.04620
2757.97413 0.04584
2756.68836 0.04572
2755.40260 0.04581
2754.11683 0.04596
2752.83106 0.04603
2751.54529 0.04595
2750.25952 0.04573
2748.97375 0.04551
2747.68798 0.04535
2746.40221 0.04525
2745.11645 0.04518
2743.83068 0.04508
2742.54491 0.04503
2741.25914 0.04512
2739.97337 0.04536
2738.68760 0.04557
2737.40183 0.04554
2736.11606 0.04524
2734.83029 0.04490
2733.54453 0.04466
2732.25876 0.04449
2730.97299 0.04426
2729.68722 0.04400
2728.40145 0.04392
2727.11568 0.04406
2725.82991 0.04425
2724.54414 0.04427
2723.25838 0.04415
2721.97261 0.04405
2720.68684 0.04404
2719.40107 0.04407
2718.11530 0.04410
2716.82953 0.04412
2715.54376 0.04409
2714.25799 0.04393
2712.97222 0.04367
2711.68646 0.04342
2710.40069 0.04325
2709.11492 0.04316
2707.82915 0.04315
2706.54338 0.04319
2705.25761 0.04318
2703.97184 0.04301
2702.68607 0.04275
2701.40031 0.04256
2700.11454 0.04248
2698.82877 0.04238
2697.54300 0.04216
2696.25723 0.04197
2694.97146 0.04206
2693.68569 0.04247
2692.39992 0.04291
2691.11415 0.04303
2689.82839 0.04277
2688.54262 0.04234
2687.25685 0.04203
2685.97108 0.04191
2684.68531 0.04185
2683.39954 0.04172
2682.11377 0.04156
2680.82800 0.04142
2679.54224 0.04129
2678.25647 0.04115
2676.97070 0.04106
2675.68493 0.04106
2674.39916 0.04110
2673.11339 0.04103
2671.82762 0.04082
2670.54185 0.04062
2669.25608 0.04061
2667.97032 0.04085
2666.68455 0.04120
2665.39878 0.04149
2664.11301 0.04162
2662.82724 0.04165
2661.54147 0.04166
2660.25570 0.04171
2658.96993 0.04173
2657.68417 0.04169
2656.39840 0.04158
2655.11263 0.04146
2653.82686 0.04131
2652.54109 0.04107
2651.25532 0.04076
2649.96955 0.04048
2648.68378 0.04033
2647.39801 0.04028
2646.11225 0.04026
2644.82648 0.04019
2643.54071 0.04004
2642.25494 0.03981
2640.96917 0.03958
2639.68340 0.03943
2638.39763 0.03933
2637.11186 0.03917
2635.82609 0.03891
2634.54033 0.03859
2633.25456 0.03824
2631.96879 0.03790
2630.68302 0.03772
2629.39725 0.03775
2628.11148 0.03788
2626.82571 0.03795
2625.53994 0.03795
2624.25418 0.03791
2622.96841 0.03774
2621.68264 0.03733
2620.39687 0.03685
2619.11110 0.03657
2617.82533 0.03654
2616.53956 0.03656
2615.25379 0.03652
2613.96802 0.03651
2612.68226 0.03655
2611.39649 0.03653
2610.11072 0.03634
2608.82495 0.03608
2607.53918 0.03596
2606.25341 0.03606
2604.96764 0.03616
2603.68187 0.03592
2602.39611 0.03533
2601.11034 0.03475
2599.82457 0.03457
2598.53880 0.03481
2597.25303 0.03513
2595.96726 0.03526
2594.68149 0.03518
2593.39572 0.03510
2592.10995 0.03519
2590.82419 0.03544
2589.53842 0.03561
2588.25265 0.03545
2586.96688 0.03498
2585.68111 0.03452
2584.39534 0.03433
2583.10957 0.03436
2581.82380 0.03436
2580.53804 0.03417
2579.25227 0.03390
2577.96650 0.03374
2576.68073 0.03368
2575.39496 0.03352
2574.10919 0.03320
2572.82342 0.03284
2571.53765 0.03259
2570.25188 0.03249
2568.96612 0.03260
2567.68035 0.03297
2566.39458 0.03350
2565.10881 0.03390
2563.82304 0.03396
2562.53727 0.03374
2561.25150 0.03348
2559.96573 0.03332
2558.67997 0.03319
2557.39420 0.03294
2556.10843 0.03251
2554.82266 0.03201
2553.53689 0.03169
2552.25112 0.03176
2550.96535 0.03214
2549.67958 0.03257
2548.39381 0.03283
2547.10805 0.03288
2545.82228 0.03281
2544.53651 0.03274
2543.25074 0.03282
2541.96497 0.03310
2540.67920 0.03341
2539.39343 0.03348
2538.10766 0.03319
2536.82190 0.03271
2535.53613 0.03230
2534.25036 0.03204
2532.96459 0.03190
2531.67882 0.03188
2530.39305 0.03198
2529.10728 0.03209
2527.82151 0.03201
2526.53574 0.03160
2525.24998 0.03092
2523.96421 0.03023
2522.67844 0.02987
2521.39267 0.03003
2520.10690 0.03053
2518.82113 0.03108
2517.53536 0.03148
2516.24959 0.03168
2514.96383 0.03162
2513.67806 0.03124
2512.39229 0.03075
2511.10652 0.03049
2509.82075 0.03069
2508.53498 0.03123
2507.24921 0.03174
2505.96344 0.03185
2504.67767 0.03142
2503.39191 0.03067
2502.10614 0.03002
2500.82037 0.02981
2499.53460 0.03003
2498.24883 0.03042
2496.96306 0.03064
2495.67729 0.03052
2494.39152 0.03018
2493.10576 0.02987
2491.81999 0.02976
2490.53422 0.02984
2489.24845 0.03004
2487.96268 0.03030
2486.67691 0.03053
2485.39114 0.03062
2484.10537 0.03057
2482.81960 0.03042
2481.53384 0.03026
2480.24807 0.03013
2478.96230 0.03000
2477.67653 0.02989
2476.39076 0.02987
2475.10499 0.03001
2473.81922 0.03027
2472.53345 0.03050
2471.24769 0.03051
2469.96192 0.03028
2468.67615 0.02997
2467.39038 0.02980
2466.10461 0.02991
2464.81884 0.03022
2463.53307 0.03051
2462.24730 0.03059
2460.96153 0.03036
2459.67577 0.02990
2458.39000 0.02941
2457.10423 0.02904
2455.81846 0.02887
2454.53269 0.02889
2453.24692 0.02911
2451.96115 0.02953
2450.67538 0.03003
2449.38962 0.03037
2448.10385 0.03034
2446.81808 0.02986
2445.53231 0.02904
2444.24654 0.02822
2442.96077 0.02779
2441.67500 0.02787
2440.38923 0.02826
2439.10346 0.02864
2437.81770 0.02889
2436.53193 0.02906
2435.24616 0.02921
2433.96039 0.02928
2432.67462 0.02923
2431.38885 0.02907
2430.10308 0.02877
2428.81731 0.02839
2427.53155 0.02813
2426.24578 0.02826
2424.96001 0.02872
2423.67424 0.02917
2422.38847 0.02930
2421.10270 0.02913
2419.81693 0.02888
2418.53116 0.02872
2417.24539 0.02864
2415.95963 0.02855
2414.67386 0.02849
2413.38809 0.02858
2412.10232 0.02884
2410.81655 0.02912
2409.53078 0.02923
2408.24501 0.02913
2406.95924 0.02892
2405.67347 0.02873
2404.38771 0.02861
2403.10194 0.02855
2401.81617 0.02843
2400.53040 0.02812
2399.24463 0.02758
2397.95886 0.02705
2396.67309 0.02676
2395.38732 0.02685
2394.10156 0.02730
2392.81579 0.02788
2391.53002 0.02829
2390.24425 0.02843
2388.95848 0.02836
2387.67271 0.02822
2386.38694 0.02801
2385.10117 0.02775
2383.81540 0.02756
2382.52964 0.02757
2381.24387 0.02773
2379.95810 0.02785
2378.67233 0.02782
2377.38656 0.02774
2376.10079 0.02775
2374.81502 0.02788
2373.52925 0.02798
2372.24349 0.02798
2370.95772 0.02793
2369.67195 0.02793
2368.38618 0.02793
2367.10041 0.02786
2365.81464 0.02786
2364.52887 0.02800
2363.24310 0.02824
2361.95733 0.02839
2360.67157 0.02831
2359.38580 0.02829
2358.10003 0.02865
2356.81426 0.02934
2355.52849 0.03000
2354.24272 0.03032
2352.95695 0.03013
2351.67118 0.02947
2350.38542 0.02885
2349.09965 0.02871
2347.81388 0.02885
2346.52811 0.02871
2345.24234 0.02851
2343.95657 0.02896
2342.67080 0.02974
2341.38503 0.02959
2340.09926 0.02864
2338.81350 0.02865
2337.52773 0.02961
2336.24196 0.02944
2334.95619 0.02842
2333.67042 0.02859
2332.38465 0.02941
2331.09888 0.02892
2329.81311 0.02847
2328.52735 0.02931
2327.24158 0.02956
2325.95581 0.02941
2324.67004 0.03007
2323.38427 0.03041
2322.09850 0.03005
2320.81273 0.03016
2319.52696 0.02992
2318.24119 0.02925
2316.95543 0.02881
2315.66966 0.02820
2314.38389 0.02769
2313.09812 0.02761
2311.81235 0.02756
2310.52658 0.02771
2309.24081 0.02793
2307.95504 0.02798
2306.66928 0.02797
2305.38351 0.02777
2304.09774 0.02740
2302.81197 0.02690
2301.52620 0.02638
2300.24043 0.02612
2298.95466 0.02611
2297.66889 0.02619
2296.38312 0.02615
2295.09736 0.02595
2293.81159 0.02581
2292.52582 0.02591
2291.24005 0.02629
2289.95428 0.02674
2288.66851 0.02690
2287.38274 0.02649
2286.09697 0.02553
2284.81121 0.02442
2283.52544 0.02372
2282.23967 0.02372
2280.95390 0.02423
2279.66813 0.02473
2278.38236 0.02482
2277.09659 0.02443
2275.81082 0.02379
2274.52505 0.02323
2273.23929 0.02303
2271.95352 0.02320
2270.66775 0.02350
2269.38198 0.02366
2268.09621 0.02362
2266.81044 0.02349
2265.52467 0.02340
2264.23890 0.02341
2262.95314 0.02340
2261.66737 0.02315
2260.38160 0.02251
2259.09583 0.02151
2257.81006 0.02046
2256.52429 0.01974
2255.23852 0.01956
2253.95275 0.01965
2252.66698 0.01950
2251.38122 0.01886
2250.09545 0.01810
2248.80968 0.01781
2247.52391 0.01811
2246.23814 0.01885
2244.95237 0.01957
2243.66660 0.02003
2242.38083 0.02034
2241.09507 0.02066
2239.80930 0.02095
2238.52353 0.02102
2237.23776 0.02087
2235.95199 0.02075
2234.66622 0.02084
2233.38045 0.02103
2232.09468 0.02103
2230.80891 0.02077
2229.52315 0.02054
2228.23738 0.02067
2226.95161 0.02124
2225.66584 0.02183
2224.38007 0.02177
2223.09430 0.02073
2221.80853 0.01916
2220.52276 0.01809
2219.23700 0.01835
2217.95123 0.01988
2216.66546 0.02177
2215.37969 0.02296
2214.09392 0.02282
2212.80815 0.02136
2211.52238 0.01902
2210.23661 0.01653
2208.95084 0.01473
2207.66508 0.01417
2206.37931 0.01462
2205.09354 0.01517
2203.80777 0.01500
2202.52200 0.01415
2201.23623 0.01339
2199.95046 0.01339
2198.66469 0.01423
2197.37893 0.01554
2196.09316 0.01674
2194.80739 0.01723
2193.52162 0.01678
2192.23585 0.01580
2190.95008 0.01500
2189.66431 0.01465
2188.37854 0.01438
2187.09277 0.01380
2185.80701 0.01302
2184.52124 0.01255
2183.23547 0.01271
2181.94970 0.01333
2180.66393 0.01403
2179.37816 0.01459
2178.09239 0.01496
2176.80662 0.01509
2175.52085 0.01491
2174.23509 0.01433
2172.94932 0.01321
2171.66355 0.01156
2170.37778 0.00993
2169.09201 0.00918
2167.80624 0.00962
2166.52047 0.01064
2165.23470 0.01139
2163.94894 0.01159
2162.66317 0.01144
2161.37740 0.01098
2160.09163 0.01002
2158.80586 0.00864
2157.52009 0.00739
2156.23432 0.00690
2154.94855 0.00740
2153.66278 0.00864
2152.37702 0.00999
2151.09125 0.01086
2149.80548 0.01125
2148.51971 0.01162
2147.23394 0.01230
2145.94817 0.01303
2144.66240 0.01336
2143.37663 0.01324
2142.09087 0.01299
2140.80510 0.01293
2139.51933 0.01313
2138.23356 0.01335
2136.94779 0.01322
2135.66202 0.01271
2134.37625 0.01226
2133.09048 0.01232
2131.80471 0.01281
2130.51895 0.01335
2129.23318 0.01374
2127.94741 0.01420
2126.66164 0.01490
2125.37587 0.01572
2124.09010 0.01632
2122.80433 0.01645
2121.51856 0.01620
2120.23280 0.01597
2118.94703 0.01612
2117.66126 0.01664
2116.37549 0.01720
2115.08972 0.01746
2113.80395 0.01741
2112.51818 0.01727
2111.23241 0.01714
2109.94664 0.01689
2108.66088 0.01643
2107.37511 0.01589
2106.08934 0.01557
2104.80357 0.01558
2103.51780 0.01567
2102.23203 0.01554
2100.94626 0.01508
2099.66049 0.01366
2098.37473 0.01291
2097.08896 0.01294
2095.80319 0.01335
2094.51742 0.01389
2093.23165 0.01447
2091.94588 0.01500
2090.66011 0.01541
2089.37434 0.01560
2088.08857 0.01553
2086.80281 0.01539
2085.51704 0.01537
2084.23127 0.01546
2082.94550 0.01539
2081.65973 0.01495
2080.37396 0.01429
2079.08819 0.01370
2077.80242 0.01336
2076.51666 0.01319
2075.23089 0.01304
2073.94512 0.01290
2072.65935 0.01280
2071.37358 0.01274
2070.08781 0.01274
2068.80204 0.01287
2067.51627 0.01316
2066.23050 0.01354
2064.94474 0.01386
2063.65897 0.01394
2062.37320 0.01366
2061.08743 0.01306
2059.80166 0.01238
2058.51589 0.01188
2057.23012 0.01170
2055.94435 0.01187
2054.65859 0.01226
2053.37282 0.01267
2052.08705 0.01274
2050.80128 0.01225
2049.51551 0.01134
2048.22974 0.01037
2046.94397 0.00962
2045.65820 0.00905
2044.37243 0.00860
2043.08667 0.00822
2041.80090 0.00778
2040.51513 0.00699
2039.22936 0.00574
2037.94359 0.00436
2036.65782 0.00339
2035.37205 0.00323
2034.08628 0.00389
2032.80052 0.00512
2031.51475 0.00652
2030.22898 0.00768
2028.94321 0.00835
2027.65744 0.00864
2026.37167 0.00882
2025.08590 0.00903
2023.80013 0.00906
2022.51436 0.00857
2021.22860 0.00743
2019.94283 0.00592
2018.65706 0.00472
2017.37129 0.00455
2016.08552 0.00559
2014.79975 0.00721
2013.51398 0.00830
2012.22821 0.00828
2010.94245 0.00741
2009.65668 0.00642
2008.37091 0.00584
2007.08514 0.00580
2005.79937 0.00628
2004.51360 0.00723
2003.22783 0.00851
2001.94206 0.00986
2000.65629 0.01095
1999.37053 0.01152
1998.08476 0.01153
1996.79899 0.01118
1995.51322 0.01073
1994.22745 0.01039
1992.94168 0.01026
1991.65591 0.01037
1990.37014 0.01060
1989.08438 0.01075
1987.79861 0.01076
1986.51284 0.01070
1985.22707 0.01062
1983.94130 0.01029
1982.65553 0.00950
1981.36976 0.00839
1980.08399 0.00744
1978.79822 0.00700
1977.51246 0.00703
1976.22669 0.00735
1974.94092 0.00790
1973.65515 0.00871
1972.36938 0.00978
1971.08361 0.01099
1969.79784 0.01212
1968.51207 0.01296
1967.22631 0.01337
1965.94054 0.01332
1964.65477 0.01285
1963.36900 0.01209
1962.08323 0.01123
1960.79746 0.01043
1959.51169 0.00984
1958.22592 0.00967
1956.94015 0.01007
1955.65439 0.01100
1954.36862 0.01215
1953.08285 0.01316
1951.79708 0.01381
1950.51131 0.01403
1949.22554 0.01383
1947.93977 0.01337
1946.65400 0.01298
1945.36823 0.01288
1944.08247 0.01300
1942.79670 0.01300
1941.51093 0.01267
1940.22516 0.01212
1938.93939 0.01167
1937.65362 0.01146
1936.36785 0.01144
1935.08208 0.01151
1933.79632 0.01166
1932.51055 0.01191
1931.22478 0.01222
1929.93901 0.01254
1928.65324 0.01291
1927.36747 0.01346
1926.08170 0.01421
1924.79593 0.01487
1923.51016 0.01511
1922.22440 0.01483
1920.93863 0.01425
1919.65286 0.01371
1918.36709 0.01335
1917.08132 0.01320
1915.79555 0.01328
1914.50978 0.01358
1913.22401 0.01398
1911.93825 0.01429
1910.65248 0.01445
1909.36671 0.01456
1908.08094 0.01475
1906.79517 0.01497
1905.50940 0.01508
1904.22363 0.01497
1902.93786 0.01470
1901.65209 0.01444
1900.36633 0.01435
1899.08056 0.01439
1897.79479 0.01432
1896.50902 0.01397
1895.22325 0.01346
1893.93748 0.01306
1892.65171 0.01297
1891.36594 0.01315
1890.08018 0.01346
1888.79441 0.01375
1887.50864 0.01396
1886.22287 0.01410
1884.93710 0.01426
1883.65133 0.01450
1882.36556 0.01473
1881.07979 0.01478
1879.79402 0.01450
1878.50826 0.01396
1877.22249 0.01341
1875.93672 0.01314
1874.65095 0.01327
1873.36518 0.01362
1872.07941 0.01394
1870.79364 0.01406
1869.50787 0.01402
1868.22211 0.01397
1866.93634 0.01399
1865.65057 0.01404
1864.36480 0.01401
1863.07903 0.01394
1861.79326 0.01395
1860.50749 0.01413
1859.22172 0.01442
1857.93595 0.01470
1856.65019 0.01487
1855.36442 0.01495
1854.07865 0.01504
1852.79288 0.01521
1851.50711 0.01541
1850.22134 0.01544
1848.93557 0.01520
1847.64980 0.01481
1846.36404 0.01455
1845.07827 0.01458
1843.79250 0.01474
1842.50673 0.01483
1841.22096 0.01480
1839.93519 0.01477
1838.64942 0.01480
1837.36365 0.01487
1836.07788 0.01491
1834.79212 0.01488
1833.50635 0.01479
1832.22058 0.01467
1830.93481 0.01458
1829.64904 0.01450
1828.36327 0.01444
1827.07750 0.01445
1825.79173 0.01456
1824.50597 0.01467
1823.22020 0.01470
1821.93443 0.01466
1820.64866 0.01462
1819.36289 0.01463
1818.07712 0.01470
1816.79135 0.01485
1815.50558 0.01508
1814.21981 0.01534
1812.93405 0.01554
1811.64828 0.01563
1810.36251 0.01562
1809.07674 0.01561
1807.79097 0.01564
1806.50520 0.01568
1805.21943 0.01567
1803.93366 0.01559
1802.64790 0.01546
1801.36213 0.01533
1800.07636 0.01523
1798.79059 0.01521
1797.50482 0.01526
1796.21905 0.01534
1794.93328 0.01538
1793.64751 0.01532
1792.36174 0.01517
1791.07598 0.01497
1789.79021 0.01480
1788.50444 0.01471
1787.21867 0.01466
1785.93290 0.01467
1784.64713 0.01472
1783.36136 0.01481
1782.07559 0.01489
1780.78983 0.01496
1779.50406 0.01505
1778.21829 0.01516
1776.93252 0.01528
1775.64675 0.01540
1774.36098 0.01555
1773.07521 0.01568
1771.78944 0.01572
1770.50367 0.01569
1769.21791 0.01569
1767.93214 0.01575
1766.64637 0.01583
1765.36060 0.01591
1764.07483 0.01598
1762.78906 0.01601
1761.50329 0.01594
1760.21752 0.01581
1758.93176 0.01572
1757.64599 0.01575
1756.36022 0.01583
1755.07445 0.01585
1753.78868 0.01582
1752.50291 0.01576
1751.21714 0.01568
1749.93137 0.01562
1748.64560 0.01564
1747.35984 0.01574
1746.07407 0.01586
1744.78830 0.01589
1743.50253 0.01586
1742.21676 0.01582
1740.93099 0.01584
1739.64522 0.01586
1738.35945 0.01582
1737.07369 0.01579
1735.78792 0.01589
1734.50215 0.01608
1733.21638 0.01622
1731.93061 0.01638
1730.64484 0.01665
1729.35907 0.01699
1728.07330 0.01725
1726.78753 0.01737
1725.50177 0.01743
1724.21600 0.01749
1722.93023 0.01758
1721.64446 0.01766
1720.35869 0.01773
1719.07292 0.01782
1717.78715 0.01797
1716.50138 0.01820
1715.21561 0.01858
1713.92985 0.01911
1712.64408 0.01972
1711.35831 0.02035
1710.07254 0.02096
1708.78677 0.02154
1707.50100 0.02211
1706.21523 0.02271
1704.92946 0.02338
1703.64370 0.02424
1702.35793 0.02538
1701.07216 0.02666
1699.78639 0.02781
1698.50062 0.02882
1697.21485 0.02993
1695.92908 0.03117
1694.64331 0.03239
1693.35754 0.03364
1692.07178 0.03503
1690.78601 0.03649
1689.50024 0.03782
1688.21447 0.03900
1686.92870 0.04024
1685.64293 0.04168
1684.35716 0.04322
1683.07139 0.04470
1681.78563 0.04613
1680.49986 0.04753
1679.21409 0.04884
1677.92832 0.05009
1676.64255 0.05139
1675.35678 0.05273
1674.07101 0.05405
1672.78524 0.05538
1671.49947 0.05681
1670.21371 0.05829
1668.92794 0.05969
1667.64217 0.06095
1666.35640 0.06216
1665.07063 0.06338
1663.78486 0.06465
1662.49909 0.06587
1661.21332 0.06702
1659.92756 0.06810
1658.64179 0.06906
1657.35602 0.06986
1656.07025 0.07059
1654.78448 0.07141
1653.49871 0.07229
1652.21294 0.07301
1650.92717 0.07359
1649.64140 0.07422
1648.35564 0.07496
1647.06987 0.07566
1645.78410 0.07617
1644.49833 0.07650
1643.21256 0.07673
1641.92679 0.07690
1640.64102 0.07698
1639.35525 0.07694
1638.06949 0.07683
1636.78372 0.07666
1635.49795 0.07634
1634.21218 0.07580
1632.92641 0.07510
1631.64064 0.07435
1630.35487 0.07351
1629.06910 0.07253
1627.78333 0.07140
1626.49757 0.07019
1625.21180 0.06900
1623.92603 0.06781
1622.64026 0.06656
1621.35449 0.06524
1620.06872 0.06395
1618.78295 0.06281
1617.49718 0.06179
1616.21142 0.06076
1614.92565 0.05966
1613.63988 0.05857
1612.35411 0.05754
1611.06834 0.05657
1609.78257 0.05565
1608.49680 0.05480
1607.21103 0.05398
1605.92526 0.05320
1604.63950 0.05247
1603.35373 0.05183
1602.06796 0.05129
1600.78219 0.05083
1599.49642 0.05045
1598.21065 0.05015
1596.92488 0.04990
1595.63911 0.04967
1594.35335 0.04944
1593.06758 0.04922
1591.78181 0.04906
1590.49604 0.04895
1589.21027 0.04889
1587.92450 0.04889
1586.63873 0.04892
1585.35296 0.04891
1584.06719 0.04883
1582.78143 0.04871
1581.49566 0.04863
1580.20989 0.04863
1578.92412 0.04881
1577.63835 0.04923
1576.35258 0.04981
1575.06681 0.05037
1573.78104 0.05090
1572.49528 0.05152
1571.20951 0.05223
1569.92374 0.05296
1568.63797 0.05363
1567.35220 0.05424
1566.06643 0.05484
1564.78066 0.05533
1563.49489 0.05567
1562.20912 0.05594
1560.92336 0.05629
1559.63759 0.05670
1558.35182 0.05707
1557.06605 0.05744
1555.78028 0.05792
1554.49451 0.05848
1553.20874 0.05895
1551.92297 0.05929
1550.63721 0.05951
1549.35144 0.05961
1548.06567 0.05958
1546.77990 0.05944
1545.49413 0.05922
1544.20836 0.05892
1542.92259 0.05863
1541.63682 0.05848
1540.35105 0.05854
1539.06529 0.05875
1537.77952 0.05907
1536.49375 0.05956
1535.20798 0.06017
1533.92221 0.06073
1532.63644 0.06110
1531.35067 0.06133
1530.06490 0.06153
1528.77914 0.06177
1527.49337 0.06202
1526.20760 0.06224
1524.92183 0.06241
1523.63606 0.06257
1522.35029 0.06273
1521.06452 0.06286
1519.77875 0.06296
1518.49298 0.06318
1517.20722 0.06358
1515.92145 0.06407
1514.63568 0.06455
1513.34991 0.06497
1512.06414 0.06530
1510.77837 0.06553
1509.49260 0.06579
1508.20683 0.06615
1506.92107 0.06657
1505.63530 0.06689
1504.34953 0.06716
1503.06376 0.06747
1501.77799 0.06783
1500.49222 0.06814
1499.20645 0.06835
1497.92068 0.06853
1496.63491 0.06870
1495.34915 0.06882
1494.06338 0.06889
1492.77761 0.06895
1491.49184 0.06908
1490.20607 0.06926
1488.92030 0.06954
1487.63453 0.06992
1486.34876 0.07041
1485.06299 0.07098
1483.77723 0.07162
1482.49146 0.07235
1481.20569 0.07314
1479.91992 0.07392
1478.63415 0.07462
1477.34838 0.07516
1476.06261 0.07553
1474.77684 0.07588
1473.49108 0.07636
1472.20531 0.07700
1470.91954 0.07773
1469.63377 0.07844
1468.34800 0.07906
1467.06223 0.07957
1465.77646 0.08001
1464.49069 0.08048
1463.20492 0.08109
1461.91916 0.08187
1460.63339 0.08280
1459.34762 0.08380
1458.06185 0.08481
1456.77608 0.08571
1455.49031 0.08643
1454.20454 0.08706
1452.91877 0.08766
1451.63301 0.08822
1450.34724 0.08870
1449.06147 0.08907
1447.77570 0.08927
1446.48993 0.08929
1445.20416 0.08917
1443.91839 0.08899
1442.63262 0.08877
1441.34685 0.08847
1440.06109 0.08812
1438.77532 0.08778
1437.48955 0.08753
1436.20378 0.08738
1434.91801 0.08737
1433.63224 0.08758
1432.34647 0.08803
1431.06070 0.08864
1429.77494 0.08937
1428.48917 0.09017
1427.20340 0.09102
1425.91763 0.09187
1424.63186 0.09271
1423.34609 0.09355
1422.06032 0.09444
1420.77455 0.09540
1419.48878 0.09637
1418.20302 0.09726
1416.91725 0.09808
1415.63148 0.09884
1414.34571 0.09946
1413.05994 0.09990
1411.77417 0.10019
1410.48840 0.10034
1409.20263 0.10033
1407.91687 0.10011
1406.63110 0.09971
1405.34533 0.09917
1404.05956 0.09853
1402.77379 0.09781
1401.48802 0.09701
1400.20225 0.09607
1398.91648 0.09498
1397.63071 0.09374
1396.34495 0.09240
1395.05918 0.09102
1393.77341 0.08960
1392.48764 0.08817
1391.20187 0.08673
1389.91610 0.08529
1388.63033 0.08379
1387.34456 0.08221
1386.05880 0.08057
1384.77303 0.07893
1383.48726 0.07731
1382.20149 0.07568
1380.91572 0.07403
1379.62995 0.07233
1378.34418 0.07060
1377.05841 0.06887
1375.77264 0.06718
1374.48688 0.06553
1373.20111 0.06389
1371.91534 0.06226
1370.62957 0.06066
1369.34380 0.05912
1368.05803 0.05767
1366.77226 0.05628
1365.48649 0.05494
1364.20073 0.05365
1362.91496 0.05239
1361.62919 0.05119
1360.34342 0.05008
1359.05765 0.04909
1357.77188 0.04823
1356.48611 0.04747
1355.20034 0.04680
1353.91457 0.04619
1352.62881 0.04563
1351.34304 0.04510
1350.05727 0.04459
1348.77150 0.04411
1347.48573 0.04366
1346.19996 0.04328
1344.91419 0.04294
1343.62842 0.04260
1342.34266 0.04225
1341.05689 0.04192
1339.77112 0.04163
1338.48535 0.04137
1337.19958 0.04112
1335.91381 0.04087
1334.62804 0.04056
1333.34227 0.04016
1332.05650 0.03968
1330.77074 0.03921
1329.48497 0.03882
1328.19920 0.03850
1326.91343 0.03822
1325.62766 0.03795
1324.34189 0.03768
1323.05612 0.03739
1321.77035 0.03706
1320.48459 0.03667
1319.19882 0.03623
1317.91305 0.03580
1316.62728 0.03542
1315.34151 0.03511
1314.05574 0.03483
1312.76997 0.03453
1311.48420 0.03419
1310.19843 0.03382
1308.91267 0.03347
1307.62690 0.03314
1306.34113 0.03284
1305.05536 0.03254
1303.76959 0.03225
1302.48382 0.03199
1301.19805 0.03177
1299.91228 0.03158
1298.62652 0.03142
1297.34075 0.03126
1296.05498 0.03109
1294.76921 0.03092
1293.48344 0.03076
1292.19767 0.03064
1290.91190 0.03054
1289.62613 0.03042
1288.34036 0.03032
1287.05460 0.03026
1285.76883 0.03027
1284.48306 0.03029
1283.19729 0.03029
1281.91152 0.03025
1280.62575 0.03019
1279.33998 0.03010
1278.05421 0.02999
1276.76845 0.02987
1275.48268 0.02975
1274.19691 0.02961
1272.91114 0.02945
1271.62537 0.02928
1270.33960 0.02916
1269.05383 0.02912
1267.76806 0.02914
1266.48229 0.02915
1265.19653 0.02913
1263.91076 0.02911
1262.62499 0.02910
1261.33922 0.02911
1260.05345 0.02914
1258.76768 0.02917
1257.48191 0.02921
1256.19614 0.02926
1254.91037 0.02931
1253.62461 0.02936
1252.33884 0.02940
1251.05307 0.02942
1249.76730 0.02945
1248.48153 0.02945
1247.19576 0.02944
1245.90999 0.02943
1244.62422 0.02942
1243.33846 0.02941
1242.05269 0.02936
1240.76692 0.02923
1239.48115 0.02902
1238.19538 0.02876
1236.90961 0.02850
1235.62384 0.02827
1234.33807 0.02809
1233.05230 0.02794
1231.76654 0.02777
1230.48077 0.02757
1229.19500 0.02732
1227.90923 0.02703
1226.62346 0.02673
1225.33769 0.02643
1224.05192 0.02611
1222.76615 0.02579
1221.48039 0.02545
1220.19462 0.02512
1218.90885 0.02479
1217.62308 0.02446
1216.33731 0.02414
1215.05154 0.02385
1213.76577 0.02363
1212.48000 0.02348
1211.19423 0.02339
1209.90847 0.02333
1208.62270 0.02329
1207.33693 0.02325
1206.05116 0.02322
1204.76539 0.02321
1203.47962 0.02320
1202.19385 0.02319
1200.90808 0.02321
1199.62232 0.02327
1198.33655 0.02315
1197.05078 0.02296
1195.76501 0.02274
1194.47924 0.02252
1193.19347 0.02230
1191.90770 0.02208
1190.62193 0.02184
1189.33616 0.02160
1188.05040 0.02138
1186.76463 0.02118
1185.47886 0.02102
1184.19309 0.02090
1182.90732 0.02081
1181.62155 0.02076
1180.33578 0.02074
1179.05001 0.02073
1177.76425 0.02070
1176.47848 0.02065
1175.19271 0.02063
1173.90694 0.02064
1172.62117 0.02068
1171.33540 0.02074
1170.04963 0.02082
1168.76386 0.02091
1167.47809 0.02100
1166.19233 0.02109
1164.90656 0.02121
1163.62079 0.02136
1162.33502 0.02152
1161.04925 0.02164
1159.76348 0.02173
1158.47771 0.02180
1157.19194 0.02187
1155.90618 0.02195
1154.62041 0.02205
1153.33464 0.02218
1152.04887 0.02234
1150.76310 0.02253
1149.47733 0.02277
1148.19156 0.02311
1146.90579 0.02352
1145.62002 0.02394
1144.33426 0.02432
1143.04849 0.02471
1141.76272 0.02519
1140.47695 0.02580
1139.19118 0.02653
1137.90541 0.02733
1136.61964 0.02819
1135.33387 0.02914
1134.04811 0.03022
1132.76234 0.03142
1131.47657 0.03273
1130.19080 0.03418
1128.90503 0.03582
1127.61926 0.03772
1126.33349 0.03986
1125.04772 0.04216
1123.76195 0.04453
1122.47619 0.04695
1121.19042 0.04945
1119.90465 0.05210
1118.61888 0.05488
1117.33311 0.05768
1116.04734 0.06042
1114.76157 0.06309
1113.47580 0.06572
1112.19004 0.06836
1110.90427 0.07099
1109.61850 0.07354
1108.33273 0.07597
1107.04696 0.07829
1105.76119 0.08053
1104.47542 0.08274
1103.18965 0.08494
1101.90388 0.08711
1100.61812 0.08921
1099.33235 0.09122
1098.04658 0.09314
1096.76081 0.09498
1095.47504 0.09675
1094.18927 0.09848
1092.90350 0.10017
1091.61773 0.10182
1090.33197 0.10335
1089.04620 0.10473
1087.76043 0.10599
1086.47466 0.10723
1085.18889 0.10855
1083.90312 0.10998
1082.61735 0.11151
1081.33158 0.11312
1080.04581 0.11482
1078.76005 0.11660
1077.47428 0.11843
1076.18851 0.12028
1074.90274 0.12217
1073.61697 0.12415
1072.33120 0.12631
1071.04543 0.12864
1069.75966 0.13107
1068.47390 0.13353
1067.18813 0.13597
1065.90236 0.13841
1064.61659 0.14091
1063.33082 0.14350
1062.04505 0.14613
1060.75928 0.14871
1059.47351 0.15124
1058.18774 0.15376
1056.90198 0.15631
1055.61621 0.15886
1054.33044 0.16137
1053.04467 0.16383
1051.75890 0.16626
1050.47313 0.16872
1049.18736 0.17120
1047.90159 0.17371
1046.61583 0.17624
1045.33006 0.17883
1044.04429 0.18148
1042.75852 0.18414
1041.47275 0.18677
1040.18698 0.18941
1038.90121 0.19206
1037.61544 0.19471
1036.32967 0.19735
1035.04391 0.20002
1033.75814 0.20275
1032.47237 0.20543
1031.18660 0.20792
1029.90083 0.21009
1028.61506 0.21198
1027.32929 0.21366
1026.04352 0.21520
1024.75775 0.21656
1023.47199 0.21773
1022.18622 0.21868
1020.90045 0.21940
1019.61468 0.21986
1018.32891 0.22006
1017.04314 0.21995
1015.75737 0.21955
1014.47160 0.21883
1013.18584 0.21780
1011.90007 0.21644
1010.61430 0.21478
1009.32853 0.21288
1008.04276 0.21074
1006.75699 0.20833
1005.47122 0.20563
1004.18545 0.20260
1002.89968 0.19928
1001.61392 0.19572
1000.32815 0.19196
999.04238 0.18809
997.75661 0.18414
996.47084 0.18011
995.18507 0.17599
993.89930 0.17175
992.61353 0.16742
991.32777 0.16303
990.04200 0.15859
988.75623 0.15416
987.47046 0.14981
986.18469 0.14555
984.89892 0.14134
983.61315 0.13717
982.32738 0.13308
981.04161 0.12911
979.75585 0.12532
978.47008 0.12175
977.18431 0.11840
975.89854 0.11528
974.61277 0.11244
973.32700 0.10992
972.04123 0.10777
970.75546 0.10605
969.46970 0.10480
968.18393 0.10406
966.89816 0.10378
965.61239 0.10386
964.32662 0.10410
963.04085 0.10433
961.75508 0.10444
960.46931 0.10434
959.18354 0.10387
957.89778 0.10293
956.61201 0.10152
955.32624 0.09978
954.04047 0.09787
952.75470 0.09588
951.46893 0.09381
950.18316 0.09166
948.89739 0.08949
947.61163 0.08736
946.32586 0.08536
945.04009 0.08352
943.75432 0.08176
942.46855 0.07999
941.18278 0.07819
939.89701 0.07641
938.61124 0.07474
937.32547 0.07322
936.03971 0.07177
934.75394 0.07038
933.46817 0.06908
932.18240 0.06789
930.89663 0.06679
929.61086 0.06569
928.32509 0.06458
927.03932 0.06352
925.75356 0.06256
924.46779 0.06168
923.18202 0.06085
921.89625 0.06002
920.61048 0.05917
919.32471 0.05835
918.03894 0.05758
916.75317 0.05689
915.46740 0.05623
914.18164 0.05554
912.89587 0.05487
911.61010 0.05424
910.32433 0.05364
909.03856 0.05303
907.75279 0.05244
906.46702 0.05196
905.18125 0.05159
903.89549 0.05125
902.60972 0.05079
901.32395 0.05017
900.03818 0.04947
898.75241 0.04881
897.46664 0.04826
896.18087 0.04781
894.89510 0.04742
893.60933 0.04708
892.32357 0.04682
891.03780 0.04665
889.75203 0.04657
888.46626 0.04662
887.18049 0.04690
885.89472 0.04757
884.60895 0.04878
883.32318 0.05058
882.03742 0.05284
880.75165 0.05521
879.46588 0.05733
878.18011 0.05908
876.89434 0.06059
875.60857 0.06205
874.32280 0.06351
873.03703 0.06478
871.75126 0.06558
870.46550 0.06572
869.17973 0.06520
867.89396 0.06415
866.60819 0.06271
865.32242 0.06096
864.03665 0.05897
862.75088 0.05690
861.46511 0.05494
860.17935 0.05327
858.89358 0.05189
857.60781 0.05070
856.32204 0.04961
855.03627 0.04861
853.75050 0.04771
852.46473 0.04696
851.17896 0.04638
849.89319 0.04596
848.60743 0.04561
847.32166 0.04521
846.03589 0.04473
844.75012 0.04422
843.46435 0.04377
842.17858 0.04338
840.89281 0.04303
839.60704 0.04269
838.32128 0.04237
837.03551 0.04208
835.74974 0.04183
834.46397 0.04159
833.17820 0.04136
831.89243 0.04117
830.60666 0.04101
829.32089 0.04086
828.03512 0.04067
826.74936 0.04048
825.46359 0.04032
824.17782 0.04021
822.89205 0.04008
821.60628 0.03989
820.32051 0.03967
819.03474 0.03946
817.74897 0.03934
816.46321 0.03930
815.17744 0.03932
813.89167 0.03935
812.60590 0.03933
811.32013 0.03925
810.03436 0.03913
808.74859 0.03902
807.46282 0.03896
806.17705 0.03891
804.89129 0.03884
803.60552 0.03878
802.31975 0.03879
801.03398 0.03881
799.74821 0.03880
798.46244 0.03875
797.17667 0.03871
795.89090 0.03873
794.60513 0.03876
793.31937 0.03873
792.03360 0.03865
790.74783 0.03857
789.46206 0.03852
788.17629 0.03848
786.89052 0.03845
785.60475 0.03841
784.31898 0.03838
783.03322 0.03833
781.74745 0.03825
780.46168 0.03821
779.17591 0.03825
777.89014 0.03840
776.60437 0.03860
775.31860 0.03871
774.03283 0.03866
772.74706 0.03847
771.46130 0.03827
770.17553 0.03817
768.88976 0.03817
767.60399 0.03819
766.31822 0.03817
765.03245 0.03810
763.74668 0.03803
762.46091 0.03799
761.17515 0.03803
759.88938 0.03818
758.60361 0.03843
757.31784 0.03873
756.03207 0.03900
754.74630 0.03917
753.46053 0.03919
752.17476 0.03911
750.88899 0.03900
749.60323 0.03895
748.31746 0.03892
747.03169 0.03887
745.74592 0.03879
744.46015 0.03873
743.17438 0.03875
741.88861 0.03881
740.60284 0.03883
739.31708 0.03876
738.03131 0.03866
736.74554 0.03857
735.45977 0.03853
734.17400 0.03855
732.88823 0.03867
731.60246 0.03892
730.31669 0.03919
729.03092 0.03935
727.74516 0.03933
726.45939 0.03920
725.17362 0.03903
723.88785 0.03882
722.60208 0.03876
721.31631 0.03882
720.03054 0.03895
718.74477 0.03913
717.45901 0.03934
716.17324 0.03953
714.88747 0.03962
713.60170 0.03959
712.31593 0.03949
711.03016 0.03941
709.74439 0.03941
708.45862 0.03946
707.17285 0.03950
705.88709 0.03949
704.60132 0.03944
703.31555 0.03939
702.02978 0.03935
700.74401 0.03934
699.45824 0.03935
698.17247 0.03937
696.88670 0.03943
695.60094 0.03951
694.31517 0.03960
693.02940 0.03964
691.74363 0.03963
690.45786 0.03959
689.17209 0.03954
687.88632 0.03947
686.60055 0.03937
685.31478 0.03924
684.02902 0.03906
682.74325 0.03885
681.45748 0.03864
680.17171 0.03849
678.88594 0.03843
677.60017 0.03844
676.31440 0.03847
675.02863 0.03851
673.74287 0.03857
672.45710 0.03870
671.17133 0.03890
669.88556 0.03911
668.59979 0.03927
667.31402 0.03932
666.02825 0.03912
664.74248 0.03880
663.45671 0.03848
662.17095 0.03823
660.88518 0.03806
659.59941 0.03795
658.31364 0.03787
657.02787 0.03782
655.74210 0.03776
654.45633 0.03765
653.17056 0.03749
651.88480 0.03728
650.59903 0.03708
649.31326 0.03693
648.02749 0.03684
646.74172 0.03683
645.45595 0.03685
644.17018 0.03684
642.88441 0.03673
641.59864 0.03652
640.31288 0.03626
639.02711 0.03610
637.74134 0.03612
636.45557 0.03629
635.16980 0.03652
633.88403 0.03672
632.59826 0.03692
631.31249 0.03706
630.02673 0.03671
628.74096 0.03619
627.45519 0.03769
626.16942 0.03749
624.88365 0.03611
623.59788 0.03486
622.31211 0.03440
621.02634 0.03525
619.74057 0.03755
618.45481 0.04090
617.16904 0.04470
615.88327 0.04834
614.59750 0.05130
613.31173 0.05355
612.02596 0.05594
610.74019 0.05949
609.45442 0.06406
608.16866 0.06849
606.88289 0.07227
605.59712 0.07611
604.31135 0.08055
603.02558 0.08494
601.73981 0.08805
600.45404 0.08934
599.16827 0.08914
597.88250 0.08801
596.59674 0.08627
595.31097 0.08417
594.02520 0.08199
592.73943 0.08008
591.45366 0.07864
590.16789 0.07771
588.88212 0.07727
587.59635 0.07731
586.31059 0.07779
585.02482 0.07866
583.73905 0.07987
582.45328 0.08140
581.16751 0.08323
579.88174 0.08533
578.59597 0.08764
577.31020 0.09001
576.02443 0.09229
574.73867 0.09435
573.45290 0.09621
572.16713 0.09799
570.88136 0.09989
569.59559 0.10213
568.30982 0.10485
567.02405 0.10803
565.73828 0.11143
564.45251 0.11463
563.16675 0.11722
561.88098 0.11885
560.59521 0.11934
559.30944 0.11863
558.02367 0.11678
556.73790 0.11398
555.45213 0.11049
554.16636 0.10664
552.88060 0.10270
551.59483 0.09884
550.30906 0.09509
549.02329 0.09144
547.73752 0.08792
546.45175 0.08463
545.16598 0.08166
543.88021 0.07902
542.59444 0.07669
541.30868 0.07457
540.02291 0.07260
538.73714 0.07073
537.45137 0.06898
536.16560 0.06734
534.87983 0.06577
533.59406 0.06430
532.30829 0.06291
531.02253 0.06161
529.73676 0.06036
528.45099 0.05924
527.16522 0.05830
525.87945 0.05751
524.59368 0.05670
523.30791 0.05573
522.02214 0.05460
520.73637 0.05349
519.45061 0.05254
518.16484 0.05176
516.87907 0.05103
515.59330 0.05021
514.30753 0.04929
513.02176 0.04838
511.73599 0.04762
510.45022 0.04701
509.16446 0.04641
507.87869 0.04572
506.59292 0.04499
505.30715 0.04434
504.02138 0.04386
502.73561 0.04348
501.44984 0.04311
500.16407 0.04271
498.87830 0.04231
497.59254 0.04189
496.30677 0.04142
495.02100 0.04093
493.73523 0.04049
492.44946 0.04013
491.16369 0.03976
489.87792 0.03932
488.59215 0.03888
487.30639 0.03855
486.02062 0.03838
484.73485 0.03828
483.44908 0.03814
482.16331 0.03793
480.87754 0.03776
479.59177 0.03770
478.30600 0.03776
477.02023 0.03785
475.73447 0.03792
474.44870 0.03798
473.16293 0.03803
471.87716 0.03804
470.59139 0.03798
469.30562 0.03790
468.01985 0.03780
466.73408 0.03761
465.44832 0.03726
464.16255 0.03675
462.87678 0.03620
461.59101 0.03574
460.30524 0.03541
459.01947 0.03511
457.73370 0.03477
456.44793 0.03434
455.16216 0.03390
453.87640 0.03351
452.59063 0.03321
451.30486 0.03295
450.01909 0.03265
448.73332 0.03226
447.44755 0.03182
446.16178 0.03143
444.87601 0.03116
443.59025 0.03098
442.30448 0.03081
441.01871 0.03060
439.73294 0.03033
438.44717 0.03007
437.16140 0.02984
435.87563 0.02965
434.58986 0.02949
433.30409 0.02936
432.01833 0.02926
430.73256 0.02912
429.44679 0.02891
428.16102 0.02864
426.87525 0.02837
425.58948 0.02814
424.30371 0.02797
423.01794 0.02783
421.73218 0.02770
420.44641 0.02758
419.16064 0.02743
417.87487 0.02722
416.58910 0.02697
415.30333 0.02674
414.01756 0.02656
412.73179 0.02645
411.44602 0.02638
410.16026 0.02630
408.87449 0.02616
407.58872 0.02597
406.30295 0.02574
405.01718 0.02555
403.73141 0.02542
402.44564 0.02536
401.15987 0.02534
399.87411 0.02535
