3997.45528	0.04714
3996.16951	0.04664
3994.88374	0.04658
3993.59798	0.04722
3992.31221	0.04836
3991.02644	0.04926
3989.74067	0.04923
3988.45490	0.04829
3987.16913	0.04721
3985.88336	0.04674
3984.59759	0.04690
3983.31183	0.04715
3982.02606	0.04719
3980.74029	0.04720
3979.45452	0.04751
3978.16875	0.04815
3976.88298	0.04887
3975.59721	0.04933
3974.31144	0.04914
3973.02567	0.04802
3971.73991	0.04625
3970.45414	0.04459
3969.16837	0.04366
3967.88260	0.04351
3966.59683	0.04374
3965.31106	0.04400
3964.02529	0.04427
3962.73952	0.04463
3961.45376	0.04512
3960.16799	0.04557
3958.88222	0.04578
3957.59645	0.04579
3956.31068	0.04599
3955.02491	0.04672
3953.73914	0.04791
3952.45337	0.04910
3951.16760	0.04980
3949.88184	0.04980
3948.59607	0.04918
3947.31030	0.04827
3946.02453	0.04749
3944.73876	0.04714
3943.45299	0.04722
3942.16722	0.04749
3940.88145	0.04774
3939.59569	0.04784
3938.30992	0.04765
3937.02415	0.04711
3935.73838	0.04633
3934.45261	0.04565
3933.16684	0.04538
3931.88107	0.04566
3930.59530	0.04638
3929.30953	0.04720
3928.02377	0.04773
3926.73800	0.04783
3925.45223	0.04770
3924.16646	0.04765
3922.88069	0.04774
3921.59492	0.04778
3920.30915	0.04760
3919.02338	0.04714
3917.73762	0.04656
3916.45185	0.04611
3915.16608	0.04593
3913.88031	0.04597
3912.59454	0.04605
3911.30877	0.04597
3910.02300	0.04562
3908.73723	0.04505
3907.45146	0.04433
3906.16570	0.04344
3904.87993	0.04239
3903.59416	0.04142
3902.30839	0.04097
3901.02262	0.04125
3899.73685	0.04211
3898.45108	0.04316
3897.16531	0.04400
3895.87955	0.04423
3894.59378	0.04364
3893.30801	0.04240
3892.02224	0.04123
3890.73647	0.04084
3889.45070	0.04130
3888.16493	0.04200
3886.87916	0.04245
3885.59339	0.04262
3884.30763	0.04266
3883.02186	0.04254
3881.73609	0.04238
3880.45032	0.04244
3879.16455	0.04276
3877.87878	0.04303
3876.59301	0.04316
3875.30724	0.04355
3874.02148	0.04458
3872.73571	0.04590
3871.44994	0.04665
3870.16417	0.04635
3868.87840	0.04522
3867.59263	0.04371
3866.30686	0.04230
3865.02109	0.04142
3863.73532	0.04129
3862.44956	0.04175
3861.16379	0.04247
3859.87802	0.04330
3858.59225	0.04434
3857.30648	0.04565
3856.02071	0.04683
3854.73494	0.04730
3853.44917	0.04693
3852.16341	0.04612
3850.87764	0.04529
3849.59187	0.04463
3848.30610	0.04402
3847.02033	0.04337
3845.73456	0.04277
3844.44879	0.04253
3843.16302	0.04286
3841.87725	0.04363
3840.59149	0.04431
3839.30572	0.04447
3838.01995	0.04418
3836.73418	0.04383
3835.44841	0.04369
3834.16264	0.04382
3832.87687	0.04418
3831.59110	0.04456
3830.30534	0.04456
3829.01957	0.04396
3827.73380	0.04310
3826.44803	0.04278
3825.16226	0.04341
3823.87649	0.04453
3822.59072	0.04522
3821.30495	0.04505
3820.01918	0.04428
3818.73342	0.04345
3817.44765	0.04303
3816.16188	0.04328
3814.87611	0.04396
3813.59034	0.04438
3812.30457	0.04421
3811.01880	0.04372
3809.73303	0.04330
3808.44726	0.04305
3807.16150	0.04309
3805.87573	0.04351
3804.58996	0.04405
3803.30419	0.04421
3802.01842	0.04382
3800.73265	0.04326
3799.44688	0.04285
3798.16111	0.04264
3796.87535	0.04252
3795.58958	0.04245
3794.30381	0.04234
3793.01804	0.04219
3791.73227	0.04210
3790.44650	0.04218
3789.16073	0.04234
3787.87496	0.04231
3786.58919	0.04193
3785.30343	0.04136
3784.01766	0.04090
3782.73189	0.04072
3781.44612	0.04078
3780.16035	0.04104
3778.87458	0.04146
3777.58881	0.04193
3776.30304	0.04227
3775.01728	0.04235
3773.73151	0.04223
3772.44574	0.04209
3771.15997	0.04221
3769.87420	0.04275
3768.58843	0.04358
3767.30266	0.04434
3766.01689	0.04476
3764.73112	0.04472
3763.44536	0.04417
3762.15959	0.04316
3760.87382	0.04185
3759.58805	0.04053
3758.30228	0.03957
3757.01651	0.03924
3755.73074	0.03949
3754.44497	0.03985
3753.15921	0.03999
3751.87344	0.04007
3750.58767	0.04050
3749.30190	0.04129
3748.01613	0.04189
3746.73036	0.04150
3745.44459	0.04008
3744.15882	0.03850
3742.87305	0.03756
3741.58729	0.03724
3740.30152	0.03720
3739.01575	0.03716
3737.72998	0.03711
3736.44421	0.03729
3735.15844	0.03795
3733.87267	0.03892
3732.58690	0.03977
3731.30114	0.04027
3730.01537	0.04053
3728.72960	0.04074
3727.44383	0.04102
3726.15806	0.04127
3724.87229	0.04132
3723.58652	0.04108
3722.30075	0.04067
3721.01498	0.04036
3719.72922	0.04028
3718.44345	0.04047
3717.15768	0.04088
3715.87191	0.04140
3714.58614	0.04175
3713.30037	0.04164
3712.01460	0.04094
3710.72883	0.03993
3709.44307	0.03914
3708.15730	0.03907
3706.87153	0.03959
3705.58576	0.03999
3704.29999	0.03965
3703.01422	0.03865
3701.72845	0.03754
3700.44268	0.03675
3699.15691	0.03634
3697.87115	0.03625
3696.58538	0.03659
3695.29961	0.03740
3694.01384	0.03840
3692.72807	0.03922
3691.44230	0.03967
3690.15653	0.03977
3688.87076	0.03961
3687.58500	0.03924
3686.29923	0.03868
3685.01346	0.03791
3683.72769	0.03712
3682.44192	0.03659
3681.15615	0.03652
3679.87038	0.03697
3678.58461	0.03786
3677.29884	0.03909
3676.01308	0.04067
3674.72731	0.04243
3673.44154	0.04375
3672.15577	0.04401
3670.87000	0.04332
3669.58423	0.04236
3668.29846	0.04166
3667.01269	0.04135
3665.72693	0.04132
3664.44116	0.04130
3663.15539	0.04101
3661.86962	0.04053
3660.58385	0.04020
3659.29808	0.04028
3658.01231	0.04067
3656.72654	0.04124
3655.44077	0.04193
3654.15501	0.04263
3652.86924	0.04306
3651.58347	0.04307
3650.29770	0.04267
3649.01193	0.04202
3647.72616	0.04138
3646.44039	0.04111
3645.15462	0.04167
3643.86886	0.04309
3642.58309	0.04482
3641.29732	0.04608
3640.01155	0.04645
3638.72578	0.04608
3637.44001	0.04537
3636.15424	0.04473
3634.86847	0.04450
3633.58270	0.04489
3632.29694	0.04562
3631.01117	0.04620
3629.72540	0.04641
3628.43963	0.04649
3627.15386	0.04661
3625.86809	0.04670
3624.58232	0.04681
3623.29655	0.04713
3622.01079	0.04769
3620.72502	0.04824
3619.43925	0.04857
3618.15348	0.04876
3616.86771	0.04904
3615.58194	0.04943
3614.29617	0.04962
3613.01040	0.04926
3611.72463	0.04840
3610.43887	0.04755
3609.15310	0.04722
3607.86733	0.04751
3606.58156	0.04804
3605.29579	0.04843
3604.01002	0.04877
3602.72425	0.04937
3601.43848	0.05024
3600.15272	0.05095
3598.86695	0.05111
3597.58118	0.05076
3596.29541	0.05034
3595.00964	0.05033
3593.72387	0.05082
3592.43810	0.05152
3591.15233	0.05199
3589.86656	0.05203
3588.58080	0.05184
3587.29503	0.05178
3586.00926	0.05212
3584.72349	0.05281
3583.43772	0.05352
3582.15195	0.05383
3580.86618	0.05358
3579.58041	0.05292
3578.29464	0.05235
3577.00888	0.05232
3575.72311	0.05292
3574.43734	0.05391
3573.15157	0.05502
3571.86580	0.05610
3570.58003	0.05695
3569.29426	0.05737
3568.00849	0.05733
3566.72273	0.05709
3565.43696	0.05687
3564.15119	0.05668
3562.86542	0.05646
3561.57965	0.05630
3560.29388	0.05633
3559.00811	0.05645
3557.72234	0.05647
3556.43657	0.05645
3555.15081	0.05664
3553.86504	0.05714
3552.57927	0.05770
3551.29350	0.05811
3550.00773	0.05843
3548.72196	0.05883
3547.43619	0.05931
3546.15042	0.05978
3544.86466	0.06025
3543.57889	0.06076
3542.29312	0.06115
3541.00735	0.06122
3539.72158	0.06099
3538.43581	0.06068
3537.15004	0.06044
3535.86427	0.06026
3534.57850	0.06010
3533.29274	0.06004
3532.00697	0.06012
3530.72120	0.06026
3529.43543	0.06045
3528.14966	0.06085
3526.86389	0.06160
3525.57812	0.06253
3524.29235	0.06335
3523.00659	0.06401
3521.72082	0.06467
3520.43505	0.06540
3519.14928	0.06608
3517.86351	0.06660
3516.57774	0.06694
3515.29197	0.06707
3514.00620	0.06698
3512.72043	0.06664
3511.43467	0.06608
3510.14890	0.06534
3508.86313	0.06463
3507.57736	0.06422
3506.29159	0.06415
3505.00582	0.06414
3503.72005	0.06406
3502.43428	0.06426
3501.14852	0.06527
3499.86275	0.06698
3498.57698	0.06860
3497.29121	0.06940
3496.00544	0.06926
3494.71967	0.06855
3493.43390	0.06766
3492.14813	0.06694
3490.86236	0.06683
3489.57660	0.06765
3488.29083	0.06914
3487.00506	0.07053
3485.71929	0.07112
3484.43352	0.07078
3483.14775	0.06984
3481.86198	0.06884
3480.57621	0.06818
3479.29045	0.06796
3478.00468	0.06807
3476.71891	0.06840
3475.43314	0.06898
3474.14737	0.06974
3472.86160	0.07049
3471.57583	0.07098
3470.29006	0.07116
3469.00429	0.07116
3467.71853	0.07119
3466.43276	0.07136
3465.14699	0.07165
3463.86122	0.07202
3462.57545	0.07245
3461.28968	0.07292
3460.00391	0.07331
3458.71814	0.07340
3457.43238	0.07306
3456.14661	0.07244
3454.86084	0.07200
3453.57507	0.07210
3452.28930	0.07269
3451.00353	0.07332
3449.71776	0.07358
3448.43199	0.07348
3447.14622	0.07329
3445.86046	0.07324
3444.57469	0.07340
3443.28892	0.07380
3442.00315	0.07443
3440.71738	0.07509
3439.43161	0.07539
3438.14584	0.07508
3436.86007	0.07435
3435.57431	0.07370
3434.28854	0.07356
3433.00277	0.07392
3431.71700	0.07445
3430.43123	0.07485
3429.14546	0.07506
3427.85969	0.07516
3426.57392	0.07517
3425.28815	0.07500
3424.00239	0.07460
3422.71662	0.07416
3421.43085	0.07406
3420.14508	0.07457
3418.85931	0.07547
3417.57354	0.07621
3416.28777	0.07637
3415.00200	0.07598
3413.71624	0.07543
3412.43047	0.07513
3411.14470	0.07526
3409.85893	0.07574
3408.57316	0.07636
3407.28739	0.07691
3406.00162	0.07728
3404.71585	0.07744
3403.43008	0.07747
3402.14432	0.07750
3400.85855	0.07759
3399.57278	0.07767
3398.28701	0.07777
3397.00124	0.07790
3395.71547	0.07803
3394.42970	0.07817
3393.14393	0.07832
3391.85817	0.07854
3390.57240	0.07885
3389.28663	0.07921
3388.00086	0.07941
3386.71509	0.07930
3385.42932	0.07888
3384.14355	0.07834
3382.85778	0.07782
3381.57201	0.07744
3380.28625	0.07727
3379.00048	0.07737
3377.71471	0.07767
3376.42894	0.07798
3375.14317	0.07817
3373.85740	0.07830
3372.57163	0.07847
3371.28586	0.07864
3370.00010	0.07869
3368.71433	0.07858
3367.42856	0.07846
3366.14279	0.07858
3364.85702	0.07904
3363.57125	0.07964
3362.28548	0.07999
3360.99971	0.07985
3359.71394	0.07940
3358.42818	0.07902
3357.14241	0.07892
3355.85664	0.07899
3354.57087	0.07907
3353.28510	0.07918
3351.99933	0.07944
3350.71356	0.07988
3349.42779	0.08034
3348.14202	0.08062
3346.85626	0.08058
3345.57049	0.08019
3344.28472	0.07952
3342.99895	0.07877
3341.71318	0.07821
3340.42741	0.07801
3339.14164	0.07814
3337.85587	0.07830
3336.57011	0.07827
3335.28434	0.07815
3333.99857	0.07819
3332.71280	0.07844
3331.42703	0.07863
3330.14126	0.07849
3328.85549	0.07810
3327.56972	0.07772
3326.28395	0.07752
3324.99819	0.07747
3323.71242	0.07748
3322.42665	0.07751
3321.14088	0.07757
3319.85511	0.07771
3318.56934	0.07800
3317.28357	0.07836
3315.99780	0.07858
3314.71204	0.07850
3313.42627	0.07818
3312.14050	0.07787
3310.85473	0.07766
3309.56896	0.07750
3308.28319	0.07738
3306.99742	0.07739
3305.71165	0.07758
3304.42588	0.07778
3303.14012	0.07776
3301.85435	0.07741
3300.56858	0.07683
3299.28281	0.07629
3297.99704	0.07601
3296.71127	0.07600
3295.42550	0.07606
3294.13973	0.07609
3292.85397	0.07626
3291.56820	0.07675
3290.28243	0.07743
3288.99666	0.07782
3287.71089	0.07765
3286.42512	0.07709
3285.13935	0.07659
3283.85358	0.07642
3282.56781	0.07648
3281.28205	0.07654
3279.99628	0.07650
3278.71051	0.07646
3277.42474	0.07660
3276.13897	0.07686
3274.85320	0.07705
3273.56743	0.07703
3272.28166	0.07692
3270.99590	0.07689
3269.71013	0.07698
3268.42436	0.07704
3267.13859	0.07693
3265.85282	0.07667
3264.56705	0.07634
3263.28128	0.07592
3261.99551	0.07533
3260.70974	0.07461
3259.42398	0.07402
3258.13821	0.07391
3256.85244	0.07434
3255.56667	0.07501
3254.28090	0.07549
3252.99513	0.07555
3251.70936	0.07530
3250.42359	0.07506
3249.13783	0.07508
3247.85206	0.07527
3246.56629	0.07533
3245.28052	0.07498
3243.99475	0.07431
3242.70898	0.07370
3241.42321	0.07351
3240.13744	0.07385
3238.85167	0.07445
3237.56591	0.07487
3236.28014	0.07478
3234.99437	0.07424
3233.70860	0.07372
3232.42283	0.07360
3231.13706	0.07383
3229.85129	0.07397
3228.56552	0.07378
3227.27976	0.07344
3225.99399	0.07335
3224.70822	0.07364
3223.42245	0.07411
3222.13668	0.07442
3220.85091	0.07434
3219.56514	0.07384
3218.27937	0.07312
3216.99360	0.07257
3215.70784	0.07253
3214.42207	0.07304
3213.13630	0.07377
3211.85053	0.07433
3210.56476	0.07452
3209.27899	0.07442
3207.99322	0.07422
3206.70745	0.07400
3205.42169	0.07367
3204.13592	0.07319
3202.85015	0.07268
3201.56438	0.07235
3200.27861	0.07229
3198.99284	0.07233
3197.70707	0.07233
3196.42130	0.07227
3195.13553	0.07225
3193.84977	0.07230
3192.56400	0.07236
3191.27823	0.07235
3189.99246	0.07224
3188.70669	0.07202
3187.42092	0.07175
3186.13515	0.07151
3184.84938	0.07141
3183.56362	0.07147
3182.27785	0.07159
3180.99208	0.07165
3179.70631	0.07155
3178.42054	0.07130
3177.13477	0.07098
3175.84900	0.07067
3174.56323	0.07047
3173.27746	0.07048
3171.99170	0.07071
3170.70593	0.07095
3169.42016	0.07093
3168.13439	0.07057
3166.84862	0.07007
3165.56285	0.06977
3164.27708	0.06976
3162.99131	0.06991
3161.70555	0.07003
3160.41978	0.07010
3159.13401	0.07009
3157.84824	0.06991
3156.56247	0.06956
3155.27670	0.06920
3153.99093	0.06907
3152.70516	0.06915
3151.41939	0.06919
3150.13363	0.06895
3148.84786	0.06846
3147.56209	0.06797
3146.27632	0.06770
3144.99055	0.06767
3143.70478	0.06763
3142.41901	0.06731
3141.13324	0.06667
3139.84748	0.06599
3138.56171	0.06557
3137.27594	0.06542
3135.99017	0.06537
3134.70440	0.06528
3133.41863	0.06525
3132.13286	0.06542
3130.84709	0.06577
3129.56132	0.06615
3128.27556	0.06643
3126.98979	0.06658
3125.70402	0.06663
3124.41825	0.06660
3123.13248	0.06643
3121.84671	0.06600
3120.56094	0.06525
3119.27517	0.06434
3117.98940	0.06359
3116.70364	0.06330
3115.41787	0.06355
3114.13210	0.06416
3112.84633	0.06483
3111.56056	0.06532
3110.27479	0.06555
3108.98902	0.06552
3107.70325	0.06519
3106.41749	0.06455
3105.13172	0.06377
3103.84595	0.06316
3102.56018	0.06290
3101.27441	0.06296
3099.98864	0.06315
3098.70287	0.06332
3097.41710	0.06339
3096.13133	0.06328
3094.84557	0.06299
3093.55980	0.06264
3092.27403	0.06247
3090.98826	0.06256
3089.70249	0.06272
3088.41672	0.06267
3087.13095	0.06236
3085.84518	0.06203
3084.55942	0.06195
3083.27365	0.06211
3081.98788	0.06235
3080.70211	0.06256
3079.41634	0.06271
3078.13057	0.06279
3076.84480	0.06273
3075.55903	0.06254
3074.27326	0.06228
3072.98750	0.06200
3071.70173	0.06167
3070.41596	0.06133
3069.13019	0.06117
3067.84442	0.06131
3066.55865	0.06163
3065.27288	0.06184
3063.98711	0.06174
3062.70135	0.06136
3061.41558	0.06087
3060.12981	0.06043
3058.84404	0.06014
3057.55827	0.06000
3056.27250	0.05995
3054.98673	0.05986
3053.70096	0.05966
3052.41519	0.05949
3051.12943	0.05955
3049.84366	0.05996
3048.55789	0.06057
3047.27212	0.06101
3045.98635	0.06103
3044.70058	0.06064
3043.41481	0.06008
3042.12904	0.05959
3040.84328	0.05924
3039.55751	0.05893
3038.27174	0.05861
3036.98597	0.05838
3035.70020	0.05836
3034.41443	0.05852
3033.12866	0.05867
3031.84289	0.05862
3030.55712	0.05838
3029.27136	0.05809
3027.98559	0.05785
3026.69982	0.05763
3025.41405	0.05739
3024.12828	0.05721
3022.84251	0.05714
3021.55674	0.05717
3020.27097	0.05717
3018.98521	0.05696
3017.69944	0.05652
3016.41367	0.05598
3015.12790	0.05555
3013.84213	0.05533
3012.55636	0.05525
3011.27059	0.05523
3009.98482	0.05524
3008.69905	0.05534
3007.41329	0.05556
3006.12752	0.05583
3004.84175	0.05599
3003.55598	0.05594
3002.27021	0.05569
3000.98444	0.05532
2999.69867	0.05488
2998.41290	0.05455
2997.12714	0.05429
2995.84137	0.05423
2994.55560	0.05444
2993.26983	0.05476
2991.98406	0.05490
2990.69829	0.05481
2989.41252	0.05471
2988.12675	0.05477
2986.84098	0.05496
2985.55522	0.05524
2984.26945	0.05563
2982.98368	0.05618
2981.69791	0.05680
2980.41214	0.05738
2979.12637	0.05784
2977.84060	0.05814
2976.55483	0.05828
2975.26907	0.05833
2973.98330	0.05847
2972.69753	0.05890
2971.41176	0.05979
2970.12599	0.06110
2968.84022	0.06247
2967.55445	0.06347
2966.26868	0.06405
2964.98291	0.06453
2963.69715	0.06529
2962.41138	0.06639
2961.12561	0.06754
2959.83984	0.06846
2958.55407	0.06907
2957.26830	0.06948
2955.98253	0.06978
2954.69676	0.06993
2953.41100	0.06988
2952.12523	0.06969
2950.83946	0.06950
2949.55369	0.06936
2948.26792	0.06931
2946.98215	0.06938
2945.69638	0.06957
2944.41061	0.06975
2943.12484	0.06978
2941.83908	0.06967
2940.55331	0.06956
2939.26754	0.06973
2937.98177	0.07037
2936.69600	0.07145
2935.41023	0.07269
2934.12446	0.07376
2932.83869	0.07445
2931.55293	0.07481
2930.26716	0.07502
2928.98139	0.07521
2927.69562	0.07538
2926.40985	0.07551
2925.12408	0.07559
2923.83831	0.07555
2922.55254	0.07534
2921.26677	0.07499
2919.98101	0.07459
2918.69524	0.07414
2917.40947	0.07360
2916.12370	0.07290
2914.83793	0.07214
2913.55216	0.07145
2912.26639	0.07084
2910.98062	0.07023
2909.69486	0.06959
2908.40909	0.06894
2907.12332	0.06839
2905.83755	0.06793
2904.55178	0.06748
2903.26601	0.06695
2901.98024	0.06632
2900.69447	0.06567
2899.40870	0.06509
2898.12294	0.06463
2896.83717	0.06422
2895.55140	0.06376
2894.26563	0.06317
2892.97986	0.06250
2891.69409	0.06179
2890.40832	0.06108
2889.12255	0.06041
2887.83678	0.05982
2886.55102	0.05934
2885.26525	0.05902
2883.97948	0.05887
2882.69371	0.05885
2881.40794	0.05885
2880.12217	0.05881
2878.83640	0.05883
2877.55063	0.05904
2876.26487	0.05951
2874.97910	0.06011
2873.69333	0.06063
2872.40756	0.06085
2871.12179	0.06075
2869.83602	0.06042
2868.55025	0.05999
2867.26448	0.05963
2865.97871	0.05950
2864.69295	0.05962
2863.40718	0.05982
2862.12141	0.05988
2860.83564	0.05976
2859.54987	0.05960
2858.26410	0.05946
2856.97833	0.05926
2855.69256	0.05890
2854.40680	0.05837
2853.12103	0.05779
2851.83526	0.05726
2850.54949	0.05681
2849.26372	0.05641
2847.97795	0.05604
2846.69218	0.05568
2845.40641	0.05528
2844.12064	0.05479
2842.83488	0.05419
2841.54911	0.05347
2840.26334	0.05262
2838.97757	0.05175
2837.69180	0.05102
2836.40603	0.05055
2835.12026	0.05029
2833.83449	0.05004
2832.54873	0.04961
2831.26296	0.04895
2829.97719	0.04823
2828.69142	0.04771
2827.40565	0.04751
2826.11988	0.04747
2824.83411	0.04730
2823.54834	0.04676
2822.26257	0.04590
2820.97681	0.04500
2819.69104	0.04440
2818.40527	0.04421
2817.11950	0.04426
2815.83373	0.04429
2814.54796	0.04419
2813.26219	0.04405
2811.97642	0.04402
2810.69066	0.04408
2809.40489	0.04408
2808.11912	0.04394
2806.83335	0.04375
2805.54758	0.04362
2804.26181	0.04351
2802.97604	0.04337
2801.69027	0.04322
2800.40450	0.04308
2799.11874	0.04289
2797.83297	0.04256
2796.54720	0.04221
2795.26143	0.04203
2793.97566	0.04212
2792.68989	0.04234
2791.40412	0.04248
2790.11835	0.04235
2788.83259	0.04195
2787.54682	0.04146
2786.26105	0.04114
2784.97528	0.04118
2783.68951	0.04151
2782.40374	0.04182
2781.11797	0.04184
2779.83220	0.04163
2778.54643	0.04143
2777.26067	0.04136
2775.97490	0.04130
2774.68913	0.04112
2773.40336	0.04087
2772.11759	0.04069
2770.83182	0.04063
2769.54605	0.04064
2768.26028	0.04067
2766.97452	0.04073
2765.68875	0.04078
2764.40298	0.04070
2763.11721	0.04042
2761.83144	0.04001
2760.54567	0.03968
2759.25990	0.03957
2757.97413	0.03967
2756.68836	0.03986
2755.40260	0.04004
2754.11683	0.04012
2752.83106	0.04005
2751.54529	0.03988
2750.25952	0.03976
2748.97375	0.03974
2747.68798	0.03974
2746.40221	0.03965
2745.11645	0.03946
2743.83068	0.03930
2742.54491	0.03924
2741.25914	0.03922
2739.97337	0.03919
2738.68760	0.03915
2737.40183	0.03908
2736.11606	0.03897
2734.83029	0.03883
2733.54453	0.03871
2732.25876	0.03860
2730.97299	0.03847
2729.68722	0.03843
2728.40145	0.03860
2727.11568	0.03891
2725.82991	0.03909
2724.54414	0.03887
2723.25838	0.03831
2721.97261	0.03769
2720.68684	0.03732
2719.40107	0.03730
2718.11530	0.03750
2716.82953	0.03766
2715.54376	0.03759
2714.25799	0.03732
2712.97222	0.03705
2711.68646	0.03694
2710.40069	0.03699
2709.11492	0.03708
2707.82915	0.03712
2706.54338	0.03708
2705.25761	0.03698
2703.97184	0.03687
2702.68607	0.03673
2701.40031	0.03655
2700.11454	0.03634
2698.82877	0.03619
2697.54300	0.03615
2696.25723	0.03620
2694.97146	0.03626
2693.68569	0.03629
2692.39992	0.03630
2691.11415	0.03627
2689.82839	0.03621
2688.54262	0.03611
2687.25685	0.03601
2685.97108	0.03597
2684.68531	0.03602
2683.39954	0.03607
2682.11377	0.03598
2680.82800	0.03578
2679.54224	0.03560
2678.25647	0.03556
2676.97070	0.03566
2675.68493	0.03581
2674.39916	0.03587
2673.11339	0.03582
2671.82762	0.03565
2670.54185	0.03541
2669.25608	0.03519
2667.97032	0.03511
2666.68455	0.03523
2665.39878	0.03549
2664.11301	0.03574
2662.82724	0.03591
2661.54147	0.03598
2660.25570	0.03593
2658.96993	0.03576
2657.68417	0.03557
2656.39840	0.03554
2655.11263	0.03571
2653.82686	0.03586
2652.54109	0.03571
2651.25532	0.03530
2649.96955	0.03491
2648.68378	0.03479
2647.39801	0.03486
2646.11225	0.03485
2644.82648	0.03459
2643.54071	0.03421
2642.25494	0.03395
2640.96917	0.03392
2639.68340	0.03400
2638.39763	0.03402
2637.11186	0.03390
2635.82609	0.03371
2634.54033	0.03356
2633.25456	0.03341
2631.96879	0.03317
2630.68302	0.03283
2629.39725	0.03249
2628.11148	0.03227
2626.82571	0.03215
2625.53994	0.03210
2624.25418	0.03219
2622.96841	0.03246
2621.68264	0.03276
2620.39687	0.03282
2619.11110	0.03256
2617.82533	0.03214
2616.53956	0.03173
2615.25379	0.03134
2613.96802	0.03098
2612.68226	0.03077
2611.39649	0.03084
2610.11072	0.03111
2608.82495	0.03128
2607.53918	0.03113
2606.25341	0.03061
2604.96764	0.02987
2603.68187	0.02919
2602.39611	0.02886
2601.11034	0.02901
2599.82457	0.02950
2598.53880	0.03007
2597.25303	0.03056
2595.96726	0.03087
2594.68149	0.03094
2593.39572	0.03072
2592.10995	0.03026
2590.82419	0.02973
2589.53842	0.02938
2588.25265	0.02934
2586.96688	0.02948
2585.68111	0.02948
2584.39534	0.02919
2583.10957	0.02881
2581.82380	0.02862
2580.53804	0.02869
2579.25227	0.02882
2577.96650	0.02874
2576.68073	0.02835
2575.39496	0.02788
2574.10919	0.02772
2572.82342	0.02798
2571.53765	0.02824
2570.25188	0.02812
2568.96612	0.02769
2567.68035	0.02737
2566.39458	0.02743
2565.10881	0.02777
2563.82304	0.02809
2562.53727	0.02817
2561.25150	0.02800
2559.96573	0.02771
2558.67997	0.02742
2557.39420	0.02717
2556.10843	0.02697
2554.82266	0.02695
2553.53689	0.02726
2552.25112	0.02787
2550.96535	0.02849
2549.67958	0.02881
2548.39381	0.02869
2547.10805	0.02826
2545.82228	0.02775
2544.53651	0.02731
2543.25074	0.02694
2541.96497	0.02668
2540.67920	0.02657
2539.39343	0.02666
2538.10766	0.02685
2536.82190	0.02701
2535.53613	0.02702
2534.25036	0.02684
2532.96459	0.02654
2531.67882	0.02623
2530.39305	0.02603
2529.10728	0.02598
2527.82151	0.02605
2526.53574	0.02619
2525.24998	0.02637
2523.96421	0.02654
2522.67844	0.02665
2521.39267	0.02674
2520.10690	0.02695
2518.82113	0.02728
2517.53536	0.02751
2516.24959	0.02731
2514.96383	0.02668
2513.67806	0.02596
2512.39229	0.02552
2511.10652	0.02545
2509.82075	0.02556
2508.53498	0.02562
2507.24921	0.02557
2505.96344	0.02553
2504.67767	0.02567
2503.39191	0.02601
2502.10614	0.02633
2500.82037	0.02646
2499.53460	0.02637
2498.24883	0.02619
2496.96306	0.02605
2495.67729	0.02599
2494.39152	0.02595
2493.10576	0.02577
2491.81999	0.02534
2490.53422	0.02482
2489.24845	0.02451
2487.96268	0.02451
2486.67691	0.02461
2485.39114	0.02458
2484.10537	0.02454
2482.81960	0.02479
2481.53384	0.02533
2480.24807	0.02578
2478.96230	0.02576
2477.67653	0.02530
2476.39076	0.02472
2475.10499	0.02433
2473.81922	0.02423
2472.53345	0.02442
2471.24769	0.02482
2469.96192	0.02523
2468.67615	0.02538
2467.39038	0.02517
2466.10461	0.02475
2464.81884	0.02442
2463.53307	0.02436
2462.24730	0.02457
2460.96153	0.02484
2459.67577	0.02494
2458.39000	0.02483
2457.10423	0.02471
2455.81846	0.02478
2454.53269	0.02497
2453.24692	0.02501
2451.96115	0.02472
2450.67538	0.02424
2449.38962	0.02386
2448.10385	0.02379
2446.81808	0.02396
2445.53231	0.02416
2444.24654	0.02424
2442.96077	0.02417
2441.67500	0.02400
2440.38923	0.02381
2439.10346	0.02368
2437.81770	0.02369
2436.53193	0.02384
2435.24616	0.02403
2433.96039	0.02415
2432.67462	0.02410
2431.38885	0.02391
2430.10308	0.02365
2428.81731	0.02338
2427.53155	0.02315
2426.24578	0.02306
2424.96001	0.02316
2423.67424	0.02338
2422.38847	0.02364
2421.10270	0.02383
2419.81693	0.02390
2418.53116	0.02378
2417.24539	0.02347
2415.95963	0.02315
2414.67386	0.02302
2413.38809	0.02308
2412.10232	0.02322
2410.81655	0.02330
2409.53078	0.02327
2408.24501	0.02312
2406.95924	0.02289
2405.67347	0.02271
2404.38771	0.02270
2403.10194	0.02296
2401.81617	0.02348
2400.53040	0.02413
2399.24463	0.02443
2397.95886	0.02430
2396.67309	0.02383
2395.38732	0.02316
2394.10156	0.02255
2392.81579	0.02220
2391.53002	0.02211
2390.24425	0.02221
2388.95848	0.02248
2387.67271	0.02298
2386.38694	0.02370
2385.10117	0.02453
2383.81540	0.02529
2382.52964	0.02585
2381.24387	0.02620
2379.95810	0.02645
2378.67233	0.02669
2377.38656	0.02696
2376.10079	0.02722
2374.81502	0.02743
2373.52925	0.02759
2372.24349	0.02783
2370.95772	0.02824
2369.67195	0.02892
2368.38618	0.02968
2367.10041	0.03026
2365.81464	0.03044
2364.52887	0.03045
2363.24310	0.03036
2361.95733	0.03021
2360.67157	0.02995
2359.38580	0.02982
2358.10003	0.02980
2356.81426	0.02982
2355.52849	0.02980
2354.24272	0.02965
2352.95695	0.02949
2351.67118	0.02932
2350.38542	0.02927
2349.09965	0.02955
2347.81388	0.03011
2346.52811	0.03038
2345.24234	0.03019
2343.95657	0.02990
2342.67080	0.02977
2341.38503	0.02944
2340.09926	0.02887
2338.81350	0.02870
2337.52773	0.02899
2336.24196	0.02893
2334.95619	0.02865
2333.67042	0.02907
2332.38465	0.03011
2331.09888	0.03056
2329.81311	0.03112
2328.52735	0.03269
2327.24158	0.03353
2325.95581	0.03352
2324.67004	0.03348
2323.38427	0.03225
2322.09850	0.03000
2320.81273	0.02848
2319.52696	0.02713
2318.24119	0.02624
2316.95543	0.02631
2315.66966	0.02609
2314.38389	0.02549
2313.09812	0.02495
2311.81235	0.02427
2310.52658	0.02399
2309.24081	0.02395
2307.95504	0.02384
2306.66928	0.02390
2305.38351	0.02391
2304.09774	0.02402
2302.81197	0.02430
2301.52620	0.02462
2300.24043	0.02499
2298.95466	0.02524
2297.66889	0.02536
2296.38312	0.02529
2295.09736	0.02497
2293.81159	0.02445
2292.52582	0.02387
2291.24005	0.02357
2289.95428	0.02364
2288.66851	0.02388
2287.38274	0.02387
2286.09697	0.02337
2284.81121	0.02247
2283.52544	0.02152
2282.23967	0.02081
2280.95390	0.02049
2279.66813	0.02045
2278.38236	0.02040
2277.09659	0.02013
2275.81082	0.01962
2274.52505	0.01910
2273.23929	0.01876
2271.95352	0.01870
2270.66775	0.01886
2269.38198	0.01908
2268.09621	0.01922
2266.81044	0.01924
2265.52467	0.01922
2264.23890	0.01930
2262.95314	0.01952
2261.66737	0.01985
2260.38160	0.02019
2259.09583	0.02026
2257.81006	0.01980
2256.52429	0.01886
2255.23852	0.01789
2253.95275	0.01737
2252.66698	0.01750
2251.38122	0.01798
2250.09545	0.01803
2248.80968	0.01743
2247.52391	0.01749
2246.23814	0.01731
2244.95237	0.01689
2243.66660	0.01643
2242.38083	0.01607
2241.09507	0.01584
2239.80930	0.01572
2238.52353	0.01574
2237.23776	0.01601
2235.95199	0.01647
2234.66622	0.01690
2233.38045	0.01713
2232.09468	0.01724
2230.80891	0.01735
2229.52315	0.01741
2228.23738	0.01722
2226.95161	0.01678
2225.66584	0.01634
2224.38007	0.01613
2223.09430	0.01611
2221.80853	0.01601
2220.52276	0.01554
2219.23700	0.01467
2217.95123	0.01373
2216.66546	0.01312
2215.37969	0.01306
2214.09392	0.01349
2212.80815	0.01413
2211.52238	0.01453
2210.23661	0.01418
2208.95084	0.01303
2207.66508	0.01171
2206.37931	0.01107
2205.09354	0.01140
2203.80777	0.01221
2202.52200	0.01282
2201.23623	0.01292
2199.95046	0.01268
2198.66469	0.01247
2197.37893	0.01253
2196.09316	0.01271
2194.80739	0.01256
2193.52162	0.01181
2192.23585	0.01092
2190.95008	0.01080
2189.66431	0.01191
2188.37854	0.01368
2187.09277	0.01496
2185.80701	0.01495
2184.52124	0.01366
2183.23547	0.01176
2181.94970	0.01006
2180.66393	0.00913
2179.37816	0.00904
2178.09239	0.00935
2176.80662	0.00955
2175.52085	0.00948
2174.23509	0.00935
2172.94932	0.00943
2171.66355	0.00961
2170.37778	0.00943
2169.09201	0.00859
2167.80624	0.00737
2166.52047	0.00671
2165.23470	0.00751
2163.94894	0.00959
2162.66317	0.01150
2161.37740	0.01180
2160.09163	0.01046
2158.80586	0.00888
2157.52009	0.00837
2156.23432	0.00894
2154.94855	0.00978
2153.66278	0.01033
2152.37702	0.01063
2151.09125	0.01083
2149.80548	0.01078
2148.51971	0.01014
2147.23394	0.00893
2145.94817	0.00766
2144.66240	0.00680
2143.37663	0.00645
2142.09087	0.00648
2140.80510	0.00691
2139.51933	0.00769
2138.23356	0.00839
2136.94779	0.00857
2135.66202	0.00826
2134.37625	0.00802
2133.09048	0.00839
2131.80471	0.00948
2130.51895	0.01087
2129.23318	0.01188
2127.94741	0.01218
2126.66164	0.01203
2125.37587	0.01200
2124.09010	0.01227
2122.80433	0.01253
2121.51856	0.01251
2120.23280	0.01241
2118.94703	0.01260
2117.66126	0.01312
2116.37549	0.01369
2115.08972	0.01406
2113.80395	0.01413
2112.51818	0.01394
2111.23241	0.01359
2109.94664	0.01323
2108.66088	0.01293
2107.37511	0.01266
2106.08934	0.01238
2104.80357	0.01210
2103.51780	0.01184
2102.23203	0.01158
2100.94626	0.01143
2099.66049	0.01230
2098.37473	0.01294
2097.08896	0.01309
2095.80319	0.01292
2094.51742	0.01262
2093.23165	0.01236
2091.94588	0.01208
2090.66011	0.01165
2089.37434	0.01110
2088.08857	0.01073
2086.80281	0.01082
2085.51704	0.01133
2084.23127	0.01187
2082.94550	0.01210
2081.65973	0.01198
2080.37396	0.01178
2079.08819	0.01170
2077.80242	0.01167
2076.51666	0.01150
2075.23089	0.01113
2073.94512	0.01076
2072.65935	0.01065
2071.37358	0.01106
2070.08781	0.01204
2068.80204	0.01325
2067.51627	0.01400
2066.23050	0.01378
2064.94474	0.01265
2063.65897	0.01122
2062.37320	0.01012
2061.08743	0.00962
2059.80166	0.00962
2058.51589	0.00981
2057.23012	0.00999
2055.94435	0.01008
2054.65859	0.01012
2053.37282	0.01009
2052.08705	0.00996
2050.80128	0.00982
2049.51551	0.00982
2048.22974	0.01005
2046.94397	0.01044
2045.65820	0.01078
2044.37243	0.01083
2043.08667	0.01038
2041.80090	0.00945
2040.51513	0.00840
2039.22936	0.00789
2037.94359	0.00826
2036.65782	0.00912
2035.37205	0.00951
2034.08628	0.00894
2032.80052	0.00784
2031.51475	0.00704
2030.22898	0.00679
2028.94321	0.00669
2027.65744	0.00645
2026.37167	0.00637
2025.08590	0.00684
2023.80013	0.00778
2022.51436	0.00871
2021.22860	0.00918
2019.94283	0.00897
2018.65706	0.00820
2017.37129	0.00726
2016.08552	0.00658
2014.79975	0.00627
2013.51398	0.00613
2012.22821	0.00605
2010.94245	0.00626
2009.65668	0.00692
2008.37091	0.00781
2007.08514	0.00847
2005.79937	0.00875
2004.51360	0.00882
2003.22783	0.00890
2001.94206	0.00908
2000.65629	0.00931
1999.37053	0.00944
1998.08476	0.00933
1996.79899	0.00907
1995.51322	0.00896
1994.22745	0.00920
1992.94168	0.00968
1991.65591	0.01013
1990.37014	0.01048
1989.08438	0.01077
1987.79861	0.01101
1986.51284	0.01108
1985.22707	0.01094
1983.94130	0.01072
1982.65553	0.01069
1981.36976	0.01108
1980.08399	0.01172
1978.79822	0.01217
1977.51246	0.01205
1976.22669	0.01138
1974.94092	0.01051
1973.65515	0.00972
1972.36938	0.00918
1971.08361	0.00907
1969.79784	0.00946
1968.51207	0.01009
1967.22631	0.01058
1965.94054	0.01082
1964.65477	0.01103
1963.36900	0.01132
1962.08323	0.01152
1960.79746	0.01149
1959.51169	0.01132
1958.22592	0.01112
1956.94015	0.01092
1955.65439	0.01077
1954.36862	0.01089
1953.08285	0.01140
1951.79708	0.01208
1950.51131	0.01253
1949.22554	0.01258
1947.93977	0.01238
1946.65400	0.01218
1945.36823	0.01202
1944.08247	0.01178
1942.79670	0.01143
1941.51093	0.01113
1940.22516	0.01103
1938.93939	0.01114
1937.65362	0.01126
1936.36785	0.01124
1935.08208	0.01115
1933.79632	0.01116
1932.51055	0.01141
1931.22478	0.01182
1929.93901	0.01226
1928.65324	0.01260
1927.36747	0.01279
1926.08170	0.01284
1924.79593	0.01284
1923.51016	0.01290
1922.22440	0.01309
1920.93863	0.01337
1919.65286	0.01367
1918.36709	0.01392
1917.08132	0.01405
1915.79555	0.01402
1914.50978	0.01386
1913.22401	0.01365
1911.93825	0.01347
1910.65248	0.01336
1909.36671	0.01329
1908.08094	0.01327
1906.79517	0.01333
1905.50940	0.01346
1904.22363	0.01355
1902.93786	0.01349
1901.65209	0.01339
1900.36633	0.01346
1899.08056	0.01377
1897.79479	0.01409
1896.50902	0.01412
1895.22325	0.01379
1893.93748	0.01337
1892.65171	0.01324
1891.36594	0.01347
1890.08018	0.01387
1888.79441	0.01419
1887.50864	0.01431
1886.22287	0.01424
1884.93710	0.01400
1883.65133	0.01369
1882.36556	0.01346
1881.07979	0.01340
1879.79402	0.01349
1878.50826	0.01365
1877.22249	0.01384
1875.93672	0.01397
1874.65095	0.01398
1873.36518	0.01389
1872.07941	0.01383
1870.79364	0.01385
1869.50787	0.01393
1868.22211	0.01402
1866.93634	0.01415
1865.65057	0.01432
1864.36480	0.01444
1863.07903	0.01435
1861.79326	0.01406
1860.50749	0.01373
1859.22172	0.01357
1857.93595	0.01367
1856.65019	0.01391
1855.36442	0.01413
1854.07865	0.01421
1852.79288	0.01417
1851.50711	0.01408
1850.22134	0.01403
1848.93557	0.01408
1847.64980	0.01423
1846.36404	0.01437
1845.07827	0.01435
1843.79250	0.01414
1842.50673	0.01388
1841.22096	0.01377
1839.93519	0.01387
1838.64942	0.01411
1837.36365	0.01431
1836.07788	0.01434
1834.79212	0.01421
1833.50635	0.01406
1832.22058	0.01404
1830.93481	0.01418
1829.64904	0.01439
1828.36327	0.01460
1827.07750	0.01480
1825.79173	0.01506
1824.50597	0.01540
1823.22020	0.01570
1821.93443	0.01581
1820.64866	0.01566
1819.36289	0.01525
1818.07712	0.01469
1816.79135	0.01411
1815.50558	0.01373
1814.21981	0.01364
1812.93405	0.01378
1811.64828	0.01401
1810.36251	0.01421
1809.07674	0.01434
1807.79097	0.01439
1806.50520	0.01438
1805.21943	0.01441
1803.93366	0.01452
1802.64790	0.01464
1801.36213	0.01471
1800.07636	0.01466
1798.79059	0.01455
1797.50482	0.01446
1796.21905	0.01447
1794.93328	0.01457
1793.64751	0.01475
1792.36174	0.01496
1791.07598	0.01516
1789.79021	0.01534
1788.50444	0.01549
1787.21867	0.01564
1785.93290	0.01577
1784.64713	0.01584
1783.36136	0.01580
1782.07559	0.01566
1780.78983	0.01550
1779.50406	0.01542
1778.21829	0.01543
1776.93252	0.01551
1775.64675	0.01561
1774.36098	0.01567
1773.07521	0.01568
1771.78944	0.01567
1770.50367	0.01569
1769.21791	0.01574
1767.93214	0.01584
1766.64637	0.01601
1765.36060	0.01615
1764.07483	0.01621
1762.78906	0.01618
1761.50329	0.01613
1760.21752	0.01611
1758.93176	0.01609
1757.64599	0.01606
1756.36022	0.01610
1755.07445	0.01627
1753.78868	0.01655
1752.50291	0.01683
1751.21714	0.01697
1749.93137	0.01691
1748.64560	0.01672
1747.35984	0.01652
1746.07407	0.01645
1744.78830	0.01651
1743.50253	0.01664
1742.21676	0.01674
1740.93099	0.01677
1739.64522	0.01681
1738.35945	0.01696
1737.07369	0.01723
1735.78792	0.01751
1734.50215	0.01772
1733.21638	0.01786
1731.93061	0.01792
1730.64484	0.01792
1729.35907	0.01792
1728.07330	0.01798
1726.78753	0.01809
1725.50177	0.01821
1724.21600	0.01835
1722.93023	0.01855
1721.64446	0.01883
1720.35869	0.01915
1719.07292	0.01942
1717.78715	0.01963
1716.50138	0.01981
1715.21561	0.01993
1713.92985	0.02002
1712.64408	0.02017
1711.35831	0.02045
1710.07254	0.02089
1708.78677	0.02141
1707.50100	0.02191
1706.21523	0.02236
1704.92946	0.02284
1703.64370	0.02336
1702.35793	0.02381
1701.07216	0.02415
1699.78639	0.02446
1698.50062	0.02474
1697.21485	0.02488
1695.92908	0.02492
1694.64331	0.02500
1693.35754	0.02519
1692.07178	0.02545
1690.78601	0.02580
1689.50024	0.02630
1688.21447	0.02690
1686.92870	0.02744
1685.64293	0.02778
1684.35716	0.02796
1683.07139	0.02808
1681.78563	0.02814
1680.49986	0.02822
1679.21409	0.02843
1677.92832	0.02877
1676.64255	0.02914
1675.35678	0.02950
1674.07101	0.02984
1672.78524	0.03017
1671.49947	0.03045
1670.21371	0.03070
1668.92794	0.03096
1667.64217	0.03127
1666.35640	0.03161
1665.07063	0.03196
1663.78486	0.03231
1662.49909	0.03261
1661.21332	0.03282
1659.92756	0.03299
1658.64179	0.03324
1657.35602	0.03368
1656.07025	0.03421
1654.78448	0.03459
1653.49871	0.03475
1652.21294	0.03482
1650.92717	0.03492
1649.64140	0.03505
1648.35564	0.03520
1647.06987	0.03538
1645.78410	0.03556
1644.49833	0.03567
1643.21256	0.03569
1641.92679	0.03569
1640.64102	0.03575
1639.35525	0.03591
1638.06949	0.03608
1636.78372	0.03616
1635.49795	0.03614
1634.21218	0.03608
1632.92641	0.03602
1631.64064	0.03598
1630.35487	0.03600
1629.06910	0.03607
1627.78333	0.03617
1626.49757	0.03631
1625.21180	0.03644
1623.92603	0.03657
1622.64026	0.03675
1621.35449	0.03704
1620.06872	0.03738
1618.78295	0.03763
1617.49718	0.03773
1616.21142	0.03773
1614.92565	0.03774
1613.63988	0.03779
1612.35411	0.03790
1611.06834	0.03809
1609.78257	0.03831
1608.49680	0.03853
1607.21103	0.03874
1605.92526	0.03893
1604.63950	0.03912
1603.35373	0.03933
1602.06796	0.03954
1600.78219	0.03974
1599.49642	0.03987
1598.21065	0.03996
1596.92488	0.04005
1595.63911	0.04019
1594.35335	0.04039
1593.06758	0.04061
1591.78181	0.04081
1590.49604	0.04100
1589.21027	0.04119
1587.92450	0.04137
1586.63873	0.04154
1585.35296	0.04171
1584.06719	0.04194
1582.78143	0.04225
1581.49566	0.04262
1580.20989	0.04304
1578.92412	0.04341
1577.63835	0.04367
1576.35258	0.04385
1575.06681	0.04403
1573.78104	0.04424
1572.49528	0.04444
1571.20951	0.04464
1569.92374	0.04487
1568.63797	0.04513
1567.35220	0.04538
1566.06643	0.04561
1564.78066	0.04590
1563.49489	0.04632
1562.20912	0.04679
1560.92336	0.04715
1559.63759	0.04734
1558.35182	0.04744
1557.06605	0.04751
1555.78028	0.04754
1554.49451	0.04756
1553.20874	0.04761
1551.92297	0.04767
1550.63721	0.04773
1549.35144	0.04780
1548.06567	0.04791
1546.77990	0.04806
1545.49413	0.04825
1544.20836	0.04848
1542.92259	0.04867
1541.63682	0.04870
1540.35105	0.04855
1539.06529	0.04834
1537.77952	0.04819
1536.49375	0.04812
1535.20798	0.04809
1533.92221	0.04808
1532.63644	0.04811
1531.35067	0.04821
1530.06490	0.04844
1528.77914	0.04885
1527.49337	0.04941
1526.20760	0.05007
1524.92183	0.05076
1523.63606	0.05141
1522.35029	0.05201
1521.06452	0.05264
1519.77875	0.05341
1518.49298	0.05431
1517.20722	0.05528
1515.92145	0.05632
1514.63568	0.05741
1513.34991	0.05857
1512.06414	0.05986
1510.77837	0.06133
1509.49260	0.06287
1508.20683	0.06432
1506.92107	0.06558
1505.63530	0.06671
1504.34953	0.06772
1503.06376	0.06865
1501.77799	0.06952
1500.49222	0.07039
1499.20645	0.07128
1497.92068	0.07213
1496.63491	0.07292
1495.34915	0.07367
1494.06338	0.07437
1492.77761	0.07505
1491.49184	0.07579
1490.20607	0.07662
1488.92030	0.07755
1487.63453	0.07854
1486.34876	0.07958
1485.06299	0.08068
1483.77723	0.08184
1482.49146	0.08305
1481.20569	0.08428
1479.91992	0.08551
1478.63415	0.08673
1477.34838	0.08792
1476.06261	0.08903
1474.77684	0.08998
1473.49108	0.09074
1472.20531	0.09135
1470.91954	0.09189
1469.63377	0.09241
1468.34800	0.09291
1467.06223	0.09332
1465.77646	0.09364
1464.49069	0.09388
1463.20492	0.09412
1461.91916	0.09446
1460.63339	0.09493
1459.34762	0.09550
1458.06185	0.09607
1456.77608	0.09661
1455.49031	0.09709
1454.20454	0.09745
1452.91877	0.09772
1451.63301	0.09798
1450.34724	0.09827
1449.06147	0.09852
1447.77570	0.09869
1446.48993	0.09877
1445.20416	0.09873
1443.91839	0.09855
1442.63262	0.09827
1441.34685	0.09797
1440.06109	0.09769
1438.77532	0.09746
1437.48955	0.09731
1436.20378	0.09733
1434.91801	0.09758
1433.63224	0.09806
1432.34647	0.09878
1431.06070	0.09974
1429.77494	0.10089
1428.48917	0.10220
1427.20340	0.10362
1425.91763	0.10513
1424.63186	0.10672
1423.34609	0.10835
1422.06032	0.10993
1420.77455	0.11134
1419.48878	0.11251
1418.20302	0.11343
1416.91725	0.11412
1415.63148	0.11460
1414.34571	0.11491
1413.05994	0.11507
1411.77417	0.11502
1410.48840	0.11474
1409.20263	0.11422
1407.91687	0.11347
1406.63110	0.11250
1405.34533	0.11132
1404.05956	0.10994
1402.77379	0.10839
1401.48802	0.10666
1400.20225	0.10475
1398.91648	0.10267
1397.63071	0.10049
1396.34495	0.09825
1395.05918	0.09600
1393.77341	0.09376
1392.48764	0.09154
1391.20187	0.08933
1389.91610	0.08713
1388.63033	0.08497
1387.34456	0.08291
1386.05880	0.08098
1384.77303	0.07912
1383.48726	0.07726
1382.20149	0.07538
1380.91572	0.07346
1379.62995	0.07151
1378.34418	0.06948
1377.05841	0.06736
1375.77264	0.06513
1374.48688	0.06286
1373.20111	0.06064
1371.91534	0.05851
1370.62957	0.05645
1369.34380	0.05444
1368.05803	0.05252
1366.77226	0.05075
1365.48649	0.04914
1364.20073	0.04763
1362.91496	0.04617
1361.62919	0.04471
1360.34342	0.04328
1359.05765	0.04194
1357.77188	0.04074
1356.48611	0.03966
1355.20034	0.03871
1353.91457	0.03784
1352.62881	0.03704
1351.34304	0.03627
1350.05727	0.03550
1348.77150	0.03475
1347.48573	0.03405
1346.19996	0.03343
1344.91419	0.03288
1343.62842	0.03237
1342.34266	0.03187
1341.05689	0.03136
1339.77112	0.03087
1338.48535	0.03045
1337.19958	0.03011
1335.91381	0.02979
1334.62804	0.02947
1333.34227	0.02911
1332.05650	0.02872
1330.77074	0.02832
1329.48497	0.02796
1328.19920	0.02767
1326.91343	0.02744
1325.62766	0.02723
1324.34189	0.02700
1323.05612	0.02677
1321.77035	0.02656
1320.48459	0.02638
1319.19882	0.02623
1317.91305	0.02608
1316.62728	0.02589
1315.34151	0.02565
1314.05574	0.02539
1312.76997	0.02516
1311.48420	0.02496
1310.19843	0.02480
1308.91267	0.02467
1307.62690	0.02457
1306.34113	0.02445
1305.05536	0.02429
1303.76959	0.02408
1302.48382	0.02386
1301.19805	0.02370
1299.91228	0.02358
1298.62652	0.02348
1297.34075	0.02334
1296.05498	0.02315
1294.76921	0.02298
1293.48344	0.02288
1292.19767	0.02285
1290.91190	0.02282
1289.62613	0.02273
1288.34036	0.02258
1287.05460	0.02240
1285.76883	0.02222
1284.48306	0.02205
1283.19729	0.02189
1281.91152	0.02172
1280.62575	0.02156
1279.33998	0.02141
1278.05421	0.02131
1276.76845	0.02122
1275.48268	0.02114
1274.19691	0.02104
1272.91114	0.02092
1271.62537	0.02080
1270.33960	0.02067
1269.05383	0.02053
1267.76806	0.02040
1266.48229	0.02031
1265.19653	0.02024
1263.91076	0.02018
1262.62499	0.02011
1261.33922	0.02002
1260.05345	0.01994
1258.76768	0.01986
1257.48191	0.01981
1256.19614	0.01978
1254.91037	0.01973
1253.62461	0.01967
1252.33884	0.01959
1251.05307	0.01950
1249.76730	0.01941
1248.48153	0.01932
1247.19576	0.01923
1245.90999	0.01913
1244.62422	0.01905
1243.33846	0.01899
1242.05269	0.01895
1240.76692	0.01889
1239.48115	0.01880
1238.19538	0.01870
1236.90961	0.01863
1235.62384	0.01857
1234.33807	0.01851
1233.05230	0.01843
1231.76654	0.01834
1230.48077	0.01827
1229.19500	0.01823
1227.90923	0.01819
1226.62346	0.01813
1225.33769	0.01803
1224.05192	0.01791
1222.76615	0.01781
1221.48039	0.01776
1220.19462	0.01775
1218.90885	0.01779
1217.62308	0.01783
1216.33731	0.01789
1215.05154	0.01792
1213.76577	0.01790
1212.48000	0.01782
1211.19423	0.01769
1209.90847	0.01758
1208.62270	0.01751
1207.33693	0.01752
1206.05116	0.01758
1204.76539	0.01765
1203.47962	0.01771
1202.19385	0.01774
1200.90808	0.01771
1199.62232	0.01762
1198.33655	0.01761
1197.05078	0.01759
1195.76501	0.01754
1194.47924	0.01748
1193.19347	0.01742
1191.90770	0.01737
1190.62193	0.01733
1189.33616	0.01730
1188.05040	0.01731
1186.76463	0.01736
1185.47886	0.01742
1184.19309	0.01748
1182.90732	0.01755
1181.62155	0.01761
1180.33578	0.01767
1179.05001	0.01768
1177.76425	0.01767
1176.47848	0.01767
1175.19271	0.01774
1173.90694	0.01784
1172.62117	0.01792
1171.33540	0.01794
1170.04963	0.01797
1168.76386	0.01807
1167.47809	0.01827
1166.19233	0.01854
1164.90656	0.01884
1163.62079	0.01912
1162.33502	0.01936
1161.04925	0.01958
1159.76348	0.01980
1158.47771	0.02006
1157.19194	0.02035
1155.90618	0.02068
1154.62041	0.02102
1153.33464	0.02137
1152.04887	0.02177
1150.76310	0.02226
1149.47733	0.02285
1148.19156	0.02347
1146.90579	0.02407
1145.62002	0.02470
1144.33426	0.02542
1143.04849	0.02628
1141.76272	0.02727
1140.47695	0.02837
1139.19118	0.02956
1137.90541	0.03085
1136.61964	0.03226
1135.33387	0.03379
1134.04811	0.03546
1132.76234	0.03732
1131.47657	0.03940
1130.19080	0.04172
1128.90503	0.04432
1127.61926	0.04723
1126.33349	0.05042
1125.04772	0.05383
1123.76195	0.05739
1122.47619	0.06107
1121.19042	0.06477
1119.90465	0.06840
1118.61888	0.07189
1117.33311	0.07530
1116.04734	0.07871
1114.76157	0.08217
1113.47580	0.08566
1112.19004	0.08909
1110.90427	0.09243
1109.61850	0.09566
1108.33273	0.09875
1107.04696	0.10170
1105.76119	0.10451
1104.47542	0.10725
1103.18965	0.10991
1101.90388	0.11249
1100.61812	0.11498
1099.33235	0.11740
1098.04658	0.11973
1096.76081	0.12198
1095.47504	0.12411
1094.18927	0.12612
1092.90350	0.12798
1091.61773	0.12969
1090.33197	0.13133
1089.04620	0.13303
1087.76043	0.13484
1086.47466	0.13670
1085.18889	0.13851
1083.90312	0.14027
1082.61735	0.14211
1081.33158	0.14417
1080.04581	0.14649
1078.76005	0.14903
1077.47428	0.15173
1076.18851	0.15450
1074.90274	0.15729
1073.61697	0.16011
1072.33120	0.16297
1071.04543	0.16589
1069.75966	0.16889
1068.47390	0.17204
1067.18813	0.17539
1065.90236	0.17890
1064.61659	0.18248
1063.33082	0.18603
1062.04505	0.18955
1060.75928	0.19304
1059.47351	0.19652
1058.18774	0.20001
1056.90198	0.20348
1055.61621	0.20691
1054.33044	0.21025
1053.04467	0.21353
1051.75890	0.21683
1050.47313	0.22025
1049.18736	0.22386
1047.90159	0.22766
1046.61583	0.23164
1045.33006	0.23577
1044.04429	0.23999
1042.75852	0.24426
1041.47275	0.24856
1040.18698	0.25291
1038.90121	0.25734
1037.61544	0.26182
1036.32967	0.26632
1035.04391	0.27075
1033.75814	0.27501
1032.47237	0.27901
1031.18660	0.28268
1029.90083	0.28606
1028.61506	0.28912
1027.32929	0.29180
1026.04352	0.29400
1024.75775	0.29567
1023.47199	0.29683
1022.18622	0.29748
1020.90045	0.29758
1019.61468	0.29711
1018.32891	0.29609
1017.04314	0.29461
1015.75737	0.29267
1014.47160	0.29021
1013.18584	0.28711
1011.90007	0.28330
1010.61430	0.27882
1009.32853	0.27374
1008.04276	0.26809
1006.75699	0.26188
1005.47122	0.25513
1004.18545	0.24795
1002.89968	0.24043
1001.61392	0.23257
1000.32815	0.22437
999.04238	0.21587
997.75661	0.20723
996.47084	0.19856
995.18507	0.18992
993.89930	0.18134
992.61353	0.17295
991.32777	0.16487
990.04200	0.15717
988.75623	0.14982
987.47046	0.14279
986.18469	0.13610
984.89892	0.12986
983.61315	0.12417
982.32738	0.11899
981.04161	0.11425
979.75585	0.10984
978.47008	0.10574
977.18431	0.10202
975.89854	0.09878
974.61277	0.09612
973.32700	0.09405
972.04123	0.09253
970.75546	0.09159
969.46970	0.09123
968.18393	0.09145
966.89816	0.09214
965.61239	0.09316
964.32662	0.09431
963.04085	0.09541
961.75508	0.09621
960.46931	0.09643
959.18354	0.09585
957.89778	0.09442
956.61201	0.09228
955.32624	0.08969
954.04047	0.08690
952.75470	0.08411
951.46893	0.08144
950.18316	0.07895
948.89739	0.07654
947.61163	0.07410
946.32586	0.07163
945.04009	0.06922
943.75432	0.06698
942.46855	0.06493
941.18278	0.06301
939.89701	0.06117
938.61124	0.05942
937.32547	0.05780
936.03971	0.05630
934.75394	0.05493
933.46817	0.05369
932.18240	0.05261
930.89663	0.05171
929.61086	0.05096
928.32509	0.05030
927.03932	0.04963
925.75356	0.04890
924.46779	0.04812
923.18202	0.04738
921.89625	0.04676
920.61048	0.04629
919.32471	0.04587
918.03894	0.04541
916.75317	0.04484
915.46740	0.04423
914.18164	0.04368
912.89587	0.04328
911.61010	0.04299
910.32433	0.04272
909.03856	0.04237
907.75279	0.04194
906.46702	0.04150
905.18125	0.04110
903.89549	0.04079
902.60972	0.04057
901.32395	0.04039
900.03818	0.04023
898.75241	0.04011
897.46664	0.04010
896.18087	0.04025
894.89510	0.04047
893.60933	0.04060
892.32357	0.04057
891.03780	0.04048
889.75203	0.04052
888.46626	0.04088
887.18049	0.04172
885.89472	0.04321
884.60895	0.04547
883.32318	0.04846
882.03742	0.05189
880.75165	0.05523
879.46588	0.05796
878.18011	0.05990
876.89434	0.06136
875.60857	0.06278
874.32280	0.06432
873.03703	0.06564
871.75126	0.06624
870.46550	0.06586
869.17973	0.06458
867.89396	0.06262
866.60819	0.06019
865.32242	0.05747
864.03665	0.05469
862.75088	0.05208
861.46511	0.04979
860.17935	0.04789
858.89358	0.04635
857.60781	0.04509
856.32204	0.04404
855.03627	0.04311
853.75050	0.04228
852.46473	0.04161
851.17896	0.04112
849.89319	0.04074
848.60743	0.04033
847.32166	0.03984
846.03589	0.03935
844.75012	0.03897
843.46435	0.03871
842.17858	0.03854
840.89281	0.03836
839.60704	0.03812
838.32128	0.03783
837.03551	0.03754
835.74974	0.03730
834.46397	0.03711
833.17820	0.03694
831.89243	0.03678
830.60666	0.03663
829.32089	0.03654
828.03512	0.03650
826.74936	0.03646
825.46359	0.03638
824.17782	0.03626
822.89205	0.03613
821.60628	0.03605
820.32051	0.03609
819.03474	0.03622
817.74897	0.03636
816.46321	0.03644
815.17744	0.03643
813.89167	0.03634
812.60590	0.03621
811.32013	0.03608
810.03436	0.03600
808.74859	0.03600
807.46282	0.03605
806.17705	0.03611
804.89129	0.03611
803.60552	0.03606
802.31975	0.03602
801.03398	0.03601
799.74821	0.03600
798.46244	0.03597
797.17667	0.03592
795.89090	0.03589
794.60513	0.03586
793.31937	0.03584
792.03360	0.03580
790.74783	0.03576
789.46206	0.03571
788.17629	0.03562
786.89052	0.03547
785.60475	0.03527
784.31898	0.03510
783.03322	0.03502
781.74745	0.03505
780.46168	0.03511
779.17591	0.03514
777.89014	0.03510
776.60437	0.03501
775.31860	0.03492
774.03283	0.03488
772.74706	0.03491
771.46130	0.03500
770.17553	0.03513
768.88976	0.03524
767.60399	0.03528
766.31822	0.03528
765.03245	0.03533
763.74668	0.03545
762.46091	0.03563
761.17515	0.03580
759.88938	0.03593
758.60361	0.03602
757.31784	0.03606
756.03207	0.03606
754.74630	0.03606
753.46053	0.03610
752.17476	0.03617
750.88899	0.03621
749.60323	0.03616
748.31746	0.03604
747.03169	0.03589
745.74592	0.03579
744.46015	0.03570
743.17438	0.03555
741.88861	0.03533
740.60284	0.03511
739.31708	0.03497
738.03131	0.03492
736.74554	0.03489
735.45977	0.03480
734.17400	0.03465
732.88823	0.03451
731.60246	0.03439
730.31669	0.03432
729.03092	0.03434
727.74516	0.03446
726.45939	0.03464
725.17362	0.03485
723.88785	0.03541
722.60208	0.03532
721.31631	0.03492
720.03054	0.03453
718.74477	0.03419
717.45901	0.03392
716.17324	0.03379
714.88747	0.03379
713.60170	0.03392
712.31593	0.03412
711.03016	0.03434
709.74439	0.03454
708.45862	0.03465
707.17285	0.03467
705.88709	0.03463
704.60132	0.03458
703.31555	0.03453
702.02978	0.03449
700.74401	0.03442
699.45824	0.03430
698.17247	0.03415
696.88670	0.03399
695.60094	0.03384
694.31517	0.03374
693.02940	0.03369
691.74363	0.03370
690.45786	0.03373
689.17209	0.03375
687.88632	0.03374
686.60055	0.03372
685.31478	0.03372
684.02902	0.03376
682.74325	0.03383
681.45748	0.03389
680.17171	0.03393
678.88594	0.03396
677.60017	0.03400
676.31440	0.03405
675.02863	0.03412
673.74287	0.03420
672.45710	0.03430
671.17133	0.03436
669.88556	0.03439
668.59979	0.03454
667.31402	0.03452
666.02825	0.03419
664.74248	0.03409
663.45671	0.03397
662.17095	0.03376
660.88518	0.03350
659.59941	0.03325
658.31364	0.03303
657.02787	0.03287
655.74210	0.03276
654.45633	0.03268
653.17056	0.03264
651.88480	0.03263
650.59903	0.03266
649.31326	0.03270
648.02749	0.03270
646.74172	0.03267
645.45595	0.03265
644.17018	0.03268
642.88441	0.03281
641.59864	0.03300
640.31288	0.03322
639.02711	0.03351
637.74134	0.03393
636.45557	0.03447
635.16980	0.03503
633.88403	0.03553
632.59826	0.03593
631.31249	0.03634
630.02673	0.03725
628.74096	0.03879
627.45519	0.03917
626.16942	0.04123
624.88365	0.04447
623.59788	0.04800
622.31211	0.05180
621.02634	0.05590
619.74057	0.05992
618.45481	0.06336
617.16904	0.06587
615.88327	0.06737
614.59750	0.06801
613.31173	0.06838
612.02596	0.06937
610.74019	0.07217
609.45442	0.07752
608.16866	0.08487
606.88289	0.09248
605.59712	0.09864
604.31135	0.10260
603.02558	0.10446
601.73981	0.10471
600.45404	0.10389
599.16827	0.10240
597.88250	0.10046
596.59674	0.09818
595.31097	0.09561
594.02520	0.09293
592.73943	0.09047
591.45366	0.08860
590.16789	0.08754
588.88212	0.08729
587.59635	0.08771
586.31059	0.08861
585.02482	0.08989
583.73905	0.09158
582.45328	0.09373
581.16751	0.09631
579.88174	0.09913
578.59597	0.10199
577.31020	0.10472
576.02443	0.10730
574.73867	0.10974
573.45290	0.11209
572.16713	0.11449
570.88136	0.11714
569.59559	0.12034
568.30982	0.12424
567.02405	0.12873
565.73828	0.13338
564.45251	0.13756
563.16675	0.14060
561.88098	0.14197
560.59521	0.14136
559.30944	0.13869
558.02367	0.13415
556.73790	0.12809
555.45213	0.12098
554.16636	0.11340
552.88060	0.10590
551.59483	0.09896
550.30906	0.09284
549.02329	0.08754
547.73752	0.08287
546.45175	0.07856
545.16598	0.07441
543.88021	0.07048
542.59444	0.06694
541.30868	0.06398
540.02291	0.06161
538.73714	0.05969
537.45137	0.05795
536.16560	0.05625
534.87983	0.05459
533.59406	0.05308
532.30829	0.05174
531.02253	0.05048
529.73676	0.04926
528.45099	0.04808
527.16522	0.04701
525.87945	0.04603
524.59368	0.04510
523.30791	0.04416
522.02214	0.04318
520.73637	0.04215
519.45061	0.04114
518.16484	0.04021
516.87907	0.03940
515.59330	0.03867
514.30753	0.03798
513.02176	0.03731
511.73599	0.03672
510.45022	0.03630
509.16446	0.03603
507.87869	0.03578
506.59292	0.03544
505.30715	0.03496
504.02138	0.03439
502.73561	0.03383
501.44984	0.03339
500.16407	0.03312
498.87830	0.03297
497.59254	0.03284
496.30677	0.03262
495.02100	0.03229
493.73523	0.03196
492.44946	0.03172
491.16369	0.03160
489.87792	0.03150
488.59215	0.03139
487.30639	0.03127
486.02062	0.03116
484.73485	0.03108
483.44908	0.03107
482.16331	0.03115
480.87754	0.03130
479.59177	0.03148
478.30600	0.03164
477.02023	0.03180
475.73447	0.03198
474.44870	0.03221
473.16293	0.03244
471.87716	0.03265
470.59139	0.03285
469.30562	0.03301
468.01985	0.03311
466.73408	0.03310
465.44832	0.03298
464.16255	0.03278
462.87678	0.03256
461.59101	0.03231
460.30524	0.03200
459.01947	0.03157
457.73370	0.03107
456.44793	0.03059
455.16216	0.03025
453.87640	0.03003
452.59063	0.02989
451.30486	0.02974
450.01909	0.02957
448.73332	0.02941
447.44755	0.02928
446.16178	0.02913
444.87601	0.02892
443.59025	0.02864
442.30448	0.02835
441.01871	0.02810
439.73294	0.02795
438.44717	0.02791
437.16140	0.02798
435.87563	0.02810
434.58986	0.02821
433.30409	0.02826
432.01833	0.02825
430.73256	0.02818
429.44679	0.02805
428.16102	0.02788
426.87525	0.02774
425.58948	0.02766
424.30371	0.02763
423.01794	0.02759
421.73218	0.02749
420.44641	0.02732
419.16064	0.02714
417.87487	0.02700
416.58910	0.02691
415.30333	0.02685
414.01756	0.02683
412.73179	0.02685
411.44602	0.02688
410.16026	0.02687
408.87449	0.02684
407.58872	0.02687
406.30295	0.02698
405.01718	0.02712
403.73141	0.02724
402.44564	0.02731
401.15987	0.02740
399.87411	0.02752
