3997.45528	0.02436
3996.16951	0.02491
3994.88374	0.02556
3993.59798	0.02583
3992.31221	0.02532
3991.02644	0.02410
3989.74067	0.02257
3988.45490	0.02126
3987.16913	0.02059
3985.88336	0.02079
3984.59759	0.02164
3983.31183	0.02263
3982.02606	0.02343
3980.74029	0.02409
3979.45452	0.02484
3978.16875	0.02563
3976.88298	0.02625
3975.59721	0.02651
3974.31144	0.02643
3973.02567	0.02609
3971.73991	0.02560
3970.45414	0.02501
3969.16837	0.02445
3967.88260	0.02405
3966.59683	0.02398
3965.31106	0.02423
3964.02529	0.02458
3962.73952	0.02472
3961.45376	0.02440
3960.16799	0.02365
3958.88222	0.02293
3957.59645	0.02281
3956.31068	0.02347
3955.02491	0.02450
3953.73914	0.02529
3952.45337	0.02560
3951.16760	0.02563
3949.88184	0.02568
3948.59607	0.02578
3947.31030	0.02574
3946.02453	0.02539
3944.73876	0.02479
3943.45299	0.02413
3942.16722	0.02367
3940.88145	0.02361
3939.59569	0.02386
3938.30992	0.02400
3937.02415	0.02367
3935.73838	0.02302
3934.45261	0.02256
3933.16684	0.02255
3931.88107	0.02283
3930.59530	0.02320
3929.30953	0.02369
3928.02377	0.02437
3926.73800	0.02503
3925.45223	0.02527
3924.16646	0.02487
3922.88069	0.02414
3921.59492	0.02364
3920.30915	0.02372
3919.02338	0.02429
3917.73762	0.02502
3916.45185	0.02551
3915.16608	0.02553
3913.88031	0.02510
3912.59454	0.02441
3911.30877	0.02381
3910.02300	0.02360
3908.73723	0.02378
3907.45146	0.02404
3906.16570	0.02395
3904.87993	0.02331
3903.59416	0.02226
3902.30839	0.02129
3901.02262	0.02093
3899.73685	0.02142
3898.45108	0.02251
3897.16531	0.02368
3895.87955	0.02454
3894.59378	0.02507
3893.30801	0.02544
3892.02224	0.02563
3890.73647	0.02547
3889.45070	0.02497
3888.16493	0.02444
3886.87916	0.02412
3885.59339	0.02394
3884.30763	0.02372
3883.02186	0.02340
3881.73609	0.02310
3880.45032	0.02291
3879.16455	0.02296
3877.87878	0.02338
3876.59301	0.02412
3875.30724	0.02481
3874.02148	0.02496
3872.73571	0.02442
3871.44994	0.02358
3870.16417	0.02288
3868.87840	0.02254
3867.59263	0.02259
3866.30686	0.02289
3865.02109	0.02314
3863.73532	0.02318
3862.44956	0.02314
3861.16379	0.02312
3859.87802	0.02303
3858.59225	0.02276
3857.30648	0.02248
3856.02071	0.02250
3854.73494	0.02280
3853.44917	0.02295
3852.16341	0.02260
3850.87764	0.02197
3849.59187	0.02160
3848.30610	0.02187
3847.02033	0.02275
3845.73456	0.02394
3844.44879	0.02501
3843.16302	0.02554
3841.87725	0.02535
3840.59149	0.02462
3839.30572	0.02373
3838.01995	0.02292
3836.73418	0.02236
3835.44841	0.02223
3834.16264	0.02258
3832.87687	0.02309
3831.59110	0.02336
3830.30534	0.02320
3829.01957	0.02275
3827.73380	0.02232
3826.44803	0.02207
3825.16226	0.02207
3823.87649	0.02236
3822.59072	0.02287
3821.30495	0.02337
3820.01918	0.02381
3818.73342	0.02438
3817.44765	0.02498
3816.16188	0.02509
3814.87611	0.02438
3813.59034	0.02340
3812.30457	0.02297
3811.01880	0.02336
3809.73303	0.02414
3808.44726	0.02459
3807.16150	0.02419
3805.87573	0.02314
3804.58996	0.02230
3803.30419	0.02221
3802.01842	0.02259
3800.73265	0.02278
3799.44688	0.02266
3798.16111	0.02250
3796.87535	0.02229
3795.58958	0.02178
3794.30381	0.02104
3793.01804	0.02053
3791.73227	0.02065
3790.44650	0.02138
3789.16073	0.02222
3787.87496	0.02262
3786.58919	0.02239
3785.30343	0.02186
3784.01766	0.02153
3782.73189	0.02170
3781.44612	0.02232
3780.16035	0.02300
3778.87458	0.02328
3777.58881	0.02303
3776.30304	0.02251
3775.01728	0.02212
3773.73151	0.02207
3772.44574	0.02229
3771.15997	0.02254
3769.87420	0.02261
3768.58843	0.02252
3767.30266	0.02245
3766.01689	0.02248
3764.73112	0.02249
3763.44536	0.02226
3762.15959	0.02177
3760.87382	0.02118
3759.58805	0.02073
3758.30228	0.02050
3757.01651	0.02038
3755.73074	0.02036
3754.44497	0.02060
3753.15921	0.02114
3751.87344	0.02171
3750.58767	0.02202
3749.30190	0.02199
3748.01613	0.02187
3746.73036	0.02204
3745.44459	0.02245
3744.15882	0.02247
3742.87305	0.02183
3741.58729	0.02097
3740.30152	0.02028
3739.01575	0.01984
3737.72998	0.01967
3736.44421	0.01989
3735.15844	0.02053
3733.87267	0.02137
3732.58690	0.02191
3731.30114	0.02185
3730.01537	0.02154
3728.72960	0.02166
3727.44383	0.02235
3726.15806	0.02306
3724.87229	0.02312
3723.58652	0.02244
3722.30075	0.02148
3721.01498	0.02081
3719.72922	0.02076
3718.44345	0.02132
3717.15768	0.02229
3715.87191	0.02331
3714.58614	0.02399
3713.30037	0.02401
3712.01460	0.02338
3710.72883	0.02249
3709.44307	0.02189
3708.15730	0.02184
3706.87153	0.02217
3705.58576	0.02242
3704.29999	0.02220
3703.01422	0.02148
3701.72845	0.02065
3700.44268	0.02020
3699.15691	0.02020
3697.87115	0.02036
3696.58538	0.02035
3695.29961	0.02021
3694.01384	0.02021
3692.72807	0.02053
3691.44230	0.02118
3690.15653	0.02208
3688.87076	0.02296
3687.58500	0.02342
3686.29923	0.02321
3685.01346	0.02244
3683.72769	0.02154
3682.44192	0.02097
3681.15615	0.02098
3679.87038	0.02144
3678.58461	0.02204
3677.29884	0.02243
3676.01308	0.02224
3674.72731	0.02140
3673.44154	0.02049
3672.15577	0.02027
3670.87000	0.02079
3669.58423	0.02147
3668.29846	0.02194
3667.01269	0.02223
3665.72693	0.02245
3664.44116	0.02258
3663.15539	0.02266
3661.86962	0.02283
3660.58385	0.02316
3659.29808	0.02357
3658.01231	0.02392
3656.72654	0.02414
3655.44077	0.02420
3654.15501	0.02408
3652.86924	0.02376
3651.58347	0.02319
3650.29770	0.02239
3649.01193	0.02162
3647.72616	0.02131
3646.44039	0.02177
3645.15462	0.02287
3643.86886	0.02407
3642.58309	0.02483
3641.29732	0.02498
3640.01155	0.02479
3638.72578	0.02471
3637.44001	0.02502
3636.15424	0.02560
3634.86847	0.02605
3633.58270	0.02598
3632.29694	0.02542
3631.01117	0.02479
3629.72540	0.02450
3628.43963	0.02469
3627.15386	0.02535
3625.86809	0.02636
3624.58232	0.02737
3623.29655	0.02803
3622.01079	0.02819
3620.72502	0.02789
3619.43925	0.02735
3618.15348	0.02687
3616.86771	0.02679
3615.58194	0.02713
3614.29617	0.02754
3613.01040	0.02764
3611.72463	0.02735
3610.43887	0.02693
3609.15310	0.02673
3607.86733	0.02697
3606.58156	0.02762
3605.29579	0.02840
3604.01002	0.02901
3602.72425	0.02940
3601.43848	0.02975
3600.15272	0.03014
3598.86695	0.03045
3597.58118	0.03051
3596.29541	0.03033
3595.00964	0.03006
3593.72387	0.02996
3592.43810	0.03029
3591.15233	0.03107
3589.86656	0.03203
3588.58080	0.03268
3587.29503	0.03270
3586.00926	0.03215
3584.72349	0.03143
3583.43772	0.03099
3582.15195	0.03098
3580.86618	0.03113
3579.58041	0.03115
3578.29464	0.03105
3577.00888	0.03110
3575.72311	0.03146
3574.43734	0.03195
3573.15157	0.03226
3571.86580	0.03229
3570.58003	0.03219
3569.29426	0.03221
3568.00849	0.03239
3566.72273	0.03268
3565.43696	0.03306
3564.15119	0.03357
3562.86542	0.03408
3561.57965	0.03422
3560.29388	0.03378
3559.00811	0.03303
3557.72234	0.03261
3556.43657	0.03296
3555.15081	0.03394
3553.86504	0.03502
3552.57927	0.03565
3551.29350	0.03563
3550.00773	0.03520
3548.72196	0.03495
3547.43619	0.03539
3546.15042	0.03656
3544.86466	0.03791
3543.57889	0.03874
3542.29312	0.03872
3541.00735	0.03814
3539.72158	0.03759
3538.43581	0.03750
3537.15004	0.03781
3535.86427	0.03824
3534.57850	0.03866
3533.29274	0.03913
3532.00697	0.03968
3530.72120	0.04007
3529.43543	0.04007
3528.14966	0.03971
3526.86389	0.03931
3525.57812	0.03914
3524.29235	0.03913
3523.00659	0.03911
3521.72082	0.03913
3520.43505	0.03941
3519.14928	0.04001
3517.86351	0.04075
3516.57774	0.04144
3515.29197	0.04203
3514.00620	0.04247
3512.72043	0.04260
3511.43467	0.04229
3510.14890	0.04167
3508.86313	0.04115
3507.57736	0.04111
3506.29159	0.04157
3505.00582	0.04219
3503.72005	0.04253
3502.43428	0.04246
3501.14852	0.04224
3499.86275	0.04221
3498.57698	0.04235
3497.29121	0.04239
3496.00544	0.04218
3494.71967	0.04192
3493.43390	0.04193
3492.14813	0.04230
3490.86236	0.04279
3489.57660	0.04315
3488.29083	0.04331
3487.00506	0.04335
3485.71929	0.04337
3484.43352	0.04345
3483.14775	0.04361
3481.86198	0.04384
3480.57621	0.04405
3479.29045	0.04415
3478.00468	0.04418
3476.71891	0.04432
3475.43314	0.04467
3474.14737	0.04517
3472.86160	0.04560
3471.57583	0.04584
3470.29006	0.04594
3469.00429	0.04605
3467.71853	0.04629
3466.43276	0.04661
3465.14699	0.04691
3463.86122	0.04706
3462.57545	0.04707
3461.28968	0.04705
3460.00391	0.04709
3458.71814	0.04715
3457.43238	0.04716
3456.14661	0.04715
3454.86084	0.04729
3453.57507	0.04769
3452.28930	0.04826
3451.00353	0.04877
3449.71776	0.04900
3448.43199	0.04894
3447.14622	0.04873
3445.86046	0.04848
3444.57469	0.04826
3443.28892	0.04808
3442.00315	0.04799
3440.71738	0.04800
3439.43161	0.04806
3438.14584	0.04822
3436.86007	0.04860
3435.57431	0.04924
3434.28854	0.04989
3433.00277	0.05016
3431.71700	0.04993
3430.43123	0.04945
3429.14546	0.04911
3427.85969	0.04913
3426.57392	0.04948
3425.28815	0.05001
3424.00239	0.05057
3422.71662	0.05097
3421.43085	0.05102
3420.14508	0.05068
3418.85931	0.05025
3417.57354	0.05020
3416.28777	0.05075
3415.00200	0.05164
3413.71624	0.05231
3412.43047	0.05228
3411.14470	0.05156
3409.85893	0.05063
3408.57316	0.05010
3407.28739	0.05027
3406.00162	0.05100
3404.71585	0.05195
3403.43008	0.05278
3402.14432	0.05330
3400.85855	0.05351
3399.57278	0.05355
3398.28701	0.05350
3397.00124	0.05339
3395.71547	0.05331
3394.42970	0.05336
3393.14393	0.05348
3391.85817	0.05343
3390.57240	0.05304
3389.28663	0.05252
3388.00086	0.05227
3386.71509	0.05244
3385.42932	0.05283
3384.14355	0.05310
3382.85778	0.05316
3381.57201	0.05310
3380.28625	0.05302
3379.00048	0.05296
3377.71471	0.05300
3376.42894	0.05324
3375.14317	0.05370
3373.85740	0.05418
3372.57163	0.05447
3371.28586	0.05457
3370.00010	0.05465
3368.71433	0.05485
3367.42856	0.05508
3366.14279	0.05511
3364.85702	0.05482
3363.57125	0.05430
3362.28548	0.05381
3360.99971	0.05351
3359.71394	0.05341
3358.42818	0.05342
3357.14241	0.05355
3355.85664	0.05383
3354.57087	0.05428
3353.28510	0.05482
3351.99933	0.05533
3350.71356	0.05569
3349.42779	0.05581
3348.14202	0.05559
3346.85626	0.05501
3345.57049	0.05425
3344.28472	0.05363
3342.99895	0.05346
3341.71318	0.05377
3340.42741	0.05428
3339.14164	0.05460
3337.85587	0.05458
3336.57011	0.05435
3335.28434	0.05410
3333.99857	0.05392
3332.71280	0.05383
3331.42703	0.05389
3330.14126	0.05417
3328.85549	0.05463
3327.56972	0.05508
3326.28395	0.05529
3324.99819	0.05511
3323.71242	0.05457
3322.42665	0.05388
3321.14088	0.05322
3319.85511	0.05269
3318.56934	0.05235
3317.28357	0.05227
3315.99780	0.05250
3314.71204	0.05301
3313.42627	0.05365
3312.14050	0.05427
3310.85473	0.05469
3309.56896	0.05484
3308.28319	0.05477
3306.99742	0.05465
3305.71165	0.05458
3304.42588	0.05451
3303.14012	0.05435
3301.85435	0.05407
3300.56858	0.05382
3299.28281	0.05371
3297.99704	0.05374
3296.71127	0.05375
3295.42550	0.05368
3294.13973	0.05358
3292.85397	0.05356
3291.56820	0.05363
3290.28243	0.05374
3288.99666	0.05385
3287.71089	0.05394
3286.42512	0.05398
3285.13935	0.05397
3283.85358	0.05394
3282.56781	0.05398
3281.28205	0.05404
3279.99628	0.05404
3278.71051	0.05388
3277.42474	0.05359
3276.13897	0.05325
3274.85320	0.05293
3273.56743	0.05270
3272.28166	0.05267
3270.99590	0.05289
3269.71013	0.05329
3268.42436	0.05361
3267.13859	0.05368
3265.85282	0.05363
3264.56705	0.05377
3263.28128	0.05423
3261.99551	0.05471
3260.70974	0.05478
3259.42398	0.05432
3258.13821	0.05353
3256.85244	0.05271
3255.56667	0.05205
3254.28090	0.05161
3252.99513	0.05140
3251.70936	0.05137
3250.42359	0.05145
3249.13783	0.05161
3247.85206	0.05189
3246.56629	0.05232
3245.28052	0.05280
3243.99475	0.05317
3242.70898	0.05335
3241.42321	0.05341
3240.13744	0.05338
3238.85167	0.05321
3237.56591	0.05287
3236.28014	0.05249
3234.99437	0.05225
3233.70860	0.05221
3232.42283	0.05234
3231.13706	0.05254
3229.85129	0.05273
3228.56552	0.05276
3227.27976	0.05249
3225.99399	0.05201
3224.70822	0.05153
3223.42245	0.05132
3222.13668	0.05145
3220.85091	0.05179
3219.56514	0.05215
3218.27937	0.05233
3216.99360	0.05233
3215.70784	0.05219
3214.42207	0.05200
3213.13630	0.05179
3211.85053	0.05155
3210.56476	0.05130
3209.27899	0.05117
3207.99322	0.05130
3206.70745	0.05164
3205.42169	0.05184
3204.13592	0.05152
3202.85015	0.05064
3201.56438	0.04960
3200.27861	0.04888
3198.99284	0.04872
3197.70707	0.04901
3196.42130	0.04950
3195.13553	0.04996
3193.84977	0.05030
3192.56400	0.05047
3191.27823	0.05050
3189.99246	0.05037
3188.70669	0.05016
3187.42092	0.05003
3186.13515	0.05004
3184.84938	0.05003
3183.56362	0.04986
3182.27785	0.04959
3180.99208	0.04942
3179.70631	0.04942
3178.42054	0.04952
3177.13477	0.04962
3175.84900	0.04973
3174.56323	0.04983
3173.27746	0.04979
3171.99170	0.04955
3170.70593	0.04919
3169.42016	0.04890
3168.13439	0.04875
3166.84862	0.04864
3165.56285	0.04845
3164.27708	0.04823
3162.99131	0.04810
3161.70555	0.04809
3160.41978	0.04813
3159.13401	0.04810
3157.84824	0.04798
3156.56247	0.04783
3155.27670	0.04772
3153.99093	0.04762
3152.70516	0.04742
3151.41939	0.04716
3150.13363	0.04709
3148.84786	0.04741
3147.56209	0.04804
3146.27632	0.04862
3144.99055	0.04886
3143.70478	0.04867
3142.41901	0.04818
3141.13324	0.04764
3139.84748	0.04724
3138.56171	0.04700
3137.27594	0.04677
3135.99017	0.04645
3134.70440	0.04614
3133.41863	0.04603
3132.13286	0.04610
3130.84709	0.04615
3129.56132	0.04600
3128.27556	0.04573
3126.98979	0.04564
3125.70402	0.04586
3124.41825	0.04625
3123.13248	0.04658
3121.84671	0.04667
3120.56094	0.04651
3119.27517	0.04609
3117.98940	0.04546
3116.70364	0.04481
3115.41787	0.04447
3114.13210	0.04466
3112.84633	0.04525
3111.56056	0.04581
3110.27479	0.04598
3108.98902	0.04570
3107.70325	0.04509
3106.41749	0.04439
3105.13172	0.04384
3103.84595	0.04362
3102.56018	0.04374
3101.27441	0.04404
3099.98864	0.04433
3098.70287	0.04456
3097.41710	0.04479
3096.13133	0.04501
3094.84557	0.04519
3093.55980	0.04525
3092.27403	0.04514
3090.98826	0.04485
3089.70249	0.04449
3088.41672	0.04425
3087.13095	0.04425
3085.84518	0.04439
3084.55942	0.04443
3083.27365	0.04426
3081.98788	0.04401
3080.70211	0.04381
3079.41634	0.04365
3078.13057	0.04345
3076.84480	0.04326
3075.55903	0.04319
3074.27326	0.04328
3072.98750	0.04349
3071.70173	0.04374
3070.41596	0.04398
3069.13019	0.04408
3067.84442	0.04393
3066.55865	0.04362
3065.27288	0.04336
3063.98711	0.04332
3062.70135	0.04343
3061.41558	0.04353
3060.12981	0.04350
3058.84404	0.04339
3057.55827	0.04333
3056.27250	0.04334
3054.98673	0.04335
3053.70096	0.04330
3052.41519	0.04318
3051.12943	0.04298
3049.84366	0.04271
3048.55789	0.04242
3047.27212	0.04225
3045.98635	0.04230
3044.70058	0.04252
3043.41481	0.04269
3042.12904	0.04262
3040.84328	0.04232
3039.55751	0.04203
3038.27174	0.04201
3036.98597	0.04226
3035.70020	0.04253
3034.41443	0.04249
3033.12866	0.04204
3031.84289	0.04134
3030.55712	0.04071
3029.27136	0.04036
3027.98559	0.04032
3026.69982	0.04043
3025.41405	0.04045
3024.12828	0.04027
3022.84251	0.03995
3021.55674	0.03974
3020.27097	0.03975
3018.98521	0.03987
3017.69944	0.03982
3016.41367	0.03949
3015.12790	0.03901
3013.84213	0.03863
3012.55636	0.03847
3011.27059	0.03844
3009.98482	0.03841
3008.69905	0.03837
3007.41329	0.03841
3006.12752	0.03865
3004.84175	0.03904
3003.55598	0.03941
3002.27021	0.03958
3000.98444	0.03955
2999.69867	0.03945
2998.41290	0.03949
2997.12714	0.03975
2995.84137	0.04012
2994.55560	0.04034
2993.26983	0.04020
2991.98406	0.03963
2990.69829	0.03886
2989.41252	0.03829
2988.12675	0.03817
2986.84098	0.03845
2985.55522	0.03880
2984.26945	0.03893
2982.98368	0.03872
2981.69791	0.03836
2980.41214	0.03815
2979.12637	0.03825
2977.84060	0.03853
2976.55483	0.03869
2975.26907	0.03859
2973.98330	0.03832
2972.69753	0.03812
2971.41176	0.03812
2970.12599	0.03830
2968.84022	0.03852
2967.55445	0.03870
2966.26868	0.03882
2964.98291	0.03887
2963.69715	0.03877
2962.41138	0.03852
2961.12561	0.03837
2959.83984	0.03856
2958.55407	0.03904
2957.26830	0.03953
2955.98253	0.03984
2954.69676	0.04008
2953.41100	0.04034
2952.12523	0.04048
2950.83946	0.04033
2949.55369	0.03997
2948.26792	0.03964
2946.98215	0.03951
2945.69638	0.03953
2944.41061	0.03960
2943.12484	0.03966
2941.83908	0.03970
2940.55331	0.03967
2939.26754	0.03954
2937.98177	0.03933
2936.69600	0.03907
2935.41023	0.03875
2934.12446	0.03834
2932.83869	0.03778
2931.55293	0.03696
2930.26716	0.03585
2928.98139	0.03459
2927.69562	0.03341
2926.40985	0.03249
2925.12408	0.03179
2923.83831	0.03113
2922.55254	0.03033
2921.26677	0.02940
2919.98101	0.02849
2918.69524	0.02776
2917.40947	0.02731
2916.12370	0.02729
2914.83793	0.02782
2913.55216	0.02894
2912.26639	0.03052
2910.98062	0.03227
2909.69486	0.03389
2908.40909	0.03515
2907.12332	0.03596
2905.83755	0.03641
2904.55178	0.03663
2903.26601	0.03668
2901.98024	0.03659
2900.69447	0.03646
2899.40870	0.03638
2898.12294	0.03639
2896.83717	0.03647
2895.55140	0.03653
2894.26563	0.03653
2892.97986	0.03646
2891.69409	0.03632
2890.40832	0.03616
2889.12255	0.03607
2887.83678	0.03609
2886.55102	0.03614
2885.26525	0.03612
2883.97948	0.03607
2882.69371	0.03612
2881.40794	0.03626
2880.12217	0.03637
2878.83640	0.03644
2877.55063	0.03658
2876.26487	0.03686
2874.97910	0.03717
2873.69333	0.03732
2872.40756	0.03720
2871.12179	0.03687
2869.83602	0.03647
2868.55025	0.03613
2867.26448	0.03586
2865.97871	0.03561
2864.69295	0.03531
2863.40718	0.03497
2862.12141	0.03462
2860.83564	0.03432
2859.54987	0.03402
2858.26410	0.03351
2856.97833	0.03257
2855.69256	0.03119
2854.40680	0.02959
2853.12103	0.02811
2851.83526	0.02699
2850.54949	0.02643
2849.26372	0.02659
2847.97795	0.02747
2846.69218	0.02885
2845.40641	0.03035
2844.12064	0.03164
2842.83488	0.03256
2841.54911	0.03310
2840.26334	0.03334
2838.97757	0.03342
2837.69180	0.03347
2836.40603	0.03350
2835.12026	0.03343
2833.83449	0.03321
2832.54873	0.03290
2831.26296	0.03260
2829.97719	0.03239
2828.69142	0.03227
2827.40565	0.03218
2826.11988	0.03204
2824.83411	0.03193
2823.54834	0.03194
2822.26257	0.03204
2820.97681	0.03212
2819.69104	0.03210
2818.40527	0.03201
2817.11950	0.03191
2815.83373	0.03181
2814.54796	0.03168
2813.26219	0.03156
2811.97642	0.03154
2810.69066	0.03160
2809.40489	0.03163
2808.11912	0.03152
2806.83335	0.03131
2805.54758	0.03111
2804.26181	0.03095
2802.97604	0.03078
2801.69027	0.03060
2800.40450	0.03046
2799.11874	0.03036
2797.83297	0.03019
2796.54720	0.02996
2795.26143	0.02982
2793.97566	0.02989
2792.68989	0.03008
2791.40412	0.03021
2790.11835	0.03018
2788.83259	0.03008
2787.54682	0.02998
2786.26105	0.02987
2784.97528	0.02968
2783.68951	0.02942
2782.40374	0.02922
2781.11797	0.02919
2779.83220	0.02938
2778.54643	0.02968
2777.26067	0.03000
2775.97490	0.03022
2774.68913	0.03027
2773.40336	0.03012
2772.11759	0.02983
2770.83182	0.02954
2769.54605	0.02929
2768.26028	0.02907
2766.97452	0.02890
2765.68875	0.02887
2764.40298	0.02898
2763.11721	0.02910
2761.83144	0.02908
2760.54567	0.02890
2759.25990	0.02870
2757.97413	0.02860
2756.68836	0.02860
2755.40260	0.02871
2754.11683	0.02884
2752.83106	0.02888
2751.54529	0.02868
2750.25952	0.02829
2748.97375	0.02791
2747.68798	0.02772
2746.40221	0.02775
2745.11645	0.02786
2743.83068	0.02795
2742.54491	0.02804
2741.25914	0.02814
2739.97337	0.02824
2738.68760	0.02825
2737.40183	0.02812
2736.11606	0.02791
2734.83029	0.02775
2733.54453	0.02773
2732.25876	0.02782
2730.97299	0.02789
2729.68722	0.02782
2728.40145	0.02762
2727.11568	0.02742
2725.82991	0.02736
2724.54414	0.02743
2723.25838	0.02751
2721.97261	0.02746
2720.68684	0.02727
2719.40107	0.02707
2718.11530	0.02695
2716.82953	0.02690
2715.54376	0.02685
2714.25799	0.02673
2712.97222	0.02659
2711.68646	0.02649
2710.40069	0.02650
2709.11492	0.02655
2707.82915	0.02655
2706.54338	0.02643
2705.25761	0.02630
2703.97184	0.02627
2702.68607	0.02630
2701.40031	0.02626
2700.11454	0.02612
2698.82877	0.02596
2697.54300	0.02590
2696.25723	0.02591
2694.97146	0.02595
2693.68569	0.02599
2692.39992	0.02605
2691.11415	0.02612
2689.82839	0.02619
2688.54262	0.02624
2687.25685	0.02627
2685.97108	0.02623
2684.68531	0.02609
2683.39954	0.02586
2682.11377	0.02563
2680.82800	0.02547
2679.54224	0.02542
2678.25647	0.02544
2676.97070	0.02550
2675.68493	0.02558
2674.39916	0.02566
2673.11339	0.02568
2671.82762	0.02564
2670.54185	0.02553
2669.25608	0.02545
2667.97032	0.02549
2666.68455	0.02571
2665.39878	0.02600
2664.11301	0.02616
2662.82724	0.02601
2661.54147	0.02559
2660.25570	0.02515
2658.96993	0.02493
2657.68417	0.02500
2656.39840	0.02519
2655.11263	0.02533
2653.82686	0.02531
2652.54109	0.02512
2651.25532	0.02482
2649.96955	0.02455
2648.68378	0.02441
2647.39801	0.02442
2646.11225	0.02448
2644.82648	0.02451
2643.54071	0.02450
2642.25494	0.02445
2640.96917	0.02429
2639.68340	0.02398
2638.39763	0.02362
2637.11186	0.02335
2635.82609	0.02325
2634.54033	0.02325
2633.25456	0.02321
2631.96879	0.02309
2630.68302	0.02292
2629.39725	0.02274
2628.11148	0.02247
2626.82571	0.02217
2625.53994	0.02199
2624.25418	0.02210
2622.96841	0.02245
2621.68264	0.02280
2620.39687	0.02291
2619.11110	0.02270
2617.82533	0.02228
2616.53956	0.02189
2615.25379	0.02166
2613.96802	0.02163
2612.68226	0.02169
2611.39649	0.02170
2610.11072	0.02158
2608.82495	0.02139
2607.53918	0.02128
2606.25341	0.02141
2604.96764	0.02178
2603.68187	0.02217
2602.39611	0.02229
2601.11034	0.02202
2599.82457	0.02154
2598.53880	0.02120
2597.25303	0.02120
2595.96726	0.02137
2594.68149	0.02133
2593.39572	0.02094
2592.10995	0.02044
2590.82419	0.02015
2589.53842	0.02009
2588.25265	0.01998
2586.96688	0.01966
2585.68111	0.01934
2584.39534	0.01936
2583.10957	0.01979
2581.82380	0.02031
2580.53804	0.02055
2579.25227	0.02041
2577.96650	0.02012
2576.68073	0.01994
2575.39496	0.01995
2574.10919	0.02010
2572.82342	0.02018
2571.53765	0.02010
2570.25188	0.01987
2568.96612	0.01960
2567.68035	0.01937
2566.39458	0.01917
2565.10881	0.01894
2563.82304	0.01873
2562.53727	0.01863
2561.25150	0.01869
2559.96573	0.01886
2558.67997	0.01903
2557.39420	0.01911
2556.10843	0.01912
2554.82266	0.01908
2553.53689	0.01899
2552.25112	0.01894
2550.96535	0.01904
2549.67958	0.01929
2548.39381	0.01955
2547.10805	0.01973
2545.82228	0.01983
2544.53651	0.01984
2543.25074	0.01967
2541.96497	0.01933
2540.67920	0.01902
2539.39343	0.01889
2538.10766	0.01889
2536.82190	0.01887
2535.53613	0.01872
2534.25036	0.01848
2532.96459	0.01834
2531.67882	0.01843
2530.39305	0.01868
2529.10728	0.01892
2527.82151	0.01907
2526.53574	0.01908
2525.24998	0.01894
2523.96421	0.01866
2522.67844	0.01842
2521.39267	0.01837
2520.10690	0.01843
2518.82113	0.01841
2517.53536	0.01828
2516.24959	0.01821
2514.96383	0.01833
2513.67806	0.01851
2512.39229	0.01851
2511.10652	0.01826
2509.82075	0.01793
2508.53498	0.01776
2507.24921	0.01783
2505.96344	0.01804
2504.67767	0.01825
2503.39191	0.01835
2502.10614	0.01827
2500.82037	0.01809
2499.53460	0.01797
2498.24883	0.01801
2496.96306	0.01817
2495.67729	0.01837
2494.39152	0.01859
2493.10576	0.01885
2491.81999	0.01914
2490.53422	0.01941
2489.24845	0.01958
2487.96268	0.01961
2486.67691	0.01952
2485.39114	0.01928
2484.10537	0.01885
2482.81960	0.01829
2481.53384	0.01784
2480.24807	0.01767
2478.96230	0.01770
2477.67653	0.01775
2476.39076	0.01778
2475.10499	0.01778
2473.81922	0.01770
2472.53345	0.01743
2471.24769	0.01703
2469.96192	0.01673
2468.67615	0.01671
2467.39038	0.01694
2466.10461	0.01719
2464.81884	0.01735
2463.53307	0.01745
2462.24730	0.01766
2460.96153	0.01796
2459.67577	0.01816
2458.39000	0.01811
2457.10423	0.01789
2455.81846	0.01773
2454.53269	0.01777
2453.24692	0.01787
2451.96115	0.01789
2450.67538	0.01789
2449.38962	0.01808
2448.10385	0.01841
2446.81808	0.01855
2445.53231	0.01825
2444.24654	0.01766
2442.96077	0.01719
2441.67500	0.01699
2440.38923	0.01691
2439.10346	0.01672
2437.81770	0.01639
2436.53193	0.01617
2435.24616	0.01622
2433.96039	0.01645
2432.67462	0.01656
2431.38885	0.01643
2430.10308	0.01625
2428.81731	0.01624
2427.53155	0.01643
2426.24578	0.01671
2424.96001	0.01698
2423.67424	0.01725
2422.38847	0.01753
2421.10270	0.01781
2419.81693	0.01798
2418.53116	0.01791
2417.24539	0.01760
2415.95963	0.01715
2414.67386	0.01667
2413.38809	0.01618
2412.10232	0.01576
2410.81655	0.01557
2409.53078	0.01570
2408.24501	0.01610
2406.95924	0.01660
2405.67347	0.01706
2404.38771	0.01737
2403.10194	0.01747
2401.81617	0.01735
2400.53040	0.01713
2399.24463	0.01694
2397.95886	0.01688
2396.67309	0.01686
2395.38732	0.01679
2394.10156	0.01665
2392.81579	0.01655
2391.53002	0.01657
2390.24425	0.01676
2388.95848	0.01705
2387.67271	0.01735
2386.38694	0.01753
2385.10117	0.01747
2383.81540	0.01715
2382.52964	0.01674
2381.24387	0.01648
2379.95810	0.01651
2378.67233	0.01678
2377.38656	0.01709
2376.10079	0.01728
2374.81502	0.01732
2373.52925	0.01729
2372.24349	0.01728
2370.95772	0.01735
2369.67195	0.01755
2368.38618	0.01784
2367.10041	0.01812
2365.81464	0.01830
2364.52887	0.01840
2363.24310	0.01849
2361.95733	0.01865
2360.67157	0.01884
2359.38580	0.01896
2358.10003	0.01896
2356.81426	0.01889
2355.52849	0.01884
2354.24272	0.01879
2352.95695	0.01864
2351.67118	0.01837
2350.38542	0.01808
2349.09965	0.01796
2347.81388	0.01803
2346.52811	0.01821
2345.24234	0.01834
2343.95657	0.01837
2342.67080	0.01836
2341.38503	0.01840
2340.09926	0.01853
2338.81350	0.01868
2337.52773	0.01877
2336.24196	0.01873
2334.95619	0.01857
2333.67042	0.01829
2332.38465	0.01800
2331.09888	0.01785
2329.81311	0.01804
2328.52735	0.01861
2327.24158	0.01939
2325.95581	0.02008
2324.67004	0.02042
2323.38427	0.02035
2322.09850	0.01999
2320.81273	0.01951
2319.52696	0.01904
2318.24119	0.01862
2316.95543	0.01821
2315.66966	0.01780
2314.38389	0.01740
2313.09812	0.01706
2311.81235	0.01681
2310.52658	0.01662
2309.24081	0.01648
2307.95504	0.01639
2306.66928	0.01641
2305.38351	0.01653
2304.09774	0.01669
2302.81197	0.01685
2301.52620	0.01698
2300.24043	0.01700
2298.95466	0.01683
2297.66889	0.01651
2296.38312	0.01617
2295.09736	0.01593
2293.81159	0.01583
2292.52582	0.01583
2291.24005	0.01588
2289.95428	0.01596
2288.66851	0.01598
2287.38274	0.01585
2286.09697	0.01560
2284.81121	0.01539
2283.52544	0.01539
2282.23967	0.01550
2280.95390	0.01550
2279.66813	0.01525
2278.38236	0.01484
2277.09659	0.01441
2275.81082	0.01412
2274.52505	0.01415
2273.23929	0.01456
2271.95352	0.01514
2270.66775	0.01548
2269.38198	0.01531
2268.09621	0.01467
2266.81044	0.01380
2265.52467	0.01300
2264.23890	0.01261
2262.95314	0.01274
2261.66737	0.01312
2260.38160	0.01328
2259.09583	0.01307
2257.81006	0.01277
2256.52429	0.01277
2255.23852	0.01316
2253.95275	0.01369
2252.66698	0.01408
2251.38122	0.01420
2250.09545	0.01401
2248.80968	0.01353
2247.52391	0.01294
2246.23814	0.01225
2244.95237	0.01166
2243.66660	0.01124
2242.38083	0.01089
2241.09507	0.01048
2239.80930	0.01010
2238.52353	0.01003
2237.23776	0.01037
2235.95199	0.01095
2234.66622	0.01161
2233.38045	0.01236
2232.09468	0.01311
2230.80891	0.01336
2229.52315	0.01257
2228.23738	0.01098
2226.95161	0.00949
2225.66584	0.00882
2224.38007	0.00883
2223.09430	0.00888
2221.80853	0.00859
2220.52276	0.00811
2219.23700	0.00780
2217.95123	0.00786
2216.66546	0.00832
2215.37969	0.00918
2214.09392	0.01027
2212.80815	0.01108
2211.52238	0.01124
2210.23661	0.01098
2208.95084	0.01091
2207.66508	0.01115
2206.37931	0.01115
2205.09354	0.01056
2203.80777	0.00977
2202.52200	0.00952
2201.23623	0.00997
2199.95046	0.01061
2198.66469	0.01070
2197.37893	0.00993
2196.09316	0.00866
2194.80739	0.00766
2193.52162	0.00755
2192.23585	0.00836
2190.95008	0.00958
2189.66431	0.01047
2188.37854	0.01052
2187.09277	0.00977
2185.80701	0.00867
2184.52124	0.00770
2183.23547	0.00707
2181.94970	0.00675
2180.66393	0.00663
2179.37816	0.00660
2178.09239	0.00650
2176.80662	0.00628
2175.52085	0.00606
2174.23509	0.00595
2172.94932	0.00610
2171.66355	0.00661
2170.37778	0.00746
2169.09201	0.00823
2167.80624	0.00821
2166.52047	0.00688
2165.23470	0.00457
2163.94894	0.00239
2162.66317	0.00140
2161.37740	0.00180
2160.09163	0.00299
2158.80586	0.00408
2157.52009	0.00447
2156.23432	0.00400
2154.94855	0.00295
2153.66278	0.00193
2152.37702	0.00152
2151.09125	0.00203
2149.80548	0.00318
2148.51971	0.00435
2147.23394	0.00515
2145.94817	0.00578
2144.66240	0.00663
2143.37663	0.00758
2142.09087	0.00807
2140.80510	0.00772
2139.51933	0.00679
2138.23356	0.00593
2136.94779	0.00560
2135.66202	0.00586
2134.37625	0.00644
2133.09048	0.00701
2131.80471	0.00744
2130.51895	0.00768
2129.23318	0.00767
2127.94741	0.00743
2126.66164	0.00711
2125.37587	0.00698
2124.09010	0.00719
2122.80433	0.00759
2121.51856	0.00791
2120.23280	0.00802
2118.94703	0.00792
2117.66126	0.00770
2116.37549	0.00745
2115.08972	0.00742
2113.80395	0.00780
2112.51818	0.00849
2111.23241	0.00901
2109.94664	0.00904
2108.66088	0.00873
2107.37511	0.00848
2106.08934	0.00853
2104.80357	0.00878
2103.51780	0.00898
2102.23203	0.00887
2100.94626	0.00826
2099.66049	0.00706
2098.37473	0.00598
2097.08896	0.00541
2095.80319	0.00536
2094.51742	0.00563
2093.23165	0.00603
2091.94588	0.00646
2090.66011	0.00678
2089.37434	0.00681
2088.08857	0.00661
2086.80281	0.00646
2085.51704	0.00665
2084.23127	0.00709
2082.94550	0.00749
2081.65973	0.00757
2080.37396	0.00734
2079.08819	0.00697
2077.80242	0.00665
2076.51666	0.00648
2075.23089	0.00647
2073.94512	0.00660
2072.65935	0.00682
2071.37358	0.00701
2070.08781	0.00702
2068.80204	0.00682
2067.51627	0.00657
2066.23050	0.00650
2064.94474	0.00671
2063.65897	0.00699
2062.37320	0.00703
2061.08743	0.00673
2059.80166	0.00624
2058.51589	0.00576
2057.23012	0.00532
2055.94435	0.00486
2054.65859	0.00442
2053.37282	0.00412
2052.08705	0.00401
2050.80128	0.00396
2049.51551	0.00374
2048.22974	0.00323
2046.94397	0.00264
2045.65820	0.00234
2044.37243	0.00247
2043.08667	0.00280
2041.80090	0.00289
2040.51513	0.00250
2039.22936	0.00176
2037.94359	0.00095
2036.65782	0.00028
2035.37205	-0.00026
2034.08628	-0.00074
2032.80052	-0.00121
2031.51475	-0.00154
2030.22898	-0.00134
2028.94321	-0.00019
2027.65744	0.00177
2026.37167	0.00367
2025.08590	0.00460
2023.80013	0.00440
2022.51436	0.00368
2021.22860	0.00304
2019.94283	0.00265
2018.65706	0.00233
2017.37129	0.00189
2016.08552	0.00122
2014.79975	0.00049
2013.51398	0.00007
2012.22821	0.00026
2010.94245	0.00092
2009.65668	0.00157
2008.37091	0.00178
2007.08514	0.00160
2005.79937	0.00140
2004.51360	0.00142
2003.22783	0.00165
2001.94206	0.00207
2000.65629	0.00275
1999.37053	0.00375
1998.08476	0.00489
1996.79899	0.00587
1995.51322	0.00658
1994.22745	0.00712
1992.94168	0.00761
1991.65591	0.00807
1990.37014	0.00839
1989.08438	0.00844
1987.79861	0.00807
1986.51284	0.00728
1985.22707	0.00637
1983.94130	0.00585
1982.65553	0.00600
1981.36976	0.00653
1980.08399	0.00689
1978.79822	0.00682
1977.51246	0.00655
1976.22669	0.00632
1974.94092	0.00607
1973.65515	0.00553
1972.36938	0.00464
1971.08361	0.00361
1969.79784	0.00284
1968.51207	0.00264
1967.22631	0.00313
1965.94054	0.00411
1964.65477	0.00517
1963.36900	0.00587
1962.08323	0.00596
1960.79746	0.00555
1959.51169	0.00508
1958.22592	0.00506
1956.94015	0.00565
1955.65439	0.00657
1954.36862	0.00734
1953.08285	0.00755
1951.79708	0.00717
1950.51131	0.00661
1949.22554	0.00631
1947.93977	0.00638
1946.65400	0.00651
1945.36823	0.00641
1944.08247	0.00613
1942.79670	0.00603
1941.51093	0.00630
1940.22516	0.00680
1938.93939	0.00729
1937.65362	0.00764
1936.36785	0.00789
1935.08208	0.00804
1933.79632	0.00800
1932.51055	0.00770
1931.22478	0.00728
1929.93901	0.00701
1928.65324	0.00713
1927.36747	0.00760
1926.08170	0.00811
1924.79593	0.00836
1923.51016	0.00829
1922.22440	0.00805
1920.93863	0.00781
1919.65286	0.00762
1918.36709	0.00757
1917.08132	0.00779
1915.79555	0.00832
1914.50978	0.00896
1913.22401	0.00935
1911.93825	0.00928
1910.65248	0.00889
1909.36671	0.00855
1908.08094	0.00853
1906.79517	0.00884
1905.50940	0.00925
1904.22363	0.00952
1902.93786	0.00949
1901.65209	0.00919
1900.36633	0.00876
1899.08056	0.00843
1897.79479	0.00832
1896.50902	0.00842
1895.22325	0.00861
1893.93748	0.00871
1892.65171	0.00861
1891.36594	0.00838
1890.08018	0.00825
1888.79441	0.00834
1887.50864	0.00856
1886.22287	0.00865
1884.93710	0.00849
1883.65133	0.00822
1882.36556	0.00814
1881.07979	0.00833
1879.79402	0.00864
1878.50826	0.00888
1877.22249	0.00897
1875.93672	0.00896
1874.65095	0.00889
1873.36518	0.00880
1872.07941	0.00871
1870.79364	0.00865
1869.50787	0.00862
1868.22211	0.00862
1866.93634	0.00869
1865.65057	0.00886
1864.36480	0.00910
1863.07903	0.00930
1861.79326	0.00939
1860.50749	0.00937
1859.22172	0.00926
1857.93595	0.00905
1856.65019	0.00880
1855.36442	0.00860
1854.07865	0.00855
1852.79288	0.00869
1851.50711	0.00893
1850.22134	0.00917
1848.93557	0.00933
1847.64980	0.00935
1846.36404	0.00931
1845.07827	0.00926
1843.79250	0.00928
1842.50673	0.00936
1841.22096	0.00947
1839.93519	0.00951
1838.64942	0.00947
1837.36365	0.00938
1836.07788	0.00931
1834.79212	0.00929
1833.50635	0.00934
1832.22058	0.00945
1830.93481	0.00956
1829.64904	0.00957
1828.36327	0.00946
1827.07750	0.00934
1825.79173	0.00926
1824.50597	0.00922
1823.22020	0.00918
1821.93443	0.00914
1820.64866	0.00909
1819.36289	0.00905
1818.07712	0.00908
1816.79135	0.00920
1815.50558	0.00940
1814.21981	0.00959
1812.93405	0.00972
1811.64828	0.00977
1810.36251	0.00976
1809.07674	0.00974
1807.79097	0.00978
1806.50520	0.00989
1805.21943	0.01000
1803.93366	0.01005
1802.64790	0.01003
1801.36213	0.00998
1800.07636	0.00992
1798.79059	0.00984
1797.50482	0.00977
1796.21905	0.00975
1794.93328	0.00980
1793.64751	0.00992
1792.36174	0.01003
1791.07598	0.01008
1789.79021	0.01008
1788.50444	0.01008
1787.21867	0.01012
1785.93290	0.01018
1784.64713	0.01022
1783.36136	0.01023
1782.07559	0.01024
1780.78983	0.01029
1779.50406	0.01037
1778.21829	0.01045
1776.93252	0.01055
1775.64675	0.01071
1774.36098	0.01091
1773.07521	0.01104
1771.78944	0.01101
1770.50367	0.01088
1769.21791	0.01079
1767.93214	0.01073
1766.64637	0.01066
1765.36060	0.01059
1764.07483	0.01062
1762.78906	0.01077
1761.50329	0.01094
1760.21752	0.01103
1758.93176	0.01103
1757.64599	0.01095
1756.36022	0.01079
1755.07445	0.01058
1753.78868	0.01036
1752.50291	0.01017
1751.21714	0.00997
1749.93137	0.00973
1748.64560	0.00949
1747.35984	0.00925
1746.07407	0.00903
1744.78830	0.00881
1743.50253	0.00858
1742.21676	0.00835
1740.93099	0.00813
1739.64522	0.00797
1738.35945	0.00794
1737.07369	0.00812
1735.78792	0.00853
1734.50215	0.00898
1733.21638	0.00928
1731.93061	0.00945
1730.64484	0.00960
1729.35907	0.00980
1728.07330	0.01004
1726.78753	0.01033
1725.50177	0.01069
1724.21600	0.01110
1722.93023	0.01149
1721.64446	0.01180
1720.35869	0.01208
1719.07292	0.01234
1717.78715	0.01259
1716.50138	0.01281
1715.21561	0.01307
1713.92985	0.01340
1712.64408	0.01377
1711.35831	0.01415
1710.07254	0.01452
1708.78677	0.01488
1707.50100	0.01523
1706.21523	0.01555
1704.92946	0.01583
1703.64370	0.01613
1702.35793	0.01658
1701.07216	0.01717
1699.78639	0.01773
1698.50062	0.01823
1697.21485	0.01876
1695.92908	0.01926
1694.64331	0.01962
1693.35754	0.01991
1692.07178	0.02031
1690.78601	0.02080
1689.50024	0.02131
1688.21447	0.02180
1686.92870	0.02235
1685.64293	0.02295
1684.35716	0.02347
1683.07139	0.02384
1681.78563	0.02416
1680.49986	0.02453
1679.21409	0.02497
1677.92832	0.02546
1676.64255	0.02601
1675.35678	0.02651
1674.07101	0.02690
1672.78524	0.02726
1671.49947	0.02769
1670.21371	0.02819
1668.92794	0.02865
1667.64217	0.02900
1666.35640	0.02933
1665.07063	0.02971
1663.78486	0.03014
1662.49909	0.03055
1661.21332	0.03088
1659.92756	0.03114
1658.64179	0.03137
1657.35602	0.03160
1656.07025	0.03193
1654.78448	0.03240
1653.49871	0.03285
1652.21294	0.03307
1650.92717	0.03306
1649.64140	0.03306
1648.35564	0.03319
1647.06987	0.03339
1645.78410	0.03358
1644.49833	0.03376
1643.21256	0.03396
1641.92679	0.03414
1640.64102	0.03424
1639.35525	0.03428
1638.06949	0.03433
1636.78372	0.03444
1635.49795	0.03453
1634.21218	0.03455
1632.92641	0.03455
1631.64064	0.03463
1630.35487	0.03479
1629.06910	0.03495
1627.78333	0.03503
1626.49757	0.03502
1625.21180	0.03500
1623.92603	0.03503
1622.64026	0.03508
1621.35449	0.03510
1620.06872	0.03513
1618.78295	0.03524
1617.49718	0.03544
1616.21142	0.03564
1614.92565	0.03582
1613.63988	0.03604
1612.35411	0.03632
1611.06834	0.03664
1609.78257	0.03694
1608.49680	0.03722
1607.21103	0.03744
1605.92526	0.03761
1604.63950	0.03773
1603.35373	0.03783
1602.06796	0.03794
1600.78219	0.03809
1599.49642	0.03830
1598.21065	0.03857
1596.92488	0.03887
1595.63911	0.03916
1594.35335	0.03945
1593.06758	0.03973
1591.78181	0.04003
1590.49604	0.04032
1589.21027	0.04056
1587.92450	0.04074
1586.63873	0.04093
1585.35296	0.04115
1584.06719	0.04140
1582.78143	0.04167
1581.49566	0.04194
1580.20989	0.04219
1578.92412	0.04247
1577.63835	0.04280
1576.35258	0.04311
1575.06681	0.04335
1573.78104	0.04355
1572.49528	0.04382
1571.20951	0.04414
1569.92374	0.04439
1568.63797	0.04450
1567.35220	0.04453
1566.06643	0.04456
1564.78066	0.04462
1563.49489	0.04468
1562.20912	0.04480
1560.92336	0.04500
1559.63759	0.04522
1558.35182	0.04531
1557.06605	0.04531
1555.78028	0.04531
1554.49451	0.04532
1553.20874	0.04528
1551.92297	0.04518
1550.63721	0.04505
1549.35144	0.04486
1548.06567	0.04460
1546.77990	0.04430
1545.49413	0.04397
1544.20836	0.04361
1542.92259	0.04327
1541.63682	0.04297
1540.35105	0.04270
1539.06529	0.04238
1537.77952	0.04201
1536.49375	0.04173
1535.20798	0.04160
1533.92221	0.04150
1532.63644	0.04130
1531.35067	0.04106
1530.06490	0.04089
1528.77914	0.04087
1527.49337	0.04098
1526.20760	0.04113
1524.92183	0.04128
1523.63606	0.04150
1522.35029	0.04182
1521.06452	0.04217
1519.77875	0.04251
1518.49298	0.04290
1517.20722	0.04337
1515.92145	0.04388
1514.63568	0.04441
1513.34991	0.04496
1512.06414	0.04552
1510.77837	0.04607
1509.49260	0.04668
1508.20683	0.04743
1506.92107	0.04823
1505.63530	0.04895
1504.34953	0.04954
1503.06376	0.05008
1501.77799	0.05062
1500.49222	0.05117
1499.20645	0.05169
1497.92068	0.05218
1496.63491	0.05261
1495.34915	0.05298
1494.06338	0.05334
1492.77761	0.05375
1491.49184	0.05420
1490.20607	0.05464
1488.92030	0.05511
1487.63453	0.05562
1486.34876	0.05619
1485.06299	0.05680
1483.77723	0.05743
1482.49146	0.05808
1481.20569	0.05874
1479.91992	0.05940
1478.63415	0.06007
1477.34838	0.06074
1476.06261	0.06136
1474.77684	0.06191
1473.49108	0.06240
1472.20531	0.06279
1470.91954	0.06310
1469.63377	0.06340
1468.34800	0.06374
1467.06223	0.06415
1465.77646	0.06461
1464.49069	0.06503
1463.20492	0.06538
1461.91916	0.06570
1460.63339	0.06606
1459.34762	0.06654
1458.06185	0.06710
1456.77608	0.06760
1455.49031	0.06800
1454.20454	0.06835
1452.91877	0.06873
1451.63301	0.06909
1450.34724	0.06936
1449.06147	0.06953
1447.77570	0.06960
1446.48993	0.06962
1445.20416	0.06960
1443.91839	0.06959
1442.63262	0.06957
1441.34685	0.06953
1440.06109	0.06948
1438.77532	0.06949
1437.48955	0.06958
1436.20378	0.06975
1434.91801	0.07001
1433.63224	0.07043
1432.34647	0.07101
1431.06070	0.07173
1429.77494	0.07257
1428.48917	0.07350
1427.20340	0.07450
1425.91763	0.07549
1424.63186	0.07644
1423.34609	0.07733
1422.06032	0.07819
1420.77455	0.07902
1419.48878	0.07975
1418.20302	0.08031
1416.91725	0.08073
1415.63148	0.08108
1414.34571	0.08138
1413.05994	0.08156
1411.77417	0.08157
1410.48840	0.08135
1409.20263	0.08094
1407.91687	0.08041
1406.63110	0.07980
1405.34533	0.07905
1404.05956	0.07813
1402.77379	0.07703
1401.48802	0.07582
1400.20225	0.07453
1398.91648	0.07317
1397.63071	0.07174
1396.34495	0.07029
1395.05918	0.06885
1393.77341	0.06737
1392.48764	0.06583
1391.20187	0.06426
1389.91610	0.06273
1388.63033	0.06127
1387.34456	0.05986
1386.05880	0.05847
1384.77303	0.05708
1383.48726	0.05566
1382.20149	0.05421
1380.91572	0.05272
1379.62995	0.05124
1378.34418	0.04979
1377.05841	0.04841
1375.77264	0.04709
1374.48688	0.04582
1373.20111	0.04458
1371.91534	0.04333
1370.62957	0.04210
1369.34380	0.04090
1368.05803	0.03974
1366.77226	0.03864
1365.48649	0.03763
1364.20073	0.03668
1362.91496	0.03578
1361.62919	0.03492
1360.34342	0.03410
1359.05765	0.03333
1357.77188	0.03262
1356.48611	0.03196
1355.20034	0.03137
1353.91457	0.03082
1352.62881	0.03032
1351.34304	0.02986
1350.05727	0.02945
1348.77150	0.02906
1347.48573	0.02865
1346.19996	0.02824
1344.91419	0.02785
1343.62842	0.02749
1342.34266	0.02712
1341.05689	0.02671
1339.77112	0.02625
1338.48535	0.02578
1337.19958	0.02535
1335.91381	0.02499
1334.62804	0.02467
1333.34227	0.02436
1332.05650	0.02406
1330.77074	0.02378
1329.48497	0.02350
1328.19920	0.02320
1326.91343	0.02287
1325.62766	0.02258
1324.34189	0.02236
1323.05612	0.02220
1321.77035	0.02204
1320.48459	0.02182
1319.19882	0.02155
1317.91305	0.02127
1316.62728	0.02102
1315.34151	0.02083
1314.05574	0.02067
1312.76997	0.02051
1311.48420	0.02033
1310.19843	0.02014
1308.91267	0.01997
1307.62690	0.01980
1306.34113	0.01962
1305.05536	0.01941
1303.76959	0.01918
1302.48382	0.01896
1301.19805	0.01879
1299.91228	0.01868
1298.62652	0.01858
1297.34075	0.01846
1296.05498	0.01831
1294.76921	0.01813
1293.48344	0.01799
1292.19767	0.01789
1290.91190	0.01783
1289.62613	0.01778
1288.34036	0.01772
1287.05460	0.01766
1285.76883	0.01761
1284.48306	0.01758
1283.19729	0.01754
1281.91152	0.01748
1280.62575	0.01736
1279.33998	0.01721
1278.05421	0.01707
1276.76845	0.01695
1275.48268	0.01688
1274.19691	0.01684
1272.91114	0.01684
1271.62537	0.01684
1270.33960	0.01679
1269.05383	0.01666
1267.76806	0.01650
1266.48229	0.01632
1265.19653	0.01615
1263.91076	0.01599
1262.62499	0.01585
1261.33922	0.01573
1260.05345	0.01566
1258.76768	0.01564
1257.48191	0.01564
1256.19614	0.01562
1254.91037	0.01558
1253.62461	0.01551
1252.33884	0.01545
1251.05307	0.01541
1249.76730	0.01539
1248.48153	0.01536
1247.19576	0.01533
1245.90999	0.01530
1244.62422	0.01527
1243.33846	0.01526
1242.05269	0.01525
1240.76692	0.01523
1239.48115	0.01519
1238.19538	0.01514
1236.90961	0.01509
1235.62384	0.01503
1234.33807	0.01495
1233.05230	0.01487
1231.76654	0.01479
1230.48077	0.01471
1229.19500	0.01461
1227.90923	0.01447
1226.62346	0.01430
1225.33769	0.01416
1224.05192	0.01409
1222.76615	0.01408
1221.48039	0.01408
1220.19462	0.01406
1218.90885	0.01402
1217.62308	0.01396
1216.33731	0.01389
1215.05154	0.01384
1213.76577	0.01381
1212.48000	0.01380
1211.19423	0.01380
1209.90847	0.01380
1208.62270	0.01375
1207.33693	0.01367
1206.05116	0.01360
1204.76539	0.01358
1203.47962	0.01358
1202.19385	0.01355
1200.90808	0.01347
1199.62232	0.01339
1198.33655	0.01333
1197.05078	0.01334
1195.76501	0.01340
1194.47924	0.01346
1193.19347	0.01351
1191.90770	0.01352
1190.62193	0.01348
1189.33616	0.01338
1188.05040	0.01326
1186.76463	0.01314
1185.47886	0.01306
1184.19309	0.01298
1182.90732	0.01291
1181.62155	0.01285
1180.33578	0.01283
1179.05001	0.01287
1177.76425	0.01296
1176.47848	0.01306
1175.19271	0.01312
1173.90694	0.01314
1172.62117	0.01315
1171.33540	0.01320
1170.04963	0.01332
1168.76386	0.01352
1167.47809	0.01378
1166.19233	0.01404
1164.90656	0.01428
1163.62079	0.01446
1162.33502	0.01461
1161.04925	0.01475
1159.76348	0.01491
1158.47771	0.01508
1157.19194	0.01529
1155.90618	0.01557
1154.62041	0.01597
1153.33464	0.01645
1152.04887	0.01694
1150.76310	0.01738
1149.47733	0.01777
1148.19156	0.01818
1146.90579	0.01868
1145.62002	0.01930
1144.33426	0.02002
1143.04849	0.02080
1141.76272	0.02161
1140.47695	0.02244
1139.19118	0.02333
1137.90541	0.02433
1136.61964	0.02545
1135.33387	0.02664
1134.04811	0.02789
1132.76234	0.02922
1131.47657	0.03071
1130.19080	0.03243
1128.90503	0.03439
1127.61926	0.03655
1126.33349	0.03885
1125.04772	0.04126
1123.76195	0.04380
1122.47619	0.04645
1121.19042	0.04917
1119.90465	0.05190
1118.61888	0.05461
1117.33311	0.05731
1116.04734	0.05996
1114.76157	0.06258
1113.47580	0.06518
1112.19004	0.06783
1110.90427	0.07052
1109.61850	0.07317
1108.33273	0.07572
1107.04696	0.07816
1105.76119	0.08052
1104.47542	0.08283
1103.18965	0.08510
1101.90388	0.08730
1100.61812	0.08944
1099.33235	0.09154
1098.04658	0.09363
1096.76081	0.09564
1095.47504	0.09749
1094.18927	0.09914
1092.90350	0.10063
1091.61773	0.10205
1090.33197	0.10346
1089.04620	0.10486
1087.76043	0.10627
1086.47466	0.10772
1085.18889	0.10923
1083.90312	0.11078
1082.61735	0.11234
1081.33158	0.11394
1080.04581	0.11566
1078.76005	0.11755
1077.47428	0.11955
1076.18851	0.12163
1074.90274	0.12378
1073.61697	0.12603
1072.33120	0.12836
1071.04543	0.13072
1069.75966	0.13308
1068.47390	0.13549
1067.18813	0.13799
1065.90236	0.14058
1064.61659	0.14319
1063.33082	0.14574
1062.04505	0.14818
1060.75928	0.15056
1059.47351	0.15293
1058.18774	0.15531
1056.90198	0.15766
1055.61621	0.15996
1054.33044	0.16224
1053.04467	0.16457
1051.75890	0.16698
1050.47313	0.16945
1049.18736	0.17196
1047.90159	0.17452
1046.61583	0.17711
1045.33006	0.17972
1044.04429	0.18234
1042.75852	0.18496
1041.47275	0.18758
1040.18698	0.19013
1038.90121	0.19264
1037.61544	0.19512
1036.32967	0.19760
1035.04391	0.19998
1033.75814	0.20215
1032.47237	0.20403
1031.18660	0.20564
1029.90083	0.20701
1028.61506	0.20815
1027.32929	0.20903
1026.04352	0.20961
1024.75775	0.20987
1023.47199	0.20976
1022.18622	0.20926
1020.90045	0.20836
1019.61468	0.20711
1018.32891	0.20557
1017.04314	0.20377
1015.75737	0.20169
1014.47160	0.19931
1013.18584	0.19661
1011.90007	0.19360
1010.61430	0.19029
1009.32853	0.18668
1008.04276	0.18280
1006.75699	0.17870
1005.47122	0.17442
1004.18545	0.16997
1002.89968	0.16534
1001.61392	0.16057
1000.32815	0.15569
999.04238	0.15077
997.75661	0.14582
996.47084	0.14087
995.18507	0.13597
993.89930	0.13118
992.61353	0.12651
991.32777	0.12197
990.04200	0.11758
988.75623	0.11336
987.47046	0.10932
986.18469	0.10546
984.89892	0.10175
983.61315	0.09817
982.32738	0.09472
981.04161	0.09145
979.75585	0.08842
978.47008	0.08568
977.18431	0.08325
975.89854	0.08113
974.61277	0.07930
973.32700	0.07775
972.04123	0.07647
970.75546	0.07551
969.46970	0.07494
968.18393	0.07478
966.89816	0.07497
965.61239	0.07541
964.32662	0.07596
963.04085	0.07649
961.75508	0.07685
960.46931	0.07689
959.18354	0.07649
957.89778	0.07560
956.61201	0.07430
955.32624	0.07278
954.04047	0.07120
952.75470	0.06959
951.46893	0.06793
950.18316	0.06621
948.89739	0.06448
947.61163	0.06281
946.32586	0.06125
945.04009	0.05980
943.75432	0.05846
942.46855	0.05718
941.18278	0.05591
939.89701	0.05462
938.61124	0.05334
937.32547	0.05212
936.03971	0.05101
934.75394	0.04998
933.46817	0.04897
932.18240	0.04796
930.89663	0.04697
929.61086	0.04607
928.32509	0.04525
927.03932	0.04451
925.75356	0.04384
924.46779	0.04326
923.18202	0.04275
921.89625	0.04226
920.61048	0.04176
919.32471	0.04126
918.03894	0.04079
916.75317	0.04038
915.46740	0.03998
914.18164	0.03952
912.89587	0.03902
911.61010	0.03857
910.32433	0.03822
909.03856	0.03793
907.75279	0.03763
906.46702	0.03727
905.18125	0.03690
903.89549	0.03657
902.60972	0.03629
901.32395	0.03605
900.03818	0.03587
898.75241	0.03572
897.46664	0.03556
896.18087	0.03531
894.89510	0.03500
893.60933	0.03472
892.32357	0.03456
891.03780	0.03453
889.75203	0.03462
888.46626	0.03485
887.18049	0.03533
885.89472	0.03615
884.60895	0.03737
883.32318	0.03900
882.03742	0.04090
880.75165	0.04279
879.46588	0.04438
878.18011	0.04558
876.89434	0.04661
875.60857	0.04773
874.32280	0.04896
873.03703	0.05000
871.75126	0.05051
870.46550	0.05034
869.17973	0.04956
867.89396	0.04835
866.60819	0.04687
865.32242	0.04529
864.03665	0.04369
862.75088	0.04211
861.46511	0.04057
860.17935	0.03917
858.89358	0.03801
857.60781	0.03708
856.32204	0.03633
855.03627	0.03567
853.75050	0.03507
852.46473	0.03456
851.17896	0.03417
849.89319	0.03389
848.60743	0.03367
847.32166	0.03343
846.03589	0.03313
844.75012	0.03281
843.46435	0.03252
842.17858	0.03225
840.89281	0.03202
839.60704	0.03182
838.32128	0.03165
837.03551	0.03148
835.74974	0.03131
834.46397	0.03115
833.17820	0.03101
831.89243	0.03088
830.60666	0.03078
829.32089	0.03072
828.03512	0.03069
826.74936	0.03067
825.46359	0.03062
824.17782	0.03054
822.89205	0.03040
821.60628	0.03018
820.32051	0.02994
819.03474	0.02975
817.74897	0.02967
816.46321	0.02972
815.17744	0.02984
813.89167	0.02993
812.60590	0.02992
811.32013	0.02981
810.03436	0.02968
808.74859	0.02963
807.46282	0.02963
806.17705	0.02961
804.89129	0.02953
803.60552	0.02943
802.31975	0.02940
801.03398	0.02944
799.74821	0.02947
798.46244	0.02941
797.17667	0.02927
795.89090	0.02915
794.60513	0.02914
793.31937	0.02918
792.03360	0.02918
790.74783	0.02911
789.46206	0.02901
788.17629	0.02897
786.89052	0.02896
785.60475	0.02893
784.31898	0.02884
783.03322	0.02876
781.74745	0.02880
780.46168	0.02895
779.17591	0.02914
777.89014	0.02926
776.60437	0.02928
775.31860	0.02923
774.03283	0.02912
772.74706	0.02901
771.46130	0.02895
770.17553	0.02898
768.88976	0.02905
767.60399	0.02908
766.31822	0.02905
765.03245	0.02896
763.74668	0.02886
762.46091	0.02884
761.17515	0.02892
759.88938	0.02907
758.60361	0.02917
757.31784	0.02916
756.03207	0.02907
754.74630	0.02902
753.46053	0.02906
752.17476	0.02919
750.88899	0.02936
749.60323	0.02947
748.31746	0.02943
747.03169	0.02923
745.74592	0.02898
744.46015	0.02877
743.17438	0.02861
741.88861	0.02847
740.60284	0.02835
739.31708	0.02826
738.03131	0.02821
736.74554	0.02822
735.45977	0.02832
734.17400	0.02847
732.88823	0.02859
731.60246	0.02864
730.31669	0.02864
729.03092	0.02864
727.74516	0.02868
726.45939	0.02878
725.17362	0.02892
723.88785	0.02902
722.60208	0.02897
721.31631	0.02878
720.03054	0.02856
718.74477	0.02841
717.45901	0.02840
716.17324	0.02851
714.88747	0.02865
713.60170	0.02873
712.31593	0.02872
711.03016	0.02863
709.74439	0.02850
708.45862	0.02838
707.17285	0.02831
705.88709	0.02828
704.60132	0.02830
703.31555	0.02834
702.02978	0.02839
700.74401	0.02842
699.45824	0.02843
698.17247	0.02841
696.88670	0.02839
695.60094	0.02836
694.31517	0.02832
693.02940	0.02826
691.74363	0.02820
690.45786	0.02820
689.17209	0.02828
687.88632	0.02841
686.60055	0.02852
685.31478	0.02855
684.02902	0.02849
682.74325	0.02836
681.45748	0.02823
680.17171	0.02813
678.88594	0.02810
677.60017	0.02810
676.31440	0.02811
675.02863	0.02814
673.74287	0.02824
672.45710	0.02840
671.17133	0.02862
669.88556	0.02884
668.59979	0.02902
667.31402	0.02911
666.02825	0.02907
664.74248	0.02893
663.45671	0.02873
662.17095	0.02853
660.88518	0.02833
659.59941	0.02811
658.31364	0.02783
657.02787	0.02752
655.74210	0.02725
654.45633	0.02707
653.17056	0.02698
651.88480	0.02695
650.59903	0.02695
649.31326	0.02696
648.02749	0.02696
646.74172	0.02694
645.45595	0.02694
644.17018	0.02699
642.88441	0.02712
641.59864	0.02727
640.31288	0.02738
639.02711	0.02744
637.74134	0.02749
636.45557	0.02763
635.16980	0.02791
633.88403	0.02832
632.59826	0.02880
631.31249	0.02927
630.02673	0.02962
628.74096	0.02992
627.45519	0.03052
626.16942	0.03082
624.88365	0.03107
623.59788	0.03192
622.31211	0.03390
621.02634	0.03704
619.74057	0.04089
618.45481	0.04493
617.16904	0.04887
615.88327	0.05245
614.59750	0.05529
613.31173	0.05718
612.02596	0.05863
610.74019	0.06095
609.45442	0.06514
608.16866	0.07069
606.88289	0.07605
605.59712	0.08012
604.31135	0.08261
603.02558	0.08351
601.73981	0.08296
600.45404	0.08136
599.16827	0.07925
597.88250	0.07705
596.59674	0.07494
595.31097	0.07300
594.02520	0.07126
592.73943	0.06980
591.45366	0.06872
590.16789	0.06808
588.88212	0.06792
587.59635	0.06824
586.31059	0.06903
585.02482	0.07024
583.73905	0.07176
582.45328	0.07348
581.16751	0.07536
579.88174	0.07737
578.59597	0.07948
577.31020	0.08160
576.02443	0.08363
574.73867	0.08553
573.45290	0.08736
572.16713	0.08930
570.88136	0.09149
569.59559	0.09395
568.30982	0.09652
567.02405	0.09903
565.73828	0.10136
564.45251	0.10335
563.16675	0.10469
561.88098	0.10501
560.59521	0.10411
559.30944	0.10192
558.02367	0.09856
556.73790	0.09427
555.45213	0.08944
554.16636	0.08453
552.88060	0.07989
551.59483	0.07566
550.30906	0.07179
549.02329	0.06822
547.73752	0.06496
546.45175	0.06205
545.16598	0.05957
543.88021	0.05748
542.59444	0.05563
541.30868	0.05389
540.02291	0.05221
538.73714	0.05061
537.45137	0.04912
536.16560	0.04773
534.87983	0.04640
533.59406	0.04514
532.30829	0.04401
531.02253	0.04299
529.73676	0.04203
528.45099	0.04109
527.16522	0.04014
525.87945	0.03924
524.59368	0.03844
523.30791	0.03774
522.02214	0.03709
520.73637	0.03641
519.45061	0.03570
518.16484	0.03495
516.87907	0.03419
515.59330	0.03345
514.30753	0.03277
513.02176	0.03218
511.73599	0.03169
510.45022	0.03128
509.16446	0.03092
507.87869	0.03058
506.59292	0.03022
505.30715	0.02985
504.02138	0.02950
502.73561	0.02918
501.44984	0.02892
500.16407	0.02868
498.87830	0.02839
497.59254	0.02804
496.30677	0.02767
495.02100	0.02735
493.73523	0.02708
492.44946	0.02684
491.16369	0.02661
489.87792	0.02641
488.59215	0.02625
487.30639	0.02614
486.02062	0.02607
484.73485	0.02603
483.44908	0.02601
482.16331	0.02599
480.87754	0.02602
479.59177	0.02612
478.30600	0.02631
477.02023	0.02656
475.73447	0.02681
474.44870	0.02699
473.16293	0.02706
471.87716	0.02702
470.59139	0.02691
469.30562	0.02674
468.01985	0.02650
466.73408	0.02619
465.44832	0.02586
464.16255	0.02562
462.87678	0.02546
461.59101	0.02532
460.30524	0.02514
459.01947	0.02487
457.73370	0.02454
456.44793	0.02419
455.16216	0.02385
453.87640	0.02354
452.59063	0.02329
451.30486	0.02310
450.01909	0.02295
448.73332	0.02284
447.44755	0.02278
446.16178	0.02276
444.87601	0.02274
443.59025	0.02268
442.30448	0.02257
441.01871	0.02244
439.73294	0.02234
438.44717	0.02228
437.16140	0.02225
435.87563	0.02225
434.58986	0.02223
433.30409	0.02217
432.01833	0.02204
430.73256	0.02187
429.44679	0.02171
428.16102	0.02158
426.87525	0.02148
425.58948	0.02136
424.30371	0.02124
423.01794	0.02115
421.73218	0.02110
420.44641	0.02108
419.16064	0.02107
417.87487	0.02102
416.58910	0.02095
415.30333	0.02088
414.01756	0.02082
412.73179	0.02079
411.44602	0.02077
410.16026	0.02077
408.87449	0.02080
407.58872	0.02090
406.30295	0.02107
405.01718	0.02125
403.73141	0.02134
402.44564	0.02133
401.15987	0.02130
399.87411	0.02131
