3997.45528 0.00980
3996.16951 0.01084
3994.88374 0.01211
3993.59798 0.01328
3992.31221 0.01377
3991.02644 0.01338
3989.74067 0.01260
3988.45490 0.01227
3987.16913 0.01261
3985.88336 0.01287
3984.59759 0.01234
3983.31183 0.01139
3982.02606 0.01106
3980.74029 0.01173
3979.45452 0.01271
3978.16875 0.01325
3976.88298 0.01337
3975.59721 0.01354
3974.31144 0.01395
3973.02567 0.01441
3971.73991 0.01469
3970.45414 0.01479
3969.16837 0.01472
3967.88260 0.01438
3966.59683 0.01375
3965.31106 0.01298
3964.02529 0.01242
3962.73952 0.01233
3961.45376 0.01263
3960.16799 0.01292
3958.88222 0.01290
3957.59645 0.01261
3956.31068 0.01240
3955.02491 0.01243
3953.73914 0.01260
3952.45337 0.01286
3951.16760 0.01348
3949.88184 0.01458
3948.59607 0.01578
3947.31030 0.01646
3946.02453 0.01645
3944.73876 0.01614
3943.45299 0.01588
3942.16722 0.01560
3940.88145 0.01504
3939.59569 0.01428
3938.30992 0.01374
3937.02415 0.01384
3935.73838 0.01465
3934.45261 0.01581
3933.16684 0.01674
3931.88107 0.01694
3930.59530 0.01625
3929.30953 0.01501
3928.02377 0.01382
3926.73800 0.01305
3925.45223 0.01266
3924.16646 0.01238
3922.88069 0.01211
3921.59492 0.01201
3920.30915 0.01222
3919.02338 0.01265
3917.73762 0.01299
3916.45185 0.01289
3915.16608 0.01239
3913.88031 0.01201
3912.59454 0.01227
3911.30877 0.01326
3910.02300 0.01464
3908.73723 0.01593
3907.45146 0.01690
3906.16570 0.01751
3904.87993 0.01775
3903.59416 0.01746
3902.30839 0.01650
3901.02262 0.01511
3899.73685 0.01411
3898.45108 0.01429
3897.16531 0.01562
3895.87955 0.01734
3894.59378 0.01862
3893.30801 0.01915
3892.02224 0.01894
3890.73647 0.01820
3889.45070 0.01736
3888.16493 0.01697
3886.87916 0.01716
3885.59339 0.01741
3884.30763 0.01723
3883.02186 0.01675
3881.73609 0.01646
3880.45032 0.01650
3879.16455 0.01652
3877.87878 0.01620
3876.59301 0.01561
3875.30724 0.01499
3874.02148 0.01441
3872.73571 0.01387
3871.44994 0.01342
3870.16417 0.01313
3868.87840 0.01305
3867.59263 0.01334
3866.30686 0.01397
3865.02109 0.01446
3863.73532 0.01428
3862.44956 0.01348
3861.16379 0.01268
3859.87802 0.01243
3858.59225 0.01281
3857.30648 0.01336
3856.02071 0.01354
3854.73494 0.01297
3853.44917 0.01178
3852.16341 0.01070
3850.87764 0.01051
3849.59187 0.01126
3848.30610 0.01219
3847.02033 0.01254
3845.73456 0.01236
3844.44879 0.01234
3843.16302 0.01289
3841.87725 0.01365
3840.59149 0.01395
3839.30572 0.01373
3838.01995 0.01360
3836.73418 0.01414
3835.44841 0.01517
3834.16264 0.01592
3832.87687 0.01580
3831.59110 0.01504
3830.30534 0.01433
3829.01957 0.01410
3827.73380 0.01414
3826.44803 0.01400
3825.16226 0.01356
3823.87649 0.01319
3822.59072 0.01324
3821.30495 0.01355
3820.01918 0.01355
3818.73342 0.01304
3817.44765 0.01233
3816.16188 0.01184
3814.87611 0.01170
3813.59034 0.01187
3812.30457 0.01239
3811.01880 0.01326
3809.73303 0.01427
3808.44726 0.01492
3807.16150 0.01482
3805.87573 0.01422
3804.58996 0.01393
3803.30419 0.01445
3802.01842 0.01538
3800.73265 0.01598
3799.44688 0.01591
3798.16111 0.01529
3796.87535 0.01429
3795.58958 0.01312
3794.30381 0.01233
3793.01804 0.01245
3791.73227 0.01345
3790.44650 0.01471
3789.16073 0.01548
3787.87496 0.01540
3786.58919 0.01467
3785.30343 0.01383
3784.01766 0.01326
3782.73189 0.01296
3781.44612 0.01274
3780.16035 0.01267
3778.87458 0.01297
3777.58881 0.01364
3776.30304 0.01430
3775.01728 0.01453
3773.73151 0.01431
3772.44574 0.01407
3771.15997 0.01434
3769.87420 0.01522
3768.58843 0.01627
3767.30266 0.01662
3766.01689 0.01571
3764.73112 0.01392
3763.44536 0.01244
3762.15959 0.01219
3760.87382 0.01302
3759.58805 0.01395
3758.30228 0.01425
3757.01651 0.01398
3755.73074 0.01374
3754.44497 0.01393
3753.15921 0.01450
3751.87344 0.01515
3750.58767 0.01562
3749.30190 0.01563
3748.01613 0.01507
3746.73036 0.01433
3745.44459 0.01396
3744.15882 0.01409
3742.87305 0.01454
3741.58729 0.01510
3740.30152 0.01541
3739.01575 0.01511
3737.72998 0.01423
3736.44421 0.01330
3735.15844 0.01296
3733.87267 0.01343
3732.58690 0.01420
3731.30114 0.01451
3730.01537 0.01404
3728.72960 0.01305
3727.44383 0.01194
3726.15806 0.01105
3724.87229 0.01072
3723.58652 0.01117
3722.30075 0.01220
3721.01498 0.01343
3719.72922 0.01461
3718.44345 0.01558
3717.15768 0.01597
3715.87191 0.01549
3714.58614 0.01439
3713.30037 0.01343
3712.01460 0.01317
3710.72883 0.01346
3709.44307 0.01377
3708.15730 0.01370
3706.87153 0.01323
3705.58576 0.01259
3704.29999 0.01222
3703.01422 0.01244
3701.72845 0.01316
3700.44268 0.01393
3699.15691 0.01431
3697.87115 0.01425
3696.58538 0.01398
3695.29961 0.01383
3694.01384 0.01410
3692.72807 0.01482
3691.44230 0.01575
3690.15653 0.01654
3688.87076 0.01692
3687.58500 0.01702
3686.29923 0.01708
3685.01346 0.01690
3683.72769 0.01617
3682.44192 0.01520
3681.15615 0.01487
3679.87038 0.01558
3678.58461 0.01680
3677.29884 0.01763
3676.01308 0.01757
3674.72731 0.01682
3673.44154 0.01604
3672.15577 0.01575
3670.87000 0.01595
3669.58423 0.01629
3668.29846 0.01649
3667.01269 0.01645
3665.72693 0.01622
3664.44116 0.01605
3663.15539 0.01626
3661.86962 0.01691
3660.58385 0.01777
3659.29808 0.01846
3658.01231 0.01871
3656.72654 0.01839
3655.44077 0.01768
3654.15501 0.01702
3652.86924 0.01671
3651.58347 0.01658
3650.29770 0.01628
3649.01193 0.01578
3647.72616 0.01551
3646.44039 0.01592
3645.15462 0.01706
3643.86886 0.01847
3642.58309 0.01949
3641.29732 0.01973
3640.01155 0.01937
3638.72578 0.01888
3637.44001 0.01855
3636.15424 0.01847
3634.86847 0.01870
3633.58270 0.01946
3632.29694 0.02080
3631.01117 0.02232
3629.72540 0.02331
3628.43963 0.02333
3627.15386 0.02268
3625.86809 0.02209
3624.58232 0.02191
3623.29655 0.02195
3622.01079 0.02199
3620.72502 0.02207
3619.43925 0.02231
3618.15348 0.02269
3616.86771 0.02308
3615.58194 0.02345
3614.29617 0.02385
3613.01040 0.02426
3611.72463 0.02458
3610.43887 0.02481
3609.15310 0.02505
3607.86733 0.02531
3606.58156 0.02544
3605.29579 0.02525
3604.01002 0.02471
3602.72425 0.02400
3601.43848 0.02338
3600.15272 0.02306
3598.86695 0.02320
3597.58118 0.02374
3596.29541 0.02442
3595.00964 0.02497
3593.72387 0.02541
3592.43810 0.02590
3591.15233 0.02644
3589.86656 0.02681
3588.58080 0.02671
3587.29503 0.02607
3586.00926 0.02521
3584.72349 0.02465
3583.43772 0.02487
3582.15195 0.02597
3580.86618 0.02753
3579.58041 0.02885
3578.29464 0.02947
3577.00888 0.02946
3575.72311 0.02916
3574.43734 0.02887
3573.15157 0.02872
3571.86580 0.02876
3570.58003 0.02897
3569.29426 0.02925
3568.00849 0.02933
3566.72273 0.02899
3565.43696 0.02829
3564.15119 0.02761
3562.86542 0.02728
3561.57965 0.02729
3560.29388 0.02745
3559.00811 0.02776
3557.72234 0.02842
3556.43657 0.02954
3555.15081 0.03092
3553.86504 0.03204
3552.57927 0.03232
3551.29350 0.03156
3550.00773 0.03026
3548.72196 0.02942
3547.43619 0.02964
3546.15042 0.03073
3544.86466 0.03206
3543.57889 0.03308
3542.29312 0.03344
3541.00735 0.03303
3539.72158 0.03203
3538.43581 0.03101
3537.15004 0.03053
3535.86427 0.03077
3534.57850 0.03159
3533.29274 0.03288
3532.00697 0.03449
3530.72120 0.03599
3529.43543 0.03673
3528.14966 0.03638
3526.86389 0.03526
3525.57812 0.03411
3524.29235 0.03349
3523.00659 0.03350
3521.72082 0.03383
3520.43505 0.03424
3519.14928 0.03468
3517.86351 0.03519
3516.57774 0.03561
3515.29197 0.03570
3514.00620 0.03543
3512.72043 0.03507
3511.43467 0.03505
3510.14890 0.03552
3508.86313 0.03627
3507.57736 0.03684
3506.29159 0.03693
3505.00582 0.03666
3503.72005 0.03647
3502.43428 0.03672
3501.14852 0.03730
3499.86275 0.03785
3498.57698 0.03819
3497.29121 0.03852
3496.00544 0.03906
3494.71967 0.03973
3493.43390 0.04026
3492.14813 0.04043
3490.86236 0.04018
3489.57660 0.03957
3488.29083 0.03882
3487.00506 0.03823
3485.71929 0.03790
3484.43352 0.03770
3483.14775 0.03746
3481.86198 0.03727
3480.57621 0.03740
3479.29045 0.03797
3478.00468 0.03891
3476.71891 0.04002
3475.43314 0.04106
3474.14737 0.04172
3472.86160 0.04172
3471.57583 0.04101
3470.29006 0.03984
3469.00429 0.03871
3467.71853 0.03826
3466.43276 0.03884
3465.14699 0.04006
3463.86122 0.04108
3462.57545 0.04136
3461.28968 0.04101
3460.00391 0.04047
3458.71814 0.04006
3457.43238 0.03990
3456.14661 0.04006
3454.86084 0.04047
3453.57507 0.04086
3452.28930 0.04092
3451.00353 0.04067
3449.71776 0.04042
3448.43199 0.04051
3447.14622 0.04103
3445.86046 0.04175
3444.57469 0.04229
3443.28892 0.04237
3442.00315 0.04204
3440.71738 0.04164
3439.43161 0.04150
3438.14584 0.04177
3436.86007 0.04246
3435.57431 0.04345
3434.28854 0.04439
3433.00277 0.04482
3431.71700 0.04454
3430.43123 0.04386
3429.14546 0.04334
3427.85969 0.04334
3426.57392 0.04383
3425.28815 0.04457
3424.00239 0.04531
3422.71662 0.04578
3421.43085 0.04569
3420.14508 0.04487
3418.85931 0.04362
3417.57354 0.04258
3416.28777 0.04232
3415.00200 0.04282
3413.71624 0.04366
3412.43047 0.04444
3411.14470 0.04501
3409.85893 0.04533
3408.57316 0.04536
3407.28739 0.04517
3406.00162 0.04494
3404.71585 0.04480
3403.43008 0.04471
3402.14432 0.04454
3400.85855 0.04432
3399.57278 0.04419
3398.28701 0.04423
3397.00124 0.04440
3395.71547 0.04461
3394.42970 0.04485
3393.14393 0.04515
3391.85817 0.04550
3390.57240 0.04579
3389.28663 0.04586
3388.00086 0.04559
3386.71509 0.04512
3385.42932 0.04490
3384.14355 0.04524
3382.85778 0.04605
3381.57201 0.04692
3380.28625 0.04753
3379.00048 0.04780
3377.71471 0.04772
3376.42894 0.04738
3375.14317 0.04702
3373.85740 0.04703
3372.57163 0.04760
3371.28586 0.04852
3370.00010 0.04933
3368.71433 0.04967
3367.42856 0.04950
3366.14279 0.04902
3364.85702 0.04836
3363.57125 0.04756
3362.28548 0.04676
3360.99971 0.04627
3359.71394 0.04631
3358.42818 0.04675
3357.14241 0.04719
3355.85664 0.04724
3354.57087 0.04680
3353.28510 0.04604
3351.99933 0.04531
3350.71356 0.04489
3349.42779 0.04485
3348.14202 0.04506
3346.85626 0.04529
3345.57049 0.04552
3344.28472 0.04588
3342.99895 0.04647
3341.71318 0.04704
3340.42741 0.04722
3339.14164 0.04698
3337.85587 0.04668
3336.57011 0.04667
3335.28434 0.04692
3333.99857 0.04717
3332.71280 0.04729
3331.42703 0.04722
3330.14126 0.04692
3328.85549 0.04648
3327.56972 0.04616
3326.28395 0.04623
3324.99819 0.04658
3323.71242 0.04694
3322.42665 0.04716
3321.14088 0.04734
3319.85511 0.04748
3318.56934 0.04745
3317.28357 0.04720
3315.99780 0.04691
3314.71204 0.04685
3313.42627 0.04707
3312.14050 0.04742
3310.85473 0.04773
3309.56896 0.04793
3308.28319 0.04808
3306.99742 0.04822
3305.71165 0.04837
3304.42588 0.04841
3303.14012 0.04818
3301.85435 0.04760
3300.56858 0.04681
3299.28281 0.04617
3297.99704 0.04599
3296.71127 0.04624
3295.42550 0.04661
3294.13973 0.04679
3292.85397 0.04675
3291.56820 0.04664
3290.28243 0.04661
3288.99666 0.04667
3287.71089 0.04671
3286.42512 0.04659
3285.13935 0.04632
3283.85358 0.04595
3282.56781 0.04557
3281.28205 0.04530
3279.99628 0.04523
3278.71051 0.04539
3277.42474 0.04565
3276.13897 0.04583
3274.85320 0.04591
3273.56743 0.04606
3272.28166 0.04645
3270.99590 0.04692
3269.71013 0.04715
3268.42436 0.04694
3267.13859 0.04643
3265.85282 0.04599
3264.56705 0.04591
3263.28128 0.04621
3261.99551 0.04666
3260.70974 0.04693
3259.42398 0.04682
3258.13821 0.04645
3256.85244 0.04608
3255.56667 0.04589
3254.28090 0.04594
3252.99513 0.04615
3251.70936 0.04642
3250.42359 0.04667
3249.13783 0.04689
3247.85206 0.04706
3246.56629 0.04719
3245.28052 0.04731
3243.99475 0.04744
3242.70898 0.04755
3241.42321 0.04746
3240.13744 0.04706
3238.85167 0.04639
3237.56591 0.04565
3236.28014 0.04505
3234.99437 0.04475
3233.70860 0.04477
3232.42283 0.04496
3231.13706 0.04505
3229.85129 0.04496
3228.56552 0.04486
3227.27976 0.04492
3225.99399 0.04508
3224.70822 0.04512
3223.42245 0.04496
3222.13668 0.04469
3220.85091 0.04445
3219.56514 0.04438
3218.27937 0.04455
3216.99360 0.04494
3215.70784 0.04543
3214.42207 0.04584
3213.13630 0.04611
3211.85053 0.04628
3210.56476 0.04643
3209.27899 0.04655
3207.99322 0.04651
3206.70745 0.04631
3205.42169 0.04610
3204.13592 0.04597
3202.85015 0.04583
3201.56438 0.04548
3200.27861 0.04492
3198.99284 0.04439
3197.70707 0.04408
3196.42130 0.04393
3195.13553 0.04379
3193.84977 0.04367
3192.56400 0.04361
3191.27823 0.04356
3189.99246 0.04335
3188.70669 0.04298
3187.42092 0.04275
3186.13515 0.04289
3184.84938 0.04333
3183.56362 0.04374
3182.27785 0.04389
3180.99208 0.04375
3179.70631 0.04341
3178.42054 0.04303
3177.13477 0.04280
3175.84900 0.04289
3174.56323 0.04324
3173.27746 0.04361
3171.99170 0.04390
3170.70593 0.04424
3169.42016 0.04470
3168.13439 0.04510
3166.84862 0.04522
3165.56285 0.04501
3164.27708 0.04458
3162.99131 0.04406
3161.70555 0.04352
3160.41978 0.04312
3159.13401 0.04294
3157.84824 0.04297
3156.56247 0.04314
3155.27670 0.04335
3153.99093 0.04346
3152.70516 0.04331
3151.41939 0.04291
3150.13363 0.04247
3148.84786 0.04219
3147.56209 0.04207
3146.27632 0.04201
3144.99055 0.04193
3143.70478 0.04190
3142.41901 0.04204
3141.13324 0.04238
3139.84748 0.04277
3138.56171 0.04291
3137.27594 0.04268
3135.99017 0.04219
3134.70440 0.04170
3133.41863 0.04131
3132.13286 0.04091
3130.84709 0.04044
3129.56132 0.04003
3128.27556 0.03995
3126.98979 0.04025
3125.70402 0.04074
3124.41825 0.04117
3123.13248 0.04147
3121.84671 0.04172
3120.56094 0.04197
3119.27517 0.04206
3117.98940 0.04180
3116.70364 0.04117
3115.41787 0.04042
3114.13210 0.03988
3112.84633 0.03970
3111.56056 0.03983
3110.27479 0.04006
3108.98902 0.04018
3107.70325 0.04007
3106.41749 0.03977
3105.13172 0.03939
3103.84595 0.03908
3102.56018 0.03896
3101.27441 0.03908
3099.98864 0.03941
3098.70287 0.03980
3097.41710 0.04005
3096.13133 0.04005
3094.84557 0.03978
3093.55980 0.03940
3092.27403 0.03905
3090.98826 0.03885
3089.70249 0.03882
3088.41672 0.03883
3087.13095 0.03880
3085.84518 0.03869
3084.55942 0.03856
3083.27365 0.03846
3081.98788 0.03842
3080.70211 0.03841
3079.41634 0.03831
3078.13057 0.03800
3076.84480 0.03745
3075.55903 0.03678
3074.27326 0.03627
3072.98750 0.03615
3071.70173 0.03643
3070.41596 0.03687
3069.13019 0.03722
3067.84442 0.03745
3066.55865 0.03766
3065.27288 0.03787
3063.98711 0.03800
3062.70135 0.03800
3061.41558 0.03791
3060.12981 0.03777
3058.84404 0.03755
3057.55827 0.03720
3056.27250 0.03677
3054.98673 0.03640
3053.70096 0.03623
3052.41519 0.03627
3051.12943 0.03644
3049.84366 0.03665
3048.55789 0.03688
3047.27212 0.03706
3045.98635 0.03711
3044.70058 0.03693
3043.41481 0.03651
3042.12904 0.03593
3040.84328 0.03534
3039.55751 0.03497
3038.27174 0.03502
3036.98597 0.03537
3035.70020 0.03568
3034.41443 0.03570
3033.12866 0.03552
3031.84289 0.03541
3030.55712 0.03550
3029.27136 0.03570
3027.98559 0.03580
3026.69982 0.03569
3025.41405 0.03539
3024.12828 0.03506
3022.84251 0.03491
3021.55674 0.03504
3020.27097 0.03535
3018.98521 0.03559
3017.69944 0.03555
3016.41367 0.03524
3015.12790 0.03484
3013.84213 0.03453
3012.55636 0.03441
3011.27059 0.03449
3009.98482 0.03474
3008.69905 0.03511
3007.41329 0.03546
3006.12752 0.03558
3004.84175 0.03532
3003.55598 0.03477
3002.27021 0.03426
3000.98444 0.03401
2999.69867 0.03396
2998.41290 0.03383
2997.12714 0.03341
2995.84137 0.03278
2994.55560 0.03217
2993.26983 0.03192
2991.98406 0.03219
2990.69829 0.03276
2989.41252 0.03326
2988.12675 0.03351
2986.84098 0.03370
2985.55522 0.03400
2984.26945 0.03433
2982.98368 0.03448
2981.69791 0.03435
2980.41214 0.03404
2979.12637 0.03371
2977.84060 0.03356
2976.55483 0.03380
2975.26907 0.03450
2973.98330 0.03544
2972.69753 0.03623
2971.41176 0.03659
2970.12599 0.03658
2968.84022 0.03642
2967.55445 0.03632
2966.26868 0.03636
2964.98291 0.03649
2963.69715 0.03668
2962.41138 0.03695
2961.12561 0.03733
2959.83984 0.03770
2958.55407 0.03794
2957.26830 0.03806
2955.98253 0.03820
2954.69676 0.03849
2953.41100 0.03896
2952.12523 0.03958
2950.83946 0.04023
2949.55369 0.04065
2948.26792 0.04063
2946.98215 0.04024
2945.69638 0.03978
2944.41061 0.03955
2943.12484 0.03961
2941.83908 0.03977
2940.55331 0.03978
2939.26754 0.03954
2937.98177 0.03912
2936.69600 0.03866
2935.41023 0.03816
2934.12446 0.03754
2932.83869 0.03681
2931.55293 0.03607
2930.26716 0.03532
2928.98139 0.03437
2927.69562 0.03302
2926.40985 0.03119
2925.12408 0.02884
2923.83831 0.02590
2922.55254 0.02232
2921.26677 0.01820
2919.98101 0.01389
2918.69524 0.01006
2917.40947 0.00761
2916.12370 0.00738
2914.83793 0.00962
2913.55216 0.01370
2912.26639 0.01845
2910.98062 0.02273
2909.69486 0.02593
2908.40909 0.02801
2907.12332 0.02928
2905.83755 0.03016
2904.55178 0.03096
2903.26601 0.03167
2901.98024 0.03205
2900.69447 0.03203
2899.40870 0.03183
2898.12294 0.03176
2896.83717 0.03188
2895.55140 0.03206
2894.26563 0.03220
2892.97986 0.03225
2891.69409 0.03224
2890.40832 0.03219
2889.12255 0.03213
2887.83678 0.03209
2886.55102 0.03213
2885.26525 0.03230
2883.97948 0.03257
2882.69371 0.03284
2881.40794 0.03303
2880.12217 0.03315
2878.83640 0.03322
2877.55063 0.03324
2876.26487 0.03325
2874.97910 0.03335
2873.69333 0.03358
2872.40756 0.03397
2871.12179 0.03452
2869.83602 0.03508
2868.55025 0.03541
2867.26448 0.03536
2865.97871 0.03494
2864.69295 0.03429
2863.40718 0.03347
2862.12141 0.03256
2860.83564 0.03162
2859.54987 0.03065
2858.26410 0.02952
2856.97833 0.02797
2855.69256 0.02580
2854.40680 0.02282
2853.12103 0.01901
2851.83526 0.01482
2850.54949 0.01141
2849.26372 0.01020
2847.97795 0.01185
2846.69218 0.01562
2845.40641 0.01992
2844.12064 0.02337
2842.83488 0.02552
2841.54911 0.02661
2840.26334 0.02712
2838.97757 0.02747
2837.69180 0.02788
2836.40603 0.02836
2835.12026 0.02879
2833.83449 0.02905
2832.54873 0.02907
2831.26296 0.02887
2829.97719 0.02856
2828.69142 0.02832
2827.40565 0.02823
2826.11988 0.02819
2824.83411 0.02804
2823.54834 0.02771
2822.26257 0.02728
2820.97681 0.02688
2819.69104 0.02654
2818.40527 0.02626
2817.11950 0.02607
2815.83373 0.02598
2814.54796 0.02598
2813.26219 0.02606
2811.97642 0.02618
2810.69066 0.02624
2809.40489 0.02614
2808.11912 0.02594
2806.83335 0.02587
2805.54758 0.02603
2804.26181 0.02630
2802.97604 0.02645
2801.69027 0.02642
2800.40450 0.02623
2799.11874 0.02599
2797.83297 0.02578
2796.54720 0.02570
2795.26143 0.02570
2793.97566 0.02567
2792.68989 0.02547
2791.40412 0.02515
2790.11835 0.02488
2788.83259 0.02476
2787.54682 0.02471
2786.26105 0.02466
2784.97528 0.02463
2783.68951 0.02470
2782.40374 0.02488
2781.11797 0.02507
2779.83220 0.02523
2778.54643 0.02537
2777.26067 0.02545
2775.97490 0.02538
2774.68913 0.02510
2773.40336 0.02466
2772.11759 0.02419
2770.83182 0.02382
2769.54605 0.02357
2768.26028 0.02343
2766.97452 0.02338
2765.68875 0.02347
2764.40298 0.02366
2763.11721 0.02385
2761.83144 0.02394
2760.54567 0.02393
2759.25990 0.02386
2757.97413 0.02380
2756.68836 0.02376
2755.40260 0.02379
2754.11683 0.02390
2752.83106 0.02409
2751.54529 0.02421
2750.25952 0.02410
2748.97375 0.02379
2747.68798 0.02342
2746.40221 0.02313
2745.11645 0.02291
2743.83068 0.02277
2742.54491 0.02276
2741.25914 0.02297
2739.97337 0.02334
2738.68760 0.02366
2737.40183 0.02373
2736.11606 0.02352
2734.83029 0.02318
2733.54453 0.02290
2732.25876 0.02271
2730.97299 0.02258
2729.68722 0.02254
2728.40145 0.02264
2727.11568 0.02280
2725.82991 0.02290
2724.54414 0.02292
2723.25838 0.02297
2721.97261 0.02308
2720.68684 0.02312
2719.40107 0.02303
2718.11530 0.02291
2716.82953 0.02291
2715.54376 0.02302
2714.25799 0.02311
2712.97222 0.02306
2711.68646 0.02287
2710.40069 0.02260
2709.11492 0.02234
2707.82915 0.02216
2706.54338 0.02200
2705.25761 0.02181
2703.97184 0.02158
2702.68607 0.02141
2701.40031 0.02137
2700.11454 0.02143
2698.82877 0.02151
2697.54300 0.02158
2696.25723 0.02167
2694.97146 0.02181
2693.68569 0.02197
2692.39992 0.02206
2691.11415 0.02199
2689.82839 0.02180
2688.54262 0.02160
2687.25685 0.02153
2685.97108 0.02152
2684.68531 0.02144
2683.39954 0.02125
2682.11377 0.02105
2680.82800 0.02092
2679.54224 0.02085
2678.25647 0.02074
2676.97070 0.02064
2675.68493 0.02062
2674.39916 0.02073
2673.11339 0.02086
2671.82762 0.02087
2670.54185 0.02072
2669.25608 0.02052
2667.97032 0.02043
2666.68455 0.02054
2665.39878 0.02081
2664.11301 0.02114
2662.82724 0.02142
2661.54147 0.02164
2660.25570 0.02177
2658.96993 0.02173
2657.68417 0.02146
2656.39840 0.02110
2655.11263 0.02089
2653.82686 0.02095
2652.54109 0.02108
2651.25532 0.02100
2649.96955 0.02068
2648.68378 0.02032
2647.39801 0.02009
2646.11225 0.02005
2644.82648 0.02012
2643.54071 0.02022
2642.25494 0.02027
2640.96917 0.02028
2639.68340 0.02025
2638.39763 0.02020
2637.11186 0.02005
2635.82609 0.01976
2634.54033 0.01941
2633.25456 0.01907
2631.96879 0.01879
2630.68302 0.01862
2629.39725 0.01862
2628.11148 0.01882
2626.82571 0.01909
2625.53994 0.01929
2624.25418 0.01934
2622.96841 0.01923
2621.68264 0.01898
2620.39687 0.01872
2619.11110 0.01856
2617.82533 0.01849
2616.53956 0.01843
2615.25379 0.01834
2613.96802 0.01823
2612.68226 0.01809
2611.39649 0.01788
2610.11072 0.01767
2608.82495 0.01765
2607.53918 0.01795
2606.25341 0.01844
2604.96764 0.01880
2603.68187 0.01875
2602.39611 0.01828
2601.11034 0.01766
2599.82457 0.01720
2598.53880 0.01697
2597.25303 0.01683
2595.96726 0.01669
2594.68149 0.01662
2593.39572 0.01675
2592.10995 0.01715
2590.82419 0.01771
2589.53842 0.01813
2588.25265 0.01812
2586.96688 0.01773
2585.68111 0.01729
2584.39534 0.01710
2583.10957 0.01705
2581.82380 0.01682
2580.53804 0.01626
2579.25227 0.01557
2577.96650 0.01510
2576.68073 0.01504
2575.39496 0.01528
2574.10919 0.01557
2572.82342 0.01580
2571.53765 0.01596
2570.25188 0.01609
2568.96612 0.01623
2567.68035 0.01645
2566.39458 0.01672
2565.10881 0.01692
2563.82304 0.01691
2562.53727 0.01675
2561.25150 0.01656
2559.96573 0.01636
2558.67997 0.01607
2557.39420 0.01568
2556.10843 0.01531
2554.82266 0.01518
2553.53689 0.01539
2552.25112 0.01585
2550.96535 0.01637
2549.67958 0.01680
2548.39381 0.01710
2547.10805 0.01722
2545.82228 0.01707
2544.53651 0.01668
2543.25074 0.01629
2541.96497 0.01618
2540.67920 0.01642
2539.39343 0.01671
2538.10766 0.01661
2536.82190 0.01593
2535.53613 0.01493
2534.25036 0.01405
2532.96459 0.01366
2531.67882 0.01393
2530.39305 0.01472
2529.10728 0.01565
2527.82151 0.01625
2526.53574 0.01626
2525.24998 0.01573
2523.96421 0.01497
2522.67844 0.01438
2521.39267 0.01430
2520.10690 0.01473
2518.82113 0.01534
2517.53536 0.01581
2516.24959 0.01604
2514.96383 0.01601
2513.67806 0.01567
2512.39229 0.01504
2511.10652 0.01440
2509.82075 0.01412
2508.53498 0.01439
2507.24921 0.01497
2505.96344 0.01544
2504.67767 0.01555
2503.39191 0.01536
2502.10614 0.01511
2500.82037 0.01496
2499.53460 0.01498
2498.24883 0.01520
2496.96306 0.01561
2495.67729 0.01600
2494.39152 0.01607
2493.10576 0.01559
2491.81999 0.01471
2490.53422 0.01390
2489.24845 0.01359
2487.96268 0.01382
2486.67691 0.01432
2485.39114 0.01472
2484.10537 0.01487
2482.81960 0.01479
2481.53384 0.01473
2480.24807 0.01491
2478.96230 0.01539
2477.67653 0.01592
2476.39076 0.01616
2475.10499 0.01597
2473.81922 0.01552
2472.53345 0.01511
2471.24769 0.01490
2469.96192 0.01488
2468.67615 0.01496
2467.39038 0.01505
2466.10461 0.01513
2464.81884 0.01521
2463.53307 0.01529
2462.24730 0.01529
2460.96153 0.01508
2459.67577 0.01473
2458.39000 0.01448
2457.10423 0.01450
2455.81846 0.01466
2454.53269 0.01472
2453.24692 0.01456
2451.96115 0.01425
2450.67538 0.01391
2449.38962 0.01368
2448.10385 0.01364
2446.81808 0.01370
2445.53231 0.01366
2444.24654 0.01347
2442.96077 0.01332
2441.67500 0.01338
2440.38923 0.01357
2439.10346 0.01364
2437.81770 0.01354
2436.53193 0.01350
2435.24616 0.01369
2433.96039 0.01401
2432.67462 0.01417
2431.38885 0.01403
2430.10308 0.01366
2428.81731 0.01325
2427.53155 0.01296
2426.24578 0.01284
2424.96001 0.01281
2423.67424 0.01281
2422.38847 0.01291
2421.10270 0.01322
2419.81693 0.01368
2418.53116 0.01407
2417.24539 0.01421
2415.95963 0.01417
2414.67386 0.01411
2413.38809 0.01416
2412.10232 0.01424
2410.81655 0.01427
2409.53078 0.01432
2408.24501 0.01452
2406.95924 0.01482
2405.67347 0.01495
2404.38771 0.01471
2403.10194 0.01420
2401.81617 0.01360
2400.53040 0.01311
2399.24463 0.01275
2397.95886 0.01260
2396.67309 0.01256
2395.38732 0.01255
2394.10156 0.01262
2392.81579 0.01279
2391.53002 0.01299
2390.24425 0.01308
2388.95848 0.01299
2387.67271 0.01276
2386.38694 0.01250
2385.10117 0.01235
2383.81540 0.01237
2382.52964 0.01252
2381.24387 0.01270
2379.95810 0.01280
2378.67233 0.01289
2377.38656 0.01302
2376.10079 0.01316
2374.81502 0.01327
2373.52925 0.01326
2372.24349 0.01311
2370.95772 0.01290
2369.67195 0.01275
2368.38618 0.01266
2367.10041 0.01262
2365.81464 0.01265
2364.52887 0.01288
2363.24310 0.01328
2361.95733 0.01368
2360.67157 0.01384
2359.38580 0.01388
2358.10003 0.01400
2356.81426 0.01424
2355.52849 0.01447
2354.24272 0.01451
2352.95695 0.01425
2351.67118 0.01371
2350.38542 0.01325
2349.09965 0.01319
2347.81388 0.01338
2346.52811 0.01334
2345.24234 0.01324
2343.95657 0.01365
2342.67080 0.01442
2341.38503 0.01459
2340.09926 0.01411
2338.81350 0.01413
2337.52773 0.01465
2336.24196 0.01424
2334.95619 0.01327
2333.67042 0.01339
2332.38465 0.01412
2331.09888 0.01381
2329.81311 0.01344
2328.52735 0.01417
2327.24158 0.01461
2325.95581 0.01479
2324.67004 0.01551
2323.38427 0.01560
2322.09850 0.01493
2320.81273 0.01476
2319.52696 0.01451
2318.24119 0.01409
2316.95543 0.01396
2315.66966 0.01365
2314.38389 0.01335
2313.09812 0.01343
2311.81235 0.01360
2310.52658 0.01398
2309.24081 0.01441
2307.95504 0.01457
2306.66928 0.01457
2305.38351 0.01432
2304.09774 0.01393
2302.81197 0.01349
2301.52620 0.01311
2300.24043 0.01299
2298.95466 0.01309
2297.66889 0.01320
2296.38312 0.01314
2295.09736 0.01296
2293.81159 0.01294
2292.52582 0.01317
2291.24005 0.01353
2289.95428 0.01378
2288.66851 0.01377
2287.38274 0.01349
2286.09697 0.01300
2284.81121 0.01242
2283.52544 0.01199
2282.23967 0.01192
2280.95390 0.01224
2279.66813 0.01273
2278.38236 0.01308
2277.09659 0.01296
2275.81082 0.01235
2274.52505 0.01155
2273.23929 0.01103
2271.95352 0.01102
2270.66775 0.01140
2269.38198 0.01184
2268.09621 0.01209
2266.81044 0.01209
2265.52467 0.01200
2264.23890 0.01205
2262.95314 0.01221
2261.66737 0.01219
2260.38160 0.01174
2259.09583 0.01093
2257.81006 0.01007
2256.52429 0.00952
2255.23852 0.00943
2253.95275 0.00952
2252.66698 0.00932
2251.38122 0.00862
2250.09545 0.00788
2248.80968 0.00780
2247.52391 0.00855
2246.23814 0.00994
2244.95237 0.01112
2243.66660 0.01140
2242.38083 0.01073
2241.09507 0.00970
2239.80930 0.00898
2238.52353 0.00887
2237.23776 0.00921
2235.95199 0.00975
2234.66622 0.01030
2233.38045 0.01057
2232.09468 0.01024
2230.80891 0.00937
2229.52315 0.00858
2228.23738 0.00864
2226.95161 0.00973
2225.66584 0.01114
2224.38007 0.01198
2223.09430 0.01187
2221.80853 0.01118
2220.52276 0.01049
2219.23700 0.00999
2217.95123 0.00949
2216.66546 0.00880
2215.37969 0.00795
2214.09392 0.00697
2212.80815 0.00577
2211.52238 0.00450
2210.23661 0.00365
2208.95084 0.00375
2207.66508 0.00480
2206.37931 0.00631
2205.09354 0.00771
2203.80777 0.00863
2202.52200 0.00899
2201.23623 0.00887
2199.95046 0.00847
2198.66469 0.00797
2197.37893 0.00750
2196.09316 0.00701
2194.80739 0.00641
2193.52162 0.00573
2192.23585 0.00535
2190.95008 0.00557
2189.66431 0.00622
2188.37854 0.00669
2187.09277 0.00663
2185.80701 0.00635
2184.52124 0.00643
2183.23547 0.00707
2181.94970 0.00784
2180.66393 0.00820
2179.37816 0.00812
2178.09239 0.00793
2176.80662 0.00771
2175.52085 0.00719
2174.23509 0.00617
2172.94932 0.00480
2171.66355 0.00335
2170.37778 0.00208
2169.09201 0.00135
2167.80624 0.00135
2166.52047 0.00163
2165.23470 0.00156
2163.94894 0.00124
2162.66317 0.00137
2161.37740 0.00207
2160.09163 0.00271
2158.80586 0.00283
2157.52009 0.00273
2156.23432 0.00279
2154.94855 0.00300
2153.66278 0.00332
2152.37702 0.00390
2151.09125 0.00483
2149.80548 0.00582
2148.51971 0.00646
2147.23394 0.00654
2145.94817 0.00619
2144.66240 0.00571
2143.37663 0.00522
2142.09087 0.00466
2140.80510 0.00407
2139.51933 0.00369
2138.23356 0.00365
2136.94779 0.00382
2135.66202 0.00399
2134.37625 0.00412
2133.09048 0.00433
2131.80471 0.00461
2130.51895 0.00480
2129.23318 0.00484
2127.94741 0.00492
2126.66164 0.00527
2125.37587 0.00583
2124.09010 0.00633
2122.80433 0.00657
2121.51856 0.00664
2120.23280 0.00682
2118.94703 0.00731
2117.66126 0.00796
2116.37549 0.00839
2115.08972 0.00830
2113.80395 0.00778
2112.51818 0.00728
2111.23241 0.00714
2109.94664 0.00727
2108.66088 0.00731
2107.37511 0.00695
2106.08934 0.00626
2104.80357 0.00558
2103.51780 0.00522
2102.23203 0.00520
2100.94626 0.00535
2099.66049 0.00528
2098.37473 0.00545
2097.08896 0.00581
2095.80319 0.00610
2094.51742 0.00620
2093.23165 0.00617
2091.94588 0.00618
2090.66011 0.00625
2089.37434 0.00618
2088.08857 0.00583
2086.80281 0.00538
2085.51704 0.00522
2084.23127 0.00549
2082.94550 0.00593
2081.65973 0.00622
2080.37396 0.00625
2079.08819 0.00616
2077.80242 0.00612
2076.51666 0.00626
2075.23089 0.00658
2073.94512 0.00695
2072.65935 0.00726
2071.37358 0.00749
2070.08781 0.00771
2068.80204 0.00784
2067.51627 0.00761
2066.23050 0.00683
2064.94474 0.00570
2063.65897 0.00469
2062.37320 0.00411
2061.08743 0.00399
2059.80166 0.00417
2058.51589 0.00448
2057.23012 0.00481
2055.94435 0.00504
2054.65859 0.00513
2053.37282 0.00506
2052.08705 0.00490
2050.80128 0.00479
2049.51551 0.00491
2048.22974 0.00525
2046.94397 0.00561
2045.65820 0.00583
2044.37243 0.00584
2043.08667 0.00559
2041.80090 0.00496
2040.51513 0.00400
2039.22936 0.00297
2037.94359 0.00216
2036.65782 0.00159
2035.37205 0.00111
2034.08628 0.00073
2032.80052 0.00071
2031.51475 0.00124
2030.22898 0.00213
2028.94321 0.00296
2027.65744 0.00349
2026.37167 0.00377
2025.08590 0.00391
2023.80013 0.00383
2022.51436 0.00351
2021.22860 0.00316
2019.94283 0.00314
2018.65706 0.00354
2017.37129 0.00404
2016.08552 0.00421
2014.79975 0.00383
2013.51398 0.00300
2012.22821 0.00198
2010.94245 0.00113
2009.65668 0.00076
2008.37091 0.00103
2007.08514 0.00185
2005.79937 0.00293
2004.51360 0.00391
2003.22783 0.00446
2001.94206 0.00453
2000.65629 0.00442
1999.37053 0.00445
1998.08476 0.00466
1996.79899 0.00472
1995.51322 0.00446
1994.22745 0.00408
1992.94168 0.00399
1991.65591 0.00423
1990.37014 0.00444
1989.08438 0.00421
1987.79861 0.00365
1986.51284 0.00332
1985.22707 0.00372
1983.94130 0.00475
1982.65553 0.00582
1981.36976 0.00636
1980.08399 0.00611
1978.79822 0.00519
1977.51246 0.00397
1976.22669 0.00315
1974.94092 0.00331
1973.65515 0.00442
1972.36938 0.00593
1971.08361 0.00729
1969.79784 0.00821
1968.51207 0.00859
1967.22631 0.00846
1965.94054 0.00802
1964.65477 0.00750
1963.36900 0.00684
1962.08323 0.00583
1960.79746 0.00455
1959.51169 0.00350
1958.22592 0.00320
1956.94015 0.00364
1955.65439 0.00432
1954.36862 0.00477
1953.08285 0.00498
1951.79708 0.00523
1950.51131 0.00565
1949.22554 0.00600
1947.93977 0.00607
1946.65400 0.00599
1945.36823 0.00599
1944.08247 0.00607
1942.79670 0.00602
1941.51093 0.00579
1940.22516 0.00556
1938.93939 0.00547
1937.65362 0.00552
1936.36785 0.00561
1935.08208 0.00560
1933.79632 0.00542
1932.51055 0.00510
1931.22478 0.00480
1929.93901 0.00470
1928.65324 0.00483
1927.36747 0.00509
1926.08170 0.00541
1924.79593 0.00579
1923.51016 0.00617
1922.22440 0.00632
1920.93863 0.00609
1919.65286 0.00557
1918.36709 0.00506
1917.08132 0.00480
1915.79555 0.00489
1914.50978 0.00527
1913.22401 0.00574
1911.93825 0.00613
1910.65248 0.00634
1909.36671 0.00640
1908.08094 0.00638
1906.79517 0.00634
1905.50940 0.00631
1904.22363 0.00637
1902.93786 0.00658
1901.65209 0.00689
1900.36633 0.00722
1899.08056 0.00744
1897.79479 0.00753
1896.50902 0.00748
1895.22325 0.00735
1893.93748 0.00721
1892.65171 0.00707
1891.36594 0.00694
1890.08018 0.00678
1888.79441 0.00663
1887.50864 0.00657
1886.22287 0.00664
1884.93710 0.00684
1883.65133 0.00707
1882.36556 0.00718
1881.07979 0.00701
1879.79402 0.00655
1878.50826 0.00602
1877.22249 0.00570
1875.93672 0.00574
1874.65095 0.00604
1873.36518 0.00639
1872.07941 0.00663
1870.79364 0.00671
1869.50787 0.00669
1868.22211 0.00663
1866.93634 0.00662
1865.65057 0.00673
1864.36480 0.00697
1863.07903 0.00729
1861.79326 0.00754
1860.50749 0.00760
1859.22172 0.00744
1857.93595 0.00718
1856.65019 0.00699
1855.36442 0.00696
1854.07865 0.00710
1852.79288 0.00733
1851.50711 0.00750
1850.22134 0.00746
1848.93557 0.00718
1847.64980 0.00680
1846.36404 0.00650
1845.07827 0.00638
1843.79250 0.00639
1842.50673 0.00651
1841.22096 0.00677
1839.93519 0.00718
1838.64942 0.00760
1837.36365 0.00780
1836.07788 0.00768
1834.79212 0.00731
1833.50635 0.00690
1832.22058 0.00663
1830.93481 0.00657
1829.64904 0.00668
1828.36327 0.00692
1827.07750 0.00722
1825.79173 0.00747
1824.50597 0.00758
1823.22020 0.00756
1821.93443 0.00751
1820.64866 0.00753
1819.36289 0.00759
1818.07712 0.00763
1816.79135 0.00761
1815.50558 0.00757
1814.21981 0.00754
1812.93405 0.00753
1811.64828 0.00755
1810.36251 0.00763
1809.07674 0.00780
1807.79097 0.00800
1806.50520 0.00808
1805.21943 0.00800
1803.93366 0.00782
1802.64790 0.00767
1801.36213 0.00762
1800.07636 0.00765
1798.79059 0.00772
1797.50482 0.00781
1796.21905 0.00787
1794.93328 0.00793
1793.64751 0.00799
1792.36174 0.00810
1791.07598 0.00822
1789.79021 0.00831
1788.50444 0.00832
1787.21867 0.00827
1785.93290 0.00822
1784.64713 0.00825
1783.36136 0.00835
1782.07559 0.00851
1780.78983 0.00866
1779.50406 0.00874
1778.21829 0.00877
1776.93252 0.00879
1775.64675 0.00884
1774.36098 0.00896
1773.07521 0.00910
1771.78944 0.00921
1770.50367 0.00927
1769.21791 0.00934
1767.93214 0.00941
1766.64637 0.00949
1765.36060 0.00960
1764.07483 0.00972
1762.78906 0.00978
1761.50329 0.00974
1760.21752 0.00964
1758.93176 0.00961
1757.64599 0.00971
1756.36022 0.00989
1755.07445 0.01003
1753.78868 0.01012
1752.50291 0.01016
1751.21714 0.01015
1749.93137 0.01010
1748.64560 0.01007
1747.35984 0.01010
1746.07407 0.01018
1744.78830 0.01025
1743.50253 0.01027
1742.21676 0.01028
1740.93099 0.01035
1739.64522 0.01046
1738.35945 0.01055
1737.07369 0.01062
1735.78792 0.01070
1734.50215 0.01080
1733.21638 0.01091
1731.93061 0.01106
1730.64484 0.01130
1729.35907 0.01157
1728.07330 0.01177
1726.78753 0.01187
1725.50177 0.01197
1724.21600 0.01214
1722.93023 0.01239
1721.64446 0.01264
1720.35869 0.01284
1719.07292 0.01300
1717.78715 0.01313
1716.50138 0.01327
1715.21561 0.01348
1713.92985 0.01375
1712.64408 0.01405
1711.35831 0.01436
1710.07254 0.01467
1708.78677 0.01496
1707.50100 0.01522
1706.21523 0.01541
1704.92946 0.01553
1703.64370 0.01568
1702.35793 0.01595
1701.07216 0.01632
1699.78639 0.01661
1698.50062 0.01678
1697.21485 0.01695
1695.92908 0.01715
1694.64331 0.01730
1693.35754 0.01745
1692.07178 0.01770
1690.78601 0.01800
1689.50024 0.01825
1688.21447 0.01845
1686.92870 0.01869
1685.64293 0.01905
1684.35716 0.01945
1683.07139 0.01977
1681.78563 0.02000
1680.49986 0.02019
1679.21409 0.02037
1677.92832 0.02060
1676.64255 0.02091
1675.35678 0.02121
1674.07101 0.02144
1672.78524 0.02164
1671.49947 0.02191
1670.21371 0.02225
1668.92794 0.02259
1667.64217 0.02288
1666.35640 0.02312
1665.07063 0.02335
1663.78486 0.02358
1662.49909 0.02379
1661.21332 0.02399
1659.92756 0.02419
1658.64179 0.02436
1657.35602 0.02449
1656.07025 0.02464
1654.78448 0.02486
1653.49871 0.02507
1652.21294 0.02513
1650.92717 0.02510
1649.64140 0.02515
1648.35564 0.02538
1647.06987 0.02566
1645.78410 0.02589
1644.49833 0.02605
1643.21256 0.02621
1641.92679 0.02639
1640.64102 0.02658
1639.35525 0.02679
1638.06949 0.02700
1636.78372 0.02719
1635.49795 0.02732
1634.21218 0.02740
1632.92641 0.02749
1631.64064 0.02766
1630.35487 0.02786
1629.06910 0.02805
1627.78333 0.02820
1626.49757 0.02836
1625.21180 0.02859
1623.92603 0.02885
1622.64026 0.02909
1621.35449 0.02929
1620.06872 0.02952
1618.78295 0.02985
1617.49718 0.03028
1616.21142 0.03073
1614.92565 0.03114
1613.63988 0.03151
1612.35411 0.03185
1611.06834 0.03211
1609.78257 0.03233
1608.49680 0.03257
1607.21103 0.03284
1605.92526 0.03315
1604.63950 0.03350
1603.35373 0.03387
1602.06796 0.03423
1600.78219 0.03457
1599.49642 0.03486
1598.21065 0.03511
1596.92488 0.03530
1595.63911 0.03540
1594.35335 0.03545
1593.06758 0.03549
1591.78181 0.03554
1590.49604 0.03556
1589.21027 0.03557
1587.92450 0.03557
1586.63873 0.03558
1585.35296 0.03558
1584.06719 0.03554
1582.78143 0.03545
1581.49566 0.03534
1580.20989 0.03524
1578.92412 0.03520
1577.63835 0.03529
1576.35258 0.03546
1575.06681 0.03565
1573.78104 0.03584
1572.49528 0.03609
1571.20951 0.03640
1569.92374 0.03670
1568.63797 0.03693
1567.35220 0.03709
1566.06643 0.03719
1564.78066 0.03724
1563.49489 0.03725
1562.20912 0.03727
1560.92336 0.03732
1559.63759 0.03736
1558.35182 0.03733
1557.06605 0.03727
1555.78028 0.03727
1554.49451 0.03728
1553.20874 0.03722
1551.92297 0.03706
1550.63721 0.03683
1549.35144 0.03653
1548.06567 0.03611
1546.77990 0.03559
1545.49413 0.03502
1544.20836 0.03445
1542.92259 0.03394
1541.63682 0.03355
1540.35105 0.03330
1539.06529 0.03316
1537.77952 0.03314
1536.49375 0.03325
1535.20798 0.03349
1533.92221 0.03376
1532.63644 0.03398
1531.35067 0.03415
1530.06490 0.03433
1528.77914 0.03456
1527.49337 0.03482
1526.20760 0.03509
1524.92183 0.03535
1523.63606 0.03564
1522.35029 0.03601
1521.06452 0.03640
1519.77875 0.03681
1518.49298 0.03726
1517.20722 0.03779
1515.92145 0.03839
1514.63568 0.03906
1513.34991 0.03977
1512.06414 0.04051
1510.77837 0.04126
1509.49260 0.04207
1508.20683 0.04297
1506.92107 0.04388
1505.63530 0.04469
1504.34953 0.04542
1503.06376 0.04614
1501.77799 0.04685
1500.49222 0.04747
1499.20645 0.04800
1497.92068 0.04849
1496.63491 0.04899
1495.34915 0.04947
1494.06338 0.04991
1492.77761 0.05031
1491.49184 0.05071
1490.20607 0.05112
1488.92030 0.05159
1487.63453 0.05212
1486.34876 0.05271
1485.06299 0.05335
1483.77723 0.05404
1482.49146 0.05476
1481.20569 0.05550
1479.91992 0.05619
1478.63415 0.05677
1477.34838 0.05721
1476.06261 0.05750
1474.77684 0.05773
1473.49108 0.05801
1472.20531 0.05845
1470.91954 0.05904
1469.63377 0.05968
1468.34800 0.06027
1467.06223 0.06072
1465.77646 0.06107
1464.49069 0.06142
1463.20492 0.06191
1461.91916 0.06260
1460.63339 0.06342
1459.34762 0.06426
1458.06185 0.06502
1456.77608 0.06564
1455.49031 0.06611
1454.20454 0.06651
1452.91877 0.06689
1451.63301 0.06721
1450.34724 0.06745
1449.06147 0.06763
1447.77570 0.06775
1446.48993 0.06779
1445.20416 0.06775
1443.91839 0.06766
1442.63262 0.06750
1441.34685 0.06729
1440.06109 0.06707
1438.77532 0.06690
1437.48955 0.06681
1436.20378 0.06681
1434.91801 0.06693
1433.63224 0.06725
1432.34647 0.06776
1431.06070 0.06843
1429.77494 0.06924
1428.48917 0.07015
1427.20340 0.07112
1425.91763 0.07210
1424.63186 0.07305
1423.34609 0.07394
1422.06032 0.07479
1420.77455 0.07563
1419.48878 0.07642
1418.20302 0.07710
1416.91725 0.07770
1415.63148 0.07821
1414.34571 0.07863
1413.05994 0.07890
1411.77417 0.07898
1410.48840 0.07886
1409.20263 0.07854
1407.91687 0.07804
1406.63110 0.07739
1405.34533 0.07661
1404.05956 0.07571
1402.77379 0.07472
1401.48802 0.07365
1400.20225 0.07250
1398.91648 0.07124
1397.63071 0.06987
1396.34495 0.06841
1395.05918 0.06688
1393.77341 0.06535
1392.48764 0.06386
1391.20187 0.06245
1389.91610 0.06109
1388.63033 0.05973
1387.34456 0.05830
1386.05880 0.05681
1384.77303 0.05529
1383.48726 0.05381
1382.20149 0.05238
1380.91572 0.05099
1379.62995 0.04963
1378.34418 0.04828
1377.05841 0.04692
1375.77264 0.04555
1374.48688 0.04416
1373.20111 0.04277
1371.91534 0.04139
1370.62957 0.04006
1369.34380 0.03879
1368.05803 0.03760
1366.77226 0.03646
1365.48649 0.03537
1364.20073 0.03433
1362.91496 0.03334
1361.62919 0.03240
1360.34342 0.03151
1359.05765 0.03070
1357.77188 0.03000
1356.48611 0.02938
1355.20034 0.02879
1353.91457 0.02820
1352.62881 0.02762
1351.34304 0.02707
1350.05727 0.02653
1348.77150 0.02600
1347.48573 0.02547
1346.19996 0.02497
1344.91419 0.02453
1343.62842 0.02412
1342.34266 0.02373
1341.05689 0.02336
1339.77112 0.02298
1338.48535 0.02262
1337.19958 0.02226
1335.91381 0.02191
1334.62804 0.02157
1333.34227 0.02120
1332.05650 0.02084
1330.77074 0.02050
1329.48497 0.02021
1328.19920 0.01996
1326.91343 0.01971
1325.62766 0.01945
1324.34189 0.01924
1323.05612 0.01908
1321.77035 0.01895
1320.48459 0.01878
1319.19882 0.01855
1317.91305 0.01830
1316.62728 0.01805
1315.34151 0.01782
1314.05574 0.01760
1312.76997 0.01738
1311.48420 0.01722
1310.19843 0.01711
1308.91267 0.01700
1307.62690 0.01688
1306.34113 0.01673
1305.05536 0.01660
1303.76959 0.01650
1302.48382 0.01646
1301.19805 0.01643
1299.91228 0.01639
1298.62652 0.01633
1297.34075 0.01625
1296.05498 0.01617
1294.76921 0.01608
1293.48344 0.01598
1292.19767 0.01587
1290.91190 0.01572
1289.62613 0.01552
1288.34036 0.01530
1287.05460 0.01513
1285.76883 0.01503
1284.48306 0.01498
1283.19729 0.01492
1281.91152 0.01482
1280.62575 0.01472
1279.33998 0.01465
1278.05421 0.01465
1276.76845 0.01469
1275.48268 0.01472
1274.19691 0.01471
1272.91114 0.01461
1271.62537 0.01444
1270.33960 0.01427
1269.05383 0.01414
1267.76806 0.01406
1266.48229 0.01398
1265.19653 0.01391
1263.91076 0.01386
1262.62499 0.01387
1261.33922 0.01391
1260.05345 0.01391
1258.76768 0.01386
1257.48191 0.01376
1256.19614 0.01365
1254.91037 0.01356
1253.62461 0.01348
1252.33884 0.01343
1251.05307 0.01340
1249.76730 0.01340
1248.48153 0.01342
1247.19576 0.01344
1245.90999 0.01341
1244.62422 0.01332
1243.33846 0.01321
1242.05269 0.01312
1240.76692 0.01305
1239.48115 0.01297
1238.19538 0.01284
1236.90961 0.01270
1235.62384 0.01259
1234.33807 0.01255
1233.05230 0.01257
1231.76654 0.01261
1230.48077 0.01262
1229.19500 0.01260
1227.90923 0.01258
1226.62346 0.01257
1225.33769 0.01256
1224.05192 0.01254
1222.76615 0.01250
1221.48039 0.01246
1220.19462 0.01245
1218.90885 0.01246
1217.62308 0.01248
1216.33731 0.01249
1215.05154 0.01249
1213.76577 0.01248
1212.48000 0.01246
1211.19423 0.01242
1209.90847 0.01238
1208.62270 0.01236
1207.33693 0.01237
1206.05116 0.01241
1204.76539 0.01244
1203.47962 0.01246
1202.19385 0.01247
1200.90808 0.01251
1199.62232 0.01257
1198.33655 0.01259
1197.05078 0.01259
1195.76501 0.01259
1194.47924 0.01260
1193.19347 0.01260
1191.90770 0.01256
1190.62193 0.01249
1189.33616 0.01245
1188.05040 0.01249
1186.76463 0.01257
1185.47886 0.01262
1184.19309 0.01262
1182.90732 0.01261
1181.62155 0.01266
1180.33578 0.01278
1179.05001 0.01291
1177.76425 0.01302
1176.47848 0.01309
1175.19271 0.01315
1173.90694 0.01326
1172.62117 0.01342
1171.33540 0.01362
1170.04963 0.01381
1168.76386 0.01394
1167.47809 0.01402
1166.19233 0.01410
1164.90656 0.01424
1163.62079 0.01442
1162.33502 0.01462
1161.04925 0.01482
1159.76348 0.01503
1158.47771 0.01524
1157.19194 0.01543
1155.90618 0.01562
1154.62041 0.01583
1153.33464 0.01611
1152.04887 0.01645
1150.76310 0.01683
1149.47733 0.01727
1148.19156 0.01779
1146.90579 0.01836
1145.62002 0.01892
1144.33426 0.01942
1143.04849 0.01994
1141.76272 0.02059
1140.47695 0.02137
1139.19118 0.02223
1137.90541 0.02309
1136.61964 0.02398
1135.33387 0.02492
1134.04811 0.02598
1132.76234 0.02714
1131.47657 0.02838
1130.19080 0.02969
1128.90503 0.03113
1127.61926 0.03276
1126.33349 0.03460
1125.04772 0.03659
1123.76195 0.03861
1122.47619 0.04063
1121.19042 0.04269
1119.90465 0.04486
1118.61888 0.04712
1117.33311 0.04941
1116.04734 0.05166
1114.76157 0.05383
1113.47580 0.05592
1112.19004 0.05795
1110.90427 0.05997
1109.61850 0.06200
1108.33273 0.06405
1107.04696 0.06609
1105.76119 0.06806
1104.47542 0.06994
1103.18965 0.07171
1101.90388 0.07337
1100.61812 0.07498
1099.33235 0.07660
1098.04658 0.07822
1096.76081 0.07982
1095.47504 0.08135
1094.18927 0.08277
1092.90350 0.08409
1091.61773 0.08537
1090.33197 0.08662
1089.04620 0.08782
1087.76043 0.08894
1086.47466 0.09000
1085.18889 0.09103
1083.90312 0.09208
1082.61735 0.09321
1081.33158 0.09447
1080.04581 0.09586
1078.76005 0.09731
1077.47428 0.09874
1076.18851 0.10015
1074.90274 0.10159
1073.61697 0.10315
1072.33120 0.10486
1071.04543 0.10667
1069.75966 0.10853
1068.47390 0.11045
1067.18813 0.11239
1065.90236 0.11432
1064.61659 0.11625
1063.33082 0.11820
1062.04505 0.12018
1060.75928 0.12214
1059.47351 0.12405
1058.18774 0.12592
1056.90198 0.12777
1055.61621 0.12962
1054.33044 0.13143
1053.04467 0.13319
1051.75890 0.13494
1050.47313 0.13670
1049.18736 0.13846
1047.90159 0.14024
1046.61583 0.14205
1045.33006 0.14392
1044.04429 0.14588
1042.75852 0.14787
1041.47275 0.14986
1040.18698 0.15180
1038.90121 0.15369
1037.61544 0.15550
1036.32967 0.15724
1035.04391 0.15895
1033.75814 0.16066
1032.47237 0.16231
1031.18660 0.16381
1029.90083 0.16516
1028.61506 0.16640
1027.32929 0.16753
1026.04352 0.16854
1024.75775 0.16942
1023.47199 0.17016
1022.18622 0.17071
1020.90045 0.17102
1019.61468 0.17105
1018.32891 0.17086
1017.04314 0.17048
1015.75737 0.16990
1014.47160 0.16907
1013.18584 0.16797
1011.90007 0.16665
1010.61430 0.16518
1009.32853 0.16359
1008.04276 0.16186
1006.75699 0.15994
1005.47122 0.15779
1004.18545 0.15543
1002.89968 0.15295
1001.61392 0.15037
1000.32815 0.14767
999.04238 0.14483
997.75661 0.14187
996.47084 0.13883
995.18507 0.13569
993.89930 0.13243
992.61353 0.12905
991.32777 0.12560
990.04200 0.12216
988.75623 0.11877
987.47046 0.11545
986.18469 0.11216
984.89892 0.10891
983.61315 0.10572
982.32738 0.10263
981.04161 0.09963
979.75585 0.09675
978.47008 0.09402
977.18431 0.09151
975.89854 0.08923
974.61277 0.08723
973.32700 0.08554
972.04123 0.08415
970.75546 0.08308
969.46970 0.08234
968.18393 0.08196
966.89816 0.08195
965.61239 0.08221
964.32662 0.08258
963.04085 0.08292
961.75508 0.08315
960.46931 0.08316
959.18354 0.08281
957.89778 0.08200
956.61201 0.08078
955.32624 0.07931
954.04047 0.07776
952.75470 0.07616
951.46893 0.07450
950.18316 0.07276
948.89739 0.07097
947.61163 0.06916
946.32586 0.06739
945.04009 0.06570
943.75432 0.06408
942.46855 0.06252
941.18278 0.06101
939.89701 0.05955
938.61124 0.05815
937.32547 0.05681
936.03971 0.05550
934.75394 0.05419
933.46817 0.05291
932.18240 0.05169
930.89663 0.05056
929.61086 0.04952
928.32509 0.04859
927.03932 0.04777
925.75356 0.04704
924.46779 0.04636
923.18202 0.04569
921.89625 0.04501
920.61048 0.04433
919.32471 0.04365
918.03894 0.04303
916.75317 0.04250
915.46740 0.04200
914.18164 0.04152
912.89587 0.04105
911.61010 0.04062
910.32433 0.04021
909.03856 0.03972
907.75279 0.03914
906.46702 0.03855
905.18125 0.03806
903.89549 0.03766
902.60972 0.03728
901.32395 0.03686
900.03818 0.03642
898.75241 0.03603
897.46664 0.03571
896.18087 0.03545
894.89510 0.03520
893.60933 0.03499
892.32357 0.03483
891.03780 0.03468
889.75203 0.03455
888.46626 0.03455
887.18049 0.03483
885.89472 0.03555
884.60895 0.03677
883.32318 0.03853
882.03742 0.04068
880.75165 0.04288
879.46588 0.04478
878.18011 0.04628
876.89434 0.04754
875.60857 0.04876
874.32280 0.04991
873.03703 0.05081
871.75126 0.05126
870.46550 0.05118
869.17973 0.05061
867.89396 0.04964
866.60819 0.04833
865.32242 0.04670
864.03665 0.04486
862.75088 0.04299
861.46511 0.04127
860.17935 0.03979
858.89358 0.03851
857.60781 0.03737
856.32204 0.03636
855.03627 0.03546
853.75050 0.03469
852.46473 0.03403
851.17896 0.03348
849.89319 0.03302
848.60743 0.03257
847.32166 0.03209
846.03589 0.03163
844.75012 0.03127
843.46435 0.03102
842.17858 0.03083
840.89281 0.03063
839.60704 0.03042
838.32128 0.03023
837.03551 0.03007
835.74974 0.02990
834.46397 0.02970
833.17820 0.02948
831.89243 0.02928
830.60666 0.02912
829.32089 0.02899
828.03512 0.02884
826.74936 0.02870
825.46359 0.02860
824.17782 0.02850
822.89205 0.02837
821.60628 0.02818
820.32051 0.02801
819.03474 0.02793
817.74897 0.02790
816.46321 0.02785
815.17744 0.02774
813.89167 0.02763
812.60590 0.02758
811.32013 0.02755
810.03436 0.02746
808.74859 0.02732
807.46282 0.02725
806.17705 0.02729
804.89129 0.02740
803.60552 0.02749
802.31975 0.02752
801.03398 0.02748
799.74821 0.02738
798.46244 0.02723
797.17667 0.02706
795.89090 0.02690
794.60513 0.02680
793.31937 0.02678
792.03360 0.02682
790.74783 0.02686
789.46206 0.02686
788.17629 0.02679
786.89052 0.02670
785.60475 0.02661
784.31898 0.02653
783.03322 0.02643
781.74745 0.02628
780.46168 0.02611
779.17591 0.02599
777.89014 0.02598
776.60437 0.02603
775.31860 0.02606
774.03283 0.02604
772.74706 0.02602
771.46130 0.02604
770.17553 0.02607
768.88976 0.02604
767.60399 0.02596
766.31822 0.02592
765.03245 0.02593
763.74668 0.02592
762.46091 0.02584
761.17515 0.02575
759.88938 0.02580
758.60361 0.02604
757.31784 0.02637
756.03207 0.02659
754.74630 0.02659
753.46053 0.02640
752.17476 0.02615
750.88899 0.02593
749.60323 0.02574
748.31746 0.02561
747.03169 0.02555
745.74592 0.02559
744.46015 0.02569
743.17438 0.02578
741.88861 0.02577
740.60284 0.02557
739.31708 0.02522
738.03131 0.02486
736.74554 0.02465
735.45977 0.02462
734.17400 0.02473
732.88823 0.02488
731.60246 0.02502
730.31669 0.02510
729.03092 0.02510
727.74516 0.02506
726.45939 0.02502
725.17362 0.02495
723.88785 0.02469
722.60208 0.02443
721.31631 0.02419
720.03054 0.02407
718.74477 0.02415
717.45901 0.02438
716.17324 0.02464
714.88747 0.02478
713.60170 0.02476
712.31593 0.02463
711.03016 0.02448
709.74439 0.02437
708.45862 0.02430
707.17285 0.02423
705.88709 0.02414
704.60132 0.02406
703.31555 0.02400
702.02978 0.02396
700.74401 0.02393
699.45824 0.02392
698.17247 0.02393
696.88670 0.02397
695.60094 0.02402
694.31517 0.02406
693.02940 0.02407
691.74363 0.02407
690.45786 0.02405
689.17209 0.02399
687.88632 0.02391
686.60055 0.02381
685.31478 0.02373
684.02902 0.02364
682.74325 0.02352
681.45748 0.02340
680.17171 0.02330
678.88594 0.02324
677.60017 0.02319
676.31440 0.02316
675.02863 0.02317
673.74287 0.02328
672.45710 0.02349
671.17133 0.02374
669.88556 0.02397
668.59979 0.02409
667.31402 0.02407
666.02825 0.02383
664.74248 0.02354
663.45671 0.02327
662.17095 0.02304
660.88518 0.02285
659.59941 0.02269
658.31364 0.02258
657.02787 0.02253
655.74210 0.02251
654.45633 0.02249
653.17056 0.02247
651.88480 0.02243
650.59903 0.02238
649.31326 0.02232
648.02749 0.02229
646.74172 0.02235
645.45595 0.02249
644.17018 0.02269
642.88441 0.02283
641.59864 0.02288
640.31288 0.02282
639.02711 0.02274
637.74134 0.02275
636.45557 0.02287
635.16980 0.02310
633.88403 0.02340
632.59826 0.02376
631.31249 0.02418
630.02673 0.02452
628.74096 0.02486
627.45519 0.02596
626.16942 0.02676
624.88365 0.02747
623.59788 0.02825
622.31211 0.02876
621.02634 0.02909
619.74057 0.03005
618.45481 0.03225
617.16904 0.03529
615.88327 0.03826
614.59750 0.04081
613.31173 0.04356
612.02596 0.04750
610.74019 0.05256
609.45442 0.05699
608.16866 0.05919
606.88289 0.05983
605.59712 0.06104
604.31135 0.06389
603.02558 0.06729
601.73981 0.06940
600.45404 0.06940
599.16827 0.06786
597.88250 0.06576
596.59674 0.06374
595.31097 0.06200
594.02520 0.06050
592.73943 0.05924
591.45366 0.05823
590.16789 0.05754
588.88212 0.05720
587.59635 0.05724
586.31059 0.05766
585.02482 0.05842
583.73905 0.05945
582.45328 0.06067
581.16751 0.06205
579.88174 0.06367
578.59597 0.06554
577.31020 0.06750
576.02443 0.06930
574.73867 0.07082
573.45290 0.07212
572.16713 0.07340
570.88136 0.07483
569.59559 0.07646
568.30982 0.07832
567.02405 0.08036
565.73828 0.08245
564.45251 0.08435
563.16675 0.08580
561.88098 0.08654
560.59521 0.08651
559.30944 0.08574
558.02367 0.08433
556.73790 0.08230
555.45213 0.07970
554.16636 0.07670
552.88060 0.07357
551.59483 0.07052
550.30906 0.06760
549.02329 0.06479
547.73752 0.06209
546.45175 0.05952
545.16598 0.05717
543.88021 0.05506
542.59444 0.05318
541.30868 0.05149
540.02291 0.04995
538.73714 0.04852
537.45137 0.04708
536.16560 0.04558
534.87983 0.04408
533.59406 0.04272
532.30829 0.04160
531.02253 0.04065
529.73676 0.03972
528.45099 0.03873
527.16522 0.03770
525.87945 0.03672
524.59368 0.03583
523.30791 0.03500
522.02214 0.03418
520.73637 0.03339
519.45061 0.03270
518.16484 0.03211
516.87907 0.03155
515.59330 0.03093
514.30753 0.03024
513.02176 0.02955
511.73599 0.02894
510.45022 0.02840
509.16446 0.02788
507.87869 0.02737
506.59292 0.02689
505.30715 0.02649
504.02138 0.02618
502.73561 0.02590
501.44984 0.02562
500.16407 0.02535
498.87830 0.02507
497.59254 0.02479
496.30677 0.02447
495.02100 0.02415
493.73523 0.02386
492.44946 0.02361
491.16369 0.02337
489.87792 0.02313
488.59215 0.02291
487.30639 0.02276
486.02062 0.02270
484.73485 0.02273
483.44908 0.02277
482.16331 0.02277
480.87754 0.02274
479.59177 0.02273
478.30600 0.02275
477.02023 0.02281
475.73447 0.02287
474.44870 0.02296
473.16293 0.02308
471.87716 0.02322
470.59139 0.02329
469.30562 0.02326
468.01985 0.02312
466.73408 0.02289
465.44832 0.02261
464.16255 0.02235
462.87678 0.02216
461.59101 0.02202
460.30524 0.02185
459.01947 0.02160
457.73370 0.02129
456.44793 0.02100
455.16216 0.02080
453.87640 0.02067
452.59063 0.02054
451.30486 0.02036
450.01909 0.02013
448.73332 0.01985
447.44755 0.01956
446.16178 0.01927
444.87601 0.01905
443.59025 0.01888
442.30448 0.01876
441.01871 0.01867
439.73294 0.01857
438.44717 0.01847
437.16140 0.01835
435.87563 0.01823
434.58986 0.01814
433.30409 0.01812
432.01833 0.01816
430.73256 0.01821
429.44679 0.01820
428.16102 0.01811
426.87525 0.01792
425.58948 0.01771
424.30371 0.01753
423.01794 0.01741
421.73218 0.01737
420.44641 0.01739
419.16064 0.01742
417.87487 0.01740
416.58910 0.01729
415.30333 0.01710
414.01756 0.01689
412.73179 0.01674
411.44602 0.01669
410.16026 0.01673
408.87449 0.01679
407.58872 0.01682
406.30295 0.01680
405.01718 0.01676
403.73141 0.01674
402.44564 0.01673
401.15987 0.01675
399.87411 0.01679
