3997.45528	0.05220
3996.16951	0.05292
3994.88374	0.05295
3993.59798	0.05231
3992.31221	0.05145
3991.02644	0.05072
3989.74067	0.05014
3988.45490	0.04971
3987.16913	0.04968
3985.88336	0.05031
3984.59759	0.05142
3983.31183	0.05239
3982.02606	0.05270
3980.74029	0.05243
3979.45452	0.05213
3978.16875	0.05226
3976.88298	0.05278
3975.59721	0.05318
3974.31144	0.05306
3973.02567	0.05249
3971.73991	0.05188
3970.45414	0.05147
3969.16837	0.05115
3967.88260	0.05082
3966.59683	0.05063
3965.31106	0.05080
3964.02529	0.05124
3962.73952	0.05154
3961.45376	0.05136
3960.16799	0.05075
3958.88222	0.05010
3957.59645	0.04991
3956.31068	0.05044
3955.02491	0.05144
3953.73914	0.05248
3952.45337	0.05327
3951.16760	0.05380
3949.88184	0.05410
3948.59607	0.05410
3947.31030	0.05378
3946.02453	0.05324
3944.73876	0.05265
3943.45299	0.05198
3942.16722	0.05106
3940.88145	0.04996
3939.59569	0.04915
3938.30992	0.04915
3937.02415	0.04995
3935.73838	0.05094
3934.45261	0.05151
3933.16684	0.05157
3931.88107	0.05150
3930.59530	0.05168
3929.30953	0.05212
3928.02377	0.05253
3926.73800	0.05257
3925.45223	0.05205
3924.16646	0.05116
3922.88069	0.05033
3921.59492	0.05007
3920.30915	0.05056
3919.02338	0.05146
3917.73762	0.05210
3916.45185	0.05205
3915.16608	0.05134
3913.88031	0.05030
3912.59454	0.04944
3911.30877	0.04912
3910.02300	0.04931
3908.73723	0.04975
3907.45146	0.05024
3906.16570	0.05062
3904.87993	0.05077
3903.59416	0.05045
3902.30839	0.04952
3901.02262	0.04835
3899.73685	0.04768
3898.45108	0.04795
3897.16531	0.04880
3895.87955	0.04961
3894.59378	0.05020
3893.30801	0.05065
3892.02224	0.05100
3890.73647	0.05128
3889.45070	0.05134
3888.16493	0.05096
3886.87916	0.05036
3885.59339	0.05015
3884.30763	0.05039
3883.02186	0.05055
3881.73609	0.05033
3880.45032	0.05006
3879.16455	0.04997
3877.87878	0.04976
3876.59301	0.04924
3875.30724	0.04870
3874.02148	0.04850
3872.73571	0.04853
3871.44994	0.04855
3870.16417	0.04879
3868.87840	0.04941
3867.59263	0.04972
3866.30686	0.04923
3865.02109	0.04838
3863.73532	0.04786
3862.44956	0.04789
3861.16379	0.04844
3859.87802	0.04929
3858.59225	0.04996
3857.30648	0.04989
3856.02071	0.04897
3854.73494	0.04786
3853.44917	0.04744
3852.16341	0.04771
3850.87764	0.04796
3849.59187	0.04791
3848.30610	0.04795
3847.02033	0.04846
3845.73456	0.04943
3844.44879	0.05049
3843.16302	0.05109
3841.87725	0.05085
3840.59149	0.04982
3839.30572	0.04869
3838.01995	0.04828
3836.73418	0.04872
3835.44841	0.04925
3834.16264	0.04933
3832.87687	0.04922
3831.59110	0.04938
3830.30534	0.04975
3829.01957	0.04990
3827.73380	0.04971
3826.44803	0.04957
3825.16226	0.04974
3823.87649	0.04986
3822.59072	0.04961
3821.30495	0.04937
3820.01918	0.04951
3818.73342	0.04962
3817.44765	0.04928
3816.16188	0.04896
3814.87611	0.04913
3813.59034	0.04936
3812.30457	0.04936
3811.01880	0.04947
3809.73303	0.04975
3808.44726	0.04971
3807.16150	0.04933
3805.87573	0.04906
3804.58996	0.04890
3803.30419	0.04849
3802.01842	0.04803
3800.73265	0.04800
3799.44688	0.04821
3798.16111	0.04810
3796.87535	0.04776
3795.58958	0.04756
3794.30381	0.04750
3793.01804	0.04751
3791.73227	0.04776
3790.44650	0.04825
3789.16073	0.04853
3787.87496	0.04813
3786.58919	0.04714
3785.30343	0.04613
3784.01766	0.04564
3782.73189	0.04576
3781.44612	0.04622
3780.16035	0.04677
3778.87458	0.04723
3777.58881	0.04731
3776.30304	0.04685
3775.01728	0.04621
3773.73151	0.04596
3772.44574	0.04624
3771.15997	0.04677
3769.87420	0.04731
3768.58843	0.04771
3767.30266	0.04781
3766.01689	0.04773
3764.73112	0.04769
3763.44536	0.04769
3762.15959	0.04742
3760.87382	0.04684
3759.58805	0.04617
3758.30228	0.04571
3757.01651	0.04569
3755.73074	0.04604
3754.44497	0.04628
3753.15921	0.04612
3751.87344	0.04585
3750.58767	0.04585
3749.30190	0.04631
3748.01613	0.04698
3746.73036	0.04698
3745.44459	0.04614
3744.15882	0.04550
3742.87305	0.04548
3741.58729	0.04533
3740.30152	0.04470
3739.01575	0.04393
3737.72998	0.04340
3736.44421	0.04346
3735.15844	0.04417
3733.87267	0.04494
3732.58690	0.04526
3731.30114	0.04526
3730.01537	0.04520
3728.72960	0.04502
3727.44383	0.04480
3726.15806	0.04487
3724.87229	0.04524
3723.58652	0.04551
3722.30075	0.04533
3721.01498	0.04473
3719.72922	0.04412
3718.44345	0.04409
3717.15768	0.04481
3715.87191	0.04567
3714.58614	0.04580
3713.30037	0.04510
3712.01460	0.04433
3710.72883	0.04412
3709.44307	0.04434
3708.15730	0.04455
3706.87153	0.04448
3705.58576	0.04409
3704.29999	0.04350
3703.01422	0.04307
3701.72845	0.04322
3700.44268	0.04396
3699.15691	0.04477
3697.87115	0.04510
3696.58538	0.04489
3695.29961	0.04437
3694.01384	0.04382
3692.72807	0.04366
3691.44230	0.04413
3690.15653	0.04503
3688.87076	0.04615
3687.58500	0.04712
3686.29923	0.04729
3685.01346	0.04645
3683.72769	0.04531
3682.44192	0.04473
3681.15615	0.04487
3679.87038	0.04538
3678.58461	0.04587
3677.29884	0.04605
3676.01308	0.04605
3674.72731	0.04611
3673.44154	0.04602
3672.15577	0.04553
3670.87000	0.04509
3669.58423	0.04512
3668.29846	0.04528
3667.01269	0.04523
3665.72693	0.04522
3664.44116	0.04551
3663.15539	0.04600
3661.86962	0.04652
3660.58385	0.04700
3659.29808	0.04726
3658.01231	0.04713
3656.72654	0.04692
3655.44077	0.04712
3654.15501	0.04765
3652.86924	0.04790
3651.58347	0.04748
3650.29770	0.04664
3649.01193	0.04590
3647.72616	0.04564
3646.44039	0.04593
3645.15462	0.04653
3643.86886	0.04711
3642.58309	0.04749
3641.29732	0.04763
3640.01155	0.04759
3638.72578	0.04746
3637.44001	0.04743
3636.15424	0.04757
3634.86847	0.04783
3633.58270	0.04815
3632.29694	0.04832
3631.01117	0.04818
3629.72540	0.04810
3628.43963	0.04861
3627.15386	0.04963
3625.86809	0.05048
3624.58232	0.05096
3623.29655	0.05123
3622.01079	0.05135
3620.72502	0.05127
3619.43925	0.05120
3618.15348	0.05138
3616.86771	0.05176
3615.58194	0.05211
3614.29617	0.05240
3613.01040	0.05278
3611.72463	0.05331
3610.43887	0.05375
3609.15310	0.05395
3607.86733	0.05394
3606.58156	0.05381
3605.29579	0.05365
3604.01002	0.05368
3602.72425	0.05415
3601.43848	0.05514
3600.15272	0.05638
3598.86695	0.05730
3597.58118	0.05750
3596.29541	0.05714
3595.00964	0.05682
3593.72387	0.05693
3592.43810	0.05742
3591.15233	0.05795
3589.86656	0.05829
3588.58080	0.05855
3587.29503	0.05880
3586.00926	0.05885
3584.72349	0.05859
3583.43772	0.05828
3582.15195	0.05829
3580.86618	0.05862
3579.58041	0.05914
3578.29464	0.05986
3577.00888	0.06092
3575.72311	0.06214
3574.43734	0.06292
3573.15157	0.06277
3571.86580	0.06183
3570.58003	0.06080
3569.29426	0.06038
3568.00849	0.06083
3566.72273	0.06184
3565.43696	0.06284
3564.15119	0.06341
3562.86542	0.06350
3561.57965	0.06326
3560.29388	0.06287
3559.00811	0.06259
3557.72234	0.06270
3556.43657	0.06328
3555.15081	0.06405
3553.86504	0.06462
3552.57927	0.06471
3551.29350	0.06439
3550.00773	0.06403
3548.72196	0.06409
3547.43619	0.06489
3546.15042	0.06631
3544.86466	0.06786
3543.57889	0.06898
3542.29312	0.06942
3541.00735	0.06929
3539.72158	0.06890
3538.43581	0.06857
3537.15004	0.06845
3535.86427	0.06858
3534.57850	0.06897
3533.29274	0.06958
3532.00697	0.07024
3530.72120	0.07064
3529.43543	0.07064
3528.14966	0.07043
3526.86389	0.07038
3525.57812	0.07063
3524.29235	0.07101
3523.00659	0.07132
3521.72082	0.07158
3520.43505	0.07191
3519.14928	0.07245
3517.86351	0.07325
3516.57774	0.07416
3515.29197	0.07491
3514.00620	0.07527
3512.72043	0.07519
3511.43467	0.07475
3510.14890	0.07411
3508.86313	0.07361
3507.57736	0.07364
3506.29159	0.07428
3505.00582	0.07516
3503.72005	0.07585
3502.43428	0.07618
3501.14852	0.07628
3499.86275	0.07626
3498.57698	0.07605
3497.29121	0.07564
3496.00544	0.07526
3494.71967	0.07524
3493.43390	0.07574
3492.14813	0.07654
3490.86236	0.07726
3489.57660	0.07761
3488.29083	0.07760
3487.00506	0.07747
3485.71929	0.07750
3484.43352	0.07785
3483.14775	0.07845
3481.86198	0.07907
3480.57621	0.07949
3479.29045	0.07963
3478.00468	0.07959
3476.71891	0.07960
3475.43314	0.07981
3474.14737	0.08015
3472.86160	0.08043
3471.57583	0.08053
3470.29006	0.08045
3469.00429	0.08035
3467.71853	0.08046
3466.43276	0.08095
3465.14699	0.08174
3463.86122	0.08250
3462.57545	0.08297
3461.28968	0.08322
3460.00391	0.08343
3458.71814	0.08362
3457.43238	0.08368
3456.14661	0.08354
3454.86084	0.08332
3453.57507	0.08326
3452.28930	0.08353
3451.00353	0.08404
3449.71776	0.08445
3448.43199	0.08452
3447.14622	0.08435
3445.86046	0.08425
3444.57469	0.08440
3443.28892	0.08468
3442.00315	0.08481
3440.71738	0.08468
3439.43161	0.08441
3438.14584	0.08436
3436.86007	0.08484
3435.57431	0.08582
3434.28854	0.08684
3433.00277	0.08743
3431.71700	0.08750
3430.43123	0.08736
3429.14546	0.08737
3427.85969	0.08757
3426.57392	0.08773
3425.28815	0.08774
3424.00239	0.08771
3422.71662	0.08781
3421.43085	0.08801
3420.14508	0.08818
3418.85931	0.08831
3417.57354	0.08851
3416.28777	0.08878
3415.00200	0.08897
3413.71624	0.08885
3412.43047	0.08844
3411.14470	0.08803
3409.85893	0.08796
3408.57316	0.08840
3407.28739	0.08924
3406.00162	0.09024
3404.71585	0.09118
3403.43008	0.09197
3402.14432	0.09256
3400.85855	0.09289
3399.57278	0.09286
3398.28701	0.09242
3397.00124	0.09179
3395.71547	0.09141
3394.42970	0.09151
3393.14393	0.09192
3391.85817	0.09221
3390.57240	0.09211
3389.28663	0.09166
3388.00086	0.09112
3386.71509	0.09078
3385.42932	0.09073
3384.14355	0.09091
3382.85778	0.09121
3381.57201	0.09152
3380.28625	0.09186
3379.00048	0.09231
3377.71471	0.09294
3376.42894	0.09363
3375.14317	0.09407
3373.85740	0.09408
3372.57163	0.09377
3371.28586	0.09349
3370.00010	0.09353
3368.71433	0.09394
3367.42856	0.09455
3366.14279	0.09502
3364.85702	0.09500
3363.57125	0.09440
3362.28548	0.09352
3360.99971	0.09283
3359.71394	0.09268
3358.42818	0.09303
3357.14241	0.09359
3355.85664	0.09410
3354.57087	0.09443
3353.28510	0.09454
3351.99933	0.09440
3350.71356	0.09408
3349.42779	0.09374
3348.14202	0.09355
3346.85626	0.09350
3345.57049	0.09350
3344.28472	0.09351
3342.99895	0.09349
3341.71318	0.09341
3340.42741	0.09320
3339.14164	0.09291
3337.85587	0.09269
3336.57011	0.09270
3335.28434	0.09295
3333.99857	0.09326
3332.71280	0.09350
3331.42703	0.09368
3330.14126	0.09394
3328.85549	0.09434
3327.56972	0.09475
3326.28395	0.09497
3324.99819	0.09498
3323.71242	0.09490
3322.42665	0.09482
3321.14088	0.09471
3319.85511	0.09448
3318.56934	0.09422
3317.28357	0.09417
3315.99780	0.09453
3314.71204	0.09521
3313.42627	0.09586
3312.14050	0.09622
3310.85473	0.09625
3309.56896	0.09602
3308.28319	0.09559
3306.99742	0.09506
3305.71165	0.09457
3304.42588	0.09427
3303.14012	0.09417
3301.85435	0.09417
3300.56858	0.09421
3299.28281	0.09426
3297.99704	0.09422
3296.71127	0.09394
3295.42550	0.09348
3294.13973	0.09313
3292.85397	0.09316
3291.56820	0.09349
3290.28243	0.09373
3288.99666	0.09369
3287.71089	0.09354
3286.42512	0.09349
3285.13935	0.09355
3283.85358	0.09356
3282.56781	0.09353
3281.28205	0.09354
3279.99628	0.09360
3278.71051	0.09363
3277.42474	0.09362
3276.13897	0.09360
3274.85320	0.09352
3273.56743	0.09333
3272.28166	0.09310
3270.99590	0.09305
3269.71013	0.09332
3268.42436	0.09382
3267.13859	0.09426
3265.85282	0.09444
3264.56705	0.09443
3263.28128	0.09440
3261.99551	0.09438
3260.70974	0.09420
3259.42398	0.09370
3258.13821	0.09298
3256.85244	0.09233
3255.56667	0.09203
3254.28090	0.09212
3252.99513	0.09242
3251.70936	0.09264
3250.42359	0.09261
3249.13783	0.09233
3247.85206	0.09185
3246.56629	0.09128
3245.28052	0.09077
3243.99475	0.09052
3242.70898	0.09063
3241.42321	0.09100
3240.13744	0.09133
3238.85167	0.09142
3237.56591	0.09128
3236.28014	0.09108
3234.99437	0.09088
3233.70860	0.09065
3232.42283	0.09041
3231.13706	0.09036
3229.85129	0.09062
3228.56552	0.09103
3227.27976	0.09126
3225.99399	0.09108
3224.70822	0.09060
3223.42245	0.09016
3222.13668	0.09004
3220.85091	0.09018
3219.56514	0.09027
3218.27937	0.09008
3216.99360	0.08967
3215.70784	0.08934
3214.42207	0.08934
3213.13630	0.08957
3211.85053	0.08977
3210.56476	0.08971
3209.27899	0.08952
3207.99322	0.08947
3206.70745	0.08971
3205.42169	0.08997
3204.13592	0.08981
3202.85015	0.08903
3201.56438	0.08792
3200.27861	0.08695
3198.99284	0.08640
3197.70707	0.08626
3196.42130	0.08641
3195.13553	0.08676
3193.84977	0.08717
3192.56400	0.08747
3191.27823	0.08754
3189.99246	0.08743
3188.70669	0.08727
3187.42092	0.08723
3186.13515	0.08725
3184.84938	0.08712
3183.56362	0.08669
3182.27785	0.08608
3180.99208	0.08561
3179.70631	0.08545
3178.42054	0.08548
3177.13477	0.08546
3175.84900	0.08528
3174.56323	0.08496
3173.27746	0.08457
3171.99170	0.08416
3170.70593	0.08377
3169.42016	0.08351
3168.13439	0.08332
3166.84862	0.08309
3165.56285	0.08277
3164.27708	0.08255
3162.99131	0.08262
3161.70555	0.08289
3160.41978	0.08308
3159.13401	0.08299
3157.84824	0.08272
3156.56247	0.08250
3155.27670	0.08240
3153.99093	0.08219
3152.70516	0.08161
3151.41939	0.08080
3150.13363	0.08019
3148.84786	0.08014
3147.56209	0.08060
3146.27632	0.08124
3144.99055	0.08175
3143.70478	0.08197
3142.41901	0.08178
3141.13324	0.08118
3139.84748	0.08038
3138.56171	0.07973
3137.27594	0.07944
3135.99017	0.07949
3134.70440	0.07976
3133.41863	0.08017
3132.13286	0.08055
3130.84709	0.08066
3129.56132	0.08044
3128.27556	0.08010
3126.98979	0.07994
3125.70402	0.08003
3124.41825	0.08016
3123.13248	0.08008
3121.84671	0.07976
3120.56094	0.07933
3119.27517	0.07891
3117.98940	0.07850
3116.70364	0.07804
3115.41787	0.07762
3114.13210	0.07746
3112.84633	0.07768
3111.56056	0.07813
3110.27479	0.07844
3108.98902	0.07829
3107.70325	0.07767
3106.41749	0.07684
3105.13172	0.07621
3103.84595	0.07604
3102.56018	0.07629
3101.27441	0.07671
3099.98864	0.07701
3098.70287	0.07714
3097.41710	0.07723
3096.13133	0.07735
3094.84557	0.07748
3093.55980	0.07753
3092.27403	0.07746
3090.98826	0.07735
3089.70249	0.07732
3088.41672	0.07747
3087.13095	0.07778
3085.84518	0.07811
3084.55942	0.07823
3083.27365	0.07803
3081.98788	0.07758
3080.70211	0.07706
3079.41634	0.07664
3078.13057	0.07646
3076.84480	0.07658
3075.55903	0.07692
3074.27326	0.07721
3072.98750	0.07719
3071.70173	0.07692
3070.41596	0.07660
3069.13019	0.07638
3067.84442	0.07615
3066.55865	0.07583
3065.27288	0.07547
3063.98711	0.07524
3062.70135	0.07521
3061.41558	0.07532
3060.12981	0.07540
3058.84404	0.07527
3057.55827	0.07494
3056.27250	0.07455
3054.98673	0.07427
3053.70096	0.07417
3052.41519	0.07419
3051.12943	0.07422
3049.84366	0.07419
3048.55789	0.07411
3047.27212	0.07397
3045.98635	0.07378
3044.70058	0.07351
3043.41481	0.07313
3042.12904	0.07268
3040.84328	0.07228
3039.55751	0.07208
3038.27174	0.07212
3036.98597	0.07228
3035.70020	0.07236
3034.41443	0.07228
3033.12866	0.07210
3031.84289	0.07187
3030.55712	0.07166
3029.27136	0.07151
3027.98559	0.07147
3026.69982	0.07151
3025.41405	0.07145
3024.12828	0.07117
3022.84251	0.07069
3021.55674	0.07026
3020.27097	0.07007
3018.98521	0.07015
3017.69944	0.07030
3016.41367	0.07033
3015.12790	0.07018
3013.84213	0.06991
3012.55636	0.06958
3011.27059	0.06923
3009.98482	0.06887
3008.69905	0.06852
3007.41329	0.06827
3006.12752	0.06818
3004.84175	0.06829
3003.55598	0.06854
3002.27021	0.06879
3000.98444	0.06889
2999.69867	0.06886
2998.41290	0.06870
2997.12714	0.06858
2995.84137	0.06857
2994.55560	0.06865
2993.26983	0.06869
2991.98406	0.06859
2990.69829	0.06835
2989.41252	0.06812
2988.12675	0.06805
2986.84098	0.06813
2985.55522	0.06821
2984.26945	0.06816
2982.98368	0.06800
2981.69791	0.06787
2980.41214	0.06791
2979.12637	0.06813
2977.84060	0.06835
2976.55483	0.06835
2975.26907	0.06814
2973.98330	0.06796
2972.69753	0.06806
2971.41176	0.06848
2970.12599	0.06911
2968.84022	0.06975
2967.55445	0.07037
2966.26868	0.07100
2964.98291	0.07166
2963.69715	0.07221
2962.41138	0.07250
2961.12561	0.07253
2959.83984	0.07249
2958.55407	0.07250
2957.26830	0.07266
2955.98253	0.07301
2954.69676	0.07359
2953.41100	0.07420
2952.12523	0.07454
2950.83946	0.07449
2949.55369	0.07423
2948.26792	0.07400
2946.98215	0.07381
2945.69638	0.07358
2944.41061	0.07335
2943.12484	0.07323
2941.83908	0.07322
2940.55331	0.07319
2939.26754	0.07311
2937.98177	0.07312
2936.69600	0.07331
2935.41023	0.07351
2934.12446	0.07350
2932.83869	0.07320
2931.55293	0.07267
2930.26716	0.07194
2928.98139	0.07102
2927.69562	0.07002
2926.40985	0.06909
2925.12408	0.06826
2923.83831	0.06740
2922.55254	0.06635
2921.26677	0.06510
2919.98101	0.06386
2918.69524	0.06294
2917.40947	0.06255
2916.12370	0.06275
2914.83793	0.06347
2913.55216	0.06448
2912.26639	0.06555
2910.98062	0.06658
2909.69486	0.06755
2908.40909	0.06842
2907.12332	0.06907
2905.83755	0.06942
2904.55178	0.06946
2903.26601	0.06920
2901.98024	0.06880
2900.69447	0.06850
2899.40870	0.06845
2898.12294	0.06859
2896.83717	0.06872
2895.55140	0.06871
2894.26563	0.06852
2892.97986	0.06821
2891.69409	0.06785
2890.40832	0.06751
2889.12255	0.06719
2887.83678	0.06687
2886.55102	0.06656
2885.26525	0.06638
2883.97948	0.06645
2882.69371	0.06669
2881.40794	0.06685
2880.12217	0.06679
2878.83640	0.06661
2877.55063	0.06663
2876.26487	0.06695
2874.97910	0.06741
2873.69333	0.06779
2872.40756	0.06796
2871.12179	0.06789
2869.83602	0.06762
2868.55025	0.06724
2867.26448	0.06686
2865.97871	0.06654
2864.69295	0.06626
2863.40718	0.06594
2862.12141	0.06551
2860.83564	0.06493
2859.54987	0.06424
2858.26410	0.06344
2856.97833	0.06244
2855.69256	0.06119
2854.40680	0.05987
2853.12103	0.05875
2851.83526	0.05802
2850.54949	0.05769
2849.26372	0.05776
2847.97795	0.05823
2846.69218	0.05903
2845.40641	0.05994
2844.12064	0.06074
2842.83488	0.06128
2841.54911	0.06151
2840.26334	0.06151
2838.97757	0.06141
2837.69180	0.06131
2836.40603	0.06120
2835.12026	0.06099
2833.83449	0.06058
2832.54873	0.05999
2831.26296	0.05935
2829.97719	0.05885
2828.69142	0.05858
2827.40565	0.05845
2826.11988	0.05833
2824.83411	0.05821
2823.54834	0.05821
2822.26257	0.05832
2820.97681	0.05839
2819.69104	0.05824
2818.40527	0.05791
2817.11950	0.05750
2815.83373	0.05714
2814.54796	0.05693
2813.26219	0.05694
2811.97642	0.05713
2810.69066	0.05738
2809.40489	0.05754
2808.11912	0.05754
2806.83335	0.05738
2805.54758	0.05712
2804.26181	0.05679
2802.97604	0.05643
2801.69027	0.05608
2800.40450	0.05578
2799.11874	0.05556
2797.83297	0.05536
2796.54720	0.05517
2795.26143	0.05507
2793.97566	0.05515
2792.68989	0.05536
2791.40412	0.05550
2790.11835	0.05548
2788.83259	0.05535
2787.54682	0.05517
2786.26105	0.05491
2784.97528	0.05452
2783.68951	0.05411
2782.40374	0.05383
2781.11797	0.05381
2779.83220	0.05401
2778.54643	0.05435
2777.26067	0.05470
2775.97490	0.05494
2774.68913	0.05495
2773.40336	0.05470
2772.11759	0.05430
2770.83182	0.05390
2769.54605	0.05358
2768.26028	0.05329
2766.97452	0.05305
2765.68875	0.05294
2764.40298	0.05306
2763.11721	0.05327
2761.83144	0.05333
2760.54567	0.05311
2759.25990	0.05269
2757.97413	0.05234
2756.68836	0.05223
2755.40260	0.05235
2754.11683	0.05257
2752.83106	0.05268
2751.54529	0.05259
2750.25952	0.05236
2748.97375	0.05211
2747.68798	0.05193
2746.40221	0.05185
2745.11645	0.05181
2743.83068	0.05178
2742.54491	0.05172
2741.25914	0.05158
2739.97337	0.05135
2738.68760	0.05106
2737.40183	0.05081
2736.11606	0.05066
2734.83029	0.05063
2733.54453	0.05067
2732.25876	0.05075
2730.97299	0.05082
2729.68722	0.05090
2728.40145	0.05102
2727.11568	0.05117
2725.82991	0.05125
2724.54414	0.05113
2723.25838	0.05081
2721.97261	0.05038
2720.68684	0.05004
2719.40107	0.04989
2718.11530	0.04988
2716.82953	0.04987
2715.54376	0.04977
2714.25799	0.04963
2712.97222	0.04959
2711.68646	0.04965
2710.40069	0.04973
2709.11492	0.04974
2707.82915	0.04964
2706.54338	0.04942
2705.25761	0.04913
2703.97184	0.04882
2702.68607	0.04858
2701.40031	0.04841
2700.11454	0.04833
2698.82877	0.04833
2697.54300	0.04838
2696.25723	0.04842
2694.97146	0.04843
2693.68569	0.04841
2692.39992	0.04838
2691.11415	0.04841
2689.82839	0.04851
2688.54262	0.04861
2687.25685	0.04858
2685.97108	0.04838
2684.68531	0.04814
2683.39954	0.04802
2682.11377	0.04806
2680.82800	0.04813
2679.54224	0.04811
2678.25647	0.04802
2676.97070	0.04796
2675.68493	0.04798
2674.39916	0.04801
2673.11339	0.04793
2671.82762	0.04768
2670.54185	0.04733
2669.25608	0.04706
2667.97032	0.04703
2666.68455	0.04722
2665.39878	0.04748
2664.11301	0.04764
2662.82724	0.04763
2661.54147	0.04741
2660.25570	0.04707
2658.96993	0.04676
2657.68417	0.04658
2656.39840	0.04654
2655.11263	0.04657
2653.82686	0.04659
2652.54109	0.04644
2651.25532	0.04604
2649.96955	0.04549
2648.68378	0.04504
2647.39801	0.04481
2646.11225	0.04472
2644.82648	0.04467
2643.54071	0.04468
2642.25494	0.04472
2640.96917	0.04466
2639.68340	0.04432
2638.39763	0.04377
2637.11186	0.04324
2635.82609	0.04292
2634.54033	0.04283
2633.25456	0.04285
2631.96879	0.04292
2630.68302	0.04299
2629.39725	0.04301
2628.11148	0.04289
2626.82571	0.04260
2625.53994	0.04223
2624.25418	0.04193
2622.96841	0.04172
2621.68264	0.04153
2620.39687	0.04128
2619.11110	0.04104
2617.82533	0.04094
2616.53956	0.04101
2615.25379	0.04114
2613.96802	0.04116
2612.68226	0.04099
2611.39649	0.04068
2610.11072	0.04031
2608.82495	0.03998
2607.53918	0.03983
2606.25341	0.03995
2604.96764	0.04031
2603.68187	0.04066
2602.39611	0.04074
2601.11034	0.04050
2599.82457	0.04016
2598.53880	0.03999
2597.25303	0.04009
2595.96726	0.04029
2594.68149	0.04027
2593.39572	0.03987
2592.10995	0.03932
2590.82419	0.03899
2589.53842	0.03898
2588.25265	0.03905
2586.96688	0.03891
2585.68111	0.03862
2584.39534	0.03844
2583.10957	0.03850
2581.82380	0.03864
2580.53804	0.03863
2579.25227	0.03842
2577.96650	0.03820
2576.68073	0.03822
2575.39496	0.03853
2574.10919	0.03889
2572.82342	0.03904
2571.53765	0.03892
2570.25188	0.03865
2568.96612	0.03831
2567.68035	0.03796
2566.39458	0.03763
2565.10881	0.03738
2563.82304	0.03718
2562.53727	0.03697
2561.25150	0.03680
2559.96573	0.03670
2558.67997	0.03666
2557.39420	0.03664
2556.10843	0.03670
2554.82266	0.03687
2553.53689	0.03710
2552.25112	0.03721
2550.96535	0.03706
2549.67958	0.03669
2548.39381	0.03622
2547.10805	0.03584
2545.82228	0.03563
2544.53651	0.03559
2543.25074	0.03563
2541.96497	0.03565
2540.67920	0.03566
2539.39343	0.03576
2538.10766	0.03596
2536.82190	0.03611
2535.53613	0.03609
2534.25036	0.03595
2532.96459	0.03584
2531.67882	0.03583
2530.39305	0.03595
2529.10728	0.03625
2527.82151	0.03671
2526.53574	0.03714
2525.24998	0.03727
2523.96421	0.03703
2522.67844	0.03661
2521.39267	0.03624
2520.10690	0.03596
2518.82113	0.03572
2517.53536	0.03551
2516.24959	0.03540
2514.96383	0.03545
2513.67806	0.03569
2512.39229	0.03602
2511.10652	0.03627
2509.82075	0.03633
2508.53498	0.03623
2507.24921	0.03607
2505.96344	0.03589
2504.67767	0.03562
2503.39191	0.03525
2502.10614	0.03492
2500.82037	0.03478
2499.53460	0.03486
2498.24883	0.03504
2496.96306	0.03510
2495.67729	0.03498
2494.39152	0.03482
2493.10576	0.03474
2491.81999	0.03483
2490.53422	0.03507
2489.24845	0.03538
2487.96268	0.03565
2486.67691	0.03583
2485.39114	0.03591
2484.10537	0.03582
2482.81960	0.03548
2481.53384	0.03492
2480.24807	0.03431
2478.96230	0.03387
2477.67653	0.03377
2476.39076	0.03401
2475.10499	0.03439
2473.81922	0.03460
2472.53345	0.03453
2471.24769	0.03435
2469.96192	0.03427
2468.67615	0.03435
2467.39038	0.03446
2466.10461	0.03453
2464.81884	0.03453
2463.53307	0.03453
2462.24730	0.03458
2460.96153	0.03471
2459.67577	0.03481
2458.39000	0.03471
2457.10423	0.03440
2455.81846	0.03406
2454.53269	0.03384
2453.24692	0.03372
2451.96115	0.03356
2450.67538	0.03343
2449.38962	0.03355
2448.10385	0.03394
2446.81808	0.03427
2445.53231	0.03428
2444.24654	0.03396
2442.96077	0.03354
2441.67500	0.03314
2440.38923	0.03279
2439.10346	0.03252
2437.81770	0.03243
2436.53193	0.03260
2435.24616	0.03298
2433.96039	0.03330
2432.67462	0.03337
2431.38885	0.03320
2430.10308	0.03300
2428.81731	0.03292
2427.53155	0.03293
2426.24578	0.03294
2424.96001	0.03292
2423.67424	0.03292
2422.38847	0.03303
2421.10270	0.03330
2419.81693	0.03362
2418.53116	0.03374
2417.24539	0.03351
2415.95963	0.03312
2414.67386	0.03285
2413.38809	0.03279
2412.10232	0.03280
2410.81655	0.03274
2409.53078	0.03259
2408.24501	0.03240
2406.95924	0.03229
2405.67347	0.03237
2404.38771	0.03260
2403.10194	0.03281
2401.81617	0.03288
2400.53040	0.03287
2399.24463	0.03284
2397.95886	0.03307
2396.67309	0.03332
2395.38732	0.03343
2394.10156	0.03333
2392.81579	0.03311
2391.53002	0.03296
2390.24425	0.03300
2388.95848	0.03321
2387.67271	0.03343
2386.38694	0.03354
2385.10117	0.03350
2383.81540	0.03334
2382.52964	0.03311
2381.24387	0.03289
2379.95810	0.03285
2378.67233	0.03308
2377.38656	0.03355
2376.10079	0.03411
2374.81502	0.03461
2373.52925	0.03501
2372.24349	0.03540
2370.95772	0.03601
2369.67195	0.03682
2368.38618	0.03774
2367.10041	0.03858
2365.81464	0.03923
2364.52887	0.03951
2363.24310	0.03959
2361.95733	0.03967
2360.67157	0.03986
2359.38580	0.03991
2358.10003	0.03980
2356.81426	0.03959
2355.52849	0.03929
2354.24272	0.03883
2352.95695	0.03810
2351.67118	0.03725
2350.38542	0.03650
2349.09965	0.03587
2347.81388	0.03537
2346.52811	0.03536
2345.24234	0.03578
2343.95657	0.03622
2342.67080	0.03647
2341.38503	0.03692
2340.09926	0.03762
2338.81350	0.03786
2337.52773	0.03747
2336.24196	0.03721
2334.95619	0.03727
2333.67042	0.03713
2332.38465	0.03684
2331.09888	0.03730
2329.81311	0.03789
2328.52735	0.03779
2327.24158	0.03816
2325.95581	0.03853
2324.67004	0.03781
2323.38427	0.03705
2322.09850	0.03659
2320.81273	0.03562
2319.52696	0.03511
2318.24119	0.03497
2316.95543	0.03449
2315.66966	0.03418
2314.38389	0.03378
2313.09812	0.03298
2311.81235	0.03235
2310.52658	0.03177
2309.24081	0.03148
2307.95504	0.03158
2306.66928	0.03164
2305.38351	0.03165
2304.09774	0.03151
2302.81197	0.03130
2301.52620	0.03121
2300.24043	0.03107
2298.95466	0.03083
2297.66889	0.03041
2296.38312	0.03001
2295.09736	0.02980
2293.81159	0.02982
2292.52582	0.02997
2291.24005	0.03005
2289.95428	0.02991
2288.66851	0.02953
2287.38274	0.02903
2286.09697	0.02867
2284.81121	0.02858
2283.52544	0.02864
2282.23967	0.02864
2280.95390	0.02846
2279.66813	0.02812
2278.38236	0.02768
2277.09659	0.02720
2275.81082	0.02680
2274.52505	0.02659
2273.23929	0.02657
2271.95352	0.02655
2270.66775	0.02635
2269.38198	0.02591
2268.09621	0.02534
2266.81044	0.02482
2265.52467	0.02459
2264.23890	0.02479
2262.95314	0.02536
2261.66737	0.02594
2260.38160	0.02610
2259.09583	0.02568
2257.81006	0.02491
2256.52429	0.02408
2255.23852	0.02336
2253.95275	0.02287
2252.66698	0.02277
2251.38122	0.02312
2250.09545	0.02366
2248.80968	0.02385
2247.52391	0.02374
2246.23814	0.02305
2244.95237	0.02213
2243.66660	0.02143
2242.38083	0.02115
2241.09507	0.02118
2239.80930	0.02141
2238.52353	0.02179
2237.23776	0.02222
2235.95199	0.02240
2234.66622	0.02219
2233.38045	0.02170
2232.09468	0.02119
2230.80891	0.02071
2229.52315	0.02026
2228.23738	0.01998
2226.95161	0.02003
2225.66584	0.02009
2224.38007	0.01969
2223.09430	0.01884
2221.80853	0.01819
2220.52276	0.01819
2219.23700	0.01858
2217.95123	0.01885
2216.66546	0.01888
2215.37969	0.01889
2214.09392	0.01893
2212.80815	0.01882
2211.52238	0.01855
2210.23661	0.01842
2208.95084	0.01866
2207.66508	0.01904
2206.37931	0.01904
2205.09354	0.01851
2203.80777	0.01791
2202.52200	0.01784
2201.23623	0.01839
2199.95046	0.01909
2198.66469	0.01940
2197.37893	0.01903
2196.09316	0.01801
2194.80739	0.01668
2193.52162	0.01557
2192.23585	0.01512
2190.95008	0.01533
2189.66431	0.01577
2188.37854	0.01605
2187.09277	0.01613
2185.80701	0.01618
2184.52124	0.01624
2183.23547	0.01608
2181.94970	0.01560
2180.66393	0.01500
2179.37816	0.01450
2178.09239	0.01412
2176.80662	0.01381
2175.52085	0.01383
2174.23509	0.01445
2172.94932	0.01550
2171.66355	0.01644
2170.37778	0.01691
2169.09201	0.01696
2167.80624	0.01668
2166.52047	0.01599
2165.23470	0.01484
2163.94894	0.01336
2162.66317	0.01167
2161.37740	0.00990
2160.09163	0.00858
2158.80586	0.00854
2157.52009	0.00990
2156.23432	0.01157
2154.94855	0.01240
2153.66278	0.01231
2152.37702	0.01211
2151.09125	0.01247
2149.80548	0.01340
2148.51971	0.01460
2147.23394	0.01584
2145.94817	0.01693
2144.66240	0.01759
2143.37663	0.01759
2142.09087	0.01710
2140.80510	0.01665
2139.51933	0.01666
2138.23356	0.01704
2136.94779	0.01733
2135.66202	0.01722
2134.37625	0.01686
2133.09048	0.01661
2131.80471	0.01671
2130.51895	0.01721
2129.23318	0.01787
2127.94741	0.01826
2126.66164	0.01810
2125.37587	0.01751
2124.09010	0.01698
2122.80433	0.01699
2121.51856	0.01757
2120.23280	0.01841
2118.94703	0.01909
2117.66126	0.01941
2116.37549	0.01939
2115.08972	0.01914
2113.80395	0.01871
2112.51818	0.01811
2111.23241	0.01748
2109.94664	0.01701
2108.66088	0.01687
2107.37511	0.01699
2106.08934	0.01721
2104.80357	0.01743
2103.51780	0.01756
2102.23203	0.01739
2100.94626	0.01669
2099.66049	0.01601
2098.37473	0.01531
2097.08896	0.01501
2095.80319	0.01517
2094.51742	0.01543
2093.23165	0.01565
2091.94588	0.01589
2090.66011	0.01618
2089.37434	0.01644
2088.08857	0.01661
2086.80281	0.01680
2085.51704	0.01707
2084.23127	0.01726
2082.94550	0.01712
2081.65973	0.01660
2080.37396	0.01594
2079.08819	0.01542
2077.80242	0.01520
2076.51666	0.01524
2075.23089	0.01550
2073.94512	0.01587
2072.65935	0.01613
2071.37358	0.01613
2070.08781	0.01592
2068.80204	0.01575
2067.51627	0.01575
2066.23050	0.01583
2064.94474	0.01581
2063.65897	0.01558
2062.37320	0.01518
2061.08743	0.01470
2059.80166	0.01423
2058.51589	0.01373
2057.23012	0.01306
2055.94435	0.01214
2054.65859	0.01107
2053.37282	0.01003
2052.08705	0.00926
2050.80128	0.00896
2049.51551	0.00910
2048.22974	0.00931
2046.94397	0.00924
2045.65820	0.00904
2044.37243	0.00909
2043.08667	0.00939
2041.80090	0.00951
2040.51513	0.00911
2039.22936	0.00824
2037.94359	0.00721
2036.65782	0.00630
2035.37205	0.00583
2034.08628	0.00607
2032.80052	0.00699
2031.51475	0.00823
2030.22898	0.00933
2028.94321	0.01006
2027.65744	0.01039
2026.37167	0.01022
2025.08590	0.00955
2023.80013	0.00860
2022.51436	0.00777
2021.22860	0.00729
2019.94283	0.00710
2018.65706	0.00697
2017.37129	0.00677
2016.08552	0.00648
2014.79975	0.00627
2013.51398	0.00655
2012.22821	0.00771
2010.94245	0.00949
2009.65668	0.01092
2008.37091	0.01114
2007.08514	0.01027
2005.79937	0.00933
2004.51360	0.00913
2003.22783	0.00955
2001.94206	0.00997
2000.65629	0.01012
1999.37053	0.01030
1998.08476	0.01090
1996.79899	0.01190
1995.51322	0.01298
1994.22745	0.01388
1992.94168	0.01453
1991.65591	0.01493
1990.37014	0.01504
1989.08438	0.01479
1987.79861	0.01421
1986.51284	0.01351
1985.22707	0.01295
1983.94130	0.01273
1982.65553	0.01287
1981.36976	0.01326
1980.08399	0.01371
1978.79822	0.01404
1977.51246	0.01422
1976.22669	0.01433
1974.94092	0.01440
1973.65515	0.01427
1972.36938	0.01367
1971.08361	0.01263
1969.79784	0.01160
1968.51207	0.01119
1967.22631	0.01159
1965.94054	0.01243
1964.65477	0.01313
1963.36900	0.01340
1962.08323	0.01323
1960.79746	0.01283
1959.51169	0.01251
1958.22592	0.01262
1956.94015	0.01332
1955.65439	0.01444
1954.36862	0.01556
1953.08285	0.01619
1951.79708	0.01615
1950.51131	0.01567
1949.22554	0.01521
1947.93977	0.01508
1946.65400	0.01520
1945.36823	0.01536
1944.08247	0.01545
1942.79670	0.01561
1941.51093	0.01603
1940.22516	0.01663
1938.93939	0.01717
1937.65362	0.01748
1936.36785	0.01757
1935.08208	0.01754
1933.79632	0.01750
1932.51055	0.01749
1931.22478	0.01755
1929.93901	0.01773
1928.65324	0.01808
1927.36747	0.01846
1926.08170	0.01859
1924.79593	0.01830
1923.51016	0.01773
1922.22440	0.01719
1920.93863	0.01684
1919.65286	0.01670
1918.36709	0.01686
1917.08132	0.01742
1915.79555	0.01814
1914.50978	0.01859
1913.22401	0.01853
1911.93825	0.01813
1910.65248	0.01776
1909.36671	0.01766
1908.08094	0.01778
1906.79517	0.01793
1905.50940	0.01803
1904.22363	0.01816
1902.93786	0.01837
1901.65209	0.01858
1900.36633	0.01865
1899.08056	0.01853
1897.79479	0.01827
1896.50902	0.01801
1895.22325	0.01789
1893.93748	0.01796
1892.65171	0.01817
1891.36594	0.01849
1890.08018	0.01893
1888.79441	0.01938
1887.50864	0.01956
1886.22287	0.01928
1884.93710	0.01868
1883.65133	0.01810
1882.36556	0.01780
1881.07979	0.01782
1879.79402	0.01805
1878.50826	0.01838
1877.22249	0.01870
1875.93672	0.01891
1874.65095	0.01893
1873.36518	0.01878
1872.07941	0.01855
1870.79364	0.01834
1869.50787	0.01823
1868.22211	0.01822
1866.93634	0.01825
1865.65057	0.01825
1864.36480	0.01828
1863.07903	0.01839
1861.79326	0.01855
1860.50749	0.01869
1859.22172	0.01873
1857.93595	0.01865
1856.65019	0.01852
1855.36442	0.01840
1854.07865	0.01839
1852.79288	0.01851
1851.50711	0.01869
1850.22134	0.01883
1848.93557	0.01886
1847.64980	0.01879
1846.36404	0.01861
1845.07827	0.01838
1843.79250	0.01829
1842.50673	0.01844
1841.22096	0.01869
1839.93519	0.01888
1838.64942	0.01893
1837.36365	0.01885
1836.07788	0.01868
1834.79212	0.01851
1833.50635	0.01845
1832.22058	0.01852
1830.93481	0.01871
1829.64904	0.01897
1828.36327	0.01925
1827.07750	0.01943
1825.79173	0.01949
1824.50597	0.01953
1823.22020	0.01953
1821.93443	0.01947
1820.64866	0.01941
1819.36289	0.01936
1818.07712	0.01932
1816.79135	0.01931
1815.50558	0.01930
1814.21981	0.01927
1812.93405	0.01920
1811.64828	0.01909
1810.36251	0.01899
1809.07674	0.01893
1807.79097	0.01890
1806.50520	0.01889
1805.21943	0.01892
1803.93366	0.01899
1802.64790	0.01908
1801.36213	0.01917
1800.07636	0.01926
1798.79059	0.01929
1797.50482	0.01923
1796.21905	0.01913
1794.93328	0.01903
1793.64751	0.01899
1792.36174	0.01906
1791.07598	0.01923
1789.79021	0.01938
1788.50444	0.01943
1787.21867	0.01939
1785.93290	0.01930
1784.64713	0.01924
1783.36136	0.01921
1782.07559	0.01923
1780.78983	0.01930
1779.50406	0.01943
1778.21829	0.01961
1776.93252	0.01980
1775.64675	0.01994
1774.36098	0.01995
1773.07521	0.01990
1771.78944	0.01995
1770.50367	0.02006
1769.21791	0.02005
1767.93214	0.01994
1766.64637	0.01988
1765.36060	0.01984
1764.07483	0.01976
1762.78906	0.01967
1761.50329	0.01969
1760.21752	0.01980
1758.93176	0.01985
1757.64599	0.01978
1756.36022	0.01969
1755.07445	0.01962
1753.78868	0.01946
1752.50291	0.01918
1751.21714	0.01894
1749.93137	0.01884
1748.64560	0.01873
1747.35984	0.01848
1746.07407	0.01814
1744.78830	0.01780
1743.50253	0.01755
1742.21676	0.01736
1740.93099	0.01721
1739.64522	0.01721
1738.35945	0.01751
1737.07369	0.01792
1735.78792	0.01819
1734.50215	0.01839
1733.21638	0.01876
1731.93061	0.01919
1730.64484	0.01938
1729.35907	0.01937
1728.07330	0.01940
1726.78753	0.01961
1725.50177	0.01997
1724.21600	0.02042
1722.93023	0.02094
1721.64446	0.02147
1720.35869	0.02189
1719.07292	0.02218
1717.78715	0.02253
1716.50138	0.02306
1715.21561	0.02364
1713.92985	0.02414
1712.64408	0.02458
1711.35831	0.02503
1710.07254	0.02552
1708.78677	0.02599
1707.50100	0.02645
1706.21523	0.02697
1704.92946	0.02768
1703.64370	0.02852
1702.35793	0.02927
1701.07216	0.02997
1699.78639	0.03095
1698.50062	0.03201
1697.21485	0.03271
1695.92908	0.03318
1694.64331	0.03392
1693.35754	0.03484
1692.07178	0.03559
1690.78601	0.03624
1689.50024	0.03704
1688.21447	0.03797
1686.92870	0.03878
1685.64293	0.03947
1684.35716	0.04036
1683.07139	0.04154
1681.78563	0.04265
1680.49986	0.04346
1679.21409	0.04420
1677.92832	0.04496
1676.64255	0.04567
1675.35678	0.04639
1674.07101	0.04725
1672.78524	0.04814
1671.49947	0.04891
1670.21371	0.04960
1668.92794	0.05034
1667.64217	0.05113
1666.35640	0.05189
1665.07063	0.05256
1663.78486	0.05324
1662.49909	0.05399
1661.21332	0.05475
1659.92756	0.05543
1658.64179	0.05605
1657.35602	0.05676
1656.07025	0.05742
1654.78448	0.05782
1653.49871	0.05817
1652.21294	0.05885
1650.92717	0.05967
1649.64140	0.06011
1648.35564	0.06010
1647.06987	0.06007
1645.78410	0.06028
1644.49833	0.06058
1643.21256	0.06075
1641.92679	0.06073
1640.64102	0.06069
1639.35525	0.06071
1638.06949	0.06068
1636.78372	0.06057
1635.49795	0.06051
1634.21218	0.06058
1632.92641	0.06057
1631.64064	0.06035
1630.35487	0.06005
1629.06910	0.05985
1627.78333	0.05978
1626.49757	0.05973
1625.21180	0.05959
1623.92603	0.05937
1622.64026	0.05921
1621.35449	0.05916
1620.06872	0.05908
1618.78295	0.05888
1617.49718	0.05871
1616.21142	0.05882
1614.92565	0.05916
1613.63988	0.05938
1612.35411	0.05938
1611.06834	0.05934
1609.78257	0.05938
1608.49680	0.05947
1607.21103	0.05958
1605.92526	0.05971
1604.63950	0.05985
1603.35373	0.05999
1602.06796	0.06015
1600.78219	0.06036
1599.49642	0.06062
1598.21065	0.06095
1596.92488	0.06131
1595.63911	0.06167
1594.35335	0.06203
1593.06758	0.06243
1591.78181	0.06289
1590.49604	0.06333
1589.21027	0.06371
1587.92450	0.06400
1586.63873	0.06427
1585.35296	0.06459
1584.06719	0.06500
1582.78143	0.06547
1581.49566	0.06599
1580.20989	0.06655
1578.92412	0.06706
1577.63835	0.06741
1576.35258	0.06781
1575.06681	0.06845
1573.78104	0.06915
1572.49528	0.06960
1571.20951	0.06982
1569.92374	0.07005
1568.63797	0.07040
1567.35220	0.07077
1566.06643	0.07105
1564.78066	0.07133
1563.49489	0.07172
1562.20912	0.07207
1560.92336	0.07222
1559.63759	0.07237
1558.35182	0.07280
1557.06605	0.07329
1555.78028	0.07344
1554.49451	0.07327
1553.20874	0.07309
1551.92297	0.07299
1550.63721	0.07284
1549.35144	0.07267
1548.06567	0.07250
1546.77990	0.07226
1545.49413	0.07193
1544.20836	0.07152
1542.92259	0.07101
1541.63682	0.07035
1540.35105	0.06969
1539.06529	0.06925
1537.77952	0.06901
1536.49375	0.06864
1535.20798	0.06803
1533.92221	0.06746
1532.63644	0.06716
1531.35067	0.06704
1530.06490	0.06694
1528.77914	0.06687
1527.49337	0.06693
1526.20760	0.06719
1524.92183	0.06760
1523.63606	0.06799
1522.35029	0.06831
1521.06452	0.06873
1519.77875	0.06931
1518.49298	0.06987
1517.20722	0.07036
1515.92145	0.07097
1514.63568	0.07178
1513.34991	0.07268
1512.06414	0.07366
1510.77837	0.07474
1509.49260	0.07580
1508.20683	0.07673
1506.92107	0.07770
1505.63530	0.07889
1504.34953	0.08013
1503.06376	0.08112
1501.77799	0.08182
1500.49222	0.08247
1499.20645	0.08315
1497.92068	0.08379
1496.63491	0.08437
1495.34915	0.08500
1494.06338	0.08569
1492.77761	0.08633
1491.49184	0.08696
1490.20607	0.08769
1488.92030	0.08853
1487.63453	0.08940
1486.34876	0.09026
1485.06299	0.09115
1483.77723	0.09214
1482.49146	0.09324
1481.20569	0.09444
1479.91992	0.09570
1478.63415	0.09697
1477.34838	0.09820
1476.06261	0.09938
1474.77684	0.10040
1473.49108	0.10125
1472.20531	0.10204
1470.91954	0.10286
1469.63377	0.10363
1468.34800	0.10429
1467.06223	0.10487
1465.77646	0.10541
1464.49069	0.10599
1463.20492	0.10663
1461.91916	0.10733
1460.63339	0.10812
1459.34762	0.10894
1458.06185	0.10980
1456.77608	0.11079
1455.49031	0.11191
1454.20454	0.11287
1452.91877	0.11353
1451.63301	0.11397
1450.34724	0.11433
1449.06147	0.11460
1447.77570	0.11480
1446.48993	0.11495
1445.20416	0.11503
1443.91839	0.11499
1442.63262	0.11488
1441.34685	0.11476
1440.06109	0.11466
1438.77532	0.11452
1437.48955	0.11441
1436.20378	0.11456
1434.91801	0.11502
1433.63224	0.11567
1432.34647	0.11642
1431.06070	0.11734
1429.77494	0.11849
1428.48917	0.11981
1427.20340	0.12126
1425.91763	0.12277
1424.63186	0.12435
1423.34609	0.12599
1422.06032	0.12756
1420.77455	0.12894
1419.48878	0.13020
1418.20302	0.13142
1416.91725	0.13251
1415.63148	0.13332
1414.34571	0.13386
1413.05994	0.13415
1411.77417	0.13414
1410.48840	0.13386
1409.20263	0.13338
1407.91687	0.13274
1406.63110	0.13188
1405.34533	0.13074
1404.05956	0.12931
1402.77379	0.12764
1401.48802	0.12577
1400.20225	0.12374
1398.91648	0.12162
1397.63071	0.11942
1396.34495	0.11710
1395.05918	0.11470
1393.77341	0.11232
1392.48764	0.10995
1391.20187	0.10751
1389.91610	0.10501
1388.63033	0.10254
1387.34456	0.10022
1386.05880	0.09806
1384.77303	0.09597
1383.48726	0.09383
1382.20149	0.09162
1380.91572	0.08934
1379.62995	0.08704
1378.34418	0.08477
1377.05841	0.08254
1375.77264	0.08031
1374.48688	0.07808
1373.20111	0.07588
1371.91534	0.07372
1370.62957	0.07163
1369.34380	0.06962
1368.05803	0.06775
1366.77226	0.06600
1365.48649	0.06431
1364.20073	0.06268
1362.91496	0.06114
1361.62919	0.05971
1360.34342	0.05838
1359.05765	0.05715
1357.77188	0.05599
1356.48611	0.05492
1355.20034	0.05395
1353.91457	0.05307
1352.62881	0.05226
1351.34304	0.05150
1350.05727	0.05075
1348.77150	0.05004
1347.48573	0.04936
1346.19996	0.04872
1344.91419	0.04810
1343.62842	0.04750
1342.34266	0.04688
1341.05689	0.04624
1339.77112	0.04561
1338.48535	0.04503
1337.19958	0.04447
1335.91381	0.04390
1334.62804	0.04330
1333.34227	0.04271
1332.05650	0.04216
1330.77074	0.04167
1329.48497	0.04119
1328.19920	0.04071
1326.91343	0.04023
1325.62766	0.03982
1324.34189	0.03949
1323.05612	0.03919
1321.77035	0.03888
1320.48459	0.03852
1319.19882	0.03809
1317.91305	0.03763
1316.62728	0.03719
1315.34151	0.03683
1314.05574	0.03653
1312.76997	0.03623
1311.48420	0.03588
1310.19843	0.03551
1308.91267	0.03516
1307.62690	0.03485
1306.34113	0.03459
1305.05536	0.03432
1303.76959	0.03404
1302.48382	0.03375
1301.19805	0.03347
1299.91228	0.03322
1298.62652	0.03301
1297.34075	0.03280
1296.05498	0.03259
1294.76921	0.03237
1293.48344	0.03218
1292.19767	0.03204
1290.91190	0.03194
1289.62613	0.03185
1288.34036	0.03170
1287.05460	0.03151
1285.76883	0.03131
1284.48306	0.03115
1283.19729	0.03102
1281.91152	0.03089
1280.62575	0.03072
1279.33998	0.03051
1278.05421	0.03029
1276.76845	0.03009
1275.48268	0.02992
1274.19691	0.02977
1272.91114	0.02965
1271.62537	0.02954
1270.33960	0.02942
1269.05383	0.02927
1267.76806	0.02911
1266.48229	0.02893
1265.19653	0.02876
1263.91076	0.02860
1262.62499	0.02845
1261.33922	0.02832
1260.05345	0.02821
1258.76768	0.02813
1257.48191	0.02806
1256.19614	0.02801
1254.91037	0.02797
1253.62461	0.02791
1252.33884	0.02780
1251.05307	0.02768
1249.76730	0.02756
1248.48153	0.02748
1247.19576	0.02743
1245.90999	0.02742
1244.62422	0.02741
1243.33846	0.02738
1242.05269	0.02731
1240.76692	0.02718
1239.48115	0.02703
1238.19538	0.02689
1236.90961	0.02677
1235.62384	0.02667
1234.33807	0.02657
1233.05230	0.02645
1231.76654	0.02628
1230.48077	0.02606
1229.19500	0.02581
1227.90923	0.02554
1226.62346	0.02527
1225.33769	0.02501
1224.05192	0.02477
1222.76615	0.02456
1221.48039	0.02438
1220.19462	0.02424
1218.90885	0.02412
1217.62308	0.02397
1216.33731	0.02378
1215.05154	0.02358
1213.76577	0.02340
1212.48000	0.02329
1211.19423	0.02324
1209.90847	0.02321
1208.62270	0.02317
1207.33693	0.02311
1206.05116	0.02304
1204.76539	0.02297
1203.47962	0.02291
1202.19385	0.02287
1200.90808	0.02281
1199.62232	0.02269
1198.33655	0.02261
1197.05078	0.02252
1195.76501	0.02241
1194.47924	0.02231
1193.19347	0.02223
1191.90770	0.02216
1190.62193	0.02205
1189.33616	0.02188
1188.05040	0.02165
1186.76463	0.02140
1185.47886	0.02119
1184.19309	0.02105
1182.90732	0.02096
1181.62155	0.02088
1180.33578	0.02080
1179.05001	0.02072
1177.76425	0.02066
1176.47848	0.02064
1175.19271	0.02068
1173.90694	0.02078
1172.62117	0.02094
1171.33540	0.02113
1170.04963	0.02131
1168.76386	0.02149
1167.47809	0.02169
1166.19233	0.02191
1164.90656	0.02212
1163.62079	0.02231
1162.33502	0.02246
1161.04925	0.02262
1159.76348	0.02282
1158.47771	0.02308
1157.19194	0.02336
1155.90618	0.02365
1154.62041	0.02395
1153.33464	0.02427
1152.04887	0.02458
1150.76310	0.02491
1149.47733	0.02527
1148.19156	0.02574
1146.90579	0.02634
1145.62002	0.02708
1144.33426	0.02796
1143.04849	0.02892
1141.76272	0.02993
1140.47695	0.03099
1139.19118	0.03215
1137.90541	0.03346
1136.61964	0.03495
1135.33387	0.03659
1134.04811	0.03835
1132.76234	0.04023
1131.47657	0.04227
1130.19080	0.04450
1128.90503	0.04696
1127.61926	0.04967
1126.33349	0.05266
1125.04772	0.05595
1123.76195	0.05952
1122.47619	0.06325
1121.19042	0.06702
1119.90465	0.07077
1118.61888	0.07454
1117.33311	0.07840
1116.04734	0.08231
1114.76157	0.08620
1113.47580	0.09003
1112.19004	0.09384
1110.90427	0.09765
1109.61850	0.10142
1108.33273	0.10509
1107.04696	0.10859
1105.76119	0.11192
1104.47542	0.11515
1103.18965	0.11835
1101.90388	0.12156
1100.61812	0.12478
1099.33235	0.12795
1098.04658	0.13099
1096.76081	0.13386
1095.47504	0.13656
1094.18927	0.13914
1092.90350	0.14164
1091.61773	0.14403
1090.33197	0.14623
1089.04620	0.14825
1087.76043	0.15020
1086.47466	0.15226
1085.18889	0.15449
1083.90312	0.15681
1082.61735	0.15913
1081.33158	0.16148
1080.04581	0.16396
1078.76005	0.16668
1077.47428	0.16966
1076.18851	0.17290
1074.90274	0.17628
1073.61697	0.17972
1072.33120	0.18311
1071.04543	0.18649
1069.75966	0.18995
1068.47390	0.19359
1067.18813	0.19748
1065.90236	0.20156
1064.61659	0.20569
1063.33082	0.20979
1062.04505	0.21385
1060.75928	0.21794
1059.47351	0.22209
1058.18774	0.22625
1056.90198	0.23030
1055.61621	0.23414
1054.33044	0.23780
1053.04467	0.24144
1051.75890	0.24521
1050.47313	0.24920
1049.18736	0.25334
1047.90159	0.25758
1046.61583	0.26185
1045.33006	0.26617
1044.04429	0.27054
1042.75852	0.27500
1041.47275	0.27958
1040.18698	0.28428
1038.90121	0.28907
1037.61544	0.29386
1036.32967	0.29860
1035.04391	0.30321
1033.75814	0.30764
1032.47237	0.31188
1031.18660	0.31590
1029.90083	0.31963
1028.61506	0.32297
1027.32929	0.32582
1026.04352	0.32822
1024.75775	0.33020
1023.47199	0.33179
1022.18622	0.33298
1020.90045	0.33369
1019.61468	0.33388
1018.32891	0.33349
1017.04314	0.33253
1015.75737	0.33101
1014.47160	0.32891
1013.18584	0.32616
1011.90007	0.32269
1010.61430	0.31858
1009.32853	0.31396
1008.04276	0.30890
1006.75699	0.30336
1005.47122	0.29722
1004.18545	0.29046
1002.89968	0.28319
1001.61392	0.27553
1000.32815	0.26760
999.04238	0.25942
997.75661	0.25103
996.47084	0.24247
995.18507	0.23386
993.89930	0.22533
992.61353	0.21692
991.32777	0.20862
990.04200	0.20043
988.75623	0.19246
987.47046	0.18479
986.18469	0.17744
984.89892	0.17039
983.61315	0.16361
982.32738	0.15715
981.04161	0.15108
979.75585	0.14546
978.47008	0.14033
977.18431	0.13571
975.89854	0.13155
974.61277	0.12785
973.32700	0.12464
972.04123	0.12198
970.75546	0.11997
969.46970	0.11870
968.18393	0.11823
966.89816	0.11853
965.61239	0.11940
964.32662	0.12053
963.04085	0.12155
961.75508	0.12216
960.46931	0.12217
959.18354	0.12150
957.89778	0.12012
956.61201	0.11808
955.32624	0.11554
954.04047	0.11274
952.75470	0.10983
951.46893	0.10690
950.18316	0.10398
948.89739	0.10110
947.61163	0.09831
946.32586	0.09562
945.04009	0.09303
943.75432	0.09056
942.46855	0.08820
941.18278	0.08590
939.89701	0.08365
938.61124	0.08147
937.32547	0.07943
936.03971	0.07756
934.75394	0.07582
933.46817	0.07415
932.18240	0.07255
930.89663	0.07105
929.61086	0.06971
928.32509	0.06852
927.03932	0.06743
925.75356	0.06640
924.46779	0.06540
923.18202	0.06444
921.89625	0.06353
920.61048	0.06269
919.32471	0.06190
918.03894	0.06115
916.75317	0.06044
915.46740	0.05974
914.18164	0.05906
912.89587	0.05838
911.61010	0.05776
910.32433	0.05723
909.03856	0.05680
907.75279	0.05635
906.46702	0.05578
905.18125	0.05510
903.89549	0.05439
902.60972	0.05373
901.32395	0.05320
900.03818	0.05282
898.75241	0.05252
897.46664	0.05222
896.18087	0.05187
894.89510	0.05155
893.60933	0.05132
892.32357	0.05118
891.03780	0.05114
889.75203	0.05126
888.46626	0.05169
887.18049	0.05259
885.89472	0.05408
884.60895	0.05626
883.32318	0.05917
882.03742	0.06258
880.75165	0.06597
879.46588	0.06881
878.18011	0.07089
876.89434	0.07251
875.60857	0.07412
874.32280	0.07584
873.03703	0.07738
871.75126	0.07828
870.46550	0.07820
869.17973	0.07711
867.89396	0.07516
866.60819	0.07265
865.32242	0.06986
864.03665	0.06698
862.75088	0.06417
861.46511	0.06154
860.17935	0.05924
858.89358	0.05732
857.60781	0.05576
856.32204	0.05452
855.03627	0.05353
853.75050	0.05269
852.46473	0.05191
851.17896	0.05119
849.89319	0.05058
848.60743	0.05012
847.32166	0.04975
846.03589	0.04937
844.75012	0.04895
843.46435	0.04851
842.17858	0.04811
840.89281	0.04775
839.60704	0.04744
838.32128	0.04714
837.03551	0.04684
835.74974	0.04652
834.46397	0.04623
833.17820	0.04598
831.89243	0.04580
830.60666	0.04568
829.32089	0.04559
828.03512	0.04550
826.74936	0.04537
825.46359	0.04521
824.17782	0.04503
822.89205	0.04485
821.60628	0.04465
820.32051	0.04445
819.03474	0.04425
817.74897	0.04411
816.46321	0.04407
815.17744	0.04412
813.89167	0.04422
812.60590	0.04426
811.32013	0.04418
810.03436	0.04401
808.74859	0.04384
807.46282	0.04373
806.17705	0.04364
804.89129	0.04351
803.60552	0.04336
802.31975	0.04329
801.03398	0.04332
799.74821	0.04337
798.46244	0.04334
797.17667	0.04325
795.89090	0.04319
794.60513	0.04321
793.31937	0.04325
792.03360	0.04325
790.74783	0.04317
789.46206	0.04304
788.17629	0.04290
786.89052	0.04277
785.60475	0.04268
784.31898	0.04261
783.03322	0.04259
781.74745	0.04266
780.46168	0.04277
779.17591	0.04286
777.89014	0.04290
776.60437	0.04290
775.31860	0.04286
774.03283	0.04281
772.74706	0.04276
771.46130	0.04272
770.17553	0.04272
768.88976	0.04275
767.60399	0.04279
766.31822	0.04283
765.03245	0.04290
763.74668	0.04298
762.46091	0.04308
761.17515	0.04318
759.88938	0.04328
758.60361	0.04334
757.31784	0.04332
756.03207	0.04322
754.74630	0.04310
753.46053	0.04307
752.17476	0.04313
750.88899	0.04321
749.60323	0.04323
748.31746	0.04317
747.03169	0.04302
745.74592	0.04281
744.46015	0.04254
743.17438	0.04224
741.88861	0.04204
740.60284	0.04200
739.31708	0.04210
738.03131	0.04222
736.74554	0.04224
735.45977	0.04218
734.17400	0.04214
732.88823	0.04219
731.60246	0.04232
730.31669	0.04248
729.03092	0.04261
727.74516	0.04272
726.45939	0.04281
725.17362	0.04287
723.88785	0.04286
722.60208	0.04269
721.31631	0.04240
720.03054	0.04214
718.74477	0.04200
717.45901	0.04198
716.17324	0.04202
714.88747	0.04206
713.60170	0.04210
712.31593	0.04215
711.03016	0.04218
709.74439	0.04217
708.45862	0.04214
707.17285	0.04214
705.88709	0.04215
704.60132	0.04213
703.31555	0.04204
702.02978	0.04192
700.74401	0.04181
699.45824	0.04173
698.17247	0.04167
696.88670	0.04164
695.60094	0.04163
694.31517	0.04165
693.02940	0.04167
691.74363	0.04164
690.45786	0.04157
689.17209	0.04153
687.88632	0.04154
686.60055	0.04159
685.31478	0.04161
684.02902	0.04155
682.74325	0.04144
681.45748	0.04132
680.17171	0.04121
678.88594	0.04110
677.60017	0.04102
676.31440	0.04101
675.02863	0.04114
673.74287	0.04136
672.45710	0.04165
671.17133	0.04199
669.88556	0.04235
668.59979	0.04253
667.31402	0.04261
666.02825	0.04265
664.74248	0.04227
663.45671	0.04181
662.17095	0.04141
660.88518	0.04106
659.59941	0.04073
658.31364	0.04042
657.02787	0.04012
655.74210	0.03984
654.45633	0.03962
653.17056	0.03946
651.88480	0.03938
650.59903	0.03935
649.31326	0.03935
648.02749	0.03931
646.74172	0.03921
645.45595	0.03906
644.17018	0.03891
642.88441	0.03882
641.59864	0.03882
640.31288	0.03889
639.02711	0.03901
637.74134	0.03917
636.45557	0.03935
635.16980	0.03953
633.88403	0.03972
632.59826	0.03996
631.31249	0.04039
630.02673	0.04124
628.74096	0.04214
627.45519	0.04225
626.16942	0.04344
624.88365	0.04589
623.59788	0.04945
622.31211	0.05384
621.02634	0.05827
619.74057	0.06213
618.45481	0.06549
617.16904	0.06845
615.88327	0.07097
614.59750	0.07339
613.31173	0.07662
612.02596	0.08160
610.74019	0.08865
609.45442	0.09704
608.16866	0.10520
606.88289	0.11184
605.59712	0.11670
604.31135	0.12010
603.02558	0.12215
601.73981	0.12264
600.45404	0.12155
599.16827	0.11922
597.88250	0.11620
596.59674	0.11290
595.31097	0.10960
594.02520	0.10651
592.73943	0.10379
591.45366	0.10155
590.16789	0.09986
588.88212	0.09888
587.59635	0.09879
586.31059	0.09970
585.02482	0.10147
583.73905	0.10383
582.45328	0.10651
581.16751	0.10940
579.88174	0.11249
578.59597	0.11575
577.31020	0.11910
576.02443	0.12242
574.73867	0.12556
573.45290	0.12845
572.16713	0.13128
570.88136	0.13441
569.59559	0.13813
568.30982	0.14241
567.02405	0.14696
565.73828	0.15141
564.45251	0.15544
563.16675	0.15864
561.88098	0.16054
560.59521	0.16063
559.30944	0.15860
558.02367	0.15455
556.73790	0.14892
555.45213	0.14227
554.16636	0.13508
552.88060	0.12777
551.59483	0.12074
550.30906	0.11424
549.02329	0.10831
547.73752	0.10287
546.45175	0.09789
545.16598	0.09345
543.88021	0.08957
542.59444	0.08616
541.30868	0.08311
540.02291	0.08032
538.73714	0.07776
537.45137	0.07536
536.16560	0.07308
534.87983	0.07095
533.59406	0.06902
532.30829	0.06728
531.02253	0.06567
529.73676	0.06408
528.45099	0.06245
527.16522	0.06080
525.87945	0.05923
524.59368	0.05787
523.30791	0.05669
522.02214	0.05558
520.73637	0.05443
519.45061	0.05331
518.16484	0.05231
516.87907	0.05147
515.59330	0.05070
514.30753	0.04993
513.02176	0.04917
511.73599	0.04844
510.45022	0.04771
509.16446	0.04693
507.87869	0.04612
506.59292	0.04534
505.30715	0.04464
504.02138	0.04401
502.73561	0.04347
501.44984	0.04302
500.16407	0.04263
498.87830	0.04222
497.59254	0.04176
496.30677	0.04127
495.02100	0.04079
493.73523	0.04036
492.44946	0.04001
491.16369	0.03971
489.87792	0.03943
488.59215	0.03920
487.30639	0.03906
486.02062	0.03902
484.73485	0.03905
483.44908	0.03910
482.16331	0.03913
480.87754	0.03915
479.59177	0.03915
478.30600	0.03912
477.02023	0.03912
475.73447	0.03919
474.44870	0.03935
473.16293	0.03957
471.87716	0.03978
470.59139	0.03991
469.30562	0.03990
468.01985	0.03971
466.73408	0.03934
465.44832	0.03884
464.16255	0.03829
462.87678	0.03776
461.59101	0.03732
460.30524	0.03694
459.01947	0.03656
457.73370	0.03619
456.44793	0.03587
455.16216	0.03558
453.87640	0.03528
452.59063	0.03495
451.30486	0.03458
450.01909	0.03420
448.73332	0.03387
447.44755	0.03361
446.16178	0.03339
444.87601	0.03316
443.59025	0.03290
442.30448	0.03265
441.01871	0.03244
439.73294	0.03230
438.44717	0.03219
437.16140	0.03210
435.87563	0.03204
434.58986	0.03201
433.30409	0.03197
432.01833	0.03187
430.73256	0.03170
429.44679	0.03151
428.16102	0.03132
426.87525	0.03114
425.58948	0.03095
424.30371	0.03077
423.01794	0.03062
421.73218	0.03049
420.44641	0.03037
419.16064	0.03028
417.87487	0.03020
416.58910	0.03008
415.30333	0.02990
414.01756	0.02972
412.73179	0.02961
411.44602	0.02953
410.16026	0.02944
408.87449	0.02938
407.58872	0.02942
406.30295	0.02958
405.01718	0.02978
403.73141	0.02991
402.44564	0.02992
401.15987	0.02987
399.87411	0.02983
