3997.45528 0.05647
3996.16951 0.05599
3994.88374 0.05543
3993.59798 0.05483
3992.31221 0.05438
3991.02644 0.05421
3989.74067 0.05435
3988.45490 0.05472
3987.16913 0.05522
3985.88336 0.05560
3984.59759 0.05559
3983.31183 0.05501
3982.02606 0.05403
3980.74029 0.05310
3979.45452 0.05265
3978.16875 0.05274
3976.88298 0.05310
3975.59721 0.05345
3974.31144 0.05371
3973.02567 0.05370
3971.73991 0.05324
3970.45414 0.05250
3969.16837 0.05207
3967.88260 0.05254
3966.59683 0.05396
3965.31106 0.05577
3964.02529 0.05714
3962.73952 0.05739
3961.45376 0.05636
3960.16799 0.05468
3958.88222 0.05328
3957.59645 0.05264
3956.31068 0.05245
3955.02491 0.05214
3953.73914 0.05166
3952.45337 0.05152
3951.16760 0.05208
3949.88184 0.05302
3948.59607 0.05370
3947.31030 0.05379
3946.02453 0.05357
3944.73876 0.05348
3943.45299 0.05374
3942.16722 0.05427
3940.88145 0.05480
3939.59569 0.05522
3938.30992 0.05561
3937.02415 0.05614
3935.73838 0.05671
3934.45261 0.05694
3933.16684 0.05655
3931.88107 0.05566
3930.59530 0.05473
3929.30953 0.05405
3928.02377 0.05370
3926.73800 0.05381
3925.45223 0.05455
3924.16646 0.05560
3922.88069 0.05612
3921.59492 0.05545
3920.30915 0.05386
3919.02338 0.05222
3917.73762 0.05120
3916.45185 0.05081
3915.16608 0.05065
3913.88031 0.05039
3912.59454 0.05010
3911.30877 0.05023
3910.02300 0.05121
3908.73723 0.05283
3907.45146 0.05416
3906.16570 0.05435
3904.87993 0.05347
3903.59416 0.05244
3902.30839 0.05214
3901.02262 0.05271
3899.73685 0.05376
3898.45108 0.05483
3897.16531 0.05567
3895.87955 0.05616
3894.59378 0.05624
3893.30801 0.05590
3892.02224 0.05520
3890.73647 0.05434
3889.45070 0.05352
3888.16493 0.05276
3886.87916 0.05216
3885.59339 0.05206
3884.30763 0.05269
3883.02186 0.05370
3881.73609 0.05434
3880.45032 0.05422
3879.16455 0.05366
3877.87878 0.05321
3876.59301 0.05305
3875.30724 0.05296
3874.02148 0.05283
3872.73571 0.05275
3871.44994 0.05282
3870.16417 0.05291
3868.87840 0.05265
3867.59263 0.05170
3866.30686 0.05024
3865.02109 0.04892
3863.73532 0.04832
3862.44956 0.04858
3861.16379 0.04954
3859.87802 0.05094
3858.59225 0.05236
3857.30648 0.05335
3856.02071 0.05363
3854.73494 0.05333
3853.44917 0.05292
3852.16341 0.05280
3850.87764 0.05310
3849.59187 0.05368
3848.30610 0.05419
3847.02033 0.05424
3845.73456 0.05382
3844.44879 0.05338
3843.16302 0.05336
3841.87725 0.05359
3840.59149 0.05333
3839.30572 0.05213
3838.01995 0.05038
3836.73418 0.04913
3835.44841 0.04919
3834.16264 0.05048
3832.87687 0.05204
3831.59110 0.05277
3830.30534 0.05236
3829.01957 0.05133
3827.73380 0.05027
3826.44803 0.04932
3825.16226 0.04844
3823.87649 0.04778
3822.59072 0.04764
3821.30495 0.04816
3820.01918 0.04905
3818.73342 0.04967
3817.44765 0.04953
3816.16188 0.04880
3814.87611 0.04822
3813.59034 0.04839
3812.30457 0.04932
3811.01880 0.05052
3809.73303 0.05135
3808.44726 0.05135
3807.16150 0.05052
3805.87573 0.04929
3804.58996 0.04829
3803.30419 0.04800
3802.01842 0.04848
3800.73265 0.04933
3799.44688 0.05010
3798.16111 0.05062
3796.87535 0.05090
3795.58958 0.05071
3794.30381 0.04970
3793.01804 0.04804
3791.73227 0.04651
3790.44650 0.04581
3789.16073 0.04597
3787.87496 0.04652
3786.58919 0.04711
3785.30343 0.04769
3784.01766 0.04822
3782.73189 0.04851
3781.44612 0.04849
3780.16035 0.04835
3778.87458 0.04833
3777.58881 0.04840
3776.30304 0.04844
3775.01728 0.04850
3773.73151 0.04867
3772.44574 0.04887
3771.15997 0.04901
3769.87420 0.04920
3768.58843 0.04951
3767.30266 0.04980
3766.01689 0.04979
3764.73112 0.04938
3763.44536 0.04865
3762.15959 0.04776
3760.87382 0.04690
3759.58805 0.04634
3758.30228 0.04625
3757.01651 0.04665
3755.73074 0.04735
3754.44497 0.04808
3753.15921 0.04867
3751.87344 0.04904
3750.58767 0.04915
3749.30190 0.04899
3748.01613 0.04865
3746.73036 0.04816
3745.44459 0.04755
3744.15882 0.04696
3742.87305 0.04645
3741.58729 0.04610
3740.30152 0.04603
3739.01575 0.04639
3737.72998 0.04714
3736.44421 0.04812
3735.15844 0.04902
3733.87267 0.04941
3732.58690 0.04907
3731.30114 0.04813
3730.01537 0.04680
3728.72960 0.04528
3727.44383 0.04399
3726.15806 0.04338
3724.87229 0.04361
3723.58652 0.04435
3722.30075 0.04512
3721.01498 0.04563
3719.72922 0.04590
3718.44345 0.04602
3717.15768 0.04600
3715.87191 0.04571
3714.58614 0.04520
3713.30037 0.04476
3712.01460 0.04473
3710.72883 0.04512
3709.44307 0.04565
3708.15730 0.04624
3706.87153 0.04698
3705.58576 0.04768
3704.29999 0.04770
3703.01422 0.04678
3701.72845 0.04534
3700.44268 0.04409
3699.15691 0.04330
3697.87115 0.04295
3696.58538 0.04307
3695.29961 0.04364
3694.01384 0.04457
3692.72807 0.04575
3691.44230 0.04693
3690.15653 0.04762
3688.87076 0.04749
3687.58500 0.04670
3686.29923 0.04576
3685.01346 0.04533
3683.72769 0.04562
3682.44192 0.04607
3681.15615 0.04612
3679.87038 0.04591
3678.58461 0.04598
3677.29884 0.04652
3676.01308 0.04722
3674.72731 0.04784
3673.44154 0.04853
3672.15577 0.04938
3670.87000 0.05022
3669.58423 0.05072
3668.29846 0.05076
3667.01269 0.05050
3665.72693 0.05001
3664.44116 0.04923
3663.15539 0.04829
3661.86962 0.04759
3660.58385 0.04742
3659.29808 0.04767
3658.01231 0.04812
3656.72654 0.04868
3655.44077 0.04923
3654.15501 0.04954
3652.86924 0.04941
3651.58347 0.04902
3650.29770 0.04878
3649.01193 0.04897
3647.72616 0.04957
3646.44039 0.05023
3645.15462 0.05060
3643.86886 0.05066
3642.58309 0.05075
3641.29732 0.05106
3640.01155 0.05144
3638.72578 0.05161
3637.44001 0.05150
3636.15424 0.05122
3634.86847 0.05107
3633.58270 0.05141
3632.29694 0.05227
3631.01117 0.05320
3629.72540 0.05366
3628.43963 0.05351
3627.15386 0.05292
3625.86809 0.05203
3624.58232 0.05116
3623.29655 0.05080
3622.01079 0.05125
3620.72502 0.05225
3619.43925 0.05314
3618.15348 0.05346
3616.86771 0.05329
3615.58194 0.05318
3614.29617 0.05369
3613.01040 0.05483
3611.72463 0.05591
3610.43887 0.05625
3609.15310 0.05591
3607.86733 0.05557
3606.58156 0.05574
3605.29579 0.05636
3604.01002 0.05708
3602.72425 0.05764
3601.43848 0.05799
3600.15272 0.05821
3598.86695 0.05845
3597.58118 0.05895
3596.29541 0.05974
3595.00964 0.06052
3593.72387 0.06092
3592.43810 0.06103
3591.15233 0.06122
3589.86656 0.06157
3588.58080 0.06178
3587.29503 0.06155
3586.00926 0.06097
3584.72349 0.06044
3583.43772 0.06025
3582.15195 0.06038
3580.86618 0.06056
3579.58041 0.06069
3578.29464 0.06095
3577.00888 0.06163
3575.72311 0.06286
3574.43734 0.06437
3573.15157 0.06558
3571.86580 0.06607
3570.58003 0.06592
3569.29426 0.06565
3568.00849 0.06578
3566.72273 0.06649
3565.43696 0.06748
3564.15119 0.06829
3562.86542 0.06865
3561.57965 0.06863
3560.29388 0.06853
3559.00811 0.06855
3557.72234 0.06871
3556.43657 0.06893
3555.15081 0.06911
3553.86504 0.06922
3552.57927 0.06936
3551.29350 0.06955
3550.00773 0.06963
3548.72196 0.06945
3547.43619 0.06914
3546.15042 0.06904
3544.86466 0.06928
3543.57889 0.06973
3542.29312 0.07024
3541.00735 0.07082
3539.72158 0.07139
3538.43581 0.07178
3537.15004 0.07182
3535.86427 0.07157
3534.57850 0.07120
3533.29274 0.07094
3532.00697 0.07104
3530.72120 0.07161
3529.43543 0.07243
3528.14966 0.07311
3526.86389 0.07353
3525.57812 0.07392
3524.29235 0.07453
3523.00659 0.07526
3521.72082 0.07581
3520.43505 0.07600
3519.14928 0.07577
3517.86351 0.07515
3516.57774 0.07429
3515.29197 0.07353
3514.00620 0.07318
3512.72043 0.07325
3511.43467 0.07352
3510.14890 0.07388
3508.86313 0.07439
3507.57736 0.07506
3506.29159 0.07578
3505.00582 0.07650
3503.72005 0.07722
3502.43428 0.07784
3501.14852 0.07813
3499.86275 0.07792
3498.57698 0.07734
3497.29121 0.07670
3496.00544 0.07632
3494.71967 0.07627
3493.43390 0.07648
3492.14813 0.07685
3490.86236 0.07734
3489.57660 0.07800
3488.29083 0.07880
3487.00506 0.07969
3485.71929 0.08061
3484.43352 0.08137
3483.14775 0.08168
3481.86198 0.08142
3480.57621 0.08102
3479.29045 0.08115
3478.00468 0.08205
3476.71891 0.08322
3475.43314 0.08391
3474.14737 0.08383
3472.86160 0.08326
3471.57583 0.08265
3470.29006 0.08221
3469.00429 0.08197
3467.71853 0.08187
3466.43276 0.08188
3465.14699 0.08198
3463.86122 0.08214
3462.57545 0.08236
3461.28968 0.08264
3460.00391 0.08294
3458.71814 0.08318
3457.43238 0.08323
3456.14661 0.08308
3454.86084 0.08284
3453.57507 0.08269
3452.28930 0.08265
3451.00353 0.08266
3449.71776 0.08275
3448.43199 0.08302
3447.14622 0.08345
3445.86046 0.08382
3444.57469 0.08402
3443.28892 0.08412
3442.00315 0.08422
3440.71738 0.08432
3439.43161 0.08442
3438.14584 0.08455
3436.86007 0.08473
3435.57431 0.08484
3434.28854 0.08478
3433.00277 0.08471
3431.71700 0.08484
3430.43123 0.08519
3429.14546 0.08544
3427.85969 0.08532
3426.57392 0.08488
3425.28815 0.08449
3424.00239 0.08444
3422.71662 0.08474
3421.43085 0.08523
3420.14508 0.08574
3418.85931 0.08611
3417.57354 0.08628
3416.28777 0.08638
3415.00200 0.08670
3413.71624 0.08737
3412.43047 0.08815
3411.14470 0.08859
3409.85893 0.08845
3408.57316 0.08794
3407.28739 0.08741
3406.00162 0.08711
3404.71585 0.08698
3403.43008 0.08695
3402.14432 0.08714
3400.85855 0.08776
3399.57278 0.08888
3398.28701 0.09005
3397.00124 0.09081
3395.71547 0.09086
3394.42970 0.09030
3393.14393 0.08962
3391.85817 0.08933
3390.57240 0.08954
3389.28663 0.09002
3388.00086 0.09038
3386.71509 0.09039
3385.42932 0.08998
3384.14355 0.08943
3382.85778 0.08910
3381.57201 0.08921
3380.28625 0.08958
3379.00048 0.08985
3377.71471 0.08978
3376.42894 0.08936
3375.14317 0.08879
3373.85740 0.08846
3372.57163 0.08873
3371.28586 0.08961
3370.00010 0.09062
3368.71433 0.09115
3367.42856 0.09111
3366.14279 0.09085
3364.85702 0.09067
3363.57125 0.09054
3362.28548 0.09033
3360.99971 0.09016
3359.71394 0.09020
3358.42818 0.09039
3357.14241 0.09052
3355.85664 0.09044
3354.57087 0.09026
3353.28510 0.09011
3351.99933 0.08996
3350.71356 0.08959
3349.42779 0.08890
3348.14202 0.08807
3346.85626 0.08747
3345.57049 0.08729
3344.28472 0.08745
3342.99895 0.08778
3341.71318 0.08817
3340.42741 0.08862
3339.14164 0.08912
3337.85587 0.08959
3336.57011 0.09001
3335.28434 0.09040
3333.99857 0.09062
3332.71280 0.09045
3331.42703 0.08984
3330.14126 0.08912
3328.85549 0.08869
3327.56972 0.08863
3326.28395 0.08873
3324.99819 0.08878
3323.71242 0.08882
3322.42665 0.08897
3321.14088 0.08925
3319.85511 0.08954
3318.56934 0.08974
3317.28357 0.08989
3315.99780 0.08997
3314.71204 0.08994
3313.42627 0.08984
3312.14050 0.08978
3310.85473 0.08982
3309.56896 0.08987
3308.28319 0.08980
3306.99742 0.08962
3305.71165 0.08947
3304.42588 0.08945
3303.14012 0.08952
3301.85435 0.08955
3300.56858 0.08952
3299.28281 0.08951
3297.99704 0.08956
3296.71127 0.08951
3295.42550 0.08914
3294.13973 0.08846
3292.85397 0.08782
3291.56820 0.08762
3290.28243 0.08790
3288.99666 0.08833
3287.71089 0.08851
3286.42512 0.08833
3285.13935 0.08796
3283.85358 0.08755
3282.56781 0.08714
3281.28205 0.08687
3279.99628 0.08695
3278.71051 0.08743
3277.42474 0.08800
3276.13897 0.08833
3274.85320 0.08830
3273.56743 0.08802
3272.28166 0.08765
3270.99590 0.08733
3269.71013 0.08718
3268.42436 0.08720
3267.13859 0.08726
3265.85282 0.08727
3264.56705 0.08722
3263.28128 0.08719
3261.99551 0.08727
3260.70974 0.08747
3259.42398 0.08773
3258.13821 0.08788
3256.85244 0.08779
3255.56667 0.08751
3254.28090 0.08724
3252.99513 0.08717
3251.70936 0.08739
3250.42359 0.08776
3249.13783 0.08792
3247.85206 0.08756
3246.56629 0.08675
3245.28052 0.08601
3243.99475 0.08582
3242.70898 0.08618
3241.42321 0.08668
3240.13744 0.08694
3238.85167 0.08693
3237.56591 0.08675
3236.28014 0.08647
3234.99437 0.08609
3233.70860 0.08568
3232.42283 0.08544
3231.13706 0.08548
3229.85129 0.08572
3228.56552 0.08592
3227.27976 0.08594
3225.99399 0.08582
3224.70822 0.08570
3223.42245 0.08563
3222.13668 0.08552
3220.85091 0.08532
3219.56514 0.08509
3218.27937 0.08490
3216.99360 0.08473
3215.70784 0.08459
3214.42207 0.08455
3213.13630 0.08463
3211.85053 0.08486
3210.56476 0.08519
3209.27899 0.08554
3207.99322 0.08566
3206.70745 0.08528
3205.42169 0.08439
3204.13592 0.08334
3202.85015 0.08262
3201.56438 0.08244
3200.27861 0.08267
3198.99284 0.08305
3197.70707 0.08335
3196.42130 0.08348
3195.13553 0.08339
3193.84977 0.08314
3192.56400 0.08284
3191.27823 0.08260
3189.99246 0.08247
3188.70669 0.08244
3187.42092 0.08241
3186.13515 0.08232
3184.84938 0.08215
3183.56362 0.08202
3182.27785 0.08205
3180.99208 0.08223
3179.70631 0.08237
3178.42054 0.08231
3177.13477 0.08206
3175.84900 0.08167
3174.56323 0.08117
3173.27746 0.08064
3171.99170 0.08030
3170.70593 0.08031
3169.42016 0.08061
3168.13439 0.08094
3166.84862 0.08111
3165.56285 0.08113
3164.27708 0.08107
3162.99131 0.08095
3161.70555 0.08066
3160.41978 0.08012
3159.13401 0.07940
3157.84824 0.07875
3156.56247 0.07844
3155.27670 0.07861
3153.99093 0.07910
3152.70516 0.07961
3151.41939 0.07990
3150.13363 0.07990
3148.84786 0.07970
3147.56209 0.07939
3146.27632 0.07898
3144.99055 0.07856
3143.70478 0.07828
3142.41901 0.07835
3141.13324 0.07876
3139.84748 0.07929
3138.56171 0.07959
3137.27594 0.07946
3135.99017 0.07900
3134.70440 0.07851
3133.41863 0.07816
3132.13286 0.07796
3130.84709 0.07788
3129.56132 0.07795
3128.27556 0.07814
3126.98979 0.07831
3125.70402 0.07831
3124.41825 0.07812
3123.13248 0.07780
3121.84671 0.07742
3120.56094 0.07699
3119.27517 0.07656
3117.98940 0.07615
3116.70364 0.07572
3115.41787 0.07524
3114.13210 0.07485
3112.84633 0.07481
3111.56056 0.07519
3110.27479 0.07571
3108.98902 0.07593
3107.70325 0.07571
3106.41749 0.07536
3105.13172 0.07526
3103.84595 0.07547
3102.56018 0.07574
3101.27441 0.07579
3099.98864 0.07553
3098.70287 0.07512
3097.41710 0.07478
3096.13133 0.07461
3094.84557 0.07441
3093.55980 0.07392
3092.27403 0.07315
3090.98826 0.07245
3089.70249 0.07220
3088.41672 0.07247
3087.13095 0.07297
3085.84518 0.07331
3084.55942 0.07327
3083.27365 0.07289
3081.98788 0.07245
3080.70211 0.07222
3079.41634 0.07226
3078.13057 0.07242
3076.84480 0.07250
3075.55903 0.07252
3074.27326 0.07264
3072.98750 0.07298
3071.70173 0.07338
3070.41596 0.07360
3069.13019 0.07348
3067.84442 0.07307
3066.55865 0.07250
3065.27288 0.07192
3063.98711 0.07146
3062.70135 0.07128
3061.41558 0.07142
3060.12981 0.07179
3058.84404 0.07214
3057.55827 0.07218
3056.27250 0.07178
3054.98673 0.07106
3053.70096 0.07032
3052.41519 0.06985
3051.12943 0.06975
3049.84366 0.06993
3048.55789 0.07015
3047.27212 0.07019
3045.98635 0.06998
3044.70058 0.06961
3043.41481 0.06930
3042.12904 0.06922
3040.84328 0.06929
3039.55751 0.06931
3038.27174 0.06912
3036.98597 0.06875
3035.70020 0.06836
3034.41443 0.06815
3033.12866 0.06818
3031.84289 0.06834
3030.55712 0.06851
3029.27136 0.06860
3027.98559 0.06863
3026.69982 0.06861
3025.41405 0.06848
3024.12828 0.06819
3022.84251 0.06787
3021.55674 0.06767
3020.27097 0.06767
3018.98521 0.06772
3017.69944 0.06769
3016.41367 0.06755
3015.12790 0.06738
3013.84213 0.06724
3012.55636 0.06706
3011.27059 0.06674
3009.98482 0.06628
3008.69905 0.06581
3007.41329 0.06543
3006.12752 0.06513
3004.84175 0.06486
3003.55598 0.06472
3002.27021 0.06485
3000.98444 0.06530
2999.69867 0.06587
2998.41290 0.06619
2997.12714 0.06612
2995.84137 0.06584
2994.55560 0.06558
2993.26983 0.06544
2991.98406 0.06537
2990.69829 0.06533
2989.41252 0.06538
2988.12675 0.06560
2986.84098 0.06602
2985.55522 0.06657
2984.26945 0.06703
2982.98368 0.06724
2981.69791 0.06723
2980.41214 0.06722
2979.12637 0.06738
2977.84060 0.06774
2976.55483 0.06829
2975.26907 0.06904
2973.98330 0.06985
2972.69753 0.07055
2971.41176 0.07106
2970.12599 0.07150
2968.84022 0.07204
2967.55445 0.07278
2966.26868 0.07372
2964.98291 0.07484
2963.69715 0.07609
2962.41138 0.07732
2961.12561 0.07834
2959.83984 0.07901
2958.55407 0.07939
2957.26830 0.07972
2955.98253 0.08018
2954.69676 0.08074
2953.41100 0.08113
2952.12523 0.08112
2950.83946 0.08068
2949.55369 0.08005
2948.26792 0.07955
2946.98215 0.07937
2945.69638 0.07947
2944.41061 0.07964
2943.12484 0.07966
2941.83908 0.07949
2940.55331 0.07936
2939.26754 0.07953
2937.98177 0.08008
2936.69600 0.08084
2935.41023 0.08156
2934.12446 0.08220
2932.83869 0.08281
2931.55293 0.08343
2930.26716 0.08401
2928.98139 0.08446
2927.69562 0.08470
2926.40985 0.08475
2925.12408 0.08467
2923.83831 0.08456
2922.55254 0.08435
2921.26677 0.08388
2919.98101 0.08310
2918.69524 0.08222
2917.40947 0.08148
2916.12370 0.08095
2914.83793 0.08045
2913.55216 0.07982
2912.26639 0.07909
2910.98062 0.07840
2909.69486 0.07777
2908.40909 0.07710
2907.12332 0.07631
2905.83755 0.07548
2904.55178 0.07478
2903.26601 0.07417
2901.98024 0.07350
2900.69447 0.07272
2899.40870 0.07199
2898.12294 0.07145
2896.83717 0.07109
2895.55140 0.07078
2894.26563 0.07044
2892.97986 0.07005
2891.69409 0.06956
2890.40832 0.06898
2889.12255 0.06843
2887.83678 0.06806
2886.55102 0.06794
2885.26525 0.06799
2883.97948 0.06803
2882.69371 0.06793
2881.40794 0.06771
2880.12217 0.06747
2878.83640 0.06734
2877.55063 0.06741
2876.26487 0.06766
2874.97910 0.06795
2873.69333 0.06827
2872.40756 0.06870
2871.12179 0.06917
2869.83602 0.06942
2868.55025 0.06923
2867.26448 0.06866
2865.97871 0.06813
2864.69295 0.06794
2863.40718 0.06804
2862.12141 0.06806
2860.83564 0.06774
2859.54987 0.06721
2858.26410 0.06679
2856.97833 0.06655
2855.69256 0.06631
2854.40680 0.06596
2853.12103 0.06557
2851.83526 0.06515
2850.54949 0.06461
2849.26372 0.06389
2847.97795 0.06305
2846.69218 0.06224
2845.40641 0.06161
2844.12064 0.06129
2842.83488 0.06111
2841.54911 0.06075
2840.26334 0.06002
2838.97757 0.05908
2837.69180 0.05827
2836.40603 0.05771
2835.12026 0.05728
2833.83449 0.05681
2832.54873 0.05625
2831.26296 0.05571
2829.97719 0.05532
2828.69142 0.05513
2827.40565 0.05499
2826.11988 0.05471
2824.83411 0.05423
2823.54834 0.05365
2822.26257 0.05315
2820.97681 0.05281
2819.69104 0.05266
2818.40527 0.05266
2817.11950 0.05267
2815.83373 0.05254
2814.54796 0.05224
2813.26219 0.05188
2811.97642 0.05158
2810.69066 0.05132
2809.40489 0.05108
2808.11912 0.05088
2806.83335 0.05074
2805.54758 0.05060
2804.26181 0.05044
2802.97604 0.05029
2801.69027 0.05016
2800.40450 0.05000
2799.11874 0.04980
2797.83297 0.04968
2796.54720 0.04973
2795.26143 0.04989
2793.97566 0.04997
2792.68989 0.04983
2791.40412 0.04943
2790.11835 0.04892
2788.83259 0.04849
2787.54682 0.04828
2786.26105 0.04831
2784.97528 0.04847
2783.68951 0.04860
2782.40374 0.04863
2781.11797 0.04855
2779.83220 0.04838
2778.54643 0.04816
2777.26067 0.04797
2775.97490 0.04789
2774.68913 0.04790
2773.40336 0.04786
2772.11759 0.04771
2770.83182 0.04761
2769.54605 0.04768
2768.26028 0.04781
2766.97452 0.04774
2765.68875 0.04742
2764.40298 0.04708
2763.11721 0.04688
2761.83144 0.04678
2760.54567 0.04664
2759.25990 0.04649
2757.97413 0.04639
2756.68836 0.04632
2755.40260 0.04616
2754.11683 0.04592
2752.83106 0.04572
2751.54529 0.04573
2750.25952 0.04594
2748.97375 0.04621
2747.68798 0.04636
2746.40221 0.04633
2745.11645 0.04620
2743.83068 0.04612
2742.54491 0.04613
2741.25914 0.04619
2739.97337 0.04615
2738.68760 0.04595
2737.40183 0.04564
2736.11606 0.04535
2734.83029 0.04510
2733.54453 0.04487
2732.25876 0.04464
2730.97299 0.04447
2729.68722 0.04437
2728.40145 0.04434
2727.11568 0.04432
2725.82991 0.04428
2724.54414 0.04421
2723.25838 0.04414
2721.97261 0.04410
2720.68684 0.04407
2719.40107 0.04401
2718.11530 0.04387
2716.82953 0.04371
2715.54376 0.04359
2714.25799 0.04348
2712.97222 0.04333
2711.68646 0.04318
2710.40069 0.04313
2709.11492 0.04317
2707.82915 0.04318
2706.54338 0.04312
2705.25761 0.04306
2703.97184 0.04308
2702.68607 0.04312
2701.40031 0.04310
2700.11454 0.04304
2698.82877 0.04301
2697.54300 0.04304
2696.25723 0.04301
2694.97146 0.04283
2693.68569 0.04251
2692.39992 0.04216
2691.11415 0.04195
2689.82839 0.04193
2688.54262 0.04200
2687.25685 0.04204
2685.97108 0.04198
2684.68531 0.04184
2683.39954 0.04168
2682.11377 0.04152
2680.82800 0.04135
2679.54224 0.04124
2678.25647 0.04126
2676.97070 0.04146
2675.68493 0.04175
2674.39916 0.04195
2673.11339 0.04191
2671.82762 0.04161
2670.54185 0.04119
2669.25608 0.04089
2667.97032 0.04085
2666.68455 0.04107
2665.39878 0.04138
2664.11301 0.04158
2662.82724 0.04158
2661.54147 0.04142
2660.25570 0.04116
2658.96993 0.04086
2657.68417 0.04062
2656.39840 0.04049
2655.11263 0.04047
2653.82686 0.04049
2652.54109 0.04049
2651.25532 0.04048
2649.96955 0.04050
2648.68378 0.04052
2647.39801 0.04044
2646.11225 0.04018
2644.82648 0.03979
2643.54071 0.03941
2642.25494 0.03914
2640.96917 0.03901
2639.68340 0.03894
2638.39763 0.03879
2637.11186 0.03841
2635.82609 0.03780
2634.54033 0.03717
2633.25456 0.03679
2631.96879 0.03679
2630.68302 0.03704
2629.39725 0.03734
2628.11148 0.03750
2626.82571 0.03747
2625.53994 0.03734
2624.25418 0.03722
2622.96841 0.03709
2621.68264 0.03686
2620.39687 0.03649
2619.11110 0.03609
2617.82533 0.03574
2616.53956 0.03545
2615.25379 0.03523
2613.96802 0.03507
2612.68226 0.03495
2611.39649 0.03487
2610.11072 0.03490
2608.82495 0.03510
2607.53918 0.03535
2606.25341 0.03537
2604.96764 0.03502
2603.68187 0.03447
2602.39611 0.03407
2601.11034 0.03404
2599.82457 0.03422
2598.53880 0.03432
2597.25303 0.03424
2595.96726 0.03410
2594.68149 0.03397
2593.39572 0.03380
2592.10995 0.03351
2590.82419 0.03315
2589.53842 0.03279
2588.25265 0.03249
2586.96688 0.03227
2585.68111 0.03214
2584.39534 0.03205
2583.10957 0.03196
2581.82380 0.03190
2580.53804 0.03195
2579.25227 0.03213
2577.96650 0.03244
2576.68073 0.03279
2575.39496 0.03301
2574.10919 0.03294
2572.82342 0.03262
2571.53765 0.03218
2570.25188 0.03170
2568.96612 0.03112
2567.68035 0.03046
2566.39458 0.02992
2565.10881 0.02973
2563.82304 0.02996
2562.53727 0.03046
2561.25150 0.03100
2559.96573 0.03133
2558.67997 0.03137
2557.39420 0.03119
2556.10843 0.03103
2554.82266 0.03111
2553.53689 0.03139
2552.25112 0.03161
2550.96535 0.03151
2549.67958 0.03117
2548.39381 0.03083
2547.10805 0.03072
2545.82228 0.03084
2544.53651 0.03105
2543.25074 0.03117
2541.96497 0.03110
2540.67920 0.03080
2539.39343 0.03032
2538.10766 0.02988
2536.82190 0.02976
2535.53613 0.03010
2534.25036 0.03065
2532.96459 0.03099
2531.67882 0.03090
2530.39305 0.03053
2529.10728 0.03021
2527.82151 0.03003
2526.53574 0.02991
2525.24998 0.02982
2523.96421 0.02985
2522.67844 0.03005
2521.39267 0.03023
2520.10690 0.03012
2518.82113 0.02964
2517.53536 0.02902
2516.24959 0.02853
2514.96383 0.02838
2513.67806 0.02855
2512.39229 0.02893
2511.10652 0.02940
2509.82075 0.02985
2508.53498 0.03017
2507.24921 0.03022
2505.96344 0.02996
2504.67767 0.02949
2503.39191 0.02900
2502.10614 0.02860
2500.82037 0.02836
2499.53460 0.02835
2498.24883 0.02861
2496.96306 0.02894
2495.67729 0.02910
2494.39152 0.02898
2493.10576 0.02871
2491.81999 0.02849
2490.53422 0.02845
2489.24845 0.02865
2487.96268 0.02906
2486.67691 0.02953
2485.39114 0.02985
2484.10537 0.02995
2482.81960 0.02993
2481.53384 0.02985
2480.24807 0.02964
2478.96230 0.02925
2477.67653 0.02885
2476.39076 0.02859
2475.10499 0.02850
2473.81922 0.02850
2472.53345 0.02856
2471.24769 0.02865
2469.96192 0.02866
2468.67615 0.02859
2467.39038 0.02849
2466.10461 0.02841
2464.81884 0.02830
2463.53307 0.02813
2462.24730 0.02802
2460.96153 0.02816
2459.67577 0.02855
2458.39000 0.02896
2457.10423 0.02917
2455.81846 0.02917
2454.53269 0.02909
2453.24692 0.02908
2451.96115 0.02917
2450.67538 0.02928
2449.38962 0.02927
2448.10385 0.02904
2446.81808 0.02854
2445.53231 0.02782
2444.24654 0.02707
2442.96077 0.02650
2441.67500 0.02633
2440.38923 0.02654
2439.10346 0.02686
2437.81770 0.02697
2436.53193 0.02675
2435.24616 0.02640
2433.96039 0.02623
2432.67462 0.02635
2431.38885 0.02662
2430.10308 0.02683
2428.81731 0.02692
2427.53155 0.02696
2426.24578 0.02704
2424.96001 0.02707
2423.67424 0.02699
2422.38847 0.02683
2421.10270 0.02668
2419.81693 0.02662
2418.53116 0.02662
2417.24539 0.02656
2415.95963 0.02640
2414.67386 0.02626
2413.38809 0.02628
2412.10232 0.02648
2410.81655 0.02668
2409.53078 0.02674
2408.24501 0.02663
2406.95924 0.02642
2405.67347 0.02620
2404.38771 0.02605
2403.10194 0.02600
2401.81617 0.02607
2400.53040 0.02625
2399.24463 0.02646
2397.95886 0.02652
2396.67309 0.02629
2395.38732 0.02582
2394.10156 0.02534
2392.81579 0.02511
2391.53002 0.02522
2390.24425 0.02553
2388.95848 0.02580
2387.67271 0.02590
2386.38694 0.02586
2385.10117 0.02586
2383.81540 0.02599
2382.52964 0.02623
2381.24387 0.02653
2379.95810 0.02677
2378.67233 0.02710
2377.38656 0.02735
2376.10079 0.02724
2374.81502 0.02689
2373.52925 0.02695
2372.24349 0.02732
2370.95772 0.02744
2369.67195 0.02726
2368.38618 0.02711
2367.10041 0.02733
2365.81464 0.02764
2364.52887 0.02792
2363.24310 0.02811
2361.95733 0.02828
2360.67157 0.02850
2359.38580 0.02843
2358.10003 0.02791
2356.81426 0.02718
2355.52849 0.02647
2354.24272 0.02584
2352.95695 0.02541
2351.67118 0.02562
2350.38542 0.02601
2349.09965 0.02610
2347.81388 0.02630
2346.52811 0.02699
2345.24234 0.02747
2343.95657 0.02702
2342.67080 0.02574
2341.38503 0.02584
2340.09926 0.02693
2338.81350 0.02662
2337.52773 0.02531
2336.24196 0.02573
2334.95619 0.02700
2333.67042 0.02701
2332.38465 0.02607
2331.09888 0.02690
2329.81311 0.02704
2328.52735 0.02627
2327.24158 0.02688
2325.95581 0.02810
2324.67004 0.02869
2323.38427 0.02857
2322.09850 0.02867
2320.81273 0.02823
2319.52696 0.02778
2318.24119 0.02752
2316.95543 0.02728
2315.66966 0.02722
2314.38389 0.02702
2313.09812 0.02666
2311.81235 0.02638
2310.52658 0.02593
2309.24081 0.02545
2307.95504 0.02527
2306.66928 0.02525
2305.38351 0.02531
2304.09774 0.02521
2302.81197 0.02495
2301.52620 0.02470
2300.24043 0.02452
2298.95466 0.02443
2297.66889 0.02437
2296.38312 0.02431
2295.09736 0.02424
2293.81159 0.02414
2292.52582 0.02404
2291.24005 0.02389
2289.95428 0.02366
2288.66851 0.02340
2287.38274 0.02321
2286.09697 0.02316
2284.81121 0.02323
2283.52544 0.02334
2282.23967 0.02350
2280.95390 0.02366
2279.66813 0.02366
2278.38236 0.02331
2277.09659 0.02262
2275.81082 0.02178
2274.52505 0.02097
2273.23929 0.02032
2271.95352 0.02001
2270.66775 0.02010
2269.38198 0.02045
2268.09621 0.02075
2266.81044 0.02076
2265.52467 0.02043
2264.23890 0.01982
2262.95314 0.01930
2261.66737 0.01930
2260.38160 0.01997
2259.09583 0.02096
2257.81006 0.02170
2256.52429 0.02179
2255.23852 0.02129
2253.95275 0.02053
2252.66698 0.01983
2251.38122 0.01926
2250.09545 0.01880
2248.80968 0.01842
2247.52391 0.01812
2246.23814 0.01785
2244.95237 0.01758
2243.66660 0.01735
2242.38083 0.01736
2241.09507 0.01768
2239.80930 0.01812
2238.52353 0.01834
2237.23776 0.01812
2235.95199 0.01770
2234.66622 0.01753
2233.38045 0.01779
2232.09468 0.01817
2230.80891 0.01814
2229.52315 0.01753
2228.23738 0.01665
2226.95161 0.01592
2225.66584 0.01551
2224.38007 0.01521
2223.09430 0.01484
2221.80853 0.01449
2220.52276 0.01441
2219.23700 0.01463
2217.95123 0.01500
2216.66546 0.01530
2215.37969 0.01527
2214.09392 0.01477
2212.80815 0.01394
2211.52238 0.01321
2210.23661 0.01295
2208.95084 0.01331
2207.66508 0.01418
2206.37931 0.01521
2205.09354 0.01581
2203.80777 0.01554
2202.52200 0.01466
2201.23623 0.01396
2199.95046 0.01401
2198.66469 0.01475
2197.37893 0.01574
2196.09316 0.01644
2194.80739 0.01634
2193.52162 0.01512
2192.23585 0.01314
2190.95008 0.01134
2189.66431 0.01059
2188.37854 0.01111
2187.09277 0.01237
2185.80701 0.01350
2184.52124 0.01375
2183.23547 0.01288
2181.94970 0.01119
2180.66393 0.00940
2179.37816 0.00830
2178.09239 0.00817
2176.80662 0.00852
2175.52085 0.00858
2174.23509 0.00817
2172.94932 0.00796
2171.66355 0.00870
2170.37778 0.01033
2169.09201 0.01195
2167.80624 0.01255
2166.52047 0.01187
2165.23470 0.01060
2163.94894 0.00976
2162.66317 0.00981
2161.37740 0.01022
2160.09163 0.00994
2158.80586 0.00844
2157.52009 0.00624
2156.23432 0.00446
2154.94855 0.00373
2153.66278 0.00389
2152.37702 0.00441
2151.09125 0.00502
2149.80548 0.00575
2148.51971 0.00655
2147.23394 0.00734
2145.94817 0.00814
2144.66240 0.00899
2143.37663 0.00965
2142.09087 0.00982
2140.80510 0.00959
2139.51933 0.00931
2138.23356 0.00911
2136.94779 0.00873
2135.66202 0.00807
2134.37625 0.00753
2133.09048 0.00768
2131.80471 0.00865
2130.51895 0.01005
2129.23318 0.01132
2127.94741 0.01220
2126.66164 0.01271
2125.37587 0.01286
2124.09010 0.01270
2122.80433 0.01258
2121.51856 0.01289
2120.23280 0.01359
2118.94703 0.01417
2117.66126 0.01429
2116.37549 0.01416
2115.08972 0.01422
2113.80395 0.01456
2112.51818 0.01484
2111.23241 0.01459
2109.94664 0.01362
2108.66088 0.01230
2107.37511 0.01129
2106.08934 0.01109
2104.80357 0.01157
2103.51780 0.01218
2102.23203 0.01250
2100.94626 0.01264
2099.66049 0.01471
2098.37473 0.01582
2097.08896 0.01582
2095.80319 0.01520
2094.51742 0.01416
2093.23165 0.01302
2091.94588 0.01229
2090.66011 0.01223
2089.37434 0.01268
2088.08857 0.01317
2086.80281 0.01338
2085.51704 0.01333
2084.23127 0.01329
2082.94550 0.01340
2081.65973 0.01357
2080.37396 0.01357
2079.08819 0.01340
2077.80242 0.01332
2076.51666 0.01359
2075.23089 0.01411
2073.94512 0.01445
2072.65935 0.01430
2071.37358 0.01375
2070.08781 0.01312
2068.80204 0.01267
2067.51627 0.01246
2066.23050 0.01242
2064.94474 0.01231
2063.65897 0.01194
2062.37320 0.01130
2061.08743 0.01052
2059.80166 0.00973
2058.51589 0.00898
2057.23012 0.00835
2055.94435 0.00806
2054.65859 0.00829
2053.37282 0.00893
2052.08705 0.00959
2050.80128 0.00998
2049.51551 0.01012
2048.22974 0.01012
2046.94397 0.00987
2045.65820 0.00911
2044.37243 0.00789
2043.08667 0.00661
2041.80090 0.00566
2040.51513 0.00528
2039.22936 0.00561
2037.94359 0.00668
2036.65782 0.00808
2035.37205 0.00901
2034.08628 0.00890
2032.80052 0.00781
2031.51475 0.00644
2030.22898 0.00556
2028.94321 0.00543
2027.65744 0.00569
2026.37167 0.00585
2025.08590 0.00574
2023.80013 0.00549
2022.51436 0.00513
2021.22860 0.00473
2019.94283 0.00447
2018.65706 0.00453
2017.37129 0.00487
2016.08552 0.00532
2014.79975 0.00589
2013.51398 0.00666
2012.22821 0.00771
2010.94245 0.00895
2009.65668 0.01019
2008.37091 0.01110
2007.08514 0.01131
2005.79937 0.01072
2004.51360 0.00968
2003.22783 0.00867
2001.94206 0.00789
2000.65629 0.00729
1999.37053 0.00692
1998.08476 0.00700
1996.79899 0.00757
1995.51322 0.00828
1994.22745 0.00869
1992.94168 0.00875
1991.65591 0.00884
1990.37014 0.00919
1989.08438 0.00952
1987.79861 0.00941
1986.51284 0.00895
1985.22707 0.00866
1983.94130 0.00901
1982.65553 0.00998
1981.36976 0.01131
1980.08399 0.01277
1978.79822 0.01420
1977.51246 0.01535
1976.22669 0.01604
1974.94092 0.01628
1973.65515 0.01620
1972.36938 0.01577
1971.08361 0.01487
1969.79784 0.01354
1968.51207 0.01219
1967.22631 0.01126
1965.94054 0.01081
1964.65477 0.01055
1963.36900 0.01021
1962.08323 0.00981
1960.79746 0.00965
1959.51169 0.00997
1958.22592 0.01066
1956.94015 0.01136
1955.65439 0.01188
1954.36862 0.01238
1953.08285 0.01299
1951.79708 0.01350
1950.51131 0.01354
1949.22554 0.01314
1947.93977 0.01282
1946.65400 0.01307
1945.36823 0.01390
1944.08247 0.01489
1942.79670 0.01556
1941.51093 0.01571
1940.22516 0.01547
1938.93939 0.01504
1937.65362 0.01465
1936.36785 0.01442
1935.08208 0.01438
1933.79632 0.01443
1932.51055 0.01449
1931.22478 0.01451
1929.93901 0.01445
1928.65324 0.01425
1927.36747 0.01396
1926.08170 0.01370
1924.79593 0.01357
1923.51016 0.01357
1922.22440 0.01369
1920.93863 0.01395
1919.65286 0.01430
1918.36709 0.01462
1917.08132 0.01489
1915.79555 0.01517
1914.50978 0.01542
1913.22401 0.01548
1911.93825 0.01519
1910.65248 0.01465
1909.36671 0.01415
1908.08094 0.01387
1906.79517 0.01378
1905.50940 0.01376
1904.22363 0.01381
1902.93786 0.01405
1901.65209 0.01449
1900.36633 0.01494
1899.08056 0.01522
1897.79479 0.01522
1896.50902 0.01498
1895.22325 0.01462
1893.93748 0.01438
1892.65171 0.01441
1891.36594 0.01466
1890.08018 0.01486
1888.79441 0.01486
1887.50864 0.01478
1886.22287 0.01485
1884.93710 0.01510
1883.65133 0.01533
1882.36556 0.01539
1881.07979 0.01530
1879.79402 0.01527
1878.50826 0.01540
1877.22249 0.01562
1875.93672 0.01581
1874.65095 0.01589
1873.36518 0.01582
1872.07941 0.01566
1870.79364 0.01551
1869.50787 0.01548
1868.22211 0.01556
1866.93634 0.01565
1865.65057 0.01561
1864.36480 0.01540
1863.07903 0.01514
1861.79326 0.01496
1860.50749 0.01490
1859.22172 0.01494
1857.93595 0.01504
1856.65019 0.01519
1855.36442 0.01533
1854.07865 0.01532
1852.79288 0.01517
1851.50711 0.01503
1850.22134 0.01510
1848.93557 0.01538
1847.64980 0.01566
1846.36404 0.01574
1845.07827 0.01560
1843.79250 0.01541
1842.50673 0.01529
1841.22096 0.01521
1839.93519 0.01510
1838.64942 0.01494
1837.36365 0.01479
1836.07788 0.01470
1834.79212 0.01469
1833.50635 0.01481
1832.22058 0.01503
1830.93481 0.01528
1829.64904 0.01551
1828.36327 0.01574
1827.07750 0.01604
1825.79173 0.01644
1824.50597 0.01688
1823.22020 0.01721
1821.93443 0.01736
1820.64866 0.01731
1819.36289 0.01714
1818.07712 0.01684
1816.79135 0.01639
1815.50558 0.01588
1814.21981 0.01543
1812.93405 0.01514
1811.64828 0.01501
1810.36251 0.01502
1809.07674 0.01511
1807.79097 0.01526
1806.50520 0.01541
1805.21943 0.01556
1803.93366 0.01564
1802.64790 0.01567
1801.36213 0.01568
1800.07636 0.01571
1798.79059 0.01575
1797.50482 0.01577
1796.21905 0.01580
1794.93328 0.01594
1793.64751 0.01622
1792.36174 0.01652
1791.07598 0.01670
1789.79021 0.01672
1788.50444 0.01674
1787.21867 0.01687
1785.93290 0.01705
1784.64713 0.01720
1783.36136 0.01729
1782.07559 0.01733
1780.78983 0.01731
1779.50406 0.01718
1778.21829 0.01699
1776.93252 0.01681
1775.64675 0.01675
1774.36098 0.01681
1773.07521 0.01694
1771.78944 0.01709
1770.50367 0.01718
1769.21791 0.01717
1767.93214 0.01709
1766.64637 0.01699
1765.36060 0.01694
1764.07483 0.01700
1762.78906 0.01716
1761.50329 0.01737
1760.21752 0.01751
1758.93176 0.01754
1757.64599 0.01752
1756.36022 0.01757
1755.07445 0.01777
1753.78868 0.01803
1752.50291 0.01822
1751.21714 0.01827
1749.93137 0.01820
1748.64560 0.01809
1747.35984 0.01803
1746.07407 0.01806
1744.78830 0.01814
1743.50253 0.01826
1742.21676 0.01838
1740.93099 0.01846
1739.64522 0.01851
1738.35945 0.01862
1737.07369 0.01882
1735.78792 0.01907
1734.50215 0.01929
1733.21638 0.01940
1731.93061 0.01938
1730.64484 0.01929
1729.35907 0.01923
1728.07330 0.01926
1726.78753 0.01936
1725.50177 0.01947
1724.21600 0.01961
1722.93023 0.01984
1721.64446 0.02024
1720.35869 0.02075
1719.07292 0.02126
1717.78715 0.02168
1716.50138 0.02195
1715.21561 0.02210
1713.92985 0.02220
1712.64408 0.02237
1711.35831 0.02270
1710.07254 0.02316
1708.78677 0.02368
1707.50100 0.02417
1706.21523 0.02461
1704.92946 0.02509
1703.64370 0.02569
1702.35793 0.02634
1701.07216 0.02697
1699.78639 0.02754
1698.50062 0.02799
1697.21485 0.02827
1695.92908 0.02841
1694.64331 0.02847
1693.35754 0.02849
1692.07178 0.02853
1690.78601 0.02873
1689.50024 0.02920
1688.21447 0.02988
1686.92870 0.03058
1685.64293 0.03113
1684.35716 0.03143
1683.07139 0.03154
1681.78563 0.03154
1680.49986 0.03159
1679.21409 0.03183
1677.92832 0.03229
1676.64255 0.03286
1675.35678 0.03340
1674.07101 0.03383
1672.78524 0.03413
1671.49947 0.03433
1670.21371 0.03450
1668.92794 0.03469
1667.64217 0.03493
1666.35640 0.03522
1665.07063 0.03557
1663.78486 0.03594
1662.49909 0.03627
1661.21332 0.03651
1659.92756 0.03666
1658.64179 0.03684
1657.35602 0.03720
1656.07025 0.03775
1654.78448 0.03834
1653.49871 0.03875
1652.21294 0.03886
1650.92717 0.03872
1649.64140 0.03849
1648.35564 0.03832
1647.06987 0.03824
1645.78410 0.03818
1644.49833 0.03809
1643.21256 0.03801
1641.92679 0.03801
1640.64102 0.03814
1639.35525 0.03843
1638.06949 0.03879
1636.78372 0.03909
1635.49795 0.03918
1634.21218 0.03902
1632.92641 0.03871
1631.64064 0.03841
1630.35487 0.03827
1629.06910 0.03830
1627.78333 0.03842
1626.49757 0.03854
1625.21180 0.03859
1623.92603 0.03854
1622.64026 0.03844
1621.35449 0.03838
1620.06872 0.03844
1618.78295 0.03859
1617.49718 0.03875
1616.21142 0.03883
1614.92565 0.03883
1613.63988 0.03877
1612.35411 0.03874
1611.06834 0.03877
1609.78257 0.03884
1608.49680 0.03889
1607.21103 0.03894
1605.92526 0.03902
1604.63950 0.03917
1603.35373 0.03935
1602.06796 0.03954
1600.78219 0.03969
1599.49642 0.03983
1598.21065 0.03996
1596.92488 0.04009
1595.63911 0.04021
1594.35335 0.04030
1593.06758 0.04040
1591.78181 0.04054
1590.49604 0.04074
1589.21027 0.04096
1587.92450 0.04117
1586.63873 0.04137
1585.35296 0.04157
1584.06719 0.04182
1582.78143 0.04212
1581.49566 0.04249
1580.20989 0.04294
1578.92412 0.04348
1577.63835 0.04402
1576.35258 0.04446
1575.06681 0.04475
1573.78104 0.04494
1572.49528 0.04515
1571.20951 0.04545
1569.92374 0.04582
1568.63797 0.04617
1567.35220 0.04641
1566.06643 0.04658
1564.78066 0.04679
1563.49489 0.04716
1562.20912 0.04772
1560.92336 0.04838
1559.63759 0.04896
1558.35182 0.04935
1557.06605 0.04951
1555.78028 0.04953
1554.49451 0.04958
1553.20874 0.04978
1551.92297 0.05008
1550.63721 0.05041
1549.35144 0.05074
1548.06567 0.05108
1546.77990 0.05143
1545.49413 0.05178
1544.20836 0.05213
1542.92259 0.05244
1541.63682 0.05265
1540.35105 0.05265
1539.06529 0.05242
1537.77952 0.05207
1536.49375 0.05176
1535.20798 0.05162
1533.92221 0.05166
1532.63644 0.05183
1531.35067 0.05207
1530.06490 0.05239
1528.77914 0.05281
1527.49337 0.05335
1526.20760 0.05401
1524.92183 0.05477
1523.63606 0.05561
1522.35029 0.05646
1521.06452 0.05735
1519.77875 0.05830
1518.49298 0.05931
1517.20722 0.06039
1515.92145 0.06152
1514.63568 0.06272
1513.34991 0.06398
1512.06414 0.06539
1510.77837 0.06699
1509.49260 0.06873
1508.20683 0.07045
1506.92107 0.07201
1505.63530 0.07334
1504.34953 0.07445
1503.06376 0.07543
1501.77799 0.07644
1500.49222 0.07755
1499.20645 0.07871
1497.92068 0.07981
1496.63491 0.08077
1495.34915 0.08160
1494.06338 0.08232
1492.77761 0.08300
1491.49184 0.08375
1490.20607 0.08464
1488.92030 0.08568
1487.63453 0.08684
1486.34876 0.08807
1485.06299 0.08938
1483.77723 0.09077
1482.49146 0.09228
1481.20569 0.09391
1479.91992 0.09566
1478.63415 0.09746
1477.34838 0.09924
1476.06261 0.10095
1474.77684 0.10250
1473.49108 0.10384
1472.20531 0.10493
1470.91954 0.10583
1469.63377 0.10662
1468.34800 0.10740
1467.06223 0.10820
1465.77646 0.10895
1464.49069 0.10961
1463.20492 0.11018
1461.91916 0.11079
1460.63339 0.11159
1459.34762 0.11258
1458.06185 0.11362
1456.77608 0.11452
1455.49031 0.11518
1454.20454 0.11562
1452.91877 0.11591
1451.63301 0.11613
1450.34724 0.11625
1449.06147 0.11622
1447.77570 0.11599
1446.48993 0.11552
1445.20416 0.11485
1443.91839 0.11404
1442.63262 0.11315
1441.34685 0.11227
1440.06109 0.11149
1438.77532 0.11087
1437.48955 0.11043
1436.20378 0.11018
1434.91801 0.11014
1433.63224 0.11035
1432.34647 0.11087
1431.06070 0.11173
1429.77494 0.11293
1428.48917 0.11442
1427.20340 0.11614
1425.91763 0.11804
1424.63186 0.12004
1423.34609 0.12208
1422.06032 0.12407
1420.77455 0.12592
1419.48878 0.12755
1418.20302 0.12888
1416.91725 0.12989
1415.63148 0.13059
1414.34571 0.13103
1413.05994 0.13119
1411.77417 0.13104
1410.48840 0.13054
1409.20263 0.12969
1407.91687 0.12853
1406.63110 0.12708
1405.34533 0.12535
1404.05956 0.12331
1402.77379 0.12098
1401.48802 0.11841
1400.20225 0.11566
1398.91648 0.11281
1397.63071 0.10987
1396.34495 0.10685
1395.05918 0.10377
1393.77341 0.10070
1392.48764 0.09771
1391.20187 0.09481
1389.91610 0.09203
1388.63033 0.08936
1387.34456 0.08678
1386.05880 0.08426
1384.77303 0.08176
1383.48726 0.07927
1382.20149 0.07682
1380.91572 0.07443
1379.62995 0.07209
1378.34418 0.06977
1377.05841 0.06739
1375.77264 0.06492
1374.48688 0.06238
1373.20111 0.05981
1371.91534 0.05728
1370.62957 0.05485
1369.34380 0.05261
1368.05803 0.05061
1366.77226 0.04882
1365.48649 0.04718
1364.20073 0.04559
1362.91496 0.04400
1361.62919 0.04247
1360.34342 0.04103
1359.05765 0.03975
1357.77188 0.03861
1356.48611 0.03760
1355.20034 0.03667
1353.91457 0.03578
1352.62881 0.03492
1351.34304 0.03411
1350.05727 0.03336
1348.77150 0.03266
1347.48573 0.03200
1346.19996 0.03135
1344.91419 0.03074
1343.62842 0.03019
1342.34266 0.02971
1341.05689 0.02928
1339.77112 0.02886
1338.48535 0.02843
1337.19958 0.02804
1335.91381 0.02771
1334.62804 0.02743
1333.34227 0.02713
1332.05650 0.02678
1330.77074 0.02639
1329.48497 0.02602
1328.19920 0.02573
1326.91343 0.02553
1325.62766 0.02541
1324.34189 0.02528
1323.05612 0.02510
1321.77035 0.02486
1320.48459 0.02461
1319.19882 0.02441
1317.91305 0.02427
1316.62728 0.02411
1315.34151 0.02388
1314.05574 0.02360
1312.76997 0.02333
1311.48420 0.02311
1310.19843 0.02298
1308.91267 0.02292
1307.62690 0.02290
1306.34113 0.02287
1305.05536 0.02280
1303.76959 0.02267
1302.48382 0.02252
1301.19805 0.02236
1299.91228 0.02222
1298.62652 0.02209
1297.34075 0.02196
1296.05498 0.02183
1294.76921 0.02171
1293.48344 0.02162
1292.19767 0.02154
1290.91190 0.02145
1289.62613 0.02133
1288.34036 0.02116
1287.05460 0.02098
1285.76883 0.02082
1284.48306 0.02071
1283.19729 0.02062
1281.91152 0.02052
1280.62575 0.02041
1279.33998 0.02030
1278.05421 0.02022
1276.76845 0.02017
1275.48268 0.02011
1274.19691 0.02003
1272.91114 0.01996
1271.62537 0.01989
1270.33960 0.01984
1269.05383 0.01975
1267.76806 0.01964
1266.48229 0.01952
1265.19653 0.01944
1263.91076 0.01939
1262.62499 0.01935
1261.33922 0.01930
1260.05345 0.01925
1258.76768 0.01919
1257.48191 0.01915
1256.19614 0.01909
1254.91037 0.01903
1253.62461 0.01898
1252.33884 0.01894
1251.05307 0.01892
1249.76730 0.01889
1248.48153 0.01884
1247.19576 0.01879
1245.90999 0.01875
1244.62422 0.01870
1243.33846 0.01863
1242.05269 0.01855
1240.76692 0.01847
1239.48115 0.01840
1238.19538 0.01835
1236.90961 0.01832
1235.62384 0.01828
1234.33807 0.01821
1233.05230 0.01811
1231.76654 0.01799
1230.48077 0.01787
1229.19500 0.01777
1227.90923 0.01773
1226.62346 0.01775
1225.33769 0.01782
1224.05192 0.01788
1222.76615 0.01790
1221.48039 0.01785
1220.19462 0.01777
1218.90885 0.01772
1217.62308 0.01772
1216.33731 0.01775
1215.05154 0.01777
1213.76577 0.01775
1212.48000 0.01773
1211.19423 0.01774
1209.90847 0.01777
1208.62270 0.01779
1207.33693 0.01778
1206.05116 0.01777
1204.76539 0.01777
1203.47962 0.01781
1202.19385 0.01789
1200.90808 0.01788
1199.62232 0.01773
1198.33655 0.01783
1197.05078 0.01788
1195.76501 0.01787
1194.47924 0.01788
1193.19347 0.01797
1191.90770 0.01814
1190.62193 0.01832
1189.33616 0.01841
1188.05040 0.01839
1186.76463 0.01832
1185.47886 0.01828
1184.19309 0.01831
1182.90732 0.01843
1181.62155 0.01860
1180.33578 0.01876
1179.05001 0.01885
1177.76425 0.01888
1176.47848 0.01893
1175.19271 0.01903
1173.90694 0.01917
1172.62117 0.01938
1171.33540 0.01967
1170.04963 0.02005
1168.76386 0.02048
1167.47809 0.02089
1166.19233 0.02125
1164.90656 0.02158
1163.62079 0.02188
1162.33502 0.02218
1161.04925 0.02251
1159.76348 0.02289
1158.47771 0.02336
1157.19194 0.02392
1155.90618 0.02456
1154.62041 0.02522
1153.33464 0.02588
1152.04887 0.02658
1150.76310 0.02734
1149.47733 0.02814
1148.19156 0.02899
1146.90579 0.02992
1145.62002 0.03097
1144.33426 0.03218
1143.04849 0.03352
1141.76272 0.03493
1140.47695 0.03637
1139.19118 0.03784
1137.90541 0.03940
1136.61964 0.04107
1135.33387 0.04289
1134.04811 0.04491
1132.76234 0.04722
1131.47657 0.04986
1130.19080 0.05281
1128.90503 0.05599
1127.61926 0.05936
1126.33349 0.06292
1125.04772 0.06670
1123.76195 0.07069
1122.47619 0.07486
1121.19042 0.07918
1119.90465 0.08369
1118.61888 0.08832
1117.33311 0.09299
1116.04734 0.09760
1114.76157 0.10210
1113.47580 0.10645
1112.19004 0.11065
1110.90427 0.11479
1109.61850 0.11898
1108.33273 0.12325
1107.04696 0.12751
1105.76119 0.13165
1104.47542 0.13561
1103.18965 0.13946
1101.90388 0.14332
1100.61812 0.14726
1099.33235 0.15119
1098.04658 0.15500
1096.76081 0.15860
1095.47504 0.16201
1094.18927 0.16530
1092.90350 0.16851
1091.61773 0.17159
1090.33197 0.17451
1089.04620 0.17726
1087.76043 0.17991
1086.47466 0.18255
1085.18889 0.18525
1083.90312 0.18805
1082.61735 0.19092
1081.33158 0.19387
1080.04581 0.19701
1078.76005 0.20045
1077.47428 0.20420
1076.18851 0.20816
1074.90274 0.21223
1073.61697 0.21639
1072.33120 0.22072
1071.04543 0.22524
1069.75966 0.22993
1068.47390 0.23476
1067.18813 0.23971
1065.90236 0.24481
1064.61659 0.25009
1063.33082 0.25554
1062.04505 0.26114
1060.75928 0.26680
1059.47351 0.27244
1058.18774 0.27801
1056.90198 0.28351
1055.61621 0.28897
1054.33044 0.29441
1053.04467 0.29989
1051.75890 0.30546
1050.47313 0.31119
1049.18736 0.31711
1047.90159 0.32319
1046.61583 0.32934
1045.33006 0.33555
1044.04429 0.34189
1042.75852 0.34840
1041.47275 0.35507
1040.18698 0.36188
1038.90121 0.36884
1037.61544 0.37598
1036.32967 0.38329
1035.04391 0.39074
1033.75814 0.39816
1032.47237 0.40533
1031.18660 0.41203
1029.90083 0.41815
1028.61506 0.42374
1027.32929 0.42886
1026.04352 0.43352
1024.75775 0.43767
1023.47199 0.44121
1022.18622 0.44409
1020.90045 0.44628
1019.61468 0.44774
1018.32891 0.44840
1017.04314 0.44818
1015.75737 0.44708
1014.47160 0.44510
1013.18584 0.44222
1011.90007 0.43841
1010.61430 0.43368
1009.32853 0.42810
1008.04276 0.42168
1006.75699 0.41438
1005.47122 0.40610
1004.18545 0.39684
1002.89968 0.38673
1001.61392 0.37595
1000.32815 0.36464
999.04238 0.35284
997.75661 0.34058
996.47084 0.32801
995.18507 0.31529
993.89930 0.30253
992.61353 0.28983
991.32777 0.27726
990.04200 0.26495
988.75623 0.25303
987.47046 0.24157
986.18469 0.23057
984.89892 0.21999
983.61315 0.20984
982.32738 0.20018
981.04161 0.19111
979.75585 0.18271
978.47008 0.17510
977.18431 0.16829
975.89854 0.16225
974.61277 0.15695
973.32700 0.15243
972.04123 0.14886
970.75546 0.14636
969.46970 0.14498
968.18393 0.14463
966.89816 0.14522
965.61239 0.14655
964.32662 0.14831
963.04085 0.15008
961.75508 0.15139
960.46931 0.15180
959.18354 0.15099
957.89778 0.14886
956.61201 0.14556
955.32624 0.14144
954.04047 0.13684
952.75470 0.13204
951.46893 0.12724
950.18316 0.12257
948.89739 0.11810
947.61163 0.11384
946.32586 0.10976
945.04009 0.10583
943.75432 0.10207
942.46855 0.09851
941.18278 0.09517
939.89701 0.09201
938.61124 0.08899
937.32547 0.08608
936.03971 0.08333
934.75394 0.08083
933.46817 0.07863
932.18240 0.07668
930.89663 0.07488
929.61086 0.07318
928.32509 0.07155
927.03932 0.06999
925.75356 0.06852
924.46779 0.06718
923.18202 0.06598
921.89625 0.06489
920.61048 0.06385
919.32471 0.06284
918.03894 0.06187
916.75317 0.06095
915.46740 0.06015
914.18164 0.05947
912.89587 0.05889
911.61010 0.05831
910.32433 0.05768
909.03856 0.05700
907.75279 0.05635
906.46702 0.05577
905.18125 0.05528
903.89549 0.05480
902.60972 0.05430
901.32395 0.05380
900.03818 0.05340
898.75241 0.05313
897.46664 0.05295
896.18087 0.05277
894.89510 0.05261
893.60933 0.05253
892.32357 0.05258
891.03780 0.05273
889.75203 0.05300
888.46626 0.05352
887.18049 0.05450
885.89472 0.05618
884.60895 0.05877
883.32318 0.06236
882.03742 0.06668
880.75165 0.07111
879.46588 0.07483
878.18011 0.07744
876.89434 0.07921
875.60857 0.08081
874.32280 0.08255
873.03703 0.08408
871.75126 0.08471
870.46550 0.08396
869.17973 0.08190
867.89396 0.07892
866.60819 0.07550
865.32242 0.07205
864.03665 0.06878
862.75088 0.06576
861.46511 0.06296
860.17935 0.06037
858.89358 0.05803
857.60781 0.05603
856.32204 0.05442
855.03627 0.05315
853.75050 0.05214
852.46473 0.05128
851.17896 0.05049
849.89319 0.04974
848.60743 0.04906
847.32166 0.04846
846.03589 0.04794
844.75012 0.04743
843.46435 0.04692
842.17858 0.04641
840.89281 0.04595
839.60704 0.04554
838.32128 0.04519
837.03551 0.04490
835.74974 0.04469
834.46397 0.04454
833.17820 0.04441
831.89243 0.04423
830.60666 0.04393
829.32089 0.04352
828.03512 0.04310
826.74936 0.04280
825.46359 0.04265
824.17782 0.04259
822.89205 0.04253
821.60628 0.04242
820.32051 0.04227
819.03474 0.04211
817.74897 0.04193
816.46321 0.04176
815.17744 0.04165
813.89167 0.04164
812.60590 0.04164
811.32013 0.04158
810.03436 0.04139
808.74859 0.04113
807.46282 0.04096
806.17705 0.04092
804.89129 0.04095
803.60552 0.04092
802.31975 0.04076
801.03398 0.04056
799.74821 0.04041
798.46244 0.04039
797.17667 0.04048
795.89090 0.04059
794.60513 0.04064
793.31937 0.04060
792.03360 0.04052
790.74783 0.04040
789.46206 0.04023
788.17629 0.04004
786.89052 0.03989
785.60475 0.03982
784.31898 0.03978
783.03322 0.03975
781.74745 0.03975
780.46168 0.03980
779.17591 0.03989
777.89014 0.03998
776.60437 0.04000
775.31860 0.03996
774.03283 0.03987
772.74706 0.03979
771.46130 0.03977
770.17553 0.03981
768.88976 0.03989
767.60399 0.03992
766.31822 0.03990
765.03245 0.03983
763.74668 0.03975
762.46091 0.03967
761.17515 0.03966
759.88938 0.03977
758.60361 0.03997
757.31784 0.04014
756.03207 0.04021
754.74630 0.04018
753.46053 0.04013
752.17476 0.04008
750.88899 0.04004
749.60323 0.04001
748.31746 0.03993
747.03169 0.03972
745.74592 0.03940
744.46015 0.03908
743.17438 0.03893
741.88861 0.03899
740.60284 0.03917
739.31708 0.03936
738.03131 0.03944
736.74554 0.03939
735.45977 0.03924
734.17400 0.03907
732.88823 0.03890
731.60246 0.03876
730.31669 0.03863
729.03092 0.03858
727.74516 0.03864
726.45939 0.03878
725.17362 0.03891
723.88785 0.03900
722.60208 0.03904
721.31631 0.03909
720.03054 0.03915
718.74477 0.03920
717.45901 0.03923
716.17324 0.03922
714.88747 0.03917
713.60170 0.03907
712.31593 0.03894
711.03016 0.03882
709.74439 0.03872
708.45862 0.03865
707.17285 0.03864
705.88709 0.03869
704.60132 0.03877
703.31555 0.03883
702.02978 0.03881
700.74401 0.03873
699.45824 0.03863
698.17247 0.03853
696.88670 0.03849
695.60094 0.03851
694.31517 0.03857
693.02940 0.03865
691.74363 0.03868
690.45786 0.03864
689.17209 0.03859
687.88632 0.03854
686.60055 0.03848
685.31478 0.03839
684.02902 0.03830
682.74325 0.03826
681.45748 0.03825
680.17171 0.03825
678.88594 0.03823
677.60017 0.03823
676.31440 0.03829
675.02863 0.03839
673.74287 0.03853
672.45710 0.03872
671.17133 0.03897
669.88556 0.03927
668.59979 0.03955
667.31402 0.03963
666.02825 0.03958
664.74248 0.03935
663.45671 0.03901
662.17095 0.03865
660.88518 0.03838
659.59941 0.03823
658.31364 0.03821
657.02787 0.03830
655.74210 0.03844
654.45633 0.03860
653.17056 0.03872
651.88480 0.03878
650.59903 0.03881
649.31326 0.03887
648.02749 0.03902
646.74172 0.03930
645.45595 0.03966
644.17018 0.04000
642.88441 0.04030
641.59864 0.04063
640.31288 0.04104
639.02711 0.04155
637.74134 0.04210
636.45557 0.04267
635.16980 0.04329
633.88403 0.04395
632.59826 0.04461
631.31249 0.04549
630.02673 0.04763
628.74096 0.05051
627.45519 0.04983
626.16942 0.05317
624.88365 0.05960
623.59788 0.06656
622.31211 0.07300
621.02634 0.07787
619.74057 0.08025
618.45481 0.08035
617.16904 0.07975
615.88327 0.08034
614.59750 0.08337
613.31173 0.08894
612.02596 0.09622
610.74019 0.10397
609.45442 0.11157
608.16866 0.11946
606.88289 0.12828
605.59712 0.13761
604.31135 0.14576
603.02558 0.15088
601.73981 0.15227
600.45404 0.15062
599.16827 0.14709
597.88250 0.14251
596.59674 0.13741
595.31097 0.13232
594.02520 0.12777
592.73943 0.12406
591.45366 0.12128
590.16789 0.11938
588.88212 0.11839
587.59635 0.11841
586.31059 0.11948
585.02482 0.12148
583.73905 0.12412
582.45328 0.12716
581.16751 0.13057
579.88174 0.13446
578.59597 0.13888
577.31020 0.14364
576.02443 0.14846
574.73867 0.15312
573.45290 0.15763
572.16713 0.16221
570.88136 0.16719
569.59559 0.17287
568.30982 0.17939
567.02405 0.18663
565.73828 0.19411
564.45251 0.20111
563.16675 0.20676
561.88098 0.21018
560.59521 0.21065
559.30944 0.20785
558.02367 0.20197
556.73790 0.19368
555.45213 0.18383
554.16636 0.17325
552.88060 0.16255
551.59483 0.15219
550.30906 0.14247
549.02329 0.13359
547.73752 0.12562
546.45175 0.11846
545.16598 0.11196
543.88021 0.10600
542.59444 0.10049
541.30868 0.09544
540.02291 0.09084
538.73714 0.08672
537.45137 0.08311
536.16560 0.07998
534.87983 0.07720
533.59406 0.07459
532.30829 0.07202
531.02253 0.06950
529.73676 0.06707
528.45099 0.06477
527.16522 0.06261
525.87945 0.06062
524.59368 0.05885
523.30791 0.05728
522.02214 0.05584
520.73637 0.05445
519.45061 0.05308
518.16484 0.05173
516.87907 0.05044
515.59330 0.04923
514.30753 0.04811
513.02176 0.04709
511.73599 0.04617
510.45022 0.04534
509.16446 0.04455
507.87869 0.04372
506.59292 0.04286
505.30715 0.04202
504.02138 0.04126
502.73561 0.04058
501.44984 0.03995
500.16407 0.03936
498.87830 0.03886
497.59254 0.03847
496.30677 0.03816
495.02100 0.03784
493.73523 0.03748
492.44946 0.03711
491.16369 0.03677
489.87792 0.03647
488.59215 0.03619
487.30639 0.03599
486.02062 0.03595
484.73485 0.03609
483.44908 0.03635
482.16331 0.03664
480.87754 0.03692
479.59177 0.03721
478.30600 0.03753
477.02023 0.03787
475.73447 0.03820
474.44870 0.03845
473.16293 0.03861
471.87716 0.03870
470.59139 0.03870
469.30562 0.03858
468.01985 0.03834
466.73408 0.03801
465.44832 0.03765
464.16255 0.03730
462.87678 0.03693
461.59101 0.03652
460.30524 0.03607
459.01947 0.03559
457.73370 0.03514
456.44793 0.03475
455.16216 0.03440
453.87640 0.03404
452.59063 0.03368
451.30486 0.03333
450.01909 0.03301
448.73332 0.03270
447.44755 0.03242
446.16178 0.03224
444.87601 0.03219
443.59025 0.03220
442.30448 0.03217
441.01871 0.03204
439.73294 0.03183
438.44717 0.03160
437.16140 0.03142
435.87563 0.03131
434.58986 0.03130
433.30409 0.03135
432.01833 0.03140
430.73256 0.03140
429.44679 0.03133
428.16102 0.03122
426.87525 0.03110
425.58948 0.03099
424.30371 0.03088
423.01794 0.03076
421.73218 0.03066
420.44641 0.03063
419.16064 0.03065
417.87487 0.03068
416.58910 0.03065
415.30333 0.03060
414.01756 0.03057
412.73179 0.03057
411.44602 0.03056
410.16026 0.03052
408.87449 0.03047
407.58872 0.03050
406.30295 0.03064
405.01718 0.03087
403.73141 0.03115
402.44564 0.03141
401.15987 0.03163
399.87411 0.03181
