3997.45528 0.04638
3996.16951 0.04519
3994.88374 0.04434
3993.59798 0.04367
3992.31221 0.04320
3991.02644 0.04315
3989.74067 0.04372
3988.45490 0.04480
3987.16913 0.04581
3985.88336 0.04603
3984.59759 0.04521
3983.31183 0.04392
3982.02606 0.04303
3980.74029 0.04295
3979.45452 0.04338
3978.16875 0.04384
3976.88298 0.04409
3975.59721 0.04418
3974.31144 0.04418
3973.02567 0.04415
3971.73991 0.04411
3970.45414 0.04389
3969.16837 0.04336
3967.88260 0.04268
3966.59683 0.04233
3965.31106 0.04263
3964.02529 0.04337
3962.73952 0.04398
3961.45376 0.04410
3960.16799 0.04394
3958.88222 0.04398
3957.59645 0.04448
3956.31068 0.04518
3955.02491 0.04547
3953.73914 0.04490
3952.45337 0.04361
3951.16760 0.04230
3949.88184 0.04178
3948.59607 0.04237
3947.31030 0.04361
3946.02453 0.04464
3944.73876 0.04483
3943.45299 0.04418
3942.16722 0.04315
3940.88145 0.04219
3939.59569 0.04154
3938.30992 0.04118
3937.02415 0.04098
3935.73838 0.04089
3934.45261 0.04109
3933.16684 0.04169
3931.88107 0.04249
3930.59530 0.04314
3929.30953 0.04354
3928.02377 0.04379
3926.73800 0.04382
3925.45223 0.04337
3924.16646 0.04246
3922.88069 0.04158
3921.59492 0.04141
3920.30915 0.04220
3919.02338 0.04356
3917.73762 0.04475
3916.45185 0.04536
3915.16608 0.04543
3913.88031 0.04516
3912.59454 0.04480
3911.30877 0.04457
3910.02300 0.04467
3908.73723 0.04510
3907.45146 0.04568
3906.16570 0.04623
3904.87993 0.04672
3903.59416 0.04701
3902.30839 0.04680
3901.02262 0.04601
3899.73685 0.04503
3898.45108 0.04440
3897.16531 0.04420
3895.87955 0.04411
3894.59378 0.04396
3893.30801 0.04389
3892.02224 0.04404
3890.73647 0.04426
3889.45070 0.04413
3888.16493 0.04348
3886.87916 0.04277
3885.59339 0.04262
3884.30763 0.04292
3883.02186 0.04304
3881.73609 0.04269
3880.45032 0.04230
3879.16455 0.04227
3877.87878 0.04253
3876.59301 0.04281
3875.30724 0.04306
3874.02148 0.04319
3872.73571 0.04300
3871.44994 0.04250
3870.16417 0.04224
3868.87840 0.04259
3867.59263 0.04310
3866.30686 0.04316
3865.02109 0.04278
3863.73532 0.04233
3862.44956 0.04188
3861.16379 0.04141
3859.87802 0.04117
3858.59225 0.04151
3857.30648 0.04245
3856.02071 0.04346
3854.73494 0.04408
3853.44917 0.04441
3852.16341 0.04482
3850.87764 0.04534
3849.59187 0.04561
3848.30610 0.04529
3847.02033 0.04420
3845.73456 0.04262
3844.44879 0.04107
3843.16302 0.04007
3841.87725 0.03993
3840.59149 0.04064
3839.30572 0.04197
3838.01995 0.04342
3836.73418 0.04435
3835.44841 0.04421
3834.16264 0.04303
3832.87687 0.04142
3831.59110 0.04005
3830.30534 0.03920
3829.01957 0.03884
3827.73380 0.03887
3826.44803 0.03925
3825.16226 0.03982
3823.87649 0.04030
3822.59072 0.04069
3821.30495 0.04129
3820.01918 0.04214
3818.73342 0.04271
3817.44765 0.04258
3816.16188 0.04204
3814.87611 0.04155
3813.59034 0.04114
3812.30457 0.04074
3811.01880 0.04052
3809.73303 0.04044
3808.44726 0.04023
3807.16150 0.04000
3805.87573 0.04011
3804.58996 0.04048
3803.30419 0.04077
3802.01842 0.04094
3800.73265 0.04124
3799.44688 0.04153
3798.16111 0.04136
3796.87535 0.04060
3795.58958 0.03950
3794.30381 0.03853
3793.01804 0.03815
3791.73227 0.03847
3790.44650 0.03910
3789.16073 0.03954
3787.87496 0.03980
3786.58919 0.04003
3785.30343 0.03997
3784.01766 0.03916
3782.73189 0.03777
3781.44612 0.03679
3780.16035 0.03707
3778.87458 0.03839
3777.58881 0.03972
3776.30304 0.04032
3775.01728 0.04031
3773.73151 0.04022
3772.44574 0.04041
3771.15997 0.04078
3769.87420 0.04092
3768.58843 0.04043
3767.30266 0.03943
3766.01689 0.03868
3764.73112 0.03889
3763.44536 0.03990
3762.15959 0.04080
3760.87382 0.04089
3759.58805 0.04009
3758.30228 0.03893
3757.01651 0.03830
3755.73074 0.03880
3754.44497 0.04017
3753.15921 0.04152
3751.87344 0.04200
3750.58767 0.04141
3749.30190 0.04030
3748.01613 0.03930
3746.73036 0.03837
3745.44459 0.03758
3744.15882 0.03759
3742.87305 0.03865
3741.58729 0.03991
3740.30152 0.04050
3739.01575 0.04029
3737.72998 0.03961
3736.44421 0.03887
3735.15844 0.03829
3733.87267 0.03777
3732.58690 0.03738
3731.30114 0.03741
3730.01537 0.03768
3728.72960 0.03775
3727.44383 0.03755
3726.15806 0.03747
3724.87229 0.03761
3723.58652 0.03759
3722.30075 0.03721
3721.01498 0.03674
3719.72922 0.03650
3718.44345 0.03651
3717.15768 0.03656
3715.87191 0.03654
3714.58614 0.03645
3713.30037 0.03641
3712.01460 0.03651
3710.72883 0.03685
3709.44307 0.03749
3708.15730 0.03839
3706.87153 0.03936
3705.58576 0.04005
3704.29999 0.04025
3703.01422 0.04024
3701.72845 0.04033
3700.44268 0.04029
3699.15691 0.03945
3697.87115 0.03770
3696.58538 0.03574
3695.29961 0.03436
3694.01384 0.03394
3692.72807 0.03440
3691.44230 0.03506
3690.15653 0.03506
3688.87076 0.03440
3687.58500 0.03387
3686.29923 0.03388
3685.01346 0.03430
3683.72769 0.03469
3682.44192 0.03474
3681.15615 0.03455
3679.87038 0.03459
3678.58461 0.03514
3677.29884 0.03606
3676.01308 0.03699
3674.72731 0.03761
3673.44154 0.03770
3672.15577 0.03740
3670.87000 0.03740
3669.58423 0.03812
3668.29846 0.03907
3667.01269 0.03960
3665.72693 0.03958
3664.44116 0.03927
3663.15539 0.03894
3661.86962 0.03886
3660.58385 0.03915
3659.29808 0.03951
3658.01231 0.03945
3656.72654 0.03895
3655.44077 0.03857
3654.15501 0.03880
3652.86924 0.03952
3651.58347 0.04017
3650.29770 0.04028
3649.01193 0.03974
3647.72616 0.03877
3646.44039 0.03776
3645.15462 0.03703
3643.86886 0.03674
3642.58309 0.03688
3641.29732 0.03737
3640.01155 0.03813
3638.72578 0.03903
3637.44001 0.03972
3636.15424 0.03966
3634.86847 0.03875
3633.58270 0.03758
3632.29694 0.03701
3631.01117 0.03747
3629.72540 0.03874
3628.43963 0.04005
3627.15386 0.04052
3625.86809 0.03984
3624.58232 0.03869
3623.29655 0.03794
3622.01079 0.03787
3620.72502 0.03823
3619.43925 0.03876
3618.15348 0.03937
3616.86771 0.03991
3615.58194 0.04025
3614.29617 0.04045
3613.01040 0.04072
3611.72463 0.04123
3610.43887 0.04187
3609.15310 0.04247
3607.86733 0.04285
3606.58156 0.04290
3605.29579 0.04261
3604.01002 0.04212
3602.72425 0.04174
3601.43848 0.04179
3600.15272 0.04245
3598.86695 0.04342
3597.58118 0.04421
3596.29541 0.04434
3595.00964 0.04371
3593.72387 0.04267
3592.43810 0.04207
3591.15233 0.04260
3589.86656 0.04409
3588.58080 0.04569
3587.29503 0.04656
3586.00926 0.04628
3584.72349 0.04506
3583.43772 0.04365
3582.15195 0.04278
3580.86618 0.04274
3579.58041 0.04336
3578.29464 0.04419
3577.00888 0.04479
3575.72311 0.04506
3574.43734 0.04515
3573.15157 0.04529
3571.86580 0.04551
3570.58003 0.04555
3569.29426 0.04523
3568.00849 0.04486
3566.72273 0.04497
3565.43696 0.04570
3564.15119 0.04658
3562.86542 0.04699
3561.57965 0.04676
3560.29388 0.04628
3559.00811 0.04607
3557.72234 0.04635
3556.43657 0.04692
3555.15081 0.04740
3553.86504 0.04761
3552.57927 0.04765
3551.29350 0.04767
3550.00773 0.04768
3548.72196 0.04759
3547.43619 0.04735
3546.15042 0.04706
3544.86466 0.04696
3543.57889 0.04726
3542.29312 0.04795
3541.00735 0.04871
3539.72158 0.04918
3538.43581 0.04920
3537.15004 0.04884
3535.86427 0.04819
3534.57850 0.04737
3533.29274 0.04654
3532.00697 0.04606
3530.72120 0.04621
3529.43543 0.04691
3528.14966 0.04778
3526.86389 0.04846
3525.57812 0.04891
3524.29235 0.04920
3523.00659 0.04932
3521.72082 0.04927
3520.43505 0.04914
3519.14928 0.04915
3517.86351 0.04942
3516.57774 0.04992
3515.29197 0.05057
3514.00620 0.05142
3512.72043 0.05244
3511.43467 0.05343
3510.14890 0.05399
3508.86313 0.05387
3507.57736 0.05316
3506.29159 0.05228
3505.00582 0.05166
3503.72005 0.05139
3502.43428 0.05123
3501.14852 0.05104
3499.86275 0.05103
3498.57698 0.05154
3497.29121 0.05261
3496.00544 0.05379
3494.71967 0.05448
3493.43390 0.05437
3492.14813 0.05374
3490.86236 0.05316
3489.57660 0.05304
3488.29083 0.05334
3487.00506 0.05374
3485.71929 0.05403
3484.43352 0.05427
3483.14775 0.05454
3481.86198 0.05483
3480.57621 0.05507
3479.29045 0.05526
3478.00468 0.05544
3476.71891 0.05558
3475.43314 0.05553
3474.14737 0.05522
3472.86160 0.05485
3471.57583 0.05469
3470.29006 0.05485
3469.00429 0.05512
3467.71853 0.05517
3466.43276 0.05495
3465.14699 0.05466
3463.86122 0.05456
3462.57545 0.05470
3461.28968 0.05490
3460.00391 0.05494
3458.71814 0.05482
3457.43238 0.05474
3456.14661 0.05494
3454.86084 0.05547
3453.57507 0.05612
3452.28930 0.05663
3451.00353 0.05683
3449.71776 0.05684
3448.43199 0.05688
3447.14622 0.05704
3445.86046 0.05721
3444.57469 0.05733
3443.28892 0.05754
3442.00315 0.05810
3440.71738 0.05897
3439.43161 0.05978
3438.14584 0.06013
3436.86007 0.05982
3435.57431 0.05895
3434.28854 0.05781
3433.00277 0.05687
3431.71700 0.05659
3430.43123 0.05710
3429.14546 0.05794
3427.85969 0.05840
3426.57392 0.05813
3425.28815 0.05747
3424.00239 0.05709
3422.71662 0.05741
3421.43085 0.05824
3420.14508 0.05898
3418.85931 0.05913
3417.57354 0.05872
3416.28777 0.05830
3415.00200 0.05839
3413.71624 0.05906
3412.43047 0.05984
3411.14470 0.06025
3409.85893 0.06015
3408.57316 0.05987
3407.28739 0.05982
3406.00162 0.06005
3404.71585 0.06025
3403.43008 0.06008
3402.14432 0.05963
3400.85855 0.05931
3399.57278 0.05906
3398.28701 0.05894
3397.00124 0.05931
3395.71547 0.05989
3394.42970 0.06037
3393.14393 0.06071
3391.85817 0.06094
3390.57240 0.06105
3389.28663 0.06106
3388.00086 0.06104
3386.71509 0.06108
3385.42932 0.06121
3384.14355 0.06144
3382.85778 0.06175
3381.57201 0.06207
3380.28625 0.06225
3379.00048 0.06220
3377.71471 0.06192
3376.42894 0.06153
3375.14317 0.06122
3373.85740 0.06107
3372.57163 0.06097
3371.28586 0.06077
3370.00010 0.06047
3368.71433 0.06030
3367.42856 0.06047
3366.14279 0.06094
3364.85702 0.06146
3363.57125 0.06177
3362.28548 0.06176
3360.99971 0.06156
3359.71394 0.06140
3358.42818 0.06147
3357.14241 0.06173
3355.85664 0.06198
3354.57087 0.06212
3353.28510 0.06223
3351.99933 0.06246
3350.71356 0.06280
3349.42779 0.06303
3348.14202 0.06292
3346.85626 0.06253
3345.57049 0.06218
3344.28472 0.06220
3342.99895 0.06264
3341.71318 0.06315
3340.42741 0.06329
3339.14164 0.06284
3337.85587 0.06202
3336.57011 0.06131
3335.28434 0.06108
3333.99857 0.06123
3332.71280 0.06138
3331.42703 0.06126
3330.14126 0.06094
3328.85549 0.06067
3327.56972 0.06059
3326.28395 0.06077
3324.99819 0.06121
3323.71242 0.06181
3322.42665 0.06226
3321.14088 0.06222
3319.85511 0.06165
3318.56934 0.06093
3317.28357 0.06056
3315.99780 0.06081
3314.71204 0.06151
3313.42627 0.06229
3312.14050 0.06283
3310.85473 0.06307
3309.56896 0.06326
3308.28319 0.06366
3306.99742 0.06426
3305.71165 0.06470
3304.42588 0.06464
3303.14012 0.06416
3301.85435 0.06371
3300.56858 0.06366
3299.28281 0.06387
3297.99704 0.06385
3296.71127 0.06322
3295.42550 0.06215
3294.13973 0.06128
3292.85397 0.06113
3291.56820 0.06171
3290.28243 0.06262
3288.99666 0.06344
3287.71089 0.06394
3286.42512 0.06409
3285.13935 0.06400
3283.85358 0.06387
3282.56781 0.06385
3281.28205 0.06392
3279.99628 0.06390
3278.71051 0.06364
3277.42474 0.06316
3276.13897 0.06263
3274.85320 0.06213
3273.56743 0.06167
3272.28166 0.06130
3270.99590 0.06119
3269.71013 0.06147
3268.42436 0.06218
3267.13859 0.06317
3265.85282 0.06414
3264.56705 0.06476
3263.28128 0.06486
3261.99551 0.06456
3260.70974 0.06415
3259.42398 0.06387
3258.13821 0.06374
3256.85244 0.06366
3255.56667 0.06345
3254.28090 0.06303
3252.99513 0.06241
3251.70936 0.06180
3250.42359 0.06142
3249.13783 0.06138
3247.85206 0.06156
3246.56629 0.06166
3245.28052 0.06152
3243.99475 0.06113
3242.70898 0.06059
3241.42321 0.06008
3240.13744 0.05981
3238.85167 0.05985
3237.56591 0.06003
3236.28014 0.06010
3234.99437 0.05994
3233.70860 0.05958
3232.42283 0.05912
3231.13706 0.05872
3229.85129 0.05859
3228.56552 0.05884
3227.27976 0.05924
3225.99399 0.05945
3224.70822 0.05929
3223.42245 0.05895
3222.13668 0.05882
3220.85091 0.05903
3219.56514 0.05943
3218.27937 0.05965
3216.99360 0.05953
3215.70784 0.05917
3214.42207 0.05881
3213.13630 0.05858
3211.85053 0.05846
3210.56476 0.05841
3209.27899 0.05847
3207.99322 0.05868
3206.70745 0.05886
3205.42169 0.05884
3204.13592 0.05870
3202.85015 0.05875
3201.56438 0.05917
3200.27861 0.05974
3198.99284 0.06009
3197.70707 0.06006
3196.42130 0.05977
3195.13553 0.05942
3193.84977 0.05912
3192.56400 0.05891
3191.27823 0.05882
3189.99246 0.05880
3188.70669 0.05877
3187.42092 0.05870
3186.13515 0.05863
3184.84938 0.05857
3183.56362 0.05847
3182.27785 0.05831
3180.99208 0.05818
3179.70631 0.05811
3178.42054 0.05804
3177.13477 0.05790
3175.84900 0.05772
3174.56323 0.05753
3173.27746 0.05728
3171.99170 0.05690
3170.70593 0.05644
3169.42016 0.05613
3168.13439 0.05620
3166.84862 0.05665
3165.56285 0.05720
3164.27708 0.05751
3162.99131 0.05744
3161.70555 0.05708
3160.41978 0.05657
3159.13401 0.05597
3157.84824 0.05536
3156.56247 0.05484
3155.27670 0.05449
3153.99093 0.05429
3152.70516 0.05418
3151.41939 0.05411
3150.13363 0.05401
3148.84786 0.05390
3147.56209 0.05394
3146.27632 0.05433
3144.99055 0.05502
3143.70478 0.05572
3142.41901 0.05608
3141.13324 0.05595
3139.84748 0.05548
3138.56171 0.05500
3137.27594 0.05471
3135.99017 0.05464
3134.70440 0.05469
3133.41863 0.05480
3132.13286 0.05494
3130.84709 0.05497
3129.56132 0.05470
3128.27556 0.05404
3126.98979 0.05324
3125.70402 0.05267
3124.41825 0.05254
3123.13248 0.05278
3121.84671 0.05312
3120.56094 0.05332
3119.27517 0.05326
3117.98940 0.05298
3116.70364 0.05264
3115.41787 0.05244
3114.13210 0.05247
3112.84633 0.05263
3111.56056 0.05273
3110.27479 0.05261
3108.98902 0.05221
3107.70325 0.05164
3106.41749 0.05111
3105.13172 0.05077
3103.84595 0.05067
3102.56018 0.05079
3101.27441 0.05111
3099.98864 0.05157
3098.70287 0.05211
3097.41710 0.05260
3096.13133 0.05290
3094.84557 0.05294
3093.55980 0.05275
3092.27403 0.05251
3090.98826 0.05237
3089.70249 0.05236
3088.41672 0.05239
3087.13095 0.05235
3085.84518 0.05217
3084.55942 0.05191
3083.27365 0.05164
3081.98788 0.05141
3080.70211 0.05127
3079.41634 0.05128
3078.13057 0.05151
3076.84480 0.05202
3075.55903 0.05272
3074.27326 0.05337
3072.98750 0.05373
3071.70173 0.05371
3070.41596 0.05344
3069.13019 0.05306
3067.84442 0.05255
3066.55865 0.05188
3065.27288 0.05124
3063.98711 0.05084
3062.70135 0.05066
3061.41558 0.05048
3060.12981 0.05022
3058.84404 0.05001
3057.55827 0.04996
3056.27250 0.05000
3054.98673 0.04999
3053.70096 0.04991
3052.41519 0.04985
3051.12943 0.04984
3049.84366 0.04982
3048.55789 0.04965
3047.27212 0.04931
3045.98635 0.04891
3044.70058 0.04863
3043.41481 0.04852
3042.12904 0.04855
3040.84328 0.04871
3039.55751 0.04898
3038.27174 0.04929
3036.98597 0.04947
3035.70020 0.04943
3034.41443 0.04927
3033.12866 0.04918
3031.84289 0.04920
3030.55712 0.04921
3029.27136 0.04910
3027.98559 0.04887
3026.69982 0.04865
3025.41405 0.04855
3024.12828 0.04856
3022.84251 0.04859
3021.55674 0.04855
3020.27097 0.04842
3018.98521 0.04830
3017.69944 0.04827
3016.41367 0.04828
3015.12790 0.04824
3013.84213 0.04817
3012.55636 0.04810
3011.27059 0.04802
3009.98482 0.04784
3008.69905 0.04754
3007.41329 0.04721
3006.12752 0.04698
3004.84175 0.04690
3003.55598 0.04696
3002.27021 0.04722
3000.98444 0.04755
2999.69867 0.04738
2998.41290 0.04744
2997.12714 0.04742
2995.84137 0.04735
2994.55560 0.04728
2993.26983 0.04724
2991.98406 0.04729
2990.69829 0.04746
2989.41252 0.04764
2988.12675 0.04773
2986.84098 0.04775
2985.55522 0.04781
2984.26945 0.04795
2982.98368 0.04807
2981.69791 0.04804
2980.41214 0.04790
2979.12637 0.04785
2977.84060 0.04809
2976.55483 0.04856
2975.26907 0.04908
2973.98330 0.04950
2972.69753 0.04993
2971.41176 0.05055
2970.12599 0.05135
2968.84022 0.05202
2967.55445 0.05235
2966.26868 0.05246
2964.98291 0.05269
2963.69715 0.05319
2962.41138 0.05381
2961.12561 0.05436
2959.83984 0.05480
2958.55407 0.05518
2957.26830 0.05549
2955.98253 0.05569
2954.69676 0.05576
2953.41100 0.05569
2952.12523 0.05549
2950.83946 0.05533
2949.55369 0.05548
2948.26792 0.05590
2946.98215 0.05619
2945.69638 0.05600
2944.41061 0.05546
2943.12484 0.05505
2941.83908 0.05508
2940.55331 0.05550
2939.26754 0.05604
2937.98177 0.05656
2936.69600 0.05703
2935.41023 0.05744
2934.12446 0.05780
2932.83869 0.05812
2931.55293 0.05841
2930.26716 0.05863
2928.98139 0.05881
2927.69562 0.05902
2926.40985 0.05927
2925.12408 0.05944
2923.83831 0.05937
2922.55254 0.05908
2921.26677 0.05873
2919.98101 0.05845
2918.69524 0.05822
2917.40947 0.05797
2916.12370 0.05766
2914.83793 0.05727
2913.55216 0.05680
2912.26639 0.05628
2910.98062 0.05586
2909.69486 0.05561
2908.40909 0.05541
2907.12332 0.05505
2905.83755 0.05449
2904.55178 0.05395
2903.26601 0.05366
2901.98024 0.05367
2900.69447 0.05380
2899.40870 0.05382
2898.12294 0.05361
2896.83717 0.05317
2895.55140 0.05257
2894.26563 0.05190
2892.97986 0.05128
2891.69409 0.05078
2890.40832 0.05042
2889.12255 0.05009
2887.83678 0.04970
2886.55102 0.04932
2885.26525 0.04907
2883.97948 0.04905
2882.69371 0.04918
2881.40794 0.04934
2880.12217 0.04943
2878.83640 0.04942
2877.55063 0.04942
2876.26487 0.04964
2874.97910 0.05014
2873.69333 0.05067
2872.40756 0.05087
2871.12179 0.05075
2869.83602 0.05068
2868.55025 0.05087
2867.26448 0.05112
2865.97871 0.05104
2864.69295 0.05054
2863.40718 0.04990
2862.12141 0.04947
2860.83564 0.04938
2859.54987 0.04955
2858.26410 0.04983
2856.97833 0.05005
2855.69256 0.05013
2854.40680 0.05004
2853.12103 0.04977
2851.83526 0.04936
2850.54949 0.04895
2849.26372 0.04863
2847.97795 0.04837
2846.69218 0.04804
2845.40641 0.04760
2844.12064 0.04712
2842.83488 0.04665
2841.54911 0.04609
2840.26334 0.04538
2838.97757 0.04462
2837.69180 0.04398
2836.40603 0.04347
2835.12026 0.04302
2833.83449 0.04261
2832.54873 0.04233
2831.26296 0.04221
2829.97719 0.04212
2828.69142 0.04196
2827.40565 0.04180
2826.11988 0.04171
2824.83411 0.04167
2823.54834 0.04160
2822.26257 0.04152
2820.97681 0.04152
2819.69104 0.04161
2818.40527 0.04164
2817.11950 0.04149
2815.83373 0.04114
2814.54796 0.04075
2813.26219 0.04049
2811.97642 0.04036
2810.69066 0.04022
2809.40489 0.04001
2808.11912 0.03980
2806.83335 0.03975
2805.54758 0.03985
2804.26181 0.03988
2802.97604 0.03972
2801.69027 0.03946
2800.40450 0.03932
2799.11874 0.03938
2797.83297 0.03952
2796.54720 0.03967
2795.26143 0.03980
2793.97566 0.03988
2792.68989 0.03980
2791.40412 0.03953
2790.11835 0.03922
2788.83259 0.03898
2787.54682 0.03883
2786.26105 0.03871
2784.97528 0.03859
2783.68951 0.03850
2782.40374 0.03842
2781.11797 0.03836
2779.83220 0.03836
2778.54643 0.03842
2777.26067 0.03851
2775.97490 0.03856
2774.68913 0.03853
2773.40336 0.03843
2772.11759 0.03828
2770.83182 0.03816
2769.54605 0.03813
2768.26028 0.03817
2766.97452 0.03816
2765.68875 0.03801
2764.40298 0.03776
2763.11721 0.03758
2761.83144 0.03758
2760.54567 0.03766
2759.25990 0.03765
2757.97413 0.03746
2756.68836 0.03720
2755.40260 0.03706
2754.11683 0.03714
2752.83106 0.03740
2751.54529 0.03763
2750.25952 0.03772
2748.97375 0.03769
2747.68798 0.03757
2746.40221 0.03732
2745.11645 0.03692
2743.83068 0.03654
2742.54491 0.03641
2741.25914 0.03654
2739.97337 0.03674
2738.68760 0.03684
2737.40183 0.03686
2736.11606 0.03688
2734.83029 0.03686
2733.54453 0.03679
2732.25876 0.03677
2730.97299 0.03686
2729.68722 0.03696
2728.40145 0.03685
2727.11568 0.03650
2725.82991 0.03614
2724.54414 0.03598
2723.25838 0.03597
2721.97261 0.03594
2720.68684 0.03584
2719.40107 0.03576
2718.11530 0.03576
2716.82953 0.03576
2715.54376 0.03565
2714.25799 0.03547
2712.97222 0.03534
2711.68646 0.03527
2710.40069 0.03513
2709.11492 0.03493
2707.82915 0.03477
2706.54338 0.03471
2705.25761 0.03475
2703.97184 0.03487
2702.68607 0.03505
2701.40031 0.03519
2700.11454 0.03516
2698.82877 0.03497
2697.54300 0.03479
2696.25723 0.03473
2694.97146 0.03480
2693.68569 0.03489
2692.39992 0.03486
2691.11415 0.03465
2689.82839 0.03434
2688.54262 0.03412
2687.25685 0.03409
2685.97108 0.03413
2684.68531 0.03413
2683.39954 0.03408
2682.11377 0.03408
2680.82800 0.03414
2679.54224 0.03422
2678.25647 0.03425
2676.97070 0.03419
2675.68493 0.03409
2674.39916 0.03398
2673.11339 0.03390
2671.82762 0.03385
2670.54185 0.03384
2669.25608 0.03385
2667.97032 0.03383
2666.68455 0.03368
2665.39878 0.03339
2664.11301 0.03312
2662.82724 0.03308
2661.54147 0.03331
2660.25570 0.03365
2658.96993 0.03392
2657.68417 0.03403
2656.39840 0.03406
2655.11263 0.03412
2653.82686 0.03422
2652.54109 0.03432
2651.25532 0.03428
2649.96955 0.03399
2648.68378 0.03350
2647.39801 0.03299
2646.11225 0.03270
2644.82648 0.03272
2643.54071 0.03292
2642.25494 0.03311
2640.96917 0.03313
2639.68340 0.03295
2638.39763 0.03268
2637.11186 0.03247
2635.82609 0.03238
2634.54033 0.03237
2633.25456 0.03233
2631.96879 0.03225
2630.68302 0.03219
2629.39725 0.03222
2628.11148 0.03232
2626.82571 0.03232
2625.53994 0.03210
2624.25418 0.03169
2622.96841 0.03123
2621.68264 0.03088
2620.39687 0.03067
2619.11110 0.03053
2617.82533 0.03032
2616.53956 0.03005
2615.25379 0.02986
2613.96802 0.02988
2612.68226 0.03004
2611.39649 0.03013
2610.11072 0.03003
2608.82495 0.02981
2607.53918 0.02966
2606.25341 0.02972
2604.96764 0.02994
2603.68187 0.03015
2602.39611 0.03030
2601.11034 0.03037
2599.82457 0.03029
2598.53880 0.02992
2597.25303 0.02930
2595.96726 0.02864
2594.68149 0.02818
2593.39572 0.02800
2592.10995 0.02804
2590.82419 0.02819
2589.53842 0.02835
2588.25265 0.02853
2586.96688 0.02873
2585.68111 0.02892
2584.39534 0.02899
2583.10957 0.02884
2581.82380 0.02848
2580.53804 0.02809
2579.25227 0.02783
2577.96650 0.02777
2576.68073 0.02784
2575.39496 0.02794
2574.10919 0.02804
2572.82342 0.02817
2571.53765 0.02830
2570.25188 0.02840
2568.96612 0.02849
2567.68035 0.02864
2566.39458 0.02879
2565.10881 0.02879
2563.82304 0.02847
2562.53727 0.02780
2561.25150 0.02700
2559.96573 0.02638
2558.67997 0.02603
2557.39420 0.02582
2556.10843 0.02563
2554.82266 0.02551
2553.53689 0.02554
2552.25112 0.02575
2550.96535 0.02601
2549.67958 0.02615
2548.39381 0.02601
2547.10805 0.02570
2545.82228 0.02551
2544.53651 0.02564
2543.25074 0.02597
2541.96497 0.02621
2540.67920 0.02623
2539.39343 0.02616
2538.10766 0.02618
2536.82190 0.02629
2535.53613 0.02636
2534.25036 0.02632
2532.96459 0.02633
2531.67882 0.02648
2530.39305 0.02666
2529.10728 0.02665
2527.82151 0.02645
2526.53574 0.02630
2525.24998 0.02640
2523.96421 0.02676
2522.67844 0.02720
2521.39267 0.02747
2520.10690 0.02737
2518.82113 0.02694
2517.53536 0.02640
2516.24959 0.02597
2514.96383 0.02573
2513.67806 0.02560
2512.39229 0.02549
2511.10652 0.02551
2509.82075 0.02584
2508.53498 0.02639
2507.24921 0.02674
2505.96344 0.02658
2504.67767 0.02600
2503.39191 0.02539
2502.10614 0.02501
2500.82037 0.02488
2499.53460 0.02495
2498.24883 0.02512
2496.96306 0.02524
2495.67729 0.02521
2494.39152 0.02504
2493.10576 0.02486
2491.81999 0.02481
2490.53422 0.02487
2489.24845 0.02494
2487.96268 0.02492
2486.67691 0.02486
2485.39114 0.02490
2484.10537 0.02505
2482.81960 0.02513
2481.53384 0.02509
2480.24807 0.02506
2478.96230 0.02513
2477.67653 0.02522
2476.39076 0.02513
2475.10499 0.02485
2473.81922 0.02457
2472.53345 0.02448
2471.24769 0.02456
2469.96192 0.02464
2468.67615 0.02460
2467.39038 0.02451
2466.10461 0.02460
2464.81884 0.02489
2463.53307 0.02521
2462.24730 0.02534
2460.96153 0.02529
2459.67577 0.02517
2458.39000 0.02509
2457.10423 0.02505
2455.81846 0.02506
2454.53269 0.02512
2453.24692 0.02520
2451.96115 0.02532
2450.67538 0.02558
2449.38962 0.02592
2448.10385 0.02612
2446.81808 0.02603
2445.53231 0.02568
2444.24654 0.02529
2442.96077 0.02504
2441.67500 0.02497
2440.38923 0.02501
2439.10346 0.02502
2437.81770 0.02489
2436.53193 0.02459
2435.24616 0.02423
2433.96039 0.02401
2432.67462 0.02411
2431.38885 0.02454
2430.10308 0.02504
2428.81731 0.02533
2427.53155 0.02530
2426.24578 0.02509
2424.96001 0.02485
2423.67424 0.02458
2422.38847 0.02424
2421.10270 0.02384
2419.81693 0.02349
2418.53116 0.02320
2417.24539 0.02299
2415.95963 0.02293
2414.67386 0.02311
2413.38809 0.02348
2412.10232 0.02391
2410.81655 0.02424
2409.53078 0.02439
2408.24501 0.02424
2406.95924 0.02369
2405.67347 0.02289
2404.38771 0.02222
2403.10194 0.02203
2401.81617 0.02229
2400.53040 0.02278
2399.24463 0.02390
2397.95886 0.02353
2396.67309 0.02318
2395.38732 0.02320
2394.10156 0.02329
2392.81579 0.02328
2391.53002 0.02315
2390.24425 0.02294
2388.95848 0.02275
2387.67271 0.02267
2386.38694 0.02269
2385.10117 0.02276
2383.81540 0.02277
2382.52964 0.02263
2381.24387 0.02233
2379.95810 0.02197
2378.67233 0.02189
2377.38656 0.02203
2376.10079 0.02211
2374.81502 0.02218
2373.52925 0.02288
2372.24349 0.02407
2370.95772 0.02497
2369.67195 0.02521
2368.38618 0.02512
2367.10041 0.02522
2365.81464 0.02537
2364.52887 0.02549
2363.24310 0.02553
2361.95733 0.02566
2360.67157 0.02619
2359.38580 0.02657
2358.10003 0.02635
2356.81426 0.02560
2355.52849 0.02463
2354.24272 0.02367
2352.95695 0.02320
2351.67118 0.02382
2350.38542 0.02471
2349.09965 0.02486
2347.81388 0.02466
2346.52811 0.02514
2345.24234 0.02554
2343.95657 0.02453
2342.67080 0.02261
2341.38503 0.02319
2340.09926 0.02573
2338.81350 0.02580
2337.52773 0.02356
2336.24196 0.02394
2334.95619 0.02588
2333.67042 0.02507
2332.38465 0.02270
2331.09888 0.02387
2329.81311 0.02476
2328.52735 0.02343
2327.24158 0.02417
2325.95581 0.02586
2324.67004 0.02574
2323.38427 0.02531
2322.09850 0.02594
2320.81273 0.02542
2319.52696 0.02512
2318.24119 0.02516
2316.95543 0.02452
2315.66966 0.02415
2314.38389 0.02380
2313.09812 0.02321
2311.81235 0.02308
2310.52658 0.02280
2309.24081 0.02246
2307.95504 0.02256
2306.66928 0.02261
2305.38351 0.02257
2304.09774 0.02227
2302.81197 0.02192
2301.52620 0.02193
2300.24043 0.02212
2298.95466 0.02231
2297.66889 0.02235
2296.38312 0.02235
2295.09736 0.02245
2293.81159 0.02257
2292.52582 0.02262
2291.24005 0.02248
2289.95428 0.02223
2288.66851 0.02197
2287.38274 0.02173
2286.09697 0.02145
2284.81121 0.02110
2283.52544 0.02081
2282.23967 0.02078
2280.95390 0.02100
2279.66813 0.02123
2278.38236 0.02122
2277.09659 0.02099
2275.81082 0.02080
2274.52505 0.02080
2273.23929 0.02093
2271.95352 0.02100
2270.66775 0.02089
2269.38198 0.02058
2268.09621 0.02016
2266.81044 0.01983
2265.52467 0.01975
2264.23890 0.01982
2262.95314 0.01982
2261.66737 0.01949
2260.38160 0.01865
2259.09583 0.01744
2257.81006 0.01627
2256.52429 0.01555
2255.23852 0.01552
2253.95275 0.01630
2252.66698 0.01763
2251.38122 0.01876
2250.09545 0.01933
2248.80968 0.02013
2247.52391 0.01909
2246.23814 0.01794
2244.95237 0.01744
2243.66660 0.01757
2242.38083 0.01785
2241.09507 0.01776
2239.80930 0.01719
2238.52353 0.01642
2237.23776 0.01590
2235.95199 0.01598
2234.66622 0.01661
2233.38045 0.01743
2232.09468 0.01810
2230.80891 0.01842
2229.52315 0.01831
2228.23738 0.01772
2226.95161 0.01681
2225.66584 0.01593
2224.38007 0.01533
2223.09430 0.01510
2221.80853 0.01514
2220.52276 0.01539
2219.23700 0.01576
2217.95123 0.01622
2216.66546 0.01670
2215.37969 0.01702
2214.09392 0.01697
2212.80815 0.01663
2211.52238 0.01636
2210.23661 0.01644
2208.95084 0.01673
2207.66508 0.01676
2206.37931 0.01621
2205.09354 0.01525
2203.80777 0.01442
2202.52200 0.01404
2201.23623 0.01386
2199.95046 0.01343
2198.66469 0.01264
2197.37893 0.01179
2196.09316 0.01117
2194.80739 0.01095
2193.52162 0.01138
2192.23585 0.01253
2190.95008 0.01394
2189.66431 0.01484
2188.37854 0.01480
2187.09277 0.01395
2185.80701 0.01262
2184.52124 0.01126
2183.23547 0.01047
2181.94970 0.01073
2180.66393 0.01179
2179.37816 0.01275
2178.09239 0.01286
2176.80662 0.01226
2175.52085 0.01167
2174.23509 0.01159
2172.94932 0.01189
2171.66355 0.01221
2170.37778 0.01246
2169.09201 0.01274
2167.80624 0.01296
2166.52047 0.01278
2165.23470 0.01191
2163.94894 0.01036
2162.66317 0.00837
2161.37740 0.00617
2160.09163 0.00408
2158.80586 0.00275
2157.52009 0.00281
2156.23432 0.00398
2154.94855 0.00503
2153.66278 0.00496
2152.37702 0.00419
2151.09125 0.00405
2149.80548 0.00529
2148.51971 0.00727
2147.23394 0.00883
2145.94817 0.00953
2144.66240 0.00975
2143.37663 0.00992
2142.09087 0.01004
2140.80510 0.00990
2139.51933 0.00946
2138.23356 0.00896
2136.94779 0.00872
2135.66202 0.00892
2134.37625 0.00948
2133.09048 0.01012
2131.80471 0.01051
2130.51895 0.01055
2129.23318 0.01033
2127.94741 0.01004
2126.66164 0.00995
2125.37587 0.01025
2124.09010 0.01085
2122.80433 0.01138
2121.51856 0.01153
2120.23280 0.01148
2118.94703 0.01177
2117.66126 0.01268
2116.37549 0.01383
2115.08972 0.01447
2113.80395 0.01424
2112.51818 0.01351
2111.23241 0.01305
2109.94664 0.01323
2108.66088 0.01377
2107.37511 0.01413
2106.08934 0.01405
2104.80357 0.01369
2103.51780 0.01337
2102.23203 0.01317
2100.94626 0.01297
2099.66049 0.01459
2098.37473 0.01529
2097.08896 0.01484
2095.80319 0.01413
2094.51742 0.01348
2093.23165 0.01296
2091.94588 0.01270
2090.66011 0.01262
2089.37434 0.01245
2088.08857 0.01201
2086.80281 0.01146
2085.51704 0.01114
2084.23127 0.01129
2082.94550 0.01185
2081.65973 0.01259
2080.37396 0.01326
2079.08819 0.01369
2077.80242 0.01385
2076.51666 0.01387
2075.23089 0.01396
2073.94512 0.01430
2072.65935 0.01471
2071.37358 0.01480
2070.08781 0.01432
2068.80204 0.01342
2067.51627 0.01255
2066.23050 0.01198
2064.94474 0.01161
2063.65897 0.01110
2062.37320 0.01028
2061.08743 0.00931
2059.80166 0.00851
2058.51589 0.00806
2057.23012 0.00783
2055.94435 0.00750
2054.65859 0.00708
2053.37282 0.00705
2052.08705 0.00791
2050.80128 0.00958
2049.51551 0.01128
2048.22974 0.01218
2046.94397 0.01197
2045.65820 0.01106
2044.37243 0.01014
2043.08667 0.00980
2041.80090 0.01023
2040.51513 0.01130
2039.22936 0.01261
2037.94359 0.01362
2036.65782 0.01387
2035.37205 0.01328
2034.08628 0.01216
2032.80052 0.01096
2031.51475 0.00980
2030.22898 0.00848
2028.94321 0.00695
2027.65744 0.00568
2026.37167 0.00521
2025.08590 0.00555
2023.80013 0.00606
2022.51436 0.00619
2021.22860 0.00606
2019.94283 0.00629
2018.65706 0.00720
2017.37129 0.00846
2016.08552 0.00935
2014.79975 0.00952
2013.51398 0.00932
2012.22821 0.00933
2010.94245 0.00974
2009.65668 0.01016
2008.37091 0.01014
2007.08514 0.00958
2005.79937 0.00871
2004.51360 0.00785
2003.22783 0.00729
2001.94206 0.00731
2000.65629 0.00803
1999.37053 0.00910
1998.08476 0.00985
1996.79899 0.00974
1995.51322 0.00897
1994.22745 0.00823
1992.94168 0.00807
1991.65591 0.00843
1990.37014 0.00889
1989.08438 0.00916
1987.79861 0.00935
1986.51284 0.00965
1985.22707 0.01006
1983.94130 0.01051
1982.65553 0.01106
1981.36976 0.01193
1980.08399 0.01314
1978.79822 0.01443
1977.51246 0.01535
1976.22669 0.01554
1974.94092 0.01499
1973.65515 0.01402
1972.36938 0.01320
1971.08361 0.01297
1969.79784 0.01328
1968.51207 0.01361
1967.22631 0.01343
1965.94054 0.01267
1964.65477 0.01178
1963.36900 0.01128
1962.08323 0.01127
1960.79746 0.01143
1959.51169 0.01139
1958.22592 0.01099
1956.94015 0.01029
1955.65439 0.00956
1954.36862 0.00914
1953.08285 0.00927
1951.79708 0.00993
1950.51131 0.01082
1949.22554 0.01163
1947.93977 0.01223
1946.65400 0.01265
1945.36823 0.01301
1944.08247 0.01334
1942.79670 0.01361
1941.51093 0.01381
1940.22516 0.01401
1938.93939 0.01425
1937.65362 0.01444
1936.36785 0.01442
1935.08208 0.01421
1933.79632 0.01399
1932.51055 0.01392
1931.22478 0.01397
1929.93901 0.01405
1928.65324 0.01417
1927.36747 0.01437
1926.08170 0.01453
1924.79593 0.01456
1923.51016 0.01452
1922.22440 0.01467
1920.93863 0.01511
1919.65286 0.01561
1918.36709 0.01582
1917.08132 0.01558
1915.79555 0.01507
1914.50978 0.01463
1913.22401 0.01457
1911.93825 0.01477
1910.65248 0.01489
1909.36671 0.01468
1908.08094 0.01422
1906.79517 0.01375
1905.50940 0.01343
1904.22363 0.01327
1902.93786 0.01324
1901.65209 0.01338
1900.36633 0.01376
1899.08056 0.01425
1897.79479 0.01461
1896.50902 0.01465
1895.22325 0.01445
1893.93748 0.01425
1892.65171 0.01426
1891.36594 0.01446
1890.08018 0.01469
1888.79441 0.01483
1887.50864 0.01482
1886.22287 0.01468
1884.93710 0.01448
1883.65133 0.01429
1882.36556 0.01418
1881.07979 0.01415
1879.79402 0.01419
1878.50826 0.01427
1877.22249 0.01436
1875.93672 0.01441
1874.65095 0.01441
1873.36518 0.01439
1872.07941 0.01443
1870.79364 0.01454
1869.50787 0.01466
1868.22211 0.01470
1866.93634 0.01459
1865.65057 0.01433
1864.36480 0.01404
1863.07903 0.01381
1861.79326 0.01370
1860.50749 0.01368
1859.22172 0.01370
1857.93595 0.01372
1856.65019 0.01376
1855.36442 0.01387
1854.07865 0.01403
1852.79288 0.01418
1851.50711 0.01423
1850.22134 0.01417
1848.93557 0.01411
1847.64980 0.01418
1846.36404 0.01439
1845.07827 0.01468
1843.79250 0.01492
1842.50673 0.01498
1841.22096 0.01481
1839.93519 0.01453
1838.64942 0.01431
1837.36365 0.01421
1836.07788 0.01417
1834.79212 0.01415
1833.50635 0.01416
1832.22058 0.01418
1830.93481 0.01419
1829.64904 0.01428
1828.36327 0.01457
1827.07750 0.01505
1825.79173 0.01561
1824.50597 0.01608
1823.22020 0.01634
1821.93443 0.01635
1820.64866 0.01617
1819.36289 0.01585
1818.07712 0.01537
1816.79135 0.01475
1815.50558 0.01410
1814.21981 0.01357
1812.93405 0.01321
1811.64828 0.01306
1810.36251 0.01306
1809.07674 0.01314
1807.79097 0.01326
1806.50520 0.01344
1805.21943 0.01371
1803.93366 0.01399
1802.64790 0.01419
1801.36213 0.01425
1800.07636 0.01426
1798.79059 0.01430
1797.50482 0.01442
1796.21905 0.01462
1794.93328 0.01484
1793.64751 0.01497
1792.36174 0.01503
1791.07598 0.01505
1789.79021 0.01505
1788.50444 0.01499
1787.21867 0.01490
1785.93290 0.01485
1784.64713 0.01488
1783.36136 0.01497
1782.07559 0.01505
1780.78983 0.01507
1779.50406 0.01505
1778.21829 0.01500
1776.93252 0.01493
1775.64675 0.01486
1774.36098 0.01475
1773.07521 0.01464
1771.78944 0.01459
1770.50367 0.01457
1769.21791 0.01449
1767.93214 0.01438
1766.64637 0.01437
1765.36060 0.01452
1764.07483 0.01474
1762.78906 0.01494
1761.50329 0.01509
1760.21752 0.01515
1758.93176 0.01509
1757.64599 0.01498
1756.36022 0.01493
1755.07445 0.01496
1753.78868 0.01494
1752.50291 0.01486
1751.21714 0.01483
1749.93137 0.01493
1748.64560 0.01510
1747.35984 0.01522
1746.07407 0.01528
1744.78830 0.01530
1743.50253 0.01532
1742.21676 0.01535
1740.93099 0.01538
1739.64522 0.01549
1738.35945 0.01572
1737.07369 0.01596
1735.78792 0.01607
1734.50215 0.01608
1733.21638 0.01609
1731.93061 0.01604
1730.64484 0.01585
1729.35907 0.01562
1728.07330 0.01551
1726.78753 0.01552
1725.50177 0.01554
1724.21600 0.01558
1722.93023 0.01578
1721.64446 0.01621
1720.35869 0.01675
1719.07292 0.01723
1717.78715 0.01757
1716.50138 0.01776
1715.21561 0.01782
1713.92985 0.01781
1712.64408 0.01788
1711.35831 0.01812
1710.07254 0.01850
1708.78677 0.01897
1707.50100 0.01948
1706.21523 0.02003
1704.92946 0.02068
1703.64370 0.02141
1702.35793 0.02207
1701.07216 0.02270
1699.78639 0.02347
1698.50062 0.02428
1697.21485 0.02486
1695.92908 0.02524
1694.64331 0.02566
1693.35754 0.02613
1692.07178 0.02653
1690.78601 0.02699
1689.50024 0.02768
1688.21447 0.02856
1686.92870 0.02940
1685.64293 0.03007
1684.35716 0.03067
1683.07139 0.03129
1681.78563 0.03185
1680.49986 0.03234
1679.21409 0.03289
1677.92832 0.03356
1676.64255 0.03424
1675.35678 0.03492
1674.07101 0.03563
1672.78524 0.03633
1671.49947 0.03693
1670.21371 0.03747
1668.92794 0.03800
1667.64217 0.03854
1666.35640 0.03908
1665.07063 0.03960
1663.78486 0.04015
1662.49909 0.04074
1661.21332 0.04131
1659.92756 0.04181
1658.64179 0.04235
1657.35602 0.04308
1656.07025 0.04392
1654.78448 0.04462
1653.49871 0.04510
1652.21294 0.04547
1650.92717 0.04572
1649.64140 0.04569
1648.35564 0.04547
1647.06987 0.04530
1645.78410 0.04528
1644.49833 0.04530
1643.21256 0.04519
1641.92679 0.04496
1640.64102 0.04473
1639.35525 0.04464
1638.06949 0.04460
1636.78372 0.04447
1635.49795 0.04424
1634.21218 0.04390
1632.92641 0.04347
1631.64064 0.04295
1630.35487 0.04244
1629.06910 0.04202
1627.78333 0.04167
1626.49757 0.04131
1625.21180 0.04090
1623.92603 0.04044
1622.64026 0.04003
1621.35449 0.03975
1620.06872 0.03952
1618.78295 0.03924
1617.49718 0.03891
1616.21142 0.03863
1614.92565 0.03841
1613.63988 0.03815
1612.35411 0.03786
1611.06834 0.03765
1609.78257 0.03753
1608.49680 0.03747
1607.21103 0.03742
1605.92526 0.03740
1604.63950 0.03741
1603.35373 0.03747
1602.06796 0.03755
1600.78219 0.03767
1599.49642 0.03781
1598.21065 0.03799
1596.92488 0.03821
1595.63911 0.03847
1594.35335 0.03874
1593.06758 0.03902
1591.78181 0.03928
1590.49604 0.03957
1589.21027 0.03990
1587.92450 0.04030
1586.63873 0.04071
1585.35296 0.04108
1584.06719 0.04139
1582.78143 0.04172
1581.49566 0.04219
1580.20989 0.04285
1578.92412 0.04359
1577.63835 0.04423
1576.35258 0.04475
1575.06681 0.04526
1573.78104 0.04578
1572.49528 0.04625
1571.20951 0.04669
1569.92374 0.04716
1568.63797 0.04764
1567.35220 0.04807
1566.06643 0.04843
1564.78066 0.04886
1563.49489 0.04947
1562.20912 0.05011
1560.92336 0.05059
1559.63759 0.05089
1558.35182 0.05112
1557.06605 0.05127
1555.78028 0.05123
1554.49451 0.05107
1553.20874 0.05095
1551.92297 0.05092
1550.63721 0.05088
1549.35144 0.05083
1548.06567 0.05076
1546.77990 0.05066
1545.49413 0.05058
1544.20836 0.05056
1542.92259 0.05055
1541.63682 0.05040
1540.35105 0.05003
1539.06529 0.04954
1537.77952 0.04901
1536.49375 0.04843
1535.20798 0.04786
1533.92221 0.04743
1532.63644 0.04721
1531.35067 0.04709
1530.06490 0.04698
1528.77914 0.04691
1527.49337 0.04694
1526.20760 0.04709
1524.92183 0.04735
1523.63606 0.04761
1522.35029 0.04781
1521.06452 0.04803
1519.77875 0.04834
1518.49298 0.04866
1517.20722 0.04897
1515.92145 0.04936
1514.63568 0.04987
1513.34991 0.05050
1512.06414 0.05129
1510.77837 0.05224
1509.49260 0.05318
1508.20683 0.05394
1506.92107 0.05450
1505.63530 0.05502
1504.34953 0.05551
1503.06376 0.05594
1501.77799 0.05637
1500.49222 0.05692
1499.20645 0.05754
1497.92068 0.05811
1496.63491 0.05858
1495.34915 0.05898
1494.06338 0.05934
1492.77761 0.05964
1491.49184 0.05995
1490.20607 0.06037
1488.92030 0.06094
1487.63453 0.06158
1486.34876 0.06223
1485.06299 0.06287
1483.77723 0.06352
1482.49146 0.06421
1481.20569 0.06498
1479.91992 0.06586
1478.63415 0.06684
1477.34838 0.06790
1476.06261 0.06899
1474.77684 0.07001
1473.49108 0.07090
1472.20531 0.07167
1470.91954 0.07235
1469.63377 0.07291
1468.34800 0.07333
1467.06223 0.07373
1465.77646 0.07418
1464.49069 0.07474
1463.20492 0.07542
1461.91916 0.07619
1460.63339 0.07703
1459.34762 0.07789
1458.06185 0.07871
1456.77608 0.07951
1455.49031 0.08025
1454.20454 0.08082
1452.91877 0.08119
1451.63301 0.08147
1450.34724 0.08173
1449.06147 0.08187
1447.77570 0.08187
1446.48993 0.08176
1445.20416 0.08161
1443.91839 0.08143
1442.63262 0.08122
1441.34685 0.08098
1440.06109 0.08071
1438.77532 0.08040
1437.48955 0.08012
1436.20378 0.07997
1434.91801 0.08000
1433.63224 0.08019
1432.34647 0.08051
1431.06070 0.08100
1429.77494 0.08168
1428.48917 0.08250
1427.20340 0.08346
1425.91763 0.08454
1424.63186 0.08576
1423.34609 0.08708
1422.06032 0.08835
1420.77455 0.08945
1419.48878 0.09038
1418.20302 0.09120
1416.91725 0.09192
1415.63148 0.09250
1414.34571 0.09299
1413.05994 0.09337
1411.77417 0.09360
1410.48840 0.09361
1409.20263 0.09340
1407.91687 0.09297
1406.63110 0.09235
1405.34533 0.09155
1404.05956 0.09059
1402.77379 0.08949
1401.48802 0.08826
1400.20225 0.08692
1398.91648 0.08551
1397.63071 0.08400
1396.34495 0.08236
1395.05918 0.08061
1393.77341 0.07885
1392.48764 0.07713
1391.20187 0.07545
1389.91610 0.07381
1388.63033 0.07217
1387.34456 0.07052
1386.05880 0.06885
1384.77303 0.06716
1383.48726 0.06547
1382.20149 0.06381
1380.91572 0.06221
1379.62995 0.06066
1378.34418 0.05915
1377.05841 0.05760
1375.77264 0.05599
1374.48688 0.05432
1373.20111 0.05268
1371.91534 0.05109
1370.62957 0.04958
1369.34380 0.04812
1368.05803 0.04674
1366.77226 0.04543
1365.48649 0.04419
1364.20073 0.04303
1362.91496 0.04195
1361.62919 0.04094
1360.34342 0.03997
1359.05765 0.03905
1357.77188 0.03820
1356.48611 0.03746
1355.20034 0.03682
1353.91457 0.03621
1352.62881 0.03559
1351.34304 0.03498
1350.05727 0.03444
1348.77150 0.03396
1347.48573 0.03351
1346.19996 0.03307
1344.91419 0.03265
1343.62842 0.03227
1342.34266 0.03193
1341.05689 0.03160
1339.77112 0.03127
1338.48535 0.03094
1337.19958 0.03061
1335.91381 0.03029
1334.62804 0.02997
1333.34227 0.02967
1332.05650 0.02940
1330.77074 0.02914
1329.48497 0.02885
1328.19920 0.02851
1326.91343 0.02813
1325.62766 0.02779
1324.34189 0.02750
1323.05612 0.02726
1321.77035 0.02704
1320.48459 0.02683
1319.19882 0.02662
1317.91305 0.02643
1316.62728 0.02624
1315.34151 0.02605
1314.05574 0.02583
1312.76997 0.02559
1311.48420 0.02537
1310.19843 0.02519
1308.91267 0.02507
1307.62690 0.02499
1306.34113 0.02489
1305.05536 0.02472
1303.76959 0.02449
1302.48382 0.02423
1301.19805 0.02393
1299.91228 0.02363
1298.62652 0.02335
1297.34075 0.02312
1296.05498 0.02294
1294.76921 0.02282
1293.48344 0.02273
1292.19767 0.02266
1290.91190 0.02260
1289.62613 0.02252
1288.34036 0.02236
1287.05460 0.02216
1285.76883 0.02196
1284.48306 0.02183
1283.19729 0.02179
1281.91152 0.02181
1280.62575 0.02182
1279.33998 0.02176
1278.05421 0.02162
1276.76845 0.02145
1275.48268 0.02126
1274.19691 0.02110
1272.91114 0.02098
1271.62537 0.02089
1270.33960 0.02086
1269.05383 0.02089
1267.76806 0.02097
1266.48229 0.02104
1265.19653 0.02106
1263.91076 0.02099
1262.62499 0.02086
1261.33922 0.02073
1260.05345 0.02064
1258.76768 0.02058
1257.48191 0.02054
1256.19614 0.02051
1254.91037 0.02048
1253.62461 0.02044
1252.33884 0.02038
1251.05307 0.02031
1249.76730 0.02024
1248.48153 0.02016
1247.19576 0.02011
1245.90999 0.02010
1244.62422 0.02014
1243.33846 0.02020
1242.05269 0.02022
1240.76692 0.02018
1239.48115 0.02011
1238.19538 0.02004
1236.90961 0.01999
1235.62384 0.01992
1234.33807 0.01981
1233.05230 0.01967
1231.76654 0.01952
1230.48077 0.01938
1229.19500 0.01923
1227.90923 0.01908
1226.62346 0.01896
1225.33769 0.01888
1224.05192 0.01884
1222.76615 0.01877
1221.48039 0.01862
1220.19462 0.01842
1218.90885 0.01820
1217.62308 0.01800
1216.33731 0.01784
1215.05154 0.01771
1213.76577 0.01763
1212.48000 0.01762
1211.19423 0.01767
1209.90847 0.01774
1208.62270 0.01781
1207.33693 0.01786
1206.05116 0.01791
1204.76539 0.01797
1203.47962 0.01805
1202.19385 0.01803
1200.90808 0.01781
1199.62232 0.01759
1198.33655 0.01754
1197.05078 0.01746
1195.76501 0.01734
1194.47924 0.01721
1193.19347 0.01709
1191.90770 0.01700
1190.62193 0.01694
1189.33616 0.01688
1188.05040 0.01681
1186.76463 0.01676
1185.47886 0.01673
1184.19309 0.01670
1182.90732 0.01667
1181.62155 0.01665
1180.33578 0.01667
1179.05001 0.01671
1177.76425 0.01676
1176.47848 0.01682
1175.19271 0.01685
1173.90694 0.01685
1172.62117 0.01684
1171.33540 0.01686
1170.04963 0.01695
1168.76386 0.01710
1167.47809 0.01726
1166.19233 0.01737
1164.90656 0.01741
1163.62079 0.01743
1162.33502 0.01747
1161.04925 0.01757
1159.76348 0.01772
1158.47771 0.01792
1157.19194 0.01818
1155.90618 0.01848
1154.62041 0.01877
1153.33464 0.01899
1152.04887 0.01915
1150.76310 0.01927
1149.47733 0.01940
1148.19156 0.01958
1146.90579 0.01985
1145.62002 0.02024
1144.33426 0.02074
1143.04849 0.02129
1141.76272 0.02188
1140.47695 0.02248
1139.19118 0.02316
1137.90541 0.02399
1136.61964 0.02499
1135.33387 0.02611
1134.04811 0.02724
1132.76234 0.02834
1131.47657 0.02953
1130.19080 0.03091
1128.90503 0.03254
1127.61926 0.03437
1126.33349 0.03639
1125.04772 0.03859
1123.76195 0.04094
1122.47619 0.04341
1121.19042 0.04595
1119.90465 0.04856
1118.61888 0.05123
1117.33311 0.05396
1116.04734 0.05673
1114.76157 0.05949
1113.47580 0.06222
1112.19004 0.06488
1110.90427 0.06747
1109.61850 0.07000
1108.33273 0.07249
1107.04696 0.07499
1105.76119 0.07750
1104.47542 0.08002
1103.18965 0.08245
1101.90388 0.08472
1100.61812 0.08681
1099.33235 0.08884
1098.04658 0.09093
1096.76081 0.09310
1095.47504 0.09526
1094.18927 0.09729
1092.90350 0.09915
1091.61773 0.10082
1090.33197 0.10235
1089.04620 0.10379
1087.76043 0.10519
1086.47466 0.10661
1085.18889 0.10805
1083.90312 0.10951
1082.61735 0.11101
1081.33158 0.11259
1080.04581 0.11431
1078.76005 0.11617
1077.47428 0.11818
1076.18851 0.12030
1074.90274 0.12249
1073.61697 0.12476
1072.33120 0.12711
1071.04543 0.12957
1069.75966 0.13212
1068.47390 0.13475
1067.18813 0.13743
1065.90236 0.14016
1064.61659 0.14291
1063.33082 0.14571
1062.04505 0.14855
1060.75928 0.15141
1059.47351 0.15425
1058.18774 0.15697
1056.90198 0.15956
1055.61621 0.16209
1054.33044 0.16464
1053.04467 0.16720
1051.75890 0.16978
1050.47313 0.17237
1049.18736 0.17503
1047.90159 0.17773
1046.61583 0.18044
1045.33006 0.18313
1044.04429 0.18581
1042.75852 0.18848
1041.47275 0.19115
1040.18698 0.19389
1038.90121 0.19671
1037.61544 0.19956
1036.32967 0.20235
1035.04391 0.20507
1033.75814 0.20770
1032.47237 0.21023
1031.18660 0.21261
1029.90083 0.21479
1028.61506 0.21675
1027.32929 0.21847
1026.04352 0.21999
1024.75775 0.22133
1023.47199 0.22246
1022.18622 0.22331
1020.90045 0.22379
1019.61468 0.22391
1018.32891 0.22371
1017.04314 0.22322
1015.75737 0.22245
1014.47160 0.22138
1013.18584 0.22000
1011.90007 0.21830
1010.61430 0.21625
1009.32853 0.21382
1008.04276 0.21103
1006.75699 0.20788
1005.47122 0.20441
1004.18545 0.20061
1002.89968 0.19648
1001.61392 0.19209
1000.32815 0.18750
999.04238 0.18280
997.75661 0.17799
996.47084 0.17308
995.18507 0.16810
993.89930 0.16310
992.61353 0.15810
991.32777 0.15313
990.04200 0.14822
988.75623 0.14342
987.47046 0.13875
986.18469 0.13420
984.89892 0.12977
983.61315 0.12546
982.32738 0.12127
981.04161 0.11723
979.75585 0.11342
978.47008 0.10986
977.18431 0.10656
975.89854 0.10351
974.61277 0.10075
973.32700 0.09839
972.04123 0.09653
970.75546 0.09521
969.46970 0.09443
968.18393 0.09413
966.89816 0.09427
965.61239 0.09472
964.32662 0.09529
963.04085 0.09579
961.75508 0.09609
960.46931 0.09610
959.18354 0.09574
957.89778 0.09489
956.61201 0.09351
955.32624 0.09167
954.04047 0.08961
952.75470 0.08753
951.46893 0.08552
950.18316 0.08352
948.89739 0.08149
947.61163 0.07944
946.32586 0.07746
945.04009 0.07557
943.75432 0.07379
942.46855 0.07209
941.18278 0.07042
939.89701 0.06877
938.61124 0.06717
937.32547 0.06565
936.03971 0.06423
934.75394 0.06285
933.46817 0.06153
932.18240 0.06029
930.89663 0.05917
929.61086 0.05814
928.32509 0.05718
927.03932 0.05626
925.75356 0.05538
924.46779 0.05457
923.18202 0.05378
921.89625 0.05300
920.61048 0.05222
919.32471 0.05143
918.03894 0.05065
916.75317 0.04991
915.46740 0.04926
914.18164 0.04876
912.89587 0.04834
911.61010 0.04787
910.32433 0.04727
909.03856 0.04658
907.75279 0.04594
906.46702 0.04538
905.18125 0.04491
903.89549 0.04453
902.60972 0.04420
901.32395 0.04385
900.03818 0.04340
898.75241 0.04287
897.46664 0.04235
896.18087 0.04190
894.89510 0.04155
893.60933 0.04127
892.32357 0.04105
891.03780 0.04090
889.75203 0.04085
888.46626 0.04098
887.18049 0.04134
885.89472 0.04201
884.60895 0.04318
883.32318 0.04501
882.03742 0.04740
880.75165 0.04994
879.46588 0.05212
878.18011 0.05369
876.89434 0.05485
875.60857 0.05596
874.32280 0.05720
873.03703 0.05841
871.75126 0.05924
870.46550 0.05941
869.17973 0.05888
867.89396 0.05775
866.60819 0.05617
865.32242 0.05428
864.03665 0.05222
862.75088 0.05013
861.46511 0.04811
860.17935 0.04626
858.89358 0.04466
857.60781 0.04336
856.32204 0.04233
855.03627 0.04148
853.75050 0.04073
852.46473 0.04009
851.17896 0.03954
849.89319 0.03907
848.60743 0.03862
847.32166 0.03820
846.03589 0.03778
844.75012 0.03736
843.46435 0.03695
842.17858 0.03661
840.89281 0.03639
839.60704 0.03626
838.32128 0.03615
837.03551 0.03593
835.74974 0.03556
834.46397 0.03510
833.17820 0.03465
831.89243 0.03430
830.60666 0.03408
829.32089 0.03397
828.03512 0.03394
826.74936 0.03393
825.46359 0.03389
824.17782 0.03377
822.89205 0.03363
821.60628 0.03352
820.32051 0.03345
819.03474 0.03334
817.74897 0.03314
816.46321 0.03287
815.17744 0.03263
813.89167 0.03243
812.60590 0.03229
811.32013 0.03219
810.03436 0.03210
808.74859 0.03200
807.46282 0.03187
806.17705 0.03177
804.89129 0.03174
803.60552 0.03179
802.31975 0.03189
801.03398 0.03201
799.74821 0.03210
798.46244 0.03213
797.17667 0.03207
795.89090 0.03196
794.60513 0.03187
793.31937 0.03181
792.03360 0.03182
790.74783 0.03187
789.46206 0.03196
788.17629 0.03204
786.89052 0.03209
785.60475 0.03207
784.31898 0.03198
783.03322 0.03182
781.74745 0.03161
780.46168 0.03141
779.17591 0.03127
777.89014 0.03119
776.60437 0.03114
775.31860 0.03111
774.03283 0.03108
772.74706 0.03106
771.46130 0.03103
770.17553 0.03099
768.88976 0.03092
767.60399 0.03084
766.31822 0.03080
765.03245 0.03081
763.74668 0.03086
762.46091 0.03086
761.17515 0.03076
759.88938 0.03060
758.60361 0.03050
757.31784 0.03046
756.03207 0.03045
754.74630 0.03049
753.46053 0.03064
752.17476 0.03091
750.88899 0.03112
749.60323 0.03110
748.31746 0.03089
747.03169 0.03062
745.74592 0.03042
744.46015 0.03030
743.17438 0.03018
741.88861 0.03002
740.60284 0.02983
739.31708 0.02973
738.03131 0.02978
736.74554 0.02994
735.45977 0.03010
734.17400 0.03023
732.88823 0.03029
731.60246 0.03026
730.31669 0.03015
729.03092 0.03004
727.74516 0.02995
726.45939 0.02988
725.17362 0.02979
723.88785 0.02986
722.60208 0.02969
721.31631 0.02965
720.03054 0.02976
718.74477 0.02992
717.45901 0.03008
716.17324 0.03018
714.88747 0.03019
713.60170 0.03006
712.31593 0.02985
711.03016 0.02961
709.74439 0.02941
708.45862 0.02926
707.17285 0.02916
705.88709 0.02916
704.60132 0.02926
703.31555 0.02942
702.02978 0.02956
700.74401 0.02962
699.45824 0.02959
698.17247 0.02949
696.88670 0.02941
695.60094 0.02937
694.31517 0.02938
693.02940 0.02940
691.74363 0.02941
690.45786 0.02940
689.17209 0.02942
687.88632 0.02946
686.60055 0.02946
685.31478 0.02934
684.02902 0.02912
682.74325 0.02888
681.45748 0.02867
680.17171 0.02850
678.88594 0.02840
677.60017 0.02842
676.31440 0.02859
675.02863 0.02882
673.74287 0.02903
672.45710 0.02919
671.17133 0.02932
669.88556 0.02949
668.59979 0.02963
667.31402 0.02959
666.02825 0.02959
664.74248 0.02951
663.45671 0.02937
662.17095 0.02924
660.88518 0.02912
659.59941 0.02902
658.31364 0.02892
657.02787 0.02881
655.74210 0.02866
654.45633 0.02850
653.17056 0.02837
651.88480 0.02826
650.59903 0.02816
649.31326 0.02807
648.02749 0.02800
646.74172 0.02795
645.45595 0.02793
644.17018 0.02790
642.88441 0.02787
641.59864 0.02784
640.31288 0.02784
639.02711 0.02787
637.74134 0.02796
636.45557 0.02809
635.16980 0.02830
633.88403 0.02859
632.59826 0.02879
631.31249 0.02857
630.02673 0.02893
628.74096 0.03178
627.45519 0.03239
626.16942 0.03689
624.88365 0.04398
623.59788 0.05049
622.31211 0.05512
621.02634 0.05762
619.74057 0.05833
618.45481 0.05776
617.16904 0.05657
615.88327 0.05566
614.59750 0.05627
613.31173 0.05949
612.02596 0.06532
610.74019 0.07243
609.45442 0.07922
608.16866 0.08522
606.88289 0.09087
605.59712 0.09622
604.31135 0.10038
603.02558 0.10218
601.73981 0.10121
600.45404 0.09809
599.16827 0.09391
597.88250 0.08956
596.59674 0.08551
595.31097 0.08196
594.02520 0.07896
592.73943 0.07655
591.45366 0.07478
590.16789 0.07369
588.88212 0.07325
587.59635 0.07341
586.31059 0.07409
585.02482 0.07526
583.73905 0.07689
582.45328 0.07891
581.16751 0.08118
579.88174 0.08356
578.59597 0.08590
577.31020 0.08818
576.02443 0.09045
574.73867 0.09277
573.45290 0.09522
572.16713 0.09787
570.88136 0.10076
569.59559 0.10388
568.30982 0.10713
567.02405 0.11031
565.73828 0.11321
564.45251 0.11561
563.16675 0.11729
561.88098 0.11801
560.59521 0.11752
559.30944 0.11568
558.02367 0.11261
556.73790 0.10857
555.45213 0.10387
554.16636 0.09881
552.88060 0.09364
551.59483 0.08864
550.30906 0.08397
549.02329 0.07971
547.73752 0.07588
546.45175 0.07250
545.16598 0.06955
543.88021 0.06697
542.59444 0.06469
541.30868 0.06265
540.02291 0.06078
538.73714 0.05894
537.45137 0.05706
536.16560 0.05516
534.87983 0.05335
533.59406 0.05175
532.30829 0.05038
531.02253 0.04920
529.73676 0.04817
528.45099 0.04718
527.16522 0.04614
525.87945 0.04503
524.59368 0.04393
523.30791 0.04295
522.02214 0.04215
520.73637 0.04146
519.45061 0.04078
518.16484 0.03999
516.87907 0.03910
515.59330 0.03816
514.30753 0.03734
513.02176 0.03675
511.73599 0.03638
510.45022 0.03613
509.16446 0.03581
507.87869 0.03533
506.59292 0.03473
505.30715 0.03413
504.02138 0.03357
502.73561 0.03306
501.44984 0.03259
500.16407 0.03217
498.87830 0.03182
497.59254 0.03149
496.30677 0.03111
495.02100 0.03071
493.73523 0.03037
492.44946 0.03013
491.16369 0.02999
489.87792 0.02988
488.59215 0.02975
487.30639 0.02960
486.02062 0.02947
484.73485 0.02937
483.44908 0.02929
482.16331 0.02918
480.87754 0.02902
479.59177 0.02888
478.30600 0.02884
477.02023 0.02896
475.73447 0.02920
474.44870 0.02951
473.16293 0.02985
471.87716 0.03016
470.59139 0.03032
469.30562 0.03027
468.01985 0.03003
466.73408 0.02969
465.44832 0.02934
464.16255 0.02900
462.87678 0.02870
461.59101 0.02840
460.30524 0.02807
459.01947 0.02770
457.73370 0.02731
456.44793 0.02695
455.16216 0.02658
453.87640 0.02619
452.59063 0.02579
451.30486 0.02543
450.01909 0.02512
448.73332 0.02484
447.44755 0.02458
446.16178 0.02438
444.87601 0.02423
443.59025 0.02414
442.30448 0.02408
441.01871 0.02401
439.73294 0.02392
438.44717 0.02381
437.16140 0.02370
435.87563 0.02358
434.58986 0.02344
433.30409 0.02326
432.01833 0.02307
430.73256 0.02287
429.44679 0.02267
428.16102 0.02246
426.87525 0.02228
425.58948 0.02213
424.30371 0.02200
423.01794 0.02187
421.73218 0.02175
420.44641 0.02168
419.16064 0.02166
417.87487 0.02166
416.58910 0.02158
415.30333 0.02139
414.01756 0.02115
412.73179 0.02094
411.44602 0.02080
410.16026 0.02072
408.87449 0.02071
407.58872 0.02072
406.30295 0.02072
405.01718 0.02070
403.73141 0.02069
402.44564 0.02071
401.15987 0.02077
399.87411 0.02083
