3997.45528	0.01394
3996.16951	0.01428
3994.88374	0.01407
3993.59798	0.01320
3992.31221	0.01194
3991.02644	0.01076
3989.74067	0.01010
3988.45490	0.01020
3987.16913	0.01091
3985.88336	0.01187
3984.59759	0.01272
3983.31183	0.01345
3982.02606	0.01419
3980.74029	0.01490
3979.45452	0.01526
3978.16875	0.01501
3976.88298	0.01429
3975.59721	0.01347
3974.31144	0.01273
3973.02567	0.01200
3971.73991	0.01122
3970.45414	0.01060
3969.16837	0.01040
3967.88260	0.01072
3966.59683	0.01150
3965.31106	0.01255
3964.02529	0.01354
3962.73952	0.01414
3961.45376	0.01429
3960.16799	0.01419
3958.88222	0.01398
3957.59645	0.01374
3956.31068	0.01356
3955.02491	0.01365
3953.73914	0.01409
3952.45337	0.01461
3951.16760	0.01494
3949.88184	0.01501
3948.59607	0.01507
3947.31030	0.01528
3946.02453	0.01551
3944.73876	0.01543
3943.45299	0.01485
3942.16722	0.01405
3940.88145	0.01352
3939.59569	0.01360
3938.30992	0.01421
3937.02415	0.01496
3935.73838	0.01544
3934.45261	0.01538
3933.16684	0.01479
3931.88107	0.01384
3930.59530	0.01284
3929.30953	0.01210
3928.02377	0.01178
3926.73800	0.01184
3925.45223	0.01212
3924.16646	0.01256
3922.88069	0.01316
3921.59492	0.01381
3920.30915	0.01424
3919.02338	0.01417
3917.73762	0.01357
3916.45185	0.01278
3915.16608	0.01227
3913.88031	0.01227
3912.59454	0.01268
3911.30877	0.01318
3910.02300	0.01347
3908.73723	0.01353
3907.45146	0.01352
3906.16570	0.01363
3904.87993	0.01385
3903.59416	0.01399
3902.30839	0.01388
3901.02262	0.01359
3899.73685	0.01344
3898.45108	0.01362
3897.16531	0.01398
3895.87955	0.01411
3894.59378	0.01381
3893.30801	0.01326
3892.02224	0.01285
3890.73647	0.01290
3889.45070	0.01335
3888.16493	0.01389
3886.87916	0.01417
3885.59339	0.01402
3884.30763	0.01335
3883.02186	0.01232
3881.73609	0.01132
3880.45032	0.01079
3879.16455	0.01088
3877.87878	0.01145
3876.59301	0.01225
3875.30724	0.01296
3874.02148	0.01332
3872.73571	0.01328
3871.44994	0.01320
3870.16417	0.01353
3868.87840	0.01425
3867.59263	0.01478
3866.30686	0.01470
3865.02109	0.01420
3863.73532	0.01373
3862.44956	0.01344
3861.16379	0.01325
3859.87802	0.01307
3858.59225	0.01295
3857.30648	0.01294
3856.02071	0.01314
3854.73494	0.01360
3853.44917	0.01432
3852.16341	0.01500
3850.87764	0.01523
3849.59187	0.01485
3848.30610	0.01415
3847.02033	0.01357
3845.73456	0.01337
3844.44879	0.01346
3843.16302	0.01357
3841.87725	0.01343
3840.59149	0.01294
3839.30572	0.01223
3838.01995	0.01157
3836.73418	0.01117
3835.44841	0.01110
3834.16264	0.01142
3832.87687	0.01222
3831.59110	0.01341
3830.30534	0.01456
3829.01957	0.01519
3827.73380	0.01517
3826.44803	0.01481
3825.16226	0.01456
3823.87649	0.01452
3822.59072	0.01450
3821.30495	0.01425
3820.01918	0.01370
3818.73342	0.01279
3817.44765	0.01172
3816.16188	0.01100
3814.87611	0.01104
3813.59034	0.01165
3812.30457	0.01236
3811.01880	0.01281
3809.73303	0.01287
3808.44726	0.01252
3807.16150	0.01203
3805.87573	0.01178
3804.58996	0.01204
3803.30419	0.01279
3802.01842	0.01382
3800.73265	0.01474
3799.44688	0.01503
3798.16111	0.01457
3796.87535	0.01380
3795.58958	0.01329
3794.30381	0.01320
3793.01804	0.01326
3791.73227	0.01311
3790.44650	0.01258
3789.16073	0.01177
3787.87496	0.01101
3786.58919	0.01054
3785.30343	0.01039
3784.01766	0.01049
3782.73189	0.01083
3781.44612	0.01132
3780.16035	0.01175
3778.87458	0.01188
3777.58881	0.01169
3776.30304	0.01151
3775.01728	0.01172
3773.73151	0.01242
3772.44574	0.01326
3771.15997	0.01379
3769.87420	0.01377
3768.58843	0.01329
3767.30266	0.01266
3766.01689	0.01224
3764.73112	0.01221
3763.44536	0.01230
3762.15959	0.01207
3760.87382	0.01145
3759.58805	0.01078
3758.30228	0.01047
3757.01651	0.01071
3755.73074	0.01128
3754.44497	0.01185
3753.15921	0.01229
3751.87344	0.01267
3750.58767	0.01298
3749.30190	0.01309
3748.01613	0.01303
3746.73036	0.01284
3745.44459	0.01261
3744.15882	0.01247
3742.87305	0.01227
3741.58729	0.01179
3740.30152	0.01107
3739.01575	0.01038
3737.72998	0.00997
3736.44421	0.01000
3735.15844	0.01046
3733.87267	0.01097
3732.58690	0.01104
3731.30114	0.01057
3730.01537	0.00992
3728.72960	0.00957
3727.44383	0.00976
3726.15806	0.01036
3724.87229	0.01113
3723.58652	0.01202
3722.30075	0.01308
3721.01498	0.01415
3719.72922	0.01492
3718.44345	0.01522
3717.15768	0.01509
3715.87191	0.01470
3714.58614	0.01422
3713.30037	0.01378
3712.01460	0.01352
3710.72883	0.01343
3709.44307	0.01333
3708.15730	0.01298
3706.87153	0.01220
3705.58576	0.01105
3704.29999	0.00989
3703.01422	0.00921
3701.72845	0.00930
3700.44268	0.00995
3699.15691	0.01059
3697.87115	0.01076
3696.58538	0.01056
3695.29961	0.01044
3694.01384	0.01071
3692.72807	0.01134
3691.44230	0.01202
3690.15653	0.01241
3688.87076	0.01245
3687.58500	0.01239
3686.29923	0.01249
3685.01346	0.01277
3683.72769	0.01311
3682.44192	0.01336
3681.15615	0.01348
3679.87038	0.01347
3678.58461	0.01326
3677.29884	0.01277
3676.01308	0.01216
3674.72731	0.01177
3673.44154	0.01176
3672.15577	0.01198
3670.87000	0.01221
3669.58423	0.01224
3668.29846	0.01185
3667.01269	0.01120
3665.72693	0.01074
3664.44116	0.01077
3663.15539	0.01114
3661.86962	0.01147
3660.58385	0.01164
3659.29808	0.01177
3658.01231	0.01192
3656.72654	0.01204
3655.44077	0.01207
3654.15501	0.01212
3652.86924	0.01234
3651.58347	0.01279
3650.29770	0.01335
3649.01193	0.01377
3647.72616	0.01378
3646.44039	0.01327
3645.15462	0.01242
3643.86886	0.01159
3642.58309	0.01114
3641.29732	0.01119
3640.01155	0.01162
3638.72578	0.01222
3637.44001	0.01283
3636.15424	0.01330
3634.86847	0.01352
3633.58270	0.01349
3632.29694	0.01329
3631.01117	0.01295
3629.72540	0.01257
3628.43963	0.01235
3627.15386	0.01239
3625.86809	0.01266
3624.58232	0.01317
3623.29655	0.01388
3622.01079	0.01460
3620.72502	0.01506
3619.43925	0.01521
3618.15348	0.01507
3616.86771	0.01467
3615.58194	0.01415
3614.29617	0.01379
3613.01040	0.01379
3611.72463	0.01401
3610.43887	0.01413
3609.15310	0.01395
3607.86733	0.01352
3606.58156	0.01300
3605.29579	0.01265
3604.01002	0.01268
3602.72425	0.01310
3601.43848	0.01362
3600.15272	0.01402
3598.86695	0.01431
3597.58118	0.01451
3596.29541	0.01448
3595.00964	0.01405
3593.72387	0.01329
3592.43810	0.01264
3591.15233	0.01241
3589.86656	0.01258
3588.58080	0.01283
3587.29503	0.01296
3586.00926	0.01304
3584.72349	0.01333
3583.43772	0.01396
3582.15195	0.01484
3580.86618	0.01570
3579.58041	0.01620
3578.29464	0.01604
3577.00888	0.01522
3575.72311	0.01414
3574.43734	0.01341
3573.15157	0.01336
3571.86580	0.01374
3570.58003	0.01405
3569.29426	0.01407
3568.00849	0.01399
3566.72273	0.01408
3565.43696	0.01430
3564.15119	0.01435
3562.86542	0.01419
3561.57965	0.01408
3560.29388	0.01430
3559.00811	0.01483
3557.72234	0.01537
3556.43657	0.01562
3555.15081	0.01547
3553.86504	0.01506
3552.57927	0.01471
3551.29350	0.01471
3550.00773	0.01516
3548.72196	0.01594
3547.43619	0.01674
3546.15042	0.01725
3544.86466	0.01736
3543.57889	0.01726
3542.29312	0.01709
3541.00735	0.01677
3539.72158	0.01603
3538.43581	0.01490
3537.15004	0.01379
3535.86427	0.01322
3534.57850	0.01341
3533.29274	0.01418
3532.00697	0.01507
3530.72120	0.01565
3529.43543	0.01578
3528.14966	0.01568
3526.86389	0.01571
3525.57812	0.01604
3524.29235	0.01646
3523.00659	0.01661
3521.72082	0.01627
3520.43505	0.01554
3519.14928	0.01474
3517.86351	0.01416
3516.57774	0.01393
3515.29197	0.01408
3514.00620	0.01450
3512.72043	0.01504
3511.43467	0.01553
3510.14890	0.01591
3508.86313	0.01624
3507.57736	0.01654
3506.29159	0.01666
3505.00582	0.01644
3503.72005	0.01595
3502.43428	0.01550
3501.14852	0.01533
3499.86275	0.01539
3498.57698	0.01559
3497.29121	0.01596
3496.00544	0.01660
3494.71967	0.01745
3493.43390	0.01822
3492.14813	0.01865
3490.86236	0.01861
3489.57660	0.01817
3488.29083	0.01748
3487.00506	0.01677
3485.71929	0.01625
3484.43352	0.01596
3483.14775	0.01577
3481.86198	0.01558
3480.57621	0.01556
3479.29045	0.01598
3478.00468	0.01678
3476.71891	0.01745
3475.43314	0.01759
3474.14737	0.01735
3472.86160	0.01721
3471.57583	0.01740
3470.29006	0.01766
3469.00429	0.01775
3467.71853	0.01763
3466.43276	0.01741
3465.14699	0.01708
3463.86122	0.01667
3462.57545	0.01638
3461.28968	0.01645
3460.00391	0.01690
3458.71814	0.01744
3457.43238	0.01771
3456.14661	0.01753
3454.86084	0.01703
3453.57507	0.01659
3452.28930	0.01663
3451.00353	0.01727
3449.71776	0.01828
3448.43199	0.01915
3447.14622	0.01949
3445.86046	0.01925
3444.57469	0.01873
3443.28892	0.01829
3442.00315	0.01802
3440.71738	0.01776
3439.43161	0.01736
3438.14584	0.01688
3436.86007	0.01653
3435.57431	0.01651
3434.28854	0.01688
3433.00277	0.01753
3431.71700	0.01826
3430.43123	0.01881
3429.14546	0.01899
3427.85969	0.01875
3426.57392	0.01828
3425.28815	0.01784
3424.00239	0.01768
3422.71662	0.01777
3421.43085	0.01787
3420.14508	0.01777
3418.85931	0.01751
3417.57354	0.01741
3416.28777	0.01779
3415.00200	0.01862
3413.71624	0.01947
3412.43047	0.01993
3411.14470	0.01989
3409.85893	0.01961
3408.57316	0.01937
3407.28739	0.01927
3406.00162	0.01925
3404.71585	0.01927
3403.43008	0.01930
3402.14432	0.01931
3400.85855	0.01933
3399.57278	0.01942
3398.28701	0.01963
3397.00124	0.01987
3395.71547	0.01994
3394.42970	0.01970
3393.14393	0.01934
3391.85817	0.01912
3390.57240	0.01911
3389.28663	0.01914
3388.00086	0.01900
3386.71509	0.01869
3385.42932	0.01834
3384.14355	0.01807
3382.85778	0.01797
3381.57201	0.01815
3380.28625	0.01863
3379.00048	0.01931
3377.71471	0.02002
3376.42894	0.02060
3375.14317	0.02098
3373.85740	0.02112
3372.57163	0.02105
3371.28586	0.02088
3370.00010	0.02067
3368.71433	0.02047
3367.42856	0.02029
3366.14279	0.02021
3364.85702	0.02027
3363.57125	0.02041
3362.28548	0.02054
3360.99971	0.02052
3359.71394	0.02028
3358.42818	0.01979
3357.14241	0.01913
3355.85664	0.01864
3354.57087	0.01868
3353.28510	0.01924
3351.99933	0.01984
3350.71356	0.01996
3349.42779	0.01953
3348.14202	0.01893
3346.85626	0.01852
3345.57049	0.01838
3344.28472	0.01846
3342.99895	0.01865
3341.71318	0.01881
3340.42741	0.01879
3339.14164	0.01862
3337.85587	0.01852
3336.57011	0.01865
3335.28434	0.01898
3333.99857	0.01936
3332.71280	0.01957
3331.42703	0.01947
3330.14126	0.01913
3328.85549	0.01877
3327.56972	0.01865
3326.28395	0.01884
3324.99819	0.01920
3323.71242	0.01949
3322.42665	0.01961
3321.14088	0.01963
3319.85511	0.01971
3318.56934	0.01989
3317.28357	0.02010
3315.99780	0.02017
3314.71204	0.02000
3313.42627	0.01964
3312.14050	0.01925
3310.85473	0.01891
3309.56896	0.01859
3308.28319	0.01831
3306.99742	0.01820
3305.71165	0.01834
3304.42588	0.01858
3303.14012	0.01872
3301.85435	0.01869
3300.56858	0.01872
3299.28281	0.01910
3297.99704	0.01979
3296.71127	0.02042
3295.42550	0.02061
3294.13973	0.02037
3292.85397	0.01999
3291.56820	0.01973
3290.28243	0.01969
3288.99666	0.01982
3287.71089	0.02004
3286.42512	0.02020
3285.13935	0.02009
3283.85358	0.01963
3282.56781	0.01904
3281.28205	0.01865
3279.99628	0.01871
3278.71051	0.01919
3277.42474	0.01984
3276.13897	0.02045
3274.85320	0.02088
3273.56743	0.02105
3272.28166	0.02089
3270.99590	0.02040
3269.71013	0.01974
3268.42436	0.01919
3267.13859	0.01896
3265.85282	0.01910
3264.56705	0.01946
3263.28128	0.01981
3261.99551	0.01997
3260.70974	0.01989
3259.42398	0.01965
3258.13821	0.01934
3256.85244	0.01900
3255.56667	0.01868
3254.28090	0.01849
3252.99513	0.01851
3251.70936	0.01870
3250.42359	0.01893
3249.13783	0.01909
3247.85206	0.01912
3246.56629	0.01903
3245.28052	0.01889
3243.99475	0.01883
3242.70898	0.01886
3241.42321	0.01886
3240.13744	0.01874
3238.85167	0.01851
3237.56591	0.01827
3236.28014	0.01804
3234.99437	0.01781
3233.70860	0.01758
3232.42283	0.01744
3231.13706	0.01747
3229.85129	0.01763
3228.56552	0.01780
3227.27976	0.01796
3225.99399	0.01817
3224.70822	0.01850
3223.42245	0.01890
3222.13668	0.01925
3220.85091	0.01938
3219.56514	0.01927
3218.27937	0.01906
3216.99360	0.01899
3215.70784	0.01915
3214.42207	0.01940
3213.13630	0.01949
3211.85053	0.01936
3210.56476	0.01920
3209.27899	0.01926
3207.99322	0.01963
3206.70745	0.02010
3205.42169	0.02037
3204.13592	0.02031
3202.85015	0.01999
3201.56438	0.01955
3200.27861	0.01914
3198.99284	0.01886
3197.70707	0.01876
3196.42130	0.01872
3195.13553	0.01865
3193.84977	0.01857
3192.56400	0.01853
3191.27823	0.01843
3189.99246	0.01809
3188.70669	0.01755
3187.42092	0.01711
3186.13515	0.01702
3184.84938	0.01718
3183.56362	0.01728
3182.27785	0.01723
3180.99208	0.01719
3179.70631	0.01731
3178.42054	0.01745
3177.13477	0.01737
3175.84900	0.01708
3174.56323	0.01682
3173.27746	0.01684
3171.99170	0.01708
3170.70593	0.01728
3169.42016	0.01725
3168.13439	0.01707
3166.84862	0.01693
3165.56285	0.01690
3164.27708	0.01688
3162.99131	0.01675
3161.70555	0.01652
3160.41978	0.01628
3159.13401	0.01623
3157.84824	0.01650
3156.56247	0.01699
3155.27670	0.01739
3153.99093	0.01747
3152.70516	0.01721
3151.41939	0.01679
3150.13363	0.01640
3148.84786	0.01622
3147.56209	0.01629
3146.27632	0.01650
3144.99055	0.01672
3143.70478	0.01689
3142.41901	0.01705
3141.13324	0.01727
3139.84748	0.01750
3138.56171	0.01761
3137.27594	0.01746
3135.99017	0.01705
3134.70440	0.01652
3133.41863	0.01609
3132.13286	0.01593
3130.84709	0.01606
3129.56132	0.01629
3128.27556	0.01640
3126.98979	0.01626
3125.70402	0.01591
3124.41825	0.01553
3123.13248	0.01526
3121.84671	0.01518
3120.56094	0.01521
3119.27517	0.01526
3117.98940	0.01529
3116.70364	0.01534
3115.41787	0.01547
3114.13210	0.01570
3112.84633	0.01597
3111.56056	0.01623
3110.27479	0.01652
3108.98902	0.01689
3107.70325	0.01731
3106.41749	0.01766
3105.13172	0.01785
3103.84595	0.01784
3102.56018	0.01754
3101.27441	0.01698
3099.98864	0.01638
3098.70287	0.01600
3097.41710	0.01588
3096.13133	0.01584
3094.84557	0.01575
3093.55980	0.01564
3092.27403	0.01566
3090.98826	0.01583
3089.70249	0.01613
3088.41672	0.01646
3087.13095	0.01668
3085.84518	0.01667
3084.55942	0.01636
3083.27365	0.01583
3081.98788	0.01530
3080.70211	0.01507
3079.41634	0.01530
3078.13057	0.01588
3076.84480	0.01645
3075.55903	0.01672
3074.27326	0.01672
3072.98750	0.01666
3071.70173	0.01661
3070.41596	0.01647
3069.13019	0.01622
3067.84442	0.01604
3066.55865	0.01609
3065.27288	0.01634
3063.98711	0.01650
3062.70135	0.01631
3061.41558	0.01583
3060.12981	0.01535
3058.84404	0.01514
3057.55827	0.01527
3056.27250	0.01565
3054.98673	0.01615
3053.70096	0.01664
3052.41519	0.01698
3051.12943	0.01706
3049.84366	0.01688
3048.55789	0.01657
3047.27212	0.01631
3045.98635	0.01612
3044.70058	0.01591
3043.41481	0.01564
3042.12904	0.01530
3040.84328	0.01495
3039.55751	0.01463
3038.27174	0.01440
3036.98597	0.01435
3035.70020	0.01451
3034.41443	0.01479
3033.12866	0.01507
3031.84289	0.01527
3030.55712	0.01539
3029.27136	0.01549
3027.98559	0.01562
3026.69982	0.01567
3025.41405	0.01550
3024.12828	0.01505
3022.84251	0.01454
3021.55674	0.01433
3020.27097	0.01455
3018.98521	0.01496
3017.69944	0.01514
3016.41367	0.01495
3015.12790	0.01465
3013.84213	0.01456
3012.55636	0.01472
3011.27059	0.01492
3009.98482	0.01496
3008.69905	0.01487
3007.41329	0.01473
3006.12752	0.01462
3004.84175	0.01455
3003.55598	0.01452
3002.27021	0.01451
3000.98444	0.01451
2999.69867	0.01449
2998.41290	0.01447
2997.12714	0.01445
2995.84137	0.01443
2994.55560	0.01444
2993.26983	0.01453
2991.98406	0.01477
2990.69829	0.01512
2989.41252	0.01544
2988.12675	0.01558
2986.84098	0.01545
2985.55522	0.01514
2984.26945	0.01486
2982.98368	0.01476
2981.69791	0.01486
2980.41214	0.01515
2979.12637	0.01556
2977.84060	0.01604
2976.55483	0.01649
2975.26907	0.01681
2973.98330	0.01688
2972.69753	0.01658
2971.41176	0.01599
2970.12599	0.01535
2968.84022	0.01496
2967.55445	0.01492
2966.26868	0.01507
2964.98291	0.01524
2963.69715	0.01543
2962.41138	0.01572
2961.12561	0.01608
2959.83984	0.01637
2958.55407	0.01645
2957.26830	0.01637
2955.98253	0.01624
2954.69676	0.01612
2953.41100	0.01604
2952.12523	0.01599
2950.83946	0.01599
2949.55369	0.01599
2948.26792	0.01599
2946.98215	0.01601
2945.69638	0.01607
2944.41061	0.01617
2943.12484	0.01628
2941.83908	0.01637
2940.55331	0.01630
2939.26754	0.01604
2937.98177	0.01569
2936.69600	0.01552
2935.41023	0.01572
2934.12446	0.01621
2932.83869	0.01674
2931.55293	0.01706
2930.26716	0.01710
2928.98139	0.01695
2927.69562	0.01674
2926.40985	0.01653
2925.12408	0.01639
2923.83831	0.01636
2922.55254	0.01646
2921.26677	0.01663
2919.98101	0.01677
2918.69524	0.01680
2917.40947	0.01665
2916.12370	0.01632
2914.83793	0.01593
2913.55216	0.01561
2912.26639	0.01541
2910.98062	0.01529
2909.69486	0.01513
2908.40909	0.01485
2907.12332	0.01451
2905.83755	0.01429
2904.55178	0.01437
2903.26601	0.01473
2901.98024	0.01518
2900.69447	0.01550
2899.40870	0.01560
2898.12294	0.01558
2896.83717	0.01557
2895.55140	0.01560
2894.26563	0.01562
2892.97986	0.01561
2891.69409	0.01561
2890.40832	0.01562
2889.12255	0.01560
2887.83678	0.01550
2886.55102	0.01539
2885.26525	0.01531
2883.97948	0.01524
2882.69371	0.01516
2881.40794	0.01513
2880.12217	0.01519
2878.83640	0.01528
2877.55063	0.01534
2876.26487	0.01535
2874.97910	0.01534
2873.69333	0.01521
2872.40756	0.01491
2871.12179	0.01455
2869.83602	0.01433
2868.55025	0.01430
2867.26448	0.01432
2865.97871	0.01426
2864.69295	0.01412
2863.40718	0.01405
2862.12141	0.01412
2860.83564	0.01437
2859.54987	0.01474
2858.26410	0.01514
2856.97833	0.01539
2855.69256	0.01535
2854.40680	0.01503
2853.12103	0.01462
2851.83526	0.01435
2850.54949	0.01428
2849.26372	0.01430
2847.97795	0.01429
2846.69218	0.01415
2845.40641	0.01390
2844.12064	0.01365
2842.83488	0.01359
2841.54911	0.01370
2840.26334	0.01378
2838.97757	0.01365
2837.69180	0.01337
2836.40603	0.01318
2835.12026	0.01318
2833.83449	0.01327
2832.54873	0.01327
2831.26296	0.01311
2829.97719	0.01285
2828.69142	0.01263
2827.40565	0.01251
2826.11988	0.01244
2824.83411	0.01235
2823.54834	0.01224
2822.26257	0.01220
2820.97681	0.01227
2819.69104	0.01246
2818.40527	0.01273
2817.11950	0.01300
2815.83373	0.01317
2814.54796	0.01315
2813.26219	0.01297
2811.97642	0.01283
2810.69066	0.01287
2809.40489	0.01309
2808.11912	0.01329
2806.83335	0.01333
2805.54758	0.01315
2804.26181	0.01287
2802.97604	0.01265
2801.69027	0.01260
2800.40450	0.01268
2799.11874	0.01275
2797.83297	0.01272
2796.54720	0.01266
2795.26143	0.01268
2793.97566	0.01280
2792.68989	0.01293
2791.40412	0.01301
2790.11835	0.01308
2788.83259	0.01313
2787.54682	0.01310
2786.26105	0.01298
2784.97528	0.01287
2783.68951	0.01281
2782.40374	0.01277
2781.11797	0.01267
2779.83220	0.01254
2778.54643	0.01250
2777.26067	0.01255
2775.97490	0.01260
2774.68913	0.01257
2773.40336	0.01251
2772.11759	0.01248
2770.83182	0.01245
2769.54605	0.01234
2768.26028	0.01217
2766.97452	0.01201
2765.68875	0.01193
2764.40298	0.01194
2763.11721	0.01201
2761.83144	0.01211
2760.54567	0.01221
2759.25990	0.01223
2757.97413	0.01213
2756.68836	0.01199
2755.40260	0.01191
2754.11683	0.01194
2752.83106	0.01205
2751.54529	0.01221
2750.25952	0.01241
2748.97375	0.01255
2747.68798	0.01256
2746.40221	0.01240
2745.11645	0.01218
2743.83068	0.01199
2742.54491	0.01188
2741.25914	0.01188
2739.97337	0.01193
2738.68760	0.01201
2737.40183	0.01208
2736.11606	0.01213
2734.83029	0.01210
2733.54453	0.01197
2732.25876	0.01175
2730.97299	0.01158
2729.68722	0.01159
2728.40145	0.01178
2727.11568	0.01203
2725.82991	0.01215
2724.54414	0.01203
2723.25838	0.01175
2721.97261	0.01148
2720.68684	0.01129
2719.40107	0.01119
2718.11530	0.01119
2716.82953	0.01130
2715.54376	0.01144
2714.25799	0.01148
2712.97222	0.01145
2711.68646	0.01147
2710.40069	0.01159
2709.11492	0.01169
2707.82915	0.01168
2706.54338	0.01162
2705.25761	0.01165
2703.97184	0.01180
2702.68607	0.01199
2701.40031	0.01211
2700.11454	0.01219
2698.82877	0.01225
2697.54300	0.01226
2696.25723	0.01215
2694.97146	0.01195
2693.68569	0.01178
2692.39992	0.01165
2691.11415	0.01149
2689.82839	0.01128
2688.54262	0.01109
2687.25685	0.01104
2685.97108	0.01116
2684.68531	0.01130
2683.39954	0.01137
2682.11377	0.01140
2680.82800	0.01152
2679.54224	0.01175
2678.25647	0.01194
2676.97070	0.01198
2675.68493	0.01188
2674.39916	0.01169
2673.11339	0.01142
2671.82762	0.01111
2670.54185	0.01087
2669.25608	0.01080
2667.97032	0.01088
2666.68455	0.01108
2665.39878	0.01131
2664.11301	0.01150
2662.82724	0.01162
2661.54147	0.01162
2660.25570	0.01150
2658.96993	0.01133
2657.68417	0.01117
2656.39840	0.01111
2655.11263	0.01116
2653.82686	0.01128
2652.54109	0.01134
2651.25532	0.01125
2649.96955	0.01101
2648.68378	0.01080
2647.39801	0.01073
2646.11225	0.01077
2644.82648	0.01078
2643.54071	0.01072
2642.25494	0.01064
2640.96917	0.01060
2639.68340	0.01062
2638.39763	0.01074
2637.11186	0.01092
2635.82609	0.01106
2634.54033	0.01102
2633.25456	0.01082
2631.96879	0.01058
2630.68302	0.01040
2629.39725	0.01035
2628.11148	0.01047
2626.82571	0.01075
2625.53994	0.01103
2624.25418	0.01104
2622.96841	0.01074
2621.68264	0.01032
2620.39687	0.01003
2619.11110	0.00988
2617.82533	0.00972
2616.53956	0.00953
2615.25379	0.00943
2613.96802	0.00955
2612.68226	0.00980
2611.39649	0.01004
2610.11072	0.01017
2608.82495	0.01026
2607.53918	0.01040
2606.25341	0.01061
2604.96764	0.01075
2603.68187	0.01078
2602.39611	0.01077
2601.11034	0.01075
2599.82457	0.01056
2598.53880	0.01004
2597.25303	0.00927
2595.96726	0.00860
2594.68149	0.00830
2593.39572	0.00839
2592.10995	0.00875
2590.82419	0.00917
2589.53842	0.00951
2588.25265	0.00974
2586.96688	0.00990
2585.68111	0.00993
2584.39534	0.00976
2583.10957	0.00939
2581.82380	0.00904
2580.53804	0.00892
2579.25227	0.00908
2577.96650	0.00943
2576.68073	0.00981
2575.39496	0.01009
2574.10919	0.01021
2572.82342	0.01016
2571.53765	0.00994
2570.25188	0.00959
2568.96612	0.00920
2567.68035	0.00891
2566.39458	0.00880
2565.10881	0.00886
2563.82304	0.00902
2562.53727	0.00918
2561.25150	0.00930
2559.96573	0.00938
2558.67997	0.00944
2557.39420	0.00948
2556.10843	0.00951
2554.82266	0.00953
2553.53689	0.00945
2552.25112	0.00919
2550.96535	0.00879
2549.67958	0.00839
2548.39381	0.00818
2547.10805	0.00819
2545.82228	0.00837
2544.53651	0.00859
2543.25074	0.00875
2541.96497	0.00873
2540.67920	0.00853
2539.39343	0.00833
2538.10766	0.00838
2536.82190	0.00864
2535.53613	0.00880
2534.25036	0.00866
2532.96459	0.00846
2531.67882	0.00862
2530.39305	0.00929
2529.10728	0.01014
2527.82151	0.01060
2526.53574	0.01033
2525.24998	0.00949
2523.96421	0.00861
2522.67844	0.00819
2521.39267	0.00830
2520.10690	0.00873
2518.82113	0.00920
2517.53536	0.00957
2516.24959	0.00982
2514.96383	0.01000
2513.67806	0.01011
2512.39229	0.01007
2511.10652	0.00984
2509.82075	0.00953
2508.53498	0.00931
2507.24921	0.00922
2505.96344	0.00927
2504.67767	0.00941
2503.39191	0.00957
2502.10614	0.00956
2500.82037	0.00924
2499.53460	0.00874
2498.24883	0.00842
2496.96306	0.00848
2495.67729	0.00877
2494.39152	0.00897
2493.10576	0.00892
2491.81999	0.00870
2490.53422	0.00848
2489.24845	0.00839
2487.96268	0.00855
2486.67691	0.00898
2485.39114	0.00953
2484.10537	0.00987
2482.81960	0.00968
2481.53384	0.00898
2480.24807	0.00814
2478.96230	0.00761
2477.67653	0.00759
2476.39076	0.00795
2475.10499	0.00834
2473.81922	0.00853
2472.53345	0.00850
2471.24769	0.00839
2469.96192	0.00834
2468.67615	0.00830
2467.39038	0.00808
2466.10461	0.00771
2464.81884	0.00747
2463.53307	0.00760
2462.24730	0.00793
2460.96153	0.00817
2459.67577	0.00822
2458.39000	0.00828
2457.10423	0.00847
2455.81846	0.00871
2454.53269	0.00889
2453.24692	0.00904
2451.96115	0.00919
2450.67538	0.00921
2449.38962	0.00902
2448.10385	0.00870
2446.81808	0.00845
2445.53231	0.00842
2444.24654	0.00858
2442.96077	0.00884
2441.67500	0.00908
2440.38923	0.00921
2439.10346	0.00917
2437.81770	0.00893
2436.53193	0.00844
2435.24616	0.00777
2433.96039	0.00716
2432.67462	0.00688
2431.38885	0.00696
2430.10308	0.00721
2428.81731	0.00747
2427.53155	0.00773
2426.24578	0.00791
2424.96001	0.00793
2423.67424	0.00783
2422.38847	0.00782
2421.10270	0.00799
2419.81693	0.00826
2418.53116	0.00843
2417.24539	0.00842
2415.95963	0.00822
2414.67386	0.00793
2413.38809	0.00764
2412.10232	0.00747
2410.81655	0.00748
2409.53078	0.00772
2408.24501	0.00815
2406.95924	0.00861
2405.67347	0.00879
2404.38771	0.00854
2403.10194	0.00797
2401.81617	0.00737
2400.53040	0.00696
2399.24463	0.00680
2397.95886	0.00698
2396.67309	0.00735
2395.38732	0.00768
2394.10156	0.00775
2392.81579	0.00758
2391.53002	0.00735
2390.24425	0.00726
2388.95848	0.00732
2387.67271	0.00741
2386.38694	0.00747
2385.10117	0.00752
2383.81540	0.00765
2382.52964	0.00791
2381.24387	0.00823
2379.95810	0.00856
2378.67233	0.00889
2377.38656	0.00924
2376.10079	0.00964
2374.81502	0.01000
2373.52925	0.01024
2372.24349	0.01031
2370.95772	0.01027
2369.67195	0.01022
2368.38618	0.01027
2367.10041	0.01048
2365.81464	0.01082
2364.52887	0.01118
2363.24310	0.01144
2361.95733	0.01153
2360.67157	0.01150
2359.38580	0.01145
2358.10003	0.01144
2356.81426	0.01139
2355.52849	0.01118
2354.24272	0.01081
2352.95695	0.01044
2351.67118	0.01026
2350.38542	0.01032
2349.09965	0.01053
2347.81388	0.01071
2346.52811	0.01075
2345.24234	0.01063
2343.95657	0.01047
2342.67080	0.01044
2341.38503	0.01062
2340.09926	0.01089
2338.81350	0.01111
2337.52773	0.01120
2336.24196	0.01123
2334.95619	0.01129
2333.67042	0.01139
2332.38465	0.01149
2331.09888	0.01158
2329.81311	0.01168
2328.52735	0.01185
2327.24158	0.01205
2325.95581	0.01216
2324.67004	0.01203
2323.38427	0.01160
2322.09850	0.01095
2320.81273	0.01030
2319.52696	0.00985
2318.24119	0.00963
2316.95543	0.00949
2315.66966	0.00922
2314.38389	0.00880
2313.09812	0.00842
2311.81235	0.00828
2310.52658	0.00842
2309.24081	0.00865
2307.95504	0.00880
2306.66928	0.00879
2305.38351	0.00868
2304.09774	0.00854
2302.81197	0.00846
2301.52620	0.00854
2300.24043	0.00875
2298.95466	0.00900
2297.66889	0.00912
2296.38312	0.00910
2295.09736	0.00902
2293.81159	0.00900
2292.52582	0.00902
2291.24005	0.00899
2289.95428	0.00886
2288.66851	0.00864
2287.38274	0.00839
2286.09697	0.00823
2284.81121	0.00828
2283.52544	0.00855
2282.23967	0.00885
2280.95390	0.00884
2279.66813	0.00835
2278.38236	0.00757
2277.09659	0.00693
2275.81082	0.00670
2274.52505	0.00687
2273.23929	0.00715
2271.95352	0.00733
2270.66775	0.00741
2269.38198	0.00754
2268.09621	0.00780
2266.81044	0.00800
2265.52467	0.00787
2264.23890	0.00731
2262.95314	0.00658
2261.66737	0.00607
2260.38160	0.00596
2259.09583	0.00613
2257.81006	0.00639
2256.52429	0.00675
2255.23852	0.00733
2253.95275	0.00800
2252.66698	0.00842
2251.38122	0.00833
2250.09545	0.00767
2248.80968	0.00675
2247.52391	0.00643
2246.23814	0.00652
2244.95237	0.00697
2243.66660	0.00771
2242.38083	0.00860
2241.09507	0.00940
2239.80930	0.00965
2238.52353	0.00902
2237.23776	0.00767
2235.95199	0.00632
2234.66622	0.00556
2233.38045	0.00547
2232.09468	0.00578
2230.80891	0.00632
2229.52315	0.00700
2228.23738	0.00755
2226.95161	0.00767
2225.66584	0.00740
2224.38007	0.00709
2223.09430	0.00700
2221.80853	0.00712
2220.52276	0.00729
2219.23700	0.00744
2217.95123	0.00752
2216.66546	0.00740
2215.37969	0.00699
2214.09392	0.00644
2212.80815	0.00602
2211.52238	0.00580
2210.23661	0.00555
2208.95084	0.00504
2207.66508	0.00437
2206.37931	0.00393
2205.09354	0.00411
2203.80777	0.00485
2202.52200	0.00558
2201.23623	0.00579
2199.95046	0.00569
2198.66469	0.00597
2197.37893	0.00683
2196.09316	0.00760
2194.80739	0.00758
2193.52162	0.00701
2192.23585	0.00662
2190.95008	0.00660
2189.66431	0.00641
2188.37854	0.00571
2187.09277	0.00494
2185.80701	0.00482
2184.52124	0.00535
2183.23547	0.00587
2181.94970	0.00579
2180.66393	0.00520
2179.37816	0.00465
2178.09239	0.00454
2176.80662	0.00492
2175.52085	0.00542
2174.23509	0.00543
2172.94932	0.00451
2171.66355	0.00290
2170.37778	0.00146
2169.09201	0.00108
2167.80624	0.00205
2166.52047	0.00393
2165.23470	0.00580
2163.94894	0.00681
2162.66317	0.00660
2161.37740	0.00553
2160.09163	0.00451
2158.80586	0.00428
2157.52009	0.00464
2156.23432	0.00466
2154.94855	0.00382
2153.66278	0.00258
2152.37702	0.00164
2151.09125	0.00108
2149.80548	0.00050
2148.51971	-0.00028
2147.23394	-0.00094
2145.94817	-0.00100
2144.66240	-0.00028
2143.37663	0.00107
2142.09087	0.00268
2140.80510	0.00417
2139.51933	0.00529
2138.23356	0.00591
2136.94779	0.00591
2135.66202	0.00520
2134.37625	0.00390
2133.09048	0.00247
2131.80471	0.00157
2130.51895	0.00164
2129.23318	0.00255
2127.94741	0.00365
2126.66164	0.00439
2125.37587	0.00462
2124.09010	0.00462
2122.80433	0.00465
2121.51856	0.00487
2120.23280	0.00526
2118.94703	0.00575
2117.66126	0.00621
2116.37549	0.00650
2115.08972	0.00639
2113.80395	0.00579
2112.51818	0.00502
2111.23241	0.00461
2109.94664	0.00474
2108.66088	0.00503
2107.37511	0.00508
2106.08934	0.00493
2104.80357	0.00481
2103.51780	0.00482
2102.23203	0.00481
2100.94626	0.00469
2099.66049	0.00471
2098.37473	0.00444
2097.08896	0.00398
2095.80319	0.00365
2094.51742	0.00372
2093.23165	0.00423
2091.94588	0.00490
2090.66011	0.00537
2089.37434	0.00549
2088.08857	0.00539
2086.80281	0.00528
2085.51704	0.00519
2084.23127	0.00504
2082.94550	0.00479
2081.65973	0.00451
2080.37396	0.00427
2079.08819	0.00412
2077.80242	0.00408
2076.51666	0.00415
2075.23089	0.00430
2073.94512	0.00444
2072.65935	0.00448
2071.37358	0.00436
2070.08781	0.00408
2068.80204	0.00372
2067.51627	0.00333
2066.23050	0.00298
2064.94474	0.00281
2063.65897	0.00295
2062.37320	0.00338
2061.08743	0.00391
2059.80166	0.00444
2058.51589	0.00490
2057.23012	0.00512
2055.94435	0.00493
2054.65859	0.00435
2053.37282	0.00375
2052.08705	0.00348
2050.80128	0.00361
2049.51551	0.00393
2048.22974	0.00423
2046.94397	0.00434
2045.65820	0.00413
2044.37243	0.00345
2043.08667	0.00239
2041.80090	0.00135
2040.51513	0.00095
2039.22936	0.00139
2037.94359	0.00213
2036.65782	0.00233
2035.37205	0.00157
2034.08628	0.00022
2032.80052	-0.00091
2031.51475	-0.00118
2030.22898	-0.00049
2028.94321	0.00077
2027.65744	0.00205
2026.37167	0.00287
2025.08590	0.00295
2023.80013	0.00231
2022.51436	0.00133
2021.22860	0.00060
2019.94283	0.00046
2018.65706	0.00082
2017.37129	0.00122
2016.08552	0.00116
2014.79975	0.00050
2013.51398	-0.00043
2012.22821	-0.00108
2010.94245	-0.00105
2009.65668	-0.00038
2008.37091	0.00064
2007.08514	0.00163
2005.79937	0.00222
2004.51360	0.00224
2003.22783	0.00181
2001.94206	0.00127
2000.65629	0.00091
1999.37053	0.00086
1998.08476	0.00117
1996.79899	0.00181
1995.51322	0.00268
1994.22745	0.00358
1992.94168	0.00430
1991.65591	0.00460
1990.37014	0.00442
1989.08438	0.00384
1987.79861	0.00306
1986.51284	0.00226
1985.22707	0.00168
1983.94130	0.00152
1982.65553	0.00185
1981.36976	0.00253
1980.08399	0.00332
1978.79822	0.00397
1977.51246	0.00424
1976.22669	0.00408
1974.94092	0.00379
1973.65515	0.00381
1972.36938	0.00427
1971.08361	0.00475
1969.79784	0.00470
1968.51207	0.00397
1967.22631	0.00301
1965.94054	0.00240
1964.65477	0.00240
1963.36900	0.00291
1962.08323	0.00364
1960.79746	0.00426
1959.51169	0.00454
1958.22592	0.00456
1956.94015	0.00459
1955.65439	0.00486
1954.36862	0.00532
1953.08285	0.00580
1951.79708	0.00609
1950.51131	0.00605
1949.22554	0.00561
1947.93977	0.00493
1946.65400	0.00435
1945.36823	0.00409
1944.08247	0.00404
1942.79670	0.00403
1941.51093	0.00403
1940.22516	0.00401
1938.93939	0.00387
1937.65362	0.00354
1936.36785	0.00317
1935.08208	0.00308
1933.79632	0.00343
1932.51055	0.00409
1931.22478	0.00472
1929.93901	0.00498
1928.65324	0.00479
1927.36747	0.00427
1926.08170	0.00365
1924.79593	0.00316
1923.51016	0.00293
1922.22440	0.00303
1920.93863	0.00335
1919.65286	0.00374
1918.36709	0.00405
1917.08132	0.00422
1915.79555	0.00426
1914.50978	0.00424
1913.22401	0.00427
1911.93825	0.00438
1910.65248	0.00455
1909.36671	0.00472
1908.08094	0.00479
1906.79517	0.00475
1905.50940	0.00469
1904.22363	0.00465
1902.93786	0.00457
1901.65209	0.00439
1900.36633	0.00420
1899.08056	0.00418
1897.79479	0.00427
1896.50902	0.00426
1895.22325	0.00404
1893.93748	0.00376
1892.65171	0.00366
1891.36594	0.00383
1890.08018	0.00417
1888.79441	0.00450
1887.50864	0.00469
1886.22287	0.00468
1884.93710	0.00449
1883.65133	0.00428
1882.36556	0.00417
1881.07979	0.00415
1879.79402	0.00412
1878.50826	0.00405
1877.22249	0.00406
1875.93672	0.00428
1874.65095	0.00461
1873.36518	0.00483
1872.07941	0.00483
1870.79364	0.00469
1869.50787	0.00467
1868.22211	0.00488
1866.93634	0.00520
1865.65057	0.00547
1864.36480	0.00563
1863.07903	0.00571
1861.79326	0.00569
1860.50749	0.00557
1859.22172	0.00538
1857.93595	0.00526
1856.65019	0.00524
1855.36442	0.00521
1854.07865	0.00506
1852.79288	0.00483
1851.50711	0.00468
1850.22134	0.00473
1848.93557	0.00494
1847.64980	0.00514
1846.36404	0.00518
1845.07827	0.00507
1843.79250	0.00491
1842.50673	0.00479
1841.22096	0.00465
1839.93519	0.00447
1838.64942	0.00429
1837.36365	0.00418
1836.07788	0.00421
1834.79212	0.00437
1833.50635	0.00462
1832.22058	0.00486
1830.93481	0.00502
1829.64904	0.00505
1828.36327	0.00500
1827.07750	0.00492
1825.79173	0.00487
1824.50597	0.00490
1823.22020	0.00497
1821.93443	0.00500
1820.64866	0.00499
1819.36289	0.00491
1818.07712	0.00479
1816.79135	0.00467
1815.50558	0.00460
1814.21981	0.00460
1812.93405	0.00465
1811.64828	0.00472
1810.36251	0.00476
1809.07674	0.00478
1807.79097	0.00483
1806.50520	0.00491
1805.21943	0.00502
1803.93366	0.00510
1802.64790	0.00510
1801.36213	0.00503
1800.07636	0.00497
1798.79059	0.00501
1797.50482	0.00513
1796.21905	0.00525
1794.93328	0.00528
1793.64751	0.00520
1792.36174	0.00505
1791.07598	0.00487
1789.79021	0.00469
1788.50444	0.00456
1787.21867	0.00456
1785.93290	0.00467
1784.64713	0.00483
1783.36136	0.00498
1782.07559	0.00508
1780.78983	0.00515
1779.50406	0.00518
1778.21829	0.00514
1776.93252	0.00505
1775.64675	0.00500
1774.36098	0.00499
1773.07521	0.00502
1771.78944	0.00511
1770.50367	0.00523
1769.21791	0.00533
1767.93214	0.00537
1766.64637	0.00535
1765.36060	0.00527
1764.07483	0.00510
1762.78906	0.00490
1761.50329	0.00476
1760.21752	0.00473
1758.93176	0.00478
1757.64599	0.00486
1756.36022	0.00493
1755.07445	0.00500
1753.78868	0.00505
1752.50291	0.00509
1751.21714	0.00511
1749.93137	0.00512
1748.64560	0.00509
1747.35984	0.00502
1746.07407	0.00495
1744.78830	0.00490
1743.50253	0.00487
1742.21676	0.00485
1740.93099	0.00483
1739.64522	0.00484
1738.35945	0.00491
1737.07369	0.00501
1735.78792	0.00508
1734.50215	0.00514
1733.21638	0.00524
1731.93061	0.00535
1730.64484	0.00539
1729.35907	0.00534
1728.07330	0.00527
1726.78753	0.00524
1725.50177	0.00529
1724.21600	0.00543
1722.93023	0.00559
1721.64446	0.00569
1720.35869	0.00566
1719.07292	0.00554
1717.78715	0.00545
1716.50138	0.00546
1715.21561	0.00555
1713.92985	0.00565
1712.64408	0.00576
1711.35831	0.00590
1710.07254	0.00608
1708.78677	0.00625
1707.50100	0.00641
1706.21523	0.00657
1704.92946	0.00676
1703.64370	0.00695
1702.35793	0.00710
1701.07216	0.00727
1699.78639	0.00756
1698.50062	0.00795
1697.21485	0.00828
1695.92908	0.00854
1694.64331	0.00884
1693.35754	0.00912
1692.07178	0.00931
1690.78601	0.00945
1689.50024	0.00965
1688.21447	0.00992
1686.92870	0.01021
1685.64293	0.01050
1684.35716	0.01087
1683.07139	0.01134
1681.78563	0.01178
1680.49986	0.01210
1679.21409	0.01237
1677.92832	0.01263
1676.64255	0.01287
1675.35678	0.01310
1674.07101	0.01336
1672.78524	0.01365
1671.49947	0.01393
1670.21371	0.01423
1668.92794	0.01456
1667.64217	0.01491
1666.35640	0.01521
1665.07063	0.01545
1663.78486	0.01566
1662.49909	0.01588
1661.21332	0.01612
1659.92756	0.01635
1658.64179	0.01659
1657.35602	0.01685
1656.07025	0.01702
1654.78448	0.01702
1653.49871	0.01697
1652.21294	0.01706
1650.92717	0.01729
1649.64140	0.01749
1648.35564	0.01759
1647.06987	0.01765
1645.78410	0.01772
1644.49833	0.01779
1643.21256	0.01781
1641.92679	0.01779
1640.64102	0.01778
1639.35525	0.01780
1638.06949	0.01777
1636.78372	0.01766
1635.49795	0.01750
1634.21218	0.01733
1632.92641	0.01710
1631.64064	0.01681
1630.35487	0.01653
1629.06910	0.01635
1627.78333	0.01627
1626.49757	0.01620
1625.21180	0.01606
1623.92603	0.01581
1622.64026	0.01551
1621.35449	0.01522
1620.06872	0.01495
1618.78295	0.01468
1617.49718	0.01443
1616.21142	0.01428
1614.92565	0.01417
1613.63988	0.01405
1612.35411	0.01392
1611.06834	0.01383
1609.78257	0.01381
1608.49680	0.01379
1607.21103	0.01371
1605.92526	0.01357
1604.63950	0.01342
1603.35373	0.01331
1602.06796	0.01326
1600.78219	0.01325
1599.49642	0.01327
1598.21065	0.01329
1596.92488	0.01333
1595.63911	0.01333
1594.35335	0.01330
1593.06758	0.01329
1591.78181	0.01336
1590.49604	0.01351
1589.21027	0.01370
1587.92450	0.01385
1586.63873	0.01392
1585.35296	0.01395
1584.06719	0.01398
1582.78143	0.01406
1581.49566	0.01423
1580.20989	0.01449
1578.92412	0.01474
1577.63835	0.01490
1576.35258	0.01502
1575.06681	0.01518
1573.78104	0.01539
1572.49528	0.01555
1571.20951	0.01568
1569.92374	0.01583
1568.63797	0.01601
1567.35220	0.01618
1566.06643	0.01631
1564.78066	0.01646
1563.49489	0.01668
1562.20912	0.01692
1560.92336	0.01711
1559.63759	0.01726
1558.35182	0.01742
1557.06605	0.01755
1555.78028	0.01757
1554.49451	0.01752
1553.20874	0.01746
1551.92297	0.01742
1550.63721	0.01738
1549.35144	0.01739
1548.06567	0.01748
1546.77990	0.01762
1545.49413	0.01774
1544.20836	0.01781
1542.92259	0.01780
1541.63682	0.01767
1540.35105	0.01745
1539.06529	0.01723
1537.77952	0.01710
1536.49375	0.01699
1535.20798	0.01686
1533.92221	0.01673
1532.63644	0.01669
1531.35067	0.01672
1530.06490	0.01678
1528.77914	0.01683
1527.49337	0.01683
1526.20760	0.01682
1524.92183	0.01681
1523.63606	0.01682
1522.35029	0.01682
1521.06452	0.01685
1519.77875	0.01691
1518.49298	0.01693
1517.20722	0.01692
1515.92145	0.01693
1514.63568	0.01699
1513.34991	0.01711
1512.06414	0.01730
1510.77837	0.01754
1509.49260	0.01774
1508.20683	0.01785
1506.92107	0.01791
1505.63530	0.01801
1504.34953	0.01817
1503.06376	0.01833
1501.77799	0.01847
1500.49222	0.01858
1499.20645	0.01867
1497.92068	0.01872
1496.63491	0.01875
1495.34915	0.01882
1494.06338	0.01892
1492.77761	0.01902
1491.49184	0.01908
1490.20607	0.01912
1488.92030	0.01913
1487.63453	0.01916
1486.34876	0.01926
1485.06299	0.01945
1483.77723	0.01970
1482.49146	0.01995
1481.20569	0.02020
1479.91992	0.02046
1478.63415	0.02075
1477.34838	0.02108
1476.06261	0.02140
1474.77684	0.02167
1473.49108	0.02188
1472.20531	0.02209
1470.91954	0.02230
1469.63377	0.02247
1468.34800	0.02259
1467.06223	0.02268
1465.77646	0.02281
1464.49069	0.02302
1463.20492	0.02329
1461.91916	0.02359
1460.63339	0.02390
1459.34762	0.02422
1458.06185	0.02453
1456.77608	0.02483
1455.49031	0.02511
1454.20454	0.02531
1452.91877	0.02544
1451.63301	0.02560
1450.34724	0.02577
1449.06147	0.02590
1447.77570	0.02596
1446.48993	0.02597
1445.20416	0.02596
1443.91839	0.02590
1442.63262	0.02579
1441.34685	0.02564
1440.06109	0.02547
1438.77532	0.02528
1437.48955	0.02509
1436.20378	0.02499
1434.91801	0.02498
1433.63224	0.02501
1432.34647	0.02507
1431.06070	0.02515
1429.77494	0.02530
1428.48917	0.02549
1427.20340	0.02573
1425.91763	0.02601
1424.63186	0.02636
1423.34609	0.02676
1422.06032	0.02715
1420.77455	0.02748
1419.48878	0.02776
1418.20302	0.02802
1416.91725	0.02825
1415.63148	0.02841
1414.34571	0.02852
1413.05994	0.02858
1411.77417	0.02860
1410.48840	0.02857
1409.20263	0.02853
1407.91687	0.02846
1406.63110	0.02834
1405.34533	0.02816
1404.05956	0.02790
1402.77379	0.02762
1401.48802	0.02734
1400.20225	0.02703
1398.91648	0.02666
1397.63071	0.02619
1396.34495	0.02564
1395.05918	0.02505
1393.77341	0.02450
1392.48764	0.02399
1391.20187	0.02353
1389.91610	0.02309
1388.63033	0.02264
1387.34456	0.02215
1386.05880	0.02164
1384.77303	0.02113
1383.48726	0.02063
1382.20149	0.02016
1380.91572	0.01972
1379.62995	0.01931
1378.34418	0.01890
1377.05841	0.01847
1375.77264	0.01802
1374.48688	0.01754
1373.20111	0.01706
1371.91534	0.01661
1370.62957	0.01621
1369.34380	0.01584
1368.05803	0.01548
1366.77226	0.01513
1365.48649	0.01477
1364.20073	0.01444
1362.91496	0.01416
1361.62919	0.01392
1360.34342	0.01372
1359.05765	0.01354
1357.77188	0.01335
1356.48611	0.01315
1355.20034	0.01294
1353.91457	0.01274
1352.62881	0.01256
1351.34304	0.01239
1350.05727	0.01226
1348.77150	0.01215
1347.48573	0.01204
1346.19996	0.01191
1344.91419	0.01176
1343.62842	0.01162
1342.34266	0.01152
1341.05689	0.01145
1339.77112	0.01139
1338.48535	0.01132
1337.19958	0.01123
1335.91381	0.01115
1334.62804	0.01107
1333.34227	0.01100
1332.05650	0.01092
1330.77074	0.01081
1329.48497	0.01067
1328.19920	0.01051
1326.91343	0.01037
1325.62766	0.01024
1324.34189	0.01014
1323.05612	0.01006
1321.77035	0.01003
1320.48459	0.01000
1319.19882	0.00995
1317.91305	0.00985
1316.62728	0.00972
1315.34151	0.00961
1314.05574	0.00952
1312.76997	0.00945
1311.48420	0.00940
1310.19843	0.00935
1308.91267	0.00932
1307.62690	0.00928
1306.34113	0.00925
1305.05536	0.00921
1303.76959	0.00917
1302.48382	0.00908
1301.19805	0.00895
1299.91228	0.00879
1298.62652	0.00865
1297.34075	0.00853
1296.05498	0.00845
1294.76921	0.00842
1293.48344	0.00844
1292.19767	0.00846
1290.91190	0.00845
1289.62613	0.00841
1288.34036	0.00835
1287.05460	0.00833
1285.76883	0.00831
1284.48306	0.00830
1283.19729	0.00828
1281.91152	0.00829
1280.62575	0.00833
1279.33998	0.00837
1278.05421	0.00839
1276.76845	0.00836
1275.48268	0.00828
1274.19691	0.00818
1272.91114	0.00810
1271.62537	0.00805
1270.33960	0.00805
1269.05383	0.00807
1267.76806	0.00811
1266.48229	0.00813
1265.19653	0.00810
1263.91076	0.00802
1262.62499	0.00790
1261.33922	0.00781
1260.05345	0.00779
1258.76768	0.00785
1257.48191	0.00793
1256.19614	0.00799
1254.91037	0.00802
1253.62461	0.00801
1252.33884	0.00798
1251.05307	0.00795
1249.76730	0.00792
1248.48153	0.00793
1247.19576	0.00794
1245.90999	0.00794
1244.62422	0.00791
1243.33846	0.00786
1242.05269	0.00780
1240.76692	0.00776
1239.48115	0.00775
1238.19538	0.00776
1236.90961	0.00778
1235.62384	0.00778
1234.33807	0.00774
1233.05230	0.00770
1231.76654	0.00765
1230.48077	0.00759
1229.19500	0.00750
1227.90923	0.00738
1226.62346	0.00725
1225.33769	0.00712
1224.05192	0.00700
1222.76615	0.00693
1221.48039	0.00688
1220.19462	0.00683
1218.90885	0.00675
1217.62308	0.00664
1216.33731	0.00655
1215.05154	0.00651
1213.76577	0.00652
1212.48000	0.00654
1211.19423	0.00655
1209.90847	0.00653
1208.62270	0.00649
1207.33693	0.00644
1206.05116	0.00640
1204.76539	0.00635
1203.47962	0.00630
1202.19385	0.00625
1200.90808	0.00619
1199.62232	0.00610
1198.33655	0.00608
1197.05078	0.00608
1195.76501	0.00607
1194.47924	0.00603
1193.19347	0.00597
1191.90770	0.00592
1190.62193	0.00588
1189.33616	0.00585
1188.05040	0.00578
1186.76463	0.00567
1185.47886	0.00555
1184.19309	0.00546
1182.90732	0.00541
1181.62155	0.00539
1180.33578	0.00536
1179.05001	0.00531
1177.76425	0.00528
1176.47848	0.00531
1175.19271	0.00542
1173.90694	0.00558
1172.62117	0.00573
1171.33540	0.00583
1170.04963	0.00591
1168.76386	0.00594
1167.47809	0.00590
1166.19233	0.00582
1164.90656	0.00574
1163.62079	0.00572
1162.33502	0.00573
1161.04925	0.00574
1159.76348	0.00575
1158.47771	0.00578
1157.19194	0.00583
1155.90618	0.00591
1154.62041	0.00600
1153.33464	0.00606
1152.04887	0.00607
1150.76310	0.00603
1149.47733	0.00599
1148.19156	0.00600
1146.90579	0.00611
1145.62002	0.00628
1144.33426	0.00645
1143.04849	0.00659
1141.76272	0.00671
1140.47695	0.00685
1139.19118	0.00699
1137.90541	0.00718
1136.61964	0.00744
1135.33387	0.00782
1134.04811	0.00834
1132.76234	0.00895
1131.47657	0.00957
1130.19080	0.01018
1128.90503	0.01082
1127.61926	0.01153
1126.33349	0.01233
1125.04772	0.01321
1123.76195	0.01411
1122.47619	0.01500
1121.19042	0.01588
1119.90465	0.01677
1118.61888	0.01771
1117.33311	0.01869
1116.04734	0.01974
1114.76157	0.02083
1113.47580	0.02192
1112.19004	0.02295
1110.90427	0.02389
1109.61850	0.02480
1108.33273	0.02573
1107.04696	0.02671
1105.76119	0.02769
1104.47542	0.02864
1103.18965	0.02955
1101.90388	0.03040
1100.61812	0.03117
1099.33235	0.03186
1098.04658	0.03252
1096.76081	0.03320
1095.47504	0.03392
1094.18927	0.03463
1092.90350	0.03529
1091.61773	0.03587
1090.33197	0.03640
1089.04620	0.03691
1087.76043	0.03745
1086.47466	0.03800
1085.18889	0.03853
1083.90312	0.03903
1082.61735	0.03955
1081.33158	0.04015
1080.04581	0.04079
1078.76005	0.04141
1077.47428	0.04203
1076.18851	0.04271
1074.90274	0.04348
1073.61697	0.04434
1072.33120	0.04522
1071.04543	0.04612
1069.75966	0.04705
1068.47390	0.04798
1067.18813	0.04892
1065.90236	0.04985
1064.61659	0.05079
1063.33082	0.05177
1062.04505	0.05278
1060.75928	0.05381
1059.47351	0.05480
1058.18774	0.05575
1056.90198	0.05668
1055.61621	0.05756
1054.33044	0.05839
1053.04467	0.05919
1051.75890	0.06000
1050.47313	0.06082
1049.18736	0.06164
1047.90159	0.06241
1046.61583	0.06316
1045.33006	0.06391
1044.04429	0.06472
1042.75852	0.06559
1041.47275	0.06651
1040.18698	0.06741
1038.90121	0.06821
1037.61544	0.06890
1036.32967	0.06956
1035.04391	0.07027
1033.75814	0.07106
1032.47237	0.07183
1031.18660	0.07248
1029.90083	0.07298
1028.61506	0.07339
1027.32929	0.07373
1026.04352	0.07399
1024.75775	0.07414
1023.47199	0.07425
1022.18622	0.07437
1020.90045	0.07450
1019.61468	0.07453
1018.32891	0.07435
1017.04314	0.07396
1015.75737	0.07343
1014.47160	0.07278
1013.18584	0.07204
1011.90007	0.07120
1010.61430	0.07028
1009.32853	0.06927
1008.04276	0.06816
1006.75699	0.06694
1005.47122	0.06565
1004.18545	0.06429
1002.89968	0.06281
1001.61392	0.06121
1000.32815	0.05956
999.04238	0.05794
997.75661	0.05636
996.47084	0.05479
995.18507	0.05320
993.89930	0.05159
992.61353	0.04997
991.32777	0.04838
990.04200	0.04689
988.75623	0.04549
987.47046	0.04412
986.18469	0.04269
984.89892	0.04121
983.61315	0.03982
982.32738	0.03857
981.04161	0.03746
979.75585	0.03644
978.47008	0.03546
977.18431	0.03448
975.89854	0.03350
974.61277	0.03260
973.32700	0.03183
972.04123	0.03120
970.75546	0.03069
969.46970	0.03031
968.18393	0.03009
966.89816	0.03006
965.61239	0.03023
964.32662	0.03054
963.04085	0.03090
961.75508	0.03115
960.46931	0.03123
959.18354	0.03114
957.89778	0.03091
956.61201	0.03057
955.32624	0.03011
954.04047	0.02956
952.75470	0.02892
951.46893	0.02825
950.18316	0.02758
948.89739	0.02694
947.61163	0.02633
946.32586	0.02578
945.04009	0.02528
943.75432	0.02479
942.46855	0.02427
941.18278	0.02370
939.89701	0.02309
938.61124	0.02252
937.32547	0.02202
936.03971	0.02163
934.75394	0.02133
933.46817	0.02107
932.18240	0.02079
930.89663	0.02045
929.61086	0.02010
928.32509	0.01980
927.03932	0.01956
925.75356	0.01935
924.46779	0.01909
923.18202	0.01878
921.89625	0.01846
920.61048	0.01821
919.32471	0.01804
918.03894	0.01790
916.75317	0.01773
915.46740	0.01750
914.18164	0.01724
912.89587	0.01701
911.61010	0.01680
910.32433	0.01662
909.03856	0.01646
907.75279	0.01633
906.46702	0.01626
905.18125	0.01618
903.89549	0.01600
902.60972	0.01573
901.32395	0.01551
900.03818	0.01542
898.75241	0.01542
897.46664	0.01540
896.18087	0.01528
894.89510	0.01507
893.60933	0.01481
892.32357	0.01457
891.03780	0.01442
889.75203	0.01439
888.46626	0.01446
887.18049	0.01459
885.89472	0.01477
884.60895	0.01507
883.32318	0.01555
882.03742	0.01625
880.75165	0.01709
879.46588	0.01790
878.18011	0.01858
876.89434	0.01911
875.60857	0.01959
874.32280	0.02005
873.03703	0.02041
871.75126	0.02056
870.46550	0.02049
869.17973	0.02024
867.89396	0.01987
866.60819	0.01940
865.32242	0.01887
864.03665	0.01832
862.75088	0.01776
861.46511	0.01722
860.17935	0.01668
858.89358	0.01616
857.60781	0.01571
856.32204	0.01536
855.03627	0.01511
853.75050	0.01492
852.46473	0.01475
851.17896	0.01460
849.89319	0.01449
848.60743	0.01442
847.32166	0.01437
846.03589	0.01430
844.75012	0.01415
843.46435	0.01394
842.17858	0.01374
840.89281	0.01363
839.60704	0.01360
838.32128	0.01356
837.03551	0.01349
835.74974	0.01339
834.46397	0.01326
833.17820	0.01313
831.89243	0.01304
830.60666	0.01299
829.32089	0.01293
828.03512	0.01282
826.74936	0.01267
825.46359	0.01257
824.17782	0.01256
822.89205	0.01260
821.60628	0.01259
820.32051	0.01251
819.03474	0.01245
817.74897	0.01245
816.46321	0.01249
815.17744	0.01249
813.89167	0.01242
812.60590	0.01231
811.32013	0.01220
810.03436	0.01212
808.74859	0.01207
807.46282	0.01204
806.17705	0.01200
804.89129	0.01193
803.60552	0.01189
802.31975	0.01194
801.03398	0.01207
799.74821	0.01222
798.46244	0.01231
797.17667	0.01230
795.89090	0.01226
794.60513	0.01222
793.31937	0.01219
792.03360	0.01215
790.74783	0.01212
789.46206	0.01213
788.17629	0.01216
786.89052	0.01216
785.60475	0.01210
784.31898	0.01202
783.03322	0.01196
781.74745	0.01195
780.46168	0.01194
779.17591	0.01192
777.89014	0.01192
776.60437	0.01194
775.31860	0.01197
774.03283	0.01197
772.74706	0.01193
771.46130	0.01188
770.17553	0.01185
768.88976	0.01183
767.60399	0.01182
766.31822	0.01185
765.03245	0.01193
763.74668	0.01203
762.46091	0.01209
761.17515	0.01211
759.88938	0.01210
758.60361	0.01208
757.31784	0.01210
756.03207	0.01219
754.74630	0.01234
753.46053	0.01247
752.17476	0.01248
750.88899	0.01236
749.60323	0.01219
748.31746	0.01203
747.03169	0.01188
745.74592	0.01182
744.46015	0.01187
743.17438	0.01197
741.88861	0.01201
740.60284	0.01191
739.31708	0.01177
738.03131	0.01170
736.74554	0.01173
735.45977	0.01183
734.17400	0.01199
732.88823	0.01214
731.60246	0.01223
730.31669	0.01221
729.03092	0.01213
727.74516	0.01207
726.45939	0.01207
725.17362	0.01210
723.88785	0.01218
722.60208	0.01201
721.31631	0.01174
720.03054	0.01156
718.74477	0.01153
717.45901	0.01162
716.17324	0.01174
714.88747	0.01184
713.60170	0.01188
712.31593	0.01187
711.03016	0.01184
709.74439	0.01185
708.45862	0.01193
707.17285	0.01205
705.88709	0.01216
704.60132	0.01221
703.31555	0.01220
702.02978	0.01217
700.74401	0.01214
699.45824	0.01208
698.17247	0.01198
696.88670	0.01185
695.60094	0.01174
694.31517	0.01170
693.02940	0.01173
691.74363	0.01177
690.45786	0.01178
689.17209	0.01177
687.88632	0.01179
686.60055	0.01189
685.31478	0.01205
684.02902	0.01222
682.74325	0.01233
681.45748	0.01234
680.17171	0.01229
678.88594	0.01220
677.60017	0.01212
676.31440	0.01208
675.02863	0.01210
673.74287	0.01219
672.45710	0.01228
671.17133	0.01233
669.88556	0.01238
668.59979	0.01245
667.31402	0.01254
666.02825	0.01257
664.74248	0.01257
663.45671	0.01256
662.17095	0.01257
660.88518	0.01255
659.59941	0.01249
658.31364	0.01243
657.02787	0.01240
655.74210	0.01240
654.45633	0.01239
653.17056	0.01237
651.88480	0.01240
650.59903	0.01243
649.31326	0.01240
648.02749	0.01230
646.74172	0.01221
645.45595	0.01215
644.17018	0.01208
642.88441	0.01197
641.59864	0.01187
640.31288	0.01185
639.02711	0.01188
637.74134	0.01194
636.45557	0.01207
635.16980	0.01233
633.88403	0.01270
632.59826	0.01302
631.31249	0.01324
630.02673	0.01345
628.74096	0.01356
627.45519	0.01294
626.16942	0.01286
624.88365	0.01330
623.59788	0.01398
622.31211	0.01482
621.02634	0.01588
619.74057	0.01731
618.45481	0.01899
617.16904	0.02040
615.88327	0.02119
614.59750	0.02158
613.31173	0.02217
612.02596	0.02329
610.74019	0.02481
609.45442	0.02658
608.16866	0.02871
606.88289	0.03123
605.59712	0.03367
604.31135	0.03524
603.02558	0.03558
601.73981	0.03510
600.45404	0.03443
599.16827	0.03381
597.88250	0.03306
596.59674	0.03207
595.31097	0.03099
594.02520	0.03007
592.73943	0.02942
591.45366	0.02897
590.16789	0.02865
588.88212	0.02844
587.59635	0.02836
586.31059	0.02845
585.02482	0.02878
583.73905	0.02942
582.45328	0.03029
581.16751	0.03125
579.88174	0.03220
578.59597	0.03313
577.31020	0.03404
576.02443	0.03491
574.73867	0.03580
573.45290	0.03673
572.16713	0.03771
570.88136	0.03867
569.59559	0.03958
568.30982	0.04048
567.02405	0.04142
565.73828	0.04245
564.45251	0.04355
563.16675	0.04455
561.88098	0.04516
560.59521	0.04506
559.30944	0.04417
558.02367	0.04270
556.73790	0.04099
555.45213	0.03925
554.16636	0.03751
552.88060	0.03581
551.59483	0.03413
550.30906	0.03251
549.02329	0.03103
547.73752	0.02979
546.45175	0.02881
545.16598	0.02792
543.88021	0.02698
542.59444	0.02600
541.30868	0.02511
540.02291	0.02436
538.73714	0.02369
537.45137	0.02305
536.16560	0.02247
534.87983	0.02198
533.59406	0.02158
532.30829	0.02125
531.02253	0.02092
529.73676	0.02047
528.45099	0.01990
527.16522	0.01929
525.87945	0.01877
524.59368	0.01840
523.30791	0.01812
522.02214	0.01783
520.73637	0.01751
519.45061	0.01722
518.16484	0.01701
516.87907	0.01682
515.59330	0.01660
514.30753	0.01633
513.02176	0.01605
511.73599	0.01581
510.45022	0.01564
509.16446	0.01554
507.87869	0.01545
506.59292	0.01529
505.30715	0.01505
504.02138	0.01479
502.73561	0.01458
501.44984	0.01445
500.16407	0.01435
498.87830	0.01424
497.59254	0.01413
496.30677	0.01403
495.02100	0.01395
493.73523	0.01384
492.44946	0.01367
491.16369	0.01343
489.87792	0.01315
488.59215	0.01293
487.30639	0.01283
486.02062	0.01283
484.73485	0.01285
483.44908	0.01281
482.16331	0.01272
480.87754	0.01263
479.59177	0.01260
478.30600	0.01267
477.02023	0.01281
475.73447	0.01296
474.44870	0.01311
473.16293	0.01323
471.87716	0.01330
470.59139	0.01329
469.30562	0.01313
468.01985	0.01286
466.73408	0.01256
465.44832	0.01232
464.16255	0.01218
462.87678	0.01212
461.59101	0.01207
460.30524	0.01197
459.01947	0.01179
457.73370	0.01155
456.44793	0.01130
455.16216	0.01112
453.87640	0.01105
452.59063	0.01105
451.30486	0.01101
450.01909	0.01088
448.73332	0.01073
447.44755	0.01067
446.16178	0.01071
444.87601	0.01078
443.59025	0.01078
442.30448	0.01070
441.01871	0.01056
439.73294	0.01040
438.44717	0.01023
437.16140	0.01010
435.87563	0.01001
434.58986	0.00998
433.30409	0.00998
432.01833	0.00998
430.73256	0.00995
429.44679	0.00989
428.16102	0.00981
426.87525	0.00975
425.58948	0.00968
424.30371	0.00958
423.01794	0.00944
421.73218	0.00929
420.44641	0.00917
419.16064	0.00912
417.87487	0.00910
416.58910	0.00910
415.30333	0.00911
414.01756	0.00914
412.73179	0.00915
411.44602	0.00910
410.16026	0.00901
408.87449	0.00895
407.58872	0.00896
406.30295	0.00897
405.01718	0.00895
403.73141	0.00892
402.44564	0.00894
401.15987	0.00898
399.87411	0.00902
