3997.45528	0.02377
3996.16951	0.02381
3994.88374	0.02349
3993.59798	0.02284
3992.31221	0.02209
3991.02644	0.02145
3989.74067	0.02106
3988.45490	0.02100
3987.16913	0.02124
3985.88336	0.02162
3984.59759	0.02198
3983.31183	0.02232
3982.02606	0.02273
3980.74029	0.02317
3979.45452	0.02341
3978.16875	0.02333
3976.88298	0.02310
3975.59721	0.02296
3974.31144	0.02294
3973.02567	0.02290
3971.73991	0.02276
3970.45414	0.02257
3969.16837	0.02234
3967.88260	0.02217
3966.59683	0.02229
3965.31106	0.02287
3964.02529	0.02369
3962.73952	0.02427
3961.45376	0.02428
3960.16799	0.02381
3958.88222	0.02316
3957.59645	0.02265
3956.31068	0.02255
3955.02491	0.02298
3953.73914	0.02378
3952.45337	0.02451
3951.16760	0.02481
3949.88184	0.02477
3948.59607	0.02483
3947.31030	0.02532
3946.02453	0.02596
3944.73876	0.02621
3943.45299	0.02585
3942.16722	0.02526
3940.88145	0.02498
3939.59569	0.02513
3938.30992	0.02543
3937.02415	0.02541
3935.73838	0.02484
3934.45261	0.02380
3933.16684	0.02273
3931.88107	0.02203
3930.59530	0.02183
3929.30953	0.02201
3928.02377	0.02246
3926.73800	0.02315
3925.45223	0.02401
3924.16646	0.02482
3922.88069	0.02523
3921.59492	0.02506
3920.30915	0.02443
3919.02338	0.02361
3917.73762	0.02287
3916.45185	0.02250
3915.16608	0.02266
3913.88031	0.02328
3912.59454	0.02402
3911.30877	0.02453
3910.02300	0.02469
3908.73723	0.02467
3907.45146	0.02466
3906.16570	0.02468
3904.87993	0.02467
3903.59416	0.02450
3902.30839	0.02404
3901.02262	0.02324
3899.73685	0.02234
3898.45108	0.02177
3897.16531	0.02167
3895.87955	0.02182
3894.59378	0.02197
3893.30801	0.02217
3892.02224	0.02261
3890.73647	0.02332
3889.45070	0.02395
3888.16493	0.02401
3886.87916	0.02342
3885.59339	0.02256
3884.30763	0.02177
3883.02186	0.02114
3881.73609	0.02073
3880.45032	0.02075
3879.16455	0.02120
3877.87878	0.02181
3876.59301	0.02231
3875.30724	0.02271
3874.02148	0.02308
3872.73571	0.02334
3871.44994	0.02346
3870.16417	0.02367
3868.87840	0.02403
3867.59263	0.02401
3866.30686	0.02324
3865.02109	0.02216
3863.73532	0.02153
3862.44956	0.02153
3861.16379	0.02182
3859.87802	0.02202
3858.59225	0.02200
3857.30648	0.02183
3856.02071	0.02161
3854.73494	0.02152
3853.44917	0.02171
3852.16341	0.02199
3850.87764	0.02190
3849.59187	0.02147
3848.30610	0.02112
3847.02033	0.02113
3845.73456	0.02135
3844.44879	0.02160
3843.16302	0.02188
3841.87725	0.02221
3840.59149	0.02245
3839.30572	0.02244
3838.01995	0.02228
3836.73418	0.02214
3835.44841	0.02206
3834.16264	0.02204
3832.87687	0.02221
3831.59110	0.02264
3830.30534	0.02312
3829.01957	0.02332
3827.73380	0.02311
3826.44803	0.02275
3825.16226	0.02257
3823.87649	0.02254
3822.59072	0.02238
3821.30495	0.02202
3820.01918	0.02150
3818.73342	0.02079
3817.44765	0.01996
3816.16188	0.01949
3814.87611	0.01972
3813.59034	0.02033
3812.30457	0.02082
3811.01880	0.02098
3809.73303	0.02085
3808.44726	0.02067
3807.16150	0.02097
3805.87573	0.02194
3804.58996	0.02294
3803.30419	0.02310
3802.01842	0.02240
3800.73265	0.02152
3799.44688	0.02087
3798.16111	0.02046
3796.87535	0.02033
3795.58958	0.02048
3794.30381	0.02058
3793.01804	0.02033
3791.73227	0.01988
3790.44650	0.01959
3789.16073	0.01967
3787.87496	0.01994
3786.58919	0.02017
3785.30343	0.02025
3784.01766	0.02031
3782.73189	0.02040
3781.44612	0.02051
3780.16035	0.02061
3778.87458	0.02075
3777.58881	0.02097
3776.30304	0.02127
3775.01728	0.02161
3773.73151	0.02188
3772.44574	0.02196
3771.15997	0.02191
3769.87420	0.02185
3768.58843	0.02175
3767.30266	0.02148
3766.01689	0.02117
3764.73112	0.02103
3763.44536	0.02092
3762.15959	0.02049
3760.87382	0.01969
3759.58805	0.01895
3758.30228	0.01869
3757.01651	0.01902
3755.73074	0.01957
3754.44497	0.01978
3753.15921	0.01960
3751.87344	0.01951
3750.58767	0.01985
3749.30190	0.02047
3748.01613	0.02095
3746.73036	0.02086
3745.44459	0.02044
3744.15882	0.02037
3742.87305	0.02065
3741.58729	0.02054
3740.30152	0.01980
3739.01575	0.01884
3737.72998	0.01811
3736.44421	0.01784
3735.15844	0.01800
3733.87267	0.01823
3732.58690	0.01830
3731.30114	0.01828
3730.01537	0.01829
3728.72960	0.01830
3727.44383	0.01839
3726.15806	0.01876
3724.87229	0.01953
3723.58652	0.02060
3722.30075	0.02178
3721.01498	0.02288
3719.72922	0.02371
3718.44345	0.02417
3717.15768	0.02418
3715.87191	0.02383
3714.58614	0.02328
3713.30037	0.02275
3712.01460	0.02228
3710.72883	0.02163
3709.44307	0.02061
3708.15730	0.01929
3706.87153	0.01800
3705.58576	0.01702
3704.29999	0.01661
3703.01422	0.01700
3701.72845	0.01822
3700.44268	0.01983
3699.15691	0.02105
3697.87115	0.02143
3696.58538	0.02121
3695.29961	0.02105
3694.01384	0.02136
3692.72807	0.02200
3691.44230	0.02249
3690.15653	0.02248
3688.87076	0.02211
3687.58500	0.02184
3686.29923	0.02176
3685.01346	0.02160
3683.72769	0.02127
3682.44192	0.02101
3681.15615	0.02090
3679.87038	0.02074
3678.58461	0.02015
3677.29884	0.01906
3676.01308	0.01813
3674.72731	0.01808
3673.44154	0.01875
3672.15577	0.01943
3670.87000	0.01976
3669.58423	0.01982
3668.29846	0.01960
3667.01269	0.01924
3665.72693	0.01917
3664.44116	0.01961
3663.15539	0.02027
3661.86962	0.02070
3660.58385	0.02072
3659.29808	0.02045
3658.01231	0.02005
3656.72654	0.01983
3655.44077	0.02003
3654.15501	0.02055
3652.86924	0.02104
3651.58347	0.02136
3650.29770	0.02166
3649.01193	0.02205
3647.72616	0.02234
3646.44039	0.02222
3645.15462	0.02162
3643.86886	0.02090
3642.58309	0.02050
3641.29732	0.02057
3640.01155	0.02086
3638.72578	0.02111
3637.44001	0.02135
3636.15424	0.02171
3634.86847	0.02224
3633.58270	0.02281
3632.29694	0.02313
3631.01117	0.02302
3629.72540	0.02266
3628.43963	0.02248
3627.15386	0.02258
3625.86809	0.02279
3624.58232	0.02311
3623.29655	0.02357
3622.01079	0.02393
3620.72502	0.02390
3619.43925	0.02357
3618.15348	0.02323
3616.86771	0.02300
3615.58194	0.02282
3614.29617	0.02278
3613.01040	0.02310
3611.72463	0.02383
3610.43887	0.02467
3609.15310	0.02521
3607.86733	0.02527
3606.58156	0.02490
3605.29579	0.02424
3604.01002	0.02343
3602.72425	0.02254
3601.43848	0.02174
3600.15272	0.02134
3598.86695	0.02158
3597.58118	0.02227
3596.29541	0.02289
3595.00964	0.02306
3593.72387	0.02294
3592.43810	0.02299
3591.15233	0.02342
3589.86656	0.02397
3588.58080	0.02424
3587.29503	0.02414
3586.00926	0.02395
3584.72349	0.02402
3583.43772	0.02437
3582.15195	0.02486
3580.86618	0.02535
3579.58041	0.02573
3578.29464	0.02586
3577.00888	0.02555
3575.72311	0.02485
3574.43734	0.02410
3573.15157	0.02367
3571.86580	0.02372
3570.58003	0.02419
3569.29426	0.02488
3568.00849	0.02552
3566.72273	0.02579
3565.43696	0.02562
3564.15119	0.02531
3562.86542	0.02532
3561.57965	0.02571
3560.29388	0.02613
3559.00811	0.02621
3557.72234	0.02589
3556.43657	0.02538
3555.15081	0.02495
3553.86504	0.02487
3552.57927	0.02532
3551.29350	0.02627
3550.00773	0.02737
3548.72196	0.02815
3547.43619	0.02827
3546.15042	0.02777
3544.86466	0.02697
3543.57889	0.02631
3542.29312	0.02608
3541.00735	0.02632
3539.72158	0.02675
3538.43581	0.02704
3537.15004	0.02703
3535.86427	0.02682
3534.57850	0.02665
3533.29274	0.02665
3532.00697	0.02684
3530.72120	0.02711
3529.43543	0.02737
3528.14966	0.02753
3526.86389	0.02764
3525.57812	0.02775
3524.29235	0.02786
3523.00659	0.02785
3521.72082	0.02767
3520.43505	0.02747
3519.14928	0.02743
3517.86351	0.02753
3516.57774	0.02760
3515.29197	0.02759
3514.00620	0.02761
3512.72043	0.02772
3511.43467	0.02777
3510.14890	0.02767
3508.86313	0.02753
3507.57736	0.02744
3506.29159	0.02734
3505.00582	0.02707
3503.72005	0.02667
3502.43428	0.02638
3501.14852	0.02643
3499.86275	0.02683
3498.57698	0.02749
3497.29121	0.02830
3496.00544	0.02912
3494.71967	0.02986
3493.43390	0.03047
3492.14813	0.03088
3490.86236	0.03099
3489.57660	0.03071
3488.29083	0.03013
3487.00506	0.02952
3485.71929	0.02915
3484.43352	0.02900
3483.14775	0.02886
3481.86198	0.02865
3480.57621	0.02862
3479.29045	0.02898
3478.00468	0.02955
3476.71891	0.02982
3475.43314	0.02956
3474.14737	0.02909
3472.86160	0.02898
3471.57583	0.02938
3470.29006	0.03003
3469.00429	0.03058
3467.71853	0.03089
3466.43276	0.03094
3465.14699	0.03071
3463.86122	0.03020
3462.57545	0.02955
3461.28968	0.02904
3460.00391	0.02886
3458.71814	0.02896
3457.43238	0.02911
3456.14661	0.02915
3454.86084	0.02910
3453.57507	0.02918
3452.28930	0.02953
3451.00353	0.03010
3449.71776	0.03067
3448.43199	0.03107
3447.14622	0.03124
3445.86046	0.03127
3444.57469	0.03133
3443.28892	0.03148
3442.00315	0.03162
3440.71738	0.03158
3439.43161	0.03127
3438.14584	0.03079
3436.86007	0.03038
3435.57431	0.03032
3434.28854	0.03079
3433.00277	0.03165
3431.71700	0.03247
3430.43123	0.03283
3429.14546	0.03251
3427.85969	0.03173
3426.57392	0.03095
3425.28815	0.03062
3424.00239	0.03083
3422.71662	0.03124
3421.43085	0.03134
3420.14508	0.03094
3418.85931	0.03037
3417.57354	0.03013
3416.28777	0.03045
3415.00200	0.03113
3413.71624	0.03178
3412.43047	0.03219
3411.14470	0.03234
3409.85893	0.03229
3408.57316	0.03211
3407.28739	0.03188
3406.00162	0.03177
3404.71585	0.03189
3403.43008	0.03225
3402.14432	0.03277
3400.85855	0.03338
3399.57278	0.03401
3398.28701	0.03445
3397.00124	0.03445
3395.71547	0.03389
3394.42970	0.03302
3393.14393	0.03236
3391.85817	0.03224
3390.57240	0.03251
3389.28663	0.03267
3388.00086	0.03252
3386.71509	0.03223
3385.42932	0.03204
3384.14355	0.03198
3382.85778	0.03201
3381.57201	0.03225
3380.28625	0.03285
3379.00048	0.03363
3377.71471	0.03417
3376.42894	0.03422
3375.14317	0.03396
3373.85740	0.03380
3372.57163	0.03400
3371.28586	0.03446
3370.00010	0.03481
3368.71433	0.03478
3367.42856	0.03441
3366.14279	0.03398
3364.85702	0.03377
3363.57125	0.03383
3362.28548	0.03399
3360.99971	0.03405
3359.71394	0.03386
3358.42818	0.03343
3357.14241	0.03299
3355.85664	0.03284
3354.57087	0.03318
3353.28510	0.03388
3351.99933	0.03451
3350.71356	0.03469
3349.42779	0.03437
3348.14202	0.03384
3346.85626	0.03341
3345.57049	0.03321
3344.28472	0.03321
3342.99895	0.03335
3341.71318	0.03351
3340.42741	0.03350
3339.14164	0.03325
3337.85587	0.03287
3336.57011	0.03264
3335.28434	0.03281
3333.99857	0.03340
3332.71280	0.03408
3331.42703	0.03439
3330.14126	0.03407
3328.85549	0.03333
3327.56972	0.03264
3326.28395	0.03235
3324.99819	0.03234
3323.71242	0.03229
3322.42665	0.03210
3321.14088	0.03204
3319.85511	0.03244
3318.56934	0.03323
3317.28357	0.03394
3315.99780	0.03416
3314.71204	0.03387
3313.42627	0.03343
3312.14050	0.03321
3310.85473	0.03328
3309.56896	0.03347
3308.28319	0.03361
3306.99742	0.03364
3305.71165	0.03359
3304.42588	0.03345
3303.14012	0.03314
3301.85435	0.03273
3300.56858	0.03254
3299.28281	0.03291
3297.99704	0.03384
3296.71127	0.03486
3295.42550	0.03540
3294.13973	0.03521
3292.85397	0.03450
3291.56820	0.03366
3290.28243	0.03304
3288.99666	0.03280
3287.71089	0.03287
3286.42512	0.03291
3285.13935	0.03266
3283.85358	0.03214
3282.56781	0.03159
3281.28205	0.03126
3279.99628	0.03122
3278.71051	0.03144
3277.42474	0.03190
3276.13897	0.03261
3274.85320	0.03347
3273.56743	0.03421
3272.28166	0.03449
3270.99590	0.03415
3269.71013	0.03340
3268.42436	0.03276
3267.13859	0.03263
3265.85282	0.03305
3264.56705	0.03363
3263.28128	0.03387
3261.99551	0.03353
3260.70974	0.03283
3259.42398	0.03221
3258.13821	0.03195
3256.85244	0.03199
3255.56667	0.03206
3254.28090	0.03202
3252.99513	0.03190
3251.70936	0.03181
3250.42359	0.03178
3249.13783	0.03179
3247.85206	0.03185
3246.56629	0.03195
3245.28052	0.03203
3243.99475	0.03198
3242.70898	0.03171
3241.42321	0.03135
3240.13744	0.03108
3238.85167	0.03099
3237.56591	0.03093
3236.28014	0.03072
3234.99437	0.03035
3233.70860	0.03000
3232.42283	0.02989
3231.13706	0.03015
3229.85129	0.03070
3228.56552	0.03129
3227.27976	0.03165
3225.99399	0.03172
3224.70822	0.03158
3223.42245	0.03134
3222.13668	0.03105
3220.85091	0.03081
3219.56514	0.03083
3218.27937	0.03119
3216.99360	0.03174
3215.70784	0.03213
3214.42207	0.03213
3213.13630	0.03184
3211.85053	0.03156
3210.56476	0.03158
3209.27899	0.03191
3207.99322	0.03231
3206.70745	0.03250
3205.42169	0.03243
3204.13592	0.03222
3202.85015	0.03194
3201.56438	0.03157
3200.27861	0.03111
3198.99284	0.03070
3197.70707	0.03050
3196.42130	0.03053
3195.13553	0.03068
3193.84977	0.03084
3192.56400	0.03097
3191.27823	0.03099
3189.99246	0.03076
3188.70669	0.03035
3187.42092	0.03001
3186.13515	0.02997
3184.84938	0.03016
3183.56362	0.03032
3182.27785	0.03034
3180.99208	0.03030
3179.70631	0.03034
3178.42054	0.03039
3177.13477	0.03034
3175.84900	0.03018
3174.56323	0.03004
3173.27746	0.03001
3171.99170	0.02998
3170.70593	0.02975
3169.42016	0.02940
3168.13439	0.02924
3166.84862	0.02954
3165.56285	0.03017
3164.27708	0.03071
3162.99131	0.03083
3161.70555	0.03063
3160.41978	0.03036
3159.13401	0.03018
3157.84824	0.03005
3156.56247	0.02998
3155.27670	0.03003
3153.99093	0.03022
3152.70516	0.03034
3151.41939	0.03017
3150.13363	0.02964
3148.84786	0.02897
3147.56209	0.02844
3146.27632	0.02815
3144.99055	0.02807
3143.70478	0.02814
3142.41901	0.02835
3141.13324	0.02861
3139.84748	0.02880
3138.56171	0.02882
3137.27594	0.02871
3135.99017	0.02865
3134.70440	0.02877
3133.41863	0.02901
3132.13286	0.02916
3130.84709	0.02913
3129.56132	0.02898
3128.27556	0.02889
3126.98979	0.02890
3125.70402	0.02892
3124.41825	0.02888
3123.13248	0.02878
3121.84671	0.02866
3120.56094	0.02853
3119.27517	0.02843
3117.98940	0.02838
3116.70364	0.02841
3115.41787	0.02847
3114.13210	0.02849
3112.84633	0.02846
3111.56056	0.02845
3110.27479	0.02857
3108.98902	0.02887
3107.70325	0.02914
3106.41749	0.02919
3105.13172	0.02899
3103.84595	0.02868
3102.56018	0.02839
3101.27441	0.02805
3099.98864	0.02762
3098.70287	0.02718
3097.41710	0.02690
3096.13133	0.02689
3094.84557	0.02713
3093.55980	0.02752
3092.27403	0.02794
3090.98826	0.02829
3089.70249	0.02851
3088.41672	0.02863
3087.13095	0.02865
3085.84518	0.02848
3084.55942	0.02804
3083.27365	0.02741
3081.98788	0.02683
3080.70211	0.02654
3079.41634	0.02662
3078.13057	0.02689
3076.84480	0.02704
3075.55903	0.02692
3074.27326	0.02672
3072.98750	0.02669
3071.70173	0.02689
3070.41596	0.02711
3069.13019	0.02724
3067.84442	0.02736
3066.55865	0.02757
3065.27288	0.02785
3063.98711	0.02800
3062.70135	0.02792
3061.41558	0.02766
3060.12981	0.02736
3058.84404	0.02713
3057.55827	0.02698
3056.27250	0.02692
3054.98673	0.02694
3053.70096	0.02695
3052.41519	0.02682
3051.12943	0.02649
3049.84366	0.02605
3048.55789	0.02568
3047.27212	0.02550
3045.98635	0.02555
3044.70058	0.02580
3043.41481	0.02614
3042.12904	0.02647
3040.84328	0.02674
3039.55751	0.02692
3038.27174	0.02705
3036.98597	0.02713
3035.70020	0.02712
3034.41443	0.02700
3033.12866	0.02676
3031.84289	0.02648
3030.55712	0.02627
3029.27136	0.02622
3027.98559	0.02633
3026.69982	0.02643
3025.41405	0.02631
3024.12828	0.02589
3022.84251	0.02536
3021.55674	0.02503
3020.27097	0.02506
3018.98521	0.02533
3017.69944	0.02557
3016.41367	0.02560
3015.12790	0.02548
3013.84213	0.02535
3012.55636	0.02531
3011.27059	0.02534
3009.98482	0.02537
3008.69905	0.02535
3007.41329	0.02523
3006.12752	0.02506
3004.84175	0.02488
3003.55598	0.02478
3002.27021	0.02475
3000.98444	0.02477
2999.69867	0.02477
2998.41290	0.02472
2997.12714	0.02464
2995.84137	0.02466
2994.55560	0.02485
2993.26983	0.02521
2991.98406	0.02560
2990.69829	0.02588
2989.41252	0.02596
2988.12675	0.02580
2986.84098	0.02545
2985.55522	0.02503
2984.26945	0.02475
2982.98368	0.02474
2981.69791	0.02498
2980.41214	0.02537
2979.12637	0.02575
2977.84060	0.02602
2976.55483	0.02619
2975.26907	0.02635
2973.98330	0.02658
2972.69753	0.02676
2971.41176	0.02678
2970.12599	0.02664
2968.84022	0.02654
2967.55445	0.02667
2966.26868	0.02702
2964.98291	0.02742
2963.69715	0.02777
2962.41138	0.02813
2961.12561	0.02857
2959.83984	0.02898
2958.55407	0.02919
2957.26830	0.02921
2955.98253	0.02918
2954.69676	0.02927
2953.41100	0.02942
2952.12523	0.02951
2950.83946	0.02943
2949.55369	0.02920
2948.26792	0.02896
2946.98215	0.02889
2945.69638	0.02905
2944.41061	0.02932
2943.12484	0.02951
2941.83908	0.02949
2940.55331	0.02934
2939.26754	0.02924
2937.98177	0.02930
2936.69600	0.02951
2935.41023	0.02981
2934.12446	0.03010
2932.83869	0.03031
2931.55293	0.03041
2930.26716	0.03041
2928.98139	0.03042
2927.69562	0.03050
2926.40985	0.03073
2925.12408	0.03112
2923.83831	0.03155
2922.55254	0.03183
2921.26677	0.03182
2919.98101	0.03157
2918.69524	0.03120
2917.40947	0.03085
2916.12370	0.03061
2914.83793	0.03052
2913.55216	0.03054
2912.26639	0.03048
2910.98062	0.03017
2909.69486	0.02968
2908.40909	0.02925
2907.12332	0.02901
2905.83755	0.02890
2904.55178	0.02875
2903.26601	0.02855
2901.98024	0.02840
2900.69447	0.02835
2899.40870	0.02838
2898.12294	0.02842
2896.83717	0.02835
2895.55140	0.02811
2894.26563	0.02779
2892.97986	0.02758
2891.69409	0.02759
2890.40832	0.02775
2889.12255	0.02792
2887.83678	0.02797
2886.55102	0.02784
2885.26525	0.02754
2883.97948	0.02721
2882.69371	0.02705
2881.40794	0.02718
2880.12217	0.02753
2878.83640	0.02789
2877.55063	0.02808
2876.26487	0.02805
2874.97910	0.02785
2873.69333	0.02758
2872.40756	0.02734
2871.12179	0.02724
2869.83602	0.02731
2868.55025	0.02744
2867.26448	0.02747
2865.97871	0.02731
2864.69295	0.02706
2863.40718	0.02691
2862.12141	0.02696
2860.83564	0.02715
2859.54987	0.02732
2858.26410	0.02741
2856.97833	0.02752
2855.69256	0.02769
2854.40680	0.02782
2853.12103	0.02779
2851.83526	0.02762
2850.54949	0.02736
2849.26372	0.02702
2847.97795	0.02661
2846.69218	0.02619
2845.40641	0.02588
2844.12064	0.02572
2842.83488	0.02570
2841.54911	0.02574
2840.26334	0.02569
2838.97757	0.02546
2837.69180	0.02509
2836.40603	0.02476
2835.12026	0.02460
2833.83449	0.02452
2832.54873	0.02435
2831.26296	0.02404
2829.97719	0.02366
2828.69142	0.02334
2827.40565	0.02311
2826.11988	0.02297
2824.83411	0.02290
2823.54834	0.02292
2822.26257	0.02301
2820.97681	0.02317
2819.69104	0.02332
2818.40527	0.02338
2817.11950	0.02329
2815.83373	0.02306
2814.54796	0.02278
2813.26219	0.02255
2811.97642	0.02243
2810.69066	0.02240
2809.40489	0.02242
2808.11912	0.02245
2806.83335	0.02249
2805.54758	0.02252
2804.26181	0.02255
2802.97604	0.02255
2801.69027	0.02252
2800.40450	0.02246
2799.11874	0.02238
2797.83297	0.02233
2796.54720	0.02231
2795.26143	0.02229
2793.97566	0.02221
2792.68989	0.02213
2791.40412	0.02219
2790.11835	0.02240
2788.83259	0.02256
2787.54682	0.02251
2786.26105	0.02232
2784.97528	0.02216
2783.68951	0.02214
2782.40374	0.02223
2781.11797	0.02232
2779.83220	0.02236
2778.54643	0.02236
2777.26067	0.02233
2775.97490	0.02227
2774.68913	0.02213
2773.40336	0.02190
2772.11759	0.02163
2770.83182	0.02142
2769.54605	0.02133
2768.26028	0.02138
2766.97452	0.02152
2765.68875	0.02166
2764.40298	0.02172
2763.11721	0.02167
2761.83144	0.02157
2760.54567	0.02150
2759.25990	0.02150
2757.97413	0.02152
2756.68836	0.02149
2755.40260	0.02141
2754.11683	0.02137
2752.83106	0.02147
2751.54529	0.02168
2750.25952	0.02185
2748.97375	0.02184
2747.68798	0.02166
2746.40221	0.02145
2745.11645	0.02133
2743.83068	0.02128
2742.54491	0.02124
2741.25914	0.02118
2739.97337	0.02115
2738.68760	0.02121
2737.40183	0.02134
2736.11606	0.02142
2734.83029	0.02133
2733.54453	0.02105
2732.25876	0.02070
2730.97299	0.02044
2729.68722	0.02040
2728.40145	0.02063
2727.11568	0.02100
2725.82991	0.02127
2724.54414	0.02121
2723.25838	0.02089
2721.97261	0.02059
2720.68684	0.02051
2719.40107	0.02061
2718.11530	0.02075
2716.82953	0.02081
2715.54376	0.02077
2714.25799	0.02068
2712.97222	0.02058
2711.68646	0.02051
2710.40069	0.02047
2709.11492	0.02042
2707.82915	0.02035
2706.54338	0.02032
2705.25761	0.02039
2703.97184	0.02056
2702.68607	0.02069
2701.40031	0.02073
2700.11454	0.02075
2698.82877	0.02080
2697.54300	0.02080
2696.25723	0.02067
2694.97146	0.02047
2693.68569	0.02030
2692.39992	0.02020
2691.11415	0.02011
2689.82839	0.02002
2688.54262	0.01999
2687.25685	0.02007
2685.97108	0.02017
2684.68531	0.02016
2683.39954	0.01999
2682.11377	0.01975
2680.82800	0.01960
2679.54224	0.01956
2678.25647	0.01957
2676.97070	0.01959
2675.68493	0.01963
2674.39916	0.01971
2673.11339	0.01978
2671.82762	0.01978
2670.54185	0.01974
2669.25608	0.01974
2667.97032	0.01983
2666.68455	0.02001
2665.39878	0.02020
2664.11301	0.02024
2662.82724	0.02006
2661.54147	0.01973
2660.25570	0.01945
2658.96993	0.01934
2657.68417	0.01941
2656.39840	0.01955
2655.11263	0.01968
2653.82686	0.01978
2652.54109	0.01983
2651.25532	0.01979
2649.96955	0.01965
2648.68378	0.01946
2647.39801	0.01927
2646.11225	0.01914
2644.82648	0.01909
2643.54071	0.01911
2642.25494	0.01916
2640.96917	0.01913
2639.68340	0.01902
2638.39763	0.01893
2637.11186	0.01894
2635.82609	0.01897
2634.54033	0.01886
2633.25456	0.01859
2631.96879	0.01830
2630.68302	0.01809
2629.39725	0.01795
2628.11148	0.01785
2626.82571	0.01787
2625.53994	0.01805
2624.25418	0.01830
2622.96841	0.01848
2621.68264	0.01853
2620.39687	0.01844
2619.11110	0.01821
2617.82533	0.01786
2616.53956	0.01750
2615.25379	0.01727
2613.96802	0.01723
2612.68226	0.01727
2611.39649	0.01727
2610.11072	0.01720
2608.82495	0.01716
2607.53918	0.01718
2606.25341	0.01722
2604.96764	0.01721
2603.68187	0.01716
2602.39611	0.01725
2601.11034	0.01755
2599.82457	0.01784
2598.53880	0.01780
2597.25303	0.01737
2595.96726	0.01684
2594.68149	0.01658
2593.39572	0.01672
2592.10995	0.01714
2590.82419	0.01755
2589.53842	0.01774
2588.25265	0.01762
2586.96688	0.01729
2585.68111	0.01687
2584.39534	0.01642
2583.10957	0.01601
2581.82380	0.01573
2580.53804	0.01563
2579.25227	0.01570
2577.96650	0.01591
2576.68073	0.01618
2575.39496	0.01647
2574.10919	0.01674
2572.82342	0.01695
2571.53765	0.01707
2570.25188	0.01707
2568.96612	0.01694
2567.68035	0.01664
2566.39458	0.01619
2565.10881	0.01580
2563.82304	0.01575
2562.53727	0.01613
2561.25150	0.01670
2559.96573	0.01714
2558.67997	0.01725
2557.39420	0.01711
2556.10843	0.01690
2554.82266	0.01674
2553.53689	0.01663
2552.25112	0.01652
2550.96535	0.01640
2549.67958	0.01635
2548.39381	0.01639
2547.10805	0.01640
2545.82228	0.01633
2544.53651	0.01622
2543.25074	0.01617
2541.96497	0.01615
2540.67920	0.01605
2539.39343	0.01587
2538.10766	0.01571
2536.82190	0.01563
2535.53613	0.01554
2534.25036	0.01538
2532.96459	0.01527
2531.67882	0.01537
2530.39305	0.01569
2529.10728	0.01606
2527.82151	0.01628
2526.53574	0.01623
2525.24998	0.01594
2523.96421	0.01552
2522.67844	0.01510
2521.39267	0.01481
2520.10690	0.01465
2518.82113	0.01461
2517.53536	0.01468
2516.24959	0.01483
2514.96383	0.01497
2513.67806	0.01507
2512.39229	0.01513
2511.10652	0.01513
2509.82075	0.01497
2508.53498	0.01462
2507.24921	0.01426
2505.96344	0.01406
2504.67767	0.01411
2503.39191	0.01434
2502.10614	0.01464
2500.82037	0.01486
2499.53460	0.01492
2498.24883	0.01488
2496.96306	0.01479
2495.67729	0.01463
2494.39152	0.01433
2493.10576	0.01401
2491.81999	0.01392
2490.53422	0.01415
2489.24845	0.01449
2487.96268	0.01474
2486.67691	0.01491
2485.39114	0.01514
2484.10537	0.01544
2482.81960	0.01560
2481.53384	0.01549
2480.24807	0.01530
2478.96230	0.01524
2477.67653	0.01533
2476.39076	0.01536
2475.10499	0.01531
2473.81922	0.01533
2472.53345	0.01552
2471.24769	0.01574
2469.96192	0.01575
2468.67615	0.01544
2467.39038	0.01483
2466.10461	0.01409
2464.81884	0.01355
2463.53307	0.01353
2462.24730	0.01400
2460.96153	0.01459
2459.67577	0.01496
2458.39000	0.01511
2457.10423	0.01524
2455.81846	0.01542
2454.53269	0.01553
2453.24692	0.01547
2451.96115	0.01530
2450.67538	0.01514
2449.38962	0.01511
2448.10385	0.01524
2446.81808	0.01546
2445.53231	0.01557
2444.24654	0.01544
2442.96077	0.01512
2441.67500	0.01478
2440.38923	0.01445
2439.10346	0.01410
2437.81770	0.01377
2436.53193	0.01355
2435.24616	0.01344
2433.96039	0.01336
2432.67462	0.01334
2431.38885	0.01346
2430.10308	0.01365
2428.81731	0.01376
2427.53155	0.01372
2426.24578	0.01360
2424.96001	0.01341
2423.67424	0.01318
2422.38847	0.01303
2421.10270	0.01312
2419.81693	0.01345
2418.53116	0.01379
2417.24539	0.01394
2415.95963	0.01384
2414.67386	0.01359
2413.38809	0.01336
2412.10232	0.01328
2410.81655	0.01339
2409.53078	0.01362
2408.24501	0.01379
2406.95924	0.01381
2405.67347	0.01370
2404.38771	0.01361
2403.10194	0.01365
2401.81617	0.01379
2400.53040	0.01393
2399.24463	0.01400
2397.95886	0.01399
2396.67309	0.01392
2395.38732	0.01380
2394.10156	0.01370
2392.81579	0.01370
2391.53002	0.01382
2390.24425	0.01395
2388.95848	0.01395
2387.67271	0.01376
2386.38694	0.01352
2385.10117	0.01344
2383.81540	0.01365
2382.52964	0.01403
2381.24387	0.01439
2379.95810	0.01465
2378.67233	0.01486
2377.38656	0.01515
2376.10079	0.01553
2374.81502	0.01592
2373.52925	0.01618
2372.24349	0.01633
2370.95772	0.01640
2369.67195	0.01657
2368.38618	0.01692
2367.10041	0.01737
2365.81464	0.01777
2364.52887	0.01811
2363.24310	0.01831
2361.95733	0.01836
2360.67157	0.01830
2359.38580	0.01830
2358.10003	0.01833
2356.81426	0.01834
2355.52849	0.01828
2354.24272	0.01810
2352.95695	0.01783
2351.67118	0.01747
2350.38542	0.01705
2349.09965	0.01682
2347.81388	0.01689
2346.52811	0.01700
2345.24234	0.01703
2343.95657	0.01710
2342.67080	0.01741
2341.38503	0.01771
2340.09926	0.01780
2338.81350	0.01785
2337.52773	0.01790
2336.24196	0.01782
2334.95619	0.01770
2333.67042	0.01775
2332.38465	0.01797
2331.09888	0.01776
2329.81311	0.01743
2328.52735	0.01757
2327.24158	0.01762
2325.95581	0.01770
2324.67004	0.01805
2323.38427	0.01797
2322.09850	0.01740
2320.81273	0.01710
2319.52696	0.01675
2318.24119	0.01645
2316.95543	0.01643
2315.66966	0.01620
2314.38389	0.01585
2313.09812	0.01557
2311.81235	0.01523
2310.52658	0.01506
2309.24081	0.01495
2307.95504	0.01480
2306.66928	0.01473
2305.38351	0.01463
2304.09774	0.01454
2302.81197	0.01443
2301.52620	0.01423
2300.24043	0.01403
2298.95466	0.01384
2297.66889	0.01375
2296.38312	0.01379
2295.09736	0.01394
2293.81159	0.01415
2292.52582	0.01430
2291.24005	0.01438
2289.95428	0.01441
2288.66851	0.01442
2287.38274	0.01427
2286.09697	0.01386
2284.81121	0.01337
2283.52544	0.01312
2282.23967	0.01319
2280.95390	0.01330
2279.66813	0.01313
2278.38236	0.01266
2277.09659	0.01216
2275.81082	0.01184
2274.52505	0.01174
2273.23929	0.01177
2271.95352	0.01189
2270.66775	0.01204
2269.38198	0.01217
2268.09621	0.01222
2266.81044	0.01218
2265.52467	0.01199
2264.23890	0.01153
2262.95314	0.01080
2261.66737	0.01008
2260.38160	0.00981
2259.09583	0.01023
2257.81006	0.01107
2256.52429	0.01185
2255.23852	0.01229
2253.95275	0.01241
2252.66698	0.01244
2251.38122	0.01239
2250.09545	0.01200
2248.80968	0.01117
2247.52391	0.01039
2246.23814	0.01010
2244.95237	0.01047
2243.66660	0.01118
2242.38083	0.01182
2241.09507	0.01214
2239.80930	0.01197
2238.52353	0.01118
2237.23776	0.01000
2235.95199	0.00906
2234.66622	0.00881
2233.38045	0.00912
2232.09468	0.00953
2230.80891	0.00978
2229.52315	0.00992
2228.23738	0.01003
2226.95161	0.01011
2225.66584	0.01013
2224.38007	0.01006
2223.09430	0.00981
2221.80853	0.00947
2220.52276	0.00935
2219.23700	0.00966
2217.95123	0.01007
2216.66546	0.01004
2215.37969	0.00954
2214.09392	0.00913
2212.80815	0.00919
2211.52238	0.00942
2210.23661	0.00912
2208.95084	0.00796
2207.66508	0.00631
2206.37931	0.00501
2205.09354	0.00480
2203.80777	0.00583
2202.52200	0.00756
2201.23623	0.00908
2199.95046	0.00982
2198.66469	0.00980
2197.37893	0.00947
2196.09316	0.00917
2194.80739	0.00893
2193.52162	0.00882
2192.23585	0.00912
2190.95008	0.00991
2189.66431	0.01066
2188.37854	0.01064
2187.09277	0.00979
2185.80701	0.00874
2184.52124	0.00794
2183.23547	0.00728
2181.94970	0.00657
2180.66393	0.00594
2179.37816	0.00553
2178.09239	0.00527
2176.80662	0.00511
2175.52085	0.00520
2174.23509	0.00565
2172.94932	0.00622
2171.66355	0.00662
2170.37778	0.00682
2169.09201	0.00707
2167.80624	0.00757
2166.52047	0.00820
2165.23470	0.00865
2163.94894	0.00858
2162.66317	0.00785
2161.37740	0.00648
2160.09163	0.00471
2158.80586	0.00300
2157.52009	0.00186
2156.23432	0.00133
2154.94855	0.00114
2153.66278	0.00126
2152.37702	0.00204
2151.09125	0.00353
2149.80548	0.00491
2148.51971	0.00513
2147.23394	0.00404
2145.94817	0.00266
2144.66240	0.00205
2143.37663	0.00240
2142.09087	0.00325
2140.80510	0.00433
2139.51933	0.00563
2138.23356	0.00689
2136.94779	0.00755
2135.66202	0.00724
2134.37625	0.00625
2133.09048	0.00531
2131.80471	0.00499
2130.51895	0.00540
2129.23318	0.00629
2127.94741	0.00726
2126.66164	0.00795
2125.37587	0.00811
2124.09010	0.00774
2122.80433	0.00719
2121.51856	0.00697
2120.23280	0.00729
2118.94703	0.00785
2117.66126	0.00817
2116.37549	0.00803
2115.08972	0.00754
2113.80395	0.00693
2112.51818	0.00651
2111.23241	0.00642
2109.94664	0.00655
2108.66088	0.00666
2107.37511	0.00665
2106.08934	0.00673
2104.80357	0.00704
2103.51780	0.00745
2102.23203	0.00775
2100.94626	0.00784
2099.66049	0.00735
2098.37473	0.00685
2097.08896	0.00636
2095.80319	0.00598
2094.51742	0.00603
2093.23165	0.00661
2091.94588	0.00747
2090.66011	0.00817
2089.37434	0.00850
2088.08857	0.00860
2086.80281	0.00859
2085.51704	0.00846
2084.23127	0.00811
2082.94550	0.00765
2081.65973	0.00728
2080.37396	0.00707
2079.08819	0.00684
2077.80242	0.00640
2076.51666	0.00582
2075.23089	0.00546
2073.94512	0.00562
2072.65935	0.00615
2071.37358	0.00662
2070.08781	0.00667
2068.80204	0.00628
2067.51627	0.00567
2066.23050	0.00511
2064.94474	0.00482
2063.65897	0.00483
2062.37320	0.00499
2061.08743	0.00511
2059.80166	0.00520
2058.51589	0.00535
2057.23012	0.00545
2055.94435	0.00517
2054.65859	0.00446
2053.37282	0.00369
2052.08705	0.00333
2050.80128	0.00339
2049.51551	0.00345
2048.22974	0.00304
2046.94397	0.00210
2045.65820	0.00102
2044.37243	0.00025
2043.08667	-0.00007
2041.80090	-0.00004
2040.51513	0.00020
2039.22936	0.00053
2037.94359	0.00062
2036.65782	0.00022
2035.37205	-0.00044
2034.08628	-0.00060
2032.80052	0.00027
2031.51475	0.00183
2030.22898	0.00317
2028.94321	0.00359
2027.65744	0.00322
2026.37167	0.00273
2025.08590	0.00263
2023.80013	0.00280
2022.51436	0.00280
2021.22860	0.00255
2019.94283	0.00251
2018.65706	0.00309
2017.37129	0.00401
2016.08552	0.00440
2014.79975	0.00364
2013.51398	0.00207
2012.22821	0.00065
2010.94245	-0.00001
2009.65668	-0.00005
2008.37091	0.00023
2007.08514	0.00087
2005.79937	0.00194
2004.51360	0.00322
2003.22783	0.00433
2001.94206	0.00516
2000.65629	0.00572
1999.37053	0.00598
1998.08476	0.00584
1996.79899	0.00548
1995.51322	0.00532
1994.22745	0.00564
1992.94168	0.00631
1991.65591	0.00693
1990.37014	0.00719
1989.08438	0.00703
1987.79861	0.00649
1986.51284	0.00564
1985.22707	0.00466
1983.94130	0.00401
1982.65553	0.00408
1981.36976	0.00485
1980.08399	0.00578
1978.79822	0.00609
1977.51246	0.00533
1976.22669	0.00380
1974.94092	0.00244
1973.65515	0.00218
1972.36938	0.00316
1971.08361	0.00464
1969.79784	0.00563
1968.51207	0.00565
1967.22631	0.00501
1965.94054	0.00445
1964.65477	0.00443
1963.36900	0.00478
1962.08323	0.00499
1960.79746	0.00474
1959.51169	0.00433
1958.22592	0.00428
1956.94015	0.00474
1955.65439	0.00535
1954.36862	0.00572
1953.08285	0.00588
1951.79708	0.00608
1950.51131	0.00640
1949.22554	0.00671
1947.93977	0.00693
1946.65400	0.00713
1945.36823	0.00734
1944.08247	0.00740
1942.79670	0.00724
1941.51093	0.00691
1940.22516	0.00657
1938.93939	0.00627
1937.65362	0.00598
1936.36785	0.00571
1935.08208	0.00558
1933.79632	0.00578
1932.51055	0.00636
1931.22478	0.00706
1929.93901	0.00750
1928.65324	0.00745
1927.36747	0.00710
1926.08170	0.00679
1924.79593	0.00679
1923.51016	0.00706
1922.22440	0.00733
1920.93863	0.00730
1919.65286	0.00693
1918.36709	0.00649
1917.08132	0.00630
1915.79555	0.00642
1914.50978	0.00672
1913.22401	0.00704
1911.93825	0.00731
1910.65248	0.00746
1909.36671	0.00746
1908.08094	0.00739
1906.79517	0.00739
1905.50940	0.00756
1904.22363	0.00781
1902.93786	0.00791
1901.65209	0.00773
1900.36633	0.00740
1899.08056	0.00718
1897.79479	0.00714
1896.50902	0.00714
1895.22325	0.00707
1893.93748	0.00697
1892.65171	0.00699
1891.36594	0.00720
1890.08018	0.00756
1888.79441	0.00794
1887.50864	0.00819
1886.22287	0.00823
1884.93710	0.00806
1883.65133	0.00781
1882.36556	0.00762
1881.07979	0.00759
1879.79402	0.00769
1878.50826	0.00783
1877.22249	0.00790
1875.93672	0.00786
1874.65095	0.00781
1873.36518	0.00779
1872.07941	0.00780
1870.79364	0.00782
1869.50787	0.00782
1868.22211	0.00779
1866.93634	0.00769
1865.65057	0.00755
1864.36480	0.00751
1863.07903	0.00766
1861.79326	0.00791
1860.50749	0.00806
1859.22172	0.00802
1857.93595	0.00790
1856.65019	0.00787
1855.36442	0.00797
1854.07865	0.00812
1852.79288	0.00819
1851.50711	0.00819
1850.22134	0.00822
1848.93557	0.00837
1847.64980	0.00856
1846.36404	0.00862
1845.07827	0.00843
1843.79250	0.00812
1842.50673	0.00785
1841.22096	0.00771
1839.93519	0.00770
1838.64942	0.00782
1837.36365	0.00801
1836.07788	0.00816
1834.79212	0.00819
1833.50635	0.00812
1832.22058	0.00805
1830.93481	0.00802
1829.64904	0.00805
1828.36327	0.00807
1827.07750	0.00800
1825.79173	0.00791
1824.50597	0.00790
1823.22020	0.00795
1821.93443	0.00793
1820.64866	0.00776
1819.36289	0.00754
1818.07712	0.00745
1816.79135	0.00755
1815.50558	0.00778
1814.21981	0.00802
1812.93405	0.00822
1811.64828	0.00838
1810.36251	0.00848
1809.07674	0.00853
1807.79097	0.00854
1806.50520	0.00858
1805.21943	0.00869
1803.93366	0.00883
1802.64790	0.00889
1801.36213	0.00883
1800.07636	0.00870
1798.79059	0.00860
1797.50482	0.00855
1796.21905	0.00852
1794.93328	0.00845
1793.64751	0.00834
1792.36174	0.00829
1791.07598	0.00835
1789.79021	0.00845
1788.50444	0.00850
1787.21867	0.00848
1785.93290	0.00846
1784.64713	0.00852
1783.36136	0.00862
1782.07559	0.00868
1780.78983	0.00868
1779.50406	0.00866
1778.21829	0.00864
1776.93252	0.00863
1775.64675	0.00865
1774.36098	0.00866
1773.07521	0.00872
1771.78944	0.00886
1770.50367	0.00901
1769.21791	0.00906
1767.93214	0.00903
1766.64637	0.00902
1765.36060	0.00902
1764.07483	0.00893
1762.78906	0.00879
1761.50329	0.00874
1760.21752	0.00884
1758.93176	0.00899
1757.64599	0.00907
1756.36022	0.00907
1755.07445	0.00901
1753.78868	0.00891
1752.50291	0.00881
1751.21714	0.00880
1749.93137	0.00888
1748.64560	0.00894
1747.35984	0.00893
1746.07407	0.00889
1744.78830	0.00889
1743.50253	0.00893
1742.21676	0.00896
1740.93099	0.00894
1739.64522	0.00896
1738.35945	0.00904
1737.07369	0.00908
1735.78792	0.00897
1734.50215	0.00886
1733.21638	0.00897
1731.93061	0.00926
1730.64484	0.00948
1729.35907	0.00953
1728.07330	0.00951
1726.78753	0.00950
1725.50177	0.00952
1724.21600	0.00959
1722.93023	0.00969
1721.64446	0.00978
1720.35869	0.00977
1719.07292	0.00968
1717.78715	0.00968
1716.50138	0.00989
1715.21561	0.01020
1713.92985	0.01049
1712.64408	0.01071
1711.35831	0.01086
1710.07254	0.01094
1708.78677	0.01102
1707.50100	0.01118
1706.21523	0.01145
1704.92946	0.01182
1703.64370	0.01210
1702.35793	0.01212
1701.07216	0.01207
1699.78639	0.01228
1698.50062	0.01274
1697.21485	0.01315
1695.92908	0.01349
1694.64331	0.01396
1693.35754	0.01449
1692.07178	0.01482
1690.78601	0.01496
1689.50024	0.01509
1688.21447	0.01526
1686.92870	0.01536
1685.64293	0.01542
1684.35716	0.01568
1683.07139	0.01622
1681.78563	0.01681
1680.49986	0.01725
1679.21409	0.01759
1677.92832	0.01785
1676.64255	0.01805
1675.35678	0.01831
1674.07101	0.01869
1672.78524	0.01908
1671.49947	0.01933
1670.21371	0.01951
1668.92794	0.01979
1667.64217	0.02019
1666.35640	0.02057
1665.07063	0.02082
1663.78486	0.02099
1662.49909	0.02125
1661.21332	0.02161
1659.92756	0.02199
1658.64179	0.02230
1657.35602	0.02250
1656.07025	0.02248
1654.78448	0.02220
1653.49871	0.02200
1652.21294	0.02223
1650.92717	0.02281
1649.64140	0.02327
1648.35564	0.02337
1647.06987	0.02330
1645.78410	0.02328
1644.49833	0.02336
1643.21256	0.02345
1641.92679	0.02350
1640.64102	0.02354
1639.35525	0.02356
1638.06949	0.02345
1636.78372	0.02321
1635.49795	0.02302
1634.21218	0.02299
1632.92641	0.02304
1631.64064	0.02300
1630.35487	0.02288
1629.06910	0.02276
1627.78333	0.02265
1626.49757	0.02252
1625.21180	0.02228
1623.92603	0.02200
1622.64026	0.02179
1621.35449	0.02169
1620.06872	0.02159
1618.78295	0.02134
1617.49718	0.02103
1616.21142	0.02087
1614.92565	0.02088
1613.63988	0.02090
1612.35411	0.02081
1611.06834	0.02070
1609.78257	0.02062
1608.49680	0.02055
1607.21103	0.02047
1605.92526	0.02038
1604.63950	0.02032
1603.35373	0.02031
1602.06796	0.02035
1600.78219	0.02040
1599.49642	0.02042
1598.21065	0.02040
1596.92488	0.02037
1595.63911	0.02032
1594.35335	0.02028
1593.06758	0.02027
1591.78181	0.02028
1590.49604	0.02031
1589.21027	0.02038
1587.92450	0.02052
1586.63873	0.02072
1585.35296	0.02091
1584.06719	0.02103
1582.78143	0.02109
1581.49566	0.02115
1580.20989	0.02126
1578.92412	0.02137
1577.63835	0.02141
1576.35258	0.02149
1575.06681	0.02174
1573.78104	0.02205
1572.49528	0.02220
1571.20951	0.02219
1569.92374	0.02221
1568.63797	0.02239
1567.35220	0.02263
1566.06643	0.02280
1564.78066	0.02290
1563.49489	0.02297
1562.20912	0.02296
1560.92336	0.02281
1559.63759	0.02271
1558.35182	0.02288
1557.06605	0.02326
1555.78028	0.02355
1554.49451	0.02368
1553.20874	0.02377
1551.92297	0.02384
1550.63721	0.02387
1549.35144	0.02390
1548.06567	0.02398
1546.77990	0.02403
1545.49413	0.02403
1544.20836	0.02400
1542.92259	0.02393
1541.63682	0.02379
1540.35105	0.02364
1539.06529	0.02364
1537.77952	0.02380
1536.49375	0.02394
1535.20798	0.02394
1533.92221	0.02390
1532.63644	0.02398
1531.35067	0.02416
1530.06490	0.02439
1528.77914	0.02460
1527.49337	0.02479
1526.20760	0.02498
1524.92183	0.02517
1523.63606	0.02529
1522.35029	0.02536
1521.06452	0.02553
1519.77875	0.02588
1518.49298	0.02629
1517.20722	0.02667
1515.92145	0.02709
1514.63568	0.02757
1513.34991	0.02807
1512.06414	0.02857
1510.77837	0.02906
1509.49260	0.02943
1508.20683	0.02965
1506.92107	0.02987
1505.63530	0.03032
1504.34953	0.03097
1503.06376	0.03161
1501.77799	0.03208
1500.49222	0.03243
1499.20645	0.03268
1497.92068	0.03285
1496.63491	0.03302
1495.34915	0.03328
1494.06338	0.03363
1492.77761	0.03396
1491.49184	0.03423
1490.20607	0.03450
1488.92030	0.03480
1487.63453	0.03514
1486.34876	0.03551
1485.06299	0.03594
1483.77723	0.03642
1482.49146	0.03693
1481.20569	0.03748
1479.91992	0.03804
1478.63415	0.03859
1477.34838	0.03907
1476.06261	0.03948
1474.77684	0.03982
1473.49108	0.04013
1472.20531	0.04049
1470.91954	0.04089
1469.63377	0.04122
1468.34800	0.04139
1467.06223	0.04144
1465.77646	0.04146
1464.49069	0.04159
1463.20492	0.04188
1461.91916	0.04225
1460.63339	0.04258
1459.34762	0.04275
1458.06185	0.04280
1456.77608	0.04291
1455.49031	0.04317
1454.20454	0.04344
1452.91877	0.04364
1451.63301	0.04383
1450.34724	0.04408
1449.06147	0.04432
1447.77570	0.04450
1446.48993	0.04461
1445.20416	0.04462
1443.91839	0.04452
1442.63262	0.04435
1441.34685	0.04418
1440.06109	0.04400
1438.77532	0.04380
1437.48955	0.04363
1436.20378	0.04360
1434.91801	0.04374
1433.63224	0.04395
1432.34647	0.04416
1431.06070	0.04443
1429.77494	0.04483
1428.48917	0.04537
1427.20340	0.04597
1425.91763	0.04658
1424.63186	0.04720
1423.34609	0.04780
1422.06032	0.04834
1420.77455	0.04876
1419.48878	0.04915
1418.20302	0.04959
1416.91725	0.05001
1415.63148	0.05032
1414.34571	0.05051
1413.05994	0.05060
1411.77417	0.05062
1410.48840	0.05057
1409.20263	0.05047
1407.91687	0.05031
1406.63110	0.05005
1405.34533	0.04971
1404.05956	0.04930
1402.77379	0.04884
1401.48802	0.04826
1400.20225	0.04758
1398.91648	0.04682
1397.63071	0.04606
1396.34495	0.04527
1395.05918	0.04447
1393.77341	0.04368
1392.48764	0.04292
1391.20187	0.04216
1389.91610	0.04141
1388.63033	0.04065
1387.34456	0.03989
1386.05880	0.03913
1384.77303	0.03834
1383.48726	0.03753
1382.20149	0.03674
1380.91572	0.03601
1379.62995	0.03530
1378.34418	0.03458
1377.05841	0.03380
1375.77264	0.03294
1374.48688	0.03205
1373.20111	0.03116
1371.91534	0.03030
1370.62957	0.02947
1369.34380	0.02872
1368.05803	0.02804
1366.77226	0.02739
1365.48649	0.02671
1364.20073	0.02600
1362.91496	0.02532
1361.62919	0.02474
1360.34342	0.02427
1359.05765	0.02387
1357.77188	0.02347
1356.48611	0.02306
1355.20034	0.02264
1353.91457	0.02224
1352.62881	0.02184
1351.34304	0.02143
1350.05727	0.02105
1348.77150	0.02072
1347.48573	0.02046
1346.19996	0.02022
1344.91419	0.01996
1343.62842	0.01967
1342.34266	0.01937
1341.05689	0.01912
1339.77112	0.01892
1338.48535	0.01875
1337.19958	0.01858
1335.91381	0.01842
1334.62804	0.01827
1333.34227	0.01811
1332.05650	0.01794
1330.77074	0.01775
1329.48497	0.01756
1328.19920	0.01740
1326.91343	0.01725
1325.62766	0.01710
1324.34189	0.01694
1323.05612	0.01680
1321.77035	0.01670
1320.48459	0.01662
1319.19882	0.01652
1317.91305	0.01638
1316.62728	0.01619
1315.34151	0.01600
1314.05574	0.01586
1312.76997	0.01575
1311.48420	0.01563
1310.19843	0.01547
1308.91267	0.01530
1307.62690	0.01514
1306.34113	0.01504
1305.05536	0.01499
1303.76959	0.01494
1302.48382	0.01486
1301.19805	0.01474
1299.91228	0.01459
1298.62652	0.01444
1297.34075	0.01429
1296.05498	0.01412
1294.76921	0.01394
1293.48344	0.01381
1292.19767	0.01377
1290.91190	0.01380
1289.62613	0.01386
1288.34036	0.01390
1287.05460	0.01388
1285.76883	0.01378
1284.48306	0.01364
1283.19729	0.01350
1281.91152	0.01344
1280.62575	0.01345
1279.33998	0.01349
1278.05421	0.01350
1276.76845	0.01344
1275.48268	0.01336
1274.19691	0.01327
1272.91114	0.01321
1271.62537	0.01317
1270.33960	0.01317
1269.05383	0.01318
1267.76806	0.01318
1266.48229	0.01312
1265.19653	0.01303
1263.91076	0.01291
1262.62499	0.01280
1261.33922	0.01272
1260.05345	0.01268
1258.76768	0.01269
1257.48191	0.01272
1256.19614	0.01277
1254.91037	0.01280
1253.62461	0.01282
1252.33884	0.01282
1251.05307	0.01280
1249.76730	0.01279
1248.48153	0.01278
1247.19576	0.01278
1245.90999	0.01274
1244.62422	0.01268
1243.33846	0.01261
1242.05269	0.01258
1240.76692	0.01258
1239.48115	0.01260
1238.19538	0.01260
1236.90961	0.01257
1235.62384	0.01253
1234.33807	0.01248
1233.05230	0.01244
1231.76654	0.01241
1230.48077	0.01235
1229.19500	0.01226
1227.90923	0.01214
1226.62346	0.01203
1225.33769	0.01194
1224.05192	0.01190
1222.76615	0.01189
1221.48039	0.01188
1220.19462	0.01182
1218.90885	0.01172
1217.62308	0.01162
1216.33731	0.01153
1215.05154	0.01147
1213.76577	0.01141
1212.48000	0.01135
1211.19423	0.01132
1209.90847	0.01132
1208.62270	0.01133
1207.33693	0.01133
1206.05116	0.01128
1204.76539	0.01120
1203.47962	0.01111
1202.19385	0.01104
1200.90808	0.01103
1199.62232	0.01110
1198.33655	0.01116
1197.05078	0.01121
1195.76501	0.01120
1194.47924	0.01112
1193.19347	0.01102
1191.90770	0.01095
1190.62193	0.01091
1189.33616	0.01088
1188.05040	0.01083
1186.76463	0.01076
1185.47886	0.01071
1184.19309	0.01072
1182.90732	0.01076
1181.62155	0.01081
1180.33578	0.01085
1179.05001	0.01089
1177.76425	0.01093
1176.47848	0.01097
1175.19271	0.01101
1173.90694	0.01106
1172.62117	0.01116
1171.33540	0.01127
1170.04963	0.01139
1168.76386	0.01148
1167.47809	0.01152
1166.19233	0.01151
1164.90656	0.01152
1163.62079	0.01158
1162.33502	0.01169
1161.04925	0.01178
1159.76348	0.01182
1158.47771	0.01181
1157.19194	0.01180
1155.90618	0.01186
1154.62041	0.01198
1153.33464	0.01209
1152.04887	0.01215
1150.76310	0.01217
1149.47733	0.01221
1148.19156	0.01229
1146.90579	0.01244
1145.62002	0.01265
1144.33426	0.01294
1143.04849	0.01328
1141.76272	0.01361
1140.47695	0.01393
1139.19118	0.01426
1137.90541	0.01465
1136.61964	0.01514
1135.33387	0.01574
1134.04811	0.01651
1132.76234	0.01742
1131.47657	0.01842
1130.19080	0.01950
1128.90503	0.02067
1127.61926	0.02197
1126.33349	0.02335
1125.04772	0.02477
1123.76195	0.02622
1122.47619	0.02769
1121.19042	0.02921
1119.90465	0.03075
1118.61888	0.03235
1117.33311	0.03404
1116.04734	0.03582
1114.76157	0.03762
1113.47580	0.03935
1112.19004	0.04091
1110.90427	0.04237
1109.61850	0.04378
1108.33273	0.04518
1107.04696	0.04652
1105.76119	0.04778
1104.47542	0.04902
1103.18965	0.05029
1101.90388	0.05159
1100.61812	0.05284
1099.33235	0.05399
1098.04658	0.05507
1096.76081	0.05613
1095.47504	0.05720
1094.18927	0.05825
1092.90350	0.05921
1091.61773	0.06010
1090.33197	0.06096
1089.04620	0.06181
1087.76043	0.06268
1086.47466	0.06357
1085.18889	0.06449
1083.90312	0.06544
1082.61735	0.06645
1081.33158	0.06749
1080.04581	0.06853
1078.76005	0.06955
1077.47428	0.07061
1076.18851	0.07176
1074.90274	0.07301
1073.61697	0.07431
1072.33120	0.07560
1071.04543	0.07690
1069.75966	0.07828
1068.47390	0.07978
1067.18813	0.08135
1065.90236	0.08294
1064.61659	0.08451
1063.33082	0.08605
1062.04505	0.08756
1060.75928	0.08903
1059.47351	0.09047
1058.18774	0.09186
1056.90198	0.09321
1055.61621	0.09453
1054.33044	0.09582
1053.04467	0.09712
1051.75890	0.09844
1050.47313	0.09979
1049.18736	0.10118
1047.90159	0.10259
1046.61583	0.10395
1045.33006	0.10528
1044.04429	0.10661
1042.75852	0.10801
1041.47275	0.10949
1040.18698	0.11097
1038.90121	0.11239
1037.61544	0.11371
1036.32967	0.11497
1035.04391	0.11622
1033.75814	0.11744
1032.47237	0.11857
1031.18660	0.11956
1029.90083	0.12039
1028.61506	0.12106
1027.32929	0.12157
1026.04352	0.12194
1024.75775	0.12223
1023.47199	0.12245
1022.18622	0.12255
1020.90045	0.12248
1019.61468	0.12216
1018.32891	0.12157
1017.04314	0.12073
1015.75737	0.11969
1014.47160	0.11852
1013.18584	0.11718
1011.90007	0.11567
1010.61430	0.11395
1009.32853	0.11204
1008.04276	0.10993
1006.75699	0.10762
1005.47122	0.10514
1004.18545	0.10253
1002.89968	0.09985
1001.61392	0.09712
1000.32815	0.09433
999.04238	0.09147
997.75661	0.08852
996.47084	0.08552
995.18507	0.08254
993.89930	0.07967
992.61353	0.07692
991.32777	0.07428
990.04200	0.07173
988.75623	0.06925
987.47046	0.06683
986.18469	0.06447
984.89892	0.06223
983.61315	0.06014
982.32738	0.05825
981.04161	0.05655
979.75585	0.05497
978.47008	0.05342
977.18431	0.05187
975.89854	0.05039
974.61277	0.04911
973.32700	0.04810
972.04123	0.04736
970.75546	0.04685
969.46970	0.04653
968.18393	0.04641
966.89816	0.04649
965.61239	0.04674
964.32662	0.04710
963.04085	0.04746
961.75508	0.04771
960.46931	0.04771
959.18354	0.04740
957.89778	0.04682
956.61201	0.04607
955.32624	0.04524
954.04047	0.04434
952.75470	0.04334
951.46893	0.04224
950.18316	0.04111
948.89739	0.04007
947.61163	0.03914
946.32586	0.03830
945.04009	0.03751
943.75432	0.03672
942.46855	0.03591
941.18278	0.03509
939.89701	0.03432
938.61124	0.03364
937.32547	0.03305
936.03971	0.03250
934.75394	0.03197
933.46817	0.03143
932.18240	0.03089
930.89663	0.03033
929.61086	0.02981
928.32509	0.02935
927.03932	0.02899
925.75356	0.02869
924.46779	0.02840
923.18202	0.02808
921.89625	0.02776
920.61048	0.02747
919.32471	0.02722
918.03894	0.02695
916.75317	0.02664
915.46740	0.02631
914.18164	0.02604
912.89587	0.02583
911.61010	0.02565
910.32433	0.02548
909.03856	0.02531
907.75279	0.02514
906.46702	0.02492
905.18125	0.02463
903.89549	0.02428
902.60972	0.02398
901.32395	0.02380
900.03818	0.02370
898.75241	0.02358
897.46664	0.02338
896.18087	0.02314
894.89510	0.02294
893.60933	0.02281
892.32357	0.02277
891.03780	0.02282
889.75203	0.02294
888.46626	0.02308
887.18049	0.02326
885.89472	0.02357
884.60895	0.02419
883.32318	0.02518
882.03742	0.02644
880.75165	0.02777
879.46588	0.02893
878.18011	0.02986
876.89434	0.03064
875.60857	0.03144
874.32280	0.03228
873.03703	0.03305
871.75126	0.03351
870.46550	0.03352
869.17973	0.03306
867.89396	0.03223
866.60819	0.03119
865.32242	0.03007
864.03665	0.02896
862.75088	0.02789
861.46511	0.02686
860.17935	0.02585
858.89358	0.02493
857.60781	0.02417
856.32204	0.02360
855.03627	0.02318
853.75050	0.02286
852.46473	0.02261
851.17896	0.02241
849.89319	0.02224
848.60743	0.02207
847.32166	0.02192
846.03589	0.02177
844.75012	0.02161
843.46435	0.02139
842.17858	0.02117
840.89281	0.02100
839.60704	0.02090
838.32128	0.02080
837.03551	0.02070
835.74974	0.02064
834.46397	0.02058
833.17820	0.02048
831.89243	0.02032
830.60666	0.02016
829.32089	0.02004
828.03512	0.01991
826.74936	0.01977
825.46359	0.01966
824.17782	0.01960
822.89205	0.01956
821.60628	0.01949
820.32051	0.01941
819.03474	0.01936
817.74897	0.01933
816.46321	0.01932
815.17744	0.01925
813.89167	0.01915
812.60590	0.01905
811.32013	0.01898
810.03436	0.01894
808.74859	0.01892
807.46282	0.01893
806.17705	0.01897
804.89129	0.01900
803.60552	0.01907
802.31975	0.01922
801.03398	0.01943
799.74821	0.01960
798.46244	0.01970
797.17667	0.01975
795.89090	0.01980
794.60513	0.01980
793.31937	0.01968
792.03360	0.01945
790.74783	0.01922
789.46206	0.01908
788.17629	0.01901
786.89052	0.01901
785.60475	0.01903
784.31898	0.01902
783.03322	0.01895
781.74745	0.01885
780.46168	0.01877
779.17591	0.01870
777.89014	0.01863
776.60437	0.01857
775.31860	0.01855
774.03283	0.01861
772.74706	0.01873
771.46130	0.01887
770.17553	0.01896
768.88976	0.01898
767.60399	0.01893
766.31822	0.01885
765.03245	0.01879
763.74668	0.01879
762.46091	0.01886
761.17515	0.01896
759.88938	0.01898
758.60361	0.01892
757.31784	0.01883
756.03207	0.01879
754.74630	0.01881
753.46053	0.01885
752.17476	0.01888
750.88899	0.01887
749.60323	0.01880
748.31746	0.01872
747.03169	0.01865
745.74592	0.01861
744.46015	0.01860
743.17438	0.01864
741.88861	0.01871
740.60284	0.01875
739.31708	0.01868
738.03131	0.01854
736.74554	0.01847
735.45977	0.01854
734.17400	0.01869
732.88823	0.01881
731.60246	0.01883
730.31669	0.01882
729.03092	0.01882
727.74516	0.01881
726.45939	0.01879
725.17362	0.01874
723.88785	0.01874
722.60208	0.01862
721.31631	0.01847
720.03054	0.01839
718.74477	0.01844
717.45901	0.01856
716.17324	0.01868
714.88747	0.01874
713.60170	0.01874
712.31593	0.01870
711.03016	0.01863
709.74439	0.01855
708.45862	0.01851
707.17285	0.01849
705.88709	0.01850
704.60132	0.01850
703.31555	0.01846
702.02978	0.01840
700.74401	0.01834
699.45824	0.01828
698.17247	0.01823
696.88670	0.01820
695.60094	0.01823
694.31517	0.01831
693.02940	0.01840
691.74363	0.01843
690.45786	0.01838
689.17209	0.01828
687.88632	0.01821
686.60055	0.01821
685.31478	0.01828
684.02902	0.01835
682.74325	0.01836
681.45748	0.01830
680.17171	0.01820
678.88594	0.01814
677.60017	0.01813
676.31440	0.01816
675.02863	0.01822
673.74287	0.01829
672.45710	0.01835
671.17133	0.01837
669.88556	0.01837
668.59979	0.01846
667.31402	0.01835
666.02825	0.01797
664.74248	0.01779
663.45671	0.01769
662.17095	0.01767
660.88518	0.01772
659.59941	0.01778
658.31364	0.01779
657.02787	0.01774
655.74210	0.01766
654.45633	0.01759
653.17056	0.01754
651.88480	0.01751
650.59903	0.01747
649.31326	0.01743
648.02749	0.01736
646.74172	0.01729
645.45595	0.01725
644.17018	0.01724
642.88441	0.01725
641.59864	0.01728
640.31288	0.01734
639.02711	0.01742
637.74134	0.01751
636.45557	0.01762
635.16980	0.01776
633.88403	0.01794
632.59826	0.01817
631.31249	0.01837
630.02673	0.01827
628.74096	0.01802
627.45519	0.01850
626.16942	0.01828
624.88365	0.01780
623.59788	0.01792
622.31211	0.01907
621.02634	0.02108
619.74057	0.02332
618.45481	0.02547
617.16904	0.02773
615.88327	0.03005
614.59750	0.03180
613.31173	0.03253
612.02596	0.03276
610.74019	0.03376
609.45442	0.03630
608.16866	0.03994
606.88289	0.04359
605.59712	0.04647
604.31135	0.04825
603.02558	0.04894
601.73981	0.04887
600.45404	0.04846
599.16827	0.04790
597.88250	0.04711
596.59674	0.04599
595.31097	0.04465
594.02520	0.04338
592.73943	0.04241
591.45366	0.04182
590.16789	0.04152
588.88212	0.04142
587.59635	0.04147
586.31059	0.04168
585.02482	0.04218
583.73905	0.04304
582.45328	0.04427
581.16751	0.04574
579.88174	0.04727
578.59597	0.04873
577.31020	0.05002
576.02443	0.05109
574.73867	0.05196
573.45290	0.05277
572.16713	0.05372
570.88136	0.05493
569.59559	0.05644
568.30982	0.05812
567.02405	0.05978
565.73828	0.06126
564.45251	0.06249
563.16675	0.06338
561.88098	0.06375
560.59521	0.06333
559.30944	0.06200
558.02367	0.05982
556.73790	0.05706
555.45213	0.05406
554.16636	0.05108
552.88060	0.04822
551.59483	0.04552
550.30906	0.04300
549.02329	0.04079
547.73752	0.03902
546.45175	0.03764
545.16598	0.03648
543.88021	0.03534
542.59444	0.03419
541.30868	0.03314
540.02291	0.03227
538.73714	0.03155
537.45137	0.03084
536.16560	0.03009
534.87983	0.02935
533.59406	0.02872
532.30829	0.02823
531.02253	0.02779
529.73676	0.02731
528.45099	0.02678
527.16522	0.02628
525.87945	0.02585
524.59368	0.02545
523.30791	0.02503
522.02214	0.02460
520.73637	0.02420
519.45061	0.02383
518.16484	0.02347
516.87907	0.02311
515.59330	0.02275
514.30753	0.02240
513.02176	0.02209
511.73599	0.02186
510.45022	0.02173
509.16446	0.02166
507.87869	0.02153
506.59292	0.02127
505.30715	0.02086
504.02138	0.02043
502.73561	0.02011
501.44984	0.01998
500.16407	0.02003
498.87830	0.02017
497.59254	0.02031
496.30677	0.02033
495.02100	0.02018
493.73523	0.01989
492.44946	0.01953
491.16369	0.01921
489.87792	0.01902
488.59215	0.01896
487.30639	0.01902
486.02062	0.01912
484.73485	0.01923
483.44908	0.01933
482.16331	0.01943
480.87754	0.01954
479.59177	0.01964
478.30600	0.01973
477.02023	0.01984
475.73447	0.02001
474.44870	0.02027
473.16293	0.02059
471.87716	0.02092
470.59139	0.02117
469.30562	0.02128
468.01985	0.02124
466.73408	0.02108
465.44832	0.02085
464.16255	0.02055
462.87678	0.02023
461.59101	0.01991
460.30524	0.01960
459.01947	0.01932
457.73370	0.01909
456.44793	0.01891
455.16216	0.01876
453.87640	0.01861
452.59063	0.01846
451.30486	0.01830
450.01909	0.01815
448.73332	0.01805
447.44755	0.01801
446.16178	0.01803
444.87601	0.01802
443.59025	0.01794
442.30448	0.01779
441.01871	0.01764
439.73294	0.01751
438.44717	0.01741
437.16140	0.01734
435.87563	0.01726
434.58986	0.01719
433.30409	0.01713
432.01833	0.01707
430.73256	0.01702
429.44679	0.01691
428.16102	0.01676
426.87525	0.01659
425.58948	0.01646
424.30371	0.01639
423.01794	0.01636
421.73218	0.01633
420.44641	0.01627
419.16064	0.01621
417.87487	0.01616
416.58910	0.01611
415.30333	0.01602
414.01756	0.01592
412.73179	0.01583
411.44602	0.01573
410.16026	0.01564
408.87449	0.01558
407.58872	0.01555
406.30295	0.01554
405.01718	0.01552
403.73141	0.01549
402.44564	0.01549
401.15987	0.01552
399.87411	0.01559
