3997.45528 0.04950
3996.16951 0.04950
3994.88374 0.04946
3993.59798 0.04886
3992.31221 0.04782
3991.02644 0.04699
3989.74067 0.04689
3988.45490 0.04759
3987.16913 0.04866
3985.88336 0.04943
3984.59759 0.04944
3983.31183 0.04886
3982.02606 0.04833
3980.74029 0.04831
3979.45452 0.04865
3978.16875 0.04887
3976.88298 0.04874
3975.59721 0.04850
3974.31144 0.04850
3973.02567 0.04887
3971.73991 0.04945
3970.45414 0.04986
3969.16837 0.04970
3967.88260 0.04881
3966.59683 0.04742
3965.31106 0.04605
3964.02529 0.04512
3962.73952 0.04477
3961.45376 0.04483
3960.16799 0.04513
3958.88222 0.04562
3957.59645 0.04643
3956.31068 0.04748
3955.02491 0.04832
3953.73914 0.04844
3952.45337 0.04787
3951.16760 0.04730
3949.88184 0.04737
3948.59607 0.04812
3947.31030 0.04902
3946.02453 0.04952
3944.73876 0.04948
3943.45299 0.04907
3942.16722 0.04848
3940.88145 0.04778
3939.59569 0.04715
3938.30992 0.04698
3937.02415 0.04747
3935.73838 0.04820
3934.45261 0.04839
3933.16684 0.04776
3931.88107 0.04681
3930.59530 0.04617
3929.30953 0.04594
3928.02377 0.04566
3926.73800 0.04503
3925.45223 0.04432
3924.16646 0.04404
3922.88069 0.04449
3921.59492 0.04568
3920.30915 0.04746
3919.02338 0.04936
3917.73762 0.05058
3916.45185 0.05056
3915.16608 0.04957
3913.88031 0.04853
3912.59454 0.04824
3911.30877 0.04880
3910.02300 0.04973
3908.73723 0.05040
3907.45146 0.05043
3906.16570 0.04975
3904.87993 0.04850
3903.59416 0.04688
3902.30839 0.04527
3901.02262 0.04418
3899.73685 0.04397
3898.45108 0.04449
3897.16531 0.04511
3895.87955 0.04538
3894.59378 0.04542
3893.30801 0.04554
3892.02224 0.04573
3890.73647 0.04568
3889.45070 0.04521
3888.16493 0.04463
3886.87916 0.04454
3885.59339 0.04518
3884.30763 0.04598
3883.02186 0.04626
3881.73609 0.04608
3880.45032 0.04607
3879.16455 0.04659
3877.87878 0.04724
3876.59301 0.04747
3875.30724 0.04731
3874.02148 0.04713
3872.73571 0.04708
3871.44994 0.04693
3870.16417 0.04661
3868.87840 0.04625
3867.59263 0.04589
3866.30686 0.04546
3865.02109 0.04502
3863.73532 0.04463
3862.44956 0.04422
3861.16379 0.04372
3859.87802 0.04326
3858.59225 0.04316
3857.30648 0.04363
3856.02071 0.04448
3854.73494 0.04522
3853.44917 0.04560
3852.16341 0.04561
3850.87764 0.04536
3849.59187 0.04495
3848.30610 0.04457
3847.02033 0.04436
3845.73456 0.04433
3844.44879 0.04438
3843.16302 0.04452
3841.87725 0.04479
3840.59149 0.04498
3839.30572 0.04474
3838.01995 0.04402
3836.73418 0.04317
3835.44841 0.04258
3834.16264 0.04234
3832.87687 0.04240
3831.59110 0.04268
3830.30534 0.04307
3829.01957 0.04345
3827.73380 0.04370
3826.44803 0.04372
3825.16226 0.04340
3823.87649 0.04274
3822.59072 0.04207
3821.30495 0.04191
3820.01918 0.04245
3818.73342 0.04324
3817.44765 0.04375
3816.16188 0.04394
3814.87611 0.04395
3813.59034 0.04367
3812.30457 0.04305
3811.01880 0.04231
3809.73303 0.04172
3808.44726 0.04132
3807.16150 0.04115
3805.87573 0.04117
3804.58996 0.04131
3803.30419 0.04166
3802.01842 0.04253
3800.73265 0.04379
3799.44688 0.04467
3798.16111 0.04448
3796.87535 0.04339
3795.58958 0.04209
3794.30381 0.04110
3793.01804 0.04063
3791.73227 0.04072
3790.44650 0.04119
3789.16073 0.04188
3787.87496 0.04267
3786.58919 0.04345
3785.30343 0.04390
3784.01766 0.04372
3782.73189 0.04288
3781.44612 0.04190
3780.16035 0.04141
3778.87458 0.04170
3777.58881 0.04250
3776.30304 0.04332
3775.01728 0.04387
3773.73151 0.04417
3772.44574 0.04441
3771.15997 0.04480
3769.87420 0.04538
3768.58843 0.04581
3767.30266 0.04569
3766.01689 0.04505
3764.73112 0.04422
3763.44536 0.04335
3762.15959 0.04236
3760.87382 0.04133
3759.58805 0.04050
3758.30228 0.04001
3757.01651 0.03990
3755.73074 0.04015
3754.44497 0.04066
3753.15921 0.04122
3751.87344 0.04155
3750.58767 0.04149
3749.30190 0.04124
3748.01613 0.04112
3746.73036 0.04103
3745.44459 0.04086
3744.15882 0.04084
3742.87305 0.04102
3741.58729 0.04104
3740.30152 0.04072
3739.01575 0.04030
3737.72998 0.03998
3736.44421 0.03986
3735.15844 0.03989
3733.87267 0.03990
3732.58690 0.03988
3731.30114 0.04017
3730.01537 0.04097
3728.72960 0.04207
3727.44383 0.04302
3726.15806 0.04357
3724.87229 0.04369
3723.58652 0.04345
3722.30075 0.04300
3721.01498 0.04248
3719.72922 0.04196
3718.44345 0.04152
3717.15768 0.04119
3715.87191 0.04086
3714.58614 0.04037
3713.30037 0.03970
3712.01460 0.03909
3710.72883 0.03884
3709.44307 0.03904
3708.15730 0.03964
3706.87153 0.04054
3705.58576 0.04167
3704.29999 0.04290
3703.01422 0.04401
3701.72845 0.04470
3700.44268 0.04466
3699.15691 0.04375
3697.87115 0.04213
3696.58538 0.04038
3695.29961 0.03922
3694.01384 0.03901
3692.72807 0.03946
3691.44230 0.03997
3690.15653 0.04002
3688.87076 0.03957
3687.58500 0.03909
3686.29923 0.03905
3685.01346 0.03958
3683.72769 0.04036
3682.44192 0.04087
3681.15615 0.04087
3679.87038 0.04073
3678.58461 0.04092
3677.29884 0.04142
3676.01308 0.04191
3674.72731 0.04231
3673.44154 0.04257
3672.15577 0.04263
3670.87000 0.04255
3669.58423 0.04244
3668.29846 0.04232
3667.01269 0.04222
3665.72693 0.04237
3664.44116 0.04292
3663.15539 0.04366
3661.86962 0.04419
3660.58385 0.04425
3659.29808 0.04401
3658.01231 0.04394
3656.72654 0.04451
3655.44077 0.04577
3654.15501 0.04725
3652.86924 0.04832
3651.58347 0.04866
3650.29770 0.04838
3649.01193 0.04785
3647.72616 0.04733
3646.44039 0.04688
3645.15462 0.04652
3643.86886 0.04627
3642.58309 0.04609
3641.29732 0.04583
3640.01155 0.04554
3638.72578 0.04556
3637.44001 0.04616
3636.15424 0.04706
3634.86847 0.04757
3633.58270 0.04738
3632.29694 0.04676
3631.01117 0.04622
3629.72540 0.04606
3628.43963 0.04625
3627.15386 0.04646
3625.86809 0.04636
3624.58232 0.04593
3623.29655 0.04540
3622.01079 0.04507
3620.72502 0.04517
3619.43925 0.04584
3618.15348 0.04702
3616.86771 0.04836
3615.58194 0.04948
3614.29617 0.05016
3613.01040 0.05041
3611.72463 0.05028
3610.43887 0.04984
3609.15310 0.04943
3607.86733 0.04954
3606.58156 0.05032
3605.29579 0.05131
3604.01002 0.05200
3602.72425 0.05225
3601.43848 0.05235
3600.15272 0.05257
3598.86695 0.05296
3597.58118 0.05331
3596.29541 0.05334
3595.00964 0.05294
3593.72387 0.05236
3592.43810 0.05197
3591.15233 0.05203
3589.86656 0.05244
3588.58080 0.05295
3587.29503 0.05337
3586.00926 0.05372
3584.72349 0.05395
3583.43772 0.05384
3582.15195 0.05325
3580.86618 0.05252
3579.58041 0.05226
3578.29464 0.05285
3577.00888 0.05407
3575.72311 0.05523
3574.43734 0.05572
3573.15157 0.05544
3571.86580 0.05470
3570.58003 0.05398
3569.29426 0.05361
3568.00849 0.05371
3566.72273 0.05417
3565.43696 0.05465
3564.15119 0.05488
3562.86542 0.05490
3561.57965 0.05492
3560.29388 0.05509
3559.00811 0.05551
3557.72234 0.05621
3556.43657 0.05707
3555.15081 0.05775
3553.86504 0.05797
3552.57927 0.05778
3551.29350 0.05759
3550.00773 0.05772
3548.72196 0.05810
3547.43619 0.05834
3546.15042 0.05812
3544.86466 0.05752
3543.57889 0.05697
3542.29312 0.05684
3541.00735 0.05712
3539.72158 0.05753
3538.43581 0.05783
3537.15004 0.05788
3535.86427 0.05762
3534.57850 0.05710
3533.29274 0.05663
3532.00697 0.05667
3530.72120 0.05740
3529.43543 0.05851
3528.14966 0.05951
3526.86389 0.06019
3525.57812 0.06073
3524.29235 0.06123
3523.00659 0.06152
3521.72082 0.06145
3520.43505 0.06116
3519.14928 0.06101
3517.86351 0.06110
3516.57774 0.06114
3515.29197 0.06089
3514.00620 0.06051
3512.72043 0.06047
3511.43467 0.06090
3510.14890 0.06143
3508.86313 0.06165
3507.57736 0.06162
3506.29159 0.06169
3505.00582 0.06199
3503.72005 0.06228
3502.43428 0.06233
3501.14852 0.06217
3499.86275 0.06198
3498.57698 0.06186
3497.29121 0.06184
3496.00544 0.06196
3494.71967 0.06223
3493.43390 0.06255
3492.14813 0.06274
3490.86236 0.06273
3489.57660 0.06262
3488.29083 0.06260
3487.00506 0.06288
3485.71929 0.06361
3484.43352 0.06471
3483.14775 0.06579
3481.86198 0.06643
3480.57621 0.06646
3479.29045 0.06604
3478.00468 0.06544
3476.71891 0.06500
3475.43314 0.06496
3474.14737 0.06532
3472.86160 0.06578
3471.57583 0.06602
3470.29006 0.06588
3469.00429 0.06539
3467.71853 0.06472
3466.43276 0.06412
3465.14699 0.06381
3463.86122 0.06392
3462.57545 0.06439
3461.28968 0.06494
3460.00391 0.06518
3458.71814 0.06496
3457.43238 0.06457
3456.14661 0.06448
3454.86084 0.06483
3453.57507 0.06533
3452.28930 0.06566
3451.00353 0.06577
3449.71776 0.06583
3448.43199 0.06605
3447.14622 0.06647
3445.86046 0.06692
3444.57469 0.06716
3443.28892 0.06710
3442.00315 0.06696
3440.71738 0.06701
3439.43161 0.06732
3438.14584 0.06773
3436.86007 0.06796
3435.57431 0.06787
3434.28854 0.06749
3433.00277 0.06702
3431.71700 0.06682
3430.43123 0.06709
3429.14546 0.06761
3427.85969 0.06784
3426.57392 0.06745
3425.28815 0.06669
3424.00239 0.06620
3422.71662 0.06647
3421.43085 0.06745
3420.14508 0.06865
3418.85931 0.06957
3417.57354 0.07011
3416.28777 0.07048
3415.00200 0.07092
3413.71624 0.07131
3412.43047 0.07135
3411.14470 0.07089
3409.85893 0.07011
3408.57316 0.06940
3407.28739 0.06902
3406.00162 0.06896
3404.71585 0.06899
3403.43008 0.06894
3402.14432 0.06897
3400.85855 0.06939
3399.57278 0.06976
3398.28701 0.06993
3397.00124 0.07024
3395.71547 0.07052
3394.42970 0.07054
3393.14393 0.07029
3391.85817 0.06993
3390.57240 0.06973
3389.28663 0.06991
3388.00086 0.07046
3386.71509 0.07124
3385.42932 0.07207
3384.14355 0.07277
3382.85778 0.07314
3381.57201 0.07305
3380.28625 0.07257
3379.00048 0.07195
3377.71471 0.07145
3376.42894 0.07124
3375.14317 0.07148
3373.85740 0.07214
3372.57163 0.07297
3371.28586 0.07353
3370.00010 0.07351
3368.71433 0.07300
3367.42856 0.07236
3366.14279 0.07195
3364.85702 0.07175
3363.57125 0.07152
3362.28548 0.07116
3360.99971 0.07079
3359.71394 0.07058
3358.42818 0.07056
3357.14241 0.07071
3355.85664 0.07101
3354.57087 0.07135
3353.28510 0.07149
3351.99933 0.07136
3350.71356 0.07112
3349.42779 0.07096
3348.14202 0.07076
3346.85626 0.07033
3345.57049 0.06979
3344.28472 0.06966
3342.99895 0.07026
3341.71318 0.07126
3340.42741 0.07195
3339.14164 0.07195
3337.85587 0.07144
3336.57011 0.07091
3335.28434 0.07070
3333.99857 0.07088
3332.71280 0.07124
3331.42703 0.07146
3330.14126 0.07140
3328.85549 0.07115
3327.56972 0.07088
3326.28395 0.07072
3324.99819 0.07070
3323.71242 0.07082
3322.42665 0.07100
3321.14088 0.07115
3319.85511 0.07130
3318.56934 0.07154
3317.28357 0.07189
3315.99780 0.07229
3314.71204 0.07265
3313.42627 0.07289
3312.14050 0.07292
3310.85473 0.07275
3309.56896 0.07260
3308.28319 0.07267
3306.99742 0.07291
3305.71165 0.07300
3304.42588 0.07262
3303.14012 0.07181
3301.85435 0.07092
3300.56858 0.07035
3299.28281 0.07022
3297.99704 0.07029
3296.71127 0.07017
3295.42550 0.06969
3294.13973 0.06906
3292.85397 0.06871
3291.56820 0.06887
3290.28243 0.06948
3288.99666 0.07025
3287.71089 0.07088
3286.42512 0.07118
3285.13935 0.07122
3283.85358 0.07127
3282.56781 0.07153
3281.28205 0.07191
3279.99628 0.07209
3278.71051 0.07183
3277.42474 0.07120
3276.13897 0.07049
3274.85320 0.06989
3273.56743 0.06951
3272.28166 0.06937
3270.99590 0.06945
3269.71013 0.06968
3268.42436 0.07001
3267.13859 0.07037
3265.85282 0.07068
3264.56705 0.07087
3263.28128 0.07098
3261.99551 0.07112
3260.70974 0.07128
3259.42398 0.07133
3258.13821 0.07115
3256.85244 0.07079
3255.56667 0.07057
3254.28090 0.07075
3252.99513 0.07123
3251.70936 0.07160
3250.42359 0.07155
3249.13783 0.07117
3247.85206 0.07076
3246.56629 0.07047
3245.28052 0.07024
3243.99475 0.06997
3242.70898 0.06972
3241.42321 0.06965
3240.13744 0.06984
3238.85167 0.07016
3237.56591 0.07032
3236.28014 0.07004
3234.99437 0.06934
3233.70860 0.06859
3232.42283 0.06821
3231.13706 0.06833
3229.85129 0.06880
3228.56552 0.06935
3227.27976 0.06973
3225.99399 0.06973
3224.70822 0.06931
3223.42245 0.06868
3222.13668 0.06821
3220.85091 0.06811
3219.56514 0.06834
3218.27937 0.06872
3216.99360 0.06904
3215.70784 0.06920
3214.42207 0.06912
3213.13630 0.06873
3211.85053 0.06805
3210.56476 0.06726
3209.27899 0.06675
3207.99322 0.06678
3206.70745 0.06725
3205.42169 0.06776
3204.13592 0.06812
3202.85015 0.06850
3201.56438 0.06909
3200.27861 0.06970
3198.99284 0.06999
3197.70707 0.06982
3196.42130 0.06934
3195.13553 0.06878
3193.84977 0.06828
3192.56400 0.06798
3191.27823 0.06804
3189.99246 0.06841
3188.70669 0.06878
3187.42092 0.06882
3186.13515 0.06847
3184.84938 0.06800
3183.56362 0.06773
3182.27785 0.06783
3180.99208 0.06820
3179.70631 0.06851
3178.42054 0.06845
3177.13477 0.06796
3175.84900 0.06727
3174.56323 0.06668
3173.27746 0.06626
3171.99170 0.06588
3170.70593 0.06543
3169.42016 0.06504
3168.13439 0.06497
3166.84862 0.06528
3165.56285 0.06581
3164.27708 0.06623
3162.99131 0.06632
3161.70555 0.06611
3160.41978 0.06580
3159.13401 0.06556
3157.84824 0.06542
3156.56247 0.06525
3155.27670 0.06496
3153.99093 0.06455
3152.70516 0.06425
3151.41939 0.06426
3150.13363 0.06451
3148.84786 0.06471
3147.56209 0.06459
3146.27632 0.06427
3144.99055 0.06417
3143.70478 0.06462
3142.41901 0.06547
3141.13324 0.06619
3139.84748 0.06637
3138.56171 0.06605
3137.27594 0.06561
3135.99017 0.06530
3134.70440 0.06513
3133.41863 0.06508
3132.13286 0.06518
3130.84709 0.06527
3129.56132 0.06501
3128.27556 0.06430
3126.98979 0.06347
3125.70402 0.06293
3124.41825 0.06278
3123.13248 0.06287
3121.84671 0.06304
3120.56094 0.06325
3119.27517 0.06342
3117.98940 0.06344
3116.70364 0.06329
3115.41787 0.06303
3114.13210 0.06274
3112.84633 0.06253
3111.56056 0.06242
3110.27479 0.06236
3108.98902 0.06223
3107.70325 0.06195
3106.41749 0.06152
3105.13172 0.06102
3103.84595 0.06062
3102.56018 0.06047
3101.27441 0.06061
3099.98864 0.06090
3098.70287 0.06119
3097.41710 0.06143
3096.13133 0.06163
3094.84557 0.06177
3093.55980 0.06186
3092.27403 0.06188
3090.98826 0.06178
3089.70249 0.06149
3088.41672 0.06108
3087.13095 0.06069
3085.84518 0.06046
3084.55942 0.06046
3083.27365 0.06068
3081.98788 0.06104
3080.70211 0.06134
3079.41634 0.06136
3078.13057 0.06102
3076.84480 0.06055
3075.55903 0.06029
3074.27326 0.06035
3072.98750 0.06055
3071.70173 0.06062
3070.41596 0.06049
3069.13019 0.06030
3067.84442 0.06023
3066.55865 0.06034
3065.27288 0.06053
3063.98711 0.06062
3062.70135 0.06040
3061.41558 0.05987
3060.12981 0.05919
3058.84404 0.05860
3057.55827 0.05820
3056.27250 0.05796
3054.98673 0.05777
3053.70096 0.05761
3052.41519 0.05755
3051.12943 0.05764
3049.84366 0.05783
3048.55789 0.05790
3047.27212 0.05770
3045.98635 0.05721
3044.70058 0.05665
3043.41481 0.05628
3042.12904 0.05625
3040.84328 0.05648
3039.55751 0.05674
3038.27174 0.05684
3036.98597 0.05680
3035.70020 0.05687
3034.41443 0.05718
3033.12866 0.05755
3031.84289 0.05764
3030.55712 0.05736
3029.27136 0.05688
3027.98559 0.05645
3026.69982 0.05612
3025.41405 0.05582
3024.12828 0.05552
3022.84251 0.05532
3021.55674 0.05523
3020.27097 0.05524
3018.98521 0.05531
3017.69944 0.05541
3016.41367 0.05551
3015.12790 0.05560
3013.84213 0.05566
3012.55636 0.05566
3011.27059 0.05555
3009.98482 0.05536
3008.69905 0.05523
3007.41329 0.05529
3006.12752 0.05545
3004.84175 0.05551
3003.55598 0.05545
3002.27021 0.05551
3000.98444 0.05569
2999.69867 0.05538
2998.41290 0.05528
2997.12714 0.05516
2995.84137 0.05515
2994.55560 0.05522
2993.26983 0.05516
2991.98406 0.05488
2990.69829 0.05453
2989.41252 0.05431
2988.12675 0.05426
2986.84098 0.05425
2985.55522 0.05421
2984.26945 0.05424
2982.98368 0.05444
2981.69791 0.05477
2980.41214 0.05513
2979.12637 0.05553
2977.84060 0.05598
2976.55483 0.05632
2975.26907 0.05641
2973.98330 0.05634
2972.69753 0.05650
2971.41176 0.05716
2970.12599 0.05822
2968.84022 0.05933
2967.55445 0.06027
2966.26868 0.06113
2964.98291 0.06202
2963.69715 0.06289
2962.41138 0.06358
2961.12561 0.06400
2959.83984 0.06425
2958.55407 0.06453
2957.26830 0.06490
2955.98253 0.06528
2954.69676 0.06551
2953.41100 0.06557
2952.12523 0.06565
2950.83946 0.06594
2949.55369 0.06641
2948.26792 0.06678
2946.98215 0.06674
2945.69638 0.06620
2944.41061 0.06538
2943.12484 0.06466
2941.83908 0.06442
2940.55331 0.06479
2939.26754 0.06555
2937.98177 0.06627
2936.69600 0.06666
2935.41023 0.06683
2934.12446 0.06713
2932.83869 0.06781
2931.55293 0.06870
2930.26716 0.06946
2928.98139 0.06986
2927.69562 0.07003
2926.40985 0.07020
2925.12408 0.07039
2923.83831 0.07048
2922.55254 0.07044
2921.26677 0.07034
2919.98101 0.07016
2918.69524 0.06977
2917.40947 0.06918
2916.12370 0.06855
2914.83793 0.06793
2913.55216 0.06718
2912.26639 0.06630
2910.98062 0.06554
2909.69486 0.06515
2908.40909 0.06502
2907.12332 0.06475
2905.83755 0.06413
2904.55178 0.06337
2903.26601 0.06274
2901.98024 0.06230
2900.69447 0.06194
2899.40870 0.06161
2898.12294 0.06130
2896.83717 0.06092
2895.55140 0.06037
2894.26563 0.05968
2892.97986 0.05903
2891.69409 0.05852
2890.40832 0.05810
2889.12255 0.05768
2887.83678 0.05724
2886.55102 0.05678
2885.26525 0.05636
2883.97948 0.05607
2882.69371 0.05598
2881.40794 0.05613
2880.12217 0.05635
2878.83640 0.05646
2877.55063 0.05641
2876.26487 0.05639
2874.97910 0.05660
2873.69333 0.05699
2872.40756 0.05735
2871.12179 0.05755
2869.83602 0.05763
2868.55025 0.05767
2867.26448 0.05764
2865.97871 0.05748
2864.69295 0.05724
2863.40718 0.05705
2862.12141 0.05699
2860.83564 0.05703
2859.54987 0.05708
2858.26410 0.05700
2856.97833 0.05678
2855.69256 0.05646
2854.40680 0.05613
2853.12103 0.05582
2851.83526 0.05541
2850.54949 0.05489
2849.26372 0.05435
2847.97795 0.05396
2846.69218 0.05372
2845.40641 0.05352
2844.12064 0.05326
2842.83488 0.05285
2841.54911 0.05221
2840.26334 0.05133
2838.97757 0.05040
2837.69180 0.04963
2836.40603 0.04908
2835.12026 0.04863
2833.83449 0.04823
2832.54873 0.04790
2831.26296 0.04763
2829.97719 0.04735
2828.69142 0.04703
2827.40565 0.04671
2826.11988 0.04647
2824.83411 0.04629
2823.54834 0.04613
2822.26257 0.04591
2820.97681 0.04555
2819.69104 0.04506
2818.40527 0.04464
2817.11950 0.04449
2815.83373 0.04458
2814.54796 0.04469
2813.26219 0.04465
2811.97642 0.04443
2810.69066 0.04412
2809.40489 0.04384
2808.11912 0.04373
2806.83335 0.04384
2805.54758 0.04408
2804.26181 0.04419
2802.97604 0.04407
2801.69027 0.04387
2800.40450 0.04382
2799.11874 0.04390
2797.83297 0.04393
2796.54720 0.04374
2795.26143 0.04339
2793.97566 0.04305
2792.68989 0.04284
2791.40412 0.04273
2790.11835 0.04267
2788.83259 0.04263
2787.54682 0.04258
2786.26105 0.04251
2784.97528 0.04247
2783.68951 0.04245
2782.40374 0.04245
2781.11797 0.04243
2779.83220 0.04237
2778.54643 0.04227
2777.26067 0.04215
2775.97490 0.04206
2774.68913 0.04207
2773.40336 0.04214
2772.11759 0.04217
2770.83182 0.04212
2769.54605 0.04207
2768.26028 0.04207
2766.97452 0.04202
2765.68875 0.04184
2764.40298 0.04165
2763.11721 0.04160
2761.83144 0.04170
2760.54567 0.04178
2759.25990 0.04165
2757.97413 0.04124
2756.68836 0.04071
2755.40260 0.04033
2754.11683 0.04028
2752.83106 0.04045
2751.54529 0.04060
2750.25952 0.04059
2748.97375 0.04051
2747.68798 0.04043
2746.40221 0.04029
2745.11645 0.04002
2743.83068 0.03973
2742.54491 0.03961
2741.25914 0.03967
2739.97337 0.03978
2738.68760 0.03981
2737.40183 0.03981
2736.11606 0.03982
2734.83029 0.03981
2733.54453 0.03970
2732.25876 0.03953
2730.97299 0.03932
2729.68722 0.03908
2728.40145 0.03881
2727.11568 0.03860
2725.82991 0.03852
2724.54414 0.03854
2723.25838 0.03856
2721.97261 0.03853
2720.68684 0.03844
2719.40107 0.03837
2718.11530 0.03835
2716.82953 0.03834
2715.54376 0.03829
2714.25799 0.03825
2712.97222 0.03827
2711.68646 0.03831
2710.40069 0.03829
2709.11492 0.03818
2707.82915 0.03806
2706.54338 0.03800
2705.25761 0.03798
2703.97184 0.03793
2702.68607 0.03786
2701.40031 0.03777
2700.11454 0.03765
2698.82877 0.03745
2697.54300 0.03726
2696.25723 0.03721
2694.97146 0.03738
2693.68569 0.03762
2692.39992 0.03769
2691.11415 0.03741
2689.82839 0.03694
2688.54262 0.03660
2687.25685 0.03657
2685.97108 0.03675
2684.68531 0.03690
2683.39954 0.03695
2682.11377 0.03697
2680.82800 0.03700
2679.54224 0.03702
2678.25647 0.03695
2676.97070 0.03672
2675.68493 0.03638
2674.39916 0.03610
2673.11339 0.03607
2671.82762 0.03630
2670.54185 0.03656
2669.25608 0.03662
2667.97032 0.03639
2666.68455 0.03596
2665.39878 0.03558
2664.11301 0.03545
2662.82724 0.03559
2661.54147 0.03583
2660.25570 0.03596
2658.96993 0.03597
2657.68417 0.03600
2656.39840 0.03614
2655.11263 0.03637
2653.82686 0.03655
2652.54109 0.03659
2651.25532 0.03638
2649.96955 0.03590
2648.68378 0.03528
2647.39801 0.03472
2646.11225 0.03444
2644.82648 0.03448
2643.54071 0.03473
2642.25494 0.03499
2640.96917 0.03507
2639.68340 0.03491
2638.39763 0.03456
2637.11186 0.03415
2635.82609 0.03379
2634.54033 0.03356
2633.25456 0.03349
2631.96879 0.03364
2630.68302 0.03399
2629.39725 0.03444
2628.11148 0.03480
2626.82571 0.03493
2625.53994 0.03477
2624.25418 0.03442
2622.96841 0.03397
2621.68264 0.03351
2620.39687 0.03312
2619.11110 0.03280
2617.82533 0.03255
2616.53956 0.03235
2615.25379 0.03229
2613.96802 0.03238
2612.68226 0.03254
2611.39649 0.03260
2610.11072 0.03249
2608.82495 0.03223
2607.53918 0.03187
2606.25341 0.03155
2604.96764 0.03140
2603.68187 0.03148
2602.39611 0.03168
2601.11034 0.03179
2599.82457 0.03167
2598.53880 0.03124
2597.25303 0.03055
2595.96726 0.02976
2594.68149 0.02909
2593.39572 0.02868
2592.10995 0.02857
2590.82419 0.02877
2589.53842 0.02921
2588.25265 0.02971
2586.96688 0.03013
2585.68111 0.03042
2584.39534 0.03066
2583.10957 0.03086
2581.82380 0.03094
2580.53804 0.03075
2579.25227 0.03036
2577.96650 0.02991
2576.68073 0.02958
2575.39496 0.02944
2574.10919 0.02940
2572.82342 0.02935
2571.53765 0.02923
2570.25188 0.02916
2568.96612 0.02931
2567.68035 0.02973
2566.39458 0.03022
2565.10881 0.03044
2563.82304 0.03011
2562.53727 0.02926
2561.25150 0.02822
2559.96573 0.02733
2558.67997 0.02675
2557.39420 0.02643
2556.10843 0.02636
2554.82266 0.02658
2553.53689 0.02700
2552.25112 0.02733
2550.96535 0.02733
2549.67958 0.02702
2548.39381 0.02667
2547.10805 0.02644
2545.82228 0.02630
2544.53651 0.02621
2543.25074 0.02625
2541.96497 0.02655
2540.67920 0.02706
2539.39343 0.02758
2538.10766 0.02792
2536.82190 0.02791
2535.53613 0.02756
2534.25036 0.02712
2532.96459 0.02695
2531.67882 0.02715
2530.39305 0.02737
2529.10728 0.02724
2527.82151 0.02676
2526.53574 0.02632
2525.24998 0.02622
2523.96421 0.02648
2522.67844 0.02691
2521.39267 0.02732
2520.10690 0.02758
2518.82113 0.02761
2517.53536 0.02743
2516.24959 0.02715
2514.96383 0.02688
2513.67806 0.02664
2512.39229 0.02638
2511.10652 0.02614
2509.82075 0.02604
2508.53498 0.02602
2507.24921 0.02590
2505.96344 0.02560
2504.67767 0.02530
2503.39191 0.02527
2502.10614 0.02555
2500.82037 0.02600
2499.53460 0.02642
2498.24883 0.02670
2496.96306 0.02685
2495.67729 0.02694
2494.39152 0.02701
2493.10576 0.02705
2491.81999 0.02701
2490.53422 0.02682
2489.24845 0.02648
2487.96268 0.02613
2486.67691 0.02592
2485.39114 0.02588
2484.10537 0.02596
2482.81960 0.02610
2481.53384 0.02618
2480.24807 0.02601
2478.96230 0.02545
2477.67653 0.02480
2476.39076 0.02453
2475.10499 0.02486
2473.81922 0.02544
2472.53345 0.02572
2471.24769 0.02548
2469.96192 0.02489
2468.67615 0.02430
2467.39038 0.02399
2466.10461 0.02406
2464.81884 0.02444
2463.53307 0.02486
2462.24730 0.02510
2460.96153 0.02514
2459.67577 0.02516
2458.39000 0.02530
2457.10423 0.02550
2455.81846 0.02560
2454.53269 0.02550
2453.24692 0.02527
2451.96115 0.02510
2450.67538 0.02514
2449.38962 0.02529
2448.10385 0.02536
2446.81808 0.02522
2445.53231 0.02493
2444.24654 0.02460
2442.96077 0.02428
2441.67500 0.02399
2440.38923 0.02382
2439.10346 0.02386
2437.81770 0.02406
2436.53193 0.02419
2435.24616 0.02407
2433.96039 0.02376
2432.67462 0.02350
2431.38885 0.02348
2430.10308 0.02365
2428.81731 0.02383
2427.53155 0.02385
2426.24578 0.02366
2424.96001 0.02335
2423.67424 0.02301
2422.38847 0.02266
2421.10270 0.02233
2419.81693 0.02210
2418.53116 0.02203
2417.24539 0.02211
2415.95963 0.02231
2414.67386 0.02271
2413.38809 0.02336
2412.10232 0.02410
2410.81655 0.02462
2409.53078 0.02474
2408.24501 0.02445
2406.95924 0.02388
2405.67347 0.02319
2404.38771 0.02264
2403.10194 0.02246
2401.81617 0.02270
2400.53040 0.02318
2399.24463 0.02443
2397.95886 0.02400
2396.67309 0.02358
2395.38732 0.02365
2394.10156 0.02394
2392.81579 0.02424
2391.53002 0.02441
2390.24425 0.02432
2388.95848 0.02393
2387.67271 0.02332
2386.38694 0.02268
2385.10117 0.02221
2383.81540 0.02203
2382.52964 0.02211
2381.24387 0.02234
2379.95810 0.02260
2378.67233 0.02278
2377.38656 0.02288
2376.10079 0.02291
2374.81502 0.02292
2373.52925 0.02285
2372.24349 0.02275
2370.95772 0.02273
2369.67195 0.02288
2368.38618 0.02312
2367.10041 0.02330
2365.81464 0.02341
2364.52887 0.02349
2363.24310 0.02357
2361.95733 0.02357
2360.67157 0.02338
2359.38580 0.02316
2358.10003 0.02316
2356.81426 0.02340
2355.52849 0.02373
2354.24272 0.02399
2352.95695 0.02408
2351.67118 0.02400
2350.38542 0.02396
2349.09965 0.02413
2347.81388 0.02429
2346.52811 0.02411
2345.24234 0.02387
2343.95657 0.02414
2342.67080 0.02476
2341.38503 0.02489
2340.09926 0.02454
2338.81350 0.02478
2337.52773 0.02549
2336.24196 0.02529
2334.95619 0.02441
2333.67042 0.02431
2332.38465 0.02473
2331.09888 0.02442
2329.81311 0.02418
2328.52735 0.02485
2327.24158 0.02526
2325.95581 0.02549
2324.67004 0.02619
2323.38427 0.02650
2322.09850 0.02621
2320.81273 0.02617
2319.52696 0.02601
2318.24119 0.02565
2316.95543 0.02541
2315.66966 0.02491
2314.38389 0.02425
2313.09812 0.02370
2311.81235 0.02309
2310.52658 0.02262
2309.24081 0.02235
2307.95504 0.02218
2306.66928 0.02212
2305.38351 0.02202
2304.09774 0.02194
2302.81197 0.02204
2301.52620 0.02225
2300.24043 0.02244
2298.95466 0.02237
2297.66889 0.02207
2296.38312 0.02184
2295.09736 0.02192
2293.81159 0.02227
2292.52582 0.02253
2291.24005 0.02246
2289.95428 0.02216
2288.66851 0.02197
2287.38274 0.02200
2286.09697 0.02208
2284.81121 0.02196
2283.52544 0.02168
2282.23967 0.02145
2280.95390 0.02142
2279.66813 0.02142
2278.38236 0.02110
2277.09659 0.02033
2275.81082 0.01945
2274.52505 0.01899
2273.23929 0.01917
2271.95352 0.01967
2270.66775 0.01993
2269.38198 0.01973
2268.09621 0.01926
2266.81044 0.01884
2265.52467 0.01864
2264.23890 0.01858
2262.95314 0.01841
2261.66737 0.01794
2260.38160 0.01725
2259.09583 0.01666
2257.81006 0.01640
2256.52429 0.01650
2255.23852 0.01686
2253.95275 0.01738
2252.66698 0.01781
2251.38122 0.01761
2250.09545 0.01688
2248.80968 0.01704
2247.52391 0.01618
2246.23814 0.01563
2244.95237 0.01558
2243.66660 0.01577
2242.38083 0.01583
2241.09507 0.01565
2239.80930 0.01547
2238.52353 0.01553
2237.23776 0.01581
2235.95199 0.01614
2234.66622 0.01641
2233.38045 0.01661
2232.09468 0.01673
2230.80891 0.01668
2229.52315 0.01628
2228.23738 0.01541
2226.95161 0.01431
2225.66584 0.01351
2224.38007 0.01331
2223.09430 0.01347
2221.80853 0.01360
2220.52276 0.01367
2219.23700 0.01405
2217.95123 0.01490
2216.66546 0.01570
2215.37969 0.01569
2214.09392 0.01476
2212.80815 0.01363
2211.52238 0.01318
2210.23661 0.01376
2208.95084 0.01502
2207.66508 0.01625
2206.37931 0.01670
2205.09354 0.01602
2203.80777 0.01452
2202.52200 0.01281
2201.23623 0.01128
2199.95046 0.01016
2198.66469 0.00969
2197.37893 0.00991
2196.09316 0.01031
2194.80739 0.01038
2193.52162 0.01033
2192.23585 0.01095
2190.95008 0.01255
2189.66431 0.01443
2188.37854 0.01545
2187.09277 0.01491
2185.80701 0.01301
2184.52124 0.01075
2183.23547 0.00931
2181.94970 0.00928
2180.66393 0.01017
2179.37816 0.01083
2178.09239 0.01037
2176.80662 0.00875
2175.52085 0.00682
2174.23509 0.00564
2172.94932 0.00570
2171.66355 0.00679
2170.37778 0.00837
2169.09201 0.01002
2167.80624 0.01137
2166.52047 0.01205
2165.23470 0.01185
2163.94894 0.01084
2162.66317 0.00923
2161.37740 0.00714
2160.09163 0.00475
2158.80586 0.00263
2157.52009 0.00151
2156.23432 0.00148
2154.94855 0.00186
2153.66278 0.00191
2152.37702 0.00157
2151.09125 0.00132
2149.80548 0.00163
2148.51971 0.00260
2147.23394 0.00403
2145.94817 0.00557
2144.66240 0.00677
2143.37663 0.00728
2142.09087 0.00711
2140.80510 0.00668
2139.51933 0.00635
2138.23356 0.00619
2136.94779 0.00613
2135.66202 0.00619
2134.37625 0.00653
2133.09048 0.00715
2131.80471 0.00788
2130.51895 0.00848
2129.23318 0.00880
2127.94741 0.00879
2126.66164 0.00864
2125.37587 0.00871
2124.09010 0.00919
2122.80433 0.00988
2121.51856 0.01037
2120.23280 0.01053
2118.94703 0.01062
2117.66126 0.01089
2116.37549 0.01126
2115.08972 0.01143
2113.80395 0.01130
2112.51818 0.01106
2111.23241 0.01103
2109.94664 0.01137
2108.66088 0.01184
2107.37511 0.01203
2106.08934 0.01173
2104.80357 0.01122
2103.51780 0.01097
2102.23203 0.01120
2100.94626 0.01165
2099.66049 0.01274
2098.37473 0.01322
2097.08896 0.01263
2095.80319 0.01154
2094.51742 0.01053
2093.23165 0.00994
2091.94588 0.00981
2090.66011 0.00987
2089.37434 0.00982
2088.08857 0.00964
2086.80281 0.00951
2085.51704 0.00953
2084.23127 0.00966
2082.94550 0.00983
2081.65973 0.01009
2080.37396 0.01053
2079.08819 0.01115
2077.80242 0.01177
2076.51666 0.01209
2075.23089 0.01193
2073.94512 0.01153
2072.65935 0.01131
2071.37358 0.01147
2070.08781 0.01180
2068.80204 0.01192
2067.51627 0.01156
2066.23050 0.01080
2064.94474 0.00988
2063.65897 0.00901
2062.37320 0.00825
2061.08743 0.00760
2059.80166 0.00721
2058.51589 0.00722
2057.23012 0.00756
2055.94435 0.00802
2054.65859 0.00848
2053.37282 0.00899
2052.08705 0.00950
2050.80128 0.00969
2049.51551 0.00933
2048.22974 0.00861
2046.94397 0.00786
2045.65820 0.00720
2044.37243 0.00661
2043.08667 0.00630
2041.80090 0.00652
2040.51513 0.00723
2039.22936 0.00803
2037.94359 0.00850
2036.65782 0.00852
2035.37205 0.00821
2034.08628 0.00790
2032.80052 0.00774
2031.51475 0.00751
2030.22898 0.00675
2028.94321 0.00538
2027.65744 0.00391
2026.37167 0.00292
2025.08590 0.00251
2023.80013 0.00234
2022.51436 0.00209
2021.22860 0.00174
2019.94283 0.00146
2018.65706 0.00160
2017.37129 0.00245
2016.08552 0.00400
2014.79975 0.00578
2013.51398 0.00711
2012.22821 0.00751
2010.94245 0.00691
2009.65668 0.00571
2008.37091 0.00460
2007.08514 0.00420
2005.79937 0.00453
2004.51360 0.00496
2003.22783 0.00496
2001.94206 0.00476
2000.65629 0.00500
1999.37053 0.00577
1998.08476 0.00642
1996.79899 0.00630
1995.51322 0.00562
1994.22745 0.00523
1992.94168 0.00574
1991.65591 0.00694
1990.37014 0.00807
1989.08438 0.00857
1987.79861 0.00851
1986.51284 0.00843
1985.22707 0.00873
1983.94130 0.00930
1982.65553 0.00971
1981.36976 0.00968
1980.08399 0.00939
1978.79822 0.00926
1977.51246 0.00950
1976.22669 0.00993
1974.94092 0.01025
1973.65515 0.01037
1972.36938 0.01039
1971.08361 0.01052
1969.79784 0.01083
1968.51207 0.01115
1967.22631 0.01119
1965.94054 0.01090
1964.65477 0.01056
1963.36900 0.01044
1962.08323 0.01045
1960.79746 0.01034
1959.51169 0.01009
1958.22592 0.00989
1956.94015 0.00977
1955.65439 0.00958
1954.36862 0.00928
1953.08285 0.00909
1951.79708 0.00929
1950.51131 0.00988
1949.22554 0.01063
1947.93977 0.01133
1946.65400 0.01194
1945.36823 0.01243
1944.08247 0.01267
1942.79670 0.01253
1941.51093 0.01217
1940.22516 0.01197
1938.93939 0.01225
1937.65362 0.01292
1936.36785 0.01355
1935.08208 0.01374
1933.79632 0.01348
1932.51055 0.01309
1931.22478 0.01296
1929.93901 0.01320
1928.65324 0.01364
1927.36747 0.01394
1926.08170 0.01385
1924.79593 0.01353
1923.51016 0.01343
1922.22440 0.01392
1920.93863 0.01478
1919.65286 0.01545
1918.36709 0.01553
1917.08132 0.01506
1915.79555 0.01440
1914.50978 0.01387
1913.22401 0.01364
1911.93825 0.01370
1910.65248 0.01392
1909.36671 0.01417
1908.08094 0.01434
1906.79517 0.01435
1905.50940 0.01416
1904.22363 0.01385
1902.93786 0.01356
1901.65209 0.01339
1900.36633 0.01331
1899.08056 0.01322
1897.79479 0.01313
1896.50902 0.01318
1895.22325 0.01352
1893.93748 0.01414
1892.65171 0.01478
1891.36594 0.01512
1890.08018 0.01505
1888.79441 0.01475
1887.50864 0.01447
1886.22287 0.01435
1884.93710 0.01434
1883.65133 0.01436
1882.36556 0.01435
1881.07979 0.01430
1879.79402 0.01420
1878.50826 0.01408
1877.22249 0.01403
1875.93672 0.01409
1874.65095 0.01418
1873.36518 0.01423
1872.07941 0.01423
1870.79364 0.01427
1869.50787 0.01435
1868.22211 0.01438
1866.93634 0.01428
1865.65057 0.01408
1864.36480 0.01387
1863.07903 0.01376
1861.79326 0.01375
1860.50749 0.01380
1859.22172 0.01386
1857.93595 0.01389
1856.65019 0.01394
1855.36442 0.01410
1854.07865 0.01436
1852.79288 0.01461
1851.50711 0.01471
1850.22134 0.01464
1848.93557 0.01455
1847.64980 0.01454
1846.36404 0.01455
1845.07827 0.01448
1843.79250 0.01436
1842.50673 0.01427
1841.22096 0.01427
1839.93519 0.01435
1838.64942 0.01448
1837.36365 0.01461
1836.07788 0.01469
1834.79212 0.01470
1833.50635 0.01463
1832.22058 0.01449
1830.93481 0.01433
1829.64904 0.01426
1828.36327 0.01435
1827.07750 0.01457
1825.79173 0.01488
1824.50597 0.01523
1823.22020 0.01556
1821.93443 0.01576
1820.64866 0.01576
1819.36289 0.01558
1818.07712 0.01529
1816.79135 0.01496
1815.50558 0.01465
1814.21981 0.01438
1812.93405 0.01418
1811.64828 0.01406
1810.36251 0.01406
1809.07674 0.01411
1807.79097 0.01417
1806.50520 0.01429
1805.21943 0.01452
1803.93366 0.01483
1802.64790 0.01506
1801.36213 0.01512
1800.07636 0.01504
1798.79059 0.01496
1797.50482 0.01498
1796.21905 0.01510
1794.93328 0.01525
1793.64751 0.01536
1792.36174 0.01545
1791.07598 0.01556
1789.79021 0.01569
1788.50444 0.01575
1787.21867 0.01572
1785.93290 0.01564
1784.64713 0.01564
1783.36136 0.01574
1782.07559 0.01588
1780.78983 0.01599
1779.50406 0.01601
1778.21829 0.01599
1776.93252 0.01598
1775.64675 0.01597
1774.36098 0.01590
1773.07521 0.01576
1771.78944 0.01563
1770.50367 0.01555
1769.21791 0.01551
1767.93214 0.01552
1766.64637 0.01562
1765.36060 0.01582
1764.07483 0.01609
1762.78906 0.01639
1761.50329 0.01666
1760.21752 0.01682
1758.93176 0.01681
1757.64599 0.01670
1756.36022 0.01663
1755.07445 0.01662
1753.78868 0.01658
1752.50291 0.01651
1751.21714 0.01649
1749.93137 0.01662
1748.64560 0.01685
1747.35984 0.01707
1746.07407 0.01724
1744.78830 0.01736
1743.50253 0.01745
1742.21676 0.01751
1740.93099 0.01754
1739.64522 0.01760
1738.35945 0.01777
1737.07369 0.01797
1735.78792 0.01810
1734.50215 0.01817
1733.21638 0.01828
1731.93061 0.01839
1730.64484 0.01841
1729.35907 0.01839
1728.07330 0.01845
1726.78753 0.01860
1725.50177 0.01877
1724.21600 0.01894
1722.93023 0.01918
1721.64446 0.01952
1720.35869 0.01987
1719.07292 0.02016
1717.78715 0.02039
1716.50138 0.02063
1715.21561 0.02085
1713.92985 0.02105
1712.64408 0.02125
1711.35831 0.02150
1710.07254 0.02183
1708.78677 0.02219
1707.50100 0.02253
1706.21523 0.02280
1704.92946 0.02305
1703.64370 0.02331
1702.35793 0.02355
1701.07216 0.02382
1699.78639 0.02422
1698.50062 0.02468
1697.21485 0.02502
1695.92908 0.02523
1694.64331 0.02544
1693.35754 0.02558
1692.07178 0.02559
1690.78601 0.02561
1689.50024 0.02584
1688.21447 0.02623
1686.92870 0.02656
1685.64293 0.02675
1684.35716 0.02688
1683.07139 0.02709
1681.78563 0.02730
1680.49986 0.02748
1679.21409 0.02771
1677.92832 0.02801
1676.64255 0.02832
1675.35678 0.02864
1674.07101 0.02899
1672.78524 0.02928
1671.49947 0.02949
1670.21371 0.02968
1668.92794 0.02993
1667.64217 0.03024
1666.35640 0.03055
1665.07063 0.03083
1663.78486 0.03110
1662.49909 0.03140
1661.21332 0.03167
1659.92756 0.03191
1658.64179 0.03217
1657.35602 0.03255
1656.07025 0.03300
1654.78448 0.03334
1653.49871 0.03360
1652.21294 0.03389
1650.92717 0.03416
1649.64140 0.03427
1648.35564 0.03422
1647.06987 0.03419
1645.78410 0.03426
1644.49833 0.03437
1643.21256 0.03441
1641.92679 0.03439
1640.64102 0.03439
1639.35525 0.03449
1638.06949 0.03465
1636.78372 0.03481
1635.49795 0.03495
1634.21218 0.03505
1632.92641 0.03509
1631.64064 0.03508
1630.35487 0.03510
1629.06910 0.03519
1627.78333 0.03531
1626.49757 0.03542
1625.21180 0.03548
1623.92603 0.03550
1622.64026 0.03558
1621.35449 0.03575
1620.06872 0.03593
1618.78295 0.03600
1617.49718 0.03598
1616.21142 0.03601
1614.92565 0.03614
1613.63988 0.03629
1612.35411 0.03638
1611.06834 0.03644
1609.78257 0.03649
1608.49680 0.03656
1607.21103 0.03666
1605.92526 0.03679
1604.63950 0.03691
1603.35373 0.03702
1602.06796 0.03709
1600.78219 0.03717
1599.49642 0.03728
1598.21065 0.03747
1596.92488 0.03773
1595.63911 0.03803
1594.35335 0.03830
1593.06758 0.03850
1591.78181 0.03862
1590.49604 0.03870
1589.21027 0.03880
1587.92450 0.03896
1586.63873 0.03915
1585.35296 0.03933
1584.06719 0.03950
1582.78143 0.03971
1581.49566 0.04000
1580.20989 0.04041
1578.92412 0.04084
1577.63835 0.04117
1576.35258 0.04144
1575.06681 0.04177
1573.78104 0.04214
1572.49528 0.04246
1571.20951 0.04268
1569.92374 0.04285
1568.63797 0.04304
1567.35220 0.04326
1566.06643 0.04350
1564.78066 0.04380
1563.49489 0.04420
1562.20912 0.04457
1560.92336 0.04480
1559.63759 0.04496
1558.35182 0.04519
1557.06605 0.04545
1555.78028 0.04561
1554.49451 0.04568
1553.20874 0.04576
1551.92297 0.04587
1550.63721 0.04597
1549.35144 0.04609
1548.06567 0.04624
1546.77990 0.04638
1545.49413 0.04654
1544.20836 0.04673
1542.92259 0.04693
1541.63682 0.04701
1540.35105 0.04696
1539.06529 0.04686
1537.77952 0.04678
1536.49375 0.04667
1535.20798 0.04655
1533.92221 0.04651
1532.63644 0.04668
1531.35067 0.04703
1530.06490 0.04746
1528.77914 0.04794
1527.49337 0.04845
1526.20760 0.04903
1524.92183 0.04968
1523.63606 0.05036
1522.35029 0.05103
1521.06452 0.05176
1519.77875 0.05255
1518.49298 0.05334
1517.20722 0.05411
1515.92145 0.05496
1514.63568 0.05594
1513.34991 0.05703
1512.06414 0.05821
1510.77837 0.05947
1509.49260 0.06072
1508.20683 0.06186
1506.92107 0.06291
1505.63530 0.06396
1504.34953 0.06496
1503.06376 0.06588
1501.77799 0.06673
1500.49222 0.06759
1499.20645 0.06843
1497.92068 0.06919
1496.63491 0.06989
1495.34915 0.07060
1494.06338 0.07137
1492.77761 0.07215
1491.49184 0.07293
1490.20607 0.07378
1488.92030 0.07470
1487.63453 0.07561
1486.34876 0.07646
1485.06299 0.07725
1483.77723 0.07803
1482.49146 0.07884
1481.20569 0.07972
1479.91992 0.08066
1478.63415 0.08167
1477.34838 0.08274
1476.06261 0.08381
1474.77684 0.08480
1473.49108 0.08567
1472.20531 0.08644
1470.91954 0.08714
1469.63377 0.08772
1468.34800 0.08817
1467.06223 0.08854
1465.77646 0.08889
1464.49069 0.08928
1463.20492 0.08971
1461.91916 0.09020
1460.63339 0.09074
1459.34762 0.09130
1458.06185 0.09185
1456.77608 0.09239
1455.49031 0.09288
1454.20454 0.09322
1452.91877 0.09339
1451.63301 0.09348
1450.34724 0.09357
1449.06147 0.09367
1447.77570 0.09375
1446.48993 0.09379
1445.20416 0.09377
1443.91839 0.09369
1442.63262 0.09360
1441.34685 0.09355
1440.06109 0.09353
1438.77532 0.09349
1437.48955 0.09350
1436.20378 0.09364
1434.91801 0.09398
1433.63224 0.09445
1432.34647 0.09503
1431.06070 0.09572
1429.77494 0.09652
1428.48917 0.09743
1427.20340 0.09841
1425.91763 0.09944
1424.63186 0.10051
1423.34609 0.10159
1422.06032 0.10257
1420.77455 0.10339
1419.48878 0.10412
1418.20302 0.10481
1416.91725 0.10538
1415.63148 0.10574
1414.34571 0.10587
1413.05994 0.10583
1411.77417 0.10562
1410.48840 0.10525
1409.20263 0.10469
1407.91687 0.10393
1406.63110 0.10294
1405.34533 0.10174
1404.05956 0.10037
1402.77379 0.09888
1401.48802 0.09726
1400.20225 0.09551
1398.91648 0.09363
1397.63071 0.09168
1396.34495 0.08966
1395.05918 0.08762
1393.77341 0.08561
1392.48764 0.08365
1391.20187 0.08176
1389.91610 0.07993
1388.63033 0.07815
1387.34456 0.07640
1386.05880 0.07461
1384.77303 0.07276
1383.48726 0.07084
1382.20149 0.06895
1380.91572 0.06716
1379.62995 0.06548
1378.34418 0.06385
1377.05841 0.06216
1375.77264 0.06035
1374.48688 0.05844
1373.20111 0.05657
1371.91534 0.05481
1370.62957 0.05318
1369.34380 0.05163
1368.05803 0.05014
1366.77226 0.04872
1365.48649 0.04736
1364.20073 0.04604
1362.91496 0.04474
1361.62919 0.04345
1360.34342 0.04221
1359.05765 0.04106
1357.77188 0.04006
1356.48611 0.03918
1355.20034 0.03836
1353.91457 0.03756
1352.62881 0.03679
1351.34304 0.03612
1350.05727 0.03554
1348.77150 0.03501
1347.48573 0.03445
1346.19996 0.03386
1344.91419 0.03326
1343.62842 0.03274
1342.34266 0.03229
1341.05689 0.03188
1339.77112 0.03149
1338.48535 0.03113
1337.19958 0.03083
1335.91381 0.03056
1334.62804 0.03029
1333.34227 0.03001
1332.05650 0.02977
1330.77074 0.02957
1329.48497 0.02936
1328.19920 0.02910
1326.91343 0.02879
1325.62766 0.02849
1324.34189 0.02825
1323.05612 0.02807
1321.77035 0.02794
1320.48459 0.02783
1319.19882 0.02772
1317.91305 0.02760
1316.62728 0.02745
1315.34151 0.02729
1314.05574 0.02712
1312.76997 0.02697
1311.48420 0.02685
1310.19843 0.02675
1308.91267 0.02665
1307.62690 0.02654
1306.34113 0.02644
1305.05536 0.02637
1303.76959 0.02635
1302.48382 0.02637
1301.19805 0.02642
1299.91228 0.02642
1298.62652 0.02635
1297.34075 0.02623
1296.05498 0.02613
1294.76921 0.02607
1293.48344 0.02606
1292.19767 0.02607
1290.91190 0.02608
1289.62613 0.02608
1288.34036 0.02607
1287.05460 0.02604
1285.76883 0.02604
1284.48306 0.02609
1283.19729 0.02621
1281.91152 0.02636
1280.62575 0.02650
1279.33998 0.02661
1278.05421 0.02671
1276.76845 0.02682
1275.48268 0.02695
1274.19691 0.02709
1272.91114 0.02726
1271.62537 0.02745
1270.33960 0.02769
1269.05383 0.02802
1267.76806 0.02847
1266.48229 0.02901
1265.19653 0.02954
1263.91076 0.03002
1262.62499 0.03047
1261.33922 0.03093
1260.05345 0.03144
1258.76768 0.03200
1257.48191 0.03262
1256.19614 0.03329
1254.91037 0.03404
1253.62461 0.03486
1252.33884 0.03574
1251.05307 0.03663
1249.76730 0.03751
1248.48153 0.03833
1247.19576 0.03911
1245.90999 0.03987
1244.62422 0.04067
1243.33846 0.04155
1242.05269 0.04248
1240.76692 0.04338
1239.48115 0.04423
1238.19538 0.04504
1236.90961 0.04584
1235.62384 0.04665
1234.33807 0.04748
1233.05230 0.04833
1231.76654 0.04917
1230.48077 0.04998
1229.19500 0.05073
1227.90923 0.05144
1226.62346 0.05217
1225.33769 0.05295
1224.05192 0.05377
1222.76615 0.05454
1221.48039 0.05522
1220.19462 0.05580
1218.90885 0.05634
1217.62308 0.05689
1216.33731 0.05744
1215.05154 0.05800
1213.76577 0.05857
1212.48000 0.05916
1211.19423 0.05978
1209.90847 0.06041
1208.62270 0.06102
1207.33693 0.06159
1206.05116 0.06212
1204.76539 0.06266
1203.47962 0.06320
1202.19385 0.06367
1200.90808 0.06405
1199.62232 0.06459
1198.33655 0.06512
1197.05078 0.06560
1195.76501 0.06604
1194.47924 0.06648
1193.19347 0.06697
1191.90770 0.06751
1190.62193 0.06808
1189.33616 0.06865
1188.05040 0.06918
1186.76463 0.06966
1185.47886 0.07009
1184.19309 0.07053
1182.90732 0.07101
1181.62155 0.07156
1180.33578 0.07215
1179.05001 0.07272
1177.76425 0.07325
1176.47848 0.07377
1175.19271 0.07435
1173.90694 0.07498
1172.62117 0.07563
1171.33540 0.07627
1170.04963 0.07691
1168.76386 0.07755
1167.47809 0.07820
1166.19233 0.07883
1164.90656 0.07941
1163.62079 0.07991
1162.33502 0.08037
1161.04925 0.08078
1159.76348 0.08120
1158.47771 0.08169
1157.19194 0.08237
1155.90618 0.08324
1154.62041 0.08424
1153.33464 0.08520
1152.04887 0.08605
1150.76310 0.08679
1149.47733 0.08751
1148.19156 0.08832
1146.90579 0.08928
1145.62002 0.09043
1144.33426 0.09171
1143.04849 0.09307
1141.76272 0.09446
1140.47695 0.09588
1139.19118 0.09736
1137.90541 0.09897
1136.61964 0.10077
1135.33387 0.10272
1134.04811 0.10476
1132.76234 0.10682
1131.47657 0.10896
1130.19080 0.11130
1128.90503 0.11394
1127.61926 0.11685
1126.33349 0.12002
1125.04772 0.12343
1123.76195 0.12708
1122.47619 0.13089
1121.19042 0.13480
1119.90465 0.13881
1118.61888 0.14296
1117.33311 0.14727
1116.04734 0.15174
1114.76157 0.15631
1113.47580 0.16091
1112.19004 0.16547
1110.90427 0.16993
1109.61850 0.17431
1108.33273 0.17870
1107.04696 0.18315
1105.76119 0.18761
1104.47542 0.19195
1103.18965 0.19609
1101.90388 0.20003
1100.61812 0.20380
1099.33235 0.20745
1098.04658 0.21104
1096.76081 0.21458
1095.47504 0.21807
1094.18927 0.22143
1092.90350 0.22453
1091.61773 0.22732
1090.33197 0.22989
1089.04620 0.23241
1087.76043 0.23495
1086.47466 0.23751
1085.18889 0.24002
1083.90312 0.24244
1082.61735 0.24481
1081.33158 0.24724
1080.04581 0.24982
1078.76005 0.25258
1077.47428 0.25547
1076.18851 0.25841
1074.90274 0.26138
1073.61697 0.26437
1072.33120 0.26741
1071.04543 0.27054
1069.75966 0.27377
1068.47390 0.27707
1067.18813 0.28042
1065.90236 0.28385
1064.61659 0.28737
1063.33082 0.29093
1062.04505 0.29452
1060.75928 0.29811
1059.47351 0.30170
1058.18774 0.30520
1056.90198 0.30855
1055.61621 0.31175
1054.33044 0.31494
1053.04467 0.31823
1051.75890 0.32161
1050.47313 0.32500
1049.18736 0.32840
1047.90159 0.33183
1046.61583 0.33532
1045.33006 0.33885
1044.04429 0.34236
1042.75852 0.34582
1041.47275 0.34928
1040.18698 0.35279
1038.90121 0.35635
1037.61544 0.35990
1036.32967 0.36335
1035.04391 0.36667
1033.75814 0.36981
1032.47237 0.37270
1031.18660 0.37526
1029.90083 0.37744
1028.61506 0.37927
1027.32929 0.38076
1026.04352 0.38184
1024.75775 0.38244
1023.47199 0.38258
1022.18622 0.38226
1020.90045 0.38148
1019.61468 0.38018
1018.32891 0.37835
1017.04314 0.37603
1015.75737 0.37325
1014.47160 0.36995
1013.18584 0.36606
1011.90007 0.36154
1010.61430 0.35640
1009.32853 0.35072
1008.04276 0.34450
1006.75699 0.33779
1005.47122 0.33065
1004.18545 0.32313
1002.89968 0.31530
1001.61392 0.30718
1000.32815 0.29879
999.04238 0.29018
997.75661 0.28142
996.47084 0.27259
995.18507 0.26374
993.89930 0.25494
992.61353 0.24622
991.32777 0.23760
990.04200 0.22908
988.75623 0.22069
987.47046 0.21251
986.18469 0.20462
984.89892 0.19704
983.61315 0.18981
982.32738 0.18293
981.04161 0.17644
979.75585 0.17037
978.47008 0.16475
977.18431 0.15958
975.89854 0.15486
974.61277 0.15062
973.32700 0.14695
972.04123 0.14394
970.75546 0.14163
969.46970 0.13996
968.18393 0.13887
966.89816 0.13831
965.61239 0.13817
964.32662 0.13828
963.04085 0.13838
961.75508 0.13821
960.46931 0.13758
959.18354 0.13640
957.89778 0.13463
956.61201 0.13237
955.32624 0.12984
954.04047 0.12726
952.75470 0.12477
951.46893 0.12233
950.18316 0.11982
948.89739 0.11719
947.61163 0.11451
946.32586 0.11191
945.04009 0.10947
943.75432 0.10715
942.46855 0.10486
941.18278 0.10256
939.89701 0.10031
938.61124 0.09824
937.32547 0.09636
936.03971 0.09460
934.75394 0.09288
933.46817 0.09120
932.18240 0.08957
930.89663 0.08798
929.61086 0.08640
928.32509 0.08484
927.03932 0.08334
925.75356 0.08191
924.46779 0.08061
923.18202 0.07945
921.89625 0.07838
920.61048 0.07727
919.32471 0.07605
918.03894 0.07476
916.75317 0.07358
915.46740 0.07262
914.18164 0.07186
912.89587 0.07117
911.61010 0.07041
910.32433 0.06950
909.03856 0.06845
907.75279 0.06736
906.46702 0.06638
905.18125 0.06558
903.89549 0.06488
902.60972 0.06415
901.32395 0.06333
900.03818 0.06248
898.75241 0.06167
897.46664 0.06093
896.18087 0.06027
894.89510 0.05967
893.60933 0.05914
892.32357 0.05873
891.03780 0.05851
889.75203 0.05855
888.46626 0.05892
887.18049 0.05972
885.89472 0.06107
884.60895 0.06307
883.32318 0.06574
882.03742 0.06878
880.75165 0.07165
879.46588 0.07389
878.18011 0.07543
876.89434 0.07656
875.60857 0.07762
874.32280 0.07863
873.03703 0.07931
871.75126 0.07927
870.46550 0.07830
869.17973 0.07648
867.89396 0.07408
866.60819 0.07141
865.32242 0.06866
864.03665 0.06598
862.75088 0.06343
861.46511 0.06111
860.17935 0.05904
858.89358 0.05724
857.60781 0.05566
856.32204 0.05427
855.03627 0.05307
853.75050 0.05209
852.46473 0.05137
851.17896 0.05092
849.89319 0.05067
848.60743 0.05052
847.32166 0.05036
846.03589 0.05018
844.75012 0.05005
843.46435 0.05002
842.17858 0.05010
840.89281 0.05025
839.60704 0.05043
838.32128 0.05063
837.03551 0.05083
835.74974 0.05103
834.46397 0.05124
833.17820 0.05148
831.89243 0.05180
830.60666 0.05221
829.32089 0.05269
828.03512 0.05317
826.74936 0.05360
825.46359 0.05402
824.17782 0.05450
822.89205 0.05503
821.60628 0.05556
820.32051 0.05601
819.03474 0.05636
817.74897 0.05666
816.46321 0.05693
815.17744 0.05720
813.89167 0.05750
812.60590 0.05786
811.32013 0.05826
810.03436 0.05867
808.74859 0.05912
807.46282 0.05960
806.17705 0.06007
804.89129 0.06046
803.60552 0.06077
802.31975 0.06107
801.03398 0.06139
799.74821 0.06165
798.46244 0.06176
797.17667 0.06170
795.89090 0.06152
794.60513 0.06128
793.31937 0.06101
792.03360 0.06077
790.74783 0.06057
789.46206 0.06035
788.17629 0.06006
786.89052 0.05967
785.60475 0.05920
784.31898 0.05867
783.03322 0.05808
781.74745 0.05746
780.46168 0.05682
779.17591 0.05615
777.89014 0.05543
776.60437 0.05464
775.31860 0.05385
774.03283 0.05308
772.74706 0.05235
771.46130 0.05164
770.17553 0.05092
768.88976 0.05016
767.60399 0.04940
766.31822 0.04873
765.03245 0.04829
763.74668 0.04809
762.46091 0.04801
761.17515 0.04789
759.88938 0.04767
758.60361 0.04737
757.31784 0.04709
756.03207 0.04690
754.74630 0.04684
753.46053 0.04689
752.17476 0.04692
750.88899 0.04677
749.60323 0.04640
748.31746 0.04596
747.03169 0.04565
745.74592 0.04550
744.46015 0.04541
743.17438 0.04527
741.88861 0.04510
740.60284 0.04495
739.31708 0.04482
738.03131 0.04462
736.74554 0.04432
735.45977 0.04406
734.17400 0.04399
732.88823 0.04409
731.60246 0.04421
730.31669 0.04425
729.03092 0.04420
727.74516 0.04413
726.45939 0.04408
725.17362 0.04408
723.88785 0.04434
722.60208 0.04420
721.31631 0.04405
720.03054 0.04396
718.74477 0.04387
717.45901 0.04377
716.17324 0.04364
714.88747 0.04345
713.60170 0.04321
712.31593 0.04297
711.03016 0.04279
709.74439 0.04265
708.45862 0.04251
707.17285 0.04236
705.88709 0.04222
704.60132 0.04215
703.31555 0.04214
702.02978 0.04217
700.74401 0.04218
699.45824 0.04217
698.17247 0.04215
696.88670 0.04214
695.60094 0.04212
694.31517 0.04206
693.02940 0.04199
691.74363 0.04191
690.45786 0.04184
689.17209 0.04176
687.88632 0.04166
686.60055 0.04156
685.31478 0.04144
684.02902 0.04127
682.74325 0.04105
681.45748 0.04084
680.17171 0.04068
678.88594 0.04060
677.60017 0.04056
676.31440 0.04054
675.02863 0.04055
673.74287 0.04060
672.45710 0.04067
671.17133 0.04076
669.88556 0.04084
668.59979 0.04089
667.31402 0.04091
666.02825 0.04081
664.74248 0.04067
663.45671 0.04054
662.17095 0.04044
660.88518 0.04039
659.59941 0.04037
658.31364 0.04032
657.02787 0.04019
655.74210 0.04000
654.45633 0.03985
653.17056 0.03981
651.88480 0.03989
650.59903 0.04004
649.31326 0.04019
648.02749 0.04030
646.74172 0.04038
645.45595 0.04045
644.17018 0.04051
642.88441 0.04059
641.59864 0.04067
640.31288 0.04079
639.02711 0.04096
637.74134 0.04119
636.45557 0.04149
635.16980 0.04185
633.88403 0.04227
632.59826 0.04264
631.31249 0.04247
630.02673 0.04204
628.74096 0.04387
627.45519 0.04604
626.16942 0.04992
624.88365 0.05501
623.59788 0.06003
622.31211 0.06412
621.02634 0.06698
619.74057 0.06869
618.45481 0.06930
617.16904 0.06889
615.88327 0.06808
614.59750 0.06815
613.31173 0.07049
612.02596 0.07571
610.74019 0.08314
609.45442 0.09126
608.16866 0.09886
606.88289 0.10548
605.59712 0.11090
604.31135 0.11457
603.02558 0.11580
601.73981 0.11455
600.45404 0.11170
599.16827 0.10833
597.88250 0.10512
596.59674 0.10217
595.31097 0.09948
594.02520 0.09717
592.73943 0.09541
591.45366 0.09428
590.16789 0.09373
588.88212 0.09373
587.59635 0.09424
586.31059 0.09528
585.02482 0.09681
583.73905 0.09877
582.45328 0.10106
581.16751 0.10354
579.88174 0.10611
578.59597 0.10873
577.31020 0.11143
576.02443 0.11415
574.73867 0.11679
573.45290 0.11932
572.16713 0.12187
570.88136 0.12464
569.59559 0.12775
568.30982 0.13109
567.02405 0.13437
565.73828 0.13728
564.45251 0.13948
563.16675 0.14065
561.88098 0.14050
560.59521 0.13888
559.30944 0.13581
558.02367 0.13150
556.73790 0.12631
555.45213 0.12071
554.16636 0.11515
552.88060 0.10992
551.59483 0.10506
550.30906 0.10049
549.02329 0.09616
547.73752 0.09218
546.45175 0.08871
545.16598 0.08579
543.88021 0.08334
542.59444 0.08118
541.30868 0.07916
540.02291 0.07725
538.73714 0.07546
537.45137 0.07378
536.16560 0.07220
534.87983 0.07073
533.59406 0.06942
532.30829 0.06825
531.02253 0.06717
529.73676 0.06609
528.45099 0.06499
527.16522 0.06392
525.87945 0.06296
524.59368 0.06221
523.30791 0.06172
522.02214 0.06138
520.73637 0.06099
519.45061 0.06040
518.16484 0.05968
516.87907 0.05900
515.59330 0.05851
514.30753 0.05821
513.02176 0.05803
511.73599 0.05792
510.45022 0.05792
509.16446 0.05807
507.87869 0.05835
506.59292 0.05872
505.30715 0.05914
504.02138 0.05964
502.73561 0.06021
501.44984 0.06087
500.16407 0.06167
498.87830 0.06267
497.59254 0.06383
496.30677 0.06507
495.02100 0.06633
493.73523 0.06771
492.44946 0.06932
491.16369 0.07121
489.87792 0.07326
488.59215 0.07532
487.30639 0.07730
486.02062 0.07923
484.73485 0.08124
483.44908 0.08341
482.16331 0.08571
480.87754 0.08806
479.59177 0.09035
478.30600 0.09255
477.02023 0.09462
475.73447 0.09656
474.44870 0.09834
473.16293 0.10000
471.87716 0.10151
470.59139 0.10274
469.30562 0.10363
468.01985 0.10420
466.73408 0.10457
465.44832 0.10480
464.16255 0.10483
462.87678 0.10459
461.59101 0.10408
460.30524 0.10338
459.01947 0.10260
457.73370 0.10180
456.44793 0.10098
455.16216 0.10009
453.87640 0.09911
452.59063 0.09805
451.30486 0.09696
450.01909 0.09587
448.73332 0.09480
447.44755 0.09375
446.16178 0.09271
444.87601 0.09172
443.59025 0.09078
442.30448 0.08988
441.01871 0.08897
439.73294 0.08799
438.44717 0.08697
437.16140 0.08597
435.87563 0.08501
434.58986 0.08408
433.30409 0.08312
432.01833 0.08213
430.73256 0.08111
429.44679 0.08010
428.16102 0.07912
426.87525 0.07817
425.58948 0.07728
424.30371 0.07645
423.01794 0.07565
421.73218 0.07485
420.44641 0.07399
419.16064 0.07305
417.87487 0.07204
416.58910 0.07097
415.30333 0.06989
414.01756 0.06887
412.73179 0.06793
411.44602 0.06704
410.16026 0.06616
408.87449 0.06529
407.58872 0.06449
406.30295 0.06380
405.01718 0.06323
403.73141 0.06274
402.44564 0.06230
401.15987 0.06193
399.87411 0.06160
