3997.45528	0.06998
3996.16951	0.06961
3994.88374	0.06954
3993.59798	0.06969
3992.31221	0.07002
3991.02644	0.07058
3989.74067	0.07135
3988.45490	0.07203
3987.16913	0.07227
3985.88336	0.07195
3984.59759	0.07137
3983.31183	0.07099
3982.02606	0.07111
3980.74029	0.07176
3979.45452	0.07280
3978.16875	0.07396
3976.88298	0.07486
3975.59721	0.07513
3974.31144	0.07456
3973.02567	0.07317
3971.73991	0.07122
3970.45414	0.06929
3969.16837	0.06799
3967.88260	0.06775
3966.59683	0.06851
3965.31106	0.06972
3964.02529	0.07058
3962.73952	0.07065
3961.45376	0.07023
3960.16799	0.07001
3958.88222	0.07033
3957.59645	0.07096
3956.31068	0.07156
3955.02491	0.07209
3953.73914	0.07260
3952.45337	0.07290
3951.16760	0.07256
3949.88184	0.07152
3948.59607	0.07022
3947.31030	0.06921
3946.02453	0.06857
3944.73876	0.06803
3943.45299	0.06755
3942.16722	0.06741
3940.88145	0.06775
3939.59569	0.06824
3938.30992	0.06842
3937.02415	0.06822
3935.73838	0.06797
3934.45261	0.06803
3933.16684	0.06853
3931.88107	0.06933
3930.59530	0.07016
3929.30953	0.07078
3928.02377	0.07107
3926.73800	0.07112
3925.45223	0.07104
3924.16646	0.07093
3922.88069	0.07089
3921.59492	0.07103
3920.30915	0.07131
3919.02338	0.07146
3917.73762	0.07132
3916.45185	0.07095
3915.16608	0.07052
3913.88031	0.07007
3912.59454	0.06952
3911.30877	0.06892
3910.02300	0.06840
3908.73723	0.06800
3907.45146	0.06778
3906.16570	0.06771
3904.87993	0.06763
3903.59416	0.06727
3902.30839	0.06673
3901.02262	0.06648
3899.73685	0.06688
3898.45108	0.06773
3897.16531	0.06849
3895.87955	0.06875
3894.59378	0.06845
3893.30801	0.06771
3892.02224	0.06680
3890.73647	0.06602
3889.45070	0.06563
3888.16493	0.06568
3886.87916	0.06598
3885.59339	0.06626
3884.30763	0.06637
3883.02186	0.06635
3881.73609	0.06644
3880.45032	0.06692
3879.16455	0.06777
3877.87878	0.06856
3876.59301	0.06891
3875.30724	0.06895
3874.02148	0.06910
3872.73571	0.06946
3871.44994	0.06958
3870.16417	0.06905
3868.87840	0.06796
3867.59263	0.06670
3866.30686	0.06549
3865.02109	0.06430
3863.73532	0.06324
3862.44956	0.06263
3861.16379	0.06282
3859.87802	0.06385
3858.59225	0.06536
3857.30648	0.06691
3856.02071	0.06812
3854.73494	0.06881
3853.44917	0.06888
3852.16341	0.06844
3850.87764	0.06786
3849.59187	0.06748
3848.30610	0.06733
3847.02033	0.06707
3845.73456	0.06641
3844.44879	0.06548
3843.16302	0.06476
3841.87725	0.06454
3840.59149	0.06468
3839.30572	0.06494
3838.01995	0.06523
3836.73418	0.06552
3835.44841	0.06576
3834.16264	0.06584
3832.87687	0.06571
3831.59110	0.06534
3830.30534	0.06473
3829.01957	0.06404
3827.73380	0.06353
3826.44803	0.06340
3825.16226	0.06363
3823.87649	0.06395
3822.59072	0.06404
3821.30495	0.06377
3820.01918	0.06341
3818.73342	0.06330
3817.44765	0.06347
3816.16188	0.06363
3814.87611	0.06363
3813.59034	0.06372
3812.30457	0.06427
3811.01880	0.06518
3809.73303	0.06592
3808.44726	0.06613
3807.16150	0.06611
3805.87573	0.06640
3804.58996	0.06703
3803.30419	0.06748
3802.01842	0.06734
3800.73265	0.06664
3799.44688	0.06568
3798.16111	0.06468
3796.87535	0.06394
3795.58958	0.06378
3794.30381	0.06418
3793.01804	0.06470
3791.73227	0.06481
3790.44650	0.06447
3789.16073	0.06406
3787.87496	0.06395
3786.58919	0.06426
3785.30343	0.06481
3784.01766	0.06527
3782.73189	0.06533
3781.44612	0.06488
3780.16035	0.06418
3778.87458	0.06360
3777.58881	0.06335
3776.30304	0.06335
3775.01728	0.06336
3773.73151	0.06316
3772.44574	0.06265
3771.15997	0.06204
3769.87420	0.06170
3768.58843	0.06188
3767.30266	0.06244
3766.01689	0.06297
3764.73112	0.06315
3763.44536	0.06297
3762.15959	0.06258
3760.87382	0.06200
3759.58805	0.06118
3758.30228	0.06025
3757.01651	0.05966
3755.73074	0.05967
3754.44497	0.06002
3753.15921	0.06016
3751.87344	0.05998
3750.58767	0.05998
3749.30190	0.06050
3748.01613	0.06119
3746.73036	0.06132
3745.44459	0.06062
3744.15882	0.05962
3742.87305	0.05899
3741.58729	0.05891
3740.30152	0.05906
3739.01575	0.05906
3737.72998	0.05885
3736.44421	0.05864
3735.15844	0.05859
3733.87267	0.05875
3732.58690	0.05902
3731.30114	0.05936
3730.01537	0.05980
3728.72960	0.06023
3727.44383	0.06044
3726.15806	0.06028
3724.87229	0.05994
3723.58652	0.05975
3722.30075	0.05981
3721.01498	0.05988
3719.72922	0.05971
3718.44345	0.05924
3717.15768	0.05865
3715.87191	0.05814
3714.58614	0.05784
3713.30037	0.05780
3712.01460	0.05800
3710.72883	0.05828
3709.44307	0.05840
3708.15730	0.05835
3706.87153	0.05835
3705.58576	0.05850
3704.29999	0.05860
3703.01422	0.05845
3701.72845	0.05814
3700.44268	0.05788
3699.15691	0.05780
3697.87115	0.05799
3696.58538	0.05866
3695.29961	0.05993
3694.01384	0.06147
3692.72807	0.06257
3691.44230	0.06273
3690.15653	0.06194
3688.87076	0.06053
3687.58500	0.05893
3686.29923	0.05759
3685.01346	0.05676
3683.72769	0.05647
3682.44192	0.05651
3681.15615	0.05661
3679.87038	0.05670
3678.58461	0.05694
3677.29884	0.05760
3676.01308	0.05883
3674.72731	0.06055
3673.44154	0.06233
3672.15577	0.06360
3670.87000	0.06396
3669.58423	0.06360
3668.29846	0.06307
3667.01269	0.06281
3665.72693	0.06271
3664.44116	0.06222
3663.15539	0.06105
3661.86962	0.05951
3660.58385	0.05836
3659.29808	0.05804
3658.01231	0.05845
3656.72654	0.05925
3655.44077	0.06030
3654.15501	0.06157
3652.86924	0.06286
3651.58347	0.06380
3650.29770	0.06412
3649.01193	0.06374
3647.72616	0.06281
3646.44039	0.06172
3645.15462	0.06110
3643.86886	0.06145
3642.58309	0.06264
3641.29732	0.06395
3640.01155	0.06464
3638.72578	0.06454
3637.44001	0.06402
3636.15424	0.06353
3634.86847	0.06336
3633.58270	0.06360
3632.29694	0.06410
3631.01117	0.06455
3629.72540	0.06469
3628.43963	0.06458
3627.15386	0.06445
3625.86809	0.06449
3624.58232	0.06472
3623.29655	0.06515
3622.01079	0.06577
3620.72502	0.06658
3619.43925	0.06747
3618.15348	0.06827
3616.86771	0.06881
3615.58194	0.06897
3614.29617	0.06879
3613.01040	0.06843
3611.72463	0.06817
3610.43887	0.06825
3609.15310	0.06876
3607.86733	0.06942
3606.58156	0.06983
3605.29579	0.06983
3604.01002	0.06955
3602.72425	0.06919
3601.43848	0.06880
3600.15272	0.06839
3598.86695	0.06801
3597.58118	0.06770
3596.29541	0.06761
3595.00964	0.06811
3593.72387	0.06945
3592.43810	0.07126
3591.15233	0.07279
3589.86656	0.07354
3588.58080	0.07363
3587.29503	0.07347
3586.00926	0.07333
3584.72349	0.07327
3583.43772	0.07319
3582.15195	0.07290
3580.86618	0.07233
3579.58041	0.07167
3578.29464	0.07125
3577.00888	0.07137
3575.72311	0.07203
3574.43734	0.07302
3573.15157	0.07409
3571.86580	0.07510
3570.58003	0.07584
3569.29426	0.07616
3568.00849	0.07614
3566.72273	0.07626
3565.43696	0.07695
3564.15119	0.07810
3562.86542	0.07906
3561.57965	0.07932
3560.29388	0.07895
3559.00811	0.07835
3557.72234	0.07793
3556.43657	0.07791
3555.15081	0.07831
3553.86504	0.07896
3552.57927	0.07956
3551.29350	0.08001
3550.00773	0.08048
3548.72196	0.08109
3547.43619	0.08161
3546.15042	0.08161
3544.86466	0.08103
3543.57889	0.08034
3542.29312	0.08013
3541.00735	0.08059
3539.72158	0.08141
3538.43581	0.08213
3537.15004	0.08252
3535.86427	0.08269
3534.57850	0.08290
3533.29274	0.08327
3532.00697	0.08361
3530.72120	0.08362
3529.43543	0.08320
3528.14966	0.08263
3526.86389	0.08236
3525.57812	0.08265
3524.29235	0.08331
3523.00659	0.08387
3521.72082	0.08400
3520.43505	0.08379
3519.14928	0.08369
3517.86351	0.08408
3516.57774	0.08493
3515.29197	0.08582
3514.00620	0.08638
3512.72043	0.08659
3511.43467	0.08664
3510.14890	0.08659
3508.86313	0.08628
3507.57736	0.08565
3506.29159	0.08487
3505.00582	0.08429
3503.72005	0.08427
3502.43428	0.08503
3501.14852	0.08640
3499.86275	0.08781
3498.57698	0.08861
3497.29121	0.08859
3496.00544	0.08799
3494.71967	0.08722
3493.43390	0.08662
3492.14813	0.08645
3490.86236	0.08692
3489.57660	0.08795
3488.29083	0.08911
3487.00506	0.08991
3485.71929	0.09017
3484.43352	0.08999
3483.14775	0.08954
3481.86198	0.08899
3480.57621	0.08860
3479.29045	0.08865
3478.00468	0.08925
3476.71891	0.09023
3475.43314	0.09121
3474.14737	0.09174
3472.86160	0.09160
3471.57583	0.09102
3470.29006	0.09062
3469.00429	0.09097
3467.71853	0.09203
3466.43276	0.09324
3465.14699	0.09403
3463.86122	0.09427
3462.57545	0.09411
3461.28968	0.09366
3460.00391	0.09295
3458.71814	0.09218
3457.43238	0.09169
3456.14661	0.09179
3454.86084	0.09240
3453.57507	0.09321
3452.28930	0.09398
3451.00353	0.09461
3449.71776	0.09511
3448.43199	0.09534
3447.14622	0.09512
3445.86046	0.09442
3444.57469	0.09362
3443.28892	0.09327
3442.00315	0.09365
3440.71738	0.09454
3439.43161	0.09545
3438.14584	0.09603
3436.86007	0.09625
3435.57431	0.09624
3434.28854	0.09617
3433.00277	0.09609
3431.71700	0.09608
3430.43123	0.09622
3429.14546	0.09664
3427.85969	0.09724
3426.57392	0.09778
3425.28815	0.09803
3424.00239	0.09793
3422.71662	0.09764
3421.43085	0.09747
3420.14508	0.09765
3418.85931	0.09817
3417.57354	0.09866
3416.28777	0.09874
3415.00200	0.09832
3413.71624	0.09766
3412.43047	0.09715
3411.14470	0.09701
3409.85893	0.09726
3408.57316	0.09782
3407.28739	0.09848
3406.00162	0.09901
3404.71585	0.09920
3403.43008	0.09906
3402.14432	0.09882
3400.85855	0.09875
3399.57278	0.09888
3398.28701	0.09908
3397.00124	0.09923
3395.71547	0.09930
3394.42970	0.09931
3393.14393	0.09928
3391.85817	0.09932
3390.57240	0.09962
3389.28663	0.10020
3388.00086	0.10074
3386.71509	0.10085
3385.42932	0.10054
3384.14355	0.10027
3382.85778	0.10042
3381.57201	0.10086
3380.28625	0.10110
3379.00048	0.10078
3377.71471	0.09999
3376.42894	0.09912
3375.14317	0.09864
3373.85740	0.09871
3372.57163	0.09909
3371.28586	0.09943
3370.00010	0.09960
3368.71433	0.09981
3367.42856	0.10033
3366.14279	0.10119
3364.85702	0.10215
3363.57125	0.10278
3362.28548	0.10285
3360.99971	0.10249
3359.71394	0.10210
3358.42818	0.10197
3357.14241	0.10202
3355.85664	0.10197
3354.57087	0.10160
3353.28510	0.10103
3351.99933	0.10064
3350.71356	0.10080
3349.42779	0.10151
3348.14202	0.10234
3346.85626	0.10270
3345.57049	0.10230
3344.28472	0.10138
3342.99895	0.10054
3341.71318	0.10029
3340.42741	0.10059
3339.14164	0.10096
3337.85587	0.10094
3336.57011	0.10052
3335.28434	0.10006
3333.99857	0.09986
3332.71280	0.09989
3331.42703	0.09991
3330.14126	0.09982
3328.85549	0.09974
3327.56972	0.09980
3326.28395	0.09990
3324.99819	0.09988
3323.71242	0.09973
3322.42665	0.09956
3321.14088	0.09952
3319.85511	0.09962
3318.56934	0.09982
3317.28357	0.09998
3315.99780	0.09996
3314.71204	0.09970
3313.42627	0.09929
3312.14050	0.09890
3310.85473	0.09863
3309.56896	0.09855
3308.28319	0.09860
3306.99742	0.09872
3305.71165	0.09888
3304.42588	0.09904
3303.14012	0.09914
3301.85435	0.09903
3300.56858	0.09866
3299.28281	0.09818
3297.99704	0.09783
3296.71127	0.09763
3295.42550	0.09743
3294.13973	0.09722
3292.85397	0.09726
3291.56820	0.09785
3290.28243	0.09883
3288.99666	0.09965
3287.71089	0.09991
3286.42512	0.09966
3285.13935	0.09924
3283.85358	0.09887
3282.56781	0.09851
3281.28205	0.09808
3279.99628	0.09756
3278.71051	0.09710
3277.42474	0.09689
3276.13897	0.09697
3274.85320	0.09718
3273.56743	0.09738
3272.28166	0.09754
3270.99590	0.09776
3269.71013	0.09810
3268.42436	0.09845
3267.13859	0.09861
3265.85282	0.09838
3264.56705	0.09776
3263.28128	0.09695
3261.99551	0.09622
3260.70974	0.09584
3259.42398	0.09586
3258.13821	0.09620
3256.85244	0.09667
3255.56667	0.09707
3254.28090	0.09719
3252.99513	0.09686
3251.70936	0.09616
3250.42359	0.09543
3249.13783	0.09516
3247.85206	0.09548
3246.56629	0.09605
3245.28052	0.09635
3243.99475	0.09614
3242.70898	0.09558
3241.42321	0.09507
3240.13744	0.09494
3238.85167	0.09522
3237.56591	0.09558
3236.28014	0.09557
3234.99437	0.09500
3233.70860	0.09412
3232.42283	0.09337
3231.13706	0.09304
3229.85129	0.09306
3228.56552	0.09321
3227.27976	0.09332
3225.99399	0.09338
3224.70822	0.09348
3223.42245	0.09365
3222.13668	0.09379
3220.85091	0.09372
3219.56514	0.09331
3218.27937	0.09259
3216.99360	0.09182
3215.70784	0.09137
3214.42207	0.09149
3213.13630	0.09203
3211.85053	0.09255
3210.56476	0.09271
3209.27899	0.09251
3207.99322	0.09216
3206.70745	0.09181
3205.42169	0.09156
3204.13592	0.09146
3202.85015	0.09146
3201.56438	0.09142
3200.27861	0.09115
3198.99284	0.09066
3197.70707	0.09017
3196.42130	0.08997
3195.13553	0.09012
3193.84977	0.09043
3192.56400	0.09065
3191.27823	0.09072
3189.99246	0.09072
3188.70669	0.09062
3187.42092	0.09041
3186.13515	0.09010
3184.84938	0.08985
3183.56362	0.08969
3182.27785	0.08957
3180.99208	0.08934
3179.70631	0.08899
3178.42054	0.08861
3177.13477	0.08839
3175.84900	0.08833
3174.56323	0.08829
3173.27746	0.08812
3171.99170	0.08786
3170.70593	0.08771
3169.42016	0.08781
3168.13439	0.08809
3166.84862	0.08828
3165.56285	0.08821
3164.27708	0.08793
3162.99131	0.08767
3161.70555	0.08761
3160.41978	0.08771
3159.13401	0.08782
3157.84824	0.08779
3156.56247	0.08757
3155.27670	0.08729
3153.99093	0.08710
3152.70516	0.08699
3151.41939	0.08676
3150.13363	0.08639
3148.84786	0.08602
3147.56209	0.08582
3146.27632	0.08574
3144.99055	0.08557
3143.70478	0.08517
3142.41901	0.08455
3141.13324	0.08387
3139.84748	0.08335
3138.56171	0.08309
3137.27594	0.08304
3135.99017	0.08309
3134.70440	0.08321
3133.41863	0.08339
3132.13286	0.08363
3130.84709	0.08397
3129.56132	0.08436
3128.27556	0.08457
3126.98979	0.08438
3125.70402	0.08384
3124.41825	0.08325
3123.13248	0.08282
3121.84671	0.08250
3120.56094	0.08209
3119.27517	0.08154
3117.98940	0.08097
3116.70364	0.08058
3115.41787	0.08050
3114.13210	0.08071
3112.84633	0.08112
3111.56056	0.08166
3110.27479	0.08216
3108.98902	0.08240
3107.70325	0.08212
3106.41749	0.08133
3105.13172	0.08040
3103.84595	0.07985
3102.56018	0.07989
3101.27441	0.08021
3099.98864	0.08035
3098.70287	0.08020
3097.41710	0.07997
3096.13133	0.07987
3094.84557	0.07989
3093.55980	0.07993
3092.27403	0.07998
3090.98826	0.08002
3089.70249	0.07995
3088.41672	0.07967
3087.13095	0.07924
3085.84518	0.07891
3084.55942	0.07883
3083.27365	0.07899
3081.98788	0.07923
3080.70211	0.07943
3079.41634	0.07959
3078.13057	0.07975
3076.84480	0.07992
3075.55903	0.08006
3074.27326	0.08013
3072.98750	0.08005
3071.70173	0.07979
3070.41596	0.07939
3069.13019	0.07896
3067.84442	0.07852
3066.55865	0.07806
3065.27288	0.07762
3063.98711	0.07724
3062.70135	0.07691
3061.41558	0.07659
3060.12981	0.07633
3058.84404	0.07623
3057.55827	0.07631
3056.27250	0.07645
3054.98673	0.07644
3053.70096	0.07626
3052.41519	0.07605
3051.12943	0.07595
3049.84366	0.07599
3048.55789	0.07608
3047.27212	0.07611
3045.98635	0.07601
3044.70058	0.07579
3043.41481	0.07555
3042.12904	0.07540
3040.84328	0.07536
3039.55751	0.07532
3038.27174	0.07525
3036.98597	0.07519
3035.70020	0.07522
3034.41443	0.07530
3033.12866	0.07532
3031.84289	0.07519
3030.55712	0.07495
3029.27136	0.07468
3027.98559	0.07440
3026.69982	0.07409
3025.41405	0.07375
3024.12828	0.07345
3022.84251	0.07333
3021.55674	0.07342
3020.27097	0.07362
3018.98521	0.07368
3017.69944	0.07342
3016.41367	0.07288
3015.12790	0.07226
3013.84213	0.07181
3012.55636	0.07162
3011.27059	0.07158
3009.98482	0.07157
3008.69905	0.07155
3007.41329	0.07151
3006.12752	0.07145
3004.84175	0.07128
3003.55598	0.07098
3002.27021	0.07064
3000.98444	0.07043
2999.69867	0.07045
2998.41290	0.07066
2997.12714	0.07089
2995.84137	0.07110
2994.55560	0.07126
2993.26983	0.07131
2991.98406	0.07122
2990.69829	0.07108
2989.41252	0.07104
2988.12675	0.07112
2986.84098	0.07134
2985.55522	0.07179
2984.26945	0.07255
2982.98368	0.07347
2981.69791	0.07419
2980.41214	0.07451
2979.12637	0.07452
2977.84060	0.07447
2976.55483	0.07454
2975.26907	0.07480
2973.98330	0.07538
2972.69753	0.07642
2971.41176	0.07798
2970.12599	0.07988
2968.84022	0.08173
2967.55445	0.08315
2966.26868	0.08409
2964.98291	0.08483
2963.69715	0.08563
2962.41138	0.08657
2961.12561	0.08752
2959.83984	0.08839
2958.55407	0.08919
2957.26830	0.08994
2955.98253	0.09063
2954.69676	0.09118
2953.41100	0.09151
2952.12523	0.09160
2950.83946	0.09149
2949.55369	0.09129
2948.26792	0.09118
2946.98215	0.09126
2945.69638	0.09154
2944.41061	0.09190
2943.12484	0.09221
2941.83908	0.09249
2940.55331	0.09282
2939.26754	0.09334
2937.98177	0.09413
2936.69600	0.09520
2935.41023	0.09641
2934.12446	0.09755
2932.83869	0.09848
2931.55293	0.09933
2930.26716	0.10028
2928.98139	0.10132
2927.69562	0.10219
2926.40985	0.10271
2925.12408	0.10295
2923.83831	0.10300
2922.55254	0.10280
2921.26677	0.10228
2919.98101	0.10157
2918.69524	0.10086
2917.40947	0.10022
2916.12370	0.09960
2914.83793	0.09894
2913.55216	0.09829
2912.26639	0.09769
2910.98062	0.09702
2909.69486	0.09609
2908.40909	0.09487
2907.12332	0.09354
2905.83755	0.09237
2904.55178	0.09150
2903.26601	0.09087
2901.98024	0.09033
2900.69447	0.08979
2899.40870	0.08926
2898.12294	0.08879
2896.83717	0.08836
2895.55140	0.08791
2894.26563	0.08744
2892.97986	0.08696
2891.69409	0.08643
2890.40832	0.08572
2889.12255	0.08476
2887.83678	0.08366
2886.55102	0.08266
2885.26525	0.08202
2883.97948	0.08186
2882.69371	0.08203
2881.40794	0.08225
2880.12217	0.08230
2878.83640	0.08222
2877.55063	0.08217
2876.26487	0.08226
2874.97910	0.08249
2873.69333	0.08282
2872.40756	0.08319
2871.12179	0.08354
2869.83602	0.08375
2868.55025	0.08375
2867.26448	0.08359
2865.97871	0.08341
2864.69295	0.08340
2863.40718	0.08361
2862.12141	0.08396
2860.83564	0.08429
2859.54987	0.08451
2858.26410	0.08457
2856.97833	0.08449
2855.69256	0.08429
2854.40680	0.08404
2853.12103	0.08385
2851.83526	0.08372
2850.54949	0.08356
2849.26372	0.08317
2847.97795	0.08244
2846.69218	0.08143
2845.40641	0.08034
2844.12064	0.07936
2842.83488	0.07852
2841.54911	0.07762
2840.26334	0.07647
2838.97757	0.07509
2837.69180	0.07379
2836.40603	0.07288
2835.12026	0.07234
2833.83449	0.07188
2832.54873	0.07121
2831.26296	0.07036
2829.97719	0.06958
2828.69142	0.06908
2827.40565	0.06884
2826.11988	0.06865
2824.83411	0.06823
2823.54834	0.06753
2822.26257	0.06677
2820.97681	0.06620
2819.69104	0.06593
2818.40527	0.06579
2817.11950	0.06559
2815.83373	0.06527
2814.54796	0.06496
2813.26219	0.06472
2811.97642	0.06451
2810.69066	0.06426
2809.40489	0.06395
2808.11912	0.06366
2806.83335	0.06348
2805.54758	0.06344
2804.26181	0.06343
2802.97604	0.06334
2801.69027	0.06314
2800.40450	0.06288
2799.11874	0.06262
2797.83297	0.06244
2796.54720	0.06233
2795.26143	0.06230
2793.97566	0.06227
2792.68989	0.06221
2791.40412	0.06211
2790.11835	0.06196
2788.83259	0.06174
2787.54682	0.06152
2786.26105	0.06138
2784.97528	0.06137
2783.68951	0.06138
2782.40374	0.06127
2781.11797	0.06099
2779.83220	0.06066
2778.54643	0.06039
2777.26067	0.06022
2775.97490	0.06014
2774.68913	0.06010
2773.40336	0.06009
2772.11759	0.06010
2770.83182	0.06010
2769.54605	0.06006
2768.26028	0.05997
2766.97452	0.05984
2765.68875	0.05970
2764.40298	0.05953
2763.11721	0.05929
2761.83144	0.05902
2760.54567	0.05885
2759.25990	0.05885
2757.97413	0.05901
2756.68836	0.05918
2755.40260	0.05927
2754.11683	0.05921
2752.83106	0.05902
2751.54529	0.05874
2750.25952	0.05847
2748.97375	0.05827
2747.68798	0.05819
2746.40221	0.05817
2745.11645	0.05814
2743.83068	0.05806
2742.54491	0.05800
2741.25914	0.05798
2739.97337	0.05799
2738.68760	0.05794
2737.40183	0.05779
2736.11606	0.05758
2734.83029	0.05737
2733.54453	0.05722
2732.25876	0.05710
2730.97299	0.05696
2729.68722	0.05688
2728.40145	0.05697
2727.11568	0.05721
2725.82991	0.05742
2724.54414	0.05739
2723.25838	0.05707
2721.97261	0.05666
2720.68684	0.05637
2719.40107	0.05628
2718.11530	0.05627
2716.82953	0.05616
2715.54376	0.05591
2714.25799	0.05561
2712.97222	0.05542
2711.68646	0.05539
2710.40069	0.05556
2709.11492	0.05586
2707.82915	0.05613
2706.54338	0.05619
2705.25761	0.05596
2703.97184	0.05560
2702.68607	0.05528
2701.40031	0.05509
2700.11454	0.05502
2698.82877	0.05501
2697.54300	0.05503
2696.25723	0.05510
2694.97146	0.05520
2693.68569	0.05532
2692.39992	0.05540
2691.11415	0.05535
2689.82839	0.05516
2688.54262	0.05487
2687.25685	0.05454
2685.97108	0.05428
2684.68531	0.05413
2683.39954	0.05407
2682.11377	0.05408
2680.82800	0.05418
2679.54224	0.05435
2678.25647	0.05452
2676.97070	0.05461
2675.68493	0.05462
2674.39916	0.05458
2673.11339	0.05450
2671.82762	0.05437
2670.54185	0.05424
2669.25608	0.05416
2667.97032	0.05417
2666.68455	0.05428
2665.39878	0.05446
2664.11301	0.05460
2662.82724	0.05460
2661.54147	0.05445
2660.25570	0.05422
2658.96993	0.05395
2657.68417	0.05373
2656.39840	0.05364
2655.11263	0.05374
2653.82686	0.05388
2652.54109	0.05385
2651.25532	0.05362
2649.96955	0.05332
2648.68378	0.05311
2647.39801	0.05290
2646.11225	0.05257
2644.82648	0.05209
2643.54071	0.05159
2642.25494	0.05123
2640.96917	0.05108
2639.68340	0.05110
2638.39763	0.05119
2637.11186	0.05126
2635.82609	0.05127
2634.54033	0.05117
2633.25456	0.05093
2631.96879	0.05048
2630.68302	0.04991
2629.39725	0.04941
2628.11148	0.04913
2626.82571	0.04903
2625.53994	0.04902
2624.25418	0.04908
2622.96841	0.04929
2621.68264	0.04955
2620.39687	0.04961
2619.11110	0.04935
2617.82533	0.04892
2616.53956	0.04859
2615.25379	0.04841
2613.96802	0.04823
2612.68226	0.04794
2611.39649	0.04763
2610.11072	0.04743
2608.82495	0.04730
2607.53918	0.04701
2606.25341	0.04638
2604.96764	0.04544
2603.68187	0.04450
2602.39611	0.04395
2601.11034	0.04403
2599.82457	0.04464
2598.53880	0.04538
2597.25303	0.04586
2595.96726	0.04598
2594.68149	0.04583
2593.39572	0.04552
2592.10995	0.04507
2590.82419	0.04453
2589.53842	0.04412
2588.25265	0.04410
2586.96688	0.04441
2585.68111	0.04461
2584.39534	0.04434
2583.10957	0.04374
2581.82380	0.04332
2580.53804	0.04336
2579.25227	0.04371
2577.96650	0.04395
2576.68073	0.04387
2575.39496	0.04355
2574.10919	0.04324
2572.82342	0.04300
2571.53765	0.04271
2570.25188	0.04228
2568.96612	0.04191
2567.68035	0.04189
2566.39458	0.04233
2565.10881	0.04308
2563.82304	0.04375
2562.53727	0.04399
2561.25150	0.04363
2559.96573	0.04281
2558.67997	0.04192
2557.39420	0.04136
2556.10843	0.04139
2554.82266	0.04194
2553.53689	0.04261
2552.25112	0.04295
2550.96535	0.04284
2549.67958	0.04257
2548.39381	0.04245
2547.10805	0.04246
2545.82228	0.04245
2544.53651	0.04225
2543.25074	0.04188
2541.96497	0.04146
2540.67920	0.04121
2539.39343	0.04127
2538.10766	0.04156
2536.82190	0.04184
2535.53613	0.04188
2534.25036	0.04168
2532.96459	0.04138
2531.67882	0.04124
2530.39305	0.04136
2529.10728	0.04168
2527.82151	0.04198
2526.53574	0.04208
2525.24998	0.04195
2523.96421	0.04169
2522.67844	0.04145
2521.39267	0.04124
2520.10690	0.04115
2518.82113	0.04125
2517.53536	0.04154
2516.24959	0.04173
2514.96383	0.04153
2513.67806	0.04091
2512.39229	0.04014
2511.10652	0.03957
2509.82075	0.03935
2508.53498	0.03944
2507.24921	0.03966
2505.96344	0.03978
2504.67767	0.03970
2503.39191	0.03948
2502.10614	0.03927
2500.82037	0.03919
2499.53460	0.03926
2498.24883	0.03945
2496.96306	0.03972
2495.67729	0.03998
2494.39152	0.04015
2493.10576	0.04023
2491.81999	0.04036
2490.53422	0.04062
2489.24845	0.04092
2487.96268	0.04107
2486.67691	0.04095
2485.39114	0.04059
2484.10537	0.04013
2482.81960	0.03980
2481.53384	0.03971
2480.24807	0.03972
2478.96230	0.03959
2477.67653	0.03920
2476.39076	0.03871
2475.10499	0.03836
2473.81922	0.03835
2472.53345	0.03872
2471.24769	0.03940
2469.96192	0.04009
2468.67615	0.04048
2467.39038	0.04046
2466.10461	0.04014
2464.81884	0.03978
2463.53307	0.03949
2462.24730	0.03926
2460.96153	0.03903
2459.67577	0.03875
2458.39000	0.03852
2457.10423	0.03853
2455.81846	0.03888
2454.53269	0.03943
2453.24692	0.03982
2451.96115	0.03979
2450.67538	0.03940
2449.38962	0.03892
2448.10385	0.03851
2446.81808	0.03816
2445.53231	0.03786
2444.24654	0.03773
2442.96077	0.03784
2441.67500	0.03805
2440.38923	0.03811
2439.10346	0.03792
2437.81770	0.03760
2436.53193	0.03735
2435.24616	0.03725
2433.96039	0.03725
2432.67462	0.03720
2431.38885	0.03708
2430.10308	0.03694
2428.81731	0.03682
2427.53155	0.03664
2426.24578	0.03642
2424.96001	0.03632
2423.67424	0.03643
2422.38847	0.03675
2421.10270	0.03715
2419.81693	0.03755
2418.53116	0.03784
2417.24539	0.03798
2415.95963	0.03797
2414.67386	0.03784
2413.38809	0.03759
2412.10232	0.03730
2410.81655	0.03699
2409.53078	0.03665
2408.24501	0.03621
2406.95924	0.03573
2405.67347	0.03543
2404.38771	0.03546
2403.10194	0.03584
2401.81617	0.03642
2400.53040	0.03698
2399.24463	0.03745
2397.95886	0.03746
2396.67309	0.03712
2395.38732	0.03672
2394.10156	0.03645
2392.81579	0.03632
2391.53002	0.03622
2390.24425	0.03611
2388.95848	0.03601
2387.67271	0.03597
2386.38694	0.03600
2385.10117	0.03608
2383.81540	0.03622
2382.52964	0.03635
2381.24387	0.03632
2379.95810	0.03596
2378.67233	0.03526
2377.38656	0.03439
2376.10079	0.03359
2374.81502	0.03307
2373.52925	0.03287
2372.24349	0.03288
2370.95772	0.03292
2369.67195	0.03284
2368.38618	0.03263
2367.10041	0.03233
2365.81464	0.03197
2364.52887	0.03163
2363.24310	0.03140
2361.95733	0.03129
2360.67157	0.03124
2359.38580	0.03118
2358.10003	0.03109
2356.81426	0.03102
2355.52849	0.03101
2354.24272	0.03109
2352.95695	0.03133
2351.67118	0.03180
2350.38542	0.03246
2349.09965	0.03318
2347.81388	0.03377
2346.52811	0.03412
2345.24234	0.03422
2343.95657	0.03413
2342.67080	0.03391
2341.38503	0.03357
2340.09926	0.03317
2338.81350	0.03277
2337.52773	0.03243
2336.24196	0.03217
2334.95619	0.03198
2333.67042	0.03187
2332.38465	0.03172
2331.09888	0.03143
2329.81311	0.03108
2328.52735	0.03103
2327.24158	0.03161
2325.95581	0.03283
2324.67004	0.03429
2323.38427	0.03546
2322.09850	0.03611
2320.81273	0.03638
2319.52696	0.03656
2318.24119	0.03679
2316.95543	0.03698
2315.66966	0.03699
2314.38389	0.03682
2313.09812	0.03663
2311.81235	0.03653
2310.52658	0.03647
2309.24081	0.03630
2307.95504	0.03593
2306.66928	0.03540
2305.38351	0.03485
2304.09774	0.03441
2302.81197	0.03417
2301.52620	0.03411
2300.24043	0.03414
2298.95466	0.03419
2297.66889	0.03424
2296.38312	0.03430
2295.09736	0.03437
2293.81159	0.03441
2292.52582	0.03437
2291.24005	0.03425
2289.95428	0.03409
2288.66851	0.03397
2287.38274	0.03392
2286.09697	0.03387
2284.81121	0.03372
2283.52544	0.03350
2282.23967	0.03338
2280.95390	0.03344
2279.66813	0.03351
2278.38236	0.03329
2277.09659	0.03268
2275.81082	0.03197
2274.52505	0.03152
2273.23929	0.03142
2271.95352	0.03151
2270.66775	0.03154
2269.38198	0.03143
2268.09621	0.03115
2266.81044	0.03070
2265.52467	0.03002
2264.23890	0.02917
2262.95314	0.02840
2261.66737	0.02797
2260.38160	0.02799
2259.09583	0.02826
2257.81006	0.02844
2256.52429	0.02832
2255.23852	0.02803
2253.95275	0.02779
2252.66698	0.02761
2251.38122	0.02746
2250.09545	0.02760
2248.80968	0.02823
2247.52391	0.02823
2246.23814	0.02792
2244.95237	0.02713
2243.66660	0.02610
2242.38083	0.02541
2241.09507	0.02546
2239.80930	0.02600
2238.52353	0.02640
2237.23776	0.02624
2235.95199	0.02567
2234.66622	0.02520
2233.38045	0.02523
2232.09468	0.02585
2230.80891	0.02680
2229.52315	0.02758
2228.23738	0.02778
2226.95161	0.02737
2225.66584	0.02676
2224.38007	0.02635
2223.09430	0.02617
2221.80853	0.02596
2220.52276	0.02547
2219.23700	0.02469
2217.95123	0.02376
2216.66546	0.02290
2215.37969	0.02246
2214.09392	0.02261
2212.80815	0.02313
2211.52238	0.02349
2210.23661	0.02328
2208.95084	0.02256
2207.66508	0.02187
2206.37931	0.02175
2205.09354	0.02225
2203.80777	0.02286
2202.52200	0.02293
2201.23623	0.02230
2199.95046	0.02134
2198.66469	0.02063
2197.37893	0.02050
2196.09316	0.02083
2194.80739	0.02122
2193.52162	0.02146
2192.23585	0.02172
2190.95008	0.02223
2189.66431	0.02276
2188.37854	0.02277
2187.09277	0.02191
2185.80701	0.02032
2184.52124	0.01848
2183.23547	0.01696
2181.94970	0.01619
2180.66393	0.01614
2179.37816	0.01630
2178.09239	0.01616
2176.80662	0.01564
2175.52085	0.01519
2174.23509	0.01531
2172.94932	0.01603
2171.66355	0.01675
2170.37778	0.01675
2169.09201	0.01583
2167.80624	0.01463
2166.52047	0.01411
2165.23470	0.01470
2163.94894	0.01578
2162.66317	0.01603
2161.37740	0.01448
2160.09163	0.01141
2158.80586	0.00836
2157.52009	0.00703
2156.23432	0.00785
2154.94855	0.00990
2153.66278	0.01188
2152.37702	0.01308
2151.09125	0.01355
2149.80548	0.01361
2148.51971	0.01351
2147.23394	0.01360
2145.94817	0.01425
2144.66240	0.01543
2143.37663	0.01666
2142.09087	0.01750
2140.80510	0.01796
2139.51933	0.01829
2138.23356	0.01853
2136.94779	0.01853
2135.66202	0.01819
2134.37625	0.01763
2133.09048	0.01717
2131.80471	0.01714
2130.51895	0.01756
2129.23318	0.01811
2127.94741	0.01846
2126.66164	0.01869
2125.37587	0.01907
2124.09010	0.01973
2122.80433	0.02043
2121.51856	0.02090
2120.23280	0.02111
2118.94703	0.02124
2117.66126	0.02146
2116.37549	0.02180
2115.08972	0.02225
2113.80395	0.02276
2112.51818	0.02317
2111.23241	0.02330
2109.94664	0.02307
2108.66088	0.02256
2107.37511	0.02193
2106.08934	0.02129
2104.80357	0.02077
2103.51780	0.02049
2102.23203	0.02043
2100.94626	0.02044
2099.66049	0.02037
2098.37473	0.01999
2097.08896	0.01948
2095.80319	0.01917
2094.51742	0.01924
2093.23165	0.01956
2091.94588	0.01978
2090.66011	0.01963
2089.37434	0.01919
2088.08857	0.01884
2086.80281	0.01894
2085.51704	0.01953
2084.23127	0.02022
2082.94550	0.02056
2081.65973	0.02043
2080.37396	0.02008
2079.08819	0.01981
2077.80242	0.01969
2076.51666	0.01955
2075.23089	0.01924
2073.94512	0.01883
2072.65935	0.01855
2071.37358	0.01863
2070.08781	0.01909
2068.80204	0.01973
2067.51627	0.02016
2066.23050	0.02016
2064.94474	0.01979
2063.65897	0.01912
2062.37320	0.01819
2061.08743	0.01712
2059.80166	0.01621
2058.51589	0.01568
2057.23012	0.01544
2055.94435	0.01540
2054.65859	0.01556
2053.37282	0.01586
2052.08705	0.01602
2050.80128	0.01584
2049.51551	0.01542
2048.22974	0.01505
2046.94397	0.01493
2045.65820	0.01510
2044.37243	0.01538
2043.08667	0.01537
2041.80090	0.01472
2040.51513	0.01361
2039.22936	0.01277
2037.94359	0.01286
2036.65782	0.01357
2035.37205	0.01383
2034.08628	0.01294
2032.80052	0.01132
2031.51475	0.00997
2030.22898	0.00940
2028.94321	0.00925
2027.65744	0.00904
2026.37167	0.00876
2025.08590	0.00869
2023.80013	0.00897
2022.51436	0.00940
2021.22860	0.00974
2019.94283	0.00988
2018.65706	0.00985
2017.37129	0.00972
2016.08552	0.00958
2014.79975	0.00952
2013.51398	0.00956
2012.22821	0.00963
2010.94245	0.00959
2009.65668	0.00941
2008.37091	0.00916
2007.08514	0.00894
2005.79937	0.00891
2004.51360	0.00920
2003.22783	0.00990
2001.94206	0.01089
2000.65629	0.01198
1999.37053	0.01294
1998.08476	0.01364
1996.79899	0.01408
1995.51322	0.01432
1994.22745	0.01445
1992.94168	0.01447
1991.65591	0.01445
1990.37014	0.01451
1989.08438	0.01475
1987.79861	0.01507
1986.51284	0.01536
1985.22707	0.01553
1983.94130	0.01554
1982.65553	0.01537
1981.36976	0.01508
1980.08399	0.01482
1978.79822	0.01469
1977.51246	0.01458
1976.22669	0.01427
1974.94092	0.01361
1973.65515	0.01270
1972.36938	0.01195
1971.08361	0.01183
1969.79784	0.01248
1968.51207	0.01351
1967.22631	0.01430
1965.94054	0.01450
1964.65477	0.01424
1963.36900	0.01389
1962.08323	0.01374
1960.79746	0.01398
1959.51169	0.01466
1958.22592	0.01555
1956.94015	0.01628
1955.65439	0.01658
1954.36862	0.01647
1953.08285	0.01617
1951.79708	0.01597
1950.51131	0.01600
1949.22554	0.01623
1947.93977	0.01649
1946.65400	0.01664
1945.36823	0.01667
1944.08247	0.01670
1942.79670	0.01679
1941.51093	0.01687
1940.22516	0.01684
1938.93939	0.01670
1937.65362	0.01655
1936.36785	0.01648
1935.08208	0.01656
1933.79632	0.01682
1932.51055	0.01721
1931.22478	0.01767
1929.93901	0.01808
1928.65324	0.01835
1927.36747	0.01844
1926.08170	0.01839
1924.79593	0.01839
1923.51016	0.01856
1922.22440	0.01889
1920.93863	0.01922
1919.65286	0.01943
1918.36709	0.01945
1917.08132	0.01933
1915.79555	0.01914
1914.50978	0.01899
1913.22401	0.01898
1911.93825	0.01913
1910.65248	0.01937
1909.36671	0.01957
1908.08094	0.01968
1906.79517	0.01979
1905.50940	0.02001
1904.22363	0.02027
1902.93786	0.02040
1901.65209	0.02035
1900.36633	0.02029
1899.08056	0.02039
1897.79479	0.02060
1896.50902	0.02066
1895.22325	0.02042
1893.93748	0.01997
1892.65171	0.01965
1891.36594	0.01970
1890.08018	0.02008
1888.79441	0.02056
1887.50864	0.02087
1886.22287	0.02092
1884.93710	0.02076
1883.65133	0.02051
1882.36556	0.02029
1881.07979	0.02011
1879.79402	0.01994
1878.50826	0.01985
1877.22249	0.01992
1875.93672	0.02019
1874.65095	0.02050
1873.36518	0.02074
1872.07941	0.02088
1870.79364	0.02095
1869.50787	0.02098
1868.22211	0.02100
1866.93634	0.02108
1865.65057	0.02123
1864.36480	0.02138
1863.07903	0.02139
1861.79326	0.02122
1860.50749	0.02095
1859.22172	0.02078
1857.93595	0.02081
1856.65019	0.02096
1855.36442	0.02109
1854.07865	0.02117
1852.79288	0.02122
1851.50711	0.02125
1850.22134	0.02123
1848.93557	0.02115
1847.64980	0.02104
1846.36404	0.02097
1845.07827	0.02093
1843.79250	0.02092
1842.50673	0.02094
1841.22096	0.02101
1839.93519	0.02110
1838.64942	0.02121
1837.36365	0.02131
1836.07788	0.02143
1834.79212	0.02158
1833.50635	0.02173
1832.22058	0.02181
1830.93481	0.02176
1829.64904	0.02158
1828.36327	0.02135
1827.07750	0.02119
1825.79173	0.02118
1824.50597	0.02131
1823.22020	0.02150
1821.93443	0.02163
1820.64866	0.02161
1819.36289	0.02145
1818.07712	0.02123
1816.79135	0.02108
1815.50558	0.02104
1814.21981	0.02108
1812.93405	0.02117
1811.64828	0.02130
1810.36251	0.02146
1809.07674	0.02160
1807.79097	0.02164
1806.50520	0.02154
1805.21943	0.02143
1803.93366	0.02145
1802.64790	0.02163
1801.36213	0.02183
1800.07636	0.02195
1798.79059	0.02199
1797.50482	0.02202
1796.21905	0.02212
1794.93328	0.02226
1793.64751	0.02242
1792.36174	0.02251
1791.07598	0.02250
1789.79021	0.02242
1788.50444	0.02236
1787.21867	0.02236
1785.93290	0.02238
1784.64713	0.02240
1783.36136	0.02241
1782.07559	0.02242
1780.78983	0.02245
1779.50406	0.02246
1778.21829	0.02245
1776.93252	0.02245
1775.64675	0.02248
1774.36098	0.02256
1773.07521	0.02265
1771.78944	0.02273
1770.50367	0.02281
1769.21791	0.02289
1767.93214	0.02297
1766.64637	0.02305
1765.36060	0.02315
1764.07483	0.02325
1762.78906	0.02332
1761.50329	0.02335
1760.21752	0.02338
1758.93176	0.02344
1757.64599	0.02355
1756.36022	0.02368
1755.07445	0.02381
1753.78868	0.02390
1752.50291	0.02395
1751.21714	0.02401
1749.93137	0.02412
1748.64560	0.02426
1747.35984	0.02438
1746.07407	0.02447
1744.78830	0.02454
1743.50253	0.02464
1742.21676	0.02479
1740.93099	0.02498
1739.64522	0.02524
1738.35945	0.02557
1737.07369	0.02593
1735.78792	0.02625
1734.50215	0.02647
1733.21638	0.02658
1731.93061	0.02664
1730.64484	0.02669
1729.35907	0.02676
1728.07330	0.02688
1726.78753	0.02707
1725.50177	0.02731
1724.21600	0.02758
1722.93023	0.02789
1721.64446	0.02818
1720.35869	0.02845
1719.07292	0.02868
1717.78715	0.02895
1716.50138	0.02931
1715.21561	0.02977
1713.92985	0.03029
1712.64408	0.03081
1711.35831	0.03130
1710.07254	0.03179
1708.78677	0.03231
1707.50100	0.03283
1706.21523	0.03335
1704.92946	0.03388
1703.64370	0.03443
1702.35793	0.03499
1701.07216	0.03552
1699.78639	0.03598
1698.50062	0.03640
1697.21485	0.03680
1695.92908	0.03720
1694.64331	0.03764
1693.35754	0.03813
1692.07178	0.03864
1690.78601	0.03916
1689.50024	0.03968
1688.21447	0.04022
1686.92870	0.04078
1685.64293	0.04131
1684.35716	0.04178
1683.07139	0.04221
1681.78563	0.04268
1680.49986	0.04319
1679.21409	0.04376
1677.92832	0.04433
1676.64255	0.04491
1675.35678	0.04550
1674.07101	0.04613
1672.78524	0.04679
1671.49947	0.04742
1670.21371	0.04798
1668.92794	0.04846
1667.64217	0.04893
1666.35640	0.04944
1665.07063	0.05001
1663.78486	0.05059
1662.49909	0.05113
1661.21332	0.05160
1659.92756	0.05201
1658.64179	0.05241
1657.35602	0.05287
1656.07025	0.05334
1654.78448	0.05373
1653.49871	0.05398
1652.21294	0.05413
1650.92717	0.05423
1649.64140	0.05431
1648.35564	0.05437
1647.06987	0.05442
1645.78410	0.05454
1644.49833	0.05475
1643.21256	0.05501
1641.92679	0.05524
1640.64102	0.05537
1639.35525	0.05539
1638.06949	0.05530
1636.78372	0.05511
1635.49795	0.05486
1634.21218	0.05460
1632.92641	0.05441
1631.64064	0.05429
1630.35487	0.05423
1629.06910	0.05419
1627.78333	0.05414
1626.49757	0.05407
1625.21180	0.05398
1623.92603	0.05388
1622.64026	0.05380
1621.35449	0.05376
1620.06872	0.05375
1618.78295	0.05372
1617.49718	0.05361
1616.21142	0.05345
1614.92565	0.05332
1613.63988	0.05328
1612.35411	0.05333
1611.06834	0.05341
1609.78257	0.05348
1608.49680	0.05352
1607.21103	0.05356
1605.92526	0.05363
1604.63950	0.05375
1603.35373	0.05395
1602.06796	0.05418
1600.78219	0.05436
1599.49642	0.05444
1598.21065	0.05444
1596.92488	0.05446
1595.63911	0.05456
1594.35335	0.05475
1593.06758	0.05500
1591.78181	0.05527
1590.49604	0.05554
1589.21027	0.05578
1587.92450	0.05593
1586.63873	0.05599
1585.35296	0.05604
1584.06719	0.05619
1582.78143	0.05650
1581.49566	0.05689
1580.20989	0.05722
1578.92412	0.05741
1577.63835	0.05748
1576.35258	0.05754
1575.06681	0.05769
1573.78104	0.05798
1572.49528	0.05834
1571.20951	0.05871
1569.92374	0.05904
1568.63797	0.05933
1567.35220	0.05956
1566.06643	0.05976
1564.78066	0.05993
1563.49489	0.06009
1562.20912	0.06023
1560.92336	0.06032
1559.63759	0.06037
1558.35182	0.06041
1557.06605	0.06049
1555.78028	0.06061
1554.49451	0.06073
1553.20874	0.06085
1551.92297	0.06096
1550.63721	0.06103
1549.35144	0.06104
1548.06567	0.06098
1546.77990	0.06090
1545.49413	0.06083
1544.20836	0.06077
1542.92259	0.06069
1541.63682	0.06054
1540.35105	0.06030
1539.06529	0.06004
1537.77952	0.05985
1536.49375	0.05979
1535.20798	0.05984
1533.92221	0.05992
1532.63644	0.06000
1531.35067	0.06011
1530.06490	0.06032
1528.77914	0.06065
1527.49337	0.06108
1526.20760	0.06155
1524.92183	0.06203
1523.63606	0.06248
1522.35029	0.06295
1521.06452	0.06350
1519.77875	0.06420
1518.49298	0.06506
1517.20722	0.06604
1515.92145	0.06708
1514.63568	0.06815
1513.34991	0.06924
1512.06414	0.07037
1510.77837	0.07153
1509.49260	0.07271
1508.20683	0.07389
1506.92107	0.07505
1505.63530	0.07620
1504.34953	0.07732
1503.06376	0.07841
1501.77799	0.07942
1500.49222	0.08032
1499.20645	0.08116
1497.92068	0.08196
1496.63491	0.08276
1495.34915	0.08354
1494.06338	0.08426
1492.77761	0.08493
1491.49184	0.08559
1490.20607	0.08630
1488.92030	0.08711
1487.63453	0.08803
1486.34876	0.08904
1485.06299	0.09011
1483.77723	0.09121
1482.49146	0.09233
1481.20569	0.09346
1479.91992	0.09460
1478.63415	0.09577
1477.34838	0.09698
1476.06261	0.09821
1474.77684	0.09937
1473.49108	0.10039
1472.20531	0.10127
1470.91954	0.10209
1469.63377	0.10295
1468.34800	0.10387
1467.06223	0.10479
1465.77646	0.10561
1464.49069	0.10630
1463.20492	0.10690
1461.91916	0.10749
1460.63339	0.10814
1459.34762	0.10886
1458.06185	0.10965
1456.77608	0.11044
1455.49031	0.11119
1454.20454	0.11184
1452.91877	0.11239
1451.63301	0.11283
1450.34724	0.11319
1449.06147	0.11352
1447.77570	0.11384
1446.48993	0.11415
1445.20416	0.11436
1443.91839	0.11443
1442.63262	0.11435
1441.34685	0.11417
1440.06109	0.11395
1438.77532	0.11377
1437.48955	0.11368
1436.20378	0.11372
1434.91801	0.11394
1433.63224	0.11436
1432.34647	0.11502
1431.06070	0.11590
1429.77494	0.11696
1428.48917	0.11812
1427.20340	0.11932
1425.91763	0.12055
1424.63186	0.12182
1423.34609	0.12312
1422.06032	0.12438
1420.77455	0.12554
1419.48878	0.12656
1418.20302	0.12739
1416.91725	0.12805
1415.63148	0.12852
1414.34571	0.12882
1413.05994	0.12896
1411.77417	0.12892
1410.48840	0.12869
1409.20263	0.12824
1407.91687	0.12757
1406.63110	0.12669
1405.34533	0.12562
1404.05956	0.12438
1402.77379	0.12302
1401.48802	0.12152
1400.20225	0.11986
1398.91648	0.11803
1397.63071	0.11605
1396.34495	0.11397
1395.05918	0.11184
1393.77341	0.10972
1392.48764	0.10761
1391.20187	0.10554
1389.91610	0.10351
1388.63033	0.10153
1387.34456	0.09962
1386.05880	0.09779
1384.77303	0.09602
1383.48726	0.09430
1382.20149	0.09258
1380.91572	0.09082
1379.62995	0.08901
1378.34418	0.08713
1377.05841	0.08516
1375.77264	0.08309
1374.48688	0.08095
1373.20111	0.07877
1371.91534	0.07661
1370.62957	0.07448
1369.34380	0.07239
1368.05803	0.07040
1366.77226	0.06856
1365.48649	0.06689
1364.20073	0.06533
1362.91496	0.06380
1361.62919	0.06228
1360.34342	0.06081
1359.05765	0.05943
1357.77188	0.05814
1356.48611	0.05696
1355.20034	0.05587
1353.91457	0.05486
1352.62881	0.05392
1351.34304	0.05304
1350.05727	0.05221
1348.77150	0.05141
1347.48573	0.05064
1346.19996	0.04991
1344.91419	0.04926
1343.62842	0.04868
1342.34266	0.04815
1341.05689	0.04764
1339.77112	0.04713
1338.48535	0.04663
1337.19958	0.04616
1335.91381	0.04571
1334.62804	0.04526
1333.34227	0.04480
1332.05650	0.04429
1330.77074	0.04375
1329.48497	0.04322
1328.19920	0.04278
1326.91343	0.04243
1325.62766	0.04215
1324.34189	0.04191
1323.05612	0.04164
1321.77035	0.04132
1320.48459	0.04096
1319.19882	0.04061
1317.91305	0.04029
1316.62728	0.04000
1315.34151	0.03970
1314.05574	0.03940
1312.76997	0.03910
1311.48420	0.03883
1310.19843	0.03860
1308.91267	0.03840
1307.62690	0.03819
1306.34113	0.03794
1305.05536	0.03766
1303.76959	0.03737
1302.48382	0.03710
1301.19805	0.03685
1299.91228	0.03659
1298.62652	0.03632
1297.34075	0.03608
1296.05498	0.03587
1294.76921	0.03572
1293.48344	0.03563
1292.19767	0.03557
1290.91190	0.03550
1289.62613	0.03538
1288.34036	0.03518
1287.05460	0.03494
1285.76883	0.03471
1284.48306	0.03456
1283.19729	0.03448
1281.91152	0.03441
1280.62575	0.03431
1279.33998	0.03417
1278.05421	0.03402
1276.76845	0.03389
1275.48268	0.03376
1274.19691	0.03363
1272.91114	0.03351
1271.62537	0.03343
1270.33960	0.03336
1269.05383	0.03327
1267.76806	0.03317
1266.48229	0.03308
1265.19653	0.03303
1263.91076	0.03304
1262.62499	0.03304
1261.33922	0.03301
1260.05345	0.03296
1258.76768	0.03297
1257.48191	0.03306
1256.19614	0.03321
1254.91037	0.03331
1253.62461	0.03330
1252.33884	0.03317
1251.05307	0.03301
1249.76730	0.03289
1248.48153	0.03284
1247.19576	0.03281
1245.90999	0.03277
1244.62422	0.03274
1243.33846	0.03273
1242.05269	0.03273
1240.76692	0.03272
1239.48115	0.03269
1238.19538	0.03262
1236.90961	0.03253
1235.62384	0.03244
1234.33807	0.03237
1233.05230	0.03233
1231.76654	0.03230
1230.48077	0.03224
1229.19500	0.03214
1227.90923	0.03202
1226.62346	0.03190
1225.33769	0.03177
1224.05192	0.03162
1222.76615	0.03147
1221.48039	0.03136
1220.19462	0.03131
1218.90885	0.03131
1217.62308	0.03133
1216.33731	0.03134
1215.05154	0.03134
1213.76577	0.03132
1212.48000	0.03129
1211.19423	0.03125
1209.90847	0.03121
1208.62270	0.03118
1207.33693	0.03121
1206.05116	0.03130
1204.76539	0.03141
1203.47962	0.03151
1202.19385	0.03155
1200.90808	0.03154
1199.62232	0.03150
1198.33655	0.03148
1197.05078	0.03146
1195.76501	0.03144
1194.47924	0.03145
1193.19347	0.03144
1191.90770	0.03143
1190.62193	0.03143
1189.33616	0.03147
1188.05040	0.03155
1186.76463	0.03164
1185.47886	0.03171
1184.19309	0.03177
1182.90732	0.03188
1181.62155	0.03203
1180.33578	0.03220
1179.05001	0.03229
1177.76425	0.03233
1176.47848	0.03234
1175.19271	0.03239
1173.90694	0.03248
1172.62117	0.03258
1171.33540	0.03273
1170.04963	0.03293
1168.76386	0.03320
1167.47809	0.03350
1166.19233	0.03379
1164.90656	0.03401
1163.62079	0.03415
1162.33502	0.03423
1161.04925	0.03429
1159.76348	0.03440
1158.47771	0.03458
1157.19194	0.03480
1155.90618	0.03502
1154.62041	0.03522
1153.33464	0.03541
1152.04887	0.03569
1150.76310	0.03611
1149.47733	0.03666
1148.19156	0.03726
1146.90579	0.03782
1145.62002	0.03833
1144.33426	0.03884
1143.04849	0.03942
1141.76272	0.04015
1140.47695	0.04107
1139.19118	0.04214
1137.90541	0.04332
1136.61964	0.04458
1135.33387	0.04594
1134.04811	0.04743
1132.76234	0.04908
1131.47657	0.05091
1130.19080	0.05295
1128.90503	0.05529
1127.61926	0.05796
1126.33349	0.06093
1125.04772	0.06412
1123.76195	0.06749
1122.47619	0.07097
1121.19042	0.07452
1119.90465	0.07804
1118.61888	0.08150
1117.33311	0.08495
1116.04734	0.08846
1114.76157	0.09198
1113.47580	0.09539
1112.19004	0.09861
1110.90427	0.10168
1109.61850	0.10467
1108.33273	0.10760
1107.04696	0.11044
1105.76119	0.11318
1104.47542	0.11584
1103.18965	0.11847
1101.90388	0.12105
1100.61812	0.12355
1099.33235	0.12594
1098.04658	0.12818
1096.76081	0.13029
1095.47504	0.13230
1094.18927	0.13423
1092.90350	0.13607
1091.61773	0.13784
1090.33197	0.13954
1089.04620	0.14120
1087.76043	0.14287
1086.47466	0.14458
1085.18889	0.14632
1083.90312	0.14811
1082.61735	0.15002
1081.33158	0.15209
1080.04581	0.15430
1078.76005	0.15660
1077.47428	0.15896
1076.18851	0.16140
1074.90274	0.16395
1073.61697	0.16665
1072.33120	0.16950
1071.04543	0.17248
1069.75966	0.17556
1068.47390	0.17872
1067.18813	0.18194
1065.90236	0.18525
1064.61659	0.18864
1063.33082	0.19212
1062.04505	0.19568
1060.75928	0.19927
1059.47351	0.20287
1058.18774	0.20648
1056.90198	0.21010
1055.61621	0.21368
1054.33044	0.21720
1053.04467	0.22071
1051.75890	0.22427
1050.47313	0.22793
1049.18736	0.23167
1047.90159	0.23547
1046.61583	0.23938
1045.33006	0.24341
1044.04429	0.24751
1042.75852	0.25161
1041.47275	0.25570
1040.18698	0.25979
1038.90121	0.26392
1037.61544	0.26811
1036.32967	0.27234
1035.04391	0.27652
1033.75814	0.28056
1032.47237	0.28437
1031.18660	0.28792
1029.90083	0.29122
1028.61506	0.29428
1027.32929	0.29704
1026.04352	0.29942
1024.75775	0.30135
1023.47199	0.30279
1022.18622	0.30371
1020.90045	0.30417
1019.61468	0.30423
1018.32891	0.30391
1017.04314	0.30310
1015.75737	0.30168
1014.47160	0.29957
1013.18584	0.29678
1011.90007	0.29331
1010.61430	0.28923
1009.32853	0.28463
1008.04276	0.27955
1006.75699	0.27401
1005.47122	0.26801
1004.18545	0.26162
1002.89968	0.25488
1001.61392	0.24777
1000.32815	0.24031
999.04238	0.23255
997.75661	0.22466
996.47084	0.21678
995.18507	0.20897
993.89930	0.20125
992.61353	0.19364
991.32777	0.18626
990.04200	0.17920
988.75623	0.17251
987.47046	0.16612
986.18469	0.15998
984.89892	0.15412
983.61315	0.14863
982.32738	0.14352
981.04161	0.13877
979.75585	0.13431
978.47008	0.13016
977.18431	0.12637
975.89854	0.12299
974.61277	0.12004
973.32700	0.11753
972.04123	0.11547
970.75546	0.11388
969.46970	0.11276
968.18393	0.11207
966.89816	0.11175
965.61239	0.11178
964.32662	0.11205
963.04085	0.11239
961.75508	0.11254
960.46931	0.11228
959.18354	0.11146
957.89778	0.11006
956.61201	0.10818
955.32624	0.10594
954.04047	0.10349
952.75470	0.10098
951.46893	0.09852
950.18316	0.09613
948.89739	0.09377
947.61163	0.09142
946.32586	0.08910
945.04009	0.08688
943.75432	0.08478
942.46855	0.08276
941.18278	0.08078
939.89701	0.07888
938.61124	0.07715
937.32547	0.07562
936.03971	0.07423
934.75394	0.07292
933.46817	0.07166
932.18240	0.07049
930.89663	0.06938
929.61086	0.06832
928.32509	0.06732
927.03932	0.06642
925.75356	0.06559
924.46779	0.06479
923.18202	0.06401
921.89625	0.06331
920.61048	0.06270
919.32471	0.06215
918.03894	0.06160
916.75317	0.06102
915.46740	0.06041
914.18164	0.05980
912.89587	0.05918
911.61010	0.05854
910.32433	0.05784
909.03856	0.05707
907.75279	0.05625
906.46702	0.05550
905.18125	0.05491
903.89549	0.05451
902.60972	0.05420
901.32395	0.05382
900.03818	0.05331
898.75241	0.05276
897.46664	0.05232
896.18087	0.05202
894.89510	0.05175
893.60933	0.05139
892.32357	0.05092
891.03780	0.05049
889.75203	0.05028
888.46626	0.05047
887.18049	0.05119
885.89472	0.05260
884.60895	0.05478
883.32318	0.05767
882.03742	0.06096
880.75165	0.06418
879.46588	0.06690
878.18011	0.06904
876.89434	0.07092
875.60857	0.07288
874.32280	0.07489
873.03703	0.07645
871.75126	0.07703
870.46550	0.07644
869.17973	0.07484
867.89396	0.07249
866.60819	0.06966
865.32242	0.06660
864.03665	0.06361
862.75088	0.06090
861.46511	0.05852
860.17935	0.05639
858.89358	0.05449
857.60781	0.05290
856.32204	0.05168
855.03627	0.05076
853.75050	0.05000
852.46473	0.04930
851.17896	0.04868
849.89319	0.04813
848.60743	0.04764
847.32166	0.04722
846.03589	0.04689
844.75012	0.04666
843.46435	0.04649
842.17858	0.04633
840.89281	0.04611
839.60704	0.04581
838.32128	0.04543
837.03551	0.04501
835.74974	0.04460
834.46397	0.04429
833.17820	0.04414
831.89243	0.04409
830.60666	0.04405
829.32089	0.04393
828.03512	0.04376
826.74936	0.04361
825.46359	0.04351
824.17782	0.04340
822.89205	0.04323
821.60628	0.04303
820.32051	0.04287
819.03474	0.04279
817.74897	0.04276
816.46321	0.04275
815.17744	0.04276
813.89167	0.04285
812.60590	0.04299
811.32013	0.04312
810.03436	0.04319
808.74859	0.04321
807.46282	0.04321
806.17705	0.04323
804.89129	0.04331
803.60552	0.04348
802.31975	0.04372
801.03398	0.04399
799.74821	0.04425
798.46244	0.04444
797.17667	0.04454
795.89090	0.04454
794.60513	0.04447
793.31937	0.04436
792.03360	0.04424
790.74783	0.04417
789.46206	0.04414
788.17629	0.04412
786.89052	0.04403
785.60475	0.04388
784.31898	0.04373
783.03322	0.04367
781.74745	0.04370
780.46168	0.04376
779.17591	0.04376
777.89014	0.04371
776.60437	0.04363
775.31860	0.04350
774.03283	0.04331
772.74706	0.04306
771.46130	0.04280
770.17553	0.04258
768.88976	0.04244
767.60399	0.04240
766.31822	0.04246
765.03245	0.04259
763.74668	0.04273
762.46091	0.04281
761.17515	0.04286
759.88938	0.04292
758.60361	0.04301
757.31784	0.04306
756.03207	0.04303
754.74630	0.04295
753.46053	0.04287
752.17476	0.04277
750.88899	0.04261
749.60323	0.04243
748.31746	0.04230
747.03169	0.04225
745.74592	0.04228
744.46015	0.04231
743.17438	0.04230
741.88861	0.04219
740.60284	0.04195
739.31708	0.04161
738.03131	0.04128
736.74554	0.04107
735.45977	0.04101
734.17400	0.04104
732.88823	0.04107
731.60246	0.04107
730.31669	0.04103
729.03092	0.04099
727.74516	0.04100
726.45939	0.04106
725.17362	0.04116
723.88785	0.04107
722.60208	0.04132
721.31631	0.04173
720.03054	0.04206
718.74477	0.04227
717.45901	0.04235
716.17324	0.04225
714.88747	0.04198
713.60170	0.04157
712.31593	0.04114
711.03016	0.04079
709.74439	0.04057
708.45862	0.04049
707.17285	0.04051
705.88709	0.04058
704.60132	0.04068
703.31555	0.04074
702.02978	0.04075
700.74401	0.04078
699.45824	0.04090
698.17247	0.04112
696.88670	0.04136
695.60094	0.04154
694.31517	0.04161
693.02940	0.04159
691.74363	0.04152
690.45786	0.04141
689.17209	0.04126
687.88632	0.04108
686.60055	0.04087
685.31478	0.04064
684.02902	0.04044
682.74325	0.04028
681.45748	0.04018
680.17171	0.04011
678.88594	0.04002
677.60017	0.03991
676.31440	0.03981
675.02863	0.03977
673.74287	0.03982
672.45710	0.03991
671.17133	0.04001
669.88556	0.04007
668.59979	0.04006
667.31402	0.04000
666.02825	0.03990
664.74248	0.03975
663.45671	0.03956
662.17095	0.03937
660.88518	0.03925
659.59941	0.03918
658.31364	0.03915
657.02787	0.03914
655.74210	0.03913
654.45633	0.03912
653.17056	0.03911
651.88480	0.03910
650.59903	0.03910
649.31326	0.03910
648.02749	0.03911
646.74172	0.03910
645.45595	0.03910
644.17018	0.03912
642.88441	0.03918
641.59864	0.03925
640.31288	0.03928
639.02711	0.03930
637.74134	0.03937
636.45557	0.03954
635.16980	0.03984
633.88403	0.04020
632.59826	0.04058
631.31249	0.04094
630.02673	0.04137
628.74096	0.04189
627.45519	0.04224
626.16942	0.04293
624.88365	0.04389
623.59788	0.04508
622.31211	0.04685
621.02634	0.04973
619.74057	0.05366
618.45481	0.05767
617.16904	0.06070
615.88327	0.06254
614.59750	0.06371
613.31173	0.06499
612.02596	0.06722
610.74019	0.07134
609.45442	0.07757
608.16866	0.08468
606.88289	0.09092
605.59712	0.09553
604.31135	0.09870
603.02558	0.10072
601.73981	0.10161
600.45404	0.10139
599.16827	0.10022
597.88250	0.09832
596.59674	0.09593
595.31097	0.09340
594.02520	0.09101
592.73943	0.08897
591.45366	0.08738
590.16789	0.08641
588.88212	0.08620
587.59635	0.08678
586.31059	0.08796
585.02482	0.08953
583.73905	0.09136
582.45328	0.09344
581.16751	0.09570
579.88174	0.09804
578.59597	0.10033
577.31020	0.10257
576.02443	0.10479
574.73867	0.10696
573.45290	0.10906
572.16713	0.11109
570.88136	0.11326
569.59559	0.11589
568.30982	0.11925
567.02405	0.12328
565.73828	0.12749
564.45251	0.13114
563.16675	0.13355
561.88098	0.13439
560.59521	0.13362
559.30944	0.13133
558.02367	0.12761
556.73790	0.12263
555.45213	0.11673
554.16636	0.11042
552.88060	0.10421
551.59483	0.09850
550.30906	0.09354
549.02329	0.08932
547.73752	0.08567
546.45175	0.08239
545.16598	0.07937
543.88021	0.07665
542.59444	0.07429
541.30868	0.07232
540.02291	0.07067
538.73714	0.06922
537.45137	0.06789
536.16560	0.06665
534.87983	0.06556
533.59406	0.06465
532.30829	0.06387
531.02253	0.06309
529.73676	0.06223
528.45099	0.06133
527.16522	0.06049
525.87945	0.05983
524.59368	0.05930
523.30791	0.05878
522.02214	0.05816
520.73637	0.05744
519.45061	0.05668
518.16484	0.05592
516.87907	0.05519
515.59330	0.05445
514.30753	0.05370
513.02176	0.05298
511.73599	0.05238
510.45022	0.05196
509.16446	0.05166
507.87869	0.05136
506.59292	0.05097
505.30715	0.05051
504.02138	0.05008
502.73561	0.04976
501.44984	0.04953
500.16407	0.04934
498.87830	0.04915
497.59254	0.04893
496.30677	0.04861
495.02100	0.04820
493.73523	0.04780
492.44946	0.04755
491.16369	0.04755
489.87792	0.04771
488.59215	0.04789
487.30639	0.04796
486.02062	0.04795
484.73485	0.04797
483.44908	0.04813
482.16331	0.04852
480.87754	0.04912
479.59177	0.04989
478.30600	0.05076
477.02023	0.05163
475.73447	0.05246
474.44870	0.05321
473.16293	0.05386
471.87716	0.05440
470.59139	0.05481
469.30562	0.05510
468.01985	0.05524
466.73408	0.05518
465.44832	0.05491
464.16255	0.05447
462.87678	0.05393
461.59101	0.05335
460.30524	0.05275
459.01947	0.05210
457.73370	0.05137
456.44793	0.05060
455.16216	0.04984
453.87640	0.04910
452.59063	0.04841
451.30486	0.04780
450.01909	0.04730
448.73332	0.04693
447.44755	0.04661
446.16178	0.04625
444.87601	0.04584
443.59025	0.04541
442.30448	0.04503
441.01871	0.04474
439.73294	0.04450
438.44717	0.04427
437.16140	0.04406
435.87563	0.04388
434.58986	0.04377
433.30409	0.04371
432.01833	0.04365
430.73256	0.04350
429.44679	0.04322
428.16102	0.04287
426.87525	0.04253
425.58948	0.04227
424.30371	0.04205
423.01794	0.04179
421.73218	0.04145
420.44641	0.04104
419.16064	0.04058
417.87487	0.04010
416.58910	0.03959
415.30333	0.03909
414.01756	0.03864
412.73179	0.03825
411.44602	0.03791
410.16026	0.03756
408.87449	0.03724
407.58872	0.03698
406.30295	0.03680
405.01718	0.03670
403.73141	0.03664
402.44564	0.03665
401.15987	0.03675
399.87411	0.03692
