3997.45528	0.04600
3996.16951	0.04596
3994.88374	0.04602
3993.59798	0.04637
3992.31221	0.04690
3991.02644	0.04723
3989.74067	0.04708
3988.45490	0.04651
3987.16913	0.04583
3985.88336	0.04529
3984.59759	0.04490
3983.31183	0.04452
3982.02606	0.04408
3980.74029	0.04372
3979.45452	0.04356
3978.16875	0.04342
3976.88298	0.04289
3975.59721	0.04191
3974.31144	0.04106
3973.02567	0.04105
3971.73991	0.04204
3970.45414	0.04334
3969.16837	0.04409
3967.88260	0.04408
3966.59683	0.04385
3965.31106	0.04406
3964.02529	0.04482
3962.73952	0.04569
3961.45376	0.04613
3960.16799	0.04588
3958.88222	0.04505
3957.59645	0.04401
3956.31068	0.04321
3955.02491	0.04296
3953.73914	0.04329
3952.45337	0.04395
3951.16760	0.04455
3949.88184	0.04473
3948.59607	0.04431
3947.31030	0.04351
3946.02453	0.04297
3944.73876	0.04333
3943.45299	0.04453
3942.16722	0.04568
3940.88145	0.04578
3939.59569	0.04465
3938.30992	0.04296
3937.02415	0.04163
3935.73838	0.04120
3934.45261	0.04164
3933.16684	0.04253
3931.88107	0.04342
3930.59530	0.04401
3929.30953	0.04431
3928.02377	0.04454
3926.73800	0.04491
3925.45223	0.04540
3924.16646	0.04581
3922.88069	0.04597
3921.59492	0.04581
3920.30915	0.04530
3919.02338	0.04449
3917.73762	0.04359
3916.45185	0.04287
3915.16608	0.04243
3913.88031	0.04230
3912.59454	0.04249
3911.30877	0.04303
3910.02300	0.04381
3908.73723	0.04452
3907.45146	0.04495
3906.16570	0.04507
3904.87993	0.04505
3903.59416	0.04499
3902.30839	0.04496
3901.02262	0.04498
3899.73685	0.04505
3898.45108	0.04502
3897.16531	0.04469
3895.87955	0.04399
3894.59378	0.04317
3893.30801	0.04248
3892.02224	0.04190
3890.73647	0.04118
3889.45070	0.04041
3888.16493	0.04008
3886.87916	0.04044
3885.59339	0.04123
3884.30763	0.04209
3883.02186	0.04299
3881.73609	0.04383
3880.45032	0.04417
3879.16455	0.04361
3877.87878	0.04224
3876.59301	0.04050
3875.30724	0.03893
3874.02148	0.03806
3872.73571	0.03837
3871.44994	0.03982
3870.16417	0.04162
3868.87840	0.04277
3867.59263	0.04293
3866.30686	0.04251
3865.02109	0.04214
3863.73532	0.04225
3862.44956	0.04286
3861.16379	0.04353
3859.87802	0.04353
3858.59225	0.04245
3857.30648	0.04054
3856.02071	0.03873
3854.73494	0.03804
3853.44917	0.03871
3852.16341	0.04004
3850.87764	0.04108
3849.59187	0.04124
3848.30610	0.04054
3847.02033	0.03953
3845.73456	0.03898
3844.44879	0.03935
3843.16302	0.04035
3841.87725	0.04110
3840.59149	0.04106
3839.30572	0.04045
3838.01995	0.03987
3836.73418	0.03968
3835.44841	0.03995
3834.16264	0.04055
3832.87687	0.04124
3831.59110	0.04172
3830.30534	0.04184
3829.01957	0.04174
3827.73380	0.04169
3826.44803	0.04177
3825.16226	0.04191
3823.87649	0.04208
3822.59072	0.04215
3821.30495	0.04181
3820.01918	0.04099
3818.73342	0.04020
3817.44765	0.04015
3816.16188	0.04081
3814.87611	0.04146
3813.59034	0.04148
3812.30457	0.04087
3811.01880	0.04012
3809.73303	0.03995
3808.44726	0.04069
3807.16150	0.04200
3805.87573	0.04302
3804.58996	0.04320
3803.30419	0.04264
3802.01842	0.04175
3800.73265	0.04080
3799.44688	0.03997
3798.16111	0.03938
3796.87535	0.03897
3795.58958	0.03854
3794.30381	0.03803
3793.01804	0.03763
3791.73227	0.03754
3790.44650	0.03765
3789.16073	0.03762
3787.87496	0.03736
3786.58919	0.03725
3785.30343	0.03769
3784.01766	0.03851
3782.73189	0.03905
3781.44612	0.03885
3780.16035	0.03814
3778.87458	0.03757
3777.58881	0.03754
3776.30304	0.03796
3775.01728	0.03854
3773.73151	0.03919
3772.44574	0.03986
3771.15997	0.04033
3769.87420	0.04028
3768.58843	0.03974
3767.30266	0.03918
3766.01689	0.03901
3764.73112	0.03922
3763.44536	0.03956
3762.15959	0.03991
3760.87382	0.04023
3759.58805	0.04037
3758.30228	0.04021
3757.01651	0.03997
3755.73074	0.04005
3754.44497	0.04048
3753.15921	0.04067
3751.87344	0.03991
3750.58767	0.03819
3749.30190	0.03622
3748.01613	0.03496
3746.73036	0.03510
3745.44459	0.03650
3744.15882	0.03824
3742.87305	0.03959
3741.58729	0.04053
3740.30152	0.04124
3739.01575	0.04173
3737.72998	0.04188
3736.44421	0.04146
3735.15844	0.04036
3733.87267	0.03878
3732.58690	0.03724
3731.30114	0.03633
3730.01537	0.03639
3728.72960	0.03733
3727.44383	0.03843
3726.15806	0.03881
3724.87229	0.03815
3723.58652	0.03696
3722.30075	0.03607
3721.01498	0.03596
3719.72922	0.03651
3718.44345	0.03718
3717.15768	0.03751
3715.87191	0.03742
3714.58614	0.03713
3713.30037	0.03683
3712.01460	0.03663
3710.72883	0.03667
3709.44307	0.03697
3708.15730	0.03728
3706.87153	0.03715
3705.58576	0.03650
3704.29999	0.03563
3703.01422	0.03487
3701.72845	0.03434
3700.44268	0.03401
3699.15691	0.03387
3697.87115	0.03388
3696.58538	0.03400
3695.29961	0.03419
3694.01384	0.03450
3692.72807	0.03513
3691.44230	0.03609
3690.15653	0.03711
3688.87076	0.03786
3687.58500	0.03814
3686.29923	0.03813
3685.01346	0.03826
3683.72769	0.03859
3682.44192	0.03877
3681.15615	0.03847
3679.87038	0.03766
3678.58461	0.03686
3677.29884	0.03679
3676.01308	0.03762
3674.72731	0.03878
3673.44154	0.03954
3672.15577	0.03965
3670.87000	0.03930
3669.58423	0.03886
3668.29846	0.03862
3667.01269	0.03856
3665.72693	0.03837
3664.44116	0.03785
3663.15539	0.03724
3661.86962	0.03708
3660.58385	0.03760
3659.29808	0.03856
3658.01231	0.03949
3656.72654	0.04009
3655.44077	0.04034
3654.15501	0.04028
3652.86924	0.03989
3651.58347	0.03923
3650.29770	0.03865
3649.01193	0.03861
3647.72616	0.03921
3646.44039	0.03992
3645.15462	0.04012
3643.86886	0.03967
3642.58309	0.03899
3641.29732	0.03862
3640.01155	0.03871
3638.72578	0.03901
3637.44001	0.03913
3636.15424	0.03883
3634.86847	0.03822
3633.58270	0.03772
3632.29694	0.03794
3631.01117	0.03920
3629.72540	0.04106
3628.43963	0.04251
3627.15386	0.04288
3625.86809	0.04244
3624.58232	0.04205
3623.29655	0.04226
3622.01079	0.04285
3620.72502	0.04309
3619.43925	0.04250
3618.15348	0.04125
3616.86771	0.03990
3615.58194	0.03893
3614.29617	0.03840
3613.01040	0.03815
3611.72463	0.03810
3610.43887	0.03844
3609.15310	0.03937
3607.86733	0.04072
3606.58156	0.04194
3605.29579	0.04257
3604.01002	0.04259
3602.72425	0.04235
3601.43848	0.04221
3600.15272	0.04228
3598.86695	0.04252
3597.58118	0.04278
3596.29541	0.04295
3595.00964	0.04302
3593.72387	0.04314
3592.43810	0.04348
3591.15233	0.04397
3589.86656	0.04426
3588.58080	0.04412
3587.29503	0.04367
3586.00926	0.04327
3584.72349	0.04317
3583.43772	0.04344
3582.15195	0.04405
3580.86618	0.04492
3579.58041	0.04594
3578.29464	0.04686
3577.00888	0.04732
3575.72311	0.04719
3574.43734	0.04665
3573.15157	0.04620
3571.86580	0.04614
3570.58003	0.04635
3569.29426	0.04646
3568.00849	0.04631
3566.72273	0.04609
3565.43696	0.04600
3564.15119	0.04604
3562.86542	0.04608
3561.57965	0.04605
3560.29388	0.04595
3559.00811	0.04587
3557.72234	0.04598
3556.43657	0.04643
3555.15081	0.04709
3553.86504	0.04763
3552.57927	0.04765
3551.29350	0.04700
3550.00773	0.04594
3548.72196	0.04516
3547.43619	0.04532
3546.15042	0.04650
3544.86466	0.04817
3543.57889	0.04963
3542.29312	0.05054
3541.00735	0.05096
3539.72158	0.05104
3538.43581	0.05091
3537.15004	0.05056
3535.86427	0.05006
3534.57850	0.04958
3533.29274	0.04932
3532.00697	0.04928
3530.72120	0.04935
3529.43543	0.04951
3528.14966	0.04989
3526.86389	0.05053
3525.57812	0.05112
3524.29235	0.05127
3523.00659	0.05087
3521.72082	0.05026
3520.43505	0.04982
3519.14928	0.04965
3517.86351	0.04960
3516.57774	0.04960
3515.29197	0.04963
3514.00620	0.04963
3512.72043	0.04952
3511.43467	0.04938
3510.14890	0.04937
3508.86313	0.04959
3507.57736	0.04995
3506.29159	0.05026
3505.00582	0.05042
3503.72005	0.05051
3502.43428	0.05072
3501.14852	0.05107
3499.86275	0.05122
3498.57698	0.05085
3497.29121	0.05006
3496.00544	0.04943
3494.71967	0.04938
3493.43390	0.04980
3492.14813	0.05034
3490.86236	0.05075
3489.57660	0.05097
3488.29083	0.05099
3487.00506	0.05084
3485.71929	0.05067
3484.43352	0.05070
3483.14775	0.05109
3481.86198	0.05182
3480.57621	0.05266
3479.29045	0.05335
3478.00468	0.05375
3476.71891	0.05384
3475.43314	0.05367
3474.14737	0.05327
3472.86160	0.05268
3471.57583	0.05206
3470.29006	0.05164
3469.00429	0.05156
3467.71853	0.05180
3466.43276	0.05217
3465.14699	0.05247
3463.86122	0.05266
3462.57545	0.05286
3461.28968	0.05315
3460.00391	0.05338
3458.71814	0.05332
3457.43238	0.05295
3456.14661	0.05254
3454.86084	0.05247
3453.57507	0.05294
3452.28930	0.05393
3451.00353	0.05515
3449.71776	0.05607
3448.43199	0.05619
3447.14622	0.05554
3445.86046	0.05475
3444.57469	0.05458
3443.28892	0.05517
3442.00315	0.05599
3440.71738	0.05642
3439.43161	0.05641
3438.14584	0.05630
3436.86007	0.05636
3435.57431	0.05648
3434.28854	0.05642
3433.00277	0.05610
3431.71700	0.05568
3430.43123	0.05540
3429.14546	0.05529
3427.85969	0.05525
3426.57392	0.05515
3425.28815	0.05494
3424.00239	0.05468
3422.71662	0.05450
3421.43085	0.05452
3420.14508	0.05480
3418.85931	0.05536
3417.57354	0.05619
3416.28777	0.05707
3415.00200	0.05758
3413.71624	0.05731
3412.43047	0.05629
3411.14470	0.05497
3409.85893	0.05395
3408.57316	0.05359
3407.28739	0.05391
3406.00162	0.05468
3404.71585	0.05556
3403.43008	0.05627
3402.14432	0.05664
3400.85855	0.05666
3399.57278	0.05646
3398.28701	0.05625
3397.00124	0.05617
3395.71547	0.05621
3394.42970	0.05624
3393.14393	0.05616
3391.85817	0.05597
3390.57240	0.05584
3389.28663	0.05591
3388.00086	0.05612
3386.71509	0.05629
3385.42932	0.05632
3384.14355	0.05632
3382.85778	0.05647
3381.57201	0.05683
3380.28625	0.05724
3379.00048	0.05750
3377.71471	0.05762
3376.42894	0.05774
3375.14317	0.05789
3373.85740	0.05789
3372.57163	0.05744
3371.28586	0.05654
3370.00010	0.05561
3368.71433	0.05531
3367.42856	0.05594
3366.14279	0.05709
3364.85702	0.05802
3363.57125	0.05830
3362.28548	0.05814
3360.99971	0.05806
3359.71394	0.05835
3358.42818	0.05889
3357.14241	0.05937
3355.85664	0.05968
3354.57087	0.05991
3353.28510	0.06009
3351.99933	0.05999
3350.71356	0.05948
3349.42779	0.05877
3348.14202	0.05827
3346.85626	0.05806
3345.57049	0.05791
3344.28472	0.05764
3342.99895	0.05746
3341.71318	0.05768
3340.42741	0.05831
3339.14164	0.05900
3337.85587	0.05934
3336.57011	0.05915
3335.28434	0.05854
3333.99857	0.05771
3332.71280	0.05690
3331.42703	0.05637
3330.14126	0.05623
3328.85549	0.05630
3327.56972	0.05630
3326.28395	0.05612
3324.99819	0.05595
3323.71242	0.05604
3322.42665	0.05636
3321.14088	0.05667
3319.85511	0.05673
3318.56934	0.05646
3317.28357	0.05598
3315.99780	0.05553
3314.71204	0.05540
3313.42627	0.05582
3312.14050	0.05679
3310.85473	0.05803
3309.56896	0.05901
3308.28319	0.05936
3306.99742	0.05908
3305.71165	0.05852
3304.42588	0.05798
3303.14012	0.05752
3301.85435	0.05713
3300.56858	0.05686
3299.28281	0.05676
3297.99704	0.05674
3296.71127	0.05670
3295.42550	0.05665
3294.13973	0.05656
3292.85397	0.05633
3291.56820	0.05597
3290.28243	0.05572
3288.99666	0.05587
3287.71089	0.05643
3286.42512	0.05703
3285.13935	0.05730
3283.85358	0.05722
3282.56781	0.05710
3281.28205	0.05725
3279.99628	0.05767
3278.71051	0.05815
3277.42474	0.05841
3276.13897	0.05830
3274.85320	0.05781
3273.56743	0.05714
3272.28166	0.05658
3270.99590	0.05632
3269.71013	0.05636
3268.42436	0.05652
3267.13859	0.05664
3265.85282	0.05664
3264.56705	0.05657
3263.28128	0.05644
3261.99551	0.05623
3260.70974	0.05592
3259.42398	0.05554
3258.13821	0.05521
3256.85244	0.05507
3255.56667	0.05523
3254.28090	0.05567
3252.99513	0.05617
3251.70936	0.05645
3250.42359	0.05638
3249.13783	0.05606
3247.85206	0.05566
3246.56629	0.05533
3245.28052	0.05512
3243.99475	0.05506
3242.70898	0.05514
3241.42321	0.05536
3240.13744	0.05566
3238.85167	0.05587
3237.56591	0.05582
3236.28014	0.05555
3234.99437	0.05532
3233.70860	0.05534
3232.42283	0.05552
3231.13706	0.05559
3229.85129	0.05544
3228.56552	0.05526
3227.27976	0.05530
3225.99399	0.05551
3224.70822	0.05562
3223.42245	0.05551
3222.13668	0.05537
3220.85091	0.05535
3219.56514	0.05533
3218.27937	0.05508
3216.99360	0.05460
3215.70784	0.05413
3214.42207	0.05385
3213.13630	0.05380
3211.85053	0.05395
3210.56476	0.05429
3209.27899	0.05466
3207.99322	0.05478
3206.70745	0.05446
3205.42169	0.05388
3204.13592	0.05336
3202.85015	0.05314
3201.56438	0.05323
3200.27861	0.05353
3198.99284	0.05387
3197.70707	0.05408
3196.42130	0.05407
3195.13553	0.05380
3193.84977	0.05334
3192.56400	0.05280
3191.27823	0.05230
3189.99246	0.05196
3188.70669	0.05182
3187.42092	0.05185
3186.13515	0.05200
3184.84938	0.05227
3183.56362	0.05259
3182.27785	0.05286
3180.99208	0.05291
3179.70631	0.05266
3178.42054	0.05213
3177.13477	0.05150
3175.84900	0.05096
3174.56323	0.05070
3173.27746	0.05071
3171.99170	0.05089
3170.70593	0.05116
3169.42016	0.05155
3168.13439	0.05203
3166.84862	0.05242
3165.56285	0.05247
3164.27708	0.05220
3162.99131	0.05188
3161.70555	0.05173
3160.41978	0.05172
3159.13401	0.05170
3157.84824	0.05157
3156.56247	0.05142
3155.27670	0.05144
3153.99093	0.05165
3152.70516	0.05186
3151.41939	0.05182
3150.13363	0.05150
3148.84786	0.05110
3147.56209	0.05086
3146.27632	0.05085
3144.99055	0.05090
3143.70478	0.05081
3142.41901	0.05054
3141.13324	0.05022
3139.84748	0.05003
3138.56171	0.05000
3137.27594	0.04997
3135.99017	0.04984
3134.70440	0.04971
3133.41863	0.04971
3132.13286	0.04983
3130.84709	0.04989
3129.56132	0.04979
3128.27556	0.04948
3126.98979	0.04905
3125.70402	0.04865
3124.41825	0.04847
3123.13248	0.04857
3121.84671	0.04882
3120.56094	0.04890
3119.27517	0.04865
3117.98940	0.04818
3116.70364	0.04779
3115.41787	0.04772
3114.13210	0.04801
3112.84633	0.04853
3111.56056	0.04901
3110.27479	0.04918
3108.98902	0.04898
3107.70325	0.04858
3106.41749	0.04824
3105.13172	0.04804
3103.84595	0.04793
3102.56018	0.04786
3101.27441	0.04785
3099.98864	0.04779
3098.70287	0.04752
3097.41710	0.04707
3096.13133	0.04679
3094.84557	0.04686
3093.55980	0.04710
3092.27403	0.04717
3090.98826	0.04706
3089.70249	0.04708
3088.41672	0.04745
3087.13095	0.04809
3085.84518	0.04866
3084.55942	0.04888
3083.27365	0.04871
3081.98788	0.04828
3080.70211	0.04780
3079.41634	0.04745
3078.13057	0.04737
3076.84480	0.04762
3075.55903	0.04812
3074.27326	0.04864
3072.98750	0.04891
3071.70173	0.04882
3070.41596	0.04848
3069.13019	0.04812
3067.84442	0.04781
3066.55865	0.04750
3065.27288	0.04706
3063.98711	0.04646
3062.70135	0.04585
3061.41558	0.04549
3060.12981	0.04556
3058.84404	0.04601
3057.55827	0.04648
3056.27250	0.04656
3054.98673	0.04610
3053.70096	0.04537
3052.41519	0.04483
3051.12943	0.04476
3049.84366	0.04509
3048.55789	0.04563
3047.27212	0.04621
3045.98635	0.04673
3044.70058	0.04712
3043.41481	0.04725
3042.12904	0.04706
3040.84328	0.04668
3039.55751	0.04638
3038.27174	0.04631
3036.98597	0.04632
3035.70020	0.04608
3034.41443	0.04546
3033.12866	0.04467
3031.84289	0.04408
3030.55712	0.04393
3029.27136	0.04414
3027.98559	0.04450
3026.69982	0.04482
3025.41405	0.04498
3024.12828	0.04496
3022.84251	0.04479
3021.55674	0.04450
3020.27097	0.04417
3018.98521	0.04382
3017.69944	0.04352
3016.41367	0.04339
3015.12790	0.04348
3013.84213	0.04369
3012.55636	0.04390
3011.27059	0.04406
3009.98482	0.04415
3008.69905	0.04422
3007.41329	0.04429
3006.12752	0.04441
3004.84175	0.04450
3003.55598	0.04447
3002.27021	0.04431
3000.98444	0.04411
2999.69867	0.04396
2998.41290	0.04392
2997.12714	0.04380
2995.84137	0.04351
2994.55560	0.04315
2993.26983	0.04296
2991.98406	0.04305
2990.69829	0.04334
2989.41252	0.04370
2988.12675	0.04394
2986.84098	0.04393
2985.55522	0.04371
2984.26945	0.04350
2982.98368	0.04348
2981.69791	0.04365
2980.41214	0.04392
2979.12637	0.04424
2977.84060	0.04464
2976.55483	0.04505
2975.26907	0.04536
2973.98330	0.04548
2972.69753	0.04547
2971.41176	0.04558
2970.12599	0.04603
2968.84022	0.04674
2967.55445	0.04745
2966.26868	0.04794
2964.98291	0.04834
2963.69715	0.04888
2962.41138	0.04959
2961.12561	0.05025
2959.83984	0.05066
2958.55407	0.05086
2957.26830	0.05106
2955.98253	0.05145
2954.69676	0.05197
2953.41100	0.05235
2952.12523	0.05242
2950.83946	0.05225
2949.55369	0.05210
2948.26792	0.05217
2946.98215	0.05246
2945.69638	0.05278
2944.41061	0.05295
2943.12484	0.05291
2941.83908	0.05278
2940.55331	0.05280
2939.26754	0.05310
2937.98177	0.05356
2936.69600	0.05399
2935.41023	0.05432
2934.12446	0.05470
2932.83869	0.05523
2931.55293	0.05580
2930.26716	0.05629
2928.98139	0.05670
2927.69562	0.05713
2926.40985	0.05758
2925.12408	0.05792
2923.83831	0.05798
2922.55254	0.05775
2921.26677	0.05742
2919.98101	0.05719
2918.69524	0.05705
2917.40947	0.05677
2916.12370	0.05622
2914.83793	0.05560
2913.55216	0.05515
2912.26639	0.05489
2910.98062	0.05462
2909.69486	0.05422
2908.40909	0.05375
2907.12332	0.05329
2905.83755	0.05287
2904.55178	0.05242
2903.26601	0.05193
2901.98024	0.05142
2900.69447	0.05102
2899.40870	0.05081
2898.12294	0.05071
2896.83717	0.05051
2895.55140	0.05006
2894.26563	0.04942
2892.97986	0.04875
2891.69409	0.04819
2890.40832	0.04782
2889.12255	0.04772
2887.83678	0.04783
2886.55102	0.04797
2885.26525	0.04798
2883.97948	0.04789
2882.69371	0.04781
2881.40794	0.04779
2880.12217	0.04772
2878.83640	0.04754
2877.55063	0.04737
2876.26487	0.04736
2874.97910	0.04755
2873.69333	0.04780
2872.40756	0.04797
2871.12179	0.04803
2869.83602	0.04803
2868.55025	0.04806
2867.26448	0.04813
2865.97871	0.04821
2864.69295	0.04831
2863.40718	0.04848
2862.12141	0.04877
2860.83564	0.04919
2859.54987	0.04966
2858.26410	0.05004
2856.97833	0.05016
2855.69256	0.04998
2854.40680	0.04960
2853.12103	0.04919
2851.83526	0.04880
2850.54949	0.04838
2849.26372	0.04795
2847.97795	0.04757
2846.69218	0.04727
2845.40641	0.04694
2844.12064	0.04648
2842.83488	0.04593
2841.54911	0.04537
2840.26334	0.04475
2838.97757	0.04398
2837.69180	0.04311
2836.40603	0.04238
2835.12026	0.04198
2833.83449	0.04191
2832.54873	0.04202
2831.26296	0.04206
2829.97719	0.04186
2828.69142	0.04143
2827.40565	0.04094
2826.11988	0.04058
2824.83411	0.04035
2823.54834	0.04012
2822.26257	0.03976
2820.97681	0.03936
2819.69104	0.03914
2818.40527	0.03919
2817.11950	0.03935
2815.83373	0.03938
2814.54796	0.03921
2813.26219	0.03894
2811.97642	0.03875
2810.69066	0.03870
2809.40489	0.03877
2808.11912	0.03889
2806.83335	0.03894
2805.54758	0.03885
2804.26181	0.03864
2802.97604	0.03838
2801.69027	0.03816
2800.40450	0.03815
2799.11874	0.03845
2797.83297	0.03893
2796.54720	0.03934
2795.26143	0.03946
2793.97566	0.03928
2792.68989	0.03895
2791.40412	0.03858
2790.11835	0.03820
2788.83259	0.03784
2787.54682	0.03756
2786.26105	0.03742
2784.97528	0.03735
2783.68951	0.03725
2782.40374	0.03708
2781.11797	0.03690
2779.83220	0.03685
2778.54643	0.03698
2777.26067	0.03720
2775.97490	0.03731
2774.68913	0.03717
2773.40336	0.03683
2772.11759	0.03650
2770.83182	0.03635
2769.54605	0.03639
2768.26028	0.03649
2766.97452	0.03654
2765.68875	0.03652
2764.40298	0.03648
2763.11721	0.03648
2761.83144	0.03652
2760.54567	0.03656
2759.25990	0.03650
2757.97413	0.03631
2756.68836	0.03606
2755.40260	0.03585
2754.11683	0.03573
2752.83106	0.03566
2751.54529	0.03555
2750.25952	0.03537
2748.97375	0.03516
2747.68798	0.03494
2746.40221	0.03472
2745.11645	0.03458
2743.83068	0.03464
2742.54491	0.03494
2741.25914	0.03537
2739.97337	0.03571
2738.68760	0.03586
2737.40183	0.03580
2736.11606	0.03559
2734.83029	0.03532
2733.54453	0.03511
2732.25876	0.03511
2730.97299	0.03533
2729.68722	0.03557
2728.40145	0.03560
2727.11568	0.03532
2725.82991	0.03492
2724.54414	0.03463
2723.25838	0.03452
2721.97261	0.03452
2720.68684	0.03453
2719.40107	0.03451
2718.11530	0.03446
2716.82953	0.03443
2715.54376	0.03444
2714.25799	0.03443
2712.97222	0.03431
2711.68646	0.03403
2710.40069	0.03372
2709.11492	0.03354
2707.82915	0.03360
2706.54338	0.03385
2705.25761	0.03421
2703.97184	0.03456
2702.68607	0.03480
2701.40031	0.03482
2700.11454	0.03461
2698.82877	0.03425
2697.54300	0.03386
2696.25723	0.03356
2694.97146	0.03344
2693.68569	0.03345
2692.39992	0.03348
2691.11415	0.03345
2689.82839	0.03337
2688.54262	0.03331
2687.25685	0.03326
2685.97108	0.03319
2684.68531	0.03309
2683.39954	0.03302
2682.11377	0.03297
2680.82800	0.03292
2679.54224	0.03284
2678.25647	0.03276
2676.97070	0.03277
2675.68493	0.03291
2674.39916	0.03313
2673.11339	0.03329
2671.82762	0.03334
2670.54185	0.03333
2669.25608	0.03334
2667.97032	0.03337
2666.68455	0.03332
2665.39878	0.03312
2664.11301	0.03281
2662.82724	0.03251
2661.54147	0.03235
2660.25570	0.03236
2658.96993	0.03250
2657.68417	0.03261
2656.39840	0.03259
2655.11263	0.03242
2653.82686	0.03218
2652.54109	0.03200
2651.25532	0.03196
2649.96955	0.03203
2648.68378	0.03206
2647.39801	0.03187
2646.11225	0.03145
2644.82648	0.03097
2643.54071	0.03067
2642.25494	0.03071
2640.96917	0.03102
2639.68340	0.03131
2638.39763	0.03134
2637.11186	0.03111
2635.82609	0.03081
2634.54033	0.03059
2633.25456	0.03047
2631.96879	0.03042
2630.68302	0.03040
2629.39725	0.03035
2628.11148	0.03018
2626.82571	0.02985
2625.53994	0.02940
2624.25418	0.02897
2622.96841	0.02869
2621.68264	0.02860
2620.39687	0.02859
2619.11110	0.02848
2617.82533	0.02824
2616.53956	0.02800
2615.25379	0.02789
2613.96802	0.02790
2612.68226	0.02792
2611.39649	0.02793
2610.11072	0.02790
2608.82495	0.02782
2607.53918	0.02774
2606.25341	0.02771
2604.96764	0.02777
2603.68187	0.02789
2602.39611	0.02793
2601.11034	0.02785
2599.82457	0.02769
2598.53880	0.02758
2597.25303	0.02753
2595.96726	0.02742
2594.68149	0.02717
2593.39572	0.02689
2592.10995	0.02676
2590.82419	0.02686
2589.53842	0.02709
2588.25265	0.02727
2586.96688	0.02726
2585.68111	0.02706
2584.39534	0.02680
2583.10957	0.02662
2581.82380	0.02660
2580.53804	0.02672
2579.25227	0.02692
2577.96650	0.02715
2576.68073	0.02733
2575.39496	0.02738
2574.10919	0.02725
2572.82342	0.02693
2571.53765	0.02653
2570.25188	0.02619
2568.96612	0.02607
2567.68035	0.02624
2566.39458	0.02667
2565.10881	0.02717
2563.82304	0.02748
2562.53727	0.02745
2561.25150	0.02717
2559.96573	0.02689
2558.67997	0.02672
2557.39420	0.02658
2556.10843	0.02644
2554.82266	0.02645
2553.53689	0.02667
2552.25112	0.02686
2550.96535	0.02679
2549.67958	0.02649
2548.39381	0.02620
2547.10805	0.02603
2545.82228	0.02594
2544.53651	0.02588
2543.25074	0.02580
2541.96497	0.02559
2540.67920	0.02518
2539.39343	0.02467
2538.10766	0.02432
2536.82190	0.02432
2535.53613	0.02463
2534.25036	0.02502
2532.96459	0.02531
2531.67882	0.02548
2530.39305	0.02555
2529.10728	0.02561
2527.82151	0.02576
2526.53574	0.02599
2525.24998	0.02613
2523.96421	0.02593
2522.67844	0.02542
2521.39267	0.02487
2520.10690	0.02456
2518.82113	0.02450
2517.53536	0.02450
2516.24959	0.02441
2514.96383	0.02423
2513.67806	0.02411
2512.39229	0.02416
2511.10652	0.02434
2509.82075	0.02455
2508.53498	0.02469
2507.24921	0.02478
2505.96344	0.02484
2504.67767	0.02487
2503.39191	0.02487
2502.10614	0.02483
2500.82037	0.02471
2499.53460	0.02457
2498.24883	0.02447
2496.96306	0.02445
2495.67729	0.02441
2494.39152	0.02420
2493.10576	0.02380
2491.81999	0.02332
2490.53422	0.02294
2489.24845	0.02281
2487.96268	0.02299
2486.67691	0.02345
2485.39114	0.02395
2484.10537	0.02425
2482.81960	0.02438
2481.53384	0.02461
2480.24807	0.02504
2478.96230	0.02537
2477.67653	0.02524
2476.39076	0.02472
2475.10499	0.02422
2473.81922	0.02404
2472.53345	0.02407
2471.24769	0.02405
2469.96192	0.02397
2468.67615	0.02404
2467.39038	0.02430
2466.10461	0.02451
2464.81884	0.02433
2463.53307	0.02374
2462.24730	0.02304
2460.96153	0.02260
2459.67577	0.02260
2458.39000	0.02297
2457.10423	0.02351
2455.81846	0.02402
2454.53269	0.02437
2453.24692	0.02449
2451.96115	0.02430
2450.67538	0.02383
2449.38962	0.02326
2448.10385	0.02287
2446.81808	0.02279
2445.53231	0.02290
2444.24654	0.02299
2442.96077	0.02301
2441.67500	0.02312
2440.38923	0.02344
2439.10346	0.02391
2437.81770	0.02432
2436.53193	0.02453
2435.24616	0.02448
2433.96039	0.02422
2432.67462	0.02381
2431.38885	0.02331
2430.10308	0.02284
2428.81731	0.02256
2427.53155	0.02258
2426.24578	0.02287
2424.96001	0.02318
2423.67424	0.02329
2422.38847	0.02313
2421.10270	0.02286
2419.81693	0.02271
2418.53116	0.02279
2417.24539	0.02305
2415.95963	0.02334
2414.67386	0.02353
2413.38809	0.02351
2412.10232	0.02329
2410.81655	0.02297
2409.53078	0.02274
2408.24501	0.02269
2406.95924	0.02278
2405.67347	0.02286
2404.38771	0.02283
2403.10194	0.02270
2401.81617	0.02258
2400.53040	0.02254
2399.24463	0.02259
2397.95886	0.02258
2396.67309	0.02263
2395.38732	0.02289
2394.10156	0.02337
2392.81579	0.02388
2391.53002	0.02417
2390.24425	0.02414
2388.95848	0.02390
2387.67271	0.02364
2386.38694	0.02345
2385.10117	0.02323
2383.81540	0.02294
2382.52964	0.02263
2381.24387	0.02247
2379.95810	0.02250
2378.67233	0.02258
2377.38656	0.02249
2376.10079	0.02210
2374.81502	0.02144
2373.52925	0.02075
2372.24349	0.02018
2370.95772	0.01994
2369.67195	0.01983
2368.38618	0.01973
2367.10041	0.01957
2365.81464	0.01946
2364.52887	0.01929
2363.24310	0.01926
2361.95733	0.01942
2360.67157	0.01971
2359.38580	0.01977
2358.10003	0.01985
2356.81426	0.02018
2355.52849	0.02078
2354.24272	0.02152
2352.95695	0.02207
2351.67118	0.02241
2350.38542	0.02255
2349.09965	0.02226
2347.81388	0.02148
2346.52811	0.02089
2345.24234	0.02069
2343.95657	0.02058
2342.67080	0.02023
2341.38503	0.02013
2340.09926	0.02049
2338.81350	0.02066
2337.52773	0.02053
2336.24196	0.02069
2334.95619	0.02105
2333.67042	0.02096
2332.38465	0.02035
2331.09888	0.02045
2329.81311	0.02065
2328.52735	0.01995
2327.24158	0.01990
2325.95581	0.02019
2324.67004	0.01964
2323.38427	0.01944
2322.09850	0.01985
2320.81273	0.01968
2319.52696	0.02006
2318.24119	0.02073
2316.95543	0.02079
2315.66966	0.02101
2314.38389	0.02113
2313.09812	0.02087
2311.81235	0.02092
2310.52658	0.02101
2309.24081	0.02129
2307.95504	0.02177
2306.66928	0.02191
2305.38351	0.02190
2304.09774	0.02167
2302.81197	0.02135
2301.52620	0.02116
2300.24043	0.02101
2298.95466	0.02092
2297.66889	0.02075
2296.38312	0.02052
2295.09736	0.02027
2293.81159	0.01996
2292.52582	0.01966
2291.24005	0.01938
2289.95428	0.01920
2288.66851	0.01914
2287.38274	0.01918
2286.09697	0.01925
2284.81121	0.01930
2283.52544	0.01935
2282.23967	0.01948
2280.95390	0.01973
2279.66813	0.01999
2278.38236	0.02010
2277.09659	0.01992
2275.81082	0.01938
2274.52505	0.01854
2273.23929	0.01766
2271.95352	0.01704
2270.66775	0.01683
2269.38198	0.01704
2268.09621	0.01748
2266.81044	0.01794
2265.52467	0.01820
2264.23890	0.01815
2262.95314	0.01795
2261.66737	0.01789
2260.38160	0.01808
2259.09583	0.01833
2257.81006	0.01834
2256.52429	0.01799
2255.23852	0.01743
2253.95275	0.01693
2252.66698	0.01665
2251.38122	0.01660
2250.09545	0.01686
2248.80968	0.01744
2247.52391	0.01777
2246.23814	0.01766
2244.95237	0.01717
2243.66660	0.01663
2242.38083	0.01620
2241.09507	0.01580
2239.80930	0.01534
2238.52353	0.01490
2237.23776	0.01463
2235.95199	0.01453
2234.66622	0.01440
2233.38045	0.01410
2232.09468	0.01379
2230.80891	0.01380
2229.52315	0.01423
2228.23738	0.01481
2226.95161	0.01515
2225.66584	0.01509
2224.38007	0.01482
2223.09430	0.01465
2221.80853	0.01472
2220.52276	0.01478
2219.23700	0.01453
2217.95123	0.01395
2216.66546	0.01323
2215.37969	0.01243
2214.09392	0.01149
2212.80815	0.01070
2211.52238	0.01065
2210.23661	0.01155
2208.95084	0.01282
2207.66508	0.01358
2206.37931	0.01356
2205.09354	0.01323
2203.80777	0.01311
2202.52200	0.01312
2201.23623	0.01289
2199.95046	0.01243
2198.66469	0.01226
2197.37893	0.01258
2196.09316	0.01303
2194.80739	0.01327
2193.52162	0.01347
2192.23585	0.01384
2190.95008	0.01416
2189.66431	0.01406
2188.37854	0.01366
2187.09277	0.01341
2185.80701	0.01344
2184.52124	0.01330
2183.23547	0.01264
2181.94970	0.01194
2180.66393	0.01201
2179.37816	0.01294
2178.09239	0.01373
2176.80662	0.01326
2175.52085	0.01155
2174.23509	0.00965
2172.94932	0.00865
2171.66355	0.00880
2170.37778	0.00963
2169.09201	0.01042
2167.80624	0.01071
2166.52047	0.01056
2165.23470	0.01033
2163.94894	0.01018
2162.66317	0.00984
2161.37740	0.00902
2160.09163	0.00790
2158.80586	0.00708
2157.52009	0.00693
2156.23432	0.00713
2154.94855	0.00700
2153.66278	0.00634
2152.37702	0.00561
2151.09125	0.00546
2149.80548	0.00608
2148.51971	0.00721
2147.23394	0.00833
2145.94817	0.00911
2144.66240	0.00951
2143.37663	0.00968
2142.09087	0.00976
2140.80510	0.00997
2139.51933	0.01063
2138.23356	0.01192
2136.94779	0.01356
2135.66202	0.01489
2134.37625	0.01545
2133.09048	0.01525
2131.80471	0.01463
2130.51895	0.01397
2129.23318	0.01355
2127.94741	0.01352
2126.66164	0.01384
2125.37587	0.01433
2124.09010	0.01472
2122.80433	0.01476
2121.51856	0.01444
2120.23280	0.01401
2118.94703	0.01372
2117.66126	0.01359
2116.37549	0.01352
2115.08972	0.01338
2113.80395	0.01303
2112.51818	0.01249
2111.23241	0.01207
2109.94664	0.01218
2108.66088	0.01276
2107.37511	0.01333
2106.08934	0.01341
2104.80357	0.01307
2103.51780	0.01280
2102.23203	0.01292
2100.94626	0.01321
2099.66049	0.01260
2098.37473	0.01182
2097.08896	0.01116
2095.80319	0.01088
2094.51742	0.01110
2093.23165	0.01151
2091.94588	0.01173
2090.66011	0.01170
2089.37434	0.01169
2088.08857	0.01190
2086.80281	0.01215
2085.51704	0.01211
2084.23127	0.01176
2082.94550	0.01141
2081.65973	0.01131
2080.37396	0.01133
2079.08819	0.01118
2077.80242	0.01079
2076.51666	0.01036
2075.23089	0.01008
2073.94512	0.00988
2072.65935	0.00957
2071.37358	0.00913
2070.08781	0.00878
2068.80204	0.00862
2067.51627	0.00857
2066.23050	0.00860
2064.94474	0.00880
2063.65897	0.00930
2062.37320	0.00989
2061.08743	0.01013
2059.80166	0.00971
2058.51589	0.00864
2057.23012	0.00731
2055.94435	0.00623
2054.65859	0.00594
2053.37282	0.00667
2052.08705	0.00807
2050.80128	0.00924
2049.51551	0.00930
2048.22974	0.00809
2046.94397	0.00636
2045.65820	0.00502
2044.37243	0.00439
2043.08667	0.00422
2041.80090	0.00417
2040.51513	0.00417
2039.22936	0.00436
2037.94359	0.00482
2036.65782	0.00546
2035.37205	0.00608
2034.08628	0.00650
2032.80052	0.00667
2031.51475	0.00665
2030.22898	0.00655
2028.94321	0.00642
2027.65744	0.00603
2026.37167	0.00499
2025.08590	0.00327
2023.80013	0.00146
2022.51436	0.00055
2021.22860	0.00111
2019.94283	0.00272
2018.65706	0.00420
2017.37129	0.00467
2016.08552	0.00428
2014.79975	0.00383
2013.51398	0.00384
2012.22821	0.00416
2010.94245	0.00444
2009.65668	0.00462
2008.37091	0.00490
2007.08514	0.00543
2005.79937	0.00622
2004.51360	0.00714
2003.22783	0.00801
2001.94206	0.00866
2000.65629	0.00899
1999.37053	0.00897
1998.08476	0.00876
1996.79899	0.00865
1995.51322	0.00891
1994.22745	0.00947
1992.94168	0.00991
1991.65591	0.00996
1990.37014	0.00977
1989.08438	0.00983
1987.79861	0.01038
1986.51284	0.01115
1985.22707	0.01156
1983.94130	0.01107
1982.65553	0.00960
1981.36976	0.00765
1980.08399	0.00614
1978.79822	0.00572
1977.51246	0.00635
1976.22669	0.00735
1974.94092	0.00817
1973.65515	0.00875
1972.36938	0.00923
1971.08361	0.00953
1969.79784	0.00937
1968.51207	0.00873
1967.22631	0.00789
1965.94054	0.00719
1964.65477	0.00681
1963.36900	0.00690
1962.08323	0.00754
1960.79746	0.00860
1959.51169	0.00962
1958.22592	0.01013
1956.94015	0.00999
1955.65439	0.00956
1954.36862	0.00938
1953.08285	0.00976
1951.79708	0.01055
1950.51131	0.01134
1949.22554	0.01187
1947.93977	0.01216
1946.65400	0.01239
1945.36823	0.01266
1944.08247	0.01299
1942.79670	0.01328
1941.51093	0.01334
1940.22516	0.01307
1938.93939	0.01262
1937.65362	0.01231
1936.36785	0.01238
1935.08208	0.01278
1933.79632	0.01324
1932.51055	0.01349
1931.22478	0.01354
1929.93901	0.01353
1928.65324	0.01347
1927.36747	0.01318
1926.08170	0.01253
1924.79593	0.01172
1923.51016	0.01115
1922.22440	0.01108
1920.93863	0.01142
1919.65286	0.01191
1918.36709	0.01230
1917.08132	0.01254
1915.79555	0.01272
1914.50978	0.01296
1913.22401	0.01321
1911.93825	0.01328
1910.65248	0.01300
1909.36671	0.01240
1908.08094	0.01180
1906.79517	0.01156
1905.50940	0.01176
1904.22363	0.01215
1902.93786	0.01240
1901.65209	0.01243
1900.36633	0.01241
1899.08056	0.01252
1897.79479	0.01274
1896.50902	0.01290
1895.22325	0.01285
1893.93748	0.01259
1892.65171	0.01220
1891.36594	0.01186
1890.08018	0.01171
1888.79441	0.01183
1887.50864	0.01217
1886.22287	0.01262
1884.93710	0.01305
1883.65133	0.01337
1882.36556	0.01357
1881.07979	0.01368
1879.79402	0.01368
1878.50826	0.01356
1877.22249	0.01331
1875.93672	0.01296
1874.65095	0.01264
1873.36518	0.01250
1872.07941	0.01258
1870.79364	0.01274
1869.50787	0.01281
1868.22211	0.01272
1866.93634	0.01261
1865.65057	0.01263
1864.36480	0.01282
1863.07903	0.01302
1861.79326	0.01314
1860.50749	0.01320
1859.22172	0.01329
1857.93595	0.01345
1856.65019	0.01358
1855.36442	0.01360
1854.07865	0.01353
1852.79288	0.01340
1851.50711	0.01325
1850.22134	0.01307
1848.93557	0.01288
1847.64980	0.01274
1846.36404	0.01269
1845.07827	0.01272
1843.79250	0.01281
1842.50673	0.01292
1841.22096	0.01303
1839.93519	0.01308
1838.64942	0.01300
1837.36365	0.01281
1836.07788	0.01260
1834.79212	0.01240
1833.50635	0.01228
1832.22058	0.01229
1830.93481	0.01245
1829.64904	0.01267
1828.36327	0.01283
1827.07750	0.01284
1825.79173	0.01272
1824.50597	0.01255
1823.22020	0.01245
1821.93443	0.01246
1820.64866	0.01260
1819.36289	0.01284
1818.07712	0.01320
1816.79135	0.01358
1815.50558	0.01385
1814.21981	0.01397
1812.93405	0.01400
1811.64828	0.01398
1810.36251	0.01392
1809.07674	0.01380
1807.79097	0.01368
1806.50520	0.01363
1805.21943	0.01368
1803.93366	0.01373
1802.64790	0.01372
1801.36213	0.01365
1800.07636	0.01356
1798.79059	0.01350
1797.50482	0.01347
1796.21905	0.01343
1794.93328	0.01338
1793.64751	0.01335
1792.36174	0.01335
1791.07598	0.01337
1789.79021	0.01342
1788.50444	0.01345
1787.21867	0.01347
1785.93290	0.01345
1784.64713	0.01336
1783.36136	0.01321
1782.07559	0.01310
1780.78983	0.01313
1779.50406	0.01330
1778.21829	0.01350
1776.93252	0.01359
1775.64675	0.01358
1774.36098	0.01358
1773.07521	0.01367
1771.78944	0.01382
1770.50367	0.01398
1769.21791	0.01411
1767.93214	0.01415
1766.64637	0.01408
1765.36060	0.01394
1764.07483	0.01383
1762.78906	0.01379
1761.50329	0.01382
1760.21752	0.01389
1758.93176	0.01397
1757.64599	0.01407
1756.36022	0.01417
1755.07445	0.01424
1753.78868	0.01431
1752.50291	0.01437
1751.21714	0.01442
1749.93137	0.01449
1748.64560	0.01459
1747.35984	0.01474
1746.07407	0.01489
1744.78830	0.01502
1743.50253	0.01511
1742.21676	0.01519
1740.93099	0.01525
1739.64522	0.01523
1738.35945	0.01511
1737.07369	0.01500
1735.78792	0.01504
1734.50215	0.01520
1733.21638	0.01539
1731.93061	0.01555
1730.64484	0.01569
1729.35907	0.01583
1728.07330	0.01591
1726.78753	0.01595
1725.50177	0.01602
1724.21600	0.01611
1722.93023	0.01621
1721.64446	0.01626
1720.35869	0.01634
1719.07292	0.01653
1717.78715	0.01680
1716.50138	0.01709
1715.21561	0.01733
1713.92985	0.01756
1712.64408	0.01780
1711.35831	0.01806
1710.07254	0.01833
1708.78677	0.01862
1707.50100	0.01895
1706.21523	0.01927
1704.92946	0.01954
1703.64370	0.01976
1702.35793	0.02005
1701.07216	0.02039
1699.78639	0.02071
1698.50062	0.02102
1697.21485	0.02145
1695.92908	0.02197
1694.64331	0.02242
1693.35754	0.02277
1692.07178	0.02313
1690.78601	0.02355
1689.50024	0.02396
1688.21447	0.02434
1686.92870	0.02476
1685.64293	0.02526
1684.35716	0.02579
1683.07139	0.02624
1681.78563	0.02660
1680.49986	0.02688
1679.21409	0.02713
1677.92832	0.02741
1676.64255	0.02780
1675.35678	0.02825
1674.07101	0.02867
1672.78524	0.02906
1671.49947	0.02948
1670.21371	0.02998
1668.92794	0.03050
1667.64217	0.03094
1666.35640	0.03130
1665.07063	0.03163
1663.78486	0.03198
1662.49909	0.03235
1661.21332	0.03270
1659.92756	0.03302
1658.64179	0.03325
1657.35602	0.03334
1656.07025	0.03340
1654.78448	0.03360
1653.49871	0.03396
1652.21294	0.03431
1650.92717	0.03453
1649.64140	0.03467
1648.35564	0.03484
1647.06987	0.03504
1645.78410	0.03522
1644.49833	0.03531
1643.21256	0.03528
1641.92679	0.03516
1640.64102	0.03498
1639.35525	0.03480
1638.06949	0.03467
1636.78372	0.03461
1635.49795	0.03455
1634.21218	0.03445
1632.92641	0.03433
1631.64064	0.03423
1630.35487	0.03410
1629.06910	0.03387
1627.78333	0.03354
1626.49757	0.03319
1625.21180	0.03292
1623.92603	0.03277
1622.64026	0.03266
1621.35449	0.03251
1620.06872	0.03234
1618.78295	0.03220
1617.49718	0.03210
1616.21142	0.03198
1614.92565	0.03183
1613.63988	0.03170
1612.35411	0.03164
1611.06834	0.03160
1609.78257	0.03152
1608.49680	0.03141
1607.21103	0.03128
1605.92526	0.03116
1604.63950	0.03106
1603.35373	0.03101
1602.06796	0.03102
1600.78219	0.03109
1599.49642	0.03120
1598.21065	0.03133
1596.92488	0.03148
1595.63911	0.03165
1594.35335	0.03182
1593.06758	0.03197
1591.78181	0.03206
1590.49604	0.03212
1589.21027	0.03216
1587.92450	0.03220
1586.63873	0.03227
1585.35296	0.03236
1584.06719	0.03252
1582.78143	0.03275
1581.49566	0.03300
1580.20989	0.03322
1578.92412	0.03344
1577.63835	0.03375
1576.35258	0.03411
1575.06681	0.03442
1573.78104	0.03465
1572.49528	0.03485
1571.20951	0.03509
1569.92374	0.03537
1568.63797	0.03567
1567.35220	0.03596
1566.06643	0.03623
1564.78066	0.03644
1563.49489	0.03651
1562.20912	0.03653
1560.92336	0.03664
1559.63759	0.03689
1558.35182	0.03720
1557.06605	0.03747
1555.78028	0.03766
1554.49451	0.03779
1553.20874	0.03790
1551.92297	0.03804
1550.63721	0.03824
1549.35144	0.03842
1548.06567	0.03847
1546.77990	0.03838
1545.49413	0.03821
1544.20836	0.03802
1542.92259	0.03785
1541.63682	0.03776
1540.35105	0.03775
1539.06529	0.03771
1537.77952	0.03758
1536.49375	0.03742
1535.20798	0.03732
1533.92221	0.03733
1532.63644	0.03740
1531.35067	0.03749
1530.06490	0.03758
1528.77914	0.03768
1527.49337	0.03782
1526.20760	0.03798
1524.92183	0.03815
1523.63606	0.03839
1522.35029	0.03874
1521.06452	0.03918
1519.77875	0.03964
1518.49298	0.04009
1517.20722	0.04052
1515.92145	0.04097
1514.63568	0.04147
1513.34991	0.04208
1512.06414	0.04274
1510.77837	0.04337
1509.49260	0.04400
1508.20683	0.04471
1506.92107	0.04549
1505.63530	0.04626
1504.34953	0.04697
1503.06376	0.04763
1501.77799	0.04824
1500.49222	0.04876
1499.20645	0.04918
1497.92068	0.04954
1496.63491	0.04990
1495.34915	0.05027
1494.06338	0.05070
1492.77761	0.05118
1491.49184	0.05169
1490.20607	0.05221
1488.92030	0.05274
1487.63453	0.05331
1486.34876	0.05392
1485.06299	0.05455
1483.77723	0.05518
1482.49146	0.05587
1481.20569	0.05664
1479.91992	0.05748
1478.63415	0.05834
1477.34838	0.05912
1476.06261	0.05977
1474.77684	0.06034
1473.49108	0.06090
1472.20531	0.06147
1470.91954	0.06205
1469.63377	0.06260
1468.34800	0.06314
1467.06223	0.06362
1465.77646	0.06402
1464.49069	0.06432
1463.20492	0.06451
1461.91916	0.06464
1460.63339	0.06481
1459.34762	0.06514
1458.06185	0.06564
1456.77608	0.06619
1455.49031	0.06662
1454.20454	0.06692
1452.91877	0.06716
1451.63301	0.06741
1450.34724	0.06768
1449.06147	0.06797
1447.77570	0.06821
1446.48993	0.06838
1445.20416	0.06844
1443.91839	0.06839
1442.63262	0.06821
1441.34685	0.06794
1440.06109	0.06765
1438.77532	0.06741
1437.48955	0.06726
1436.20378	0.06715
1434.91801	0.06708
1433.63224	0.06709
1432.34647	0.06724
1431.06070	0.06757
1429.77494	0.06806
1428.48917	0.06872
1427.20340	0.06952
1425.91763	0.07041
1424.63186	0.07131
1423.34609	0.07217
1422.06032	0.07304
1420.77455	0.07392
1419.48878	0.07478
1418.20302	0.07555
1416.91725	0.07621
1415.63148	0.07679
1414.34571	0.07730
1413.05994	0.07765
1411.77417	0.07781
1410.48840	0.07778
1409.20263	0.07759
1407.91687	0.07729
1406.63110	0.07687
1405.34533	0.07633
1404.05956	0.07564
1402.77379	0.07482
1401.48802	0.07388
1400.20225	0.07284
1398.91648	0.07167
1397.63071	0.07043
1396.34495	0.06919
1395.05918	0.06799
1393.77341	0.06683
1392.48764	0.06566
1391.20187	0.06449
1389.91610	0.06332
1388.63033	0.06219
1387.34456	0.06110
1386.05880	0.06005
1384.77303	0.05901
1383.48726	0.05796
1382.20149	0.05687
1380.91572	0.05575
1379.62995	0.05462
1378.34418	0.05347
1377.05841	0.05226
1375.77264	0.05095
1374.48688	0.04955
1373.20111	0.04811
1371.91534	0.04671
1370.62957	0.04541
1369.34380	0.04421
1368.05803	0.04306
1366.77226	0.04195
1365.48649	0.04086
1364.20073	0.03981
1362.91496	0.03881
1361.62919	0.03787
1360.34342	0.03704
1359.05765	0.03632
1357.77188	0.03568
1356.48611	0.03506
1355.20034	0.03444
1353.91457	0.03385
1352.62881	0.03326
1351.34304	0.03269
1350.05727	0.03216
1348.77150	0.03169
1347.48573	0.03127
1346.19996	0.03088
1344.91419	0.03049
1343.62842	0.03009
1342.34266	0.02972
1341.05689	0.02939
1339.77112	0.02910
1338.48535	0.02879
1337.19958	0.02845
1335.91381	0.02809
1334.62804	0.02775
1333.34227	0.02748
1332.05650	0.02726
1330.77074	0.02706
1329.48497	0.02682
1328.19920	0.02654
1326.91343	0.02626
1325.62766	0.02603
1324.34189	0.02587
1323.05612	0.02571
1321.77035	0.02551
1320.48459	0.02524
1319.19882	0.02493
1317.91305	0.02466
1316.62728	0.02448
1315.34151	0.02439
1314.05574	0.02431
1312.76997	0.02418
1311.48420	0.02401
1310.19843	0.02380
1308.91267	0.02357
1307.62690	0.02333
1306.34113	0.02306
1305.05536	0.02279
1303.76959	0.02256
1302.48382	0.02241
1301.19805	0.02233
1299.91228	0.02226
1298.62652	0.02217
1297.34075	0.02206
1296.05498	0.02196
1294.76921	0.02188
1293.48344	0.02183
1292.19767	0.02178
1290.91190	0.02171
1289.62613	0.02161
1288.34036	0.02147
1287.05460	0.02130
1285.76883	0.02114
1284.48306	0.02101
1283.19729	0.02090
1281.91152	0.02080
1280.62575	0.02070
1279.33998	0.02060
1278.05421	0.02051
1276.76845	0.02043
1275.48268	0.02036
1274.19691	0.02029
1272.91114	0.02020
1271.62537	0.02011
1270.33960	0.02003
1269.05383	0.01999
1267.76806	0.01997
1266.48229	0.01995
1265.19653	0.01990
1263.91076	0.01983
1262.62499	0.01979
1261.33922	0.01978
1260.05345	0.01979
1258.76768	0.01974
1257.48191	0.01964
1256.19614	0.01950
1254.91037	0.01940
1253.62461	0.01936
1252.33884	0.01938
1251.05307	0.01941
1249.76730	0.01941
1248.48153	0.01935
1247.19576	0.01923
1245.90999	0.01910
1244.62422	0.01903
1243.33846	0.01902
1242.05269	0.01904
1240.76692	0.01901
1239.48115	0.01890
1238.19538	0.01873
1236.90961	0.01857
1235.62384	0.01847
1234.33807	0.01843
1233.05230	0.01841
1231.76654	0.01834
1230.48077	0.01821
1229.19500	0.01805
1227.90923	0.01790
1226.62346	0.01779
1225.33769	0.01768
1224.05192	0.01755
1222.76615	0.01742
1221.48039	0.01732
1220.19462	0.01724
1218.90885	0.01715
1217.62308	0.01703
1216.33731	0.01689
1215.05154	0.01677
1213.76577	0.01669
1212.48000	0.01664
1211.19423	0.01662
1209.90847	0.01661
1208.62270	0.01658
1207.33693	0.01652
1206.05116	0.01642
1204.76539	0.01634
1203.47962	0.01630
1202.19385	0.01632
1200.90808	0.01639
1199.62232	0.01650
1198.33655	0.01648
1197.05078	0.01637
1195.76501	0.01622
1194.47924	0.01607
1193.19347	0.01598
1191.90770	0.01594
1190.62193	0.01594
1189.33616	0.01594
1188.05040	0.01595
1186.76463	0.01597
1185.47886	0.01593
1184.19309	0.01580
1182.90732	0.01559
1181.62155	0.01543
1180.33578	0.01539
1179.05001	0.01548
1177.76425	0.01559
1176.47848	0.01564
1175.19271	0.01563
1173.90694	0.01560
1172.62117	0.01561
1171.33540	0.01568
1170.04963	0.01577
1168.76386	0.01586
1167.47809	0.01595
1166.19233	0.01603
1164.90656	0.01610
1163.62079	0.01613
1162.33502	0.01612
1161.04925	0.01612
1159.76348	0.01613
1158.47771	0.01616
1157.19194	0.01618
1155.90618	0.01622
1154.62041	0.01630
1153.33464	0.01643
1152.04887	0.01663
1150.76310	0.01691
1149.47733	0.01723
1148.19156	0.01756
1146.90579	0.01789
1145.62002	0.01820
1144.33426	0.01852
1143.04849	0.01889
1141.76272	0.01930
1140.47695	0.01975
1139.19118	0.02023
1137.90541	0.02079
1136.61964	0.02150
1135.33387	0.02236
1134.04811	0.02330
1132.76234	0.02429
1131.47657	0.02535
1130.19080	0.02653
1128.90503	0.02785
1127.61926	0.02935
1126.33349	0.03105
1125.04772	0.03293
1123.76195	0.03490
1122.47619	0.03689
1121.19042	0.03889
1119.90465	0.04098
1118.61888	0.04323
1117.33311	0.04564
1116.04734	0.04813
1114.76157	0.05058
1113.47580	0.05288
1112.19004	0.05501
1110.90427	0.05704
1109.61850	0.05905
1108.33273	0.06108
1107.04696	0.06313
1105.76119	0.06515
1104.47542	0.06712
1103.18965	0.06903
1101.90388	0.07088
1100.61812	0.07265
1099.33235	0.07431
1098.04658	0.07585
1096.76081	0.07733
1095.47504	0.07877
1094.18927	0.08013
1092.90350	0.08134
1091.61773	0.08239
1090.33197	0.08339
1089.04620	0.08445
1087.76043	0.08554
1086.47466	0.08660
1085.18889	0.08756
1083.90312	0.08846
1082.61735	0.08941
1081.33158	0.09049
1080.04581	0.09172
1078.76005	0.09305
1077.47428	0.09444
1076.18851	0.09590
1074.90274	0.09747
1073.61697	0.09918
1072.33120	0.10105
1071.04543	0.10303
1069.75966	0.10508
1068.47390	0.10715
1067.18813	0.10920
1065.90236	0.11124
1064.61659	0.11326
1063.33082	0.11532
1062.04505	0.11742
1060.75928	0.11953
1059.47351	0.12158
1058.18774	0.12350
1056.90198	0.12528
1055.61621	0.12704
1054.33044	0.12890
1053.04467	0.13091
1051.75890	0.13299
1050.47313	0.13504
1049.18736	0.13705
1047.90159	0.13902
1046.61583	0.14096
1045.33006	0.14291
1044.04429	0.14492
1042.75852	0.14702
1041.47275	0.14919
1040.18698	0.15135
1038.90121	0.15344
1037.61544	0.15540
1036.32967	0.15728
1035.04391	0.15913
1033.75814	0.16102
1032.47237	0.16290
1031.18660	0.16466
1029.90083	0.16623
1028.61506	0.16756
1027.32929	0.16865
1026.04352	0.16949
1024.75775	0.17013
1023.47199	0.17062
1022.18622	0.17095
1020.90045	0.17109
1019.61468	0.17099
1018.32891	0.17064
1017.04314	0.17002
1015.75737	0.16911
1014.47160	0.16791
1013.18584	0.16648
1011.90007	0.16478
1010.61430	0.16275
1009.32853	0.16035
1008.04276	0.15765
1006.75699	0.15481
1005.47122	0.15192
1004.18545	0.14898
1002.89968	0.14586
1001.61392	0.14247
1000.32815	0.13881
999.04238	0.13493
997.75661	0.13097
996.47084	0.12700
995.18507	0.12307
993.89930	0.11920
992.61353	0.11539
991.32777	0.11167
990.04200	0.10805
988.75623	0.10456
987.47046	0.10122
986.18469	0.09801
984.89892	0.09492
983.61315	0.09193
982.32738	0.08910
981.04161	0.08646
979.75585	0.08399
978.47008	0.08168
977.18431	0.07952
975.89854	0.07754
974.61277	0.07575
973.32700	0.07421
972.04123	0.07297
970.75546	0.07201
969.46970	0.07132
968.18393	0.07094
966.89816	0.07096
965.61239	0.07137
964.32662	0.07205
963.04085	0.07274
961.75508	0.07322
960.46931	0.07336
959.18354	0.07308
957.89778	0.07239
956.61201	0.07132
955.32624	0.06999
954.04047	0.06855
952.75470	0.06707
951.46893	0.06554
950.18316	0.06391
948.89739	0.06221
947.61163	0.06062
946.32586	0.05924
945.04009	0.05801
943.75432	0.05683
942.46855	0.05566
941.18278	0.05455
939.89701	0.05352
938.61124	0.05249
937.32547	0.05138
936.03971	0.05024
934.75394	0.04915
933.46817	0.04818
932.18240	0.04731
930.89663	0.04651
929.61086	0.04576
928.32509	0.04507
927.03932	0.04442
925.75356	0.04385
924.46779	0.04336
923.18202	0.04291
921.89625	0.04245
920.61048	0.04195
919.32471	0.04143
918.03894	0.04092
916.75317	0.04039
915.46740	0.03982
914.18164	0.03929
912.89587	0.03888
911.61010	0.03861
910.32433	0.03841
909.03856	0.03813
907.75279	0.03770
906.46702	0.03716
905.18125	0.03665
903.89549	0.03628
902.60972	0.03606
901.32395	0.03588
900.03818	0.03565
898.75241	0.03536
897.46664	0.03504
896.18087	0.03474
894.89510	0.03453
893.60933	0.03442
892.32357	0.03436
891.03780	0.03427
889.75203	0.03418
888.46626	0.03422
887.18049	0.03455
885.89472	0.03526
884.60895	0.03642
883.32318	0.03800
882.03742	0.03987
880.75165	0.04180
879.46588	0.04350
878.18011	0.04484
876.89434	0.04594
875.60857	0.04707
874.32280	0.04835
873.03703	0.04953
871.75126	0.05020
870.46550	0.05011
869.17973	0.04931
867.89396	0.04807
866.60819	0.04660
865.32242	0.04495
864.03665	0.04317
862.75088	0.04136
861.46511	0.03967
860.17935	0.03823
858.89358	0.03706
857.60781	0.03607
856.32204	0.03521
855.03627	0.03447
853.75050	0.03387
852.46473	0.03344
851.17896	0.03317
849.89319	0.03299
848.60743	0.03282
847.32166	0.03258
846.03589	0.03231
844.75012	0.03209
843.46435	0.03193
842.17858	0.03175
840.89281	0.03148
839.60704	0.03113
838.32128	0.03078
837.03551	0.03045
835.74974	0.03016
834.46397	0.02994
833.17820	0.02978
831.89243	0.02964
830.60666	0.02949
829.32089	0.02933
828.03512	0.02918
826.74936	0.02902
825.46359	0.02884
824.17782	0.02869
822.89205	0.02858
821.60628	0.02852
820.32051	0.02844
819.03474	0.02832
817.74897	0.02822
816.46321	0.02820
815.17744	0.02823
813.89167	0.02824
812.60590	0.02819
811.32013	0.02811
810.03436	0.02805
808.74859	0.02798
807.46282	0.02790
806.17705	0.02779
804.89129	0.02770
803.60552	0.02765
802.31975	0.02764
801.03398	0.02759
799.74821	0.02749
798.46244	0.02738
797.17667	0.02736
795.89090	0.02746
794.60513	0.02760
793.31937	0.02764
792.03360	0.02755
790.74783	0.02738
789.46206	0.02722
788.17629	0.02709
786.89052	0.02702
785.60475	0.02698
784.31898	0.02691
783.03322	0.02679
781.74745	0.02666
780.46168	0.02662
779.17591	0.02666
777.89014	0.02671
776.60437	0.02668
775.31860	0.02657
774.03283	0.02645
772.74706	0.02635
771.46130	0.02626
770.17553	0.02618
768.88976	0.02614
767.60399	0.02613
766.31822	0.02616
765.03245	0.02620
763.74668	0.02622
762.46091	0.02623
761.17515	0.02621
759.88938	0.02620
758.60361	0.02624
757.31784	0.02635
756.03207	0.02646
754.74630	0.02649
753.46053	0.02646
752.17476	0.02644
750.88899	0.02643
749.60323	0.02639
748.31746	0.02625
747.03169	0.02604
745.74592	0.02579
744.46015	0.02557
743.17438	0.02540
741.88861	0.02531
740.60284	0.02529
739.31708	0.02531
738.03131	0.02534
736.74554	0.02538
735.45977	0.02543
734.17400	0.02547
732.88823	0.02550
731.60246	0.02546
730.31669	0.02540
729.03092	0.02537
727.74516	0.02545
726.45939	0.02562
725.17362	0.02576
723.88785	0.02579
722.60208	0.02579
721.31631	0.02579
720.03054	0.02578
718.74477	0.02581
717.45901	0.02582
716.17324	0.02580
714.88747	0.02573
713.60170	0.02562
712.31593	0.02552
711.03016	0.02544
709.74439	0.02540
708.45862	0.02538
707.17285	0.02537
705.88709	0.02535
704.60132	0.02531
703.31555	0.02527
702.02978	0.02524
700.74401	0.02522
699.45824	0.02518
698.17247	0.02511
696.88670	0.02503
695.60094	0.02499
694.31517	0.02500
693.02940	0.02503
691.74363	0.02503
690.45786	0.02499
689.17209	0.02494
687.88632	0.02487
686.60055	0.02477
685.31478	0.02463
684.02902	0.02448
682.74325	0.02434
681.45748	0.02420
680.17171	0.02408
678.88594	0.02400
677.60017	0.02396
676.31440	0.02397
675.02863	0.02399
673.74287	0.02404
672.45710	0.02412
671.17133	0.02428
669.88556	0.02445
668.59979	0.02435
667.31402	0.02448
666.02825	0.02494
664.74248	0.02485
663.45671	0.02459
662.17095	0.02433
660.88518	0.02409
659.59941	0.02389
658.31364	0.02376
657.02787	0.02368
655.74210	0.02365
654.45633	0.02366
653.17056	0.02369
651.88480	0.02371
650.59903	0.02372
649.31326	0.02372
648.02749	0.02374
646.74172	0.02380
645.45595	0.02388
644.17018	0.02395
642.88441	0.02398
641.59864	0.02398
640.31288	0.02401
639.02711	0.02408
637.74134	0.02420
636.45557	0.02437
635.16980	0.02458
633.88403	0.02482
632.59826	0.02500
631.31249	0.02495
630.02673	0.02430
628.74096	0.02340
627.45519	0.02350
626.16942	0.02239
624.88365	0.02055
623.59788	0.01924
622.31211	0.01942
621.02634	0.02138
619.74057	0.02450
618.45481	0.02792
617.16904	0.03114
615.88327	0.03385
614.59750	0.03587
613.31173	0.03752
612.02596	0.03971
610.74019	0.04309
609.45442	0.04730
608.16866	0.05135
606.88289	0.05472
605.59712	0.05765
604.31135	0.06053
603.02558	0.06328
601.73981	0.06545
600.45404	0.06662
599.16827	0.06660
597.88250	0.06550
596.59674	0.06368
595.31097	0.06165
594.02520	0.05978
592.73943	0.05818
591.45366	0.05681
590.16789	0.05571
588.88212	0.05506
587.59635	0.05499
586.31059	0.05546
585.02482	0.05632
583.73905	0.05745
582.45328	0.05878
581.16751	0.06030
579.88174	0.06196
578.59597	0.06364
577.31020	0.06528
576.02443	0.06692
574.73867	0.06865
573.45290	0.07043
572.16713	0.07216
570.88136	0.07381
569.59559	0.07554
568.30982	0.07756
567.02405	0.07991
565.73828	0.08240
564.45251	0.08466
563.16675	0.08628
561.88098	0.08703
560.59521	0.08684
559.30944	0.08574
558.02367	0.08378
556.73790	0.08100
555.45213	0.07757
554.16636	0.07377
552.88060	0.06993
551.59483	0.06627
550.30906	0.06294
549.02329	0.06004
547.73752	0.05758
546.45175	0.05542
545.16598	0.05335
543.88021	0.05129
542.59444	0.04929
541.30868	0.04751
540.02291	0.04601
538.73714	0.04472
537.45137	0.04351
536.16560	0.04235
534.87983	0.04130
533.59406	0.04043
532.30829	0.03971
531.02253	0.03903
529.73676	0.03831
528.45099	0.03756
527.16522	0.03683
525.87945	0.03610
524.59368	0.03533
523.30791	0.03451
522.02214	0.03369
520.73637	0.03296
519.45061	0.03237
518.16484	0.03190
516.87907	0.03153
515.59330	0.03122
514.30753	0.03091
513.02176	0.03054
511.73599	0.03009
510.45022	0.02959
509.16446	0.02907
507.87869	0.02853
506.59292	0.02801
505.30715	0.02756
504.02138	0.02724
502.73561	0.02701
501.44984	0.02682
500.16407	0.02660
498.87830	0.02639
497.59254	0.02620
496.30677	0.02602
495.02100	0.02581
493.73523	0.02552
492.44946	0.02519
491.16369	0.02493
489.87792	0.02476
488.59215	0.02467
487.30639	0.02461
486.02062	0.02455
484.73485	0.02449
483.44908	0.02443
482.16331	0.02440
480.87754	0.02444
479.59177	0.02458
478.30600	0.02481
477.02023	0.02506
475.73447	0.02529
474.44870	0.02547
473.16293	0.02562
471.87716	0.02573
470.59139	0.02580
469.30562	0.02582
468.01985	0.02578
466.73408	0.02566
465.44832	0.02545
464.16255	0.02518
462.87678	0.02484
461.59101	0.02449
460.30524	0.02419
459.01947	0.02398
457.73370	0.02383
456.44793	0.02366
455.16216	0.02340
453.87640	0.02303
452.59063	0.02261
451.30486	0.02219
450.01909	0.02185
448.73332	0.02162
447.44755	0.02151
446.16178	0.02146
444.87601	0.02141
443.59025	0.02130
442.30448	0.02111
441.01871	0.02088
439.73294	0.02064
438.44717	0.02045
437.16140	0.02034
435.87563	0.02031
434.58986	0.02031
433.30409	0.02031
432.01833	0.02028
430.73256	0.02021
429.44679	0.02011
428.16102	0.01998
426.87525	0.01982
425.58948	0.01963
424.30371	0.01944
423.01794	0.01927
421.73218	0.01913
420.44641	0.01901
419.16064	0.01888
417.87487	0.01873
416.58910	0.01859
415.30333	0.01849
414.01756	0.01842
412.73179	0.01836
411.44602	0.01831
410.16026	0.01826
408.87449	0.01820
407.58872	0.01813
406.30295	0.01806
405.01718	0.01801
403.73141	0.01801
402.44564	0.01806
401.15987	0.01816
399.87411	0.01825
