3997.45528	0.06629
3996.16951	0.06619
3994.88374	0.06637
3993.59798	0.06691
3992.31221	0.06734
3991.02644	0.06704
3989.74067	0.06592
3988.45490	0.06448
3987.16913	0.06331
3985.88336	0.06266
3984.59759	0.06248
3983.31183	0.06257
3982.02606	0.06274
3980.74029	0.06283
3979.45452	0.06275
3978.16875	0.06233
3976.88298	0.06145
3975.59721	0.06018
3974.31144	0.05899
3973.02567	0.05846
3971.73991	0.05882
3970.45414	0.05972
3969.16837	0.06055
3967.88260	0.06098
3966.59683	0.06118
3965.31106	0.06160
3964.02529	0.06249
3962.73952	0.06361
3961.45376	0.06432
3960.16799	0.06406
3958.88222	0.06286
3957.59645	0.06139
3956.31068	0.06043
3955.02491	0.06019
3953.73914	0.06033
3952.45337	0.06057
3951.16760	0.06093
3949.88184	0.06153
3948.59607	0.06222
3947.31030	0.06275
3946.02453	0.06308
3944.73876	0.06345
3943.45299	0.06410
3942.16722	0.06494
3940.88145	0.06549
3939.59569	0.06510
3938.30992	0.06343
3937.02415	0.06098
3935.73838	0.05888
3934.45261	0.05804
3933.16684	0.05841
3931.88107	0.05931
3930.59530	0.06025
3929.30953	0.06119
3928.02377	0.06215
3926.73800	0.06288
3925.45223	0.06306
3924.16646	0.06271
3922.88069	0.06225
3921.59492	0.06211
3920.30915	0.06223
3919.02338	0.06232
3917.73762	0.06228
3916.45185	0.06223
3915.16608	0.06228
3913.88031	0.06232
3912.59454	0.06221
3911.30877	0.06199
3910.02300	0.06179
3908.73723	0.06159
3907.45146	0.06128
3906.16570	0.06072
3904.87993	0.05988
3903.59416	0.05898
3902.30839	0.05845
3901.02262	0.05864
3899.73685	0.05942
3898.45108	0.06024
3897.16531	0.06060
3895.87955	0.06044
3894.59378	0.06006
3893.30801	0.05974
3892.02224	0.05950
3890.73647	0.05921
3889.45070	0.05902
3888.16493	0.05925
3886.87916	0.05984
3885.59339	0.06030
3884.30763	0.06047
3883.02186	0.06065
3881.73609	0.06101
3880.45032	0.06127
3879.16455	0.06114
3877.87878	0.06073
3876.59301	0.06025
3875.30724	0.05978
3874.02148	0.05938
3872.73571	0.05924
3871.44994	0.05932
3870.16417	0.05920
3868.87840	0.05856
3867.59263	0.05786
3866.30686	0.05769
3865.02109	0.05812
3863.73532	0.05887
3862.44956	0.05972
3861.16379	0.06045
3859.87802	0.06073
3858.59225	0.06027
3857.30648	0.05923
3856.02071	0.05827
3854.73494	0.05806
3853.44917	0.05853
3852.16341	0.05906
3850.87764	0.05906
3849.59187	0.05844
3848.30610	0.05763
3847.02033	0.05719
3845.73456	0.05739
3844.44879	0.05803
3843.16302	0.05864
3841.87725	0.05887
3840.59149	0.05882
3839.30572	0.05885
3838.01995	0.05910
3836.73418	0.05958
3835.44841	0.06044
3834.16264	0.06171
3832.87687	0.06289
3831.59110	0.06316
3830.30534	0.06224
3829.01957	0.06070
3827.73380	0.05934
3826.44803	0.05848
3825.16226	0.05796
3823.87649	0.05771
3822.59072	0.05760
3821.30495	0.05736
3820.01918	0.05690
3818.73342	0.05680
3817.44765	0.05751
3816.16188	0.05851
3814.87611	0.05892
3813.59034	0.05858
3812.30457	0.05796
3811.01880	0.05759
3809.73303	0.05772
3808.44726	0.05831
3807.16150	0.05892
3805.87573	0.05920
3804.58996	0.05925
3803.30419	0.05922
3802.01842	0.05887
3800.73265	0.05803
3799.44688	0.05719
3798.16111	0.05688
3796.87535	0.05680
3795.58958	0.05634
3794.30381	0.05543
3793.01804	0.05459
3791.73227	0.05417
3790.44650	0.05401
3789.16073	0.05368
3787.87496	0.05309
3786.58919	0.05265
3785.30343	0.05283
3784.01766	0.05346
3782.73189	0.05393
3781.44612	0.05384
3780.16035	0.05337
3778.87458	0.05297
3777.58881	0.05299
3776.30304	0.05360
3775.01728	0.05483
3773.73151	0.05648
3772.44574	0.05805
3771.15997	0.05887
3769.87420	0.05864
3768.58843	0.05781
3767.30266	0.05713
3766.01689	0.05691
3764.73112	0.05683
3763.44536	0.05664
3762.15959	0.05646
3760.87382	0.05645
3759.58805	0.05653
3758.30228	0.05639
3757.01651	0.05591
3755.73074	0.05543
3754.44497	0.05542
3753.15921	0.05577
3751.87344	0.05581
3750.58767	0.05513
3749.30190	0.05399
3748.01613	0.05311
3746.73036	0.05320
3745.44459	0.05412
3744.15882	0.05486
3742.87305	0.05490
3741.58729	0.05467
3740.30152	0.05457
3739.01575	0.05459
3737.72998	0.05458
3736.44421	0.05445
3735.15844	0.05419
3733.87267	0.05400
3732.58690	0.05392
3731.30114	0.05368
3730.01537	0.05315
3728.72960	0.05253
3727.44383	0.05201
3726.15806	0.05149
3724.87229	0.05094
3723.58652	0.05048
3722.30075	0.05025
3721.01498	0.05040
3719.72922	0.05099
3718.44345	0.05190
3717.15768	0.05274
3715.87191	0.05315
3714.58614	0.05315
3713.30037	0.05296
3712.01460	0.05275
3710.72883	0.05258
3709.44307	0.05245
3708.15730	0.05218
3706.87153	0.05166
3705.58576	0.05105
3704.29999	0.05070
3703.01422	0.05078
3701.72845	0.05120
3700.44268	0.05183
3699.15691	0.05256
3697.87115	0.05311
3696.58538	0.05312
3695.29961	0.05263
3694.01384	0.05208
3692.72807	0.05182
3691.44230	0.05199
3690.15653	0.05247
3688.87076	0.05295
3687.58500	0.05320
3686.29923	0.05335
3685.01346	0.05352
3683.72769	0.05355
3682.44192	0.05338
3681.15615	0.05325
3679.87038	0.05341
3678.58461	0.05388
3677.29884	0.05442
3676.01308	0.05459
3674.72731	0.05412
3673.44154	0.05325
3672.15577	0.05242
3670.87000	0.05172
3669.58423	0.05119
3668.29846	0.05117
3667.01269	0.05171
3665.72693	0.05223
3664.44116	0.05223
3663.15539	0.05197
3661.86962	0.05211
3660.58385	0.05297
3659.29808	0.05427
3658.01231	0.05533
3656.72654	0.05567
3655.44077	0.05529
3654.15501	0.05471
3652.86924	0.05423
3651.58347	0.05374
3650.29770	0.05325
3649.01193	0.05323
3647.72616	0.05406
3646.44039	0.05546
3645.15462	0.05671
3643.86886	0.05736
3642.58309	0.05735
3641.29732	0.05684
3640.01155	0.05607
3638.72578	0.05536
3637.44001	0.05495
3636.15424	0.05488
3634.86847	0.05499
3633.58270	0.05524
3632.29694	0.05589
3631.01117	0.05713
3629.72540	0.05859
3628.43963	0.05954
3627.15386	0.05970
3625.86809	0.05946
3624.58232	0.05928
3623.29655	0.05932
3622.01079	0.05955
3620.72502	0.05983
3619.43925	0.06004
3618.15348	0.06013
3616.86771	0.06011
3615.58194	0.05998
3614.29617	0.05986
3613.01040	0.05998
3611.72463	0.06056
3610.43887	0.06160
3609.15310	0.06275
3607.86733	0.06357
3606.58156	0.06380
3605.29579	0.06346
3604.01002	0.06283
3602.72425	0.06225
3601.43848	0.06186
3600.15272	0.06172
3598.86695	0.06189
3597.58118	0.06248
3596.29541	0.06323
3595.00964	0.06365
3593.72387	0.06352
3592.43810	0.06320
3591.15233	0.06331
3589.86656	0.06403
3588.58080	0.06481
3587.29503	0.06504
3586.00926	0.06477
3584.72349	0.06455
3583.43772	0.06479
3582.15195	0.06544
3580.86618	0.06619
3579.58041	0.06682
3578.29464	0.06716
3577.00888	0.06709
3575.72311	0.06666
3574.43734	0.06631
3573.15157	0.06665
3571.86580	0.06775
3570.58003	0.06888
3569.29426	0.06916
3568.00849	0.06839
3566.72273	0.06716
3565.43696	0.06627
3564.15119	0.06616
3562.86542	0.06678
3561.57965	0.06771
3560.29388	0.06852
3559.00811	0.06908
3557.72234	0.06948
3556.43657	0.06974
3555.15081	0.06970
3553.86504	0.06933
3552.57927	0.06885
3551.29350	0.06836
3550.00773	0.06782
3548.72196	0.06729
3547.43619	0.06716
3546.15042	0.06782
3544.86466	0.06924
3543.57889	0.07088
3542.29312	0.07212
3541.00735	0.07272
3539.72158	0.07288
3538.43581	0.07290
3537.15004	0.07284
3535.86427	0.07263
3534.57850	0.07235
3533.29274	0.07221
3532.00697	0.07240
3530.72120	0.07289
3529.43543	0.07353
3528.14966	0.07417
3526.86389	0.07470
3525.57812	0.07499
3524.29235	0.07486
3523.00659	0.07435
3521.72082	0.07379
3520.43505	0.07364
3519.14928	0.07405
3517.86351	0.07473
3516.57774	0.07532
3515.29197	0.07564
3514.00620	0.07566
3512.72043	0.07546
3511.43467	0.07525
3510.14890	0.07531
3508.86313	0.07577
3507.57736	0.07631
3506.29159	0.07641
3505.00582	0.07590
3503.72005	0.07524
3502.43428	0.07505
3501.14852	0.07548
3499.86275	0.07611
3498.57698	0.07649
3497.29121	0.07664
3496.00544	0.07673
3494.71967	0.07675
3493.43390	0.07651
3492.14813	0.07603
3490.86236	0.07562
3489.57660	0.07568
3488.29083	0.07626
3487.00506	0.07703
3485.71929	0.07762
3484.43352	0.07799
3483.14775	0.07837
3481.86198	0.07888
3480.57621	0.07938
3479.29045	0.07977
3478.00468	0.08009
3476.71891	0.08039
3475.43314	0.08048
3474.14737	0.08016
3472.86160	0.07956
3471.57583	0.07906
3470.29006	0.07901
3469.00429	0.07947
3467.71853	0.08022
3466.43276	0.08093
3465.14699	0.08140
3463.86122	0.08159
3462.57545	0.08157
3461.28968	0.08139
3460.00391	0.08110
3458.71814	0.08082
3457.43238	0.08079
3456.14661	0.08113
3454.86084	0.08172
3453.57507	0.08234
3452.28930	0.08288
3451.00353	0.08332
3449.71776	0.08354
3448.43199	0.08331
3447.14622	0.08253
3445.86046	0.08148
3444.57469	0.08076
3443.28892	0.08077
3442.00315	0.08140
3440.71738	0.08230
3439.43161	0.08318
3438.14584	0.08391
3436.86007	0.08435
3435.57431	0.08434
3434.28854	0.08390
3433.00277	0.08338
3431.71700	0.08319
3430.43123	0.08349
3429.14546	0.08411
3427.85969	0.08476
3426.57392	0.08514
3425.28815	0.08515
3424.00239	0.08483
3422.71662	0.08435
3421.43085	0.08392
3420.14508	0.08383
3418.85931	0.08433
3417.57354	0.08535
3416.28777	0.08641
3415.00200	0.08690
3413.71624	0.08652
3412.43047	0.08551
3411.14470	0.08442
3409.85893	0.08367
3408.57316	0.08337
3407.28739	0.08338
3406.00162	0.08367
3404.71585	0.08425
3403.43008	0.08502
3402.14432	0.08564
3400.85855	0.08580
3399.57278	0.08551
3398.28701	0.08501
3397.00124	0.08461
3395.71547	0.08444
3394.42970	0.08453
3393.14393	0.08482
3391.85817	0.08515
3390.57240	0.08535
3389.28663	0.08545
3388.00086	0.08561
3386.71509	0.08596
3385.42932	0.08641
3384.14355	0.08677
3382.85778	0.08690
3381.57201	0.08678
3380.28625	0.08655
3379.00048	0.08646
3377.71471	0.08669
3376.42894	0.08711
3375.14317	0.08738
3373.85740	0.08719
3372.57163	0.08653
3371.28586	0.08570
3370.00010	0.08508
3368.71433	0.08488
3367.42856	0.08501
3366.14279	0.08529
3364.85702	0.08568
3363.57125	0.08621
3362.28548	0.08677
3360.99971	0.08710
3359.71394	0.08707
3358.42818	0.08692
3357.14241	0.08699
3355.85664	0.08738
3354.57087	0.08789
3353.28510	0.08822
3351.99933	0.08819
3350.71356	0.08779
3349.42779	0.08719
3348.14202	0.08654
3346.85626	0.08589
3345.57049	0.08528
3344.28472	0.08489
3342.99895	0.08500
3341.71318	0.08563
3340.42741	0.08647
3339.14164	0.08709
3337.85587	0.08730
3336.57011	0.08715
3335.28434	0.08678
3333.99857	0.08631
3332.71280	0.08581
3331.42703	0.08538
3330.14126	0.08513
3328.85549	0.08507
3327.56972	0.08507
3326.28395	0.08499
3324.99819	0.08476
3323.71242	0.08446
3322.42665	0.08423
3321.14088	0.08419
3319.85511	0.08424
3318.56934	0.08415
3317.28357	0.08381
3315.99780	0.08351
3314.71204	0.08360
3313.42627	0.08411
3312.14050	0.08469
3310.85473	0.08503
3309.56896	0.08511
3308.28319	0.08509
3306.99742	0.08504
3305.71165	0.08481
3304.42588	0.08425
3303.14012	0.08351
3301.85435	0.08306
3300.56858	0.08333
3299.28281	0.08424
3297.99704	0.08517
3296.71127	0.08550
3295.42550	0.08510
3294.13973	0.08424
3292.85397	0.08331
3291.56820	0.08259
3290.28243	0.08230
3288.99666	0.08252
3287.71089	0.08314
3286.42512	0.08383
3285.13935	0.08427
3283.85358	0.08438
3282.56781	0.08430
3281.28205	0.08426
3279.99628	0.08435
3278.71051	0.08449
3277.42474	0.08448
3276.13897	0.08423
3274.85320	0.08382
3273.56743	0.08339
3272.28166	0.08299
3270.99590	0.08268
3269.71013	0.08249
3268.42436	0.08239
3267.13859	0.08231
3265.85282	0.08227
3264.56705	0.08246
3263.28128	0.08293
3261.99551	0.08342
3260.70974	0.08360
3259.42398	0.08332
3258.13821	0.08277
3256.85244	0.08226
3255.56667	0.08203
3254.28090	0.08211
3252.99513	0.08239
3251.70936	0.08261
3250.42359	0.08257
3249.13783	0.08220
3247.85206	0.08160
3246.56629	0.08100
3245.28052	0.08069
3243.99475	0.08087
3242.70898	0.08149
3241.42321	0.08226
3240.13744	0.08271
3238.85167	0.08254
3237.56591	0.08183
3236.28014	0.08098
3234.99437	0.08041
3233.70860	0.08028
3232.42283	0.08044
3231.13706	0.08062
3229.85129	0.08067
3228.56552	0.08065
3227.27976	0.08073
3225.99399	0.08089
3224.70822	0.08102
3223.42245	0.08110
3222.13668	0.08132
3220.85091	0.08181
3219.56514	0.08236
3218.27937	0.08254
3216.99360	0.08219
3215.70784	0.08151
3214.42207	0.08075
3213.13630	0.08004
3211.85053	0.07950
3210.56476	0.07928
3209.27899	0.07934
3207.99322	0.07938
3206.70745	0.07911
3205.42169	0.07856
3204.13592	0.07805
3202.85015	0.07785
3201.56438	0.07798
3200.27861	0.07831
3198.99284	0.07865
3197.70707	0.07890
3196.42130	0.07897
3195.13553	0.07880
3193.84977	0.07834
3192.56400	0.07769
3191.27823	0.07709
3189.99246	0.07677
3188.70669	0.07675
3187.42092	0.07688
3186.13515	0.07704
3184.84938	0.07721
3183.56362	0.07739
3182.27785	0.07754
3180.99208	0.07754
3179.70631	0.07731
3178.42054	0.07681
3177.13477	0.07618
3175.84900	0.07569
3174.56323	0.07561
3173.27746	0.07592
3171.99170	0.07635
3170.70593	0.07660
3169.42016	0.07659
3168.13439	0.07646
3166.84862	0.07634
3165.56285	0.07627
3164.27708	0.07618
3162.99131	0.07600
3161.70555	0.07570
3160.41978	0.07534
3159.13401	0.07504
3157.84824	0.07488
3156.56247	0.07484
3155.27670	0.07483
3153.99093	0.07481
3152.70516	0.07479
3151.41939	0.07475
3150.13363	0.07464
3148.84786	0.07450
3147.56209	0.07447
3146.27632	0.07455
3144.99055	0.07454
3143.70478	0.07420
3142.41901	0.07355
3141.13324	0.07288
3139.84748	0.07249
3138.56171	0.07251
3137.27594	0.07281
3135.99017	0.07316
3134.70440	0.07343
3133.41863	0.07361
3132.13286	0.07370
3130.84709	0.07364
3129.56132	0.07332
3128.27556	0.07268
3126.98979	0.07184
3125.70402	0.07112
3124.41825	0.07080
3123.13248	0.07089
3121.84671	0.07113
3120.56094	0.07120
3119.27517	0.07097
3117.98940	0.07062
3116.70364	0.07038
3115.41787	0.07038
3114.13210	0.07061
3112.84633	0.07098
3111.56056	0.07122
3110.27479	0.07106
3108.98902	0.07046
3107.70325	0.06973
3106.41749	0.06931
3105.13172	0.06937
3103.84595	0.06972
3102.56018	0.07005
3101.27441	0.07010
3099.98864	0.06980
3098.70287	0.06930
3097.41710	0.06888
3096.13133	0.06872
3094.84557	0.06874
3093.55980	0.06870
3092.27403	0.06848
3090.98826	0.06829
3089.70249	0.06846
3088.41672	0.06905
3087.13095	0.06977
3085.84518	0.07018
3084.55942	0.07012
3083.27365	0.06970
3081.98788	0.06915
3080.70211	0.06861
3079.41634	0.06812
3078.13057	0.06769
3076.84480	0.06740
3075.55903	0.06730
3074.27326	0.06740
3072.98750	0.06758
3071.70173	0.06765
3070.41596	0.06750
3069.13019	0.06724
3067.84442	0.06705
3066.55865	0.06699
3065.27288	0.06689
3063.98711	0.06658
3062.70135	0.06608
3061.41558	0.06563
3060.12981	0.06539
3058.84404	0.06540
3057.55827	0.06556
3056.27250	0.06576
3054.98673	0.06583
3053.70096	0.06568
3052.41519	0.06532
3051.12943	0.06488
3049.84366	0.06455
3048.55789	0.06456
3047.27212	0.06501
3045.98635	0.06577
3044.70058	0.06648
3043.41481	0.06677
3042.12904	0.06655
3040.84328	0.06610
3039.55751	0.06574
3038.27174	0.06552
3036.98597	0.06525
3035.70020	0.06476
3034.41443	0.06414
3033.12866	0.06359
3031.84289	0.06325
3030.55712	0.06311
3029.27136	0.06311
3027.98559	0.06317
3026.69982	0.06324
3025.41405	0.06326
3024.12828	0.06314
3022.84251	0.06286
3021.55674	0.06251
3020.27097	0.06221
3018.98521	0.06202
3017.69944	0.06195
3016.41367	0.06200
3015.12790	0.06212
3013.84213	0.06219
3012.55636	0.06210
3011.27059	0.06187
3009.98482	0.06162
3008.69905	0.06150
3007.41329	0.06157
3006.12752	0.06172
3004.84175	0.06183
3003.55598	0.06185
3002.27021	0.06182
3000.98444	0.06180
2999.69867	0.06177
2998.41290	0.06166
2997.12714	0.06145
2995.84137	0.06120
2994.55560	0.06093
2993.26983	0.06059
2991.98406	0.06021
2990.69829	0.05993
2989.41252	0.05987
2988.12675	0.06000
2986.84098	0.06018
2985.55522	0.06037
2984.26945	0.06065
2982.98368	0.06104
2981.69791	0.06147
2980.41214	0.06182
2979.12637	0.06210
2977.84060	0.06239
2976.55483	0.06268
2975.26907	0.06285
2973.98330	0.06281
2972.69753	0.06267
2971.41176	0.06273
2970.12599	0.06318
2968.84022	0.06388
2967.55445	0.06455
2966.26868	0.06510
2964.98291	0.06567
2963.69715	0.06631
2962.41138	0.06685
2961.12561	0.06712
2959.83984	0.06717
2958.55407	0.06727
2957.26830	0.06767
2955.98253	0.06833
2954.69676	0.06896
2953.41100	0.06924
2952.12523	0.06912
2950.83946	0.06881
2949.55369	0.06860
2948.26792	0.06853
2946.98215	0.06842
2945.69638	0.06816
2944.41061	0.06790
2943.12484	0.06783
2941.83908	0.06798
2940.55331	0.06830
2939.26754	0.06869
2937.98177	0.06910
2936.69600	0.06947
2935.41023	0.06973
2934.12446	0.06997
2932.83869	0.07026
2931.55293	0.07057
2930.26716	0.07078
2928.98139	0.07086
2927.69562	0.07094
2926.40985	0.07111
2925.12408	0.07134
2923.83831	0.07141
2922.55254	0.07119
2921.26677	0.07074
2919.98101	0.07029
2918.69524	0.06993
2917.40947	0.06961
2916.12370	0.06928
2914.83793	0.06896
2913.55216	0.06866
2912.26639	0.06825
2910.98062	0.06763
2909.69486	0.06687
2908.40909	0.06615
2907.12332	0.06559
2905.83755	0.06519
2904.55178	0.06479
2903.26601	0.06426
2901.98024	0.06361
2900.69447	0.06309
2899.40870	0.06283
2898.12294	0.06271
2896.83717	0.06242
2895.55140	0.06185
2894.26563	0.06110
2892.97986	0.06035
2891.69409	0.05979
2890.40832	0.05955
2889.12255	0.05967
2887.83678	0.05994
2886.55102	0.06009
2885.26525	0.06002
2883.97948	0.05987
2882.69371	0.05980
2881.40794	0.05987
2880.12217	0.06005
2878.83640	0.06032
2877.55063	0.06055
2876.26487	0.06065
2874.97910	0.06057
2873.69333	0.06043
2872.40756	0.06033
2871.12179	0.06029
2869.83602	0.06028
2868.55025	0.06027
2867.26448	0.06023
2865.97871	0.06006
2864.69295	0.05976
2863.40718	0.05949
2862.12141	0.05947
2860.83564	0.05969
2859.54987	0.05998
2858.26410	0.06015
2856.97833	0.06014
2855.69256	0.05995
2854.40680	0.05961
2853.12103	0.05915
2851.83526	0.05865
2850.54949	0.05812
2849.26372	0.05756
2847.97795	0.05695
2846.69218	0.05636
2845.40641	0.05583
2844.12064	0.05538
2842.83488	0.05502
2841.54911	0.05472
2840.26334	0.05437
2838.97757	0.05381
2837.69180	0.05302
2836.40603	0.05226
2835.12026	0.05182
2833.83449	0.05178
2832.54873	0.05195
2831.26296	0.05204
2829.97719	0.05187
2828.69142	0.05151
2827.40565	0.05114
2826.11988	0.05086
2824.83411	0.05066
2823.54834	0.05044
2822.26257	0.05015
2820.97681	0.04986
2819.69104	0.04968
2818.40527	0.04964
2817.11950	0.04963
2815.83373	0.04953
2814.54796	0.04930
2813.26219	0.04902
2811.97642	0.04879
2810.69066	0.04869
2809.40489	0.04874
2808.11912	0.04888
2806.83335	0.04890
2805.54758	0.04871
2804.26181	0.04840
2802.97604	0.04813
2801.69027	0.04801
2800.40450	0.04802
2799.11874	0.04809
2797.83297	0.04816
2796.54720	0.04815
2795.26143	0.04799
2793.97566	0.04771
2792.68989	0.04741
2791.40412	0.04721
2790.11835	0.04709
2788.83259	0.04699
2787.54682	0.04684
2786.26105	0.04662
2784.97528	0.04638
2783.68951	0.04619
2782.40374	0.04612
2781.11797	0.04614
2779.83220	0.04613
2778.54643	0.04604
2777.26067	0.04601
2775.97490	0.04613
2774.68913	0.04631
2773.40336	0.04632
2772.11759	0.04609
2770.83182	0.04576
2769.54605	0.04551
2768.26028	0.04533
2766.97452	0.04511
2765.68875	0.04474
2764.40298	0.04434
2763.11721	0.04414
2761.83144	0.04429
2760.54567	0.04466
2759.25990	0.04496
2757.97413	0.04499
2756.68836	0.04480
2755.40260	0.04459
2754.11683	0.04447
2752.83106	0.04439
2751.54529	0.04429
2750.25952	0.04423
2748.97375	0.04431
2747.68798	0.04447
2746.40221	0.04453
2745.11645	0.04438
2743.83068	0.04414
2742.54491	0.04399
2741.25914	0.04402
2739.97337	0.04417
2738.68760	0.04433
2737.40183	0.04441
2736.11606	0.04437
2734.83029	0.04421
2733.54453	0.04401
2732.25876	0.04393
2730.97299	0.04402
2729.68722	0.04420
2728.40145	0.04428
2727.11568	0.04411
2725.82991	0.04371
2724.54414	0.04321
2723.25838	0.04272
2721.97261	0.04227
2720.68684	0.04188
2719.40107	0.04162
2718.11530	0.04161
2716.82953	0.04186
2715.54376	0.04221
2714.25799	0.04240
2712.97222	0.04233
2711.68646	0.04205
2710.40069	0.04177
2709.11492	0.04166
2707.82915	0.04173
2706.54338	0.04184
2705.25761	0.04191
2703.97184	0.04196
2702.68607	0.04201
2701.40031	0.04199
2700.11454	0.04177
2698.82877	0.04139
2697.54300	0.04103
2696.25723	0.04083
2694.97146	0.04081
2693.68569	0.04086
2692.39992	0.04085
2691.11415	0.04070
2689.82839	0.04049
2688.54262	0.04036
2687.25685	0.04036
2685.97108	0.04048
2684.68531	0.04066
2683.39954	0.04085
2682.11377	0.04101
2680.82800	0.04109
2679.54224	0.04107
2678.25647	0.04093
2676.97070	0.04069
2675.68493	0.04043
2674.39916	0.04029
2673.11339	0.04033
2671.82762	0.04045
2670.54185	0.04058
2669.25608	0.04067
2667.97032	0.04073
2666.68455	0.04074
2665.39878	0.04063
2664.11301	0.04037
2662.82724	0.04003
2661.54147	0.03982
2660.25570	0.03989
2658.96993	0.04018
2657.68417	0.04042
2656.39840	0.04041
2655.11263	0.04015
2653.82686	0.03976
2652.54109	0.03938
2651.25532	0.03913
2649.96955	0.03906
2648.68378	0.03913
2647.39801	0.03913
2646.11225	0.03890
2644.82648	0.03848
2643.54071	0.03814
2642.25494	0.03813
2640.96917	0.03844
2639.68340	0.03879
2638.39763	0.03891
2637.11186	0.03872
2635.82609	0.03831
2634.54033	0.03782
2633.25456	0.03732
2631.96879	0.03691
2630.68302	0.03669
2629.39725	0.03664
2628.11148	0.03656
2626.82571	0.03626
2625.53994	0.03578
2624.25418	0.03534
2622.96841	0.03508
2621.68264	0.03498
2620.39687	0.03499
2619.11110	0.03506
2617.82533	0.03512
2616.53956	0.03512
2615.25379	0.03503
2613.96802	0.03485
2612.68226	0.03466
2611.39649	0.03454
2610.11072	0.03451
2608.82495	0.03453
2607.53918	0.03453
2606.25341	0.03454
2604.96764	0.03454
2603.68187	0.03454
2602.39611	0.03458
2601.11034	0.03466
2599.82457	0.03470
2598.53880	0.03460
2597.25303	0.03434
2595.96726	0.03400
2594.68149	0.03372
2593.39572	0.03362
2592.10995	0.03375
2590.82419	0.03399
2589.53842	0.03411
2588.25265	0.03394
2586.96688	0.03352
2585.68111	0.03306
2584.39534	0.03275
2583.10957	0.03260
2581.82380	0.03250
2580.53804	0.03238
2579.25227	0.03227
2577.96650	0.03223
2576.68073	0.03224
2575.39496	0.03223
2574.10919	0.03218
2572.82342	0.03214
2571.53765	0.03205
2570.25188	0.03191
2568.96612	0.03187
2567.68035	0.03211
2566.39458	0.03257
2565.10881	0.03299
2563.82304	0.03316
2562.53727	0.03306
2561.25150	0.03277
2559.96573	0.03242
2558.67997	0.03208
2557.39420	0.03184
2556.10843	0.03180
2554.82266	0.03204
2553.53689	0.03251
2552.25112	0.03297
2550.96535	0.03314
2549.67958	0.03298
2548.39381	0.03266
2547.10805	0.03241
2545.82228	0.03237
2544.53651	0.03251
2543.25074	0.03264
2541.96497	0.03250
2540.67920	0.03201
2539.39343	0.03143
2538.10766	0.03109
2536.82190	0.03115
2535.53613	0.03145
2534.25036	0.03169
2532.96459	0.03169
2531.67882	0.03149
2530.39305	0.03123
2529.10728	0.03097
2527.82151	0.03069
2526.53574	0.03038
2525.24998	0.03012
2523.96421	0.03003
2522.67844	0.03017
2521.39267	0.03037
2520.10690	0.03042
2518.82113	0.03026
2517.53536	0.03010
2516.24959	0.03012
2514.96383	0.03023
2513.67806	0.03026
2512.39229	0.03020
2511.10652	0.03024
2509.82075	0.03045
2508.53498	0.03067
2507.24921	0.03068
2505.96344	0.03045
2504.67767	0.03021
2503.39191	0.03016
2502.10614	0.03021
2500.82037	0.03005
2499.53460	0.02961
2498.24883	0.02917
2496.96306	0.02897
2495.67729	0.02895
2494.39152	0.02890
2493.10576	0.02873
2491.81999	0.02853
2490.53422	0.02839
2489.24845	0.02835
2487.96268	0.02853
2486.67691	0.02905
2485.39114	0.02981
2484.10537	0.03048
2482.81960	0.03078
2481.53384	0.03084
2480.24807	0.03087
2478.96230	0.03076
2477.67653	0.03032
2476.39076	0.02967
2475.10499	0.02920
2473.81922	0.02910
2472.53345	0.02919
2471.24769	0.02927
2469.96192	0.02934
2468.67615	0.02943
2467.39038	0.02951
2466.10461	0.02946
2464.81884	0.02923
2463.53307	0.02889
2462.24730	0.02861
2460.96153	0.02857
2459.67577	0.02882
2458.39000	0.02927
2457.10423	0.02965
2455.81846	0.02974
2454.53269	0.02953
2453.24692	0.02919
2451.96115	0.02881
2450.67538	0.02838
2449.38962	0.02802
2448.10385	0.02795
2446.81808	0.02826
2445.53231	0.02868
2444.24654	0.02876
2442.96077	0.02836
2441.67500	0.02773
2440.38923	0.02730
2439.10346	0.02729
2437.81770	0.02752
2436.53193	0.02766
2435.24616	0.02761
2433.96039	0.02751
2432.67462	0.02749
2431.38885	0.02744
2430.10308	0.02718
2428.81731	0.02670
2427.53155	0.02628
2426.24578	0.02612
2424.96001	0.02621
2423.67424	0.02640
2422.38847	0.02670
2421.10270	0.02712
2419.81693	0.02754
2418.53116	0.02781
2417.24539	0.02798
2415.95963	0.02818
2414.67386	0.02835
2413.38809	0.02823
2412.10232	0.02773
2410.81655	0.02708
2409.53078	0.02656
2408.24501	0.02631
2406.95924	0.02625
2405.67347	0.02628
2404.38771	0.02632
2403.10194	0.02641
2401.81617	0.02661
2400.53040	0.02690
2399.24463	0.02723
2397.95886	0.02739
2396.67309	0.02743
2395.38732	0.02748
2394.10156	0.02762
2392.81579	0.02778
2391.53002	0.02787
2390.24425	0.02779
2388.95848	0.02757
2387.67271	0.02728
2386.38694	0.02703
2385.10117	0.02685
2383.81540	0.02672
2382.52964	0.02663
2381.24387	0.02658
2379.95810	0.02658
2378.67233	0.02655
2377.38656	0.02636
2376.10079	0.02602
2374.81502	0.02574
2373.52925	0.02571
2372.24349	0.02593
2370.95772	0.02614
2369.67195	0.02619
2368.38618	0.02595
2367.10041	0.02543
2365.81464	0.02479
2364.52887	0.02441
2363.24310	0.02443
2361.95733	0.02474
2360.67157	0.02508
2359.38580	0.02538
2358.10003	0.02549
2356.81426	0.02541
2355.52849	0.02522
2354.24272	0.02500
2352.95695	0.02489
2351.67118	0.02487
2350.38542	0.02485
2349.09965	0.02489
2347.81388	0.02505
2346.52811	0.02516
2345.24234	0.02524
2343.95657	0.02544
2342.67080	0.02576
2341.38503	0.02585
2340.09926	0.02568
2338.81350	0.02571
2337.52773	0.02598
2336.24196	0.02597
2334.95619	0.02564
2333.67042	0.02547
2332.38465	0.02555
2331.09888	0.02523
2329.81311	0.02481
2328.52735	0.02493
2327.24158	0.02489
2325.95581	0.02492
2324.67004	0.02554
2323.38427	0.02581
2322.09850	0.02558
2320.81273	0.02574
2319.52696	0.02582
2318.24119	0.02596
2316.95543	0.02648
2315.66966	0.02671
2314.38389	0.02661
2313.09812	0.02643
2311.81235	0.02604
2310.52658	0.02590
2309.24081	0.02600
2307.95504	0.02617
2306.66928	0.02642
2305.38351	0.02646
2304.09774	0.02636
2302.81197	0.02627
2301.52620	0.02621
2300.24043	0.02622
2298.95466	0.02608
2297.66889	0.02570
2296.38312	0.02508
2295.09736	0.02442
2293.81159	0.02399
2292.52582	0.02389
2291.24005	0.02399
2289.95428	0.02398
2288.66851	0.02377
2287.38274	0.02353
2286.09697	0.02348
2284.81121	0.02364
2283.52544	0.02386
2282.23967	0.02402
2280.95390	0.02412
2279.66813	0.02422
2278.38236	0.02432
2277.09659	0.02432
2275.81082	0.02407
2274.52505	0.02352
2273.23929	0.02282
2271.95352	0.02216
2270.66775	0.02171
2269.38198	0.02158
2268.09621	0.02185
2266.81044	0.02244
2265.52467	0.02304
2264.23890	0.02325
2262.95314	0.02297
2261.66737	0.02244
2260.38160	0.02195
2259.09583	0.02155
2257.81006	0.02119
2256.52429	0.02081
2255.23852	0.02038
2253.95275	0.01984
2252.66698	0.01916
2251.38122	0.01859
2250.09545	0.01854
2248.80968	0.01914
2247.52391	0.01955
2246.23814	0.01969
2244.95237	0.01949
2243.66660	0.01911
2242.38083	0.01873
2241.09507	0.01848
2239.80930	0.01852
2238.52353	0.01900
2237.23776	0.01976
2235.95199	0.02031
2234.66622	0.02023
2233.38045	0.01962
2232.09468	0.01900
2230.80891	0.01871
2229.52315	0.01864
2228.23738	0.01840
2226.95161	0.01774
2225.66584	0.01680
2224.38007	0.01599
2223.09430	0.01562
2221.80853	0.01569
2220.52276	0.01597
2219.23700	0.01623
2217.95123	0.01638
2216.66546	0.01637
2215.37969	0.01593
2214.09392	0.01487
2212.80815	0.01354
2211.52238	0.01272
2210.23661	0.01291
2208.95084	0.01381
2207.66508	0.01468
2206.37931	0.01507
2205.09354	0.01516
2203.80777	0.01545
2202.52200	0.01611
2201.23623	0.01669
2199.95046	0.01665
2198.66469	0.01599
2197.37893	0.01539
2196.09316	0.01543
2194.80739	0.01608
2193.52162	0.01677
2192.23585	0.01701
2190.95008	0.01666
2189.66431	0.01594
2188.37854	0.01536
2187.09277	0.01543
2185.80701	0.01612
2184.52124	0.01670
2183.23547	0.01652
2181.94970	0.01579
2180.66393	0.01524
2179.37816	0.01515
2178.09239	0.01511
2176.80662	0.01471
2175.52085	0.01406
2174.23509	0.01351
2172.94932	0.01332
2171.66355	0.01360
2170.37778	0.01421
2169.09201	0.01466
2167.80624	0.01445
2166.52047	0.01355
2165.23470	0.01236
2163.94894	0.01113
2162.66317	0.00979
2161.37740	0.00830
2160.09163	0.00698
2158.80586	0.00640
2157.52009	0.00676
2156.23432	0.00768
2154.94855	0.00866
2153.66278	0.00947
2152.37702	0.01009
2151.09125	0.01040
2149.80548	0.01025
2148.51971	0.00986
2147.23394	0.00981
2145.94817	0.01058
2144.66240	0.01195
2143.37663	0.01318
2142.09087	0.01370
2140.80510	0.01365
2139.51933	0.01357
2138.23356	0.01370
2136.94779	0.01376
2135.66202	0.01353
2134.37625	0.01324
2133.09048	0.01315
2131.80471	0.01320
2130.51895	0.01311
2129.23318	0.01279
2127.94741	0.01243
2126.66164	0.01235
2125.37587	0.01283
2124.09010	0.01383
2122.80433	0.01504
2121.51856	0.01600
2120.23280	0.01633
2118.94703	0.01594
2117.66126	0.01512
2116.37549	0.01448
2115.08972	0.01443
2113.80395	0.01467
2112.51818	0.01463
2111.23241	0.01417
2109.94664	0.01374
2108.66088	0.01379
2107.37511	0.01427
2106.08934	0.01478
2104.80357	0.01502
2103.51780	0.01503
2102.23203	0.01492
2100.94626	0.01470
2099.66049	0.01468
2098.37473	0.01440
2097.08896	0.01416
2095.80319	0.01428
2094.51742	0.01465
2093.23165	0.01496
2091.94588	0.01501
2090.66011	0.01482
2089.37434	0.01454
2088.08857	0.01426
2086.80281	0.01392
2085.51704	0.01350
2084.23127	0.01311
2082.94550	0.01303
2081.65973	0.01329
2080.37396	0.01366
2079.08819	0.01387
2077.80242	0.01392
2076.51666	0.01400
2075.23089	0.01409
2073.94512	0.01386
2072.65935	0.01313
2071.37358	0.01219
2070.08781	0.01165
2068.80204	0.01184
2067.51627	0.01239
2066.23050	0.01270
2064.94474	0.01250
2063.65897	0.01203
2062.37320	0.01160
2061.08743	0.01120
2059.80166	0.01063
2058.51589	0.00977
2057.23012	0.00869
2055.94435	0.00766
2054.65859	0.00702
2053.37282	0.00718
2052.08705	0.00826
2050.80128	0.00983
2049.51551	0.01107
2048.22974	0.01131
2046.94397	0.01054
2045.65820	0.00935
2044.37243	0.00852
2043.08667	0.00842
2041.80090	0.00885
2040.51513	0.00927
2039.22936	0.00931
2037.94359	0.00911
2036.65782	0.00909
2035.37205	0.00933
2034.08628	0.00946
2032.80052	0.00903
2031.51475	0.00801
2030.22898	0.00679
2028.94321	0.00574
2027.65744	0.00486
2026.37167	0.00407
2025.08590	0.00353
2023.80013	0.00356
2022.51436	0.00422
2021.22860	0.00521
2019.94283	0.00616
2018.65706	0.00681
2017.37129	0.00703
2016.08552	0.00690
2014.79975	0.00669
2013.51398	0.00672
2012.22821	0.00702
2010.94245	0.00741
2009.65668	0.00769
2008.37091	0.00786
2007.08514	0.00806
2005.79937	0.00844
2004.51360	0.00906
2003.22783	0.00979
2001.94206	0.01037
2000.65629	0.01073
1999.37053	0.01094
1998.08476	0.01109
1996.79899	0.01121
1995.51322	0.01128
1994.22745	0.01126
1992.94168	0.01105
1991.65591	0.01064
1990.37014	0.01032
1989.08438	0.01046
1987.79861	0.01103
1986.51284	0.01155
1985.22707	0.01158
1983.94130	0.01113
1982.65553	0.01061
1981.36976	0.01042
1980.08399	0.01070
1978.79822	0.01132
1977.51246	0.01201
1976.22669	0.01240
1974.94092	0.01226
1973.65515	0.01180
1972.36938	0.01145
1971.08361	0.01151
1969.79784	0.01181
1968.51207	0.01208
1967.22631	0.01235
1965.94054	0.01277
1964.65477	0.01316
1963.36900	0.01302
1962.08323	0.01211
1960.79746	0.01079
1959.51169	0.00969
1958.22592	0.00924
1956.94015	0.00944
1955.65439	0.01001
1954.36862	0.01059
1953.08285	0.01099
1951.79708	0.01123
1950.51131	0.01147
1949.22554	0.01178
1947.93977	0.01225
1946.65400	0.01295
1945.36823	0.01390
1944.08247	0.01494
1942.79670	0.01566
1941.51093	0.01574
1940.22516	0.01527
1938.93939	0.01463
1937.65362	0.01424
1936.36785	0.01427
1935.08208	0.01461
1933.79632	0.01504
1932.51055	0.01530
1931.22478	0.01524
1929.93901	0.01487
1928.65324	0.01433
1927.36747	0.01378
1926.08170	0.01333
1924.79593	0.01298
1923.51016	0.01278
1922.22440	0.01280
1920.93863	0.01304
1919.65286	0.01338
1918.36709	0.01370
1917.08132	0.01398
1915.79555	0.01429
1914.50978	0.01460
1913.22401	0.01480
1911.93825	0.01478
1910.65248	0.01457
1909.36671	0.01430
1908.08094	0.01411
1906.79517	0.01407
1905.50940	0.01416
1904.22363	0.01421
1902.93786	0.01421
1901.65209	0.01427
1900.36633	0.01453
1899.08056	0.01489
1897.79479	0.01515
1896.50902	0.01517
1895.22325	0.01496
1893.93748	0.01460
1892.65171	0.01414
1891.36594	0.01373
1890.08018	0.01357
1888.79441	0.01370
1887.50864	0.01403
1886.22287	0.01437
1884.93710	0.01455
1883.65133	0.01458
1882.36556	0.01461
1881.07979	0.01474
1879.79402	0.01496
1878.50826	0.01513
1877.22249	0.01518
1875.93672	0.01517
1874.65095	0.01516
1873.36518	0.01516
1872.07941	0.01511
1870.79364	0.01501
1869.50787	0.01489
1868.22211	0.01480
1866.93634	0.01478
1865.65057	0.01482
1864.36480	0.01483
1863.07903	0.01474
1861.79326	0.01458
1860.50749	0.01452
1859.22172	0.01470
1857.93595	0.01503
1856.65019	0.01524
1855.36442	0.01519
1854.07865	0.01495
1852.79288	0.01476
1851.50711	0.01470
1850.22134	0.01472
1848.93557	0.01471
1847.64980	0.01471
1846.36404	0.01482
1845.07827	0.01502
1843.79250	0.01520
1842.50673	0.01528
1841.22096	0.01527
1839.93519	0.01519
1838.64942	0.01508
1837.36365	0.01496
1836.07788	0.01484
1834.79212	0.01469
1833.50635	0.01453
1832.22058	0.01446
1830.93481	0.01454
1829.64904	0.01468
1828.36327	0.01474
1827.07750	0.01473
1825.79173	0.01470
1824.50597	0.01466
1823.22020	0.01466
1821.93443	0.01477
1820.64866	0.01499
1819.36289	0.01527
1818.07712	0.01549
1816.79135	0.01556
1815.50558	0.01548
1814.21981	0.01534
1812.93405	0.01523
1811.64828	0.01516
1810.36251	0.01510
1809.07674	0.01504
1807.79097	0.01505
1806.50520	0.01515
1805.21943	0.01532
1803.93366	0.01547
1802.64790	0.01554
1801.36213	0.01553
1800.07636	0.01551
1798.79059	0.01554
1797.50482	0.01561
1796.21905	0.01565
1794.93328	0.01562
1793.64751	0.01554
1792.36174	0.01544
1791.07598	0.01536
1789.79021	0.01536
1788.50444	0.01545
1787.21867	0.01557
1785.93290	0.01562
1784.64713	0.01556
1783.36136	0.01544
1782.07559	0.01542
1780.78983	0.01557
1779.50406	0.01582
1778.21829	0.01602
1776.93252	0.01608
1775.64675	0.01606
1774.36098	0.01605
1773.07521	0.01609
1771.78944	0.01613
1770.50367	0.01618
1769.21791	0.01626
1767.93214	0.01632
1766.64637	0.01631
1765.36060	0.01635
1764.07483	0.01650
1762.78906	0.01664
1761.50329	0.01665
1760.21752	0.01658
1758.93176	0.01660
1757.64599	0.01678
1756.36022	0.01700
1755.07445	0.01715
1753.78868	0.01725
1752.50291	0.01734
1751.21714	0.01738
1749.93137	0.01741
1748.64560	0.01752
1747.35984	0.01770
1746.07407	0.01783
1744.78830	0.01783
1743.50253	0.01775
1742.21676	0.01771
1740.93099	0.01778
1739.64522	0.01790
1738.35945	0.01798
1737.07369	0.01809
1735.78792	0.01835
1734.50215	0.01859
1733.21638	0.01863
1731.93061	0.01852
1730.64484	0.01848
1729.35907	0.01859
1728.07330	0.01875
1726.78753	0.01890
1725.50177	0.01905
1724.21600	0.01918
1722.93023	0.01932
1721.64446	0.01949
1720.35869	0.01979
1719.07292	0.02021
1717.78715	0.02059
1716.50138	0.02082
1715.21561	0.02097
1713.92985	0.02116
1712.64408	0.02141
1711.35831	0.02169
1710.07254	0.02199
1708.78677	0.02232
1707.50100	0.02268
1706.21523	0.02302
1704.92946	0.02331
1703.64370	0.02363
1702.35793	0.02412
1701.07216	0.02468
1699.78639	0.02504
1698.50062	0.02527
1697.21485	0.02562
1695.92908	0.02604
1694.64331	0.02623
1693.35754	0.02627
1692.07178	0.02645
1690.78601	0.02678
1689.50024	0.02714
1688.21447	0.02754
1686.92870	0.02812
1685.64293	0.02884
1684.35716	0.02939
1683.07139	0.02962
1681.78563	0.02972
1680.49986	0.02990
1679.21409	0.03016
1677.92832	0.03051
1676.64255	0.03097
1675.35678	0.03144
1674.07101	0.03177
1672.78524	0.03201
1671.49947	0.03232
1670.21371	0.03271
1668.92794	0.03309
1667.64217	0.03340
1666.35640	0.03371
1665.07063	0.03407
1663.78486	0.03447
1662.49909	0.03482
1661.21332	0.03511
1659.92756	0.03536
1658.64179	0.03555
1657.35602	0.03568
1656.07025	0.03591
1654.78448	0.03638
1653.49871	0.03688
1652.21294	0.03707
1650.92717	0.03699
1649.64140	0.03700
1648.35564	0.03726
1647.06987	0.03764
1645.78410	0.03791
1644.49833	0.03804
1643.21256	0.03809
1641.92679	0.03810
1640.64102	0.03810
1639.35525	0.03813
1638.06949	0.03830
1636.78372	0.03860
1635.49795	0.03884
1634.21218	0.03890
1632.92641	0.03890
1631.64064	0.03901
1630.35487	0.03921
1629.06910	0.03938
1627.78333	0.03944
1626.49757	0.03944
1625.21180	0.03949
1623.92603	0.03963
1622.64026	0.03979
1621.35449	0.03996
1620.06872	0.04021
1618.78295	0.04060
1617.49718	0.04101
1616.21142	0.04124
1614.92565	0.04130
1613.63988	0.04139
1612.35411	0.04161
1611.06834	0.04188
1609.78257	0.04210
1608.49680	0.04228
1607.21103	0.04246
1605.92526	0.04268
1604.63950	0.04293
1603.35373	0.04318
1602.06796	0.04341
1600.78219	0.04361
1599.49642	0.04380
1598.21065	0.04400
1596.92488	0.04425
1595.63911	0.04453
1594.35335	0.04479
1593.06758	0.04497
1591.78181	0.04507
1590.49604	0.04513
1589.21027	0.04521
1587.92450	0.04534
1586.63873	0.04551
1585.35296	0.04573
1584.06719	0.04596
1582.78143	0.04620
1581.49566	0.04645
1580.20989	0.04672
1578.92412	0.04707
1577.63835	0.04751
1576.35258	0.04787
1575.06681	0.04801
1573.78104	0.04805
1572.49528	0.04818
1571.20951	0.04841
1569.92374	0.04858
1568.63797	0.04862
1567.35220	0.04863
1566.06643	0.04871
1564.78066	0.04881
1563.49489	0.04890
1562.20912	0.04907
1560.92336	0.04939
1559.63759	0.04968
1558.35182	0.04971
1557.06605	0.04953
1555.78028	0.04939
1554.49451	0.04936
1553.20874	0.04936
1551.92297	0.04937
1550.63721	0.04942
1549.35144	0.04948
1548.06567	0.04948
1546.77990	0.04943
1545.49413	0.04934
1544.20836	0.04921
1542.92259	0.04908
1541.63682	0.04905
1540.35105	0.04903
1539.06529	0.04887
1537.77952	0.04855
1536.49375	0.04830
1535.20798	0.04828
1533.92221	0.04840
1532.63644	0.04850
1531.35067	0.04855
1530.06490	0.04864
1528.77914	0.04882
1527.49337	0.04908
1526.20760	0.04941
1524.92183	0.04983
1523.63606	0.05042
1522.35029	0.05118
1521.06452	0.05196
1519.77875	0.05267
1518.49298	0.05341
1517.20722	0.05423
1515.92145	0.05512
1514.63568	0.05609
1513.34991	0.05717
1512.06414	0.05832
1510.77837	0.05947
1509.49260	0.06068
1508.20683	0.06199
1506.92107	0.06330
1505.63530	0.06439
1504.34953	0.06528
1503.06376	0.06615
1501.77799	0.06708
1500.49222	0.06799
1499.20645	0.06883
1497.92068	0.06960
1496.63491	0.07030
1495.34915	0.07089
1494.06338	0.07145
1492.77761	0.07212
1491.49184	0.07290
1490.20607	0.07370
1488.92030	0.07449
1487.63453	0.07533
1486.34876	0.07626
1485.06299	0.07727
1483.77723	0.07834
1482.49146	0.07946
1481.20569	0.08059
1479.91992	0.08168
1478.63415	0.08272
1477.34838	0.08364
1476.06261	0.08446
1474.77684	0.08521
1473.49108	0.08592
1472.20531	0.08650
1470.91954	0.08693
1469.63377	0.08726
1468.34800	0.08761
1467.06223	0.08800
1465.77646	0.08838
1464.49069	0.08867
1463.20492	0.08885
1461.91916	0.08900
1460.63339	0.08928
1459.34762	0.08979
1458.06185	0.09046
1456.77608	0.09105
1455.49031	0.09143
1454.20454	0.09175
1452.91877	0.09215
1451.63301	0.09260
1450.34724	0.09302
1449.06147	0.09337
1447.77570	0.09363
1446.48993	0.09377
1445.20416	0.09380
1443.91839	0.09372
1442.63262	0.09357
1441.34685	0.09335
1440.06109	0.09317
1438.77532	0.09314
1437.48955	0.09326
1436.20378	0.09342
1434.91801	0.09359
1433.63224	0.09390
1432.34647	0.09447
1431.06070	0.09533
1429.77494	0.09645
1428.48917	0.09780
1427.20340	0.09931
1425.91763	0.10090
1424.63186	0.10246
1423.34609	0.10391
1422.06032	0.10530
1420.77455	0.10664
1419.48878	0.10783
1418.20302	0.10876
1416.91725	0.10946
1415.63148	0.10999
1414.34571	0.11035
1413.05994	0.11048
1411.77417	0.11036
1410.48840	0.11001
1409.20263	0.10944
1407.91687	0.10864
1406.63110	0.10760
1405.34533	0.10633
1404.05956	0.10485
1402.77379	0.10322
1401.48802	0.10147
1400.20225	0.09961
1398.91648	0.09764
1397.63071	0.09562
1396.34495	0.09359
1395.05918	0.09156
1393.77341	0.08945
1392.48764	0.08729
1391.20187	0.08516
1389.91610	0.08315
1388.63033	0.08125
1387.34456	0.07941
1386.05880	0.07757
1384.77303	0.07570
1383.48726	0.07381
1382.20149	0.07191
1380.91572	0.07001
1379.62995	0.06810
1378.34418	0.06617
1377.05841	0.06415
1375.77264	0.06205
1374.48688	0.05990
1373.20111	0.05777
1371.91534	0.05571
1370.62957	0.05376
1369.34380	0.05192
1368.05803	0.05019
1366.77226	0.04862
1365.48649	0.04719
1364.20073	0.04586
1362.91496	0.04457
1361.62919	0.04332
1360.34342	0.04216
1359.05765	0.04112
1357.77188	0.04017
1356.48611	0.03928
1355.20034	0.03840
1353.91457	0.03754
1352.62881	0.03669
1351.34304	0.03585
1350.05727	0.03506
1348.77150	0.03434
1347.48573	0.03371
1346.19996	0.03314
1344.91419	0.03260
1343.62842	0.03211
1342.34266	0.03167
1341.05689	0.03128
1339.77112	0.03091
1338.48535	0.03053
1337.19958	0.03013
1335.91381	0.02970
1334.62804	0.02926
1333.34227	0.02882
1332.05650	0.02843
1330.77074	0.02811
1329.48497	0.02783
1328.19920	0.02756
1326.91343	0.02731
1325.62766	0.02708
1324.34189	0.02689
1323.05612	0.02671
1321.77035	0.02650
1320.48459	0.02625
1319.19882	0.02600
1317.91305	0.02576
1316.62728	0.02556
1315.34151	0.02543
1314.05574	0.02533
1312.76997	0.02525
1311.48420	0.02514
1310.19843	0.02499
1308.91267	0.02477
1307.62690	0.02448
1306.34113	0.02415
1305.05536	0.02386
1303.76959	0.02367
1302.48382	0.02356
1301.19805	0.02351
1299.91228	0.02345
1298.62652	0.02335
1297.34075	0.02323
1296.05498	0.02309
1294.76921	0.02294
1293.48344	0.02276
1292.19767	0.02259
1290.91190	0.02244
1289.62613	0.02232
1288.34036	0.02222
1287.05460	0.02211
1285.76883	0.02200
1284.48306	0.02190
1283.19729	0.02181
1281.91152	0.02171
1280.62575	0.02158
1279.33998	0.02145
1278.05421	0.02134
1276.76845	0.02128
1275.48268	0.02126
1274.19691	0.02124
1272.91114	0.02117
1271.62537	0.02102
1270.33960	0.02082
1269.05383	0.02065
1267.76806	0.02055
1266.48229	0.02050
1265.19653	0.02048
1263.91076	0.02045
1262.62499	0.02044
1261.33922	0.02044
1260.05345	0.02043
1258.76768	0.02036
1257.48191	0.02024
1256.19614	0.02009
1254.91037	0.01996
1253.62461	0.01985
1252.33884	0.01976
1251.05307	0.01968
1249.76730	0.01962
1248.48153	0.01955
1247.19576	0.01947
1245.90999	0.01937
1244.62422	0.01929
1243.33846	0.01927
1242.05269	0.01929
1240.76692	0.01931
1239.48115	0.01930
1238.19538	0.01922
1236.90961	0.01912
1235.62384	0.01903
1234.33807	0.01897
1233.05230	0.01891
1231.76654	0.01881
1230.48077	0.01868
1229.19500	0.01858
1227.90923	0.01852
1226.62346	0.01850
1225.33769	0.01847
1224.05192	0.01841
1222.76615	0.01833
1221.48039	0.01824
1220.19462	0.01817
1218.90885	0.01809
1217.62308	0.01803
1216.33731	0.01797
1215.05154	0.01794
1213.76577	0.01791
1212.48000	0.01788
1211.19423	0.01785
1209.90847	0.01781
1208.62270	0.01777
1207.33693	0.01774
1206.05116	0.01771
1204.76539	0.01769
1203.47962	0.01769
1202.19385	0.01769
1200.90808	0.01769
1199.62232	0.01766
1198.33655	0.01767
1197.05078	0.01764
1195.76501	0.01755
1194.47924	0.01746
1193.19347	0.01743
1191.90770	0.01746
1190.62193	0.01753
1189.33616	0.01759
1188.05040	0.01763
1186.76463	0.01766
1185.47886	0.01768
1184.19309	0.01770
1182.90732	0.01768
1181.62155	0.01763
1180.33578	0.01761
1179.05001	0.01763
1177.76425	0.01768
1176.47848	0.01771
1175.19271	0.01770
1173.90694	0.01768
1172.62117	0.01773
1171.33540	0.01789
1170.04963	0.01811
1168.76386	0.01835
1167.47809	0.01858
1166.19233	0.01879
1164.90656	0.01896
1163.62079	0.01905
1162.33502	0.01913
1161.04925	0.01927
1159.76348	0.01950
1158.47771	0.01977
1157.19194	0.02003
1155.90618	0.02031
1154.62041	0.02062
1153.33464	0.02096
1152.04887	0.02134
1150.76310	0.02174
1149.47733	0.02220
1148.19156	0.02277
1146.90579	0.02343
1145.62002	0.02418
1144.33426	0.02498
1143.04849	0.02583
1141.76272	0.02672
1140.47695	0.02768
1139.19118	0.02873
1137.90541	0.02996
1136.61964	0.03143
1135.33387	0.03311
1134.04811	0.03490
1132.76234	0.03677
1131.47657	0.03883
1130.19080	0.04115
1128.90503	0.04375
1127.61926	0.04661
1126.33349	0.04975
1125.04772	0.05315
1123.76195	0.05677
1122.47619	0.06051
1121.19042	0.06429
1119.90465	0.06807
1118.61888	0.07185
1117.33311	0.07566
1116.04734	0.07950
1114.76157	0.08334
1113.47580	0.08703
1112.19004	0.09049
1110.90427	0.09373
1109.61850	0.09691
1108.33273	0.10008
1107.04696	0.10321
1105.76119	0.10622
1104.47542	0.10907
1103.18965	0.11182
1101.90388	0.11454
1100.61812	0.11723
1099.33235	0.11985
1098.04658	0.12236
1096.76081	0.12473
1095.47504	0.12697
1094.18927	0.12905
1092.90350	0.13098
1091.61773	0.13282
1090.33197	0.13463
1089.04620	0.13646
1087.76043	0.13832
1086.47466	0.14021
1085.18889	0.14218
1083.90312	0.14421
1082.61735	0.14631
1081.33158	0.14851
1080.04581	0.15085
1078.76005	0.15338
1077.47428	0.15609
1076.18851	0.15896
1074.90274	0.16196
1073.61697	0.16504
1072.33120	0.16821
1071.04543	0.17150
1069.75966	0.17492
1068.47390	0.17843
1067.18813	0.18198
1065.90236	0.18558
1064.61659	0.18929
1063.33082	0.19313
1062.04505	0.19704
1060.75928	0.20095
1059.47351	0.20475
1058.18774	0.20841
1056.90198	0.21193
1055.61621	0.21540
1054.33044	0.21889
1053.04467	0.22248
1051.75890	0.22617
1050.47313	0.22995
1049.18736	0.23380
1047.90159	0.23775
1046.61583	0.24181
1045.33006	0.24602
1044.04429	0.25041
1042.75852	0.25497
1041.47275	0.25965
1040.18698	0.26438
1038.90121	0.26918
1037.61544	0.27402
1036.32967	0.27883
1035.04391	0.28352
1033.75814	0.28798
1032.47237	0.29218
1031.18660	0.29604
1029.90083	0.29950
1028.61506	0.30248
1027.32929	0.30494
1026.04352	0.30691
1024.75775	0.30847
1023.47199	0.30963
1022.18622	0.31032
1020.90045	0.31042
1019.61468	0.30985
1018.32891	0.30856
1017.04314	0.30651
1015.75737	0.30369
1014.47160	0.30011
1013.18584	0.29579
1011.90007	0.29071
1010.61430	0.28487
1009.32853	0.27827
1008.04276	0.27098
1006.75699	0.26310
1005.47122	0.25474
1004.18545	0.24598
1002.89968	0.23686
1001.61392	0.22737
1000.32815	0.21754
999.04238	0.20749
997.75661	0.19737
996.47084	0.18734
995.18507	0.17746
993.89930	0.16782
992.61353	0.15852
991.32777	0.14964
990.04200	0.14123
988.75623	0.13334
987.47046	0.12600
986.18469	0.11922
984.89892	0.11295
983.61315	0.10713
982.32738	0.10176
981.04161	0.09692
979.75585	0.09268
978.47008	0.08904
977.18431	0.08590
975.89854	0.08320
974.61277	0.08094
973.32700	0.07920
972.04123	0.07803
970.75546	0.07743
969.46970	0.07739
968.18393	0.07790
966.89816	0.07892
965.61239	0.08025
964.32662	0.08163
963.04085	0.08281
961.75508	0.08357
960.46931	0.08368
959.18354	0.08298
957.89778	0.08147
956.61201	0.07935
955.32624	0.07687
954.04047	0.07428
952.75470	0.07173
951.46893	0.06923
950.18316	0.06672
948.89739	0.06421
947.61163	0.06180
946.32586	0.05957
945.04009	0.05754
943.75432	0.05565
942.46855	0.05390
941.18278	0.05232
939.89701	0.05090
938.61124	0.04958
937.32547	0.04827
936.03971	0.04702
934.75394	0.04588
933.46817	0.04488
932.18240	0.04395
930.89663	0.04303
929.61086	0.04216
928.32509	0.04142
927.03932	0.04087
925.75356	0.04047
924.46779	0.04010
923.18202	0.03969
921.89625	0.03927
920.61048	0.03889
919.32471	0.03859
918.03894	0.03833
916.75317	0.03801
915.46740	0.03761
914.18164	0.03720
912.89587	0.03688
911.61010	0.03667
910.32433	0.03655
909.03856	0.03643
907.75279	0.03627
906.46702	0.03606
905.18125	0.03583
903.89549	0.03560
902.60972	0.03541
901.32395	0.03529
900.03818	0.03521
898.75241	0.03514
897.46664	0.03503
896.18087	0.03491
894.89510	0.03487
893.60933	0.03497
892.32357	0.03517
891.03780	0.03543
889.75203	0.03579
888.46626	0.03634
887.18049	0.03723
885.89472	0.03858
884.60895	0.04050
883.32318	0.04298
882.03742	0.04585
880.75165	0.04871
879.46588	0.05116
878.18011	0.05308
876.89434	0.05471
875.60857	0.05641
874.32280	0.05819
873.03703	0.05964
871.75126	0.06026
870.46550	0.05981
869.17973	0.05843
867.89396	0.05641
866.60819	0.05401
865.32242	0.05138
864.03665	0.04868
862.75088	0.04611
861.46511	0.04385
860.17935	0.04199
858.89358	0.04048
857.60781	0.03921
856.32204	0.03816
855.03627	0.03734
853.75050	0.03674
852.46473	0.03632
851.17896	0.03603
849.89319	0.03579
848.60743	0.03554
847.32166	0.03526
846.03589	0.03497
844.75012	0.03475
843.46435	0.03461
842.17858	0.03449
840.89281	0.03436
839.60704	0.03423
838.32128	0.03409
837.03551	0.03395
835.74974	0.03382
834.46397	0.03369
833.17820	0.03358
831.89243	0.03348
830.60666	0.03338
829.32089	0.03329
828.03512	0.03323
826.74936	0.03316
825.46359	0.03306
824.17782	0.03295
822.89205	0.03290
821.60628	0.03292
820.32051	0.03296
819.03474	0.03300
817.74897	0.03306
816.46321	0.03314
815.17744	0.03325
813.89167	0.03333
812.60590	0.03333
811.32013	0.03328
810.03436	0.03322
808.74859	0.03319
807.46282	0.03316
806.17705	0.03313
804.89129	0.03311
803.60552	0.03311
802.31975	0.03309
801.03398	0.03306
799.74821	0.03303
798.46244	0.03304
797.17667	0.03313
795.89090	0.03327
794.60513	0.03336
793.31937	0.03334
792.03360	0.03318
790.74783	0.03298
789.46206	0.03284
788.17629	0.03283
786.89052	0.03288
785.60475	0.03291
784.31898	0.03288
783.03322	0.03285
781.74745	0.03288
780.46168	0.03303
779.17591	0.03323
777.89014	0.03339
776.60437	0.03345
775.31860	0.03343
774.03283	0.03338
772.74706	0.03333
771.46130	0.03331
770.17553	0.03334
768.88976	0.03343
767.60399	0.03353
766.31822	0.03360
765.03245	0.03359
763.74668	0.03350
762.46091	0.03341
761.17515	0.03340
759.88938	0.03349
758.60361	0.03363
757.31784	0.03378
756.03207	0.03393
754.74630	0.03410
753.46053	0.03429
752.17476	0.03446
750.88899	0.03454
749.60323	0.03448
748.31746	0.03433
747.03169	0.03416
745.74592	0.03400
744.46015	0.03381
743.17438	0.03356
741.88861	0.03333
740.60284	0.03319
739.31708	0.03317
738.03131	0.03324
736.74554	0.03333
735.45977	0.03341
734.17400	0.03348
732.88823	0.03360
731.60246	0.03380
730.31669	0.03400
729.03092	0.03412
727.74516	0.03412
726.45939	0.03404
725.17362	0.03397
723.88785	0.03383
722.60208	0.03397
721.31631	0.03424
720.03054	0.03448
718.74477	0.03465
717.45901	0.03474
716.17324	0.03473
714.88747	0.03462
713.60170	0.03447
712.31593	0.03431
711.03016	0.03418
709.74439	0.03408
708.45862	0.03403
707.17285	0.03404
705.88709	0.03408
704.60132	0.03410
703.31555	0.03410
702.02978	0.03405
700.74401	0.03399
699.45824	0.03394
698.17247	0.03395
696.88670	0.03401
695.60094	0.03414
694.31517	0.03428
693.02940	0.03442
691.74363	0.03450
690.45786	0.03452
689.17209	0.03448
687.88632	0.03439
686.60055	0.03425
685.31478	0.03408
684.02902	0.03388
682.74325	0.03368
681.45748	0.03351
680.17171	0.03340
678.88594	0.03336
677.60017	0.03336
676.31440	0.03336
675.02863	0.03337
673.74287	0.03343
672.45710	0.03354
671.17133	0.03367
669.88556	0.03384
668.59979	0.03416
667.31402	0.03432
666.02825	0.03416
664.74248	0.03403
663.45671	0.03380
662.17095	0.03353
660.88518	0.03333
659.59941	0.03324
658.31364	0.03319
657.02787	0.03312
655.74210	0.03301
654.45633	0.03290
653.17056	0.03284
651.88480	0.03284
650.59903	0.03290
649.31326	0.03297
648.02749	0.03308
646.74172	0.03321
645.45595	0.03335
644.17018	0.03349
642.88441	0.03362
641.59864	0.03379
640.31288	0.03399
639.02711	0.03419
637.74134	0.03441
636.45557	0.03469
635.16980	0.03513
633.88403	0.03572
632.59826	0.03639
631.31249	0.03709
630.02673	0.03804
628.74096	0.03911
627.45519	0.03945
626.16942	0.04084
624.88365	0.04308
623.59788	0.04546
622.31211	0.04754
621.02634	0.04913
619.74057	0.05066
618.45481	0.05305
617.16904	0.05668
615.88327	0.06093
614.59750	0.06489
613.31173	0.06842
612.02596	0.07237
610.74019	0.07766
609.45442	0.08411
608.16866	0.09039
606.88289	0.09550
605.59712	0.09951
604.31135	0.10280
603.02558	0.10529
601.73981	0.10647
600.45404	0.10608
599.16827	0.10424
597.88250	0.10140
596.59674	0.09816
595.31097	0.09511
594.02520	0.09264
592.73943	0.09077
591.45366	0.08934
590.16789	0.08828
588.88212	0.08775
587.59635	0.08793
586.31059	0.08889
585.02482	0.09047
583.73905	0.09242
582.45328	0.09463
581.16751	0.09709
579.88174	0.09980
578.59597	0.10267
577.31020	0.10562
576.02443	0.10859
574.73867	0.11153
573.45290	0.11437
572.16713	0.11711
570.88136	0.11995
569.59559	0.12323
568.30982	0.12723
567.02405	0.13184
565.73828	0.13658
564.45251	0.14078
563.16675	0.14380
561.88098	0.14502
560.59521	0.14396
559.30944	0.14044
558.02367	0.13482
556.73790	0.12774
555.45213	0.11986
554.16636	0.11170
552.88060	0.10372
551.59483	0.09627
550.30906	0.08956
549.02329	0.08365
547.73752	0.07854
546.45175	0.07417
545.16598	0.07044
543.88021	0.06722
542.59444	0.06434
541.30868	0.06169
540.02291	0.05927
538.73714	0.05713
537.45137	0.05522
536.16560	0.05343
534.87983	0.05170
533.59406	0.05007
532.30829	0.04864
531.02253	0.04742
529.73676	0.04639
528.45099	0.04549
527.16522	0.04466
525.87945	0.04381
524.59368	0.04285
523.30791	0.04180
522.02214	0.04077
520.73637	0.03988
519.45061	0.03918
518.16484	0.03863
516.87907	0.03816
515.59330	0.03764
514.30753	0.03700
513.02176	0.03628
511.73599	0.03556
510.45022	0.03498
509.16446	0.03458
507.87869	0.03427
506.59292	0.03393
505.30715	0.03349
504.02138	0.03304
502.73561	0.03264
501.44984	0.03231
500.16407	0.03200
498.87830	0.03169
497.59254	0.03142
496.30677	0.03116
495.02100	0.03091
493.73523	0.03061
492.44946	0.03027
491.16369	0.02995
489.87792	0.02971
488.59215	0.02957
487.30639	0.02956
486.02062	0.02961
484.73485	0.02967
483.44908	0.02970
482.16331	0.02970
480.87754	0.02975
479.59177	0.02986
478.30600	0.03006
477.02023	0.03035
475.73447	0.03071
474.44870	0.03107
473.16293	0.03134
471.87716	0.03147
470.59139	0.03144
469.30562	0.03132
468.01985	0.03119
466.73408	0.03109
465.44832	0.03098
464.16255	0.03081
462.87678	0.03055
461.59101	0.03025
460.30524	0.02994
459.01947	0.02965
457.73370	0.02935
456.44793	0.02901
455.16216	0.02866
453.87640	0.02834
452.59063	0.02803
451.30486	0.02773
450.01909	0.02748
448.73332	0.02733
447.44755	0.02728
446.16178	0.02727
444.87601	0.02723
443.59025	0.02709
442.30448	0.02690
441.01871	0.02672
439.73294	0.02659
438.44717	0.02652
437.16140	0.02650
435.87563	0.02652
434.58986	0.02656
433.30409	0.02661
432.01833	0.02664
430.73256	0.02666
429.44679	0.02667
428.16102	0.02665
426.87525	0.02658
425.58948	0.02645
424.30371	0.02628
423.01794	0.02610
421.73218	0.02595
420.44641	0.02588
419.16064	0.02587
417.87487	0.02586
416.58910	0.02584
415.30333	0.02582
414.01756	0.02582
412.73179	0.02588
411.44602	0.02596
410.16026	0.02604
408.87449	0.02607
407.58872	0.02608
406.30295	0.02609
405.01718	0.02610
403.73141	0.02614
402.44564	0.02621
401.15987	0.02634
399.87411	0.02650
