3997.45528 0.03207
3996.16951 0.03173
3994.88374 0.03184
3993.59798 0.03177
3992.31221 0.03123
3991.02644 0.03064
3989.74067 0.03063
3988.45490 0.03143
3987.16913 0.03269
3985.88336 0.03369
3984.59759 0.03373
3983.31183 0.03268
3982.02606 0.03113
3980.74029 0.02995
3979.45452 0.02963
3978.16875 0.02997
3976.88298 0.03037
3975.59721 0.03048
3974.31144 0.03046
3973.02567 0.03075
3971.73991 0.03138
3970.45414 0.03181
3969.16837 0.03151
3967.88260 0.03056
3966.59683 0.02966
3965.31106 0.02947
3964.02529 0.03006
3962.73952 0.03097
3961.45376 0.03158
3960.16799 0.03160
3958.88222 0.03126
3957.59645 0.03109
3956.31068 0.03133
3955.02491 0.03177
3953.73914 0.03203
3952.45337 0.03208
3951.16760 0.03203
3949.88184 0.03187
3948.59607 0.03160
3947.31030 0.03142
3946.02453 0.03154
3944.73876 0.03190
3943.45299 0.03220
3942.16722 0.03222
3940.88145 0.03190
3939.59569 0.03133
3938.30992 0.03097
3937.02415 0.03128
3935.73838 0.03221
3934.45261 0.03313
3933.16684 0.03350
3931.88107 0.03328
3930.59530 0.03278
3929.30953 0.03225
3928.02377 0.03174
3926.73800 0.03119
3925.45223 0.03065
3924.16646 0.03021
3922.88069 0.02990
3921.59492 0.02975
3920.30915 0.02983
3919.02338 0.03013
3917.73762 0.03048
3916.45185 0.03066
3915.16608 0.03059
3913.88031 0.03043
3912.59454 0.03053
3911.30877 0.03118
3910.02300 0.03232
3908.73723 0.03356
3907.45146 0.03440
3906.16570 0.03453
3904.87993 0.03405
3903.59416 0.03328
3902.30839 0.03249
3901.02262 0.03190
3899.73685 0.03176
3898.45108 0.03210
3897.16531 0.03250
3895.87955 0.03252
3894.59378 0.03215
3893.30801 0.03173
3892.02224 0.03145
3890.73647 0.03120
3889.45070 0.03070
3888.16493 0.02997
3886.87916 0.02959
3885.59339 0.03001
3884.30763 0.03067
3883.02186 0.03058
3881.73609 0.02978
3880.45032 0.02934
3879.16455 0.02998
3877.87878 0.03119
3876.59301 0.03215
3875.30724 0.03263
3874.02148 0.03283
3872.73571 0.03262
3871.44994 0.03182
3870.16417 0.03098
3868.87840 0.03094
3867.59263 0.03163
3866.30686 0.03236
3865.02109 0.03268
3863.73532 0.03251
3862.44956 0.03179
3861.16379 0.03074
3859.87802 0.02994
3858.59225 0.02999
3857.30648 0.03085
3856.02071 0.03179
3854.73494 0.03221
3853.44917 0.03233
3852.16341 0.03263
3850.87764 0.03302
3849.59187 0.03317
3848.30610 0.03298
3847.02033 0.03253
3845.73456 0.03198
3844.44879 0.03147
3843.16302 0.03117
3841.87725 0.03121
3840.59149 0.03149
3839.30572 0.03179
3838.01995 0.03200
3836.73418 0.03204
3835.44841 0.03166
3834.16264 0.03073
3832.87687 0.02967
3831.59110 0.02908
3830.30534 0.02914
3829.01957 0.02953
3827.73380 0.02978
3826.44803 0.02974
3825.16226 0.02945
3823.87649 0.02895
3822.59072 0.02859
3821.30495 0.02892
3820.01918 0.02985
3818.73342 0.03037
3817.44765 0.02988
3816.16188 0.02911
3814.87611 0.02892
3813.59034 0.02907
3812.30457 0.02913
3811.01880 0.02934
3809.73303 0.02976
3808.44726 0.02994
3807.16150 0.02977
3805.87573 0.02961
3804.58996 0.02951
3803.30419 0.02923
3802.01842 0.02905
3800.73265 0.02956
3799.44688 0.03048
3798.16111 0.03095
3796.87535 0.03062
3795.58958 0.02983
3794.30381 0.02893
3793.01804 0.02821
3791.73227 0.02806
3790.44650 0.02864
3789.16073 0.02970
3787.87496 0.03077
3786.58919 0.03142
3785.30343 0.03144
3784.01766 0.03092
3782.73189 0.03027
3781.44612 0.03004
3780.16035 0.03044
3778.87458 0.03117
3777.58881 0.03162
3776.30304 0.03155
3775.01728 0.03131
3773.73151 0.03128
3772.44574 0.03136
3771.15997 0.03118
3769.87420 0.03067
3768.58843 0.03001
3767.30266 0.02955
3766.01689 0.02970
3764.73112 0.03063
3763.44536 0.03180
3762.15959 0.03222
3760.87382 0.03152
3759.58805 0.03015
3758.30228 0.02893
3757.01651 0.02853
3755.73074 0.02912
3754.44497 0.03023
3753.15921 0.03122
3751.87344 0.03167
3750.58767 0.03160
3749.30190 0.03147
3748.01613 0.03150
3746.73036 0.03110
3745.44459 0.03013
3744.15882 0.02953
3742.87305 0.02981
3741.58729 0.03036
3740.30152 0.03082
3739.01575 0.03126
3737.72998 0.03146
3736.44421 0.03110
3735.15844 0.03021
3733.87267 0.02910
3732.58690 0.02844
3731.30114 0.02882
3730.01537 0.02999
3728.72960 0.03101
3727.44383 0.03134
3726.15806 0.03127
3724.87229 0.03108
3723.58652 0.03072
3722.30075 0.03020
3721.01498 0.02970
3719.72922 0.02929
3718.44345 0.02895
3717.15768 0.02869
3715.87191 0.02851
3714.58614 0.02835
3713.30037 0.02816
3712.01460 0.02796
3710.72883 0.02785
3709.44307 0.02792
3708.15730 0.02828
3706.87153 0.02891
3705.58576 0.02952
3704.29999 0.02984
3703.01422 0.02989
3701.72845 0.02985
3700.44268 0.02983
3699.15691 0.02979
3697.87115 0.02955
3696.58538 0.02918
3695.29961 0.02896
3694.01384 0.02899
3692.72807 0.02913
3691.44230 0.02907
3690.15653 0.02847
3688.87076 0.02738
3687.58500 0.02622
3686.29923 0.02535
3685.01346 0.02480
3683.72769 0.02458
3682.44192 0.02473
3681.15615 0.02529
3679.87038 0.02641
3678.58461 0.02783
3677.29884 0.02876
3676.01308 0.02897
3674.72731 0.02887
3673.44154 0.02873
3672.15577 0.02841
3670.87000 0.02825
3669.58423 0.02864
3668.29846 0.02925
3667.01269 0.02951
3665.72693 0.02945
3664.44116 0.02936
3663.15539 0.02931
3661.86962 0.02929
3660.58385 0.02952
3659.29808 0.03016
3658.01231 0.03094
3656.72654 0.03147
3655.44077 0.03162
3654.15501 0.03138
3652.86924 0.03083
3651.58347 0.03020
3650.29770 0.02981
3649.01193 0.02965
3647.72616 0.02947
3646.44039 0.02911
3645.15462 0.02874
3643.86886 0.02864
3642.58309 0.02900
3641.29732 0.02980
3640.01155 0.03088
3638.72578 0.03193
3637.44001 0.03248
3636.15424 0.03213
3634.86847 0.03107
3633.58270 0.03016
3632.29694 0.03006
3631.01117 0.03066
3629.72540 0.03140
3628.43963 0.03171
3627.15386 0.03113
3625.86809 0.02965
3624.58232 0.02812
3623.29655 0.02749
3622.01079 0.02779
3620.72502 0.02850
3619.43925 0.02935
3618.15348 0.03036
3616.86771 0.03139
3615.58194 0.03215
3614.29617 0.03249
3613.01040 0.03249
3611.72463 0.03224
3610.43887 0.03190
3609.15310 0.03176
3607.86733 0.03208
3606.58156 0.03273
3605.29579 0.03327
3604.01002 0.03331
3602.72425 0.03280
3601.43848 0.03212
3600.15272 0.03190
3598.86695 0.03252
3597.58118 0.03365
3596.29541 0.03449
3595.00964 0.03444
3593.72387 0.03364
3592.43810 0.03274
3591.15233 0.03240
3589.86656 0.03290
3588.58080 0.03397
3587.29503 0.03481
3586.00926 0.03471
3584.72349 0.03358
3583.43772 0.03213
3582.15195 0.03124
3580.86618 0.03137
3579.58041 0.03234
3578.29464 0.03368
3577.00888 0.03486
3575.72311 0.03547
3574.43734 0.03545
3573.15157 0.03505
3571.86580 0.03464
3570.58003 0.03439
3569.29426 0.03420
3568.00849 0.03403
3566.72273 0.03404
3565.43696 0.03426
3564.15119 0.03442
3562.86542 0.03417
3561.57965 0.03353
3560.29388 0.03299
3559.00811 0.03310
3557.72234 0.03395
3556.43657 0.03509
3555.15081 0.03590
3553.86504 0.03602
3552.57927 0.03557
3551.29350 0.03511
3550.00773 0.03520
3548.72196 0.03601
3547.43619 0.03718
3546.15042 0.03822
3544.86466 0.03893
3543.57889 0.03939
3542.29312 0.03955
3541.00735 0.03924
3539.72158 0.03848
3538.43581 0.03762
3537.15004 0.03698
3535.86427 0.03653
3534.57850 0.03613
3533.29274 0.03591
3532.00697 0.03621
3530.72120 0.03722
3529.43543 0.03866
3528.14966 0.03983
3526.86389 0.04014
3525.57812 0.03954
3524.29235 0.03862
3523.00659 0.03805
3521.72082 0.03799
3520.43505 0.03813
3519.14928 0.03821
3517.86351 0.03832
3516.57774 0.03867
3515.29197 0.03925
3514.00620 0.03984
3512.72043 0.04018
3511.43467 0.04011
3510.14890 0.03963
3508.86313 0.03902
3507.57736 0.03871
3506.29159 0.03886
3505.00582 0.03915
3503.72005 0.03919
3502.43428 0.03894
3501.14852 0.03876
3499.86275 0.03896
3498.57698 0.03947
3497.29121 0.03997
3496.00544 0.04030
3494.71967 0.04051
3493.43390 0.04070
3492.14813 0.04085
3490.86236 0.04090
3489.57660 0.04096
3488.29083 0.04117
3487.00506 0.04156
3485.71929 0.04201
3484.43352 0.04237
3483.14775 0.04254
3481.86198 0.04246
3480.57621 0.04212
3479.29045 0.04160
3478.00468 0.04117
3476.71891 0.04104
3475.43314 0.04123
3474.14737 0.04159
3472.86160 0.04191
3471.57583 0.04208
3470.29006 0.04206
3469.00429 0.04191
3467.71853 0.04164
3466.43276 0.04122
3465.14699 0.04060
3463.86122 0.03998
3462.57545 0.03970
3461.28968 0.03993
3460.00391 0.04049
3458.71814 0.04112
3457.43238 0.04167
3456.14661 0.04212
3454.86084 0.04243
3453.57507 0.04256
3452.28930 0.04264
3451.00353 0.04282
3449.71776 0.04316
3448.43199 0.04350
3447.14622 0.04366
3445.86046 0.04364
3444.57469 0.04362
3443.28892 0.04368
3442.00315 0.04377
3440.71738 0.04375
3439.43161 0.04368
3438.14584 0.04367
3436.86007 0.04376
3435.57431 0.04380
3434.28854 0.04366
3433.00277 0.04343
3431.71700 0.04347
3430.43123 0.04404
3429.14546 0.04500
3427.85969 0.04572
3426.57392 0.04571
3425.28815 0.04506
3424.00239 0.04436
3422.71662 0.04403
3421.43085 0.04403
3420.14508 0.04413
3418.85931 0.04430
3417.57354 0.04469
3416.28777 0.04528
3415.00200 0.04584
3413.71624 0.04615
3412.43047 0.04619
3411.14470 0.04604
3409.85893 0.04576
3408.57316 0.04540
3407.28739 0.04509
3406.00162 0.04488
3404.71585 0.04473
3403.43008 0.04467
3402.14432 0.04497
3400.85855 0.04579
3399.57278 0.04643
3398.28701 0.04655
3397.00124 0.04660
3395.71547 0.04657
3394.42970 0.04639
3393.14393 0.04610
3391.85817 0.04589
3390.57240 0.04602
3389.28663 0.04657
3388.00086 0.04739
3386.71509 0.04819
3385.42932 0.04880
3384.14355 0.04929
3382.85778 0.04969
3381.57201 0.04987
3380.28625 0.04963
3379.00048 0.04895
3377.71471 0.04811
3376.42894 0.04747
3375.14317 0.04734
3373.85740 0.04777
3372.57163 0.04848
3371.28586 0.04900
3370.00010 0.04899
3368.71433 0.04854
3367.42856 0.04797
3366.14279 0.04753
3364.85702 0.04725
3363.57125 0.04702
3362.28548 0.04688
3360.99971 0.04703
3359.71394 0.04756
3358.42818 0.04834
3357.14241 0.04910
3355.85664 0.04958
3354.57087 0.04967
3353.28510 0.04940
3351.99933 0.04901
3350.71356 0.04883
3349.42779 0.04909
3348.14202 0.04964
3346.85626 0.05002
3345.57049 0.04995
3344.28472 0.04963
3342.99895 0.04952
3341.71318 0.04976
3340.42741 0.05005
3339.14164 0.05000
3337.85587 0.04961
3336.57011 0.04921
3335.28434 0.04913
3333.99857 0.04944
3332.71280 0.05001
3331.42703 0.05061
3330.14126 0.05104
3328.85549 0.05119
3327.56972 0.05108
3326.28395 0.05080
3324.99819 0.05045
3323.71242 0.05018
3322.42665 0.05016
3321.14088 0.05047
3319.85511 0.05095
3318.56934 0.05137
3317.28357 0.05155
3315.99780 0.05150
3314.71204 0.05131
3313.42627 0.05100
3312.14050 0.05051
3310.85473 0.04987
3309.56896 0.04940
3308.28319 0.04941
3306.99742 0.04980
3305.71165 0.05011
3304.42588 0.05006
3303.14012 0.04984
3301.85435 0.04988
3300.56858 0.05022
3299.28281 0.05052
3297.99704 0.05046
3296.71127 0.05008
3295.42550 0.04971
3294.13973 0.04965
3292.85397 0.05003
3291.56820 0.05066
3290.28243 0.05127
3288.99666 0.05162
3287.71089 0.05165
3286.42512 0.05147
3285.13935 0.05130
3283.85358 0.05127
3282.56781 0.05145
3281.28205 0.05174
3279.99628 0.05197
3278.71051 0.05196
3277.42474 0.05173
3276.13897 0.05144
3274.85320 0.05128
3273.56743 0.05124
3272.28166 0.05125
3270.99590 0.05128
3269.71013 0.05141
3268.42436 0.05172
3267.13859 0.05209
3265.85282 0.05230
3264.56705 0.05223
3263.28128 0.05197
3261.99551 0.05172
3260.70974 0.05152
3259.42398 0.05122
3258.13821 0.05070
3256.85244 0.05025
3255.56667 0.05023
3254.28090 0.05066
3252.99513 0.05112
3251.70936 0.05127
3250.42359 0.05122
3249.13783 0.05124
3247.85206 0.05130
3246.56629 0.05112
3245.28052 0.05062
3243.99475 0.05001
3242.70898 0.04954
3241.42321 0.04932
3240.13744 0.04933
3238.85167 0.04947
3237.56591 0.04962
3236.28014 0.04971
3234.99437 0.04973
3233.70860 0.04972
3232.42283 0.04968
3231.13706 0.04966
3229.85129 0.04966
3228.56552 0.04955
3227.27976 0.04920
3225.99399 0.04868
3224.70822 0.04829
3223.42245 0.04827
3222.13668 0.04867
3220.85091 0.04934
3219.56514 0.04998
3218.27937 0.05032
3216.99360 0.05027
3215.70784 0.04990
3214.42207 0.04943
3213.13630 0.04895
3211.85053 0.04839
3210.56476 0.04773
3209.27899 0.04714
3207.99322 0.04686
3206.70745 0.04695
3205.42169 0.04719
3204.13592 0.04739
3202.85015 0.04762
3201.56438 0.04796
3200.27861 0.04831
3198.99284 0.04841
3197.70707 0.04819
3196.42130 0.04784
3195.13553 0.04763
3193.84977 0.04770
3192.56400 0.04803
3191.27823 0.04853
3189.99246 0.04895
3188.70669 0.04897
3187.42092 0.04840
3186.13515 0.04738
3184.84938 0.04639
3183.56362 0.04596
3182.27785 0.04630
3180.99208 0.04715
3179.70631 0.04793
3178.42054 0.04817
3177.13477 0.04791
3175.84900 0.04751
3174.56323 0.04724
3173.27746 0.04700
3171.99170 0.04659
3170.70593 0.04601
3169.42016 0.04554
3168.13439 0.04543
3166.84862 0.04562
3165.56285 0.04587
3164.27708 0.04607
3162.99131 0.04631
3161.70555 0.04663
3160.41978 0.04683
3159.13401 0.04665
3157.84824 0.04611
3156.56247 0.04554
3155.27670 0.04519
3153.99093 0.04506
3152.70516 0.04498
3151.41939 0.04484
3150.13363 0.04468
3148.84786 0.04458
3147.56209 0.04461
3146.27632 0.04476
3144.99055 0.04499
3143.70478 0.04522
3142.41901 0.04536
3141.13324 0.04542
3139.84748 0.04549
3138.56171 0.04568
3137.27594 0.04596
3135.99017 0.04621
3134.70440 0.04633
3133.41863 0.04629
3132.13286 0.04616
3130.84709 0.04593
3129.56132 0.04554
3128.27556 0.04500
3126.98979 0.04445
3125.70402 0.04402
3124.41825 0.04376
3123.13248 0.04363
3121.84671 0.04360
3120.56094 0.04363
3119.27517 0.04365
3117.98940 0.04363
3116.70364 0.04358
3115.41787 0.04359
3114.13210 0.04366
3112.84633 0.04373
3111.56056 0.04373
3110.27479 0.04359
3108.98902 0.04331
3107.70325 0.04293
3106.41749 0.04257
3105.13172 0.04234
3103.84595 0.04236
3102.56018 0.04268
3101.27441 0.04321
3099.98864 0.04373
3098.70287 0.04408
3097.41710 0.04423
3096.13133 0.04425
3094.84557 0.04421
3093.55980 0.04413
3092.27403 0.04405
3090.98826 0.04403
3089.70249 0.04411
3088.41672 0.04423
3087.13095 0.04423
3085.84518 0.04399
3084.55942 0.04360
3083.27365 0.04328
3081.98788 0.04318
3080.70211 0.04326
3079.41634 0.04341
3078.13057 0.04361
3076.84480 0.04394
3075.55903 0.04435
3074.27326 0.04470
3072.98750 0.04487
3071.70173 0.04492
3070.41596 0.04497
3069.13019 0.04496
3067.84442 0.04467
3066.55865 0.04398
3065.27288 0.04317
3063.98711 0.04265
3062.70135 0.04264
3061.41558 0.04301
3060.12981 0.04343
3058.84404 0.04371
3057.55827 0.04379
3056.27250 0.04363
3054.98673 0.04327
3053.70096 0.04285
3052.41519 0.04257
3051.12943 0.04246
3049.84366 0.04237
3048.55789 0.04219
3047.27212 0.04197
3045.98635 0.04190
3044.70058 0.04200
3043.41481 0.04220
3042.12904 0.04235
3040.84328 0.04233
3039.55751 0.04209
3038.27174 0.04169
3036.98597 0.04133
3035.70020 0.04120
3034.41443 0.04133
3033.12866 0.04152
3031.84289 0.04156
3030.55712 0.04138
3029.27136 0.04108
3027.98559 0.04080
3026.69982 0.04063
3025.41405 0.04062
3024.12828 0.04074
3022.84251 0.04095
3021.55674 0.04123
3020.27097 0.04157
3018.98521 0.04194
3017.69944 0.04222
3016.41367 0.04226
3015.12790 0.04202
3013.84213 0.04160
3012.55636 0.04121
3011.27059 0.04103
3009.98482 0.04107
3008.69905 0.04120
3007.41329 0.04119
3006.12752 0.04095
3004.84175 0.04053
3003.55598 0.04018
3002.27021 0.04018
3000.98444 0.04045
2999.69867 0.04028
2998.41290 0.04034
2997.12714 0.04031
2995.84137 0.04025
2994.55560 0.04016
2993.26983 0.03998
2991.98406 0.03971
2990.69829 0.03954
2989.41252 0.03960
2988.12675 0.03978
2986.84098 0.03989
2985.55522 0.03991
2984.26945 0.04004
2982.98368 0.04043
2981.69791 0.04097
2980.41214 0.04145
2979.12637 0.04183
2977.84060 0.04219
2976.55483 0.04253
2975.26907 0.04273
2973.98330 0.04275
2972.69753 0.04280
2971.41176 0.04321
2970.12599 0.04407
2968.84022 0.04517
2967.55445 0.04614
2966.26868 0.04680
2964.98291 0.04726
2963.69715 0.04775
2962.41138 0.04836
2961.12561 0.04902
2959.83984 0.04963
2958.55407 0.05015
2957.26830 0.05062
2955.98253 0.05112
2954.69676 0.05162
2953.41100 0.05196
2952.12523 0.05204
2950.83946 0.05194
2949.55369 0.05192
2948.26792 0.05204
2946.98215 0.05216
2945.69638 0.05207
2944.41061 0.05179
2943.12484 0.05154
2941.83908 0.05149
2940.55331 0.05172
2939.26754 0.05215
2937.98177 0.05262
2936.69600 0.05303
2935.41023 0.05344
2934.12446 0.05398
2932.83869 0.05465
2931.55293 0.05531
2930.26716 0.05587
2928.98139 0.05635
2927.69562 0.05680
2926.40985 0.05708
2925.12408 0.05697
2923.83831 0.05645
2922.55254 0.05584
2921.26677 0.05553
2919.98101 0.05554
2918.69524 0.05555
2917.40947 0.05530
2916.12370 0.05485
2914.83793 0.05439
2913.55216 0.05394
2912.26639 0.05346
2910.98062 0.05300
2909.69486 0.05260
2908.40909 0.05219
2907.12332 0.05168
2905.83755 0.05108
2904.55178 0.05057
2903.26601 0.05034
2901.98024 0.05040
2900.69447 0.05058
2899.40870 0.05063
2898.12294 0.05045
2896.83717 0.05003
2895.55140 0.04942
2894.26563 0.04869
2892.97986 0.04794
2891.69409 0.04727
2890.40832 0.04673
2889.12255 0.04628
2887.83678 0.04586
2886.55102 0.04548
2885.26525 0.04523
2883.97948 0.04522
2882.69371 0.04547
2881.40794 0.04587
2880.12217 0.04626
2878.83640 0.04653
2877.55063 0.04673
2876.26487 0.04697
2874.97910 0.04721
2873.69333 0.04729
2872.40756 0.04721
2871.12179 0.04717
2869.83602 0.04740
2868.55025 0.04778
2867.26448 0.04798
2865.97871 0.04774
2864.69295 0.04716
2863.40718 0.04655
2862.12141 0.04613
2860.83564 0.04595
2859.54987 0.04591
2858.26410 0.04590
2856.97833 0.04584
2855.69256 0.04575
2854.40680 0.04572
2853.12103 0.04584
2851.83526 0.04595
2850.54949 0.04582
2849.26372 0.04537
2847.97795 0.04486
2846.69218 0.04456
2845.40641 0.04447
2844.12064 0.04433
2842.83488 0.04389
2841.54911 0.04309
2840.26334 0.04212
2838.97757 0.04130
2837.69180 0.04080
2836.40603 0.04047
2835.12026 0.04004
2833.83449 0.03943
2832.54873 0.03877
2831.26296 0.03820
2829.97719 0.03778
2828.69142 0.03749
2827.40565 0.03736
2826.11988 0.03734
2824.83411 0.03726
2823.54834 0.03705
2822.26257 0.03675
2820.97681 0.03647
2819.69104 0.03627
2818.40527 0.03615
2817.11950 0.03609
2815.83373 0.03604
2814.54796 0.03594
2813.26219 0.03574
2811.97642 0.03549
2810.69066 0.03527
2809.40489 0.03512
2808.11912 0.03507
2806.83335 0.03506
2805.54758 0.03499
2804.26181 0.03477
2802.97604 0.03447
2801.69027 0.03429
2800.40450 0.03436
2799.11874 0.03460
2797.83297 0.03480
2796.54720 0.03483
2795.26143 0.03473
2793.97566 0.03467
2792.68989 0.03474
2791.40412 0.03487
2790.11835 0.03493
2788.83259 0.03483
2787.54682 0.03454
2786.26105 0.03413
2784.97528 0.03377
2783.68951 0.03358
2782.40374 0.03361
2781.11797 0.03377
2779.83220 0.03402
2778.54643 0.03431
2777.26067 0.03454
2775.97490 0.03461
2774.68913 0.03441
2773.40336 0.03402
2772.11759 0.03358
2770.83182 0.03329
2769.54605 0.03328
2768.26028 0.03349
2766.97452 0.03375
2765.68875 0.03388
2764.40298 0.03382
2763.11721 0.03366
2761.83144 0.03352
2760.54567 0.03340
2759.25990 0.03322
2757.97413 0.03291
2756.68836 0.03257
2755.40260 0.03238
2754.11683 0.03242
2752.83106 0.03260
2751.54529 0.03270
2750.25952 0.03262
2748.97375 0.03247
2747.68798 0.03238
2746.40221 0.03235
2745.11645 0.03224
2743.83068 0.03197
2742.54491 0.03167
2741.25914 0.03155
2739.97337 0.03168
2738.68760 0.03200
2737.40183 0.03237
2736.11606 0.03266
2734.83029 0.03280
2733.54453 0.03279
2732.25876 0.03273
2730.97299 0.03272
2729.68722 0.03271
2728.40145 0.03259
2727.11568 0.03229
2725.82991 0.03187
2724.54414 0.03144
2723.25838 0.03112
2721.97261 0.03101
2720.68684 0.03107
2719.40107 0.03121
2718.11530 0.03132
2716.82953 0.03137
2715.54376 0.03132
2714.25799 0.03122
2712.97222 0.03113
2711.68646 0.03109
2710.40069 0.03103
2709.11492 0.03090
2707.82915 0.03072
2706.54338 0.03059
2705.25761 0.03060
2703.97184 0.03073
2702.68607 0.03088
2701.40031 0.03092
2700.11454 0.03079
2698.82877 0.03053
2697.54300 0.03026
2696.25723 0.03010
2694.97146 0.03011
2693.68569 0.03016
2692.39992 0.03011
2691.11415 0.02992
2689.82839 0.02976
2688.54262 0.02982
2687.25685 0.03007
2685.97108 0.03024
2684.68531 0.03013
2683.39954 0.02983
2682.11377 0.02960
2680.82800 0.02956
2679.54224 0.02968
2678.25647 0.02982
2676.97070 0.02988
2675.68493 0.02984
2674.39916 0.02973
2673.11339 0.02961
2671.82762 0.02957
2670.54185 0.02963
2669.25608 0.02975
2667.97032 0.02982
2666.68455 0.02976
2665.39878 0.02967
2664.11301 0.02966
2662.82724 0.02979
2661.54147 0.02994
2660.25570 0.03003
2658.96993 0.03008
2657.68417 0.03021
2656.39840 0.03044
2655.11263 0.03069
2653.82686 0.03087
2652.54109 0.03088
2651.25532 0.03071
2649.96955 0.03035
2648.68378 0.02990
2647.39801 0.02956
2646.11225 0.02946
2644.82648 0.02956
2643.54071 0.02966
2642.25494 0.02962
2640.96917 0.02941
2639.68340 0.02910
2638.39763 0.02879
2637.11186 0.02851
2635.82609 0.02829
2634.54033 0.02812
2633.25456 0.02801
2631.96879 0.02797
2630.68302 0.02803
2629.39725 0.02826
2628.11148 0.02864
2626.82571 0.02895
2625.53994 0.02898
2624.25418 0.02875
2622.96841 0.02839
2621.68264 0.02794
2620.39687 0.02739
2619.11110 0.02683
2617.82533 0.02644
2616.53956 0.02637
2615.25379 0.02662
2613.96802 0.02706
2612.68226 0.02741
2611.39649 0.02748
2610.11072 0.02727
2608.82495 0.02696
2607.53918 0.02670
2606.25341 0.02655
2604.96764 0.02655
2603.68187 0.02665
2602.39611 0.02678
2601.11034 0.02688
2599.82457 0.02697
2598.53880 0.02700
2597.25303 0.02681
2595.96726 0.02628
2594.68149 0.02551
2593.39572 0.02478
2592.10995 0.02440
2590.82419 0.02443
2589.53842 0.02462
2588.25265 0.02460
2586.96688 0.02425
2585.68111 0.02387
2584.39534 0.02384
2583.10957 0.02430
2581.82380 0.02499
2580.53804 0.02547
2579.25227 0.02551
2577.96650 0.02528
2576.68073 0.02516
2575.39496 0.02541
2574.10919 0.02589
2572.82342 0.02622
2571.53765 0.02616
2570.25188 0.02587
2568.96612 0.02575
2567.68035 0.02600
2566.39458 0.02638
2565.10881 0.02649
2563.82304 0.02614
2562.53727 0.02550
2561.25150 0.02494
2559.96573 0.02465
2558.67997 0.02449
2557.39420 0.02419
2556.10843 0.02369
2554.82266 0.02320
2553.53689 0.02291
2552.25112 0.02282
2550.96535 0.02292
2549.67958 0.02322
2548.39381 0.02362
2547.10805 0.02391
2545.82228 0.02398
2544.53651 0.02388
2543.25074 0.02368
2541.96497 0.02345
2540.67920 0.02334
2539.39343 0.02350
2538.10766 0.02383
2536.82190 0.02401
2535.53613 0.02385
2534.25036 0.02360
2532.96459 0.02361
2531.67882 0.02388
2530.39305 0.02404
2529.10728 0.02384
2527.82151 0.02345
2526.53574 0.02327
2525.24998 0.02347
2523.96421 0.02380
2522.67844 0.02394
2521.39267 0.02386
2520.10690 0.02379
2518.82113 0.02386
2517.53536 0.02399
2516.24959 0.02399
2514.96383 0.02376
2513.67806 0.02333
2512.39229 0.02289
2511.10652 0.02264
2509.82075 0.02258
2508.53498 0.02248
2507.24921 0.02203
2505.96344 0.02128
2504.67767 0.02063
2503.39191 0.02050
2502.10614 0.02091
2500.82037 0.02159
2499.53460 0.02223
2498.24883 0.02262
2496.96306 0.02269
2495.67729 0.02254
2494.39152 0.02235
2493.10576 0.02221
2491.81999 0.02211
2490.53422 0.02199
2489.24845 0.02192
2487.96268 0.02202
2486.67691 0.02225
2485.39114 0.02249
2484.10537 0.02271
2482.81960 0.02289
2481.53384 0.02294
2480.24807 0.02275
2478.96230 0.02235
2477.67653 0.02189
2476.39076 0.02155
2475.10499 0.02142
2473.81922 0.02155
2472.53345 0.02188
2471.24769 0.02219
2469.96192 0.02220
2468.67615 0.02195
2467.39038 0.02178
2466.10461 0.02193
2464.81884 0.02230
2463.53307 0.02257
2462.24730 0.02267
2460.96153 0.02269
2459.67577 0.02269
2458.39000 0.02262
2457.10423 0.02242
2455.81846 0.02217
2454.53269 0.02199
2453.24692 0.02202
2451.96115 0.02234
2450.67538 0.02291
2449.38962 0.02344
2448.10385 0.02363
2446.81808 0.02342
2445.53231 0.02301
2444.24654 0.02260
2442.96077 0.02220
2441.67500 0.02174
2440.38923 0.02125
2439.10346 0.02092
2437.81770 0.02085
2436.53193 0.02094
2435.24616 0.02100
2433.96039 0.02107
2432.67462 0.02132
2431.38885 0.02178
2430.10308 0.02232
2428.81731 0.02264
2427.53155 0.02255
2426.24578 0.02205
2424.96001 0.02138
2423.67424 0.02078
2422.38847 0.02039
2421.10270 0.02023
2419.81693 0.02024
2418.53116 0.02036
2417.24539 0.02044
2415.95963 0.02044
2414.67386 0.02046
2413.38809 0.02061
2412.10232 0.02085
2410.81655 0.02099
2409.53078 0.02092
2408.24501 0.02063
2406.95924 0.02016
2405.67347 0.01966
2404.38771 0.01940
2403.10194 0.01958
2401.81617 0.02009
2400.53040 0.02065
2399.24463 0.02186
2397.95886 0.02141
2396.67309 0.02099
2395.38732 0.02092
2394.10156 0.02089
2392.81579 0.02076
2391.53002 0.02048
2390.24425 0.02004
2388.95848 0.01959
2387.67271 0.01936
2386.38694 0.01946
2385.10117 0.01975
2383.81540 0.01995
2382.52964 0.01995
2381.24387 0.01985
2379.95810 0.01984
2378.67233 0.01991
2377.38656 0.02006
2376.10079 0.02031
2374.81502 0.02057
2373.52925 0.02056
2372.24349 0.02031
2370.95772 0.02010
2369.67195 0.02013
2368.38618 0.02032
2367.10041 0.02046
2365.81464 0.02062
2364.52887 0.02078
2363.24310 0.02090
2361.95733 0.02087
2360.67157 0.02054
2359.38580 0.02016
2358.10003 0.02006
2356.81426 0.02038
2355.52849 0.02102
2354.24272 0.02181
2352.95695 0.02238
2351.67118 0.02237
2350.38542 0.02203
2349.09965 0.02185
2347.81388 0.02181
2346.52811 0.02155
2345.24234 0.02130
2343.95657 0.02157
2342.67080 0.02221
2341.38503 0.02208
2340.09926 0.02139
2338.81350 0.02169
2337.52773 0.02266
2336.24196 0.02238
2334.95619 0.02133
2333.67042 0.02131
2332.38465 0.02205
2331.09888 0.02170
2329.81311 0.02160
2328.52735 0.02249
2327.24158 0.02298
2325.95581 0.02335
2324.67004 0.02423
2323.38427 0.02487
2322.09850 0.02463
2320.81273 0.02438
2319.52696 0.02391
2318.24119 0.02328
2316.95543 0.02282
2315.66966 0.02231
2314.38389 0.02190
2313.09812 0.02169
2311.81235 0.02140
2310.52658 0.02121
2309.24081 0.02111
2307.95504 0.02099
2306.66928 0.02096
2305.38351 0.02091
2304.09774 0.02084
2302.81197 0.02084
2301.52620 0.02096
2300.24043 0.02117
2298.95466 0.02122
2297.66889 0.02099
2296.38312 0.02059
2295.09736 0.02028
2293.81159 0.02023
2292.52582 0.02042
2291.24005 0.02075
2289.95428 0.02106
2288.66851 0.02124
2287.38274 0.02123
2286.09697 0.02104
2284.81121 0.02075
2283.52544 0.02053
2282.23967 0.02055
2280.95390 0.02079
2279.66813 0.02096
2278.38236 0.02065
2277.09659 0.01977
2275.81082 0.01875
2274.52505 0.01825
2273.23929 0.01845
2271.95352 0.01885
2270.66775 0.01873
2269.38198 0.01792
2268.09621 0.01696
2266.81044 0.01649
2265.52467 0.01669
2264.23890 0.01722
2262.95314 0.01753
2261.66737 0.01727
2260.38160 0.01649
2259.09583 0.01554
2257.81006 0.01483
2256.52429 0.01455
2255.23852 0.01460
2253.95275 0.01482
2252.66698 0.01511
2251.38122 0.01522
2250.09545 0.01534
2248.80968 0.01655
2247.52391 0.01645
2246.23814 0.01628
2244.95237 0.01640
2243.66660 0.01667
2242.38083 0.01673
2241.09507 0.01650
2239.80930 0.01625
2238.52353 0.01625
2237.23776 0.01652
2235.95199 0.01690
2234.66622 0.01714
2233.38045 0.01712
2232.09468 0.01687
2230.80891 0.01647
2229.52315 0.01593
2228.23738 0.01530
2226.95161 0.01472
2225.66584 0.01428
2224.38007 0.01383
2223.09430 0.01321
2221.80853 0.01268
2220.52276 0.01269
2219.23700 0.01340
2217.95123 0.01442
2216.66546 0.01511
2215.37969 0.01517
2214.09392 0.01479
2212.80815 0.01436
2211.52238 0.01417
2210.23661 0.01432
2208.95084 0.01475
2207.66508 0.01510
2206.37931 0.01472
2205.09354 0.01324
2203.80777 0.01117
2202.52200 0.00957
2201.23623 0.00903
2199.95046 0.00931
2198.66469 0.00976
2197.37893 0.00997
2196.09316 0.00980
2194.80739 0.00942
2193.52162 0.00928
2192.23585 0.00981
2190.95008 0.01086
2189.66431 0.01175
2188.37854 0.01189
2187.09277 0.01130
2185.80701 0.01048
2184.52124 0.01006
2183.23547 0.01044
2181.94970 0.01149
2180.66393 0.01247
2179.37816 0.01252
2178.09239 0.01134
2176.80662 0.00960
2175.52085 0.00837
2174.23509 0.00817
2172.94932 0.00869
2171.66355 0.00945
2170.37778 0.01055
2169.09201 0.01235
2167.80624 0.01457
2166.52047 0.01618
2165.23470 0.01622
2163.94894 0.01458
2162.66317 0.01187
2161.37740 0.00880
2160.09163 0.00590
2158.80586 0.00373
2157.52009 0.00279
2156.23432 0.00307
2154.94855 0.00374
2153.66278 0.00398
2152.37702 0.00385
2151.09125 0.00405
2149.80548 0.00491
2148.51971 0.00599
2147.23394 0.00682
2145.94817 0.00746
2144.66240 0.00819
2143.37663 0.00896
2142.09087 0.00949
2140.80510 0.00957
2139.51933 0.00911
2138.23356 0.00817
2136.94779 0.00713
2135.66202 0.00657
2134.37625 0.00677
2133.09048 0.00752
2131.80471 0.00835
2130.51895 0.00889
2129.23318 0.00901
2127.94741 0.00886
2126.66164 0.00884
2125.37587 0.00927
2124.09010 0.01008
2122.80433 0.01078
2121.51856 0.01099
2120.23280 0.01080
2118.94703 0.01063
2117.66126 0.01075
2116.37549 0.01111
2115.08972 0.01147
2113.80395 0.01168
2112.51818 0.01178
2111.23241 0.01189
2109.94664 0.01211
2108.66088 0.01248
2107.37511 0.01282
2106.08934 0.01287
2104.80357 0.01251
2103.51780 0.01189
2102.23203 0.01123
2100.94626 0.01072
2099.66049 0.01231
2098.37473 0.01336
2097.08896 0.01339
2095.80319 0.01297
2094.51742 0.01224
2093.23165 0.01141
2091.94588 0.01087
2090.66011 0.01081
2089.37434 0.01100
2088.08857 0.01115
2086.80281 0.01124
2085.51704 0.01141
2084.23127 0.01173
2082.94550 0.01213
2081.65973 0.01252
2080.37396 0.01287
2079.08819 0.01314
2077.80242 0.01328
2076.51666 0.01328
2075.23089 0.01323
2073.94512 0.01338
2072.65935 0.01396
2071.37358 0.01489
2070.08781 0.01566
2068.80204 0.01577
2067.51627 0.01514
2066.23050 0.01397
2064.94474 0.01248
2063.65897 0.01087
2062.37320 0.00959
2061.08743 0.00913
2059.80166 0.00964
2058.51589 0.01065
2057.23012 0.01141
2055.94435 0.01144
2054.65859 0.01084
2053.37282 0.01020
2052.08705 0.01014
2050.80128 0.01075
2049.51551 0.01157
2048.22974 0.01208
2046.94397 0.01207
2045.65820 0.01160
2044.37243 0.01078
2043.08667 0.00990
2041.80090 0.00950
2040.51513 0.01011
2039.22936 0.01156
2037.94359 0.01303
2036.65782 0.01362
2035.37205 0.01308
2034.08628 0.01189
2032.80052 0.01075
2031.51475 0.00991
2030.22898 0.00917
2028.94321 0.00827
2027.65744 0.00733
2026.37167 0.00667
2025.08590 0.00643
2023.80013 0.00648
2022.51436 0.00660
2021.22860 0.00661
2019.94283 0.00642
2018.65706 0.00622
2017.37129 0.00644
2016.08552 0.00745
2014.79975 0.00904
2013.51398 0.01051
2012.22821 0.01126
2010.94245 0.01119
2009.65668 0.01063
2008.37091 0.00990
2007.08514 0.00913
2005.79937 0.00835
2004.51360 0.00764
2003.22783 0.00718
2001.94206 0.00707
2000.65629 0.00724
1999.37053 0.00746
1998.08476 0.00748
1996.79899 0.00725
1995.51322 0.00707
1994.22745 0.00740
1992.94168 0.00833
1991.65591 0.00931
1990.37014 0.00962
1989.08438 0.00910
1987.79861 0.00841
1986.51284 0.00832
1985.22707 0.00907
1983.94130 0.01035
1982.65553 0.01178
1981.36976 0.01312
1980.08399 0.01429
1978.79822 0.01517
1977.51246 0.01557
1976.22669 0.01534
1974.94092 0.01448
1973.65515 0.01330
1972.36938 0.01235
1971.08361 0.01202
1969.79784 0.01221
1968.51207 0.01232
1967.22631 0.01196
1965.94054 0.01141
1964.65477 0.01130
1963.36900 0.01183
1962.08323 0.01247
1960.79746 0.01250
1959.51169 0.01175
1958.22592 0.01064
1956.94015 0.00966
1955.65439 0.00907
1954.36862 0.00887
1953.08285 0.00905
1951.79708 0.00951
1950.51131 0.01016
1949.22554 0.01087
1947.93977 0.01154
1946.65400 0.01208
1945.36823 0.01236
1944.08247 0.01231
1942.79670 0.01200
1941.51093 0.01169
1940.22516 0.01160
1938.93939 0.01179
1937.65362 0.01205
1936.36785 0.01214
1935.08208 0.01199
1933.79632 0.01178
1932.51055 0.01171
1931.22478 0.01181
1929.93901 0.01198
1928.65324 0.01214
1927.36747 0.01227
1926.08170 0.01231
1924.79593 0.01224
1923.51016 0.01222
1922.22440 0.01249
1920.93863 0.01306
1919.65286 0.01364
1918.36709 0.01391
1917.08132 0.01385
1915.79555 0.01363
1914.50978 0.01348
1913.22401 0.01351
1911.93825 0.01357
1910.65248 0.01350
1909.36671 0.01328
1908.08094 0.01301
1906.79517 0.01268
1905.50940 0.01223
1904.22363 0.01171
1902.93786 0.01131
1901.65209 0.01124
1900.36633 0.01151
1899.08056 0.01200
1897.79479 0.01254
1896.50902 0.01304
1895.22325 0.01354
1893.93748 0.01406
1892.65171 0.01442
1891.36594 0.01438
1890.08018 0.01388
1888.79441 0.01317
1887.50864 0.01260
1886.22287 0.01238
1884.93710 0.01245
1883.65133 0.01264
1882.36556 0.01278
1881.07979 0.01283
1879.79402 0.01287
1878.50826 0.01298
1877.22249 0.01320
1875.93672 0.01343
1874.65095 0.01351
1873.36518 0.01341
1872.07941 0.01319
1870.79364 0.01293
1869.50787 0.01268
1868.22211 0.01245
1866.93634 0.01225
1865.65057 0.01214
1864.36480 0.01217
1863.07903 0.01236
1861.79326 0.01266
1860.50749 0.01296
1859.22172 0.01313
1857.93595 0.01307
1856.65019 0.01287
1855.36442 0.01268
1854.07865 0.01261
1852.79288 0.01262
1851.50711 0.01265
1850.22134 0.01272
1848.93557 0.01293
1847.64980 0.01325
1846.36404 0.01346
1845.07827 0.01342
1843.79250 0.01323
1842.50673 0.01312
1841.22096 0.01315
1839.93519 0.01329
1838.64942 0.01345
1837.36365 0.01354
1836.07788 0.01351
1834.79212 0.01341
1833.50635 0.01330
1832.22058 0.01315
1830.93481 0.01304
1829.64904 0.01309
1828.36327 0.01334
1827.07750 0.01364
1825.79173 0.01393
1824.50597 0.01423
1823.22020 0.01455
1821.93443 0.01472
1820.64866 0.01463
1819.36289 0.01425
1818.07712 0.01364
1816.79135 0.01296
1815.50558 0.01237
1814.21981 0.01198
1812.93405 0.01181
1811.64828 0.01182
1810.36251 0.01187
1809.07674 0.01186
1807.79097 0.01179
1806.50520 0.01182
1805.21943 0.01204
1803.93366 0.01233
1802.64790 0.01250
1801.36213 0.01251
1800.07636 0.01249
1798.79059 0.01260
1797.50482 0.01285
1796.21905 0.01316
1794.93328 0.01337
1793.64751 0.01344
1792.36174 0.01347
1791.07598 0.01357
1789.79021 0.01370
1788.50444 0.01375
1787.21867 0.01370
1785.93290 0.01360
1784.64713 0.01353
1783.36136 0.01357
1782.07559 0.01364
1780.78983 0.01370
1779.50406 0.01371
1778.21829 0.01367
1776.93252 0.01364
1775.64675 0.01365
1774.36098 0.01363
1773.07521 0.01359
1771.78944 0.01362
1770.50367 0.01365
1769.21791 0.01353
1767.93214 0.01331
1766.64637 0.01318
1765.36060 0.01319
1764.07483 0.01327
1762.78906 0.01338
1761.50329 0.01352
1760.21752 0.01358
1758.93176 0.01343
1757.64599 0.01312
1756.36022 0.01291
1755.07445 0.01292
1753.78868 0.01303
1752.50291 0.01310
1751.21714 0.01317
1749.93137 0.01327
1748.64560 0.01332
1747.35984 0.01327
1746.07407 0.01319
1744.78830 0.01317
1743.50253 0.01323
1742.21676 0.01331
1740.93099 0.01336
1739.64522 0.01349
1738.35945 0.01379
1737.07369 0.01410
1735.78792 0.01416
1734.50215 0.01407
1733.21638 0.01404
1731.93061 0.01401
1730.64484 0.01379
1729.35907 0.01347
1728.07330 0.01329
1726.78753 0.01329
1725.50177 0.01336
1724.21600 0.01350
1722.93023 0.01379
1721.64446 0.01425
1720.35869 0.01466
1719.07292 0.01486
1717.78715 0.01492
1716.50138 0.01500
1715.21561 0.01511
1713.92985 0.01522
1712.64408 0.01539
1711.35831 0.01571
1710.07254 0.01616
1708.78677 0.01667
1707.50100 0.01714
1706.21523 0.01760
1704.92946 0.01820
1703.64370 0.01896
1702.35793 0.01962
1701.07216 0.02021
1699.78639 0.02101
1698.50062 0.02186
1697.21485 0.02237
1695.92908 0.02264
1694.64331 0.02306
1693.35754 0.02354
1692.07178 0.02379
1690.78601 0.02400
1689.50024 0.02454
1688.21447 0.02542
1686.92870 0.02625
1685.64293 0.02681
1684.35716 0.02730
1683.07139 0.02788
1681.78563 0.02842
1680.49986 0.02884
1679.21409 0.02933
1677.92832 0.02996
1676.64255 0.03056
1675.35678 0.03114
1674.07101 0.03178
1672.78524 0.03240
1671.49947 0.03290
1670.21371 0.03338
1668.92794 0.03395
1667.64217 0.03460
1666.35640 0.03520
1665.07063 0.03568
1663.78486 0.03613
1662.49909 0.03662
1661.21332 0.03713
1659.92756 0.03765
1658.64179 0.03830
1657.35602 0.03923
1656.07025 0.04022
1654.78448 0.04086
1653.49871 0.04117
1652.21294 0.04150
1650.92717 0.04183
1649.64140 0.04182
1648.35564 0.04147
1647.06987 0.04116
1645.78410 0.04112
1644.49833 0.04121
1643.21256 0.04119
1641.92679 0.04102
1640.64102 0.04085
1639.35525 0.04079
1638.06949 0.04069
1636.78372 0.04043
1635.49795 0.04008
1634.21218 0.03974
1632.92641 0.03935
1631.64064 0.03889
1630.35487 0.03847
1629.06910 0.03818
1627.78333 0.03800
1626.49757 0.03776
1625.21180 0.03735
1623.92603 0.03684
1622.64026 0.03646
1621.35449 0.03632
1620.06872 0.03627
1618.78295 0.03607
1617.49718 0.03575
1616.21142 0.03550
1614.92565 0.03539
1613.63988 0.03523
1612.35411 0.03499
1611.06834 0.03481
1609.78257 0.03477
1608.49680 0.03481
1607.21103 0.03488
1605.92526 0.03495
1604.63950 0.03503
1603.35373 0.03513
1602.06796 0.03526
1600.78219 0.03540
1599.49642 0.03556
1598.21065 0.03573
1596.92488 0.03593
1595.63911 0.03617
1594.35335 0.03649
1593.06758 0.03686
1591.78181 0.03720
1590.49604 0.03748
1589.21027 0.03769
1587.92450 0.03791
1586.63873 0.03814
1585.35296 0.03841
1584.06719 0.03871
1582.78143 0.03912
1581.49566 0.03974
1580.20989 0.04058
1578.92412 0.04143
1577.63835 0.04204
1576.35258 0.04250
1575.06681 0.04306
1573.78104 0.04369
1572.49528 0.04417
1571.20951 0.04448
1569.92374 0.04480
1568.63797 0.04522
1567.35220 0.04566
1566.06643 0.04605
1564.78066 0.04654
1563.49489 0.04723
1562.20912 0.04794
1560.92336 0.04840
1559.63759 0.04866
1558.35182 0.04896
1557.06605 0.04922
1555.78028 0.04921
1554.49451 0.04898
1553.20874 0.04880
1551.92297 0.04870
1550.63721 0.04859
1549.35144 0.04851
1548.06567 0.04849
1546.77990 0.04847
1545.49413 0.04844
1544.20836 0.04841
1542.92259 0.04830
1541.63682 0.04794
1540.35105 0.04736
1539.06529 0.04678
1537.77952 0.04631
1536.49375 0.04580
1535.20798 0.04515
1533.92221 0.04459
1532.63644 0.04430
1531.35067 0.04421
1530.06490 0.04415
1528.77914 0.04408
1527.49337 0.04408
1526.20760 0.04424
1524.92183 0.04454
1523.63606 0.04482
1522.35029 0.04499
1521.06452 0.04519
1519.77875 0.04548
1518.49298 0.04570
1517.20722 0.04584
1515.92145 0.04608
1514.63568 0.04649
1513.34991 0.04701
1512.06414 0.04771
1510.77837 0.04862
1509.49260 0.04957
1508.20683 0.05031
1506.92107 0.05084
1505.63530 0.05132
1504.34953 0.05180
1503.06376 0.05215
1501.77799 0.05245
1500.49222 0.05289
1499.20645 0.05344
1497.92068 0.05392
1496.63491 0.05427
1495.34915 0.05461
1494.06338 0.05498
1492.77761 0.05530
1491.49184 0.05560
1490.20607 0.05600
1488.92030 0.05652
1487.63453 0.05706
1486.34876 0.05755
1485.06299 0.05801
1483.77723 0.05848
1482.49146 0.05902
1481.20569 0.05973
1479.91992 0.06059
1478.63415 0.06152
1477.34838 0.06246
1476.06261 0.06338
1474.77684 0.06419
1473.49108 0.06489
1472.20531 0.06552
1470.91954 0.06613
1469.63377 0.06667
1468.34800 0.06711
1467.06223 0.06752
1465.77646 0.06798
1464.49069 0.06857
1463.20492 0.06929
1461.91916 0.07013
1460.63339 0.07105
1459.34762 0.07194
1458.06185 0.07274
1456.77608 0.07352
1455.49031 0.07431
1454.20454 0.07491
1452.91877 0.07526
1451.63301 0.07550
1450.34724 0.07574
1449.06147 0.07592
1447.77570 0.07603
1446.48993 0.07607
1445.20416 0.07605
1443.91839 0.07599
1442.63262 0.07593
1441.34685 0.07593
1440.06109 0.07592
1438.77532 0.07579
1437.48955 0.07558
1436.20378 0.07548
1434.91801 0.07558
1433.63224 0.07581
1432.34647 0.07613
1431.06070 0.07658
1429.77494 0.07717
1428.48917 0.07788
1427.20340 0.07868
1425.91763 0.07958
1424.63186 0.08059
1423.34609 0.08170
1422.06032 0.08273
1420.77455 0.08359
1419.48878 0.08436
1418.20302 0.08516
1416.91725 0.08592
1415.63148 0.08647
1414.34571 0.08684
1413.05994 0.08710
1411.77417 0.08725
1410.48840 0.08726
1409.20263 0.08710
1407.91687 0.08674
1406.63110 0.08618
1405.34533 0.08543
1404.05956 0.08454
1402.77379 0.08355
1401.48802 0.08244
1400.20225 0.08125
1398.91648 0.08001
1397.63071 0.07871
1396.34495 0.07726
1395.05918 0.07566
1393.77341 0.07401
1392.48764 0.07240
1391.20187 0.07081
1389.91610 0.06924
1388.63033 0.06771
1387.34456 0.06623
1386.05880 0.06479
1384.77303 0.06333
1383.48726 0.06184
1382.20149 0.06034
1380.91572 0.05888
1379.62995 0.05748
1378.34418 0.05611
1377.05841 0.05472
1375.77264 0.05327
1374.48688 0.05176
1373.20111 0.05025
1371.91534 0.04876
1370.62957 0.04730
1369.34380 0.04587
1368.05803 0.04451
1366.77226 0.04325
1365.48649 0.04208
1364.20073 0.04098
1362.91496 0.03994
1361.62919 0.03897
1360.34342 0.03808
1359.05765 0.03727
1357.77188 0.03655
1356.48611 0.03590
1355.20034 0.03526
1353.91457 0.03461
1352.62881 0.03397
1351.34304 0.03340
1350.05727 0.03295
1348.77150 0.03258
1347.48573 0.03223
1346.19996 0.03187
1344.91419 0.03153
1343.62842 0.03121
1342.34266 0.03093
1341.05689 0.03064
1339.77112 0.03036
1338.48535 0.03007
1337.19958 0.02978
1335.91381 0.02947
1334.62804 0.02918
1333.34227 0.02892
1332.05650 0.02867
1330.77074 0.02838
1329.48497 0.02804
1328.19920 0.02764
1326.91343 0.02723
1325.62766 0.02685
1324.34189 0.02654
1323.05612 0.02629
1321.77035 0.02608
1320.48459 0.02586
1319.19882 0.02561
1317.91305 0.02536
1316.62728 0.02513
1315.34151 0.02494
1314.05574 0.02478
1312.76997 0.02464
1311.48420 0.02450
1310.19843 0.02435
1308.91267 0.02419
1307.62690 0.02401
1306.34113 0.02383
1305.05536 0.02364
1303.76959 0.02342
1302.48382 0.02317
1301.19805 0.02291
1299.91228 0.02265
1298.62652 0.02241
1297.34075 0.02218
1296.05498 0.02199
1294.76921 0.02183
1293.48344 0.02171
1292.19767 0.02161
1290.91190 0.02153
1289.62613 0.02143
1288.34036 0.02130
1287.05460 0.02114
1285.76883 0.02097
1284.48306 0.02084
1283.19729 0.02077
1281.91152 0.02073
1280.62575 0.02068
1279.33998 0.02059
1278.05421 0.02046
1276.76845 0.02029
1275.48268 0.02013
1274.19691 0.01999
1272.91114 0.01988
1271.62537 0.01978
1270.33960 0.01970
1269.05383 0.01967
1267.76806 0.01971
1266.48229 0.01979
1265.19653 0.01988
1263.91076 0.01990
1262.62499 0.01986
1261.33922 0.01976
1260.05345 0.01963
1258.76768 0.01951
1257.48191 0.01943
1256.19614 0.01936
1254.91037 0.01928
1253.62461 0.01918
1252.33884 0.01907
1251.05307 0.01897
1249.76730 0.01891
1248.48153 0.01888
1247.19576 0.01889
1245.90999 0.01892
1244.62422 0.01897
1243.33846 0.01900
1242.05269 0.01899
1240.76692 0.01895
1239.48115 0.01887
1238.19538 0.01880
1236.90961 0.01873
1235.62384 0.01866
1234.33807 0.01858
1233.05230 0.01850
1231.76654 0.01843
1230.48077 0.01835
1229.19500 0.01823
1227.90923 0.01804
1226.62346 0.01785
1225.33769 0.01774
1224.05192 0.01769
1222.76615 0.01764
1221.48039 0.01751
1220.19462 0.01732
1218.90885 0.01712
1217.62308 0.01696
1216.33731 0.01685
1215.05154 0.01678
1213.76577 0.01674
1212.48000 0.01672
1211.19423 0.01669
1209.90847 0.01665
1208.62270 0.01660
1207.33693 0.01658
1206.05116 0.01661
1204.76539 0.01666
1203.47962 0.01670
1202.19385 0.01664
1200.90808 0.01642
1199.62232 0.01626
1198.33655 0.01625
1197.05078 0.01621
1195.76501 0.01611
1194.47924 0.01598
1193.19347 0.01586
1191.90770 0.01576
1190.62193 0.01570
1189.33616 0.01569
1188.05040 0.01570
1186.76463 0.01570
1185.47886 0.01566
1184.19309 0.01560
1182.90732 0.01555
1181.62155 0.01555
1180.33578 0.01560
1179.05001 0.01565
1177.76425 0.01568
1176.47848 0.01573
1175.19271 0.01581
1173.90694 0.01593
1172.62117 0.01606
1171.33540 0.01618
1170.04963 0.01627
1168.76386 0.01638
1167.47809 0.01652
1166.19233 0.01667
1164.90656 0.01681
1163.62079 0.01692
1162.33502 0.01701
1161.04925 0.01709
1159.76348 0.01712
1158.47771 0.01714
1157.19194 0.01720
1155.90618 0.01734
1154.62041 0.01750
1153.33464 0.01764
1152.04887 0.01772
1150.76310 0.01777
1149.47733 0.01783
1148.19156 0.01795
1146.90579 0.01815
1145.62002 0.01844
1144.33426 0.01880
1143.04849 0.01922
1141.76272 0.01971
1140.47695 0.02030
1139.19118 0.02098
1137.90541 0.02173
1136.61964 0.02258
1135.33387 0.02354
1134.04811 0.02459
1132.76234 0.02570
1131.47657 0.02685
1130.19080 0.02810
1128.90503 0.02952
1127.61926 0.03116
1126.33349 0.03301
1125.04772 0.03507
1123.76195 0.03730
1122.47619 0.03964
1121.19042 0.04199
1119.90465 0.04432
1118.61888 0.04664
1117.33311 0.04900
1116.04734 0.05141
1114.76157 0.05386
1113.47580 0.05628
1112.19004 0.05861
1110.90427 0.06080
1109.61850 0.06293
1108.33273 0.06505
1107.04696 0.06720
1105.76119 0.06935
1104.47542 0.07145
1103.18965 0.07346
1101.90388 0.07533
1100.61812 0.07706
1099.33235 0.07873
1098.04658 0.08046
1096.76081 0.08225
1095.47504 0.08401
1094.18927 0.08560
1092.90350 0.08697
1091.61773 0.08815
1090.33197 0.08921
1089.04620 0.09025
1087.76043 0.09133
1086.47466 0.09246
1085.18889 0.09365
1083.90312 0.09489
1082.61735 0.09617
1081.33158 0.09750
1080.04581 0.09888
1078.76005 0.10036
1077.47428 0.10202
1076.18851 0.10385
1074.90274 0.10582
1073.61697 0.10784
1072.33120 0.10990
1071.04543 0.11202
1069.75966 0.11419
1068.47390 0.11636
1067.18813 0.11853
1065.90236 0.12074
1064.61659 0.12303
1063.33082 0.12544
1062.04505 0.12789
1060.75928 0.13033
1059.47351 0.13270
1058.18774 0.13497
1056.90198 0.13715
1055.61621 0.13929
1054.33044 0.14143
1053.04467 0.14356
1051.75890 0.14564
1050.47313 0.14769
1049.18736 0.14976
1047.90159 0.15191
1046.61583 0.15413
1045.33006 0.15638
1044.04429 0.15866
1042.75852 0.16091
1041.47275 0.16310
1040.18698 0.16524
1038.90121 0.16738
1037.61544 0.16957
1036.32967 0.17182
1035.04391 0.17408
1033.75814 0.17625
1032.47237 0.17825
1031.18660 0.18002
1029.90083 0.18161
1028.61506 0.18306
1027.32929 0.18441
1026.04352 0.18560
1024.75775 0.18655
1023.47199 0.18726
1022.18622 0.18774
1020.90045 0.18803
1019.61468 0.18808
1018.32891 0.18786
1017.04314 0.18736
1015.75737 0.18660
1014.47160 0.18557
1013.18584 0.18423
1011.90007 0.18254
1010.61430 0.18051
1009.32853 0.17818
1008.04276 0.17561
1006.75699 0.17284
1005.47122 0.16987
1004.18545 0.16670
1002.89968 0.16331
1001.61392 0.15973
1000.32815 0.15599
999.04238 0.15209
997.75661 0.14803
996.47084 0.14388
995.18507 0.13974
993.89930 0.13567
992.61353 0.13160
991.32777 0.12743
990.04200 0.12319
988.75623 0.11898
987.47046 0.11494
986.18469 0.11112
984.89892 0.10751
983.61315 0.10405
982.32738 0.10075
981.04161 0.09759
979.75585 0.09459
978.47008 0.09178
977.18431 0.08917
975.89854 0.08678
974.61277 0.08469
973.32700 0.08300
972.04123 0.08181
970.75546 0.08108
969.46970 0.08071
968.18393 0.08062
966.89816 0.08080
965.61239 0.08122
964.32662 0.08179
963.04085 0.08230
961.75508 0.08253
960.46931 0.08235
959.18354 0.08173
957.89778 0.08070
956.61201 0.07937
955.32624 0.07786
954.04047 0.07625
952.75470 0.07459
951.46893 0.07289
950.18316 0.07114
948.89739 0.06938
947.61163 0.06767
946.32586 0.06611
945.04009 0.06474
943.75432 0.06349
942.46855 0.06227
941.18278 0.06098
939.89701 0.05965
938.61124 0.05835
937.32547 0.05712
936.03971 0.05596
934.75394 0.05487
933.46817 0.05387
932.18240 0.05297
930.89663 0.05216
929.61086 0.05136
928.32509 0.05052
927.03932 0.04966
925.75356 0.04883
924.46779 0.04809
923.18202 0.04749
921.89625 0.04698
920.61048 0.04650
919.32471 0.04593
918.03894 0.04528
916.75317 0.04466
915.46740 0.04419
914.18164 0.04386
912.89587 0.04354
911.61010 0.04310
910.32433 0.04251
909.03856 0.04190
907.75279 0.04137
906.46702 0.04096
905.18125 0.04061
903.89549 0.04025
902.60972 0.03985
901.32395 0.03942
900.03818 0.03902
898.75241 0.03869
897.46664 0.03840
896.18087 0.03810
894.89510 0.03776
893.60933 0.03744
892.32357 0.03722
891.03780 0.03711
889.75203 0.03707
888.46626 0.03711
887.18049 0.03733
885.89472 0.03788
884.60895 0.03887
883.32318 0.04038
882.03742 0.04232
880.75165 0.04440
879.46588 0.04625
878.18011 0.04769
876.89434 0.04881
875.60857 0.04984
874.32280 0.05093
873.03703 0.05194
871.75126 0.05262
870.46550 0.05279
869.17973 0.05241
867.89396 0.05155
866.60819 0.05026
865.32242 0.04859
864.03665 0.04667
862.75088 0.04468
861.46511 0.04274
860.17935 0.04095
858.89358 0.03941
857.60781 0.03821
856.32204 0.03733
855.03627 0.03662
853.75050 0.03594
852.46473 0.03530
851.17896 0.03474
849.89319 0.03428
848.60743 0.03386
847.32166 0.03345
846.03589 0.03303
844.75012 0.03262
843.46435 0.03221
842.17858 0.03185
840.89281 0.03157
839.60704 0.03137
838.32128 0.03119
837.03551 0.03099
835.74974 0.03071
834.46397 0.03038
833.17820 0.03006
831.89243 0.02977
830.60666 0.02956
829.32089 0.02946
828.03512 0.02944
826.74936 0.02944
825.46359 0.02940
824.17782 0.02929
822.89205 0.02917
821.60628 0.02906
820.32051 0.02897
819.03474 0.02888
817.74897 0.02877
816.46321 0.02861
815.17744 0.02841
813.89167 0.02820
812.60590 0.02805
811.32013 0.02800
810.03436 0.02801
808.74859 0.02803
807.46282 0.02803
806.17705 0.02803
804.89129 0.02806
803.60552 0.02816
802.31975 0.02834
801.03398 0.02857
799.74821 0.02879
798.46244 0.02890
797.17667 0.02888
795.89090 0.02879
794.60513 0.02871
793.31937 0.02869
792.03360 0.02874
790.74783 0.02888
789.46206 0.02904
788.17629 0.02915
786.89052 0.02914
785.60475 0.02908
784.31898 0.02904
783.03322 0.02903
781.74745 0.02900
780.46168 0.02894
779.17591 0.02884
777.89014 0.02875
776.60437 0.02870
775.31860 0.02872
774.03283 0.02879
772.74706 0.02886
771.46130 0.02891
770.17553 0.02892
768.88976 0.02893
767.60399 0.02895
766.31822 0.02899
765.03245 0.02904
763.74668 0.02907
762.46091 0.02909
761.17515 0.02911
759.88938 0.02912
758.60361 0.02910
757.31784 0.02904
756.03207 0.02896
754.74630 0.02890
753.46053 0.02887
752.17476 0.02885
750.88899 0.02876
749.60323 0.02859
748.31746 0.02839
747.03169 0.02825
745.74592 0.02820
744.46015 0.02822
743.17438 0.02821
741.88861 0.02808
740.60284 0.02786
739.31708 0.02765
738.03131 0.02753
736.74554 0.02749
735.45977 0.02748
734.17400 0.02752
732.88823 0.02760
731.60246 0.02763
730.31669 0.02753
729.03092 0.02732
727.74516 0.02712
726.45939 0.02701
725.17362 0.02702
723.88785 0.02732
722.60208 0.02727
721.31631 0.02729
720.03054 0.02740
718.74477 0.02748
717.45901 0.02752
716.17324 0.02750
714.88747 0.02743
713.60170 0.02730
712.31593 0.02718
711.03016 0.02711
709.74439 0.02709
708.45862 0.02706
707.17285 0.02697
705.88709 0.02684
704.60132 0.02676
703.31555 0.02677
702.02978 0.02687
700.74401 0.02698
699.45824 0.02705
698.17247 0.02707
696.88670 0.02703
695.60094 0.02693
694.31517 0.02682
693.02940 0.02677
691.74363 0.02680
690.45786 0.02685
689.17209 0.02684
687.88632 0.02676
686.60055 0.02665
685.31478 0.02655
684.02902 0.02643
682.74325 0.02626
681.45748 0.02607
680.17171 0.02593
678.88594 0.02588
677.60017 0.02588
676.31440 0.02590
675.02863 0.02593
673.74287 0.02602
672.45710 0.02617
671.17133 0.02636
669.88556 0.02654
668.59979 0.02667
667.31402 0.02679
666.02825 0.02677
664.74248 0.02666
663.45671 0.02649
662.17095 0.02632
660.88518 0.02619
659.59941 0.02610
658.31364 0.02600
657.02787 0.02585
655.74210 0.02567
654.45633 0.02551
653.17056 0.02537
651.88480 0.02522
650.59903 0.02503
649.31326 0.02485
648.02749 0.02473
646.74172 0.02469
645.45595 0.02470
644.17018 0.02470
642.88441 0.02462
641.59864 0.02448
640.31288 0.02434
639.02711 0.02430
637.74134 0.02437
636.45557 0.02456
635.16980 0.02483
633.88403 0.02519
632.59826 0.02548
631.31249 0.02530
630.02673 0.02555
628.74096 0.02842
627.45519 0.02935
626.16942 0.03394
624.88365 0.04090
623.59788 0.04705
622.31211 0.05104
621.02634 0.05287
619.74057 0.05289
618.45481 0.05117
617.16904 0.04806
615.88327 0.04492
614.59750 0.04387
613.31173 0.04650
612.02596 0.05258
610.74019 0.06019
609.45442 0.06725
608.16866 0.07309
606.88289 0.07813
605.59712 0.08246
604.31135 0.08548
603.02558 0.08650
601.73981 0.08538
600.45404 0.08264
599.16827 0.07914
597.88250 0.07567
596.59674 0.07267
595.31097 0.07019
594.02520 0.06808
592.73943 0.06621
591.45366 0.06461
590.16789 0.06341
588.88212 0.06273
587.59635 0.06267
586.31059 0.06327
585.02482 0.06452
583.73905 0.06632
582.45328 0.06849
581.16751 0.07083
579.88174 0.07314
578.59597 0.07528
577.31020 0.07714
576.02443 0.07877
574.73867 0.08027
573.45290 0.08183
572.16713 0.08360
570.88136 0.08574
569.59559 0.08828
568.30982 0.09106
567.02405 0.09379
565.73828 0.09620
564.45251 0.09810
563.16675 0.09932
561.88098 0.09962
560.59521 0.09879
559.30944 0.09680
558.02367 0.09378
556.73790 0.08996
555.45213 0.08558
554.16636 0.08092
552.88060 0.07633
551.59483 0.07210
550.30906 0.06830
549.02329 0.06481
547.73752 0.06156
546.45175 0.05863
545.16598 0.05619
543.88021 0.05424
542.59444 0.05262
541.30868 0.05109
540.02291 0.04951
538.73714 0.04796
537.45137 0.04654
536.16560 0.04529
534.87983 0.04418
533.59406 0.04315
532.30829 0.04219
531.02253 0.04134
529.73676 0.04057
528.45099 0.03980
527.16522 0.03893
525.87945 0.03801
524.59368 0.03715
523.30791 0.03645
522.02214 0.03583
520.73637 0.03517
519.45061 0.03437
518.16484 0.03347
516.87907 0.03263
515.59330 0.03195
514.30753 0.03144
513.02176 0.03103
511.73599 0.03065
510.45022 0.03026
509.16446 0.02984
507.87869 0.02940
506.59292 0.02898
505.30715 0.02864
504.02138 0.02840
502.73561 0.02822
501.44984 0.02800
500.16407 0.02768
498.87830 0.02725
497.59254 0.02677
496.30677 0.02634
495.02100 0.02604
493.73523 0.02589
492.44946 0.02585
491.16369 0.02585
489.87792 0.02583
488.59215 0.02574
487.30639 0.02556
486.02062 0.02533
484.73485 0.02512
483.44908 0.02500
482.16331 0.02499
480.87754 0.02506
479.59177 0.02517
478.30600 0.02529
477.02023 0.02545
475.73447 0.02565
474.44870 0.02592
473.16293 0.02619
471.87716 0.02639
470.59139 0.02647
469.30562 0.02645
468.01985 0.02642
466.73408 0.02638
465.44832 0.02627
464.16255 0.02598
462.87678 0.02553
461.59101 0.02505
460.30524 0.02465
459.01947 0.02439
457.73370 0.02420
456.44793 0.02400
455.16216 0.02372
453.87640 0.02339
452.59063 0.02309
451.30486 0.02286
450.01909 0.02266
448.73332 0.02244
447.44755 0.02220
446.16178 0.02197
444.87601 0.02180
443.59025 0.02169
442.30448 0.02164
441.01871 0.02161
439.73294 0.02157
438.44717 0.02149
437.16140 0.02142
435.87563 0.02137
434.58986 0.02133
433.30409 0.02126
432.01833 0.02114
430.73256 0.02101
429.44679 0.02092
428.16102 0.02088
426.87525 0.02083
425.58948 0.02075
424.30371 0.02065
423.01794 0.02060
421.73218 0.02060
420.44641 0.02061
419.16064 0.02058
417.87487 0.02047
416.58910 0.02028
415.30333 0.02002
414.01756 0.01976
412.73179 0.01953
411.44602 0.01936
410.16026 0.01923
408.87449 0.01913
407.58872 0.01906
406.30295 0.01902
405.01718 0.01905
403.73141 0.01916
402.44564 0.01932
401.15987 0.01953
399.87411 0.01973
