3997.45528 0.01541
3996.16951 0.01616
3994.88374 0.01688
3993.59798 0.01708
3992.31221 0.01666
3991.02644 0.01604
3989.74067 0.01585
3988.45490 0.01644
3987.16913 0.01755
3985.88336 0.01845
3984.59759 0.01854
3983.31183 0.01795
3982.02606 0.01729
3980.74029 0.01692
3979.45452 0.01663
3978.16875 0.01613
3976.88298 0.01561
3975.59721 0.01559
3974.31144 0.01628
3973.02567 0.01722
3971.73991 0.01769
3970.45414 0.01736
3969.16837 0.01650
3967.88260 0.01564
3966.59683 0.01509
3965.31106 0.01484
3964.02529 0.01462
3962.73952 0.01428
3961.45376 0.01401
3960.16799 0.01421
3958.88222 0.01517
3957.59645 0.01672
3956.31068 0.01821
3955.02491 0.01886
3953.73914 0.01837
3952.45337 0.01727
3951.16760 0.01643
3949.88184 0.01638
3948.59607 0.01693
3947.31030 0.01758
3946.02453 0.01799
3944.73876 0.01809
3943.45299 0.01801
3942.16722 0.01781
3940.88145 0.01737
3939.59569 0.01656
3938.30992 0.01556
3937.02415 0.01478
3935.73838 0.01453
3934.45261 0.01469
3933.16684 0.01498
3931.88107 0.01532
3930.59530 0.01578
3929.30953 0.01635
3928.02377 0.01679
3926.73800 0.01688
3925.45223 0.01662
3924.16646 0.01614
3922.88069 0.01552
3921.59492 0.01500
3920.30915 0.01513
3919.02338 0.01631
3917.73762 0.01817
3916.45185 0.01973
3915.16608 0.02036
3913.88031 0.02035
3912.59454 0.02048
3911.30877 0.02104
3910.02300 0.02162
3908.73723 0.02174
3907.45146 0.02146
3906.16570 0.02129
3904.87993 0.02158
3903.59416 0.02203
3902.30839 0.02187
3901.02262 0.02065
3899.73685 0.01883
3898.45108 0.01736
3897.16531 0.01677
3895.87955 0.01690
3894.59378 0.01736
3893.30801 0.01796
3892.02224 0.01862
3890.73647 0.01916
3889.45070 0.01932
3888.16493 0.01902
3886.87916 0.01858
3885.59339 0.01834
3884.30763 0.01818
3883.02186 0.01771
3881.73609 0.01700
3880.45032 0.01660
3879.16455 0.01698
3877.87878 0.01794
3876.59301 0.01893
3875.30724 0.01951
3874.02148 0.01954
3872.73571 0.01898
3871.44994 0.01800
3870.16417 0.01708
3868.87840 0.01675
3867.59263 0.01697
3866.30686 0.01729
3865.02109 0.01728
3863.73532 0.01681
3862.44956 0.01606
3861.16379 0.01552
3859.87802 0.01557
3858.59225 0.01616
3857.30648 0.01696
3856.02071 0.01773
3854.73494 0.01853
3853.44917 0.01949
3852.16341 0.02033
3850.87764 0.02040
3849.59187 0.01950
3848.30610 0.01815
3847.02033 0.01707
3845.73456 0.01668
3844.44879 0.01681
3843.16302 0.01705
3841.87725 0.01711
3840.59149 0.01695
3839.30572 0.01678
3838.01995 0.01680
3836.73418 0.01695
3835.44841 0.01698
3834.16264 0.01679
3832.87687 0.01650
3831.59110 0.01619
3830.30534 0.01575
3829.01957 0.01517
3827.73380 0.01469
3826.44803 0.01462
3825.16226 0.01503
3823.87649 0.01572
3822.59072 0.01653
3821.30495 0.01742
3820.01918 0.01815
3818.73342 0.01832
3817.44765 0.01784
3816.16188 0.01720
3814.87611 0.01676
3813.59034 0.01627
3812.30457 0.01553
3811.01880 0.01487
3809.73303 0.01472
3808.44726 0.01519
3807.16150 0.01604
3805.87573 0.01689
3804.58996 0.01727
3803.30419 0.01710
3802.01842 0.01690
3800.73265 0.01708
3799.44688 0.01743
3798.16111 0.01743
3796.87535 0.01712
3795.58958 0.01690
3794.30381 0.01693
3793.01804 0.01709
3791.73227 0.01716
3790.44650 0.01711
3789.16073 0.01713
3787.87496 0.01747
3786.58919 0.01806
3785.30343 0.01835
3784.01766 0.01786
3782.73189 0.01676
3781.44612 0.01582
3780.16035 0.01566
3778.87458 0.01620
3777.58881 0.01684
3776.30304 0.01698
3775.01728 0.01647
3773.73151 0.01559
3772.44574 0.01487
3771.15997 0.01480
3769.87420 0.01532
3768.58843 0.01591
3767.30266 0.01623
3766.01689 0.01653
3764.73112 0.01713
3763.44536 0.01765
3762.15959 0.01734
3760.87382 0.01605
3759.58805 0.01446
3758.30228 0.01339
3757.01651 0.01324
3755.73074 0.01386
3754.44497 0.01488
3753.15921 0.01601
3751.87344 0.01704
3750.58767 0.01771
3749.30190 0.01797
3748.01613 0.01798
3746.73036 0.01793
3745.44459 0.01800
3744.15882 0.01831
3742.87305 0.01852
3741.58729 0.01815
3740.30152 0.01735
3739.01575 0.01672
3737.72998 0.01643
3736.44421 0.01617
3735.15844 0.01565
3733.87267 0.01498
3732.58690 0.01465
3731.30114 0.01504
3730.01537 0.01576
3728.72960 0.01610
3727.44383 0.01603
3726.15806 0.01616
3724.87229 0.01671
3723.58652 0.01714
3722.30075 0.01692
3721.01498 0.01612
3719.72922 0.01529
3718.44345 0.01492
3717.15768 0.01509
3715.87191 0.01551
3714.58614 0.01570
3713.30037 0.01547
3712.01460 0.01514
3710.72883 0.01528
3709.44307 0.01613
3708.15730 0.01731
3706.87153 0.01812
3705.58576 0.01813
3704.29999 0.01769
3703.01422 0.01754
3701.72845 0.01806
3700.44268 0.01875
3699.15691 0.01879
3697.87115 0.01787
3696.58538 0.01650
3695.29961 0.01545
3694.01384 0.01497
3692.72807 0.01486
3691.44230 0.01476
3690.15653 0.01435
3688.87076 0.01365
3687.58500 0.01306
3686.29923 0.01318
3685.01346 0.01427
3683.72769 0.01590
3682.44192 0.01713
3681.15615 0.01728
3679.87038 0.01659
3678.58461 0.01589
3677.29884 0.01561
3676.01308 0.01561
3674.72731 0.01558
3673.44154 0.01536
3672.15577 0.01514
3670.87000 0.01528
3669.58423 0.01571
3668.29846 0.01589
3667.01269 0.01558
3665.72693 0.01526
3664.44116 0.01534
3663.15539 0.01570
3661.86962 0.01601
3660.58385 0.01618
3659.29808 0.01631
3658.01231 0.01639
3656.72654 0.01642
3655.44077 0.01650
3654.15501 0.01666
3652.86924 0.01664
3651.58347 0.01614
3650.29770 0.01517
3649.01193 0.01419
3647.72616 0.01381
3646.44039 0.01428
3645.15462 0.01519
3643.86886 0.01590
3642.58309 0.01618
3641.29732 0.01643
3640.01155 0.01709
3638.72578 0.01800
3637.44001 0.01840
3636.15424 0.01764
3634.86847 0.01596
3633.58270 0.01441
3632.29694 0.01388
3631.01117 0.01434
3629.72540 0.01514
3628.43963 0.01573
3627.15386 0.01594
3625.86809 0.01593
3624.58232 0.01598
3623.29655 0.01616
3622.01079 0.01635
3620.72502 0.01659
3619.43925 0.01708
3618.15348 0.01783
3616.86771 0.01860
3615.58194 0.01919
3614.29617 0.01960
3613.01040 0.01990
3611.72463 0.02003
3610.43887 0.01996
3609.15310 0.01985
3607.86733 0.02003
3606.58156 0.02057
3605.29579 0.02119
3604.01002 0.02150
3602.72425 0.02134
3601.43848 0.02091
3600.15272 0.02051
3598.86695 0.02038
3597.58118 0.02056
3596.29541 0.02093
3595.00964 0.02126
3593.72387 0.02134
3592.43810 0.02121
3591.15233 0.02119
3589.86656 0.02161
3588.58080 0.02222
3587.29503 0.02228
3586.00926 0.02131
3584.72349 0.01968
3583.43772 0.01825
3582.15195 0.01769
3580.86618 0.01807
3579.58041 0.01896
3578.29464 0.01988
3577.00888 0.02062
3575.72311 0.02118
3574.43734 0.02161
3573.15157 0.02191
3571.86580 0.02205
3570.58003 0.02194
3569.29426 0.02150
3568.00849 0.02081
3566.72273 0.02018
3565.43696 0.01994
3564.15119 0.02009
3562.86542 0.02034
3561.57965 0.02048
3560.29388 0.02052
3559.00811 0.02066
3557.72234 0.02103
3556.43657 0.02151
3555.15081 0.02181
3553.86504 0.02167
3552.57927 0.02111
3551.29350 0.02038
3550.00773 0.01988
3548.72196 0.01990
3547.43619 0.02051
3546.15042 0.02136
3544.86466 0.02198
3543.57889 0.02214
3542.29312 0.02201
3541.00735 0.02191
3539.72158 0.02192
3538.43581 0.02186
3537.15004 0.02149
3535.86427 0.02086
3534.57850 0.02034
3533.29274 0.02034
3532.00697 0.02092
3530.72120 0.02176
3529.43543 0.02248
3528.14966 0.02299
3526.86389 0.02342
3525.57812 0.02382
3524.29235 0.02404
3523.00659 0.02394
3521.72082 0.02350
3520.43505 0.02284
3519.14928 0.02205
3517.86351 0.02136
3516.57774 0.02105
3515.29197 0.02129
3514.00620 0.02198
3512.72043 0.02284
3511.43467 0.02360
3510.14890 0.02399
3508.86313 0.02394
3507.57736 0.02364
3506.29159 0.02343
3505.00582 0.02342
3503.72005 0.02341
3502.43428 0.02317
3501.14852 0.02269
3499.86275 0.02225
3498.57698 0.02208
3497.29121 0.02220
3496.00544 0.02247
3494.71967 0.02279
3493.43390 0.02317
3492.14813 0.02359
3490.86236 0.02393
3489.57660 0.02413
3488.29083 0.02433
3487.00506 0.02481
3485.71929 0.02563
3484.43352 0.02657
3483.14775 0.02728
3481.86198 0.02754
3480.57621 0.02739
3479.29045 0.02701
3478.00468 0.02652
3476.71891 0.02599
3475.43314 0.02552
3474.14737 0.02524
3472.86160 0.02522
3471.57583 0.02541
3470.29006 0.02565
3469.00429 0.02577
3467.71853 0.02566
3466.43276 0.02527
3465.14699 0.02463
3463.86122 0.02399
3462.57545 0.02369
3461.28968 0.02388
3460.00391 0.02430
3458.71814 0.02452
3457.43238 0.02441
3456.14661 0.02420
3454.86084 0.02412
3453.57507 0.02421
3452.28930 0.02436
3451.00353 0.02463
3449.71776 0.02519
3448.43199 0.02600
3447.14622 0.02672
3445.86046 0.02697
3444.57469 0.02672
3443.28892 0.02641
3442.00315 0.02648
3440.71738 0.02695
3439.43161 0.02745
3438.14584 0.02767
3436.86007 0.02753
3435.57431 0.02710
3434.28854 0.02641
3433.00277 0.02569
3431.71700 0.02539
3430.43123 0.02582
3429.14546 0.02666
3427.85969 0.02715
3426.57392 0.02688
3425.28815 0.02612
3424.00239 0.02555
3422.71662 0.02555
3421.43085 0.02596
3420.14508 0.02639
3418.85931 0.02658
3417.57354 0.02662
3416.28777 0.02678
3415.00200 0.02712
3413.71624 0.02739
3412.43047 0.02726
3411.14470 0.02675
3409.85893 0.02621
3408.57316 0.02604
3407.28739 0.02643
3406.00162 0.02723
3404.71585 0.02806
3403.43008 0.02852
3402.14432 0.02861
3400.85855 0.02860
3399.57278 0.02838
3398.28701 0.02813
3397.00124 0.02827
3395.71547 0.02840
3394.42970 0.02812
3393.14393 0.02747
3391.85817 0.02693
3390.57240 0.02689
3389.28663 0.02728
3388.00086 0.02777
3386.71509 0.02825
3385.42932 0.02890
3384.14355 0.02976
3382.85778 0.03057
3381.57201 0.03104
3380.28625 0.03109
3379.00048 0.03081
3377.71471 0.03023
3376.42894 0.02944
3375.14317 0.02868
3373.85740 0.02826
3372.57163 0.02835
3371.28586 0.02882
3370.00010 0.02932
3368.71433 0.02961
3367.42856 0.02965
3366.14279 0.02957
3364.85702 0.02943
3363.57125 0.02923
3362.28548 0.02900
3360.99971 0.02885
3359.71394 0.02889
3358.42818 0.02914
3357.14241 0.02956
3355.85664 0.03005
3354.57087 0.03049
3353.28510 0.03070
3351.99933 0.03055
3350.71356 0.03011
3349.42779 0.02960
3348.14202 0.02918
3346.85626 0.02884
3345.57049 0.02863
3344.28472 0.02880
3342.99895 0.02946
3341.71318 0.03027
3340.42741 0.03061
3339.14164 0.03023
3337.85587 0.02955
3336.57011 0.02918
3335.28434 0.02938
3333.99857 0.02987
3332.71280 0.03028
3331.42703 0.03042
3330.14126 0.03033
3328.85549 0.03011
3327.56972 0.02986
3326.28395 0.02968
3324.99819 0.02958
3323.71242 0.02954
3322.42665 0.02960
3321.14088 0.02982
3319.85511 0.03018
3318.56934 0.03052
3317.28357 0.03080
3315.99780 0.03112
3314.71204 0.03160
3313.42627 0.03215
3312.14050 0.03246
3310.85473 0.03238
3309.56896 0.03202
3308.28319 0.03166
3306.99742 0.03145
3305.71165 0.03130
3304.42588 0.03111
3303.14012 0.03101
3301.85435 0.03117
3300.56858 0.03157
3299.28281 0.03194
3297.99704 0.03192
3296.71127 0.03138
3295.42550 0.03047
3294.13973 0.02960
3292.85397 0.02920
3291.56820 0.02950
3290.28243 0.03040
3288.99666 0.03152
3287.71089 0.03236
3286.42512 0.03258
3285.13935 0.03218
3283.85358 0.03157
3282.56781 0.03124
3281.28205 0.03138
3279.99628 0.03176
3278.71051 0.03202
3277.42474 0.03190
3276.13897 0.03145
3274.85320 0.03091
3273.56743 0.03056
3272.28166 0.03051
3270.99590 0.03069
3269.71013 0.03098
3268.42436 0.03136
3267.13859 0.03190
3265.85282 0.03245
3264.56705 0.03276
3263.28128 0.03276
3261.99551 0.03261
3260.70974 0.03248
3259.42398 0.03226
3258.13821 0.03177
3256.85244 0.03112
3255.56667 0.03061
3254.28090 0.03042
3252.99513 0.03043
3251.70936 0.03057
3250.42359 0.03092
3249.13783 0.03160
3247.85206 0.03242
3246.56629 0.03301
3245.28052 0.03318
3243.99475 0.03296
3242.70898 0.03250
3241.42321 0.03199
3240.13744 0.03159
3238.85167 0.03143
3237.56591 0.03141
3236.28014 0.03134
3234.99437 0.03108
3233.70860 0.03065
3232.42283 0.03018
3231.13706 0.02989
3229.85129 0.02996
3228.56552 0.03037
3227.27976 0.03085
3225.99399 0.03106
3224.70822 0.03091
3223.42245 0.03058
3222.13668 0.03039
3220.85091 0.03051
3219.56514 0.03088
3218.27937 0.03120
3216.99360 0.03124
3215.70784 0.03102
3214.42207 0.03080
3213.13630 0.03070
3211.85053 0.03065
3210.56476 0.03063
3209.27899 0.03076
3207.99322 0.03115
3206.70745 0.03161
3205.42169 0.03182
3204.13592 0.03175
3202.85015 0.03171
3201.56438 0.03199
3200.27861 0.03249
3198.99284 0.03286
3197.70707 0.03292
3196.42130 0.03271
3195.13553 0.03239
3193.84977 0.03209
3192.56400 0.03193
3191.27823 0.03196
3189.99246 0.03200
3188.70669 0.03176
3187.42092 0.03110
3186.13515 0.03029
3184.84938 0.02974
3183.56362 0.02969
3182.27785 0.03003
3180.99208 0.03052
3179.70631 0.03087
3178.42054 0.03088
3177.13477 0.03054
3175.84900 0.03006
3174.56323 0.02972
3173.27746 0.02964
3171.99170 0.02969
3170.70593 0.02961
3169.42016 0.02934
3168.13439 0.02907
3166.84862 0.02900
3165.56285 0.02909
3164.27708 0.02921
3162.99131 0.02930
3161.70555 0.02944
3160.41978 0.02969
3159.13401 0.03001
3157.84824 0.03031
3156.56247 0.03041
3155.27670 0.03020
3153.99093 0.02974
3152.70516 0.02930
3151.41939 0.02914
3150.13363 0.02929
3148.84786 0.02953
3147.56209 0.02965
3146.27632 0.02967
3144.99055 0.02983
3143.70478 0.03037
3142.41901 0.03124
3141.13324 0.03207
3139.84748 0.03248
3138.56171 0.03233
3137.27594 0.03181
3135.99017 0.03121
3134.70440 0.03076
3133.41863 0.03062
3132.13286 0.03083
3130.84709 0.03117
3129.56132 0.03122
3128.27556 0.03071
3126.98979 0.02984
3125.70402 0.02911
3124.41825 0.02892
3123.13248 0.02921
3121.84671 0.02960
3120.56094 0.02974
3119.27517 0.02963
3117.98940 0.02950
3116.70364 0.02955
3115.41787 0.02980
3114.13210 0.03013
3112.84633 0.03038
3111.56056 0.03044
3110.27479 0.03036
3108.98902 0.03021
3107.70325 0.03002
3106.41749 0.02972
3105.13172 0.02927
3103.84595 0.02886
3102.56018 0.02872
3101.27441 0.02890
3099.98864 0.02920
3098.70287 0.02941
3097.41710 0.02951
3096.13133 0.02960
3094.84557 0.02971
3093.55980 0.02979
3092.27403 0.02978
3090.98826 0.02974
3089.70249 0.02976
3088.41672 0.02982
3087.13095 0.02977
3085.84518 0.02958
3084.55942 0.02936
3083.27365 0.02938
3081.98788 0.02967
3080.70211 0.02997
3079.41634 0.03001
3078.13057 0.02978
3076.84480 0.02957
3075.55903 0.02955
3074.27326 0.02959
3072.98750 0.02943
3071.70173 0.02909
3070.41596 0.02880
3069.13019 0.02876
3067.84442 0.02885
3066.55865 0.02888
3065.27288 0.02882
3063.98711 0.02880
3062.70135 0.02885
3061.41558 0.02884
3060.12981 0.02873
3058.84404 0.02865
3057.55827 0.02866
3056.27250 0.02866
3054.98673 0.02854
3053.70096 0.02832
3052.41519 0.02812
3051.12943 0.02799
3049.84366 0.02791
3048.55789 0.02778
3047.27212 0.02754
3045.98635 0.02716
3044.70058 0.02673
3043.41481 0.02644
3042.12904 0.02642
3040.84328 0.02670
3039.55751 0.02714
3038.27174 0.02755
3036.98597 0.02782
3035.70020 0.02797
3034.41443 0.02805
3033.12866 0.02806
3031.84289 0.02802
3030.55712 0.02797
3029.27136 0.02796
3027.98559 0.02792
3026.69982 0.02776
3025.41405 0.02751
3024.12828 0.02737
3022.84251 0.02748
3021.55674 0.02776
3020.27097 0.02795
3018.98521 0.02792
3017.69944 0.02770
3016.41367 0.02739
3015.12790 0.02703
3013.84213 0.02669
3012.55636 0.02646
3011.27059 0.02642
3009.98482 0.02658
3008.69905 0.02692
3007.41329 0.02735
3006.12752 0.02769
3004.84175 0.02776
3003.55598 0.02763
3002.27021 0.02754
3000.98444 0.02750
2999.69867 0.02705
2998.41290 0.02692
2997.12714 0.02698
2995.84137 0.02721
2994.55560 0.02742
2993.26983 0.02743
2991.98406 0.02730
2990.69829 0.02725
2989.41252 0.02731
2988.12675 0.02734
2986.84098 0.02721
2985.55522 0.02706
2984.26945 0.02708
2982.98368 0.02731
2981.69791 0.02759
2980.41214 0.02775
2979.12637 0.02782
2977.84060 0.02787
2976.55483 0.02784
2975.26907 0.02768
2973.98330 0.02748
2972.69753 0.02749
2971.41176 0.02789
2970.12599 0.02855
2968.84022 0.02917
2967.55445 0.02948
2966.26868 0.02951
2964.98291 0.02950
2963.69715 0.02961
2962.41138 0.02980
2961.12561 0.02999
2959.83984 0.03024
2958.55407 0.03061
2957.26830 0.03101
2955.98253 0.03128
2954.69676 0.03140
2953.41100 0.03146
2952.12523 0.03153
2950.83946 0.03157
2949.55369 0.03159
2948.26792 0.03161
2946.98215 0.03156
2945.69638 0.03135
2944.41061 0.03097
2943.12484 0.03053
2941.83908 0.03024
2940.55331 0.03020
2939.26754 0.03045
2937.98177 0.03089
2936.69600 0.03134
2935.41023 0.03168
2934.12446 0.03192
2932.83869 0.03210
2931.55293 0.03216
2930.26716 0.03205
2928.98139 0.03190
2927.69562 0.03194
2926.40985 0.03220
2925.12408 0.03245
2923.83831 0.03245
2922.55254 0.03224
2921.26677 0.03206
2919.98101 0.03205
2918.69524 0.03210
2917.40947 0.03211
2916.12370 0.03202
2914.83793 0.03180
2913.55216 0.03143
2912.26639 0.03099
2910.98062 0.03078
2909.69486 0.03097
2908.40909 0.03142
2907.12332 0.03173
2905.83755 0.03167
2904.55178 0.03136
2903.26601 0.03105
2901.98024 0.03094
2900.69447 0.03099
2899.40870 0.03103
2898.12294 0.03090
2896.83717 0.03052
2895.55140 0.02996
2894.26563 0.02938
2892.97986 0.02895
2891.69409 0.02874
2890.40832 0.02867
2889.12255 0.02857
2887.83678 0.02834
2886.55102 0.02802
2885.26525 0.02777
2883.97948 0.02767
2882.69371 0.02772
2881.40794 0.02786
2880.12217 0.02796
2878.83640 0.02796
2877.55063 0.02792
2876.26487 0.02802
2874.97910 0.02833
2873.69333 0.02868
2872.40756 0.02887
2871.12179 0.02888
2869.83602 0.02887
2868.55025 0.02891
2867.26448 0.02885
2865.97871 0.02856
2864.69295 0.02810
2863.40718 0.02769
2862.12141 0.02750
2860.83564 0.02750
2859.54987 0.02756
2858.26410 0.02758
2856.97833 0.02753
2855.69256 0.02750
2854.40680 0.02757
2853.12103 0.02771
2851.83526 0.02780
2850.54949 0.02776
2849.26372 0.02766
2847.97795 0.02761
2846.69218 0.02761
2845.40641 0.02760
2844.12064 0.02751
2842.83488 0.02733
2841.54911 0.02707
2840.26334 0.02674
2838.97757 0.02637
2837.69180 0.02601
2836.40603 0.02569
2835.12026 0.02543
2833.83449 0.02527
2832.54873 0.02524
2831.26296 0.02522
2829.97719 0.02507
2828.69142 0.02472
2827.40565 0.02430
2826.11988 0.02402
2824.83411 0.02393
2823.54834 0.02389
2822.26257 0.02378
2820.97681 0.02362
2819.69104 0.02354
2818.40527 0.02360
2817.11950 0.02375
2815.83373 0.02391
2814.54796 0.02408
2813.26219 0.02422
2811.97642 0.02420
2810.69066 0.02395
2809.40489 0.02355
2808.11912 0.02327
2806.83335 0.02328
2805.54758 0.02351
2804.26181 0.02366
2802.97604 0.02356
2801.69027 0.02330
2800.40450 0.02313
2799.11874 0.02315
2797.83297 0.02325
2796.54720 0.02329
2795.26143 0.02333
2793.97566 0.02342
2792.68989 0.02353
2791.40412 0.02357
2790.11835 0.02347
2788.83259 0.02334
2787.54682 0.02325
2786.26105 0.02322
2784.97528 0.02322
2783.68951 0.02321
2782.40374 0.02316
2781.11797 0.02306
2779.83220 0.02293
2778.54643 0.02288
2777.26067 0.02290
2775.97490 0.02290
2774.68913 0.02279
2773.40336 0.02263
2772.11759 0.02252
2770.83182 0.02257
2769.54605 0.02271
2768.26028 0.02285
2766.97452 0.02289
2765.68875 0.02285
2764.40298 0.02279
2763.11721 0.02274
2761.83144 0.02265
2760.54567 0.02245
2759.25990 0.02217
2757.97413 0.02188
2756.68836 0.02172
2755.40260 0.02182
2754.11683 0.02212
2752.83106 0.02246
2751.54529 0.02259
2750.25952 0.02249
2748.97375 0.02233
2747.68798 0.02226
2746.40221 0.02228
2745.11645 0.02230
2743.83068 0.02233
2742.54491 0.02242
2741.25914 0.02254
2739.97337 0.02261
2738.68760 0.02253
2737.40183 0.02233
2736.11606 0.02208
2734.83029 0.02183
2733.54453 0.02158
2732.25876 0.02137
2730.97299 0.02131
2729.68722 0.02138
2728.40145 0.02151
2727.11568 0.02163
2725.82991 0.02168
2724.54414 0.02166
2723.25838 0.02159
2721.97261 0.02154
2720.68684 0.02154
2719.40107 0.02160
2718.11530 0.02167
2716.82953 0.02169
2715.54376 0.02162
2714.25799 0.02147
2712.97222 0.02134
2711.68646 0.02129
2710.40069 0.02129
2709.11492 0.02125
2707.82915 0.02115
2706.54338 0.02104
2705.25761 0.02095
2703.97184 0.02092
2702.68607 0.02095
2701.40031 0.02104
2700.11454 0.02113
2698.82877 0.02117
2697.54300 0.02114
2696.25723 0.02109
2694.97146 0.02108
2693.68569 0.02111
2692.39992 0.02108
2691.11415 0.02092
2689.82839 0.02073
2688.54262 0.02065
2687.25685 0.02067
2685.97108 0.02065
2684.68531 0.02050
2683.39954 0.02035
2682.11377 0.02040
2680.82800 0.02061
2679.54224 0.02081
2678.25647 0.02081
2676.97070 0.02064
2675.68493 0.02044
2674.39916 0.02032
2673.11339 0.02031
2671.82762 0.02033
2670.54185 0.02035
2669.25608 0.02034
2667.97032 0.02028
2666.68455 0.02014
2665.39878 0.01993
2664.11301 0.01977
2662.82724 0.01978
2661.54147 0.01989
2660.25570 0.01998
2658.96993 0.01999
2657.68417 0.01995
2656.39840 0.01989
2655.11263 0.01978
2653.82686 0.01969
2652.54109 0.01969
2651.25532 0.01973
2649.96955 0.01966
2648.68378 0.01939
2647.39801 0.01895
2646.11225 0.01853
2644.82648 0.01834
2643.54071 0.01844
2642.25494 0.01868
2640.96917 0.01882
2639.68340 0.01883
2638.39763 0.01882
2637.11186 0.01885
2635.82609 0.01878
2634.54033 0.01845
2633.25456 0.01794
2631.96879 0.01759
2630.68302 0.01767
2629.39725 0.01816
2628.11148 0.01878
2626.82571 0.01921
2625.53994 0.01935
2624.25418 0.01922
2622.96841 0.01889
2621.68264 0.01839
2620.39687 0.01782
2619.11110 0.01730
2617.82533 0.01698
2616.53956 0.01691
2615.25379 0.01718
2613.96802 0.01775
2612.68226 0.01840
2611.39649 0.01875
2610.11072 0.01861
2608.82495 0.01812
2607.53918 0.01761
2606.25341 0.01734
2604.96764 0.01735
2603.68187 0.01751
2602.39611 0.01764
2601.11034 0.01769
2599.82457 0.01772
2598.53880 0.01777
2597.25303 0.01775
2595.96726 0.01755
2594.68149 0.01715
2593.39572 0.01667
2592.10995 0.01627
2590.82419 0.01611
2589.53842 0.01625
2588.25265 0.01657
2586.96688 0.01685
2585.68111 0.01696
2584.39534 0.01693
2583.10957 0.01680
2581.82380 0.01652
2580.53804 0.01604
2579.25227 0.01559
2577.96650 0.01548
2576.68073 0.01577
2575.39496 0.01623
2574.10919 0.01661
2572.82342 0.01684
2571.53765 0.01696
2570.25188 0.01697
2568.96612 0.01694
2567.68035 0.01698
2566.39458 0.01714
2565.10881 0.01732
2563.82304 0.01731
2562.53727 0.01697
2561.25150 0.01643
2559.96573 0.01592
2558.67997 0.01562
2557.39420 0.01555
2556.10843 0.01562
2554.82266 0.01566
2553.53689 0.01557
2552.25112 0.01538
2550.96535 0.01520
2549.67958 0.01504
2548.39381 0.01483
2547.10805 0.01461
2545.82228 0.01450
2544.53651 0.01465
2543.25074 0.01500
2541.96497 0.01537
2540.67920 0.01562
2539.39343 0.01574
2538.10766 0.01581
2536.82190 0.01591
2535.53613 0.01602
2534.25036 0.01606
2532.96459 0.01602
2531.67882 0.01595
2530.39305 0.01581
2529.10728 0.01552
2527.82151 0.01515
2526.53574 0.01496
2525.24998 0.01516
2523.96421 0.01565
2522.67844 0.01611
2521.39267 0.01635
2520.10690 0.01634
2518.82113 0.01619
2517.53536 0.01606
2516.24959 0.01609
2514.96383 0.01627
2513.67806 0.01641
2512.39229 0.01638
2511.10652 0.01627
2509.82075 0.01622
2508.53498 0.01619
2507.24921 0.01601
2505.96344 0.01564
2504.67767 0.01515
2503.39191 0.01471
2502.10614 0.01447
2500.82037 0.01450
2499.53460 0.01473
2498.24883 0.01506
2496.96306 0.01536
2495.67729 0.01560
2494.39152 0.01579
2493.10576 0.01597
2491.81999 0.01616
2490.53422 0.01632
2489.24845 0.01635
2487.96268 0.01624
2486.67691 0.01611
2485.39114 0.01605
2484.10537 0.01607
2482.81960 0.01615
2481.53384 0.01622
2480.24807 0.01614
2478.96230 0.01585
2477.67653 0.01542
2476.39076 0.01511
2475.10499 0.01504
2473.81922 0.01507
2472.53345 0.01490
2471.24769 0.01441
2469.96192 0.01388
2468.67615 0.01369
2467.39038 0.01395
2466.10461 0.01442
2464.81884 0.01484
2463.53307 0.01514
2462.24730 0.01534
2460.96153 0.01543
2459.67577 0.01536
2458.39000 0.01517
2457.10423 0.01496
2455.81846 0.01483
2454.53269 0.01482
2453.24692 0.01492
2451.96115 0.01514
2450.67538 0.01543
2449.38962 0.01570
2448.10385 0.01581
2446.81808 0.01577
2445.53231 0.01567
2444.24654 0.01556
2442.96077 0.01540
2441.67500 0.01518
2440.38923 0.01508
2439.10346 0.01521
2437.81770 0.01548
2436.53193 0.01558
2435.24616 0.01533
2433.96039 0.01487
2432.67462 0.01455
2431.38885 0.01464
2430.10308 0.01503
2428.81731 0.01540
2427.53155 0.01546
2426.24578 0.01524
2424.96001 0.01497
2423.67424 0.01486
2422.38847 0.01489
2421.10270 0.01492
2419.81693 0.01488
2418.53116 0.01481
2417.24539 0.01477
2415.95963 0.01477
2414.67386 0.01485
2413.38809 0.01501
2412.10232 0.01515
2410.81655 0.01512
2409.53078 0.01491
2408.24501 0.01462
2406.95924 0.01438
2405.67347 0.01424
2404.38771 0.01425
2403.10194 0.01443
2401.81617 0.01471
2400.53040 0.01500
2399.24463 0.01599
2397.95886 0.01561
2396.67309 0.01527
2395.38732 0.01522
2394.10156 0.01521
2392.81579 0.01518
2391.53002 0.01516
2390.24425 0.01515
2388.95848 0.01514
2387.67271 0.01513
2386.38694 0.01512
2385.10117 0.01508
2383.81540 0.01499
2382.52964 0.01482
2381.24387 0.01461
2379.95810 0.01447
2378.67233 0.01440
2377.38656 0.01445
2376.10079 0.01467
2374.81502 0.01496
2373.52925 0.01500
2372.24349 0.01485
2370.95772 0.01482
2369.67195 0.01502
2368.38618 0.01528
2367.10041 0.01540
2365.81464 0.01546
2364.52887 0.01543
2363.24310 0.01532
2361.95733 0.01509
2360.67157 0.01470
2359.38580 0.01441
2358.10003 0.01446
2356.81426 0.01487
2355.52849 0.01545
2354.24272 0.01601
2352.95695 0.01631
2351.67118 0.01610
2350.38542 0.01574
2349.09965 0.01564
2347.81388 0.01566
2346.52811 0.01549
2345.24234 0.01532
2343.95657 0.01552
2342.67080 0.01609
2341.38503 0.01599
2340.09926 0.01539
2338.81350 0.01552
2337.52773 0.01613
2336.24196 0.01581
2334.95619 0.01508
2333.67042 0.01517
2332.38465 0.01590
2331.09888 0.01565
2329.81311 0.01558
2328.52735 0.01591
2327.24158 0.01555
2325.95581 0.01494
2324.67004 0.01468
2323.38427 0.01474
2322.09850 0.01461
2320.81273 0.01470
2319.52696 0.01477
2318.24119 0.01476
2316.95543 0.01471
2315.66966 0.01444
2314.38389 0.01406
2313.09812 0.01363
2311.81235 0.01323
2310.52658 0.01317
2309.24081 0.01340
2307.95504 0.01363
2306.66928 0.01370
2305.38351 0.01348
2304.09774 0.01306
2302.81197 0.01268
2301.52620 0.01248
2300.24043 0.01248
2298.95466 0.01247
2297.66889 0.01230
2296.38312 0.01203
2295.09736 0.01185
2293.81159 0.01186
2292.52582 0.01202
2291.24005 0.01227
2289.95428 0.01258
2288.66851 0.01290
2287.38274 0.01311
2286.09697 0.01303
2284.81121 0.01267
2283.52544 0.01232
2282.23967 0.01228
2280.95390 0.01258
2279.66813 0.01292
2278.38236 0.01291
2277.09659 0.01248
2275.81082 0.01189
2274.52505 0.01158
2273.23929 0.01168
2271.95352 0.01191
2270.66775 0.01183
2269.38198 0.01140
2268.09621 0.01097
2266.81044 0.01096
2265.52467 0.01141
2264.23890 0.01201
2262.95314 0.01232
2261.66737 0.01205
2260.38160 0.01125
2259.09583 0.01022
2257.81006 0.00939
2256.52429 0.00914
2255.23852 0.00956
2253.95275 0.01039
2252.66698 0.01118
2251.38122 0.01134
2250.09545 0.01097
2248.80968 0.01132
2247.52391 0.01063
2246.23814 0.00987
2244.95237 0.00923
2243.66660 0.00874
2242.38083 0.00846
2241.09507 0.00849
2239.80930 0.00875
2238.52353 0.00901
2237.23776 0.00924
2235.95199 0.00966
2234.66622 0.01036
2233.38045 0.01112
2232.09468 0.01160
2230.80891 0.01169
2229.52315 0.01140
2228.23738 0.01073
2226.95161 0.00978
2225.66584 0.00885
2224.38007 0.00838
2223.09430 0.00858
2221.80853 0.00923
2220.52276 0.00990
2219.23700 0.01035
2217.95123 0.01066
2216.66546 0.01087
2215.37969 0.01079
2214.09392 0.01032
2212.80815 0.00976
2211.52238 0.00955
2210.23661 0.00973
2208.95084 0.00988
2207.66508 0.00956
2206.37931 0.00869
2205.09354 0.00774
2203.80777 0.00736
2202.52200 0.00757
2201.23623 0.00770
2199.95046 0.00723
2198.66469 0.00663
2197.37893 0.00675
2196.09316 0.00761
2194.80739 0.00839
2193.52162 0.00846
2192.23585 0.00802
2190.95008 0.00768
2189.66431 0.00783
2188.37854 0.00829
2187.09277 0.00848
2185.80701 0.00786
2184.52124 0.00660
2183.23547 0.00558
2181.94970 0.00561
2180.66393 0.00672
2179.37816 0.00815
2178.09239 0.00900
2176.80662 0.00886
2175.52085 0.00791
2174.23509 0.00662
2172.94932 0.00551
2171.66355 0.00520
2170.37778 0.00621
2169.09201 0.00830
2167.80624 0.01012
2166.52047 0.01023
2165.23470 0.00855
2163.94894 0.00633
2162.66317 0.00476
2161.37740 0.00403
2160.09163 0.00374
2158.80586 0.00353
2157.52009 0.00339
2156.23432 0.00336
2154.94855 0.00344
2153.66278 0.00357
2152.37702 0.00380
2151.09125 0.00427
2149.80548 0.00501
2148.51971 0.00585
2147.23394 0.00661
2145.94817 0.00715
2144.66240 0.00736
2143.37663 0.00711
2142.09087 0.00648
2140.80510 0.00587
2139.51933 0.00570
2138.23356 0.00612
2136.94779 0.00690
2135.66202 0.00772
2134.37625 0.00834
2133.09048 0.00860
2131.80471 0.00842
2130.51895 0.00790
2129.23318 0.00722
2127.94741 0.00665
2126.66164 0.00642
2125.37587 0.00670
2124.09010 0.00736
2122.80433 0.00796
2121.51856 0.00805
2120.23280 0.00771
2118.94703 0.00751
2117.66126 0.00785
2116.37549 0.00848
2115.08972 0.00885
2113.80395 0.00878
2112.51818 0.00857
2111.23241 0.00864
2109.94664 0.00903
2108.66088 0.00950
2107.37511 0.00975
2106.08934 0.00964
2104.80357 0.00930
2103.51780 0.00899
2102.23203 0.00884
2100.94626 0.00878
2099.66049 0.00874
2098.37473 0.00889
2097.08896 0.00875
2095.80319 0.00840
2094.51742 0.00808
2093.23165 0.00799
2091.94588 0.00807
2090.66011 0.00804
2089.37434 0.00759
2088.08857 0.00677
2086.80281 0.00588
2085.51704 0.00525
2084.23127 0.00505
2082.94550 0.00527
2081.65973 0.00574
2080.37396 0.00624
2079.08819 0.00657
2077.80242 0.00670
2076.51666 0.00664
2075.23089 0.00644
2073.94512 0.00631
2072.65935 0.00644
2071.37358 0.00682
2070.08781 0.00711
2068.80204 0.00697
2067.51627 0.00636
2066.23050 0.00549
2064.94474 0.00463
2063.65897 0.00396
2062.37320 0.00366
2061.08743 0.00387
2059.80166 0.00451
2058.51589 0.00527
2057.23012 0.00578
2055.94435 0.00588
2054.65859 0.00574
2053.37282 0.00556
2052.08705 0.00540
2050.80128 0.00521
2049.51551 0.00496
2048.22974 0.00470
2046.94397 0.00453
2045.65820 0.00444
2044.37243 0.00433
2043.08667 0.00410
2041.80090 0.00385
2040.51513 0.00382
2039.22936 0.00417
2037.94359 0.00469
2036.65782 0.00501
2035.37205 0.00499
2034.08628 0.00483
2032.80052 0.00455
2031.51475 0.00385
2030.22898 0.00257
2028.94321 0.00119
2027.65744 0.00056
2026.37167 0.00113
2025.08590 0.00249
2023.80013 0.00379
2022.51436 0.00441
2021.22860 0.00424
2019.94283 0.00357
2018.65706 0.00288
2017.37129 0.00267
2016.08552 0.00322
2014.79975 0.00434
2013.51398 0.00550
2012.22821 0.00618
2010.94245 0.00617
2009.65668 0.00570
2008.37091 0.00523
2007.08514 0.00507
2005.79937 0.00521
2004.51360 0.00534
2003.22783 0.00523
2001.94206 0.00503
2000.65629 0.00504
1999.37053 0.00542
1998.08476 0.00586
1996.79899 0.00585
1995.51322 0.00521
1994.22745 0.00434
1992.94168 0.00386
1991.65591 0.00394
1990.37014 0.00429
1989.08438 0.00460
1987.79861 0.00491
1986.51284 0.00533
1985.22707 0.00573
1983.94130 0.00584
1982.65553 0.00552
1981.36976 0.00495
1980.08399 0.00448
1978.79822 0.00447
1977.51246 0.00497
1976.22669 0.00570
1974.94092 0.00627
1973.65515 0.00655
1972.36938 0.00681
1971.08361 0.00739
1969.79784 0.00830
1968.51207 0.00916
1967.22631 0.00946
1965.94054 0.00912
1964.65477 0.00858
1963.36900 0.00838
1962.08323 0.00852
1960.79746 0.00857
1959.51169 0.00823
1958.22592 0.00759
1956.94015 0.00690
1955.65439 0.00628
1954.36862 0.00581
1953.08285 0.00561
1951.79708 0.00584
1950.51131 0.00650
1949.22554 0.00744
1947.93977 0.00834
1946.65400 0.00890
1945.36823 0.00903
1944.08247 0.00888
1942.79670 0.00866
1941.51093 0.00851
1940.22516 0.00847
1938.93939 0.00855
1937.65362 0.00868
1936.36785 0.00875
1935.08208 0.00877
1933.79632 0.00882
1932.51055 0.00892
1931.22478 0.00896
1929.93901 0.00892
1928.65324 0.00898
1927.36747 0.00922
1926.08170 0.00946
1924.79593 0.00951
1923.51016 0.00950
1922.22440 0.00977
1920.93863 0.01036
1919.65286 0.01093
1918.36709 0.01110
1917.08132 0.01087
1915.79555 0.01047
1914.50978 0.01014
1913.22401 0.00993
1911.93825 0.00980
1910.65248 0.00972
1909.36671 0.00963
1908.08094 0.00949
1906.79517 0.00923
1905.50940 0.00885
1904.22363 0.00843
1902.93786 0.00810
1901.65209 0.00795
1900.36633 0.00800
1899.08056 0.00823
1897.79479 0.00862
1896.50902 0.00910
1895.22325 0.00953
1893.93748 0.00981
1892.65171 0.00986
1891.36594 0.00969
1890.08018 0.00932
1888.79441 0.00887
1887.50864 0.00851
1886.22287 0.00838
1884.93710 0.00846
1883.65133 0.00866
1882.36556 0.00887
1881.07979 0.00905
1879.79402 0.00919
1878.50826 0.00934
1877.22249 0.00950
1875.93672 0.00958
1874.65095 0.00952
1873.36518 0.00934
1872.07941 0.00916
1870.79364 0.00904
1869.50787 0.00897
1868.22211 0.00895
1866.93634 0.00896
1865.65057 0.00897
1864.36480 0.00891
1863.07903 0.00875
1861.79326 0.00850
1860.50749 0.00826
1859.22172 0.00811
1857.93595 0.00809
1856.65019 0.00821
1855.36442 0.00842
1854.07865 0.00871
1852.79288 0.00900
1851.50711 0.00914
1850.22134 0.00906
1848.93557 0.00885
1847.64980 0.00871
1846.36404 0.00874
1845.07827 0.00895
1843.79250 0.00927
1842.50673 0.00957
1841.22096 0.00974
1839.93519 0.00975
1838.64942 0.00965
1837.36365 0.00952
1836.07788 0.00945
1834.79212 0.00948
1833.50635 0.00958
1832.22058 0.00963
1830.93481 0.00958
1829.64904 0.00952
1828.36327 0.00954
1827.07750 0.00964
1825.79173 0.00974
1824.50597 0.00980
1823.22020 0.00981
1821.93443 0.00976
1820.64866 0.00972
1819.36289 0.00973
1818.07712 0.00984
1816.79135 0.00997
1815.50558 0.01003
1814.21981 0.00992
1812.93405 0.00966
1811.64828 0.00936
1810.36251 0.00914
1809.07674 0.00906
1807.79097 0.00907
1806.50520 0.00918
1805.21943 0.00937
1803.93366 0.00957
1802.64790 0.00964
1801.36213 0.00951
1800.07636 0.00927
1798.79059 0.00906
1797.50482 0.00903
1796.21905 0.00916
1794.93328 0.00934
1793.64751 0.00943
1792.36174 0.00947
1791.07598 0.00952
1789.79021 0.00958
1788.50444 0.00961
1787.21867 0.00961
1785.93290 0.00960
1784.64713 0.00961
1783.36136 0.00961
1782.07559 0.00959
1780.78983 0.00956
1779.50406 0.00959
1778.21829 0.00966
1776.93252 0.00972
1775.64675 0.00968
1774.36098 0.00952
1773.07521 0.00935
1771.78944 0.00933
1770.50367 0.00945
1769.21791 0.00955
1767.93214 0.00960
1766.64637 0.00968
1765.36060 0.00986
1764.07483 0.01010
1762.78906 0.01035
1761.50329 0.01058
1760.21752 0.01071
1758.93176 0.01069
1757.64599 0.01053
1756.36022 0.01033
1755.07445 0.01014
1753.78868 0.00993
1752.50291 0.00973
1751.21714 0.00966
1749.93137 0.00976
1748.64560 0.00989
1747.35984 0.00994
1746.07407 0.00994
1744.78830 0.00994
1743.50253 0.00998
1742.21676 0.01005
1740.93099 0.01014
1739.64522 0.01024
1738.35945 0.01036
1737.07369 0.01040
1735.78792 0.01036
1734.50215 0.01039
1733.21638 0.01056
1731.93061 0.01074
1730.64484 0.01074
1729.35907 0.01066
1728.07330 0.01066
1726.78753 0.01075
1725.50177 0.01081
1724.21600 0.01081
1722.93023 0.01083
1721.64446 0.01095
1720.35869 0.01112
1719.07292 0.01128
1717.78715 0.01146
1716.50138 0.01170
1715.21561 0.01194
1713.92985 0.01215
1712.64408 0.01235
1711.35831 0.01261
1710.07254 0.01292
1708.78677 0.01323
1707.50100 0.01350
1706.21523 0.01377
1704.92946 0.01410
1703.64370 0.01445
1702.35793 0.01473
1701.07216 0.01501
1699.78639 0.01544
1698.50062 0.01594
1697.21485 0.01631
1695.92908 0.01659
1694.64331 0.01693
1693.35754 0.01727
1692.07178 0.01750
1690.78601 0.01772
1689.50024 0.01807
1688.21447 0.01845
1686.92870 0.01871
1685.64293 0.01887
1684.35716 0.01918
1683.07139 0.01968
1681.78563 0.02018
1680.49986 0.02053
1679.21409 0.02083
1677.92832 0.02115
1676.64255 0.02149
1675.35678 0.02185
1674.07101 0.02227
1672.78524 0.02269
1671.49947 0.02305
1670.21371 0.02337
1668.92794 0.02372
1667.64217 0.02409
1666.35640 0.02443
1665.07063 0.02473
1663.78486 0.02506
1662.49909 0.02546
1661.21332 0.02587
1659.92756 0.02621
1658.64179 0.02651
1657.35602 0.02683
1656.07025 0.02711
1654.78448 0.02730
1653.49871 0.02756
1652.21294 0.02803
1650.92717 0.02851
1649.64140 0.02868
1648.35564 0.02856
1647.06987 0.02847
1645.78410 0.02856
1644.49833 0.02869
1643.21256 0.02866
1641.92679 0.02846
1640.64102 0.02824
1639.35525 0.02810
1638.06949 0.02806
1636.78372 0.02808
1635.49795 0.02815
1634.21218 0.02822
1632.92641 0.02818
1631.64064 0.02799
1630.35487 0.02779
1629.06910 0.02767
1627.78333 0.02764
1626.49757 0.02761
1625.21180 0.02751
1623.92603 0.02736
1622.64026 0.02722
1621.35449 0.02714
1620.06872 0.02701
1618.78295 0.02678
1617.49718 0.02656
1616.21142 0.02649
1614.92565 0.02655
1613.63988 0.02657
1612.35411 0.02650
1611.06834 0.02643
1609.78257 0.02642
1608.49680 0.02645
1607.21103 0.02648
1605.92526 0.02650
1604.63950 0.02653
1603.35373 0.02659
1602.06796 0.02669
1600.78219 0.02681
1599.49642 0.02689
1598.21065 0.02694
1596.92488 0.02697
1595.63911 0.02705
1594.35335 0.02718
1593.06758 0.02734
1591.78181 0.02748
1590.49604 0.02754
1589.21027 0.02756
1587.92450 0.02757
1586.63873 0.02757
1585.35296 0.02758
1584.06719 0.02759
1582.78143 0.02763
1581.49566 0.02776
1580.20989 0.02798
1578.92412 0.02821
1577.63835 0.02837
1576.35258 0.02851
1575.06681 0.02875
1573.78104 0.02902
1572.49528 0.02918
1571.20951 0.02924
1569.92374 0.02931
1568.63797 0.02943
1567.35220 0.02957
1566.06643 0.02966
1564.78066 0.02974
1563.49489 0.02986
1562.20912 0.02996
1560.92336 0.03000
1559.63759 0.03006
1558.35182 0.03026
1557.06605 0.03047
1555.78028 0.03052
1554.49451 0.03042
1553.20874 0.03034
1551.92297 0.03031
1550.63721 0.03028
1549.35144 0.03022
1548.06567 0.03014
1546.77990 0.03004
1545.49413 0.02994
1544.20836 0.02989
1542.92259 0.02986
1541.63682 0.02977
1540.35105 0.02964
1539.06529 0.02957
1537.77952 0.02953
1536.49375 0.02941
1535.20798 0.02916
1533.92221 0.02893
1532.63644 0.02884
1531.35067 0.02883
1530.06490 0.02881
1528.77914 0.02876
1527.49337 0.02872
1526.20760 0.02873
1524.92183 0.02880
1523.63606 0.02888
1522.35029 0.02898
1521.06452 0.02918
1519.77875 0.02948
1518.49298 0.02972
1517.20722 0.02986
1515.92145 0.03001
1514.63568 0.03025
1513.34991 0.03058
1512.06414 0.03103
1510.77837 0.03156
1509.49260 0.03206
1508.20683 0.03242
1506.92107 0.03275
1505.63530 0.03315
1504.34953 0.03357
1503.06376 0.03388
1501.77799 0.03404
1500.49222 0.03419
1499.20645 0.03436
1497.92068 0.03454
1496.63491 0.03472
1495.34915 0.03491
1494.06338 0.03510
1492.77761 0.03526
1491.49184 0.03542
1490.20607 0.03568
1488.92030 0.03605
1487.63453 0.03646
1486.34876 0.03684
1485.06299 0.03717
1483.77723 0.03746
1482.49146 0.03775
1481.20569 0.03811
1479.91992 0.03857
1478.63415 0.03910
1477.34838 0.03967
1476.06261 0.04022
1474.77684 0.04070
1473.49108 0.04112
1472.20531 0.04153
1470.91954 0.04195
1469.63377 0.04228
1468.34800 0.04246
1467.06223 0.04256
1465.77646 0.04268
1464.49069 0.04290
1463.20492 0.04321
1461.91916 0.04354
1460.63339 0.04384
1459.34762 0.04412
1458.06185 0.04442
1456.77608 0.04480
1455.49031 0.04520
1454.20454 0.04547
1452.91877 0.04558
1451.63301 0.04561
1450.34724 0.04564
1449.06147 0.04566
1447.77570 0.04566
1446.48993 0.04567
1445.20416 0.04570
1443.91839 0.04575
1442.63262 0.04580
1441.34685 0.04585
1440.06109 0.04588
1438.77532 0.04586
1437.48955 0.04584
1436.20378 0.04590
1434.91801 0.04605
1433.63224 0.04626
1432.34647 0.04650
1431.06070 0.04683
1429.77494 0.04726
1428.48917 0.04779
1427.20340 0.04836
1425.91763 0.04895
1424.63186 0.04957
1423.34609 0.05021
1422.06032 0.05081
1420.77455 0.05132
1419.48878 0.05181
1418.20302 0.05231
1416.91725 0.05275
1415.63148 0.05305
1414.34571 0.05319
1413.05994 0.05322
1411.77417 0.05318
1410.48840 0.05309
1409.20263 0.05295
1407.91687 0.05275
1406.63110 0.05246
1405.34533 0.05209
1404.05956 0.05163
1402.77379 0.05108
1401.48802 0.05042
1400.20225 0.04967
1398.91648 0.04890
1397.63071 0.04813
1396.34495 0.04735
1395.05918 0.04659
1393.77341 0.04587
1392.48764 0.04516
1391.20187 0.04440
1389.91610 0.04361
1388.63033 0.04281
1387.34456 0.04205
1386.05880 0.04131
1384.77303 0.04056
1383.48726 0.03978
1382.20149 0.03900
1380.91572 0.03822
1379.62995 0.03742
1378.34418 0.03660
1377.05841 0.03576
1375.77264 0.03493
1374.48688 0.03416
1373.20111 0.03345
1371.91534 0.03277
1370.62957 0.03207
1369.34380 0.03133
1368.05803 0.03056
1366.77226 0.02982
1365.48649 0.02912
1364.20073 0.02849
1362.91496 0.02791
1361.62919 0.02738
1360.34342 0.02686
1359.05765 0.02637
1357.77188 0.02595
1356.48611 0.02556
1355.20034 0.02518
1353.91457 0.02477
1352.62881 0.02437
1351.34304 0.02405
1350.05727 0.02379
1348.77150 0.02356
1347.48573 0.02328
1346.19996 0.02295
1344.91419 0.02262
1343.62842 0.02233
1342.34266 0.02206
1341.05689 0.02182
1339.77112 0.02160
1338.48535 0.02142
1337.19958 0.02126
1335.91381 0.02108
1334.62804 0.02086
1333.34227 0.02063
1332.05650 0.02042
1330.77074 0.02024
1329.48497 0.02006
1328.19920 0.01986
1326.91343 0.01965
1325.62766 0.01944
1324.34189 0.01927
1323.05612 0.01914
1321.77035 0.01904
1320.48459 0.01892
1319.19882 0.01877
1317.91305 0.01857
1316.62728 0.01835
1315.34151 0.01813
1314.05574 0.01794
1312.76997 0.01780
1311.48420 0.01768
1310.19843 0.01759
1308.91267 0.01749
1307.62690 0.01739
1306.34113 0.01730
1305.05536 0.01722
1303.76959 0.01714
1302.48382 0.01705
1301.19805 0.01691
1299.91228 0.01675
1298.62652 0.01658
1297.34075 0.01643
1296.05498 0.01629
1294.76921 0.01616
1293.48344 0.01603
1292.19767 0.01591
1290.91190 0.01584
1289.62613 0.01581
1288.34036 0.01579
1287.05460 0.01573
1285.76883 0.01562
1284.48306 0.01547
1283.19729 0.01535
1281.91152 0.01528
1280.62575 0.01526
1279.33998 0.01524
1278.05421 0.01520
1276.76845 0.01515
1275.48268 0.01508
1274.19691 0.01500
1272.91114 0.01490
1271.62537 0.01478
1270.33960 0.01470
1269.05383 0.01470
1267.76806 0.01479
1266.48229 0.01490
1265.19653 0.01495
1263.91076 0.01489
1262.62499 0.01474
1261.33922 0.01457
1260.05345 0.01445
1258.76768 0.01437
1257.48191 0.01435
1256.19614 0.01435
1254.91037 0.01436
1253.62461 0.01437
1252.33884 0.01437
1251.05307 0.01435
1249.76730 0.01431
1248.48153 0.01425
1247.19576 0.01419
1245.90999 0.01414
1244.62422 0.01414
1243.33846 0.01416
1242.05269 0.01419
1240.76692 0.01420
1239.48115 0.01419
1238.19538 0.01415
1236.90961 0.01409
1235.62384 0.01401
1234.33807 0.01394
1233.05230 0.01391
1231.76654 0.01394
1230.48077 0.01397
1229.19500 0.01394
1227.90923 0.01386
1226.62346 0.01378
1225.33769 0.01377
1224.05192 0.01380
1222.76615 0.01380
1221.48039 0.01373
1220.19462 0.01360
1218.90885 0.01346
1217.62308 0.01336
1216.33731 0.01330
1215.05154 0.01325
1213.76577 0.01320
1212.48000 0.01315
1211.19423 0.01310
1209.90847 0.01307
1208.62270 0.01306
1207.33693 0.01309
1206.05116 0.01315
1204.76539 0.01321
1203.47962 0.01323
1202.19385 0.01313
1200.90808 0.01298
1199.62232 0.01305
1198.33655 0.01305
1197.05078 0.01306
1195.76501 0.01305
1194.47924 0.01303
1193.19347 0.01303
1191.90770 0.01304
1190.62193 0.01307
1189.33616 0.01311
1188.05040 0.01314
1186.76463 0.01316
1185.47886 0.01317
1184.19309 0.01315
1182.90732 0.01312
1181.62155 0.01311
1180.33578 0.01313
1179.05001 0.01317
1177.76425 0.01323
1176.47848 0.01332
1175.19271 0.01344
1173.90694 0.01358
1172.62117 0.01371
1171.33540 0.01380
1170.04963 0.01390
1168.76386 0.01403
1167.47809 0.01423
1166.19233 0.01443
1164.90656 0.01457
1163.62079 0.01461
1162.33502 0.01459
1161.04925 0.01456
1159.76348 0.01455
1158.47771 0.01460
1157.19194 0.01473
1155.90618 0.01495
1154.62041 0.01521
1153.33464 0.01545
1152.04887 0.01567
1150.76310 0.01583
1149.47733 0.01591
1148.19156 0.01596
1146.90579 0.01607
1145.62002 0.01631
1144.33426 0.01669
1143.04849 0.01712
1141.76272 0.01757
1140.47695 0.01801
1139.19118 0.01846
1137.90541 0.01897
1136.61964 0.01957
1135.33387 0.02024
1134.04811 0.02093
1132.76234 0.02160
1131.47657 0.02228
1130.19080 0.02307
1128.90503 0.02406
1127.61926 0.02525
1126.33349 0.02661
1125.04772 0.02804
1123.76195 0.02951
1122.47619 0.03102
1121.19042 0.03257
1119.90465 0.03416
1118.61888 0.03575
1117.33311 0.03736
1116.04734 0.03901
1114.76157 0.04069
1113.47580 0.04233
1112.19004 0.04386
1110.90427 0.04528
1109.61850 0.04664
1108.33273 0.04803
1107.04696 0.04947
1105.76119 0.05094
1104.47542 0.05237
1103.18965 0.05372
1101.90388 0.05494
1100.61812 0.05608
1099.33235 0.05721
1098.04658 0.05841
1096.76081 0.05963
1095.47504 0.06078
1094.18927 0.06176
1092.90350 0.06254
1091.61773 0.06319
1090.33197 0.06383
1089.04620 0.06455
1087.76043 0.06536
1086.47466 0.06618
1085.18889 0.06698
1083.90312 0.06780
1082.61735 0.06868
1081.33158 0.06966
1080.04581 0.07070
1078.76005 0.07179
1077.47428 0.07292
1076.18851 0.07410
1074.90274 0.07530
1073.61697 0.07647
1072.33120 0.07764
1071.04543 0.07886
1069.75966 0.08014
1068.47390 0.08151
1067.18813 0.08296
1065.90236 0.08446
1064.61659 0.08595
1063.33082 0.08737
1062.04505 0.08873
1060.75928 0.09009
1059.47351 0.09148
1058.18774 0.09283
1056.90198 0.09409
1055.61621 0.09527
1054.33044 0.09647
1053.04467 0.09775
1051.75890 0.09909
1050.47313 0.10046
1049.18736 0.10184
1047.90159 0.10323
1046.61583 0.10461
1045.33006 0.10596
1044.04429 0.10732
1042.75852 0.10868
1041.47275 0.11001
1040.18698 0.11133
1038.90121 0.11267
1037.61544 0.11408
1036.32967 0.11554
1035.04391 0.11699
1033.75814 0.11834
1032.47237 0.11953
1031.18660 0.12057
1029.90083 0.12149
1028.61506 0.12235
1027.32929 0.12315
1026.04352 0.12387
1024.75775 0.12448
1023.47199 0.12496
1022.18622 0.12530
1020.90045 0.12549
1019.61468 0.12551
1018.32891 0.12535
1017.04314 0.12500
1015.75737 0.12447
1014.47160 0.12381
1013.18584 0.12303
1011.90007 0.12210
1010.61430 0.12096
1009.32853 0.11958
1008.04276 0.11799
1006.75699 0.11624
1005.47122 0.11436
1004.18545 0.11238
1002.89968 0.11027
1001.61392 0.10802
1000.32815 0.10567
999.04238 0.10324
997.75661 0.10075
996.47084 0.09820
995.18507 0.09561
993.89930 0.09301
992.61353 0.09045
991.32777 0.08791
990.04200 0.08538
988.75623 0.08291
987.47046 0.08055
986.18469 0.07827
984.89892 0.07601
983.61315 0.07374
982.32738 0.07152
981.04161 0.06944
979.75585 0.06755
978.47008 0.06579
977.18431 0.06410
975.89854 0.06242
974.61277 0.06081
973.32700 0.05944
972.04123 0.05840
970.75546 0.05772
969.46970 0.05735
968.18393 0.05725
966.89816 0.05738
965.61239 0.05766
964.32662 0.05794
963.04085 0.05805
961.75508 0.05795
960.46931 0.05767
959.18354 0.05726
957.89778 0.05667
956.61201 0.05589
955.32624 0.05495
954.04047 0.05396
952.75470 0.05300
951.46893 0.05205
950.18316 0.05106
948.89739 0.04999
947.61163 0.04888
946.32586 0.04781
945.04009 0.04683
943.75432 0.04591
942.46855 0.04502
941.18278 0.04413
939.89701 0.04323
938.61124 0.04235
937.32547 0.04151
936.03971 0.04072
934.75394 0.04001
933.46817 0.03939
932.18240 0.03884
930.89663 0.03830
929.61086 0.03773
928.32509 0.03716
927.03932 0.03663
925.75356 0.03617
924.46779 0.03576
923.18202 0.03536
921.89625 0.03497
920.61048 0.03455
919.32471 0.03411
918.03894 0.03364
916.75317 0.03316
915.46740 0.03274
914.18164 0.03240
912.89587 0.03216
911.61010 0.03197
910.32433 0.03176
909.03856 0.03150
907.75279 0.03118
906.46702 0.03086
905.18125 0.03061
903.89549 0.03046
902.60972 0.03034
901.32395 0.03017
900.03818 0.02990
898.75241 0.02958
897.46664 0.02926
896.18087 0.02893
894.89510 0.02863
893.60933 0.02841
892.32357 0.02833
891.03780 0.02834
889.75203 0.02833
888.46626 0.02829
887.18049 0.02830
885.89472 0.02848
884.60895 0.02895
883.32318 0.02981
882.03742 0.03102
880.75165 0.03237
879.46588 0.03358
878.18011 0.03451
876.89434 0.03523
875.60857 0.03589
874.32280 0.03656
873.03703 0.03714
871.75126 0.03748
870.46550 0.03750
869.17973 0.03717
867.89396 0.03651
866.60819 0.03559
865.32242 0.03452
864.03665 0.03346
862.75088 0.03246
861.46511 0.03153
860.17935 0.03065
858.89358 0.02987
857.60781 0.02922
856.32204 0.02869
855.03627 0.02821
853.75050 0.02772
852.46473 0.02725
851.17896 0.02687
849.89319 0.02661
848.60743 0.02643
847.32166 0.02623
846.03589 0.02595
844.75012 0.02562
843.46435 0.02533
842.17858 0.02517
840.89281 0.02511
839.60704 0.02506
838.32128 0.02492
837.03551 0.02465
835.74974 0.02430
834.46397 0.02396
833.17820 0.02369
831.89243 0.02348
830.60666 0.02331
829.32089 0.02318
828.03512 0.02309
826.74936 0.02306
825.46359 0.02305
824.17782 0.02303
822.89205 0.02301
821.60628 0.02306
820.32051 0.02319
819.03474 0.02336
817.74897 0.02347
816.46321 0.02343
815.17744 0.02329
813.89167 0.02315
812.60590 0.02309
811.32013 0.02307
810.03436 0.02301
808.74859 0.02286
807.46282 0.02268
806.17705 0.02260
804.89129 0.02261
803.60552 0.02267
802.31975 0.02274
801.03398 0.02282
799.74821 0.02290
798.46244 0.02293
797.17667 0.02293
795.89090 0.02290
794.60513 0.02289
793.31937 0.02287
792.03360 0.02284
790.74783 0.02282
789.46206 0.02287
788.17629 0.02297
786.89052 0.02310
785.60475 0.02321
784.31898 0.02326
783.03322 0.02321
781.74745 0.02308
780.46168 0.02297
779.17591 0.02294
777.89014 0.02298
776.60437 0.02302
775.31860 0.02302
774.03283 0.02303
772.74706 0.02305
771.46130 0.02308
770.17553 0.02310
768.88976 0.02312
767.60399 0.02313
766.31822 0.02312
765.03245 0.02314
763.74668 0.02320
762.46091 0.02326
761.17515 0.02324
759.88938 0.02316
758.60361 0.02312
757.31784 0.02313
756.03207 0.02316
754.74630 0.02317
753.46053 0.02318
752.17476 0.02322
750.88899 0.02323
749.60323 0.02315
748.31746 0.02300
747.03169 0.02287
745.74592 0.02280
744.46015 0.02277
743.17438 0.02270
741.88861 0.02255
740.60284 0.02237
739.31708 0.02227
738.03131 0.02228
736.74554 0.02229
735.45977 0.02226
734.17400 0.02224
732.88823 0.02228
731.60246 0.02240
730.31669 0.02252
729.03092 0.02261
727.74516 0.02264
726.45939 0.02260
725.17362 0.02250
723.88785 0.02258
722.60208 0.02237
721.31631 0.02231
720.03054 0.02246
718.74477 0.02262
717.45901 0.02272
716.17324 0.02274
714.88747 0.02271
713.60170 0.02261
712.31593 0.02245
711.03016 0.02225
709.74439 0.02203
708.45862 0.02188
707.17285 0.02182
705.88709 0.02186
704.60132 0.02191
703.31555 0.02193
702.02978 0.02189
700.74401 0.02184
699.45824 0.02180
698.17247 0.02177
696.88670 0.02175
695.60094 0.02174
694.31517 0.02173
693.02940 0.02173
691.74363 0.02173
690.45786 0.02171
689.17209 0.02170
687.88632 0.02172
686.60055 0.02174
685.31478 0.02169
684.02902 0.02152
682.74325 0.02128
681.45748 0.02106
680.17171 0.02095
678.88594 0.02096
677.60017 0.02103
676.31440 0.02108
675.02863 0.02109
673.74287 0.02107
672.45710 0.02107
671.17133 0.02111
669.88556 0.02119
668.59979 0.02126
667.31402 0.02130
666.02825 0.02123
664.74248 0.02109
663.45671 0.02096
662.17095 0.02088
660.88518 0.02089
659.59941 0.02093
658.31364 0.02093
657.02787 0.02083
655.74210 0.02067
654.45633 0.02050
653.17056 0.02040
651.88480 0.02036
650.59903 0.02032
649.31326 0.02025
648.02749 0.02018
646.74172 0.02015
645.45595 0.02020
644.17018 0.02028
642.88441 0.02031
641.59864 0.02026
640.31288 0.02016
639.02711 0.02009
637.74134 0.02007
636.45557 0.02010
635.16980 0.02016
633.88403 0.02027
632.59826 0.02032
631.31249 0.01975
630.02673 0.01837
628.74096 0.01858
627.45519 0.02036
626.16942 0.02203
624.88365 0.02354
623.59788 0.02500
622.31211 0.02631
621.02634 0.02759
619.74057 0.02901
618.45481 0.03041
617.16904 0.03147
615.88327 0.03230
614.59750 0.03350
613.31173 0.03563
612.02596 0.03860
610.74019 0.04194
609.45442 0.04539
608.16866 0.04887
606.88289 0.05210
605.59712 0.05470
604.31135 0.05646
603.02558 0.05729
601.73981 0.05712
600.45404 0.05604
599.16827 0.05441
597.88250 0.05259
596.59674 0.05080
595.31097 0.04914
594.02520 0.04766
592.73943 0.04647
591.45366 0.04564
590.16789 0.04518
588.88212 0.04505
587.59635 0.04521
586.31059 0.04566
585.02482 0.04645
583.73905 0.04756
582.45328 0.04892
581.16751 0.05039
579.88174 0.05181
578.59597 0.05302
577.31020 0.05396
576.02443 0.05475
574.73867 0.05558
573.45290 0.05661
572.16713 0.05792
570.88136 0.05945
569.59559 0.06108
568.30982 0.06272
567.02405 0.06430
565.73828 0.06575
564.45251 0.06697
563.16675 0.06785
561.88098 0.06822
560.59521 0.06791
559.30944 0.06681
558.02367 0.06496
556.73790 0.06257
555.45213 0.05993
554.16636 0.05727
552.88060 0.05470
551.59483 0.05223
550.30906 0.04986
549.02329 0.04765
547.73752 0.04564
546.45175 0.04391
545.16598 0.04249
543.88021 0.04134
542.59444 0.04035
541.30868 0.03940
540.02291 0.03839
538.73714 0.03734
537.45137 0.03635
536.16560 0.03551
534.87983 0.03487
533.59406 0.03436
532.30829 0.03390
531.02253 0.03343
529.73676 0.03292
528.45099 0.03230
527.16522 0.03153
525.87945 0.03062
524.59368 0.02978
523.30791 0.02922
522.02214 0.02899
520.73637 0.02890
519.45061 0.02870
518.16484 0.02830
516.87907 0.02779
515.59330 0.02730
514.30753 0.02684
513.02176 0.02644
511.73599 0.02611
510.45022 0.02586
509.16446 0.02567
507.87869 0.02550
506.59292 0.02535
505.30715 0.02522
504.02138 0.02510
502.73561 0.02489
501.44984 0.02459
500.16407 0.02425
498.87830 0.02396
497.59254 0.02370
496.30677 0.02344
495.02100 0.02320
493.73523 0.02305
492.44946 0.02305
491.16369 0.02313
489.87792 0.02315
488.59215 0.02308
487.30639 0.02300
486.02062 0.02300
484.73485 0.02305
483.44908 0.02309
482.16331 0.02308
480.87754 0.02305
479.59177 0.02302
478.30600 0.02307
477.02023 0.02326
475.73447 0.02357
474.44870 0.02391
473.16293 0.02418
471.87716 0.02434
470.59139 0.02439
469.30562 0.02438
468.01985 0.02429
466.73408 0.02412
465.44832 0.02386
464.16255 0.02355
462.87678 0.02326
461.59101 0.02301
460.30524 0.02279
459.01947 0.02260
457.73370 0.02244
456.44793 0.02228
455.16216 0.02210
453.87640 0.02191
452.59063 0.02177
451.30486 0.02169
450.01909 0.02163
448.73332 0.02151
447.44755 0.02134
446.16178 0.02117
444.87601 0.02105
443.59025 0.02097
442.30448 0.02089
441.01871 0.02083
439.73294 0.02078
438.44717 0.02074
437.16140 0.02069
435.87563 0.02062
434.58986 0.02056
433.30409 0.02054
432.01833 0.02053
430.73256 0.02048
429.44679 0.02038
428.16102 0.02025
426.87525 0.02010
425.58948 0.01995
424.30371 0.01982
423.01794 0.01976
421.73218 0.01978
420.44641 0.01986
419.16064 0.01992
417.87487 0.01989
416.58910 0.01974
415.30333 0.01952
414.01756 0.01933
412.73179 0.01919
411.44602 0.01907
410.16026 0.01892
408.87449 0.01875
407.58872 0.01860
406.30295 0.01851
405.01718 0.01851
403.73141 0.01861
402.44564 0.01876
401.15987 0.01889
399.87411 0.01900
