3997.45528 0.04414
3996.16951 0.04588
3994.88374 0.04674
3993.59798 0.04654
3992.31221 0.04571
3991.02644 0.04476
3989.74067 0.04399
3988.45490 0.04364
3987.16913 0.04376
3985.88336 0.04398
3984.59759 0.04374
3983.31183 0.04288
3982.02606 0.04177
3980.74029 0.04091
3979.45452 0.04052
3978.16875 0.04058
3976.88298 0.04107
3975.59721 0.04193
3974.31144 0.04288
3973.02567 0.04341
3971.73991 0.04313
3970.45414 0.04226
3969.16837 0.04158
3967.88260 0.04172
3966.59683 0.04266
3965.31106 0.04396
3964.02529 0.04515
3962.73952 0.04584
3961.45376 0.04579
3960.16799 0.04514
3958.88222 0.04442
3957.59645 0.04411
3956.31068 0.04419
3955.02491 0.04429
3953.73914 0.04417
3952.45337 0.04399
3951.16760 0.04403
3949.88184 0.04425
3948.59607 0.04439
3947.31030 0.04434
3946.02453 0.04428
3944.73876 0.04442
3943.45299 0.04474
3942.16722 0.04511
3940.88145 0.04527
3939.59569 0.04496
3938.30992 0.04416
3937.02415 0.04317
3935.73838 0.04247
3934.45261 0.04232
3933.16684 0.04271
3931.88107 0.04342
3930.59530 0.04410
3929.30953 0.04433
3928.02377 0.04399
3926.73800 0.04335
3925.45223 0.04283
3924.16646 0.04256
3922.88069 0.04240
3921.59492 0.04231
3920.30915 0.04247
3919.02338 0.04285
3917.73762 0.04297
3916.45185 0.04243
3915.16608 0.04142
3913.88031 0.04055
3912.59454 0.04019
3911.30877 0.04029
3910.02300 0.04067
3908.73723 0.04111
3907.45146 0.04124
3906.16570 0.04070
3904.87993 0.03955
3903.59416 0.03850
3902.30839 0.03835
3901.02262 0.03936
3899.73685 0.04111
3898.45108 0.04291
3897.16531 0.04434
3895.87955 0.04543
3894.59378 0.04642
3893.30801 0.04729
3892.02224 0.04768
3890.73647 0.04722
3889.45070 0.04589
3888.16493 0.04415
3886.87916 0.04280
3885.59339 0.04236
3884.30763 0.04256
3883.02186 0.04276
3881.73609 0.04273
3880.45032 0.04276
3879.16455 0.04301
3877.87878 0.04310
3876.59301 0.04256
3875.30724 0.04138
3874.02148 0.04018
3872.73571 0.03970
3871.44994 0.04024
3870.16417 0.04136
3868.87840 0.04214
3867.59263 0.04186
3866.30686 0.04083
3865.02109 0.04000
3863.73532 0.03982
3862.44956 0.03993
3861.16379 0.03994
3859.87802 0.03986
3858.59225 0.03982
3857.30648 0.03986
3856.02071 0.04006
3854.73494 0.04067
3853.44917 0.04178
3852.16341 0.04293
3850.87764 0.04350
3849.59187 0.04340
3848.30610 0.04304
3847.02033 0.04278
3845.73456 0.04268
3844.44879 0.04261
3843.16302 0.04240
3841.87725 0.04194
3840.59149 0.04124
3839.30572 0.04049
3838.01995 0.03988
3836.73418 0.03938
3835.44841 0.03893
3834.16264 0.03870
3832.87687 0.03897
3831.59110 0.03963
3830.30534 0.04016
3829.01957 0.04023
3827.73380 0.04002
3826.44803 0.03986
3825.16226 0.03982
3823.87649 0.03967
3822.59072 0.03949
3821.30495 0.03964
3820.01918 0.04019
3818.73342 0.04056
3817.44765 0.04029
3816.16188 0.03967
3814.87611 0.03921
3813.59034 0.03900
3812.30457 0.03895
3811.01880 0.03924
3809.73303 0.04000
3808.44726 0.04090
3807.16150 0.04139
3805.87573 0.04107
3804.58996 0.04006
3803.30419 0.03904
3802.01842 0.03884
3800.73265 0.03960
3799.44688 0.04059
3798.16111 0.04112
3796.87535 0.04109
3795.58958 0.04060
3794.30381 0.03960
3793.01804 0.03833
3791.73227 0.03739
3790.44650 0.03714
3789.16073 0.03741
3787.87496 0.03788
3786.58919 0.03842
3785.30343 0.03898
3784.01766 0.03938
3782.73189 0.03940
3781.44612 0.03909
3780.16035 0.03874
3778.87458 0.03857
3777.58881 0.03847
3776.30304 0.03827
3775.01728 0.03810
3773.73151 0.03823
3772.44574 0.03874
3771.15997 0.03959
3769.87420 0.04068
3768.58843 0.04173
3767.30266 0.04225
3766.01689 0.04195
3764.73112 0.04096
3763.44536 0.03970
3762.15959 0.03861
3760.87382 0.03802
3759.58805 0.03801
3758.30228 0.03836
3757.01651 0.03882
3755.73074 0.03921
3754.44497 0.03942
3753.15921 0.03955
3751.87344 0.03973
3750.58767 0.03987
3749.30190 0.03981
3748.01613 0.03952
3746.73036 0.03898
3745.44459 0.03834
3744.15882 0.03795
3742.87305 0.03796
3741.58729 0.03827
3740.30152 0.03889
3739.01575 0.03971
3737.72998 0.04032
3736.44421 0.04051
3735.15844 0.04048
3733.87267 0.04040
3732.58690 0.04017
3731.30114 0.03963
3730.01537 0.03876
3728.72960 0.03766
3727.44383 0.03664
3726.15806 0.03607
3724.87229 0.03611
3723.58652 0.03662
3722.30075 0.03730
3721.01498 0.03782
3719.72922 0.03797
3718.44345 0.03781
3717.15768 0.03751
3715.87191 0.03718
3714.58614 0.03678
3713.30037 0.03626
3712.01460 0.03565
3710.72883 0.03504
3709.44307 0.03462
3708.15730 0.03469
3706.87153 0.03538
3705.58576 0.03628
3704.29999 0.03679
3703.01422 0.03661
3701.72845 0.03597
3700.44268 0.03540
3699.15691 0.03532
3697.87115 0.03565
3696.58538 0.03592
3695.29961 0.03578
3694.01384 0.03528
3692.72807 0.03492
3691.44230 0.03513
3690.15653 0.03575
3688.87076 0.03613
3687.58500 0.03596
3686.29923 0.03563
3685.01346 0.03568
3683.72769 0.03620
3682.44192 0.03675
3681.15615 0.03667
3679.87038 0.03602
3678.58461 0.03551
3677.29884 0.03584
3676.01308 0.03705
3674.72731 0.03854
3673.44154 0.03948
3672.15577 0.03964
3670.87000 0.03956
3669.58423 0.03993
3668.29846 0.04083
3667.01269 0.04181
3665.72693 0.04227
3664.44116 0.04172
3663.15539 0.04026
3661.86962 0.03867
3660.58385 0.03768
3659.29808 0.03731
3658.01231 0.03726
3656.72654 0.03744
3655.44077 0.03800
3654.15501 0.03871
3652.86924 0.03907
3651.58347 0.03884
3650.29770 0.03830
3649.01193 0.03794
3647.72616 0.03785
3646.44039 0.03774
3645.15462 0.03736
3643.86886 0.03692
3642.58309 0.03688
3641.29732 0.03738
3640.01155 0.03813
3638.72578 0.03886
3637.44001 0.03950
3636.15424 0.03994
3634.86847 0.04007
3633.58270 0.04011
3632.29694 0.04049
3631.01117 0.04133
3629.72540 0.04238
3628.43963 0.04325
3627.15386 0.04365
3625.86809 0.04354
3624.58232 0.04298
3623.29655 0.04208
3622.01079 0.04103
3620.72502 0.04022
3619.43925 0.04000
3618.15348 0.04021
3616.86771 0.04031
3615.58194 0.04014
3614.29617 0.04013
3613.01040 0.04070
3611.72463 0.04159
3610.43887 0.04217
3609.15310 0.04225
3607.86733 0.04210
3606.58156 0.04188
3605.29579 0.04146
3604.01002 0.04084
3602.72425 0.04025
3601.43848 0.03994
3600.15272 0.04016
3598.86695 0.04104
3597.58118 0.04240
3596.29541 0.04359
3595.00964 0.04400
3593.72387 0.04369
3592.43810 0.04318
3591.15233 0.04293
3589.86656 0.04304
3588.58080 0.04326
3587.29503 0.04340
3586.00926 0.04358
3584.72349 0.04401
3583.43772 0.04454
3582.15195 0.04463
3580.86618 0.04395
3579.58041 0.04283
3578.29464 0.04206
3577.00888 0.04216
3575.72311 0.04289
3574.43734 0.04362
3573.15157 0.04389
3571.86580 0.04372
3570.58003 0.04344
3569.29426 0.04329
3568.00849 0.04332
3566.72273 0.04351
3565.43696 0.04387
3564.15119 0.04453
3562.86542 0.04559
3561.57965 0.04697
3560.29388 0.04831
3559.00811 0.04925
3557.72234 0.04968
3556.43657 0.04968
3555.15081 0.04931
3553.86504 0.04854
3552.57927 0.04747
3551.29350 0.04646
3550.00773 0.04583
3548.72196 0.04568
3547.43619 0.04594
3546.15042 0.04651
3544.86466 0.04724
3543.57889 0.04785
3542.29312 0.04811
3541.00735 0.04808
3539.72158 0.04801
3538.43581 0.04814
3537.15004 0.04845
3535.86427 0.04869
3534.57850 0.04869
3533.29274 0.04856
3532.00697 0.04861
3530.72120 0.04896
3529.43543 0.04938
3528.14966 0.04953
3526.86389 0.04939
3525.57812 0.04924
3524.29235 0.04939
3523.00659 0.04984
3521.72082 0.05028
3520.43505 0.05028
3519.14928 0.04972
3517.86351 0.04885
3516.57774 0.04817
3515.29197 0.04804
3514.00620 0.04846
3512.72043 0.04907
3511.43467 0.04942
3510.14890 0.04942
3508.86313 0.04933
3507.57736 0.04941
3506.29159 0.04960
3505.00582 0.04969
3503.72005 0.04964
3502.43428 0.04961
3501.14852 0.04971
3499.86275 0.04987
3498.57698 0.04989
3497.29121 0.04966
3496.00544 0.04927
3494.71967 0.04909
3493.43390 0.04940
3492.14813 0.05008
3490.86236 0.05062
3489.57660 0.05063
3488.29083 0.05031
3487.00506 0.05029
3485.71929 0.05104
3484.43352 0.05242
3483.14775 0.05380
3481.86198 0.05461
3480.57621 0.05473
3479.29045 0.05445
3478.00468 0.05415
3476.71891 0.05403
3475.43314 0.05411
3474.14737 0.05427
3472.86160 0.05441
3471.57583 0.05451
3470.29006 0.05462
3469.00429 0.05472
3467.71853 0.05460
3466.43276 0.05415
3465.14699 0.05368
3463.86122 0.05371
3462.57545 0.05438
3461.28968 0.05521
3460.00391 0.05553
3458.71814 0.05509
3457.43238 0.05420
3456.14661 0.05334
3454.86084 0.05286
3453.57507 0.05277
3452.28930 0.05288
3451.00353 0.05298
3449.71776 0.05300
3448.43199 0.05301
3447.14622 0.05311
3445.86046 0.05329
3444.57469 0.05351
3443.28892 0.05376
3442.00315 0.05407
3440.71738 0.05439
3439.43161 0.05457
3438.14584 0.05445
3436.86007 0.05405
3435.57431 0.05363
3434.28854 0.05348
3433.00277 0.05369
3431.71700 0.05416
3430.43123 0.05461
3429.14546 0.05477
3427.85969 0.05446
3426.57392 0.05389
3425.28815 0.05355
3424.00239 0.05383
3422.71662 0.05468
3421.43085 0.05562
3420.14508 0.05617
3418.85931 0.05622
3417.57354 0.05598
3416.28777 0.05579
3415.00200 0.05582
3413.71624 0.05603
3412.43047 0.05625
3411.14470 0.05638
3409.85893 0.05641
3408.57316 0.05644
3407.28739 0.05649
3406.00162 0.05654
3404.71585 0.05653
3403.43008 0.05653
3402.14432 0.05677
3400.85855 0.05743
3399.57278 0.05833
3398.28701 0.05888
3397.00124 0.05875
3395.71547 0.05825
3394.42970 0.05799
3393.14393 0.05833
3391.85817 0.05896
3390.57240 0.05922
3389.28663 0.05875
3388.00086 0.05781
3386.71509 0.05699
3385.42932 0.05660
3384.14355 0.05658
3382.85778 0.05673
3381.57201 0.05698
3380.28625 0.05727
3379.00048 0.05749
3377.71471 0.05751
3376.42894 0.05726
3375.14317 0.05690
3373.85740 0.05671
3372.57163 0.05699
3371.28586 0.05771
3370.00010 0.05855
3368.71433 0.05916
3367.42856 0.05940
3366.14279 0.05930
3364.85702 0.05894
3363.57125 0.05848
3362.28548 0.05815
3360.99971 0.05819
3359.71394 0.05861
3358.42818 0.05923
3357.14241 0.05978
3355.85664 0.06011
3354.57087 0.06018
3353.28510 0.06001
3351.99933 0.05958
3350.71356 0.05896
3349.42779 0.05831
3348.14202 0.05780
3346.85626 0.05748
3345.57049 0.05729
3344.28472 0.05723
3342.99895 0.05740
3341.71318 0.05780
3340.42741 0.05826
3339.14164 0.05859
3337.85587 0.05877
3336.57011 0.05894
3335.28434 0.05911
3333.99857 0.05906
3332.71280 0.05861
3331.42703 0.05791
3330.14126 0.05737
3328.85549 0.05727
3327.56972 0.05754
3326.28395 0.05790
3324.99819 0.05818
3323.71242 0.05845
3322.42665 0.05880
3321.14088 0.05920
3319.85511 0.05946
3318.56934 0.05939
3317.28357 0.05903
3315.99780 0.05857
3314.71204 0.05830
3313.42627 0.05832
3312.14050 0.05849
3310.85473 0.05854
3309.56896 0.05835
3308.28319 0.05806
3306.99742 0.05793
3305.71165 0.05810
3304.42588 0.05846
3303.14012 0.05874
3301.85435 0.05875
3300.56858 0.05854
3299.28281 0.05834
3297.99704 0.05824
3296.71127 0.05808
3295.42550 0.05767
3294.13973 0.05711
3292.85397 0.05673
3291.56820 0.05684
3290.28243 0.05737
3288.99666 0.05798
3287.71089 0.05836
3286.42512 0.05845
3285.13935 0.05837
3283.85358 0.05821
3282.56781 0.05798
3281.28205 0.05790
3279.99628 0.05826
3278.71051 0.05903
3277.42474 0.05977
3276.13897 0.06001
3274.85320 0.05968
3273.56743 0.05908
3272.28166 0.05863
3270.99590 0.05861
3269.71013 0.05901
3268.42436 0.05947
3267.13859 0.05961
3265.85282 0.05935
3264.56705 0.05887
3263.28128 0.05847
3261.99551 0.05833
3260.70974 0.05845
3259.42398 0.05874
3258.13821 0.05898
3256.85244 0.05890
3255.56667 0.05838
3254.28090 0.05760
3252.99513 0.05696
3251.70936 0.05679
3250.42359 0.05711
3249.13783 0.05758
3247.85206 0.05777
3246.56629 0.05756
3245.28052 0.05722
3243.99475 0.05719
3242.70898 0.05766
3241.42321 0.05841
3240.13744 0.05899
3238.85167 0.05910
3237.56591 0.05870
3236.28014 0.05807
3234.99437 0.05756
3233.70860 0.05734
3232.42283 0.05732
3231.13706 0.05731
3229.85129 0.05729
3228.56552 0.05732
3227.27976 0.05747
3225.99399 0.05776
3224.70822 0.05809
3223.42245 0.05829
3222.13668 0.05820
3220.85091 0.05784
3219.56514 0.05740
3218.27937 0.05709
3216.99360 0.05699
3215.70784 0.05711
3214.42207 0.05737
3213.13630 0.05762
3211.85053 0.05767
3210.56476 0.05749
3209.27899 0.05721
3207.99322 0.05699
3206.70745 0.05683
3205.42169 0.05666
3204.13592 0.05643
3202.85015 0.05621
3201.56438 0.05606
3200.27861 0.05600
3198.99284 0.05602
3197.70707 0.05609
3196.42130 0.05616
3195.13553 0.05616
3193.84977 0.05601
3192.56400 0.05570
3191.27823 0.05537
3189.99246 0.05515
3188.70669 0.05509
3187.42092 0.05516
3186.13515 0.05530
3184.84938 0.05556
3183.56362 0.05593
3182.27785 0.05637
3180.99208 0.05673
3179.70631 0.05691
3178.42054 0.05681
3177.13477 0.05641
3175.84900 0.05581
3174.56323 0.05525
3173.27746 0.05498
3171.99170 0.05510
3170.70593 0.05547
3169.42016 0.05577
3168.13439 0.05575
3166.84862 0.05542
3165.56285 0.05499
3164.27708 0.05469
3162.99131 0.05463
3161.70555 0.05474
3160.41978 0.05489
3159.13401 0.05493
3157.84824 0.05480
3156.56247 0.05461
3155.27670 0.05461
3153.99093 0.05492
3152.70516 0.05538
3151.41939 0.05563
3150.13363 0.05550
3148.84786 0.05520
3147.56209 0.05503
3146.27632 0.05505
3144.99055 0.05512
3143.70478 0.05513
3142.41901 0.05508
3141.13324 0.05499
3139.84748 0.05483
3138.56171 0.05459
3137.27594 0.05424
3135.99017 0.05383
3134.70440 0.05352
3133.41863 0.05349
3132.13286 0.05376
3130.84709 0.05414
3129.56132 0.05447
3128.27556 0.05478
3126.98979 0.05508
3125.70402 0.05529
3124.41825 0.05528
3123.13248 0.05500
3121.84671 0.05444
3120.56094 0.05367
3119.27517 0.05282
3117.98940 0.05214
3116.70364 0.05180
3115.41787 0.05173
3114.13210 0.05174
3112.84633 0.05177
3111.56056 0.05191
3110.27479 0.05223
3108.98902 0.05260
3107.70325 0.05287
3106.41749 0.05301
3105.13172 0.05308
3103.84595 0.05303
3102.56018 0.05279
3101.27441 0.05243
3099.98864 0.05214
3098.70287 0.05208
3097.41710 0.05219
3096.13133 0.05230
3094.84557 0.05228
3093.55980 0.05208
3092.27403 0.05171
3090.98826 0.05130
3089.70249 0.05105
3088.41672 0.05111
3087.13095 0.05140
3085.84518 0.05164
3084.55942 0.05159
3083.27365 0.05123
3081.98788 0.05084
3080.70211 0.05068
3079.41634 0.05075
3078.13057 0.05088
3076.84480 0.05094
3075.55903 0.05099
3074.27326 0.05112
3072.98750 0.05128
3071.70173 0.05131
3070.41596 0.05124
3069.13019 0.05124
3067.84442 0.05138
3066.55865 0.05154
3065.27288 0.05153
3063.98711 0.05130
3062.70135 0.05099
3061.41558 0.05083
3060.12981 0.05099
3058.84404 0.05143
3057.55827 0.05195
3056.27250 0.05226
3054.98673 0.05222
3053.70096 0.05189
3052.41519 0.05140
3051.12943 0.05078
3049.84366 0.05009
3048.55789 0.04946
3047.27212 0.04907
3045.98635 0.04898
3044.70058 0.04912
3043.41481 0.04937
3042.12904 0.04961
3040.84328 0.04974
3039.55751 0.04964
3038.27174 0.04933
3036.98597 0.04896
3035.70020 0.04874
3034.41443 0.04868
3033.12866 0.04870
3031.84289 0.04876
3030.55712 0.04891
3029.27136 0.04918
3027.98559 0.04947
3026.69982 0.04960
3025.41405 0.04947
3024.12828 0.04919
3022.84251 0.04898
3021.55674 0.04889
3020.27097 0.04884
3018.98521 0.04876
3017.69944 0.04871
3016.41367 0.04878
3015.12790 0.04895
3013.84213 0.04909
3012.55636 0.04904
3011.27059 0.04875
3009.98482 0.04827
3008.69905 0.04776
3007.41329 0.04737
3006.12752 0.04725
3004.84175 0.04741
3003.55598 0.04774
3002.27021 0.04811
3000.98444 0.04842
2999.69867 0.04859
2998.41290 0.04848
2997.12714 0.04817
2995.84137 0.04787
2994.55560 0.04775
2993.26983 0.04775
2991.98406 0.04767
2990.69829 0.04741
2989.41252 0.04715
2988.12675 0.04711
2986.84098 0.04731
2985.55522 0.04763
2984.26945 0.04784
2982.98368 0.04786
2981.69791 0.04780
2980.41214 0.04785
2979.12637 0.04811
2977.84060 0.04854
2976.55483 0.04900
2975.26907 0.04940
2973.98330 0.04972
2972.69753 0.05003
2971.41176 0.05043
2970.12599 0.05094
2968.84022 0.05146
2967.55445 0.05191
2966.26868 0.05234
2964.98291 0.05290
2963.69715 0.05370
2962.41138 0.05468
2961.12561 0.05569
2959.83984 0.05656
2958.55407 0.05717
2957.26830 0.05752
2955.98253 0.05770
2954.69676 0.05781
2953.41100 0.05784
2952.12523 0.05770
2950.83946 0.05742
2949.55369 0.05715
2948.26792 0.05709
2946.98215 0.05732
2945.69638 0.05775
2944.41061 0.05815
2943.12484 0.05828
2941.83908 0.05810
2940.55331 0.05781
2939.26754 0.05771
2937.98177 0.05795
2936.69600 0.05842
2935.41023 0.05893
2934.12446 0.05943
2932.83869 0.05995
2931.55293 0.06052
2930.26716 0.06106
2928.98139 0.06145
2927.69562 0.06163
2926.40985 0.06164
2925.12408 0.06165
2923.83831 0.06181
2922.55254 0.06206
2921.26677 0.06220
2919.98101 0.06204
2918.69524 0.06162
2917.40947 0.06110
2916.12370 0.06061
2914.83793 0.06023
2913.55216 0.05996
2912.26639 0.05975
2910.98062 0.05950
2909.69486 0.05917
2908.40909 0.05875
2907.12332 0.05827
2905.83755 0.05783
2904.55178 0.05759
2903.26601 0.05755
2901.98024 0.05754
2900.69447 0.05740
2899.40870 0.05715
2898.12294 0.05688
2896.83717 0.05658
2895.55140 0.05615
2894.26563 0.05557
2892.97986 0.05496
2891.69409 0.05445
2890.40832 0.05403
2889.12255 0.05366
2887.83678 0.05332
2886.55102 0.05309
2885.26525 0.05300
2883.97948 0.05300
2882.69371 0.05300
2881.40794 0.05296
2880.12217 0.05286
2878.83640 0.05271
2877.55063 0.05260
2876.26487 0.05263
2874.97910 0.05284
2873.69333 0.05317
2872.40756 0.05353
2871.12179 0.05381
2869.83602 0.05392
2868.55025 0.05382
2867.26448 0.05359
2865.97871 0.05341
2864.69295 0.05338
2863.40718 0.05350
2862.12141 0.05358
2860.83564 0.05347
2859.54987 0.05323
2858.26410 0.05301
2856.97833 0.05291
2855.69256 0.05285
2854.40680 0.05273
2853.12103 0.05251
2851.83526 0.05218
2850.54949 0.05179
2849.26372 0.05138
2847.97795 0.05092
2846.69218 0.05046
2845.40641 0.05012
2844.12064 0.05006
2842.83488 0.05013
2841.54911 0.05003
2840.26334 0.04962
2838.97757 0.04905
2837.69180 0.04853
2836.40603 0.04815
2835.12026 0.04788
2833.83449 0.04766
2832.54873 0.04740
2831.26296 0.04701
2829.97719 0.04651
2828.69142 0.04605
2827.40565 0.04570
2826.11988 0.04537
2824.83411 0.04491
2823.54834 0.04437
2822.26257 0.04397
2820.97681 0.04385
2819.69104 0.04396
2818.40527 0.04411
2817.11950 0.04413
2815.83373 0.04400
2814.54796 0.04383
2813.26219 0.04365
2811.97642 0.04340
2810.69066 0.04297
2809.40489 0.04247
2808.11912 0.04209
2806.83335 0.04188
2805.54758 0.04175
2804.26181 0.04160
2802.97604 0.04149
2801.69027 0.04155
2800.40450 0.04174
2799.11874 0.04186
2797.83297 0.04178
2796.54720 0.04160
2795.26143 0.04155
2793.97566 0.04170
2792.68989 0.04191
2791.40412 0.04193
2790.11835 0.04169
2788.83259 0.04128
2787.54682 0.04090
2786.26105 0.04071
2784.97528 0.04072
2783.68951 0.04086
2782.40374 0.04102
2781.11797 0.04111
2779.83220 0.04103
2778.54643 0.04080
2777.26067 0.04057
2775.97490 0.04049
2774.68913 0.04055
2773.40336 0.04058
2772.11759 0.04050
2770.83182 0.04036
2769.54605 0.04024
2768.26028 0.04011
2766.97452 0.03995
2765.68875 0.03986
2764.40298 0.03993
2763.11721 0.04009
2761.83144 0.04014
2760.54567 0.04002
2759.25990 0.03986
2757.97413 0.03981
2756.68836 0.03980
2755.40260 0.03968
2754.11683 0.03942
2752.83106 0.03919
2751.54529 0.03915
2750.25952 0.03935
2748.97375 0.03968
2747.68798 0.03994
2746.40221 0.03991
2745.11645 0.03954
2743.83068 0.03901
2742.54491 0.03865
2741.25914 0.03860
2739.97337 0.03876
2738.68760 0.03891
2737.40183 0.03895
2736.11606 0.03886
2734.83029 0.03874
2733.54453 0.03872
2732.25876 0.03881
2730.97299 0.03889
2729.68722 0.03879
2728.40145 0.03849
2727.11568 0.03818
2725.82991 0.03806
2724.54414 0.03813
2723.25838 0.03822
2721.97261 0.03818
2720.68684 0.03802
2719.40107 0.03785
2718.11530 0.03771
2716.82953 0.03758
2715.54376 0.03741
2714.25799 0.03720
2712.97222 0.03699
2711.68646 0.03689
2710.40069 0.03692
2709.11492 0.03703
2707.82915 0.03711
2706.54338 0.03712
2705.25761 0.03708
2703.97184 0.03706
2702.68607 0.03706
2701.40031 0.03711
2700.11454 0.03715
2698.82877 0.03713
2697.54300 0.03698
2696.25723 0.03675
2694.97146 0.03655
2693.68569 0.03649
2692.39992 0.03654
2691.11415 0.03662
2689.82839 0.03660
2688.54262 0.03650
2687.25685 0.03640
2685.97108 0.03635
2684.68531 0.03631
2683.39954 0.03617
2682.11377 0.03590
2680.82800 0.03559
2679.54224 0.03536
2678.25647 0.03533
2676.97070 0.03552
2675.68493 0.03587
2674.39916 0.03621
2673.11339 0.03635
2671.82762 0.03624
2670.54185 0.03601
2669.25608 0.03590
2667.97032 0.03598
2666.68455 0.03614
2665.39878 0.03619
2664.11301 0.03604
2662.82724 0.03573
2661.54147 0.03536
2660.25570 0.03495
2658.96993 0.03448
2657.68417 0.03399
2656.39840 0.03366
2655.11263 0.03360
2653.82686 0.03376
2652.54109 0.03395
2651.25532 0.03408
2649.96955 0.03416
2648.68378 0.03418
2647.39801 0.03413
2646.11225 0.03401
2644.82648 0.03390
2643.54071 0.03389
2642.25494 0.03398
2640.96917 0.03412
2639.68340 0.03418
2638.39763 0.03404
2637.11186 0.03362
2635.82609 0.03301
2634.54033 0.03244
2633.25456 0.03211
2631.96879 0.03205
2630.68302 0.03218
2629.39725 0.03239
2628.11148 0.03257
2626.82571 0.03259
2625.53994 0.03243
2624.25418 0.03220
2622.96841 0.03196
2621.68264 0.03176
2620.39687 0.03164
2619.11110 0.03163
2617.82533 0.03164
2616.53956 0.03157
2615.25379 0.03137
2613.96802 0.03113
2612.68226 0.03097
2611.39649 0.03099
2610.11072 0.03115
2608.82495 0.03132
2607.53918 0.03131
2606.25341 0.03104
2604.96764 0.03051
2603.68187 0.02985
2602.39611 0.02928
2601.11034 0.02899
2599.82457 0.02901
2598.53880 0.02919
2597.25303 0.02937
2595.96726 0.02952
2594.68149 0.02970
2593.39572 0.02995
2592.10995 0.03020
2590.82419 0.03031
2589.53842 0.03022
2588.25265 0.02998
2586.96688 0.02968
2585.68111 0.02935
2584.39534 0.02895
2583.10957 0.02854
2581.82380 0.02832
2580.53804 0.02846
2579.25227 0.02889
2577.96650 0.02930
2576.68073 0.02940
2575.39496 0.02920
2574.10919 0.02894
2572.82342 0.02880
2571.53765 0.02882
2570.25188 0.02883
2568.96612 0.02866
2567.68035 0.02836
2566.39458 0.02818
2565.10881 0.02837
2563.82304 0.02890
2562.53727 0.02947
2561.25150 0.02986
2559.96573 0.02994
2558.67997 0.02968
2557.39420 0.02908
2556.10843 0.02839
2554.82266 0.02799
2553.53689 0.02801
2552.25112 0.02820
2550.96535 0.02817
2549.67958 0.02790
2548.39381 0.02768
2547.10805 0.02782
2545.82228 0.02836
2544.53651 0.02897
2543.25074 0.02921
2541.96497 0.02885
2540.67920 0.02801
2539.39343 0.02709
2538.10766 0.02645
2536.82190 0.02629
2535.53613 0.02662
2534.25036 0.02720
2532.96459 0.02762
2531.67882 0.02765
2530.39305 0.02745
2529.10728 0.02741
2527.82151 0.02765
2526.53574 0.02793
2525.24998 0.02795
2523.96421 0.02775
2522.67844 0.02756
2521.39267 0.02757
2520.10690 0.02776
2518.82113 0.02797
2517.53536 0.02798
2516.24959 0.02777
2514.96383 0.02752
2513.67806 0.02752
2512.39229 0.02782
2511.10652 0.02828
2509.82075 0.02865
2508.53498 0.02879
2507.24921 0.02871
2505.96344 0.02854
2504.67767 0.02834
2503.39191 0.02801
2502.10614 0.02750
2500.82037 0.02694
2499.53460 0.02668
2498.24883 0.02685
2496.96306 0.02724
2495.67729 0.02755
2494.39152 0.02772
2493.10576 0.02785
2491.81999 0.02800
2490.53422 0.02810
2489.24845 0.02811
2487.96268 0.02806
2486.67691 0.02797
2485.39114 0.02778
2484.10537 0.02746
2482.81960 0.02718
2481.53384 0.02709
2480.24807 0.02722
2478.96230 0.02748
2477.67653 0.02774
2476.39076 0.02793
2475.10499 0.02792
2473.81922 0.02765
2472.53345 0.02723
2471.24769 0.02689
2469.96192 0.02678
2468.67615 0.02684
2467.39038 0.02692
2466.10461 0.02681
2464.81884 0.02644
2463.53307 0.02596
2462.24730 0.02566
2460.96153 0.02584
2459.67577 0.02648
2458.39000 0.02720
2457.10423 0.02751
2455.81846 0.02734
2454.53269 0.02702
2453.24692 0.02684
2451.96115 0.02681
2450.67538 0.02681
2449.38962 0.02686
2448.10385 0.02706
2446.81808 0.02731
2445.53231 0.02731
2444.24654 0.02693
2442.96077 0.02635
2441.67500 0.02594
2440.38923 0.02589
2439.10346 0.02604
2437.81770 0.02605
2436.53193 0.02579
2435.24616 0.02544
2433.96039 0.02533
2432.67462 0.02555
2431.38885 0.02593
2430.10308 0.02617
2428.81731 0.02622
2427.53155 0.02613
2426.24578 0.02594
2424.96001 0.02567
2423.67424 0.02544
2422.38847 0.02546
2421.10270 0.02577
2419.81693 0.02624
2418.53116 0.02668
2417.24539 0.02686
2415.95963 0.02657
2414.67386 0.02590
2413.38809 0.02518
2412.10232 0.02479
2410.81655 0.02481
2409.53078 0.02505
2408.24501 0.02531
2406.95924 0.02557
2405.67347 0.02586
2404.38771 0.02611
2403.10194 0.02625
2401.81617 0.02630
2400.53040 0.02637
2399.24463 0.02641
2397.95886 0.02639
2396.67309 0.02621
2395.38732 0.02593
2394.10156 0.02570
2392.81579 0.02564
2391.53002 0.02577
2390.24425 0.02599
2388.95848 0.02614
2387.67271 0.02614
2386.38694 0.02605
2385.10117 0.02603
2383.81540 0.02618
2382.52964 0.02643
2381.24387 0.02658
2379.95810 0.02657
2378.67233 0.02637
2377.38656 0.02629
2376.10079 0.02654
2374.81502 0.02690
2373.52925 0.02665
2372.24349 0.02585
2370.95772 0.02520
2369.67195 0.02512
2368.38618 0.02544
2367.10041 0.02573
2365.81464 0.02611
2364.52887 0.02639
2363.24310 0.02642
2361.95733 0.02597
2360.67157 0.02492
2359.38580 0.02401
2358.10003 0.02394
2356.81426 0.02472
2355.52849 0.02597
2354.24272 0.02723
2352.95695 0.02792
2351.67118 0.02748
2350.38542 0.02658
2349.09965 0.02622
2347.81388 0.02625
2346.52811 0.02585
2345.24234 0.02554
2343.95657 0.02635
2342.67080 0.02785
2341.38503 0.02739
2340.09926 0.02535
2338.81350 0.02524
2337.52773 0.02682
2336.24196 0.02626
2334.95619 0.02449
2333.67042 0.02498
2332.38465 0.02681
2331.09888 0.02589
2329.81311 0.02510
2328.52735 0.02598
2327.24158 0.02542
2325.95581 0.02427
2324.67004 0.02448
2323.38427 0.02488
2322.09850 0.02429
2320.81273 0.02432
2319.52696 0.02415
2318.24119 0.02380
2316.95543 0.02396
2315.66966 0.02391
2314.38389 0.02381
2313.09812 0.02380
2311.81235 0.02343
2310.52658 0.02324
2309.24081 0.02321
2307.95504 0.02296
2306.66928 0.02275
2305.38351 0.02252
2304.09774 0.02240
2302.81197 0.02235
2301.52620 0.02218
2300.24043 0.02203
2298.95466 0.02192
2297.66889 0.02186
2296.38312 0.02176
2295.09736 0.02158
2293.81159 0.02140
2292.52582 0.02120
2291.24005 0.02099
2289.95428 0.02073
2288.66851 0.02037
2287.38274 0.01992
2286.09697 0.01945
2284.81121 0.01910
2283.52544 0.01906
2282.23967 0.01945
2280.95390 0.02021
2279.66813 0.02101
2278.38236 0.02144
2277.09659 0.02129
2275.81082 0.02068
2274.52505 0.01995
2273.23929 0.01935
2271.95352 0.01898
2270.66775 0.01886
2269.38198 0.01892
2268.09621 0.01895
2266.81044 0.01879
2265.52467 0.01854
2264.23890 0.01860
2262.95314 0.01909
2261.66737 0.01976
2260.38160 0.02035
2259.09583 0.02078
2257.81006 0.02107
2256.52429 0.02119
2255.23852 0.02104
2253.95275 0.02061
2252.66698 0.02005
2251.38122 0.01951
2250.09545 0.01897
2248.80968 0.01838
2247.52391 0.01794
2246.23814 0.01784
2244.95237 0.01816
2243.66660 0.01878
2242.38083 0.01940
2241.09507 0.01971
2239.80930 0.01950
2238.52353 0.01870
2237.23776 0.01750
2235.95199 0.01636
2234.66622 0.01578
2233.38045 0.01586
2232.09468 0.01628
2230.80891 0.01654
2229.52315 0.01637
2228.23738 0.01592
2226.95161 0.01554
2225.66584 0.01548
2224.38007 0.01570
2223.09430 0.01585
2221.80853 0.01566
2220.52276 0.01519
2219.23700 0.01477
2217.95123 0.01457
2216.66546 0.01444
2215.37969 0.01418
2214.09392 0.01380
2212.80815 0.01342
2211.52238 0.01309
2210.23661 0.01293
2208.95084 0.01329
2207.66508 0.01444
2206.37931 0.01607
2205.09354 0.01731
2203.80777 0.01752
2202.52200 0.01685
2201.23623 0.01600
2199.95046 0.01550
2198.66469 0.01541
2197.37893 0.01551
2196.09316 0.01548
2194.80739 0.01505
2193.52162 0.01410
2192.23585 0.01277
2190.95008 0.01147
2189.66431 0.01074
2188.37854 0.01098
2187.09277 0.01198
2185.80701 0.01294
2184.52124 0.01317
2183.23547 0.01267
2181.94970 0.01184
2180.66393 0.01089
2179.37816 0.00985
2178.09239 0.00896
2176.80662 0.00859
2175.52085 0.00888
2174.23509 0.00977
2172.94932 0.01109
2171.66355 0.01244
2170.37778 0.01326
2169.09201 0.01315
2167.80624 0.01206
2166.52047 0.01030
2165.23470 0.00849
2163.94894 0.00742
2162.66317 0.00758
2161.37740 0.00864
2160.09163 0.00967
2158.80586 0.01009
2157.52009 0.01025
2156.23432 0.01068
2154.94855 0.01102
2153.66278 0.01037
2152.37702 0.00855
2151.09125 0.00667
2149.80548 0.00619
2148.51971 0.00758
2147.23394 0.01004
2145.94817 0.01228
2144.66240 0.01344
2143.37663 0.01346
2142.09087 0.01289
2140.80510 0.01239
2139.51933 0.01230
2138.23356 0.01252
2136.94779 0.01271
2135.66202 0.01262
2134.37625 0.01232
2133.09048 0.01216
2131.80471 0.01250
2130.51895 0.01339
2129.23318 0.01458
2127.94741 0.01573
2126.66164 0.01647
2125.37587 0.01656
2124.09010 0.01608
2122.80433 0.01546
2121.51856 0.01516
2120.23280 0.01526
2118.94703 0.01544
2117.66126 0.01541
2116.37549 0.01525
2115.08972 0.01522
2113.80395 0.01529
2112.51818 0.01512
2111.23241 0.01452
2109.94664 0.01375
2108.66088 0.01327
2107.37511 0.01332
2106.08934 0.01375
2104.80357 0.01419
2103.51780 0.01432
2102.23203 0.01398
2100.94626 0.01336
2099.66049 0.01381
2098.37473 0.01413
2097.08896 0.01438
2095.80319 0.01468
2094.51742 0.01476
2093.23165 0.01452
2091.94588 0.01418
2090.66011 0.01406
2089.37434 0.01425
2088.08857 0.01460
2086.80281 0.01485
2085.51704 0.01479
2084.23127 0.01441
2082.94550 0.01391
2081.65973 0.01346
2080.37396 0.01304
2079.08819 0.01249
2077.80242 0.01185
2076.51666 0.01137
2075.23089 0.01129
2073.94512 0.01146
2072.65935 0.01147
2071.37358 0.01110
2070.08781 0.01057
2068.80204 0.01034
2067.51627 0.01063
2066.23050 0.01125
2064.94474 0.01175
2063.65897 0.01184
2062.37320 0.01149
2061.08743 0.01081
2059.80166 0.01002
2058.51589 0.00945
2057.23012 0.00933
2055.94435 0.00962
2054.65859 0.00993
2053.37282 0.00996
2052.08705 0.00980
2050.80128 0.00979
2049.51551 0.01011
2048.22974 0.01047
2046.94397 0.01034
2045.65820 0.00939
2044.37243 0.00787
2043.08667 0.00635
2041.80090 0.00536
2040.51513 0.00509
2039.22936 0.00545
2037.94359 0.00619
2036.65782 0.00700
2035.37205 0.00750
2034.08628 0.00749
2032.80052 0.00718
2031.51475 0.00710
2030.22898 0.00765
2028.94321 0.00869
2027.65744 0.00957
2026.37167 0.00975
2025.08590 0.00920
2023.80013 0.00837
2022.51436 0.00774
2021.22860 0.00757
2019.94283 0.00777
2018.65706 0.00793
2017.37129 0.00767
2016.08552 0.00714
2014.79975 0.00697
2013.51398 0.00760
2012.22821 0.00878
2010.94245 0.00993
2009.65668 0.01078
2008.37091 0.01151
2007.08514 0.01218
2005.79937 0.01256
2004.51360 0.01236
2003.22783 0.01160
2001.94206 0.01066
2000.65629 0.01001
1999.37053 0.00984
1998.08476 0.00999
1996.79899 0.01016
1995.51322 0.01016
1994.22745 0.01006
1992.94168 0.01004
1991.65591 0.01016
1990.37014 0.01027
1989.08438 0.01013
1987.79861 0.00963
1986.51284 0.00896
1985.22707 0.00844
1983.94130 0.00829
1982.65553 0.00854
1981.36976 0.00905
1980.08399 0.00957
1978.79822 0.00985
1977.51246 0.00974
1976.22669 0.00942
1974.94092 0.00932
1973.65515 0.00971
1972.36938 0.01048
1971.08361 0.01127
1969.79784 0.01187
1968.51207 0.01238
1967.22631 0.01297
1965.94054 0.01363
1964.65477 0.01405
1963.36900 0.01391
1962.08323 0.01333
1960.79746 0.01287
1959.51169 0.01300
1958.22592 0.01367
1956.94015 0.01432
1955.65439 0.01449
1954.36862 0.01421
1953.08285 0.01383
1951.79708 0.01364
1950.51131 0.01363
1949.22554 0.01371
1947.93977 0.01377
1946.65400 0.01383
1945.36823 0.01399
1944.08247 0.01438
1942.79670 0.01504
1941.51093 0.01577
1940.22516 0.01628
1938.93939 0.01636
1937.65362 0.01604
1936.36785 0.01551
1935.08208 0.01504
1933.79632 0.01482
1932.51055 0.01489
1931.22478 0.01514
1929.93901 0.01544
1928.65324 0.01575
1927.36747 0.01609
1926.08170 0.01642
1924.79593 0.01657
1923.51016 0.01636
1922.22440 0.01575
1920.93863 0.01485
1919.65286 0.01386
1918.36709 0.01316
1917.08132 0.01317
1915.79555 0.01397
1914.50978 0.01511
1913.22401 0.01586
1911.93825 0.01577
1910.65248 0.01501
1909.36671 0.01410
1908.08094 0.01354
1906.79517 0.01349
1905.50940 0.01388
1904.22363 0.01448
1902.93786 0.01502
1901.65209 0.01527
1900.36633 0.01517
1899.08056 0.01486
1897.79479 0.01451
1896.50902 0.01423
1895.22325 0.01407
1893.93748 0.01415
1892.65171 0.01451
1891.36594 0.01502
1890.08018 0.01535
1888.79441 0.01529
1887.50864 0.01497
1886.22287 0.01474
1884.93710 0.01487
1883.65133 0.01528
1882.36556 0.01572
1881.07979 0.01593
1879.79402 0.01584
1878.50826 0.01565
1877.22249 0.01553
1875.93672 0.01554
1874.65095 0.01556
1873.36518 0.01548
1872.07941 0.01531
1870.79364 0.01516
1869.50787 0.01517
1868.22211 0.01536
1866.93634 0.01556
1865.65057 0.01557
1864.36480 0.01534
1863.07903 0.01507
1861.79326 0.01503
1860.50749 0.01527
1859.22172 0.01558
1857.93595 0.01572
1856.65019 0.01567
1855.36442 0.01553
1854.07865 0.01540
1852.79288 0.01529
1851.50711 0.01527
1850.22134 0.01539
1848.93557 0.01560
1847.64980 0.01574
1846.36404 0.01564
1845.07827 0.01536
1843.79250 0.01512
1842.50673 0.01506
1841.22096 0.01512
1839.93519 0.01519
1838.64942 0.01520
1837.36365 0.01515
1836.07788 0.01503
1834.79212 0.01494
1833.50635 0.01500
1832.22058 0.01520
1830.93481 0.01546
1829.64904 0.01563
1828.36327 0.01565
1827.07750 0.01556
1825.79173 0.01552
1824.50597 0.01568
1823.22020 0.01598
1821.93443 0.01622
1820.64866 0.01635
1819.36289 0.01643
1818.07712 0.01648
1816.79135 0.01641
1815.50558 0.01614
1814.21981 0.01574
1812.93405 0.01540
1811.64828 0.01524
1810.36251 0.01529
1809.07674 0.01544
1807.79097 0.01561
1806.50520 0.01573
1805.21943 0.01576
1803.93366 0.01571
1802.64790 0.01561
1801.36213 0.01555
1800.07636 0.01556
1798.79059 0.01560
1797.50482 0.01557
1796.21905 0.01545
1794.93328 0.01531
1793.64751 0.01532
1792.36174 0.01554
1791.07598 0.01586
1789.79021 0.01607
1788.50444 0.01611
1787.21867 0.01605
1785.93290 0.01598
1784.64713 0.01597
1783.36136 0.01601
1782.07559 0.01604
1780.78983 0.01606
1779.50406 0.01608
1778.21829 0.01610
1776.93252 0.01611
1775.64675 0.01610
1774.36098 0.01606
1773.07521 0.01606
1771.78944 0.01616
1770.50367 0.01627
1769.21791 0.01630
1767.93214 0.01624
1766.64637 0.01617
1765.36060 0.01613
1764.07483 0.01614
1762.78906 0.01626
1761.50329 0.01649
1760.21752 0.01667
1758.93176 0.01667
1757.64599 0.01654
1756.36022 0.01650
1755.07445 0.01661
1753.78868 0.01674
1752.50291 0.01674
1751.21714 0.01663
1749.93137 0.01650
1748.64560 0.01642
1747.35984 0.01637
1746.07407 0.01634
1744.78830 0.01631
1743.50253 0.01627
1742.21676 0.01622
1740.93099 0.01615
1739.64522 0.01612
1738.35945 0.01621
1737.07369 0.01637
1735.78792 0.01654
1734.50215 0.01674
1733.21638 0.01698
1731.93061 0.01713
1730.64484 0.01710
1729.35907 0.01698
1728.07330 0.01698
1726.78753 0.01710
1725.50177 0.01724
1724.21600 0.01731
1722.93023 0.01736
1721.64446 0.01743
1720.35869 0.01752
1719.07292 0.01765
1717.78715 0.01791
1716.50138 0.01830
1715.21561 0.01864
1713.92985 0.01879
1712.64408 0.01881
1711.35831 0.01886
1710.07254 0.01901
1708.78677 0.01927
1707.50100 0.01956
1706.21523 0.01987
1704.92946 0.02028
1703.64370 0.02076
1702.35793 0.02118
1701.07216 0.02151
1699.78639 0.02190
1698.50062 0.02225
1697.21485 0.02242
1695.92908 0.02245
1694.64331 0.02253
1693.35754 0.02262
1692.07178 0.02261
1690.78601 0.02260
1689.50024 0.02278
1688.21447 0.02312
1686.92870 0.02348
1685.64293 0.02379
1684.35716 0.02413
1683.07139 0.02451
1681.78563 0.02478
1680.49986 0.02494
1679.21409 0.02511
1677.92832 0.02536
1676.64255 0.02562
1675.35678 0.02589
1674.07101 0.02620
1672.78524 0.02653
1671.49947 0.02681
1670.21371 0.02702
1668.92794 0.02721
1667.64217 0.02739
1666.35640 0.02758
1665.07063 0.02781
1663.78486 0.02813
1662.49909 0.02851
1661.21332 0.02885
1659.92756 0.02905
1658.64179 0.02916
1657.35602 0.02930
1656.07025 0.02953
1654.78448 0.02985
1653.49871 0.03027
1652.21294 0.03076
1650.92717 0.03106
1649.64140 0.03096
1648.35564 0.03061
1647.06987 0.03036
1645.78410 0.03035
1644.49833 0.03047
1643.21256 0.03057
1641.92679 0.03062
1640.64102 0.03065
1639.35525 0.03068
1638.06949 0.03069
1636.78372 0.03070
1635.49795 0.03076
1634.21218 0.03085
1632.92641 0.03084
1631.64064 0.03070
1630.35487 0.03051
1629.06910 0.03040
1627.78333 0.03037
1626.49757 0.03038
1625.21180 0.03036
1623.92603 0.03032
1622.64026 0.03030
1621.35449 0.03032
1620.06872 0.03036
1618.78295 0.03039
1617.49718 0.03046
1616.21142 0.03059
1614.92565 0.03070
1613.63988 0.03068
1612.35411 0.03056
1611.06834 0.03047
1609.78257 0.03046
1608.49680 0.03052
1607.21103 0.03061
1605.92526 0.03075
1604.63950 0.03091
1603.35373 0.03104
1602.06796 0.03113
1600.78219 0.03122
1599.49642 0.03132
1598.21065 0.03145
1596.92488 0.03158
1595.63911 0.03170
1594.35335 0.03181
1593.06758 0.03191
1591.78181 0.03202
1590.49604 0.03215
1589.21027 0.03229
1587.92450 0.03242
1586.63873 0.03256
1585.35296 0.03275
1584.06719 0.03299
1582.78143 0.03327
1581.49566 0.03359
1580.20989 0.03399
1578.92412 0.03441
1577.63835 0.03479
1576.35258 0.03515
1575.06681 0.03550
1573.78104 0.03577
1572.49528 0.03592
1571.20951 0.03604
1569.92374 0.03627
1568.63797 0.03660
1567.35220 0.03693
1566.06643 0.03717
1564.78066 0.03740
1563.49489 0.03767
1562.20912 0.03798
1560.92336 0.03830
1559.63759 0.03870
1558.35182 0.03917
1557.06605 0.03955
1555.78028 0.03966
1554.49451 0.03963
1553.20874 0.03965
1551.92297 0.03978
1550.63721 0.03991
1549.35144 0.04001
1548.06567 0.04009
1546.77990 0.04015
1545.49413 0.04019
1544.20836 0.04024
1542.92259 0.04030
1541.63682 0.04033
1540.35105 0.04032
1539.06529 0.04028
1537.77952 0.04018
1536.49375 0.03994
1535.20798 0.03961
1533.92221 0.03935
1532.63644 0.03930
1531.35067 0.03939
1530.06490 0.03952
1528.77914 0.03970
1527.49337 0.03998
1526.20760 0.04040
1524.92183 0.04090
1523.63606 0.04141
1522.35029 0.04189
1521.06452 0.04243
1519.77875 0.04307
1518.49298 0.04371
1517.20722 0.04432
1515.92145 0.04493
1514.63568 0.04561
1513.34991 0.04635
1512.06414 0.04719
1510.77837 0.04814
1509.49260 0.04913
1508.20683 0.05008
1506.92107 0.05102
1505.63530 0.05198
1504.34953 0.05287
1503.06376 0.05359
1501.77799 0.05421
1500.49222 0.05486
1499.20645 0.05557
1497.92068 0.05624
1496.63491 0.05684
1495.34915 0.05739
1494.06338 0.05792
1492.77761 0.05842
1491.49184 0.05895
1490.20607 0.05956
1488.92030 0.06024
1487.63453 0.06096
1486.34876 0.06171
1485.06299 0.06254
1483.77723 0.06342
1482.49146 0.06434
1481.20569 0.06525
1479.91992 0.06616
1478.63415 0.06708
1477.34838 0.06799
1476.06261 0.06886
1474.77684 0.06964
1473.49108 0.07032
1472.20531 0.07091
1470.91954 0.07143
1469.63377 0.07187
1468.34800 0.07224
1467.06223 0.07258
1465.77646 0.07294
1464.49069 0.07332
1463.20492 0.07370
1461.91916 0.07407
1460.63339 0.07447
1459.34762 0.07488
1458.06185 0.07532
1456.77608 0.07579
1455.49031 0.07626
1454.20454 0.07661
1452.91877 0.07681
1451.63301 0.07696
1450.34724 0.07713
1449.06147 0.07729
1447.77570 0.07739
1446.48993 0.07741
1445.20416 0.07734
1443.91839 0.07722
1442.63262 0.07705
1441.34685 0.07684
1440.06109 0.07660
1438.77532 0.07636
1437.48955 0.07623
1436.20378 0.07633
1434.91801 0.07664
1433.63224 0.07705
1432.34647 0.07751
1431.06070 0.07807
1429.77494 0.07882
1428.48917 0.07978
1427.20340 0.08088
1425.91763 0.08206
1424.63186 0.08331
1423.34609 0.08460
1422.06032 0.08586
1420.77455 0.08698
1419.48878 0.08797
1418.20302 0.08884
1416.91725 0.08957
1415.63148 0.09013
1414.34571 0.09055
1413.05994 0.09086
1411.77417 0.09105
1410.48840 0.09107
1409.20263 0.09092
1407.91687 0.09060
1406.63110 0.09012
1405.34533 0.08949
1404.05956 0.08869
1402.77379 0.08774
1401.48802 0.08661
1400.20225 0.08532
1398.91648 0.08391
1397.63071 0.08241
1396.34495 0.08081
1395.05918 0.07915
1393.77341 0.07750
1392.48764 0.07587
1391.20187 0.07425
1389.91610 0.07267
1388.63033 0.07115
1387.34456 0.06970
1386.05880 0.06828
1384.77303 0.06680
1383.48726 0.06525
1382.20149 0.06370
1380.91572 0.06224
1379.62995 0.06085
1378.34418 0.05943
1377.05841 0.05791
1375.77264 0.05627
1374.48688 0.05458
1373.20111 0.05289
1371.91534 0.05121
1370.62957 0.04955
1369.34380 0.04796
1368.05803 0.04652
1366.77226 0.04522
1365.48649 0.04398
1364.20073 0.04275
1362.91496 0.04154
1361.62919 0.04040
1360.34342 0.03936
1359.05765 0.03838
1357.77188 0.03745
1356.48611 0.03656
1355.20034 0.03574
1353.91457 0.03499
1352.62881 0.03432
1351.34304 0.03369
1350.05727 0.03311
1348.77150 0.03256
1347.48573 0.03201
1346.19996 0.03147
1344.91419 0.03097
1343.62842 0.03052
1342.34266 0.03013
1341.05689 0.02975
1339.77112 0.02938
1338.48535 0.02901
1337.19958 0.02865
1335.91381 0.02831
1334.62804 0.02798
1333.34227 0.02766
1332.05650 0.02730
1330.77074 0.02693
1329.48497 0.02657
1328.19920 0.02630
1326.91343 0.02612
1325.62766 0.02602
1324.34189 0.02590
1323.05612 0.02573
1321.77035 0.02549
1320.48459 0.02522
1319.19882 0.02497
1317.91305 0.02474
1316.62728 0.02451
1315.34151 0.02428
1314.05574 0.02408
1312.76997 0.02393
1311.48420 0.02381
1310.19843 0.02370
1308.91267 0.02358
1307.62690 0.02346
1306.34113 0.02334
1305.05536 0.02320
1303.76959 0.02302
1302.48382 0.02285
1301.19805 0.02273
1299.91228 0.02267
1298.62652 0.02263
1297.34075 0.02254
1296.05498 0.02237
1294.76921 0.02212
1293.48344 0.02185
1292.19767 0.02160
1290.91190 0.02139
1289.62613 0.02124
1288.34036 0.02111
1287.05460 0.02099
1285.76883 0.02088
1284.48306 0.02079
1283.19729 0.02071
1281.91152 0.02062
1280.62575 0.02053
1279.33998 0.02044
1278.05421 0.02038
1276.76845 0.02030
1275.48268 0.02018
1274.19691 0.02003
1272.91114 0.01989
1271.62537 0.01979
1270.33960 0.01968
1269.05383 0.01953
1267.76806 0.01933
1266.48229 0.01914
1265.19653 0.01902
1263.91076 0.01897
1262.62499 0.01894
1261.33922 0.01889
1260.05345 0.01880
1258.76768 0.01870
1257.48191 0.01861
1256.19614 0.01853
1254.91037 0.01844
1253.62461 0.01833
1252.33884 0.01821
1251.05307 0.01811
1249.76730 0.01804
1248.48153 0.01798
1247.19576 0.01794
1245.90999 0.01789
1244.62422 0.01785
1243.33846 0.01780
1242.05269 0.01774
1240.76692 0.01767
1239.48115 0.01757
1238.19538 0.01742
1236.90961 0.01726
1235.62384 0.01711
1234.33807 0.01699
1233.05230 0.01689
1231.76654 0.01676
1230.48077 0.01662
1229.19500 0.01649
1227.90923 0.01640
1226.62346 0.01637
1225.33769 0.01639
1224.05192 0.01642
1222.76615 0.01641
1221.48039 0.01636
1220.19462 0.01629
1218.90885 0.01622
1217.62308 0.01616
1216.33731 0.01606
1215.05154 0.01590
1213.76577 0.01572
1212.48000 0.01557
1211.19423 0.01548
1209.90847 0.01545
1208.62270 0.01544
1207.33693 0.01541
1206.05116 0.01534
1204.76539 0.01525
1203.47962 0.01516
1202.19385 0.01512
1200.90808 0.01505
1199.62232 0.01491
1198.33655 0.01492
1197.05078 0.01490
1195.76501 0.01485
1194.47924 0.01480
1193.19347 0.01476
1191.90770 0.01473
1190.62193 0.01466
1189.33616 0.01455
1188.05040 0.01446
1186.76463 0.01442
1185.47886 0.01444
1184.19309 0.01446
1182.90732 0.01447
1181.62155 0.01445
1180.33578 0.01442
1179.05001 0.01435
1177.76425 0.01427
1176.47848 0.01424
1175.19271 0.01425
1173.90694 0.01432
1172.62117 0.01442
1171.33540 0.01454
1170.04963 0.01465
1168.76386 0.01474
1167.47809 0.01484
1166.19233 0.01497
1164.90656 0.01514
1163.62079 0.01533
1162.33502 0.01547
1161.04925 0.01556
1159.76348 0.01562
1158.47771 0.01573
1157.19194 0.01593
1155.90618 0.01619
1154.62041 0.01646
1153.33464 0.01672
1152.04887 0.01700
1150.76310 0.01730
1149.47733 0.01763
1148.19156 0.01800
1146.90579 0.01844
1145.62002 0.01897
1144.33426 0.01960
1143.04849 0.02029
1141.76272 0.02103
1140.47695 0.02178
1139.19118 0.02255
1137.90541 0.02336
1136.61964 0.02424
1135.33387 0.02520
1134.04811 0.02630
1132.76234 0.02759
1131.47657 0.02915
1130.19080 0.03095
1128.90503 0.03289
1127.61926 0.03493
1126.33349 0.03705
1125.04772 0.03933
1123.76195 0.04176
1122.47619 0.04431
1121.19042 0.04691
1119.90465 0.04952
1118.61888 0.05217
1117.33311 0.05486
1116.04734 0.05760
1114.76157 0.06036
1113.47580 0.06306
1112.19004 0.06569
1110.90427 0.06825
1109.61850 0.07079
1108.33273 0.07334
1107.04696 0.07587
1105.76119 0.07833
1104.47542 0.08064
1103.18965 0.08281
1101.90388 0.08490
1100.61812 0.08701
1099.33235 0.08916
1098.04658 0.09130
1096.76081 0.09329
1095.47504 0.09507
1094.18927 0.09667
1092.90350 0.09814
1091.61773 0.09954
1090.33197 0.10089
1089.04620 0.10222
1087.76043 0.10354
1086.47466 0.10489
1085.18889 0.10629
1083.90312 0.10776
1082.61735 0.10927
1081.33158 0.11080
1080.04581 0.11235
1078.76005 0.11403
1077.47428 0.11589
1076.18851 0.11788
1074.90274 0.11992
1073.61697 0.12202
1072.33120 0.12422
1071.04543 0.12653
1069.75966 0.12888
1068.47390 0.13123
1067.18813 0.13361
1065.90236 0.13605
1064.61659 0.13856
1063.33082 0.14107
1062.04505 0.14355
1060.75928 0.14597
1059.47351 0.14836
1058.18774 0.15073
1056.90198 0.15305
1055.61621 0.15532
1054.33044 0.15753
1053.04467 0.15969
1051.75890 0.16187
1050.47313 0.16413
1049.18736 0.16649
1047.90159 0.16896
1046.61583 0.17149
1045.33006 0.17409
1044.04429 0.17673
1042.75852 0.17940
1041.47275 0.18209
1040.18698 0.18485
1038.90121 0.18770
1037.61544 0.19060
1036.32967 0.19344
1035.04391 0.19611
1033.75814 0.19857
1032.47237 0.20087
1031.18660 0.20305
1029.90083 0.20511
1028.61506 0.20700
1027.32929 0.20870
1026.04352 0.21019
1024.75775 0.21146
1023.47199 0.21248
1022.18622 0.21324
1020.90045 0.21374
1019.61468 0.21401
1018.32891 0.21405
1017.04314 0.21383
1015.75737 0.21327
1014.47160 0.21231
1013.18584 0.21095
1011.90007 0.20922
1010.61430 0.20714
1009.32853 0.20472
1008.04276 0.20199
1006.75699 0.19895
1005.47122 0.19561
1004.18545 0.19191
1002.89968 0.18783
1001.61392 0.18341
1000.32815 0.17875
999.04238 0.17390
997.75661 0.16890
996.47084 0.16379
995.18507 0.15861
993.89930 0.15336
992.61353 0.14803
991.32777 0.14270
990.04200 0.13747
988.75623 0.13239
987.47046 0.12747
986.18469 0.12268
984.89892 0.11804
983.61315 0.11362
982.32738 0.10946
981.04161 0.10560
979.75585 0.10206
978.47008 0.09883
977.18431 0.09588
975.89854 0.09317
974.61277 0.09069
973.32700 0.08856
972.04123 0.08688
970.75546 0.08569
969.46970 0.08494
968.18393 0.08460
966.89816 0.08466
965.61239 0.08513
964.32662 0.08588
963.04085 0.08667
961.75508 0.08723
960.46931 0.08738
959.18354 0.08703
957.89778 0.08611
956.61201 0.08464
955.32624 0.08278
954.04047 0.08074
952.75470 0.07865
951.46893 0.07659
950.18316 0.07460
948.89739 0.07269
947.61163 0.07086
946.32586 0.06908
945.04009 0.06731
943.75432 0.06557
942.46855 0.06389
941.18278 0.06231
939.89701 0.06080
938.61124 0.05933
937.32547 0.05786
936.03971 0.05641
934.75394 0.05506
933.46817 0.05390
932.18240 0.05294
930.89663 0.05211
929.61086 0.05130
928.32509 0.05045
927.03932 0.04954
925.75356 0.04858
924.46779 0.04763
923.18202 0.04675
921.89625 0.04603
920.61048 0.04548
919.32471 0.04499
918.03894 0.04449
916.75317 0.04397
915.46740 0.04346
914.18164 0.04298
912.89587 0.04249
911.61010 0.04196
910.32433 0.04139
909.03856 0.04087
907.75279 0.04049
906.46702 0.04029
905.18125 0.04017
903.89549 0.04001
902.60972 0.03971
901.32395 0.03926
900.03818 0.03873
898.75241 0.03824
897.46664 0.03786
896.18087 0.03761
894.89510 0.03750
893.60933 0.03750
892.32357 0.03756
891.03780 0.03766
889.75203 0.03782
888.46626 0.03816
887.18049 0.03880
885.89472 0.03980
884.60895 0.04117
883.32318 0.04299
882.03742 0.04524
880.75165 0.04771
879.46588 0.04998
878.18011 0.05173
876.89434 0.05301
875.60857 0.05417
874.32280 0.05543
873.03703 0.05667
871.75126 0.05751
870.46550 0.05763
869.17973 0.05696
867.89396 0.05565
866.60819 0.05391
865.32242 0.05200
864.03665 0.05014
862.75088 0.04839
861.46511 0.04670
860.17935 0.04502
858.89358 0.04344
857.60781 0.04207
856.32204 0.04094
855.03627 0.04002
853.75050 0.03925
852.46473 0.03859
851.17896 0.03803
849.89319 0.03752
848.60743 0.03707
847.32166 0.03668
846.03589 0.03638
844.75012 0.03616
843.46435 0.03595
842.17858 0.03567
840.89281 0.03533
839.60704 0.03500
838.32128 0.03471
837.03551 0.03445
835.74974 0.03417
834.46397 0.03387
833.17820 0.03360
831.89243 0.03340
830.60666 0.03326
829.32089 0.03311
828.03512 0.03295
826.74936 0.03283
825.46359 0.03277
824.17782 0.03273
822.89205 0.03267
821.60628 0.03259
820.32051 0.03250
819.03474 0.03238
817.74897 0.03224
816.46321 0.03208
815.17744 0.03194
813.89167 0.03187
812.60590 0.03189
811.32013 0.03193
810.03436 0.03190
808.74859 0.03178
807.46282 0.03166
806.17705 0.03160
804.89129 0.03159
803.60552 0.03154
802.31975 0.03136
801.03398 0.03106
799.74821 0.03075
798.46244 0.03056
797.17667 0.03052
795.89090 0.03051
794.60513 0.03044
793.31937 0.03035
792.03360 0.03035
790.74783 0.03044
789.46206 0.03048
788.17629 0.03037
786.89052 0.03014
785.60475 0.02995
784.31898 0.02987
783.03322 0.02984
781.74745 0.02977
780.46168 0.02968
779.17591 0.02969
777.89014 0.02984
776.60437 0.03005
775.31860 0.03020
774.03283 0.03025
772.74706 0.03020
771.46130 0.03008
770.17553 0.02990
768.88976 0.02974
767.60399 0.02961
766.31822 0.02953
765.03245 0.02951
763.74668 0.02955
762.46091 0.02960
761.17515 0.02966
759.88938 0.02977
758.60361 0.02995
757.31784 0.03012
756.03207 0.03018
754.74630 0.03014
753.46053 0.03006
752.17476 0.03000
750.88899 0.02999
749.60323 0.03005
748.31746 0.03011
747.03169 0.03003
745.74592 0.02976
744.46015 0.02941
743.17438 0.02920
741.88861 0.02924
740.60284 0.02944
739.31708 0.02961
738.03131 0.02964
736.74554 0.02950
735.45977 0.02932
734.17400 0.02919
732.88823 0.02914
731.60246 0.02913
730.31669 0.02910
729.03092 0.02907
727.74516 0.02905
726.45939 0.02903
725.17362 0.02897
723.88785 0.02886
722.60208 0.02876
721.31631 0.02871
720.03054 0.02876
718.74477 0.02888
717.45901 0.02906
716.17324 0.02922
714.88747 0.02930
713.60170 0.02924
712.31593 0.02906
711.03016 0.02886
709.74439 0.02870
708.45862 0.02860
707.17285 0.02854
705.88709 0.02848
704.60132 0.02843
703.31555 0.02837
702.02978 0.02829
700.74401 0.02820
699.45824 0.02811
698.17247 0.02807
696.88670 0.02807
695.60094 0.02807
694.31517 0.02803
693.02940 0.02797
691.74363 0.02789
690.45786 0.02782
689.17209 0.02776
687.88632 0.02770
686.60055 0.02764
685.31478 0.02756
684.02902 0.02744
682.74325 0.02726
681.45748 0.02707
680.17171 0.02694
678.88594 0.02689
677.60017 0.02688
676.31440 0.02687
675.02863 0.02689
673.74287 0.02696
672.45710 0.02710
671.17133 0.02722
669.88556 0.02727
668.59979 0.02728
667.31402 0.02733
666.02825 0.02725
664.74248 0.02708
663.45671 0.02683
662.17095 0.02655
660.88518 0.02630
659.59941 0.02612
658.31364 0.02601
657.02787 0.02594
655.74210 0.02594
654.45633 0.02596
653.17056 0.02597
651.88480 0.02593
650.59903 0.02583
649.31326 0.02568
648.02749 0.02556
646.74172 0.02549
645.45595 0.02548
644.17018 0.02551
642.88441 0.02559
641.59864 0.02571
640.31288 0.02589
639.02711 0.02608
637.74134 0.02625
636.45557 0.02637
635.16980 0.02648
633.88403 0.02658
632.59826 0.02665
631.31249 0.02680
630.02673 0.02764
628.74096 0.02881
627.45519 0.02814
626.16942 0.02968
624.88365 0.03284
623.59788 0.03613
622.31211 0.03912
621.02634 0.04161
619.74057 0.04325
618.45481 0.04374
617.16904 0.04354
615.88327 0.04408
614.59750 0.04670
613.31173 0.05156
612.02596 0.05741
610.74019 0.06277
609.45442 0.06727
608.16866 0.07174
606.88289 0.07688
605.59712 0.08223
604.31135 0.08649
603.02558 0.08865
601.73981 0.08862
600.45404 0.08703
599.16827 0.08461
597.88250 0.08190
596.59674 0.07922
595.31097 0.07670
594.02520 0.07443
592.73943 0.07250
591.45366 0.07104
590.16789 0.07010
588.88212 0.06971
587.59635 0.06987
586.31059 0.07060
585.02482 0.07183
583.73905 0.07343
582.45328 0.07526
581.16751 0.07723
579.88174 0.07929
578.59597 0.08141
577.31020 0.08354
576.02443 0.08561
574.73867 0.08756
573.45290 0.08937
572.16713 0.09117
570.88136 0.09327
569.59559 0.09592
568.30982 0.09914
567.02405 0.10259
565.73828 0.10589
564.45251 0.10869
563.16675 0.11074
561.88098 0.11174
560.59521 0.11140
559.30944 0.10964
558.02367 0.10659
556.73790 0.10254
555.45213 0.09782
554.16636 0.09277
552.88060 0.08769
551.59483 0.08279
550.30906 0.07819
549.02329 0.07394
547.73752 0.07004
546.45175 0.06650
545.16598 0.06334
543.88021 0.06054
542.59444 0.05807
541.30868 0.05584
540.02291 0.05377
538.73714 0.05186
537.45137 0.05014
536.16560 0.04862
534.87983 0.04725
533.59406 0.04596
532.30829 0.04474
531.02253 0.04362
529.73676 0.04263
528.45099 0.04173
527.16522 0.04081
525.87945 0.03981
524.59368 0.03876
523.30791 0.03777
522.02214 0.03692
520.73637 0.03622
519.45061 0.03557
518.16484 0.03487
516.87907 0.03411
515.59330 0.03329
514.30753 0.03250
513.02176 0.03177
511.73599 0.03120
510.45022 0.03081
509.16446 0.03055
507.87869 0.03032
506.59292 0.03000
505.30715 0.02958
504.02138 0.02910
502.73561 0.02863
501.44984 0.02822
500.16407 0.02785
498.87830 0.02751
497.59254 0.02716
496.30677 0.02680
495.02100 0.02648
493.73523 0.02623
492.44946 0.02600
491.16369 0.02575
489.87792 0.02546
488.59215 0.02519
487.30639 0.02500
486.02062 0.02495
484.73485 0.02506
483.44908 0.02525
482.16331 0.02543
480.87754 0.02554
479.59177 0.02557
478.30600 0.02561
477.02023 0.02572
475.73447 0.02587
474.44870 0.02598
473.16293 0.02602
471.87716 0.02605
470.59139 0.02606
469.30562 0.02600
468.01985 0.02584
466.73408 0.02562
465.44832 0.02541
464.16255 0.02524
462.87678 0.02508
461.59101 0.02490
460.30524 0.02469
459.01947 0.02443
457.73370 0.02412
456.44793 0.02380
455.16216 0.02352
453.87640 0.02333
452.59063 0.02324
451.30486 0.02319
450.01909 0.02307
448.73332 0.02284
447.44755 0.02253
446.16178 0.02228
444.87601 0.02217
443.59025 0.02215
442.30448 0.02213
441.01871 0.02203
439.73294 0.02187
438.44717 0.02173
437.16140 0.02162
435.87563 0.02154
434.58986 0.02146
433.30409 0.02139
432.01833 0.02136
430.73256 0.02136
429.44679 0.02137
428.16102 0.02132
426.87525 0.02123
425.58948 0.02112
424.30371 0.02104
423.01794 0.02097
421.73218 0.02090
420.44641 0.02080
419.16064 0.02070
417.87487 0.02062
416.58910 0.02058
415.30333 0.02059
414.01756 0.02065
412.73179 0.02070
411.44602 0.02071
410.16026 0.02065
408.87449 0.02058
407.58872 0.02053
406.30295 0.02055
405.01718 0.02065
403.73141 0.02080
402.44564 0.02092
401.15987 0.02098
399.87411 0.02099
