3997.45528 0.03957
3996.16951 0.04025
3994.88374 0.04080
3993.59798 0.04119
3992.31221 0.04166
3991.02644 0.04246
3989.74067 0.04350
3988.45490 0.04443
3987.16913 0.04490
3985.88336 0.04473
3984.59759 0.04402
3983.31183 0.04317
3982.02606 0.04256
3980.74029 0.04220
3979.45452 0.04181
3978.16875 0.04131
3976.88298 0.04091
3975.59721 0.04078
3974.31144 0.04076
3973.02567 0.04065
3971.73991 0.04046
3970.45414 0.04022
3969.16837 0.03979
3967.88260 0.03901
3966.59683 0.03813
3965.31106 0.03773
3964.02529 0.03814
3962.73952 0.03903
3961.45376 0.03977
3960.16799 0.04000
3958.88222 0.03983
3957.59645 0.03946
3956.31068 0.03902
3955.02491 0.03860
3953.73914 0.03832
3952.45337 0.03834
3951.16760 0.03888
3949.88184 0.04011
3948.59607 0.04186
3947.31030 0.04357
3946.02453 0.04467
3944.73876 0.04501
3943.45299 0.04481
3942.16722 0.04431
3940.88145 0.04362
3939.59569 0.04288
3938.30992 0.04232
3937.02415 0.04209
3935.73838 0.04199
3934.45261 0.04173
3933.16684 0.04132
3931.88107 0.04106
3930.59530 0.04100
3929.30953 0.04070
3928.02377 0.03976
3926.73800 0.03839
3925.45223 0.03727
3924.16646 0.03686
3922.88069 0.03717
3921.59492 0.03796
3920.30915 0.03900
3919.02338 0.04004
3917.73762 0.04067
3916.45185 0.04050
3915.16608 0.03962
3913.88031 0.03875
3912.59454 0.03855
3911.30877 0.03908
3910.02300 0.03991
3908.73723 0.04072
3907.45146 0.04152
3906.16570 0.04233
3904.87993 0.04286
3903.59416 0.04262
3902.30839 0.04156
3901.02262 0.04028
3899.73685 0.03964
3898.45108 0.04014
3897.16531 0.04161
3895.87955 0.04338
3894.59378 0.04462
3893.30801 0.04485
3892.02224 0.04426
3890.73647 0.04341
3889.45070 0.04283
3888.16493 0.04267
3886.87916 0.04260
3885.59339 0.04229
3884.30763 0.04184
3883.02186 0.04177
3881.73609 0.04232
3880.45032 0.04310
3879.16455 0.04348
3877.87878 0.04318
3876.59301 0.04243
3875.30724 0.04154
3874.02148 0.04063
3872.73571 0.03978
3871.44994 0.03907
3870.16417 0.03844
3868.87840 0.03811
3867.59263 0.03864
3866.30686 0.03995
3865.02109 0.04084
3863.73532 0.04012
3862.44956 0.03808
3861.16379 0.03632
3859.87802 0.03612
3858.59225 0.03726
3857.30648 0.03859
3856.02071 0.03921
3854.73494 0.03897
3853.44917 0.03807
3852.16341 0.03701
3850.87764 0.03660
3849.59187 0.03730
3848.30610 0.03865
3847.02033 0.03960
3845.73456 0.03955
3844.44879 0.03881
3843.16302 0.03807
3841.87725 0.03765
3840.59149 0.03745
3839.30572 0.03733
3838.01995 0.03728
3836.73418 0.03740
3835.44841 0.03770
3834.16264 0.03797
3832.87687 0.03790
3831.59110 0.03758
3830.30534 0.03744
3829.01957 0.03764
3827.73380 0.03788
3826.44803 0.03784
3825.16226 0.03775
3823.87649 0.03819
3822.59072 0.03919
3821.30495 0.04006
3820.01918 0.04024
3818.73342 0.03989
3817.44765 0.03943
3816.16188 0.03877
3814.87611 0.03763
3813.59034 0.03632
3812.30457 0.03547
3811.01880 0.03542
3809.73303 0.03599
3808.44726 0.03652
3807.16150 0.03624
3805.87573 0.03520
3804.58996 0.03454
3803.30419 0.03527
3802.01842 0.03714
3800.73265 0.03899
3799.44688 0.04002
3798.16111 0.04012
3796.87535 0.03930
3795.58958 0.03776
3794.30381 0.03613
3793.01804 0.03513
3791.73227 0.03499
3790.44650 0.03549
3789.16073 0.03635
3787.87496 0.03736
3786.58919 0.03826
3785.30343 0.03884
3784.01766 0.03903
3782.73189 0.03893
3781.44612 0.03858
3780.16035 0.03803
3778.87458 0.03746
3777.58881 0.03700
3776.30304 0.03653
3775.01728 0.03588
3773.73151 0.03523
3772.44574 0.03507
3771.15997 0.03572
3769.87420 0.03696
3768.58843 0.03830
3767.30266 0.03933
3766.01689 0.03973
3764.73112 0.03942
3763.44536 0.03867
3762.15959 0.03804
3760.87382 0.03792
3759.58805 0.03824
3758.30228 0.03854
3757.01651 0.03828
3755.73074 0.03739
3754.44497 0.03628
3753.15921 0.03543
3751.87344 0.03517
3750.58767 0.03561
3749.30190 0.03652
3748.01613 0.03756
3746.73036 0.03863
3745.44459 0.03955
3744.15882 0.03978
3742.87305 0.03918
3741.58729 0.03832
3740.30152 0.03761
3739.01575 0.03696
3737.72998 0.03622
3736.44421 0.03549
3735.15844 0.03520
3733.87267 0.03570
3732.58690 0.03673
3731.30114 0.03733
3730.01537 0.03680
3728.72960 0.03528
3727.44383 0.03349
3726.15806 0.03218
3724.87229 0.03183
3723.58652 0.03235
3722.30075 0.03319
3721.01498 0.03398
3719.72922 0.03484
3718.44345 0.03592
3717.15768 0.03686
3715.87191 0.03720
3714.58614 0.03698
3713.30037 0.03656
3712.01460 0.03615
3710.72883 0.03560
3709.44307 0.03486
3708.15730 0.03407
3706.87153 0.03350
3705.58576 0.03332
3704.29999 0.03346
3703.01422 0.03372
3701.72845 0.03389
3700.44268 0.03388
3699.15691 0.03380
3697.87115 0.03397
3696.58538 0.03459
3695.29961 0.03547
3694.01384 0.03625
3692.72807 0.03675
3691.44230 0.03696
3690.15653 0.03693
3688.87076 0.03686
3687.58500 0.03683
3686.29923 0.03678
3685.01346 0.03646
3683.72769 0.03565
3682.44192 0.03475
3681.15615 0.03457
3679.87038 0.03543
3678.58461 0.03684
3677.29884 0.03808
3676.01308 0.03856
3674.72731 0.03815
3673.44154 0.03746
3672.15577 0.03721
3670.87000 0.03740
3669.58423 0.03738
3668.29846 0.03685
3667.01269 0.03609
3665.72693 0.03555
3664.44116 0.03545
3663.15539 0.03572
3661.86962 0.03616
3660.58385 0.03663
3659.29808 0.03712
3658.01231 0.03758
3656.72654 0.03777
3655.44077 0.03746
3654.15501 0.03681
3652.86924 0.03630
3651.58347 0.03620
3650.29770 0.03632
3649.01193 0.03640
3647.72616 0.03648
3646.44039 0.03678
3645.15462 0.03739
3643.86886 0.03800
3642.58309 0.03819
3641.29732 0.03783
3640.01155 0.03727
3638.72578 0.03704
3637.44001 0.03724
3636.15424 0.03759
3634.86847 0.03783
3633.58270 0.03809
3632.29694 0.03867
3631.01117 0.03943
3629.72540 0.03969
3628.43963 0.03902
3627.15386 0.03798
3625.86809 0.03758
3624.58232 0.03814
3623.29655 0.03910
3622.01079 0.03978
3620.72502 0.04000
3619.43925 0.03994
3618.15348 0.03987
3616.86771 0.04000
3615.58194 0.04038
3614.29617 0.04089
3613.01040 0.04132
3611.72463 0.04163
3610.43887 0.04200
3609.15310 0.04246
3607.86733 0.04279
3606.58156 0.04264
3605.29579 0.04185
3604.01002 0.04064
3602.72425 0.03959
3601.43848 0.03922
3600.15272 0.03946
3598.86695 0.03986
3597.58118 0.04005
3596.29541 0.04011
3595.00964 0.04022
3593.72387 0.04052
3592.43810 0.04123
3591.15233 0.04249
3589.86656 0.04400
3588.58080 0.04513
3587.29503 0.04547
3586.00926 0.04511
3584.72349 0.04449
3583.43772 0.04409
3582.15195 0.04414
3580.86618 0.04453
3579.58041 0.04497
3578.29464 0.04529
3577.00888 0.04563
3575.72311 0.04618
3574.43734 0.04678
3573.15157 0.04708
3571.86580 0.04705
3570.58003 0.04704
3569.29426 0.04726
3568.00849 0.04739
3566.72273 0.04697
3565.43696 0.04598
3564.15119 0.04489
3562.86542 0.04419
3561.57965 0.04402
3560.29388 0.04415
3559.00811 0.04421
3557.72234 0.04410
3556.43657 0.04409
3555.15081 0.04451
3553.86504 0.04526
3552.57927 0.04593
3551.29350 0.04630
3550.00773 0.04662
3548.72196 0.04720
3547.43619 0.04806
3546.15042 0.04890
3544.86466 0.04954
3543.57889 0.05001
3542.29312 0.05036
3541.00735 0.05050
3539.72158 0.05044
3538.43581 0.05036
3537.15004 0.05042
3535.86427 0.05056
3534.57850 0.05074
3533.29274 0.05123
3532.00697 0.05224
3530.72120 0.05350
3529.43543 0.05427
3528.14966 0.05414
3526.86389 0.05340
3525.57812 0.05272
3524.29235 0.05239
3523.00659 0.05211
3521.72082 0.05157
3520.43505 0.05086
3519.14928 0.05048
3517.86351 0.05085
3516.57774 0.05189
3515.29197 0.05305
3514.00620 0.05373
3512.72043 0.05379
3511.43467 0.05358
3510.14890 0.05351
3508.86313 0.05365
3507.57736 0.05376
3506.29159 0.05373
3505.00582 0.05372
3503.72005 0.05397
3502.43428 0.05448
3501.14852 0.05503
3499.86275 0.05548
3498.57698 0.05601
3497.29121 0.05693
3496.00544 0.05821
3494.71967 0.05940
3493.43390 0.06008
3492.14813 0.06007
3490.86236 0.05945
3489.57660 0.05843
3488.29083 0.05746
3487.00506 0.05697
3485.71929 0.05697
3484.43352 0.05693
3483.14775 0.05633
3481.86198 0.05524
3480.57621 0.05431
3479.29045 0.05418
3478.00468 0.05502
3476.71891 0.05645
3475.43314 0.05789
3474.14737 0.05887
3472.86160 0.05909
3471.57583 0.05856
3470.29006 0.05761
3469.00429 0.05685
3467.71853 0.05682
3466.43276 0.05756
3465.14699 0.05852
3463.86122 0.05898
3462.57545 0.05870
3461.28968 0.05801
3460.00391 0.05745
3458.71814 0.05733
3457.43238 0.05764
3456.14661 0.05818
3454.86084 0.05859
3453.57507 0.05861
3452.28930 0.05829
3451.00353 0.05813
3449.71776 0.05854
3448.43199 0.05947
3447.14622 0.06052
3445.86046 0.06129
3444.57469 0.06162
3443.28892 0.06146
3442.00315 0.06082
3440.71738 0.05983
3439.43161 0.05892
3438.14584 0.05870
3436.86007 0.05955
3435.57431 0.06131
3434.28854 0.06322
3433.00277 0.06448
3431.71700 0.06480
3430.43123 0.06436
3429.14546 0.06355
3427.85969 0.06274
3426.57392 0.06229
3425.28815 0.06241
3424.00239 0.06305
3422.71662 0.06382
3421.43085 0.06431
3420.14508 0.06429
3418.85931 0.06386
3417.57354 0.06322
3416.28777 0.06262
3415.00200 0.06233
3413.71624 0.06253
3412.43047 0.06315
3411.14470 0.06393
3409.85893 0.06452
3408.57316 0.06467
3407.28739 0.06439
3406.00162 0.06387
3404.71585 0.06337
3403.43008 0.06314
3402.14432 0.06325
3400.85855 0.06359
3399.57278 0.06386
3398.28701 0.06386
3397.00124 0.06373
3395.71547 0.06386
3394.42970 0.06442
3393.14393 0.06528
3391.85817 0.06620
3390.57240 0.06693
3389.28663 0.06715
3388.00086 0.06668
3386.71509 0.06575
3385.42932 0.06506
3384.14355 0.06517
3382.85778 0.06604
3381.57201 0.06717
3380.28625 0.06805
3379.00048 0.06846
3377.71471 0.06836
3376.42894 0.06782
3375.14317 0.06709
3373.85740 0.06660
3372.57163 0.06669
3371.28586 0.06742
3370.00010 0.06842
3368.71433 0.06918
3367.42856 0.06930
3366.14279 0.06873
3364.85702 0.06781
3363.57125 0.06702
3362.28548 0.06668
3360.99971 0.06674
3359.71394 0.06694
3358.42818 0.06702
3357.14241 0.06692
3355.85664 0.06670
3354.57087 0.06646
3353.28510 0.06623
3351.99933 0.06602
3350.71356 0.06585
3349.42779 0.06574
3348.14202 0.06577
3346.85626 0.06602
3345.57049 0.06652
3344.28472 0.06730
3342.99895 0.06826
3341.71318 0.06898
3340.42741 0.06896
3339.14164 0.06804
3337.85587 0.06672
3336.57011 0.06581
3335.28434 0.06577
3333.99857 0.06646
3332.71280 0.06738
3331.42703 0.06805
3330.14126 0.06832
3328.85549 0.06840
3327.56972 0.06861
3326.28395 0.06898
3324.99819 0.06923
3323.71242 0.06912
3322.42665 0.06872
3321.14088 0.06835
3319.85511 0.06824
3318.56934 0.06836
3317.28357 0.06855
3315.99780 0.06868
3314.71204 0.06881
3313.42627 0.06909
3312.14050 0.06950
3310.85473 0.06979
3309.56896 0.06962
3308.28319 0.06894
3306.99742 0.06811
3305.71165 0.06766
3304.42588 0.06783
3303.14012 0.06829
3301.85435 0.06848
3300.56858 0.06819
3299.28281 0.06773
3297.99704 0.06757
3296.71127 0.06775
3295.42550 0.06797
3294.13973 0.06792
3292.85397 0.06770
3291.56820 0.06769
3290.28243 0.06801
3288.99666 0.06833
3287.71089 0.06830
3286.42512 0.06801
3285.13935 0.06784
3283.85358 0.06802
3282.56781 0.06839
3281.28205 0.06860
3279.99628 0.06843
3278.71051 0.06788
3277.42474 0.06714
3276.13897 0.06660
3274.85320 0.06666
3273.56743 0.06744
3272.28166 0.06860
3270.99590 0.06949
3269.71013 0.06962
3268.42436 0.06895
3267.13859 0.06779
3265.85282 0.06666
3264.56705 0.06601
3263.28128 0.06608
3261.99551 0.06667
3260.70974 0.06728
3259.42398 0.06744
3258.13821 0.06719
3256.85244 0.06701
3255.56667 0.06722
3254.28090 0.06766
3252.99513 0.06786
3251.70936 0.06754
3250.42359 0.06691
3249.13783 0.06643
3247.85206 0.06646
3246.56629 0.06701
3245.28052 0.06782
3243.99475 0.06850
3242.70898 0.06879
3241.42321 0.06869
3240.13744 0.06840
3238.85167 0.06812
3237.56591 0.06781
3236.28014 0.06734
3234.99437 0.06673
3233.70860 0.06616
3232.42283 0.06580
3231.13706 0.06562
3229.85129 0.06552
3228.56552 0.06549
3227.27976 0.06552
3225.99399 0.06547
3224.70822 0.06519
3223.42245 0.06473
3222.13668 0.06443
3220.85091 0.06458
3219.56514 0.06517
3218.27937 0.06586
3216.99360 0.06630
3215.70784 0.06633
3214.42207 0.06603
3213.13630 0.06559
3211.85053 0.06520
3210.56476 0.06504
3209.27899 0.06511
3207.99322 0.06519
3206.70745 0.06507
3205.42169 0.06485
3204.13592 0.06481
3202.85015 0.06493
3201.56438 0.06488
3200.27861 0.06443
3198.99284 0.06375
3197.70707 0.06327
3196.42130 0.06325
3195.13553 0.06363
3193.84977 0.06414
3192.56400 0.06445
3191.27823 0.06438
3189.99246 0.06401
3188.70669 0.06362
3187.42092 0.06344
3186.13515 0.06345
3184.84938 0.06341
3183.56362 0.06311
3182.27785 0.06255
3180.99208 0.06198
3179.70631 0.06161
3178.42054 0.06155
3177.13477 0.06168
3175.84900 0.06177
3174.56323 0.06162
3173.27746 0.06132
3171.99170 0.06118
3170.70593 0.06140
3169.42016 0.06178
3168.13439 0.06193
3166.84862 0.06180
3165.56285 0.06176
3164.27708 0.06209
3162.99131 0.06264
3161.70555 0.06294
3160.41978 0.06269
3159.13401 0.06203
3157.84824 0.06126
3156.56247 0.06060
3155.27670 0.06009
3153.99093 0.05967
3152.70516 0.05935
3151.41939 0.05918
3150.13363 0.05914
3148.84786 0.05912
3147.56209 0.05901
3146.27632 0.05879
3144.99055 0.05850
3143.70478 0.05822
3142.41901 0.05811
3141.13324 0.05839
3139.84748 0.05900
3138.56171 0.05959
3137.27594 0.05975
3135.99017 0.05944
3134.70440 0.05900
3133.41863 0.05876
3132.13286 0.05867
3130.84709 0.05839
3129.56132 0.05774
3128.27556 0.05691
3126.98979 0.05633
3125.70402 0.05623
3124.41825 0.05656
3123.13248 0.05710
3121.84671 0.05769
3120.56094 0.05818
3119.27517 0.05842
3117.98940 0.05821
3116.70364 0.05755
3115.41787 0.05671
3114.13210 0.05608
3112.84633 0.05591
3111.56056 0.05612
3110.27479 0.05642
3108.98902 0.05658
3107.70325 0.05655
3106.41749 0.05644
3105.13172 0.05641
3103.84595 0.05656
3102.56018 0.05690
3101.27441 0.05731
3099.98864 0.05758
3098.70287 0.05760
3097.41710 0.05741
3096.13133 0.05715
3094.84557 0.05691
3093.55980 0.05661
3092.27403 0.05627
3090.98826 0.05599
3089.70249 0.05586
3088.41672 0.05582
3087.13095 0.05578
3085.84518 0.05576
3084.55942 0.05580
3083.27365 0.05590
3081.98788 0.05592
3080.70211 0.05580
3079.41634 0.05566
3078.13057 0.05564
3076.84480 0.05571
3075.55903 0.05569
3074.27326 0.05551
3072.98750 0.05532
3071.70173 0.05528
3070.41596 0.05541
3069.13019 0.05558
3067.84442 0.05572
3066.55865 0.05583
3065.27288 0.05596
3063.98711 0.05605
3062.70135 0.05606
3061.41558 0.05606
3060.12981 0.05613
3058.84404 0.05617
3057.55827 0.05597
3056.27250 0.05540
3054.98673 0.05463
3053.70096 0.05403
3052.41519 0.05382
3051.12943 0.05390
3049.84366 0.05405
3048.55789 0.05416
3047.27212 0.05432
3045.98635 0.05460
3044.70058 0.05484
3043.41481 0.05475
3042.12904 0.05417
3040.84328 0.05327
3039.55751 0.05250
3038.27174 0.05223
3036.98597 0.05246
3035.70020 0.05280
3034.41443 0.05289
3033.12866 0.05268
3031.84289 0.05238
3030.55712 0.05219
3029.27136 0.05219
3027.98559 0.05235
3026.69982 0.05250
3025.41405 0.05248
3024.12828 0.05228
3022.84251 0.05205
3021.55674 0.05195
3020.27097 0.05191
3018.98521 0.05175
3017.69944 0.05143
3016.41367 0.05113
3015.12790 0.05105
3013.84213 0.05115
3012.55636 0.05123
3011.27059 0.05115
3009.98482 0.05103
3008.69905 0.05101
3007.41329 0.05108
3006.12752 0.05111
3004.84175 0.05101
3003.55598 0.05078
3002.27021 0.05051
3000.98444 0.05027
2999.69867 0.05012
2998.41290 0.05008
2997.12714 0.05013
2995.84137 0.05009
2994.55560 0.04983
2993.26983 0.04944
2991.98406 0.04919
2990.69829 0.04919
2989.41252 0.04948
2988.12675 0.05006
2986.84098 0.05087
2985.55522 0.05166
2984.26945 0.05212
2982.98368 0.05221
2981.69791 0.05206
2980.41214 0.05186
2979.12637 0.05171
2977.84060 0.05166
2976.55483 0.05176
2975.26907 0.05201
2973.98330 0.05236
2972.69753 0.05269
2971.41176 0.05291
2970.12599 0.05301
2968.84022 0.05313
2967.55445 0.05334
2966.26868 0.05360
2964.98291 0.05380
2963.69715 0.05399
2962.41138 0.05426
2961.12561 0.05452
2959.83984 0.05454
2958.55407 0.05427
2957.26830 0.05402
2955.98253 0.05417
2954.69676 0.05477
2953.41100 0.05560
2952.12523 0.05649
2950.83946 0.05731
2949.55369 0.05783
2948.26792 0.05783
2946.98215 0.05742
2945.69638 0.05703
2944.41061 0.05702
2943.12484 0.05736
2941.83908 0.05777
2940.55331 0.05799
2939.26754 0.05793
2937.98177 0.05757
2936.69600 0.05692
2935.41023 0.05610
2934.12446 0.05533
2932.83869 0.05479
2931.55293 0.05443
2930.26716 0.05402
2928.98139 0.05323
2927.69562 0.05181
2926.40985 0.04967
2925.12408 0.04695
2923.83831 0.04377
2922.55254 0.04013
2921.26677 0.03601
2919.98101 0.03173
2918.69524 0.02801
2917.40947 0.02577
2916.12370 0.02569
2914.83793 0.02784
2913.55216 0.03165
2912.26639 0.03613
2910.98062 0.04040
2909.69486 0.04394
2908.40909 0.04657
2907.12332 0.04831
2905.83755 0.04932
2904.55178 0.04985
2903.26601 0.05014
2901.98024 0.05028
2900.69447 0.05035
2899.40870 0.05053
2898.12294 0.05086
2896.83717 0.05123
2895.55140 0.05144
2894.26563 0.05150
2892.97986 0.05153
2891.69409 0.05157
2890.40832 0.05156
2889.12255 0.05144
2887.83678 0.05131
2886.55102 0.05131
2885.26525 0.05151
2883.97948 0.05181
2882.69371 0.05203
2881.40794 0.05215
2880.12217 0.05220
2878.83640 0.05219
2877.55063 0.05211
2876.26487 0.05205
2874.97910 0.05212
2873.69333 0.05233
2872.40756 0.05262
2871.12179 0.05293
2869.83602 0.05323
2868.55025 0.05340
2867.26448 0.05336
2865.97871 0.05315
2864.69295 0.05286
2863.40718 0.05248
2862.12141 0.05192
2860.83564 0.05109
2859.54987 0.04999
2858.26410 0.04858
2856.97833 0.04678
2855.69256 0.04450
2854.40680 0.04164
2853.12103 0.03813
2851.83526 0.03425
2850.54949 0.03093
2849.26372 0.02955
2847.97795 0.03097
2846.69218 0.03466
2845.40641 0.03896
2844.12064 0.04233
2842.83488 0.04429
2841.54911 0.04532
2840.26334 0.04608
2838.97757 0.04677
2837.69180 0.04731
2836.40603 0.04759
2835.12026 0.04768
2833.83449 0.04768
2832.54873 0.04764
2831.26296 0.04761
2829.97719 0.04762
2828.69142 0.04761
2827.40565 0.04748
2826.11988 0.04718
2824.83411 0.04673
2823.54834 0.04621
2822.26257 0.04569
2820.97681 0.04528
2819.69104 0.04500
2818.40527 0.04481
2817.11950 0.04461
2815.83373 0.04441
2814.54796 0.04427
2813.26219 0.04425
2811.97642 0.04433
2810.69066 0.04445
2809.40489 0.04454
2808.11912 0.04459
2806.83335 0.04461
2805.54758 0.04458
2804.26181 0.04450
2802.97604 0.04437
2801.69027 0.04423
2800.40450 0.04407
2799.11874 0.04390
2797.83297 0.04370
2796.54720 0.04349
2795.26143 0.04332
2793.97566 0.04326
2792.68989 0.04328
2791.40412 0.04330
2790.11835 0.04322
2788.83259 0.04300
2787.54682 0.04271
2786.26105 0.04248
2784.97528 0.04241
2783.68951 0.04250
2782.40374 0.04264
2781.11797 0.04277
2779.83220 0.04297
2778.54643 0.04325
2777.26067 0.04342
2775.97490 0.04326
2774.68913 0.04281
2773.40336 0.04231
2772.11759 0.04198
2770.83182 0.04185
2769.54605 0.04179
2768.26028 0.04174
2766.97452 0.04176
2765.68875 0.04191
2764.40298 0.04218
2763.11721 0.04241
2761.83144 0.04243
2760.54567 0.04223
2759.25990 0.04192
2757.97413 0.04168
2756.68836 0.04160
2755.40260 0.04164
2754.11683 0.04170
2752.83106 0.04172
2751.54529 0.04171
2750.25952 0.04166
2748.97375 0.04157
2747.68798 0.04138
2746.40221 0.04107
2745.11645 0.04072
2743.83068 0.04049
2742.54491 0.04052
2741.25914 0.04079
2739.97337 0.04116
2738.68760 0.04137
2737.40183 0.04128
2736.11606 0.04092
2734.83029 0.04056
2733.54453 0.04044
2732.25876 0.04055
2730.97299 0.04066
2729.68722 0.04059
2728.40145 0.04042
2727.11568 0.04034
2725.82991 0.04035
2724.54414 0.04033
2723.25838 0.04025
2721.97261 0.04018
2720.68684 0.04016
2719.40107 0.04014
2718.11530 0.04011
2716.82953 0.04009
2715.54376 0.04012
2714.25799 0.04013
2712.97222 0.04004
2711.68646 0.03981
2710.40069 0.03951
2709.11492 0.03931
2707.82915 0.03928
2706.54338 0.03937
2705.25761 0.03940
2703.97184 0.03923
2702.68607 0.03891
2701.40031 0.03863
2700.11454 0.03857
2698.82877 0.03866
2697.54300 0.03872
2696.25723 0.03874
2694.97146 0.03885
2693.68569 0.03919
2692.39992 0.03960
2691.11415 0.03982
2689.82839 0.03974
2688.54262 0.03953
2687.25685 0.03942
2685.97108 0.03944
2684.68531 0.03938
2683.39954 0.03908
2682.11377 0.03859
2680.82800 0.03812
2679.54224 0.03779
2678.25647 0.03759
2676.97070 0.03753
2675.68493 0.03761
2674.39916 0.03777
2673.11339 0.03791
2671.82762 0.03798
2670.54185 0.03800
2669.25608 0.03800
2667.97032 0.03803
2666.68455 0.03812
2665.39878 0.03823
2664.11301 0.03821
2662.82724 0.03804
2661.54147 0.03786
2660.25570 0.03785
2658.96993 0.03800
2657.68417 0.03812
2656.39840 0.03807
2655.11263 0.03789
2653.82686 0.03770
2652.54109 0.03750
2651.25532 0.03725
2649.96955 0.03691
2648.68378 0.03657
2647.39801 0.03635
2646.11225 0.03630
2644.82648 0.03634
2643.54071 0.03634
2642.25494 0.03628
2640.96917 0.03624
2639.68340 0.03627
2638.39763 0.03624
2637.11186 0.03599
2635.82609 0.03555
2634.54033 0.03506
2633.25456 0.03468
2631.96879 0.03442
2630.68302 0.03427
2629.39725 0.03425
2628.11148 0.03435
2626.82571 0.03449
2625.53994 0.03462
2624.25418 0.03477
2622.96841 0.03497
2621.68264 0.03511
2620.39687 0.03508
2619.11110 0.03490
2617.82533 0.03467
2616.53956 0.03443
2615.25379 0.03419
2613.96802 0.03397
2612.68226 0.03377
2611.39649 0.03356
2610.11072 0.03336
2608.82495 0.03322
2607.53918 0.03318
2606.25341 0.03323
2604.96764 0.03332
2603.68187 0.03334
2602.39611 0.03311
2601.11034 0.03261
2599.82457 0.03204
2598.53880 0.03169
2597.25303 0.03167
2595.96726 0.03185
2594.68149 0.03205
2593.39572 0.03219
2592.10995 0.03236
2590.82419 0.03263
2589.53842 0.03284
2588.25265 0.03273
2586.96688 0.03229
2585.68111 0.03187
2584.39534 0.03179
2583.10957 0.03196
2581.82380 0.03205
2580.53804 0.03185
2579.25227 0.03144
2577.96650 0.03096
2576.68073 0.03045
2575.39496 0.03000
2574.10919 0.02982
2572.82342 0.03004
2571.53765 0.03048
2570.25188 0.03088
2568.96612 0.03113
2567.68035 0.03134
2566.39458 0.03156
2565.10881 0.03174
2563.82304 0.03175
2562.53727 0.03152
2561.25150 0.03114
2559.96573 0.03076
2558.67997 0.03052
2557.39420 0.03045
2556.10843 0.03057
2554.82266 0.03088
2553.53689 0.03133
2552.25112 0.03171
2550.96535 0.03183
2549.67958 0.03168
2548.39381 0.03131
2547.10805 0.03079
2545.82228 0.03022
2544.53651 0.02986
2543.25074 0.02990
2541.96497 0.03025
2540.67920 0.03059
2539.39343 0.03060
2538.10766 0.03023
2536.82190 0.02971
2535.53613 0.02932
2534.25036 0.02919
2532.96459 0.02928
2531.67882 0.02957
2530.39305 0.03000
2529.10728 0.03036
2527.82151 0.03036
2526.53574 0.02996
2525.24998 0.02946
2523.96421 0.02917
2522.67844 0.02915
2521.39267 0.02917
2520.10690 0.02906
2518.82113 0.02883
2517.53536 0.02859
2516.24959 0.02833
2514.96383 0.02796
2513.67806 0.02746
2512.39229 0.02706
2511.10652 0.02708
2509.82075 0.02768
2508.53498 0.02865
2507.24921 0.02955
2505.96344 0.02990
2504.67767 0.02963
2503.39191 0.02909
2502.10614 0.02879
2500.82037 0.02898
2499.53460 0.02941
2498.24883 0.02962
2496.96306 0.02941
2495.67729 0.02889
2494.39152 0.02836
2493.10576 0.02807
2491.81999 0.02812
2490.53422 0.02847
2489.24845 0.02890
2487.96268 0.02920
2486.67691 0.02927
2485.39114 0.02919
2484.10537 0.02902
2482.81960 0.02880
2481.53384 0.02859
2480.24807 0.02849
2478.96230 0.02857
2477.67653 0.02868
2476.39076 0.02857
2475.10499 0.02826
2473.81922 0.02807
2472.53345 0.02827
2471.24769 0.02871
2469.96192 0.02902
2468.67615 0.02901
2467.39038 0.02886
2466.10461 0.02878
2464.81884 0.02885
2463.53307 0.02901
2462.24730 0.02905
2460.96153 0.02881
2459.67577 0.02828
2458.39000 0.02763
2457.10423 0.02716
2455.81846 0.02708
2454.53269 0.02737
2453.24692 0.02784
2451.96115 0.02828
2450.67538 0.02853
2449.38962 0.02857
2448.10385 0.02840
2446.81808 0.02802
2445.53231 0.02749
2444.24654 0.02698
2442.96077 0.02665
2441.67500 0.02648
2440.38923 0.02634
2439.10346 0.02618
2437.81770 0.02615
2436.53193 0.02641
2435.24616 0.02688
2433.96039 0.02726
2432.67462 0.02736
2431.38885 0.02719
2430.10308 0.02688
2428.81731 0.02656
2427.53155 0.02643
2426.24578 0.02658
2424.96001 0.02691
2423.67424 0.02716
2422.38847 0.02722
2421.10270 0.02719
2419.81693 0.02727
2418.53116 0.02748
2417.24539 0.02767
2415.95963 0.02771
2414.67386 0.02757
2413.38809 0.02745
2412.10232 0.02749
2410.81655 0.02763
2409.53078 0.02770
2408.24501 0.02765
2406.95924 0.02759
2405.67347 0.02757
2404.38771 0.02746
2403.10194 0.02712
2401.81617 0.02655
2400.53040 0.02595
2399.24463 0.02547
2397.95886 0.02527
2396.67309 0.02536
2395.38732 0.02569
2394.10156 0.02619
2392.81579 0.02671
2391.53002 0.02703
2390.24425 0.02702
2388.95848 0.02677
2387.67271 0.02650
2386.38694 0.02642
2385.10117 0.02652
2383.81540 0.02676
2382.52964 0.02701
2381.24387 0.02717
2379.95810 0.02716
2378.67233 0.02699
2377.38656 0.02677
2376.10079 0.02667
2374.81502 0.02671
2373.52925 0.02693
2372.24349 0.02717
2370.95772 0.02725
2369.67195 0.02696
2368.38618 0.02648
2367.10041 0.02617
2365.81464 0.02625
2364.52887 0.02653
2363.24310 0.02690
2361.95733 0.02739
2360.67157 0.02801
2359.38580 0.02837
2358.10003 0.02837
2356.81426 0.02808
2355.52849 0.02767
2354.24272 0.02727
2352.95695 0.02704
2351.67118 0.02725
2350.38542 0.02773
2349.09965 0.02795
2347.81388 0.02775
2346.52811 0.02773
2345.24234 0.02786
2343.95657 0.02753
2342.67080 0.02687
2341.38503 0.02705
2340.09926 0.02799
2338.81350 0.02794
2337.52773 0.02691
2336.24196 0.02694
2334.95619 0.02782
2333.67042 0.02754
2332.38465 0.02655
2331.09888 0.02697
2329.81311 0.02750
2328.52735 0.02679
2327.24158 0.02727
2325.95581 0.02845
2324.67004 0.02831
2323.38427 0.02813
2322.09850 0.02835
2320.81273 0.02765
2319.52696 0.02727
2318.24119 0.02718
2316.95543 0.02650
2315.66966 0.02620
2314.38389 0.02626
2313.09812 0.02625
2311.81235 0.02661
2310.52658 0.02688
2309.24081 0.02705
2307.95504 0.02726
2306.66928 0.02723
2305.38351 0.02715
2304.09774 0.02692
2302.81197 0.02648
2301.52620 0.02604
2300.24043 0.02570
2298.95466 0.02563
2297.66889 0.02570
2296.38312 0.02572
2295.09736 0.02561
2293.81159 0.02539
2292.52582 0.02522
2291.24005 0.02516
2289.95428 0.02517
2288.66851 0.02512
2287.38274 0.02484
2286.09697 0.02426
2284.81121 0.02349
2283.52544 0.02285
2282.23967 0.02267
2280.95390 0.02304
2279.66813 0.02375
2278.38236 0.02438
2277.09659 0.02453
2275.81082 0.02412
2274.52505 0.02343
2273.23929 0.02285
2271.95352 0.02259
2270.66775 0.02263
2269.38198 0.02282
2268.09621 0.02302
2266.81044 0.02305
2265.52467 0.02281
2264.23890 0.02230
2262.95314 0.02164
2261.66737 0.02090
2260.38160 0.02011
2259.09583 0.01938
2257.81006 0.01899
2256.52429 0.01909
2255.23852 0.01957
2253.95275 0.02006
2252.66698 0.02012
2251.38122 0.01959
2250.09545 0.01886
2248.80968 0.01851
2247.52391 0.01872
2246.23814 0.01944
2244.95237 0.01998
2243.66660 0.01980
2242.38083 0.01902
2241.09507 0.01832
2239.80930 0.01826
2238.52353 0.01880
2237.23776 0.01956
2235.95199 0.02028
2234.66622 0.02079
2233.38045 0.02084
2232.09468 0.02013
2230.80891 0.01884
2229.52315 0.01772
2228.23738 0.01755
2226.95161 0.01825
2225.66584 0.01902
2224.38007 0.01909
2223.09430 0.01839
2221.80853 0.01751
2220.52276 0.01709
2219.23700 0.01731
2217.95123 0.01772
2216.66546 0.01784
2215.37969 0.01765
2214.09392 0.01741
2212.80815 0.01705
2211.52238 0.01628
2210.23661 0.01528
2208.95084 0.01483
2207.66508 0.01550
2206.37931 0.01687
2205.09354 0.01793
2203.80777 0.01808
2202.52200 0.01748
2201.23623 0.01674
2199.95046 0.01626
2198.66469 0.01612
2197.37893 0.01613
2196.09316 0.01593
2194.80739 0.01528
2193.52162 0.01436
2192.23585 0.01384
2190.95008 0.01413
2189.66431 0.01487
2188.37854 0.01523
2187.09277 0.01483
2185.80701 0.01419
2184.52124 0.01427
2183.23547 0.01539
2181.94970 0.01674
2180.66393 0.01729
2179.37816 0.01688
2178.09239 0.01619
2176.80662 0.01566
2175.52085 0.01506
2174.23509 0.01407
2172.94932 0.01278
2171.66355 0.01148
2170.37778 0.01047
2169.09201 0.01004
2167.80624 0.01018
2166.52047 0.01051
2165.23470 0.01077
2163.94894 0.01121
2162.66317 0.01199
2161.37740 0.01253
2160.09163 0.01186
2158.80586 0.00997
2157.52009 0.00803
2156.23432 0.00717
2154.94855 0.00751
2153.66278 0.00851
2152.37702 0.00956
2151.09125 0.01015
2149.80548 0.01008
2148.51971 0.00974
2147.23394 0.00994
2145.94817 0.01110
2144.66240 0.01270
2143.37663 0.01379
2142.09087 0.01402
2140.80510 0.01384
2139.51933 0.01374
2138.23356 0.01363
2136.94779 0.01307
2135.66202 0.01199
2134.37625 0.01109
2133.09048 0.01115
2131.80471 0.01224
2130.51895 0.01361
2129.23318 0.01455
2127.94741 0.01496
2126.66164 0.01511
2125.37587 0.01520
2124.09010 0.01520
2122.80433 0.01502
2121.51856 0.01471
2120.23280 0.01447
2118.94703 0.01452
2117.66126 0.01487
2116.37549 0.01528
2115.08972 0.01558
2113.80395 0.01584
2112.51818 0.01623
2111.23241 0.01670
2109.94664 0.01699
2108.66088 0.01685
2107.37511 0.01628
2106.08934 0.01549
2104.80357 0.01484
2103.51780 0.01456
2102.23203 0.01464
2100.94626 0.01478
2099.66049 0.01416
2098.37473 0.01344
2097.08896 0.01278
2095.80319 0.01233
2094.51742 0.01233
2093.23165 0.01280
2091.94588 0.01351
2090.66011 0.01408
2089.37434 0.01432
2088.08857 0.01434
2086.80281 0.01445
2085.51704 0.01478
2084.23127 0.01513
2082.94550 0.01521
2081.65973 0.01495
2080.37396 0.01459
2079.08819 0.01437
2077.80242 0.01435
2076.51666 0.01439
2075.23089 0.01430
2073.94512 0.01409
2072.65935 0.01394
2071.37358 0.01387
2070.08781 0.01370
2068.80204 0.01332
2067.51627 0.01289
2066.23050 0.01266
2064.94474 0.01268
2063.65897 0.01271
2062.37320 0.01253
2061.08743 0.01213
2059.80166 0.01164
2058.51589 0.01121
2057.23012 0.01091
2055.94435 0.01078
2054.65859 0.01081
2053.37282 0.01085
2052.08705 0.01073
2050.80128 0.01039
2049.51551 0.00997
2048.22974 0.00968
2046.94397 0.00953
2045.65820 0.00925
2044.37243 0.00861
2043.08667 0.00781
2041.80090 0.00721
2040.51513 0.00695
2039.22936 0.00670
2037.94359 0.00616
2036.65782 0.00546
2035.37205 0.00503
2034.08628 0.00522
2032.80052 0.00603
2031.51475 0.00726
2030.22898 0.00853
2028.94321 0.00937
2027.65744 0.00945
2026.37167 0.00885
2025.08590 0.00798
2023.80013 0.00728
2022.51436 0.00700
2021.22860 0.00713
2019.94283 0.00746
2018.65706 0.00779
2017.37129 0.00810
2016.08552 0.00838
2014.79975 0.00848
2013.51398 0.00821
2012.22821 0.00772
2010.94245 0.00743
2009.65668 0.00760
2008.37091 0.00811
2007.08514 0.00870
2005.79937 0.00923
2004.51360 0.00961
2003.22783 0.00973
2001.94206 0.00952
2000.65629 0.00916
1999.37053 0.00890
1998.08476 0.00894
1996.79899 0.00919
1995.51322 0.00943
1994.22745 0.00959
1992.94168 0.00998
1991.65591 0.01088
1990.37014 0.01207
1989.08438 0.01286
1987.79861 0.01275
1986.51284 0.01188
1985.22707 0.01085
1983.94130 0.01012
1982.65553 0.00968
1981.36976 0.00932
1980.08399 0.00889
1978.79822 0.00833
1977.51246 0.00754
1976.22669 0.00668
1974.94092 0.00630
1973.65515 0.00707
1972.36938 0.00914
1971.08361 0.01185
1969.79784 0.01417
1968.51207 0.01531
1967.22631 0.01514
1965.94054 0.01410
1964.65477 0.01272
1963.36900 0.01138
1962.08323 0.01033
1960.79746 0.00978
1959.51169 0.00970
1958.22592 0.00985
1956.94015 0.01008
1955.65439 0.01048
1954.36862 0.01118
1953.08285 0.01207
1951.79708 0.01282
1950.51131 0.01315
1949.22554 0.01291
1947.93977 0.01230
1946.65400 0.01176
1945.36823 0.01177
1944.08247 0.01240
1942.79670 0.01328
1941.51093 0.01391
1940.22516 0.01408
1938.93939 0.01390
1937.65362 0.01354
1936.36785 0.01316
1935.08208 0.01291
1933.79632 0.01290
1932.51055 0.01310
1931.22478 0.01328
1929.93901 0.01328
1928.65324 0.01322
1927.36747 0.01339
1926.08170 0.01391
1924.79593 0.01460
1923.51016 0.01507
1922.22440 0.01508
1920.93863 0.01472
1919.65286 0.01429
1918.36709 0.01398
1917.08132 0.01384
1915.79555 0.01386
1914.50978 0.01403
1913.22401 0.01430
1911.93825 0.01457
1910.65248 0.01473
1909.36671 0.01470
1908.08094 0.01446
1906.79517 0.01410
1905.50940 0.01378
1904.22363 0.01362
1902.93786 0.01367
1901.65209 0.01390
1900.36633 0.01435
1899.08056 0.01495
1897.79479 0.01556
1896.50902 0.01592
1895.22325 0.01586
1893.93748 0.01547
1892.65171 0.01502
1891.36594 0.01470
1890.08018 0.01453
1888.79441 0.01445
1887.50864 0.01444
1886.22287 0.01451
1884.93710 0.01462
1883.65133 0.01473
1882.36556 0.01477
1881.07979 0.01465
1879.79402 0.01437
1878.50826 0.01406
1877.22249 0.01393
1875.93672 0.01404
1874.65095 0.01430
1873.36518 0.01458
1872.07941 0.01479
1870.79364 0.01488
1869.50787 0.01488
1868.22211 0.01483
1866.93634 0.01486
1865.65057 0.01503
1864.36480 0.01532
1863.07903 0.01560
1861.79326 0.01575
1860.50749 0.01570
1859.22172 0.01554
1857.93595 0.01538
1856.65019 0.01532
1855.36442 0.01532
1854.07865 0.01532
1852.79288 0.01528
1851.50711 0.01525
1850.22134 0.01522
1848.93557 0.01516
1847.64980 0.01504
1846.36404 0.01498
1845.07827 0.01505
1843.79250 0.01518
1842.50673 0.01524
1841.22096 0.01523
1839.93519 0.01524
1838.64942 0.01531
1837.36365 0.01536
1836.07788 0.01529
1834.79212 0.01507
1833.50635 0.01480
1832.22058 0.01459
1830.93481 0.01450
1829.64904 0.01452
1828.36327 0.01466
1827.07750 0.01490
1825.79173 0.01513
1824.50597 0.01519
1823.22020 0.01506
1821.93443 0.01487
1820.64866 0.01476
1819.36289 0.01476
1818.07712 0.01481
1816.79135 0.01489
1815.50558 0.01501
1814.21981 0.01517
1812.93405 0.01534
1811.64828 0.01548
1810.36251 0.01558
1809.07674 0.01568
1807.79097 0.01579
1806.50520 0.01585
1805.21943 0.01584
1803.93366 0.01580
1802.64790 0.01576
1801.36213 0.01573
1800.07636 0.01566
1798.79059 0.01559
1797.50482 0.01554
1796.21905 0.01553
1794.93328 0.01552
1793.64751 0.01551
1792.36174 0.01552
1791.07598 0.01557
1789.79021 0.01565
1788.50444 0.01573
1787.21867 0.01578
1785.93290 0.01579
1784.64713 0.01575
1783.36136 0.01569
1782.07559 0.01564
1780.78983 0.01562
1779.50406 0.01562
1778.21829 0.01562
1776.93252 0.01565
1775.64675 0.01577
1774.36098 0.01601
1773.07521 0.01627
1771.78944 0.01640
1770.50367 0.01640
1769.21791 0.01640
1767.93214 0.01646
1766.64637 0.01652
1765.36060 0.01657
1764.07483 0.01663
1762.78906 0.01665
1761.50329 0.01661
1760.21752 0.01652
1758.93176 0.01647
1757.64599 0.01649
1756.36022 0.01653
1755.07445 0.01653
1753.78868 0.01651
1752.50291 0.01647
1751.21714 0.01638
1749.93137 0.01629
1748.64560 0.01630
1747.35984 0.01643
1746.07407 0.01657
1744.78830 0.01662
1743.50253 0.01658
1742.21676 0.01653
1740.93099 0.01653
1739.64522 0.01655
1738.35945 0.01650
1737.07369 0.01649
1735.78792 0.01663
1734.50215 0.01682
1733.21638 0.01687
1731.93061 0.01680
1730.64484 0.01680
1729.35907 0.01692
1728.07330 0.01708
1726.78753 0.01723
1725.50177 0.01738
1724.21600 0.01756
1722.93023 0.01776
1721.64446 0.01796
1720.35869 0.01818
1719.07292 0.01843
1717.78715 0.01866
1716.50138 0.01887
1715.21561 0.01910
1713.92985 0.01939
1712.64408 0.01972
1711.35831 0.02007
1710.07254 0.02040
1708.78677 0.02074
1707.50100 0.02112
1706.21523 0.02153
1704.92946 0.02198
1703.64370 0.02253
1702.35793 0.02329
1701.07216 0.02416
1699.78639 0.02485
1698.50062 0.02538
1697.21485 0.02596
1695.92908 0.02658
1694.64331 0.02711
1693.35754 0.02763
1692.07178 0.02833
1690.78601 0.02914
1689.50024 0.02988
1688.21447 0.03056
1686.92870 0.03136
1685.64293 0.03234
1684.35716 0.03328
1683.07139 0.03403
1681.78563 0.03470
1680.49986 0.03543
1679.21409 0.03621
1677.92832 0.03702
1676.64255 0.03785
1675.35678 0.03865
1674.07101 0.03937
1672.78524 0.04011
1671.49947 0.04097
1670.21371 0.04191
1668.92794 0.04278
1667.64217 0.04349
1666.35640 0.04412
1665.07063 0.04478
1663.78486 0.04552
1662.49909 0.04627
1661.21332 0.04695
1659.92756 0.04748
1658.64179 0.04787
1657.35602 0.04814
1656.07025 0.04849
1654.78448 0.04902
1653.49871 0.04960
1652.21294 0.04994
1650.92717 0.05009
1649.64140 0.05031
1648.35564 0.05070
1647.06987 0.05109
1645.78410 0.05132
1644.49833 0.05142
1643.21256 0.05148
1641.92679 0.05151
1640.64102 0.05144
1639.35525 0.05125
1638.06949 0.05102
1636.78372 0.05080
1635.49795 0.05053
1634.21218 0.05014
1632.92641 0.04971
1631.64064 0.04930
1630.35487 0.04887
1629.06910 0.04838
1627.78333 0.04782
1626.49757 0.04727
1625.21180 0.04676
1623.92603 0.04626
1622.64026 0.04569
1621.35449 0.04504
1620.06872 0.04442
1618.78295 0.04397
1617.49718 0.04366
1616.21142 0.04332
1614.92565 0.04292
1613.63988 0.04255
1612.35411 0.04228
1611.06834 0.04206
1609.78257 0.04183
1608.49680 0.04158
1607.21103 0.04130
1605.92526 0.04104
1604.63950 0.04085
1603.35373 0.04074
1602.06796 0.04071
1600.78219 0.04075
1599.49642 0.04084
1598.21065 0.04091
1596.92488 0.04093
1595.63911 0.04091
1594.35335 0.04089
1593.06758 0.04090
1591.78181 0.04092
1590.49604 0.04091
1589.21027 0.04089
1587.92450 0.04090
1586.63873 0.04098
1585.35296 0.04110
1584.06719 0.04122
1582.78143 0.04128
1581.49566 0.04130
1580.20989 0.04132
1578.92412 0.04148
1577.63835 0.04186
1576.35258 0.04235
1575.06681 0.04279
1573.78104 0.04321
1572.49528 0.04373
1571.20951 0.04438
1569.92374 0.04504
1568.63797 0.04561
1567.35220 0.04610
1566.06643 0.04651
1564.78066 0.04680
1563.49489 0.04696
1562.20912 0.04713
1560.92336 0.04744
1559.63759 0.04782
1558.35182 0.04807
1557.06605 0.04820
1555.78028 0.04838
1554.49451 0.04861
1553.20874 0.04876
1551.92297 0.04880
1550.63721 0.04874
1549.35144 0.04854
1548.06567 0.04819
1546.77990 0.04775
1545.49413 0.04725
1544.20836 0.04668
1542.92259 0.04613
1541.63682 0.04574
1540.35105 0.04557
1539.06529 0.04552
1537.77952 0.04554
1536.49375 0.04574
1535.20798 0.04611
1533.92221 0.04650
1532.63644 0.04672
1531.35067 0.04679
1530.06490 0.04684
1528.77914 0.04698
1527.49337 0.04718
1526.20760 0.04738
1524.92183 0.04754
1523.63606 0.04773
1522.35029 0.04800
1521.06452 0.04831
1519.77875 0.04859
1518.49298 0.04894
1517.20722 0.04938
1515.92145 0.04987
1514.63568 0.05037
1513.34991 0.05091
1512.06414 0.05144
1510.77837 0.05196
1509.49260 0.05256
1508.20683 0.05332
1506.92107 0.05413
1505.63530 0.05478
1504.34953 0.05526
1503.06376 0.05574
1501.77799 0.05626
1500.49222 0.05677
1499.20645 0.05722
1497.92068 0.05767
1496.63491 0.05813
1495.34915 0.05855
1494.06338 0.05890
1492.77761 0.05923
1491.49184 0.05956
1490.20607 0.05990
1488.92030 0.06029
1487.63453 0.06078
1486.34876 0.06139
1485.06299 0.06208
1483.77723 0.06282
1482.49146 0.06359
1481.20569 0.06440
1479.91992 0.06520
1478.63415 0.06593
1477.34838 0.06650
1476.06261 0.06692
1474.77684 0.06729
1473.49108 0.06778
1472.20531 0.06842
1470.91954 0.06915
1469.63377 0.06990
1468.34800 0.07058
1467.06223 0.07118
1465.77646 0.07174
1464.49069 0.07233
1463.20492 0.07303
1461.91916 0.07388
1460.63339 0.07485
1459.34762 0.07588
1458.06185 0.07687
1456.77608 0.07771
1455.49031 0.07835
1454.20454 0.07892
1452.91877 0.07948
1451.63301 0.07996
1450.34724 0.08029
1449.06147 0.08046
1447.77570 0.08049
1446.48993 0.08040
1445.20416 0.08020
1443.91839 0.07993
1442.63262 0.07961
1441.34685 0.07923
1440.06109 0.07883
1438.77532 0.07849
1437.48955 0.07825
1436.20378 0.07812
1434.91801 0.07816
1433.63224 0.07845
1432.34647 0.07900
1431.06070 0.07971
1429.77494 0.08051
1428.48917 0.08138
1427.20340 0.08232
1425.91763 0.08332
1424.63186 0.08433
1423.34609 0.08534
1422.06032 0.08636
1420.77455 0.08738
1419.48878 0.08831
1418.20302 0.08909
1416.91725 0.08979
1415.63148 0.09047
1414.34571 0.09110
1413.05994 0.09157
1411.77417 0.09184
1410.48840 0.09190
1409.20263 0.09179
1407.91687 0.09151
1406.63110 0.09106
1405.34533 0.09043
1404.05956 0.08960
1402.77379 0.08862
1401.48802 0.08755
1400.20225 0.08641
1398.91648 0.08517
1397.63071 0.08378
1396.34495 0.08229
1395.05918 0.08074
1393.77341 0.07915
1392.48764 0.07757
1391.20187 0.07606
1389.91610 0.07460
1388.63033 0.07315
1387.34456 0.07167
1386.05880 0.07016
1384.77303 0.06868
1383.48726 0.06726
1382.20149 0.06588
1380.91572 0.06451
1379.62995 0.06312
1378.34418 0.06170
1377.05841 0.06022
1375.77264 0.05869
1374.48688 0.05714
1373.20111 0.05557
1371.91534 0.05400
1370.62957 0.05247
1369.34380 0.05100
1368.05803 0.04962
1366.77226 0.04833
1365.48649 0.04713
1364.20073 0.04602
1362.91496 0.04497
1361.62919 0.04398
1360.34342 0.04306
1359.05765 0.04221
1357.77188 0.04142
1356.48611 0.04073
1355.20034 0.04013
1353.91457 0.03961
1352.62881 0.03912
1351.34304 0.03863
1350.05727 0.03813
1348.77150 0.03762
1347.48573 0.03715
1346.19996 0.03676
1344.91419 0.03642
1343.62842 0.03607
1342.34266 0.03572
1341.05689 0.03536
1339.77112 0.03499
1338.48535 0.03463
1337.19958 0.03429
1335.91381 0.03400
1334.62804 0.03371
1333.34227 0.03336
1332.05650 0.03296
1330.77074 0.03255
1329.48497 0.03218
1328.19920 0.03186
1326.91343 0.03155
1325.62766 0.03125
1324.34189 0.03099
1323.05612 0.03079
1321.77035 0.03063
1320.48459 0.03044
1319.19882 0.03021
1317.91305 0.02992
1316.62728 0.02961
1315.34151 0.02930
1314.05574 0.02900
1312.76997 0.02872
1311.48420 0.02847
1310.19843 0.02826
1308.91267 0.02806
1307.62690 0.02784
1306.34113 0.02759
1305.05536 0.02732
1303.76959 0.02709
1302.48382 0.02693
1301.19805 0.02681
1299.91228 0.02670
1298.62652 0.02656
1297.34075 0.02642
1296.05498 0.02628
1294.76921 0.02616
1293.48344 0.02606
1292.19767 0.02599
1290.91190 0.02592
1289.62613 0.02579
1288.34036 0.02560
1287.05460 0.02538
1285.76883 0.02521
1284.48306 0.02512
1283.19729 0.02509
1281.91152 0.02508
1280.62575 0.02505
1279.33998 0.02501
1278.05421 0.02495
1276.76845 0.02492
1275.48268 0.02488
1274.19691 0.02480
1272.91114 0.02464
1271.62537 0.02442
1270.33960 0.02424
1269.05383 0.02413
1267.76806 0.02408
1266.48229 0.02400
1265.19653 0.02387
1263.91076 0.02372
1262.62499 0.02362
1261.33922 0.02357
1260.05345 0.02356
1258.76768 0.02354
1257.48191 0.02352
1256.19614 0.02348
1254.91037 0.02343
1253.62461 0.02338
1252.33884 0.02337
1251.05307 0.02338
1249.76730 0.02341
1248.48153 0.02341
1247.19576 0.02337
1245.90999 0.02329
1244.62422 0.02321
1243.33846 0.02316
1242.05269 0.02309
1240.76692 0.02298
1239.48115 0.02280
1238.19538 0.02259
1236.90961 0.02239
1235.62384 0.02225
1234.33807 0.02215
1233.05230 0.02206
1231.76654 0.02195
1230.48077 0.02183
1229.19500 0.02171
1227.90923 0.02160
1226.62346 0.02146
1225.33769 0.02128
1224.05192 0.02102
1222.76615 0.02072
1221.48039 0.02041
1220.19462 0.02014
1218.90885 0.01992
1217.62308 0.01977
1216.33731 0.01968
1215.05154 0.01965
1213.76577 0.01964
1212.48000 0.01959
1211.19423 0.01950
1209.90847 0.01937
1208.62270 0.01928
1207.33693 0.01924
1206.05116 0.01924
1204.76539 0.01925
1203.47962 0.01923
1202.19385 0.01916
1200.90808 0.01908
1199.62232 0.01903
1198.33655 0.01890
1197.05078 0.01875
1195.76501 0.01859
1194.47924 0.01846
1193.19347 0.01836
1191.90770 0.01825
1190.62193 0.01811
1189.33616 0.01795
1188.05040 0.01784
1186.76463 0.01781
1185.47886 0.01779
1184.19309 0.01771
1182.90732 0.01759
1181.62155 0.01748
1180.33578 0.01743
1179.05001 0.01742
1177.76425 0.01744
1176.47848 0.01748
1175.19271 0.01754
1173.90694 0.01756
1172.62117 0.01754
1171.33540 0.01751
1170.04963 0.01752
1168.76386 0.01761
1167.47809 0.01775
1166.19233 0.01789
1164.90656 0.01802
1163.62079 0.01810
1162.33502 0.01814
1161.04925 0.01820
1159.76348 0.01829
1158.47771 0.01840
1157.19194 0.01848
1155.90618 0.01851
1154.62041 0.01853
1153.33464 0.01861
1152.04887 0.01878
1150.76310 0.01901
1149.47733 0.01929
1148.19156 0.01960
1146.90579 0.01996
1145.62002 0.02036
1144.33426 0.02082
1143.04849 0.02133
1141.76272 0.02191
1140.47695 0.02257
1139.19118 0.02328
1137.90541 0.02401
1136.61964 0.02475
1135.33387 0.02556
1134.04811 0.02650
1132.76234 0.02762
1131.47657 0.02894
1130.19080 0.03050
1128.90503 0.03229
1127.61926 0.03426
1126.33349 0.03637
1125.04772 0.03861
1123.76195 0.04099
1122.47619 0.04350
1121.19042 0.04612
1119.90465 0.04880
1118.61888 0.05152
1117.33311 0.05423
1116.04734 0.05689
1114.76157 0.05954
1113.47580 0.06220
1112.19004 0.06492
1110.90427 0.06765
1109.61850 0.07034
1108.33273 0.07292
1107.04696 0.07540
1105.76119 0.07785
1104.47542 0.08029
1103.18965 0.08268
1101.90388 0.08497
1100.61812 0.08712
1099.33235 0.08916
1098.04658 0.09107
1096.76081 0.09288
1095.47504 0.09461
1094.18927 0.09628
1092.90350 0.09792
1091.61773 0.09953
1090.33197 0.10108
1089.04620 0.10254
1087.76043 0.10385
1086.47466 0.10504
1085.18889 0.10618
1083.90312 0.10738
1082.61735 0.10872
1081.33158 0.11023
1080.04581 0.11192
1078.76005 0.11377
1077.47428 0.11573
1076.18851 0.11776
1074.90274 0.11987
1073.61697 0.12206
1072.33120 0.12433
1071.04543 0.12669
1069.75966 0.12915
1068.47390 0.13172
1067.18813 0.13437
1065.90236 0.13703
1064.61659 0.13967
1063.33082 0.14233
1062.04505 0.14499
1060.75928 0.14764
1059.47351 0.15026
1058.18774 0.15290
1056.90198 0.15558
1055.61621 0.15828
1054.33044 0.16092
1053.04467 0.16347
1051.75890 0.16595
1050.47313 0.16844
1049.18736 0.17098
1047.90159 0.17362
1046.61583 0.17639
1045.33006 0.17926
1044.04429 0.18220
1042.75852 0.18514
1041.47275 0.18801
1040.18698 0.19081
1038.90121 0.19353
1037.61544 0.19621
1036.32967 0.19884
1035.04391 0.20148
1033.75814 0.20416
1032.47237 0.20682
1031.18660 0.20933
1029.90083 0.21163
1028.61506 0.21370
1027.32929 0.21559
1026.04352 0.21730
1024.75775 0.21875
1023.47199 0.21991
1022.18622 0.22080
1020.90045 0.22143
1019.61468 0.22179
1018.32891 0.22183
1017.04314 0.22151
1015.75737 0.22085
1014.47160 0.21986
1013.18584 0.21855
1011.90007 0.21691
1010.61430 0.21496
1009.32853 0.21273
1008.04276 0.21022
1006.75699 0.20741
1005.47122 0.20425
1004.18545 0.20075
1002.89968 0.19695
1001.61392 0.19289
1000.32815 0.18858
999.04238 0.18407
997.75661 0.17945
996.47084 0.17479
995.18507 0.17006
993.89930 0.16518
992.61353 0.16015
991.32777 0.15505
990.04200 0.15001
988.75623 0.14512
987.47046 0.14041
986.18469 0.13585
984.89892 0.13144
983.61315 0.12714
982.32738 0.12299
981.04161 0.11900
979.75585 0.11521
978.47008 0.11161
977.18431 0.10827
975.89854 0.10524
974.61277 0.10256
973.32700 0.10026
972.04123 0.09833
970.75546 0.09686
969.46970 0.09593
968.18393 0.09561
966.89816 0.09580
965.61239 0.09629
964.32662 0.09681
963.04085 0.09722
961.75508 0.09743
960.46931 0.09738
959.18354 0.09688
957.89778 0.09583
956.61201 0.09427
955.32624 0.09240
954.04047 0.09039
952.75470 0.08834
951.46893 0.08630
950.18316 0.08427
948.89739 0.08225
947.61163 0.08025
946.32586 0.07833
945.04009 0.07651
943.75432 0.07475
942.46855 0.07298
941.18278 0.07123
939.89701 0.06958
938.61124 0.06810
937.32547 0.06677
936.03971 0.06549
934.75394 0.06419
933.46817 0.06289
932.18240 0.06164
930.89663 0.06046
929.61086 0.05935
928.32509 0.05832
927.03932 0.05741
925.75356 0.05660
924.46779 0.05586
923.18202 0.05515
921.89625 0.05446
920.61048 0.05378
919.32471 0.05308
918.03894 0.05234
916.75317 0.05159
915.46740 0.05087
914.18164 0.05020
912.89587 0.04963
911.61010 0.04920
910.32433 0.04888
909.03856 0.04857
907.75279 0.04818
906.46702 0.04772
905.18125 0.04722
903.89549 0.04668
902.60972 0.04606
901.32395 0.04539
900.03818 0.04474
898.75241 0.04421
897.46664 0.04384
896.18087 0.04356
894.89510 0.04327
893.60933 0.04297
892.32357 0.04271
891.03780 0.04255
889.75203 0.04249
888.46626 0.04255
887.18049 0.04281
885.89472 0.04341
884.60895 0.04452
883.32318 0.04627
882.03742 0.04851
880.75165 0.05085
879.46588 0.05282
878.18011 0.05428
876.89434 0.05547
875.60857 0.05670
874.32280 0.05800
873.03703 0.05912
871.75126 0.05979
870.46550 0.05987
869.17973 0.05944
867.89396 0.05857
866.60819 0.05728
865.32242 0.05558
864.03665 0.05358
862.75088 0.05149
861.46511 0.04956
860.17935 0.04793
858.89358 0.04661
857.60781 0.04547
856.32204 0.04447
855.03627 0.04359
853.75050 0.04287
852.46473 0.04224
851.17896 0.04168
849.89319 0.04118
848.60743 0.04073
847.32166 0.04028
846.03589 0.03981
844.75012 0.03936
843.46435 0.03901
842.17858 0.03873
840.89281 0.03846
839.60704 0.03815
838.32128 0.03784
837.03551 0.03759
835.74974 0.03740
834.46397 0.03724
833.17820 0.03707
831.89243 0.03687
830.60666 0.03666
829.32089 0.03642
828.03512 0.03613
826.74936 0.03584
825.46359 0.03563
824.17782 0.03552
822.89205 0.03550
821.60628 0.03548
820.32051 0.03544
819.03474 0.03539
817.74897 0.03531
816.46321 0.03523
815.17744 0.03518
813.89167 0.03515
812.60590 0.03510
811.32013 0.03495
810.03436 0.03474
808.74859 0.03457
807.46282 0.03451
806.17705 0.03451
804.89129 0.03447
803.60552 0.03437
802.31975 0.03429
801.03398 0.03429
799.74821 0.03430
798.46244 0.03425
797.17667 0.03416
795.89090 0.03412
794.60513 0.03417
793.31937 0.03423
792.03360 0.03419
790.74783 0.03403
789.46206 0.03378
788.17629 0.03352
786.89052 0.03329
785.60475 0.03314
784.31898 0.03311
783.03322 0.03311
781.74745 0.03305
780.46168 0.03294
779.17591 0.03289
777.89014 0.03298
776.60437 0.03316
775.31860 0.03333
774.03283 0.03340
772.74706 0.03334
771.46130 0.03317
770.17553 0.03295
768.88976 0.03277
767.60399 0.03273
766.31822 0.03279
765.03245 0.03287
763.74668 0.03288
762.46091 0.03281
761.17515 0.03277
759.88938 0.03287
758.60361 0.03312
757.31784 0.03340
756.03207 0.03358
754.74630 0.03361
753.46053 0.03349
752.17476 0.03329
750.88899 0.03305
749.60323 0.03284
748.31746 0.03269
747.03169 0.03260
745.74592 0.03259
744.46015 0.03265
743.17438 0.03275
741.88861 0.03281
740.60284 0.03273
739.31708 0.03251
738.03131 0.03227
736.74554 0.03213
735.45977 0.03211
734.17400 0.03214
732.88823 0.03216
731.60246 0.03214
730.31669 0.03210
729.03092 0.03208
727.74516 0.03210
726.45939 0.03218
725.17362 0.03227
723.88785 0.03224
722.60208 0.03225
721.31631 0.03228
720.03054 0.03232
718.74477 0.03240
717.45901 0.03250
716.17324 0.03259
714.88747 0.03263
713.60170 0.03258
712.31593 0.03249
711.03016 0.03239
709.74439 0.03231
708.45862 0.03226
707.17285 0.03219
705.88709 0.03209
704.60132 0.03198
703.31555 0.03190
702.02978 0.03187
700.74401 0.03186
699.45824 0.03184
698.17247 0.03181
696.88670 0.03179
695.60094 0.03182
694.31517 0.03187
693.02940 0.03191
691.74363 0.03190
690.45786 0.03188
689.17209 0.03185
687.88632 0.03180
686.60055 0.03174
685.31478 0.03164
684.02902 0.03153
682.74325 0.03141
681.45748 0.03129
680.17171 0.03117
678.88594 0.03109
677.60017 0.03106
676.31440 0.03107
675.02863 0.03113
673.74287 0.03123
672.45710 0.03139
671.17133 0.03166
669.88556 0.03193
668.59979 0.03200
667.31402 0.03196
666.02825 0.03194
664.74248 0.03165
663.45671 0.03130
662.17095 0.03104
660.88518 0.03084
659.59941 0.03070
658.31364 0.03062
657.02787 0.03058
655.74210 0.03054
654.45633 0.03047
653.17056 0.03033
651.88480 0.03016
650.59903 0.02997
649.31326 0.02983
648.02749 0.02977
646.74172 0.02977
645.45595 0.02979
644.17018 0.02976
642.88441 0.02965
641.59864 0.02950
640.31288 0.02938
639.02711 0.02932
637.74134 0.02933
636.45557 0.02939
635.16980 0.02950
633.88403 0.02967
632.59826 0.02990
631.31249 0.03016
630.02673 0.03018
628.74096 0.03012
627.45519 0.03118
626.16942 0.03152
624.88365 0.03146
623.59788 0.03152
622.31211 0.03173
621.02634 0.03240
619.74057 0.03416
618.45481 0.03734
617.16904 0.04151
615.88327 0.04584
614.59750 0.04970
613.31173 0.05301
612.02596 0.05626
610.74019 0.06016
609.45442 0.06499
608.16866 0.07026
606.88289 0.07514
605.59712 0.07933
604.31135 0.08310
603.02558 0.08634
601.73981 0.08826
600.45404 0.08828
599.16827 0.08673
597.88250 0.08444
596.59674 0.08199
595.31097 0.07953
594.02520 0.07712
592.73943 0.07492
591.45366 0.07315
590.16789 0.07194
588.88212 0.07130
587.59635 0.07123
586.31059 0.07169
585.02482 0.07262
583.73905 0.07403
582.45328 0.07592
581.16751 0.07825
579.88174 0.08086
578.59597 0.08352
577.31020 0.08607
576.02443 0.08842
574.73867 0.09060
573.45290 0.09262
572.16713 0.09455
570.88136 0.09658
569.59559 0.09898
568.30982 0.10192
567.02405 0.10527
565.73828 0.10873
564.45251 0.11190
563.16675 0.11437
561.88098 0.11573
560.59521 0.11571
559.30944 0.11431
558.02367 0.11170
556.73790 0.10815
555.45213 0.10387
554.16636 0.09910
552.88060 0.09412
551.59483 0.08922
550.30906 0.08462
549.02329 0.08040
547.73752 0.07655
546.45175 0.07306
545.16598 0.06995
543.88021 0.06724
542.59444 0.06487
541.30868 0.06277
540.02291 0.06083
538.73714 0.05900
537.45137 0.05724
536.16560 0.05554
534.87983 0.05396
533.59406 0.05252
532.30829 0.05122
531.02253 0.04998
529.73676 0.04876
528.45099 0.04759
527.16522 0.04653
525.87945 0.04564
524.59368 0.04488
523.30791 0.04417
522.02214 0.04341
520.73637 0.04258
519.45061 0.04169
518.16484 0.04078
516.87907 0.03992
515.59330 0.03918
514.30753 0.03863
513.02176 0.03826
511.73599 0.03795
510.45022 0.03754
509.16446 0.03699
507.87869 0.03633
506.59292 0.03569
505.30715 0.03511
504.02138 0.03460
502.73561 0.03410
501.44984 0.03361
500.16407 0.03318
498.87830 0.03282
497.59254 0.03249
496.30677 0.03216
495.02100 0.03184
493.73523 0.03152
492.44946 0.03121
491.16369 0.03091
489.87792 0.03069
488.59215 0.03054
487.30639 0.03043
486.02062 0.03026
484.73485 0.02999
483.44908 0.02968
482.16331 0.02942
480.87754 0.02931
479.59177 0.02937
478.30600 0.02957
477.02023 0.02980
475.73447 0.02998
474.44870 0.03006
473.16293 0.03004
471.87716 0.02998
470.59139 0.02995
469.30562 0.02996
468.01985 0.02998
466.73408 0.02991
465.44832 0.02973
464.16255 0.02948
462.87678 0.02919
461.59101 0.02885
460.30524 0.02846
459.01947 0.02805
457.73370 0.02767
456.44793 0.02735
455.16216 0.02709
453.87640 0.02683
452.59063 0.02653
451.30486 0.02616
450.01909 0.02575
448.73332 0.02532
447.44755 0.02492
446.16178 0.02462
444.87601 0.02441
443.59025 0.02428
442.30448 0.02417
441.01871 0.02405
439.73294 0.02389
438.44717 0.02373
437.16140 0.02357
435.87563 0.02342
434.58986 0.02330
433.30409 0.02323
432.01833 0.02322
430.73256 0.02321
429.44679 0.02315
428.16102 0.02298
426.87525 0.02271
425.58948 0.02241
424.30371 0.02216
423.01794 0.02198
421.73218 0.02187
420.44641 0.02182
419.16064 0.02178
417.87487 0.02168
416.58910 0.02152
415.30333 0.02133
414.01756 0.02116
412.73179 0.02105
411.44602 0.02099
410.16026 0.02099
408.87449 0.02101
407.58872 0.02103
406.30295 0.02101
405.01718 0.02095
403.73141 0.02085
402.44564 0.02076
401.15987 0.02073
399.87411 0.02075
