3997.45528	0.09166
3996.16951	0.09064
3994.88374	0.08949
3993.59798	0.08890
3992.31221	0.08914
3991.02644	0.08959
3989.74067	0.08953
3988.45490	0.08894
3987.16913	0.08838
3985.88336	0.08831
3984.59759	0.08855
3983.31183	0.08842
3982.02606	0.08742
3980.74029	0.08582
3979.45452	0.08448
3978.16875	0.08404
3976.88298	0.08436
3975.59721	0.08476
3974.31144	0.08484
3973.02567	0.08492
3971.73991	0.08569
3970.45414	0.08725
3969.16837	0.08887
3967.88260	0.08962
3966.59683	0.08935
3965.31106	0.08871
3964.02529	0.08838
3962.73952	0.08854
3961.45376	0.08906
3960.16799	0.08969
3958.88222	0.09008
3957.59645	0.08991
3956.31068	0.08918
3955.02491	0.08831
3953.73914	0.08786
3952.45337	0.08812
3951.16760	0.08896
3949.88184	0.08986
3948.59607	0.09020
3947.31030	0.08965
3946.02453	0.08854
3944.73876	0.08758
3943.45299	0.08727
3942.16722	0.08762
3940.88145	0.08817
3939.59569	0.08826
3938.30992	0.08746
3937.02415	0.08601
3935.73838	0.08483
3934.45261	0.08473
3933.16684	0.08567
3931.88107	0.08689
3930.59530	0.08775
3929.30953	0.08821
3928.02377	0.08864
3926.73800	0.08919
3925.45223	0.08953
3924.16646	0.08927
3922.88069	0.08845
3921.59492	0.08752
3920.30915	0.08673
3919.02338	0.08598
3917.73762	0.08516
3916.45185	0.08437
3915.16608	0.08380
3913.88031	0.08360
3912.59454	0.08374
3911.30877	0.08410
3910.02300	0.08453
3908.73723	0.08489
3907.45146	0.08508
3906.16570	0.08506
3904.87993	0.08484
3903.59416	0.08456
3902.30839	0.08450
3901.02262	0.08489
3899.73685	0.08567
3898.45108	0.08641
3897.16531	0.08659
3895.87955	0.08607
3894.59378	0.08516
3893.30801	0.08428
3892.02224	0.08358
3890.73647	0.08301
3889.45070	0.08269
3888.16493	0.08284
3886.87916	0.08336
3885.59339	0.08371
3884.30763	0.08357
3883.02186	0.08316
3881.73609	0.08295
3880.45032	0.08302
3879.16455	0.08307
3877.87878	0.08271
3876.59301	0.08167
3875.30724	0.08002
3874.02148	0.07829
3872.73571	0.07732
3871.44994	0.07761
3870.16417	0.07889
3868.87840	0.08045
3867.59263	0.08190
3866.30686	0.08312
3865.02109	0.08391
3863.73532	0.08414
3862.44956	0.08394
3861.16379	0.08352
3859.87802	0.08295
3858.59225	0.08214
3857.30648	0.08112
3856.02071	0.08026
3854.73494	0.08008
3853.44917	0.08065
3852.16341	0.08147
3850.87764	0.08189
3849.59187	0.08167
3848.30610	0.08106
3847.02033	0.08047
3845.73456	0.08013
3844.44879	0.08011
3843.16302	0.08035
3841.87725	0.08070
3840.59149	0.08104
3839.30572	0.08132
3838.01995	0.08148
3836.73418	0.08142
3835.44841	0.08124
3834.16264	0.08125
3832.87687	0.08157
3831.59110	0.08195
3830.30534	0.08200
3829.01957	0.08160
3827.73380	0.08091
3826.44803	0.08015
3825.16226	0.07953
3823.87649	0.07918
3822.59072	0.07903
3821.30495	0.07880
3820.01918	0.07847
3818.73342	0.07842
3817.44765	0.07896
3816.16188	0.07965
3814.87611	0.07982
3813.59034	0.07940
3812.30457	0.07895
3811.01880	0.07900
3809.73303	0.07968
3808.44726	0.08072
3807.16150	0.08161
3805.87573	0.08203
3804.58996	0.08193
3803.30419	0.08136
3802.01842	0.08025
3800.73265	0.07872
3799.44688	0.07723
3798.16111	0.07633
3796.87535	0.07611
3795.58958	0.07638
3794.30381	0.07696
3793.01804	0.07772
3791.73227	0.07846
3790.44650	0.07894
3789.16073	0.07887
3787.87496	0.07810
3786.58919	0.07691
3785.30343	0.07592
3784.01766	0.07569
3782.73189	0.07618
3781.44612	0.07686
3780.16035	0.07708
3778.87458	0.07659
3777.58881	0.07574
3776.30304	0.07517
3775.01728	0.07530
3773.73151	0.07606
3772.44574	0.07695
3771.15997	0.07735
3769.87420	0.07695
3768.58843	0.07602
3767.30266	0.07523
3766.01689	0.07510
3764.73112	0.07564
3763.44536	0.07655
3762.15959	0.07750
3760.87382	0.07809
3759.58805	0.07796
3758.30228	0.07712
3757.01651	0.07609
3755.73074	0.07562
3754.44497	0.07602
3753.15921	0.07682
3751.87344	0.07729
3750.58767	0.07710
3749.30190	0.07658
3748.01613	0.07624
3746.73036	0.07644
3745.44459	0.07690
3744.15882	0.07691
3742.87305	0.07620
3741.58729	0.07530
3740.30152	0.07486
3739.01575	0.07507
3737.72998	0.07557
3736.44421	0.07579
3735.15844	0.07554
3733.87267	0.07512
3732.58690	0.07487
3731.30114	0.07479
3730.01537	0.07484
3728.72960	0.07498
3727.44383	0.07491
3726.15806	0.07432
3724.87229	0.07333
3723.58652	0.07247
3722.30075	0.07217
3721.01498	0.07241
3719.72922	0.07296
3718.44345	0.07363
3717.15768	0.07422
3715.87191	0.07455
3714.58614	0.07449
3713.30037	0.07411
3712.01460	0.07369
3710.72883	0.07361
3709.44307	0.07390
3708.15730	0.07410
3706.87153	0.07359
3705.58576	0.07238
3704.29999	0.07121
3703.01422	0.07086
3701.72845	0.07146
3700.44268	0.07244
3699.15691	0.07302
3697.87115	0.07273
3696.58538	0.07165
3695.29961	0.07037
3694.01384	0.06959
3692.72807	0.06973
3691.44230	0.07077
3690.15653	0.07233
3688.87076	0.07379
3687.58500	0.07450
3686.29923	0.07430
3685.01346	0.07369
3683.72769	0.07328
3682.44192	0.07325
3681.15615	0.07343
3679.87038	0.07372
3678.58461	0.07426
3677.29884	0.07515
3676.01308	0.07597
3674.72731	0.07612
3673.44154	0.07552
3672.15577	0.07465
3670.87000	0.07390
3669.58423	0.07334
3668.29846	0.07292
3667.01269	0.07252
3665.72693	0.07204
3664.44116	0.07161
3663.15539	0.07159
3661.86962	0.07221
3660.58385	0.07329
3659.29808	0.07450
3658.01231	0.07550
3656.72654	0.07613
3655.44077	0.07634
3654.15501	0.07628
3652.86924	0.07607
3651.58347	0.07574
3650.29770	0.07544
3649.01193	0.07560
3647.72616	0.07640
3646.44039	0.07734
3645.15462	0.07768
3643.86886	0.07724
3642.58309	0.07660
3641.29732	0.07650
3640.01155	0.07713
3638.72578	0.07802
3637.44001	0.07851
3636.15424	0.07824
3634.86847	0.07733
3633.58270	0.07622
3632.29694	0.07548
3631.01117	0.07560
3629.72540	0.07661
3628.43963	0.07804
3627.15386	0.07931
3625.86809	0.08024
3624.58232	0.08100
3623.29655	0.08178
3622.01079	0.08256
3620.72502	0.08307
3619.43925	0.08305
3618.15348	0.08254
3616.86771	0.08194
3615.58194	0.08172
3614.29617	0.08201
3613.01040	0.08257
3611.72463	0.08312
3610.43887	0.08367
3609.15310	0.08444
3607.86733	0.08551
3606.58156	0.08662
3605.29579	0.08741
3604.01002	0.08774
3602.72425	0.08783
3601.43848	0.08790
3600.15272	0.08800
3598.86695	0.08805
3597.58118	0.08804
3596.29541	0.08801
3595.00964	0.08798
3593.72387	0.08804
3592.43810	0.08829
3591.15233	0.08877
3589.86656	0.08936
3588.58080	0.08977
3587.29503	0.08977
3586.00926	0.08956
3584.72349	0.08965
3583.43772	0.09039
3582.15195	0.09160
3580.86618	0.09271
3579.58041	0.09327
3578.29464	0.09328
3577.00888	0.09301
3575.72311	0.09288
3574.43734	0.09323
3573.15157	0.09416
3571.86580	0.09537
3570.58003	0.09635
3569.29426	0.09679
3568.00849	0.09670
3566.72273	0.09619
3565.43696	0.09540
3564.15119	0.09462
3562.86542	0.09436
3561.57965	0.09492
3560.29388	0.09601
3559.00811	0.09703
3557.72234	0.09759
3556.43657	0.09772
3555.15081	0.09759
3553.86504	0.09737
3552.57927	0.09716
3551.29350	0.09703
3550.00773	0.09699
3548.72196	0.09713
3547.43619	0.09763
3546.15042	0.09864
3544.86466	0.10011
3543.57889	0.10167
3542.29312	0.10275
3541.00735	0.10289
3539.72158	0.10218
3538.43581	0.10116
3537.15004	0.10044
3535.86427	0.10026
3534.57850	0.10055
3533.29274	0.10102
3532.00697	0.10139
3530.72120	0.10152
3529.43543	0.10153
3528.14966	0.10163
3526.86389	0.10193
3525.57812	0.10225
3524.29235	0.10239
3523.00659	0.10241
3521.72082	0.10265
3520.43505	0.10334
3519.14928	0.10433
3517.86351	0.10529
3516.57774	0.10598
3515.29197	0.10634
3514.00620	0.10636
3512.72043	0.10610
3511.43467	0.10584
3510.14890	0.10592
3508.86313	0.10641
3507.57736	0.10700
3506.29159	0.10719
3505.00582	0.10692
3503.72005	0.10662
3502.43428	0.10689
3501.14852	0.10775
3499.86275	0.10864
3498.57698	0.10899
3497.29121	0.10871
3496.00544	0.10819
3494.71967	0.10790
3493.43390	0.10810
3492.14813	0.10869
3490.86236	0.10935
3489.57660	0.10984
3488.29083	0.11016
3487.00506	0.11041
3485.71929	0.11063
3484.43352	0.11084
3483.14775	0.11113
3481.86198	0.11164
3480.57621	0.11237
3479.29045	0.11317
3478.00468	0.11385
3476.71891	0.11426
3475.43314	0.11431
3474.14737	0.11398
3472.86160	0.11348
3471.57583	0.11306
3470.29006	0.11293
3469.00429	0.11309
3467.71853	0.11354
3466.43276	0.11426
3465.14699	0.11519
3463.86122	0.11616
3462.57545	0.11696
3461.28968	0.11738
3460.00391	0.11727
3458.71814	0.11671
3457.43238	0.11611
3456.14661	0.11600
3454.86084	0.11657
3453.57507	0.11756
3452.28930	0.11847
3451.00353	0.11901
3449.71776	0.11910
3448.43199	0.11882
3447.14622	0.11825
3445.86046	0.11749
3444.57469	0.11680
3443.28892	0.11644
3442.00315	0.11648
3440.71738	0.11669
3439.43161	0.11683
3438.14584	0.11687
3436.86007	0.11696
3435.57431	0.11721
3434.28854	0.11754
3433.00277	0.11775
3431.71700	0.11773
3430.43123	0.11754
3429.14546	0.11741
3427.85969	0.11751
3426.57392	0.11774
3425.28815	0.11782
3424.00239	0.11758
3422.71662	0.11714
3421.43085	0.11684
3420.14508	0.11702
3418.85931	0.11784
3417.57354	0.11918
3416.28777	0.12064
3415.00200	0.12180
3413.71624	0.12234
3412.43047	0.12221
3411.14470	0.12156
3409.85893	0.12066
3408.57316	0.11978
3407.28739	0.11914
3406.00162	0.11893
3404.71585	0.11921
3403.43008	0.11985
3402.14432	0.12055
3400.85855	0.12111
3399.57278	0.12158
3398.28701	0.12202
3397.00124	0.12240
3395.71547	0.12254
3394.42970	0.12233
3393.14393	0.12189
3391.85817	0.12142
3390.57240	0.12098
3389.28663	0.12059
3388.00086	0.12039
3386.71509	0.12052
3385.42932	0.12095
3384.14355	0.12143
3382.85778	0.12174
3381.57201	0.12184
3380.28625	0.12192
3379.00048	0.12215
3377.71471	0.12252
3376.42894	0.12281
3375.14317	0.12280
3373.85740	0.12243
3372.57163	0.12180
3371.28586	0.12111
3370.00010	0.12058
3368.71433	0.12036
3367.42856	0.12050
3366.14279	0.12092
3364.85702	0.12153
3363.57125	0.12229
3362.28548	0.12309
3360.99971	0.12365
3359.71394	0.12368
3358.42818	0.12318
3357.14241	0.12259
3355.85664	0.12242
3354.57087	0.12279
3353.28510	0.12334
3351.99933	0.12362
3350.71356	0.12349
3349.42779	0.12316
3348.14202	0.12279
3346.85626	0.12241
3345.57049	0.12199
3344.28472	0.12165
3342.99895	0.12167
3341.71318	0.12225
3340.42741	0.12324
3339.14164	0.12420
3337.85587	0.12468
3336.57011	0.12456
3335.28434	0.12405
3333.99857	0.12344
3332.71280	0.12287
3331.42703	0.12232
3330.14126	0.12174
3328.85549	0.12115
3327.56972	0.12064
3326.28395	0.12034
3324.99819	0.12035
3323.71242	0.12063
3322.42665	0.12099
3321.14088	0.12129
3319.85511	0.12148
3318.56934	0.12162
3317.28357	0.12166
3315.99780	0.12156
3314.71204	0.12133
3313.42627	0.12111
3312.14050	0.12103
3310.85473	0.12110
3309.56896	0.12121
3308.28319	0.12120
3306.99742	0.12096
3305.71165	0.12050
3304.42588	0.11996
3303.14012	0.11946
3301.85435	0.11907
3300.56858	0.11885
3299.28281	0.11892
3297.99704	0.11938
3296.71127	0.12013
3295.42550	0.12082
3294.13973	0.12100
3292.85397	0.12045
3291.56820	0.11941
3290.28243	0.11846
3288.99666	0.11806
3287.71089	0.11821
3286.42512	0.11855
3285.13935	0.11875
3283.85358	0.11874
3282.56781	0.11866
3281.28205	0.11864
3279.99628	0.11868
3278.71051	0.11865
3277.42474	0.11843
3276.13897	0.11810
3274.85320	0.11792
3273.56743	0.11806
3272.28166	0.11843
3270.99590	0.11870
3269.71013	0.11864
3268.42436	0.11825
3267.13859	0.11773
3265.85282	0.11731
3264.56705	0.11713
3263.28128	0.11715
3261.99551	0.11720
3260.70974	0.11711
3259.42398	0.11692
3258.13821	0.11679
3256.85244	0.11680
3255.56667	0.11678
3254.28090	0.11655
3252.99513	0.11610
3251.70936	0.11563
3250.42359	0.11527
3249.13783	0.11500
3247.85206	0.11480
3246.56629	0.11471
3245.28052	0.11482
3243.99475	0.11514
3242.70898	0.11554
3241.42321	0.11585
3240.13744	0.11595
3238.85167	0.11578
3237.56591	0.11535
3236.28014	0.11480
3234.99437	0.11438
3233.70860	0.11424
3232.42283	0.11426
3231.13706	0.11416
3229.85129	0.11383
3228.56552	0.11348
3227.27976	0.11335
3225.99399	0.11342
3224.70822	0.11347
3223.42245	0.11341
3222.13668	0.11339
3220.85091	0.11351
3219.56514	0.11355
3218.27937	0.11321
3216.99360	0.11257
3215.70784	0.11200
3214.42207	0.11182
3213.13630	0.11202
3211.85053	0.11234
3210.56476	0.11253
3209.27899	0.11237
3207.99322	0.11176
3206.70745	0.11089
3205.42169	0.11010
3204.13592	0.10962
3202.85015	0.10944
3201.56438	0.10942
3200.27861	0.10948
3198.99284	0.10958
3197.70707	0.10960
3196.42130	0.10948
3195.13553	0.10921
3193.84977	0.10885
3192.56400	0.10840
3191.27823	0.10788
3189.99246	0.10742
3188.70669	0.10721
3187.42092	0.10729
3186.13515	0.10750
3184.84938	0.10765
3183.56362	0.10766
3182.27785	0.10766
3180.99208	0.10775
3179.70631	0.10784
3178.42054	0.10771
3177.13477	0.10720
3175.84900	0.10638
3174.56323	0.10548
3173.27746	0.10475
3171.99170	0.10435
3170.70593	0.10438
3169.42016	0.10479
3168.13439	0.10538
3166.84862	0.10589
3165.56285	0.10602
3164.27708	0.10560
3162.99131	0.10474
3161.70555	0.10377
3160.41978	0.10308
3159.13401	0.10286
3157.84824	0.10302
3156.56247	0.10335
3155.27670	0.10364
3153.99093	0.10367
3152.70516	0.10341
3151.41939	0.10304
3150.13363	0.10280
3148.84786	0.10280
3147.56209	0.10292
3146.27632	0.10293
3144.99055	0.10270
3143.70478	0.10223
3142.41901	0.10171
3141.13324	0.10136
3139.84748	0.10131
3138.56171	0.10147
3137.27594	0.10156
3135.99017	0.10135
3134.70440	0.10088
3133.41863	0.10037
3132.13286	0.10000
3130.84709	0.09972
3129.56132	0.09936
3128.27556	0.09887
3126.98979	0.09841
3125.70402	0.09822
3124.41825	0.09833
3123.13248	0.09860
3121.84671	0.09879
3120.56094	0.09887
3119.27517	0.09891
3117.98940	0.09902
3116.70364	0.09920
3115.41787	0.09936
3114.13210	0.09938
3112.84633	0.09924
3111.56056	0.09901
3110.27479	0.09877
3108.98902	0.09858
3107.70325	0.09844
3106.41749	0.09831
3105.13172	0.09813
3103.84595	0.09788
3102.56018	0.09760
3101.27441	0.09728
3099.98864	0.09684
3098.70287	0.09624
3097.41710	0.09562
3096.13133	0.09525
3094.84557	0.09526
3093.55980	0.09546
3092.27403	0.09550
3090.98826	0.09530
3089.70249	0.09508
3088.41672	0.09508
3087.13095	0.09526
3085.84518	0.09535
3084.55942	0.09520
3083.27365	0.09487
3081.98788	0.09450
3080.70211	0.09413
3079.41634	0.09381
3078.13057	0.09360
3076.84480	0.09358
3075.55903	0.09371
3074.27326	0.09387
3072.98750	0.09395
3071.70173	0.09395
3070.41596	0.09390
3069.13019	0.09382
3067.84442	0.09370
3066.55865	0.09346
3065.27288	0.09301
3063.98711	0.09237
3062.70135	0.09175
3061.41558	0.09142
3060.12981	0.09144
3058.84404	0.09162
3057.55827	0.09170
3056.27250	0.09157
3054.98673	0.09121
3053.70096	0.09069
3052.41519	0.09019
3051.12943	0.08989
3049.84366	0.08987
3048.55789	0.09011
3047.27212	0.09056
3045.98635	0.09108
3044.70058	0.09143
3043.41481	0.09144
3042.12904	0.09110
3040.84328	0.09064
3039.55751	0.09024
3038.27174	0.08987
3036.98597	0.08931
3035.70020	0.08852
3034.41443	0.08777
3033.12866	0.08734
3031.84289	0.08732
3030.55712	0.08752
3029.27136	0.08770
3027.98559	0.08773
3026.69982	0.08765
3025.41405	0.08750
3024.12828	0.08729
3022.84251	0.08703
3021.55674	0.08676
3020.27097	0.08657
3018.98521	0.08645
3017.69944	0.08632
3016.41367	0.08619
3015.12790	0.08616
3013.84213	0.08626
3012.55636	0.08637
3011.27059	0.08633
3009.98482	0.08607
3008.69905	0.08563
3007.41329	0.08514
3006.12752	0.08477
3004.84175	0.08460
3003.55598	0.08458
3002.27021	0.08463
3000.98444	0.08469
2999.69867	0.08482
2998.41290	0.08503
2997.12714	0.08519
2995.84137	0.08520
2994.55560	0.08510
2993.26983	0.08499
2991.98406	0.08492
2990.69829	0.08487
2989.41252	0.08484
2988.12675	0.08480
2986.84098	0.08479
2985.55522	0.08488
2984.26945	0.08518
2982.98368	0.08562
2981.69791	0.08607
2980.41214	0.08657
2979.12637	0.08732
2977.84060	0.08841
2976.55483	0.08958
2975.26907	0.09040
2973.98330	0.09070
2972.69753	0.09083
2971.41176	0.09135
2970.12599	0.09259
2968.84022	0.09430
2967.55445	0.09596
2966.26868	0.09727
2964.98291	0.09830
2963.69715	0.09924
2962.41138	0.10018
2961.12561	0.10106
2959.83984	0.10179
2958.55407	0.10242
2957.26830	0.10309
2955.98253	0.10387
2954.69676	0.10456
2953.41100	0.10486
2952.12523	0.10475
2950.83946	0.10447
2949.55369	0.10431
2948.26792	0.10430
2946.98215	0.10430
2945.69638	0.10423
2944.41061	0.10414
2943.12484	0.10415
2941.83908	0.10428
2940.55331	0.10456
2939.26754	0.10503
2937.98177	0.10575
2936.69600	0.10670
2935.41023	0.10777
2934.12446	0.10883
2932.83869	0.10982
2931.55293	0.11074
2930.26716	0.11162
2928.98139	0.11251
2927.69562	0.11335
2926.40985	0.11404
2925.12408	0.11439
2923.83831	0.11425
2922.55254	0.11361
2921.26677	0.11270
2919.98101	0.11184
2918.69524	0.11115
2917.40947	0.11051
2916.12370	0.10974
2914.83793	0.10889
2913.55216	0.10810
2912.26639	0.10737
2910.98062	0.10658
2909.69486	0.10562
2908.40909	0.10447
2907.12332	0.10324
2905.83755	0.10212
2904.55178	0.10124
2903.26601	0.10056
2901.98024	0.09991
2900.69447	0.09918
2899.40870	0.09834
2898.12294	0.09745
2896.83717	0.09649
2895.55140	0.09547
2894.26563	0.09446
2892.97986	0.09355
2891.69409	0.09280
2890.40832	0.09218
2889.12255	0.09166
2887.83678	0.09126
2886.55102	0.09103
2885.26525	0.09089
2883.97948	0.09077
2882.69371	0.09063
2881.40794	0.09055
2880.12217	0.09058
2878.83640	0.09071
2877.55063	0.09087
2876.26487	0.09104
2874.97910	0.09120
2873.69333	0.09142
2872.40756	0.09171
2871.12179	0.09208
2869.83602	0.09248
2868.55025	0.09285
2867.26448	0.09310
2865.97871	0.09310
2864.69295	0.09286
2863.40718	0.09257
2862.12141	0.09247
2860.83564	0.09264
2859.54987	0.09297
2858.26410	0.09332
2856.97833	0.09353
2855.69256	0.09344
2854.40680	0.09301
2853.12103	0.09229
2851.83526	0.09137
2850.54949	0.09028
2849.26372	0.08912
2847.97795	0.08800
2846.69218	0.08699
2845.40641	0.08603
2844.12064	0.08506
2842.83488	0.08408
2841.54911	0.08306
2840.26334	0.08196
2838.97757	0.08077
2837.69180	0.07958
2836.40603	0.07852
2835.12026	0.07769
2833.83449	0.07710
2832.54873	0.07666
2831.26296	0.07624
2829.97719	0.07572
2828.69142	0.07505
2827.40565	0.07429
2826.11988	0.07356
2824.83411	0.07298
2823.54834	0.07259
2822.26257	0.07239
2820.97681	0.07231
2819.69104	0.07226
2818.40527	0.07217
2817.11950	0.07194
2815.83373	0.07160
2814.54796	0.07126
2813.26219	0.07101
2811.97642	0.07084
2810.69066	0.07066
2809.40489	0.07049
2808.11912	0.07039
2806.83335	0.07036
2805.54758	0.07031
2804.26181	0.07012
2802.97604	0.06976
2801.69027	0.06931
2800.40450	0.06902
2799.11874	0.06902
2797.83297	0.06925
2796.54720	0.06947
2795.26143	0.06948
2793.97566	0.06927
2792.68989	0.06893
2791.40412	0.06849
2790.11835	0.06800
2788.83259	0.06749
2787.54682	0.06706
2786.26105	0.06679
2784.97528	0.06666
2783.68951	0.06662
2782.40374	0.06661
2781.11797	0.06661
2779.83220	0.06658
2778.54643	0.06655
2777.26067	0.06652
2775.97490	0.06645
2774.68913	0.06626
2773.40336	0.06596
2772.11759	0.06567
2770.83182	0.06552
2769.54605	0.06547
2768.26028	0.06540
2766.97452	0.06519
2765.68875	0.06483
2764.40298	0.06444
2763.11721	0.06422
2761.83144	0.06426
2760.54567	0.06448
2759.25990	0.06463
2757.97413	0.06455
2756.68836	0.06425
2755.40260	0.06383
2754.11683	0.06338
2752.83106	0.06300
2751.54529	0.06275
2750.25952	0.06266
2748.97375	0.06269
2747.68798	0.06276
2746.40221	0.06279
2745.11645	0.06277
2743.83068	0.06279
2742.54491	0.06290
2741.25914	0.06309
2739.97337	0.06326
2738.68760	0.06333
2737.40183	0.06327
2736.11606	0.06311
2734.83029	0.06289
2733.54453	0.06269
2732.25876	0.06257
2730.97299	0.06254
2729.68722	0.06251
2728.40145	0.06242
2727.11568	0.06227
2725.82991	0.06217
2724.54414	0.06213
2723.25838	0.06211
2721.97261	0.06198
2720.68684	0.06163
2719.40107	0.06114
2718.11530	0.06072
2716.82953	0.06053
2715.54376	0.06052
2714.25799	0.06056
2712.97222	0.06057
2711.68646	0.06056
2710.40069	0.06055
2709.11492	0.06050
2707.82915	0.06041
2706.54338	0.06031
2705.25761	0.06023
2703.97184	0.06022
2702.68607	0.06020
2701.40031	0.06006
2700.11454	0.05969
2698.82877	0.05921
2697.54300	0.05885
2696.25723	0.05877
2694.97146	0.05891
2693.68569	0.05904
2692.39992	0.05903
2691.11415	0.05889
2689.82839	0.05877
2688.54262	0.05876
2687.25685	0.05885
2685.97108	0.05896
2684.68531	0.05899
2683.39954	0.05885
2682.11377	0.05854
2680.82800	0.05817
2679.54224	0.05792
2678.25647	0.05784
2676.97070	0.05784
2675.68493	0.05784
2674.39916	0.05781
2673.11339	0.05782
2671.82762	0.05787
2670.54185	0.05797
2669.25608	0.05806
2667.97032	0.05809
2666.68455	0.05800
2665.39878	0.05784
2664.11301	0.05765
2662.82724	0.05747
2661.54147	0.05731
2660.25570	0.05719
2658.96993	0.05712
2657.68417	0.05706
2656.39840	0.05695
2655.11263	0.05682
2653.82686	0.05668
2652.54109	0.05655
2651.25532	0.05641
2649.96955	0.05626
2648.68378	0.05608
2647.39801	0.05589
2646.11225	0.05568
2644.82648	0.05537
2643.54071	0.05501
2642.25494	0.05479
2640.96917	0.05480
2639.68340	0.05487
2638.39763	0.05471
2637.11186	0.05427
2635.82609	0.05377
2634.54033	0.05336
2633.25456	0.05305
2631.96879	0.05280
2630.68302	0.05267
2629.39725	0.05266
2628.11148	0.05267
2626.82571	0.05255
2625.53994	0.05227
2624.25418	0.05197
2622.96841	0.05180
2621.68264	0.05182
2620.39687	0.05189
2619.11110	0.05182
2617.82533	0.05155
2616.53956	0.05114
2615.25379	0.05063
2613.96802	0.05009
2612.68226	0.04966
2611.39649	0.04944
2610.11072	0.04942
2608.82495	0.04946
2607.53918	0.04945
2606.25341	0.04934
2604.96764	0.04915
2603.68187	0.04893
2602.39611	0.04868
2601.11034	0.04839
2599.82457	0.04813
2598.53880	0.04807
2597.25303	0.04825
2595.96726	0.04845
2594.68149	0.04837
2593.39572	0.04799
2592.10995	0.04760
2590.82419	0.04747
2589.53842	0.04768
2588.25265	0.04807
2586.96688	0.04839
2585.68111	0.04843
2584.39534	0.04819
2583.10957	0.04777
2581.82380	0.04728
2580.53804	0.04673
2579.25227	0.04621
2577.96650	0.04586
2576.68073	0.04578
2575.39496	0.04595
2574.10919	0.04627
2572.82342	0.04655
2571.53765	0.04660
2570.25188	0.04637
2568.96612	0.04609
2567.68035	0.04602
2566.39458	0.04621
2565.10881	0.04647
2563.82304	0.04657
2562.53727	0.04645
2561.25150	0.04623
2559.96573	0.04596
2558.67997	0.04560
2557.39420	0.04514
2556.10843	0.04478
2554.82266	0.04474
2553.53689	0.04504
2552.25112	0.04548
2550.96535	0.04583
2549.67958	0.04595
2548.39381	0.04579
2547.10805	0.04539
2545.82228	0.04499
2544.53651	0.04482
2543.25074	0.04487
2541.96497	0.04489
2540.67920	0.04468
2539.39343	0.04433
2538.10766	0.04406
2536.82190	0.04401
2535.53613	0.04417
2534.25036	0.04445
2532.96459	0.04467
2531.67882	0.04470
2530.39305	0.04451
2529.10728	0.04413
2527.82151	0.04364
2526.53574	0.04315
2525.24998	0.04278
2523.96421	0.04267
2522.67844	0.04283
2521.39267	0.04314
2520.10690	0.04341
2518.82113	0.04355
2517.53536	0.04354
2516.24959	0.04337
2514.96383	0.04311
2513.67806	0.04288
2512.39229	0.04274
2511.10652	0.04269
2509.82075	0.04265
2508.53498	0.04253
2507.24921	0.04233
2505.96344	0.04212
2504.67767	0.04207
2503.39191	0.04227
2502.10614	0.04256
2500.82037	0.04269
2499.53460	0.04260
2498.24883	0.04244
2496.96306	0.04239
2495.67729	0.04235
2494.39152	0.04215
2493.10576	0.04178
2491.81999	0.04135
2490.53422	0.04098
2489.24845	0.04075
2487.96268	0.04076
2486.67691	0.04107
2485.39114	0.04157
2484.10537	0.04211
2482.81960	0.04259
2481.53384	0.04301
2480.24807	0.04323
2478.96230	0.04307
2477.67653	0.04262
2476.39076	0.04222
2475.10499	0.04211
2473.81922	0.04219
2472.53345	0.04215
2471.24769	0.04182
2469.96192	0.04135
2468.67615	0.04100
2467.39038	0.04093
2466.10461	0.04104
2464.81884	0.04107
2463.53307	0.04095
2462.24730	0.04091
2460.96153	0.04116
2459.67577	0.04163
2458.39000	0.04205
2457.10423	0.04222
2455.81846	0.04209
2454.53269	0.04177
2453.24692	0.04133
2451.96115	0.04079
2450.67538	0.04019
2449.38962	0.03964
2448.10385	0.03937
2446.81808	0.03948
2445.53231	0.03980
2444.24654	0.03996
2442.96077	0.03975
2441.67500	0.03933
2440.38923	0.03908
2439.10346	0.03914
2437.81770	0.03925
2436.53193	0.03907
2435.24616	0.03865
2433.96039	0.03833
2432.67462	0.03834
2431.38885	0.03853
2430.10308	0.03863
2428.81731	0.03855
2427.53155	0.03847
2426.24578	0.03854
2424.96001	0.03877
2423.67424	0.03906
2422.38847	0.03936
2421.10270	0.03964
2419.81693	0.03978
2418.53116	0.03972
2417.24539	0.03955
2415.95963	0.03948
2414.67386	0.03954
2413.38809	0.03955
2412.10232	0.03933
2410.81655	0.03889
2409.53078	0.03837
2408.24501	0.03796
2406.95924	0.03778
2405.67347	0.03782
2404.38771	0.03792
2403.10194	0.03795
2401.81617	0.03795
2400.53040	0.03803
2399.24463	0.03797
2397.95886	0.03789
2396.67309	0.03779
2395.38732	0.03781
2394.10156	0.03812
2392.81579	0.03872
2391.53002	0.03932
2390.24425	0.03967
2388.95848	0.03977
2387.67271	0.03981
2386.38694	0.03992
2385.10117	0.04007
2383.81540	0.04015
2382.52964	0.04013
2381.24387	0.04018
2379.95810	0.04048
2378.67233	0.04101
2377.38656	0.04155
2376.10079	0.04189
2374.81502	0.04203
2373.52925	0.04217
2372.24349	0.04251
2370.95772	0.04303
2369.67195	0.04353
2368.38618	0.04380
2367.10041	0.04383
2365.81464	0.04380
2364.52887	0.04390
2363.24310	0.04414
2361.95733	0.04437
2360.67157	0.04438
2359.38580	0.04420
2358.10003	0.04402
2356.81426	0.04397
2355.52849	0.04401
2354.24272	0.04398
2352.95695	0.04386
2351.67118	0.04372
2350.38542	0.04361
2349.09965	0.04350
2347.81388	0.04337
2346.52811	0.04327
2345.24234	0.04321
2343.95657	0.04312
2342.67080	0.04298
2341.38503	0.04287
2340.09926	0.04292
2338.81350	0.04310
2337.52773	0.04334
2336.24196	0.04357
2334.95619	0.04384
2333.67042	0.04412
2332.38465	0.04436
2331.09888	0.04457
2329.81311	0.04486
2328.52735	0.04535
2327.24158	0.04593
2325.95581	0.04618
2324.67004	0.04566
2323.38427	0.04429
2322.09850	0.04246
2320.81273	0.04074
2319.52696	0.03948
2318.24119	0.03875
2316.95543	0.03838
2315.66966	0.03823
2314.38389	0.03814
2313.09812	0.03804
2311.81235	0.03789
2310.52658	0.03777
2309.24081	0.03780
2307.95504	0.03802
2306.66928	0.03832
2305.38351	0.03850
2304.09774	0.03848
2302.81197	0.03827
2301.52620	0.03798
2300.24043	0.03771
2298.95466	0.03755
2297.66889	0.03753
2296.38312	0.03752
2295.09736	0.03741
2293.81159	0.03713
2292.52582	0.03678
2291.24005	0.03652
2289.95428	0.03640
2288.66851	0.03632
2287.38274	0.03606
2286.09697	0.03553
2284.81121	0.03491
2283.52544	0.03452
2282.23967	0.03448
2280.95390	0.03458
2279.66813	0.03440
2278.38236	0.03378
2277.09659	0.03287
2275.81082	0.03199
2274.52505	0.03129
2273.23929	0.03077
2271.95352	0.03036
2270.66775	0.03013
2269.38198	0.03021
2268.09621	0.03066
2266.81044	0.03133
2265.52467	0.03190
2264.23890	0.03210
2262.95314	0.03193
2261.66737	0.03154
2260.38160	0.03097
2259.09583	0.03010
2257.81006	0.02897
2256.52429	0.02797
2255.23852	0.02758
2253.95275	0.02795
2252.66698	0.02880
2251.38122	0.02956
2250.09545	0.02954
2248.80968	0.02855
2247.52391	0.02790
2246.23814	0.02718
2244.95237	0.02668
2243.66660	0.02659
2242.38083	0.02671
2241.09507	0.02682
2239.80930	0.02706
2238.52353	0.02772
2237.23776	0.02874
2235.95199	0.02950
2234.66622	0.02944
2233.38045	0.02851
2232.09468	0.02722
2230.80891	0.02608
2229.52315	0.02520
2228.23738	0.02444
2226.95161	0.02377
2225.66584	0.02341
2224.38007	0.02354
2223.09430	0.02404
2221.80853	0.02458
2220.52276	0.02486
2219.23700	0.02489
2217.95123	0.02494
2216.66546	0.02513
2215.37969	0.02509
2214.09392	0.02437
2212.80815	0.02318
2211.52238	0.02237
2210.23661	0.02241
2208.95084	0.02282
2207.66508	0.02292
2206.37931	0.02279
2205.09354	0.02300
2203.80777	0.02364
2202.52200	0.02405
2201.23623	0.02365
2199.95046	0.02274
2198.66469	0.02222
2197.37893	0.02257
2196.09316	0.02332
2194.80739	0.02373
2193.52162	0.02357
2192.23585	0.02319
2190.95008	0.02276
2189.66431	0.02210
2188.37854	0.02118
2187.09277	0.02036
2185.80701	0.01997
2184.52124	0.01999
2183.23547	0.02023
2181.94970	0.02061
2180.66393	0.02114
2179.37816	0.02168
2178.09239	0.02202
2176.80662	0.02195
2175.52085	0.02141
2174.23509	0.02058
2172.94932	0.01982
2171.66355	0.01925
2170.37778	0.01874
2169.09201	0.01808
2167.80624	0.01724
2166.52047	0.01644
2165.23470	0.01601
2163.94894	0.01611
2162.66317	0.01637
2161.37740	0.01607
2160.09163	0.01486
2158.80586	0.01317
2157.52009	0.01167
2156.23432	0.01076
2154.94855	0.01061
2153.66278	0.01138
2152.37702	0.01284
2151.09125	0.01435
2149.80548	0.01539
2148.51971	0.01602
2147.23394	0.01672
2145.94817	0.01777
2144.66240	0.01895
2143.37663	0.01982
2142.09087	0.02017
2140.80510	0.02024
2139.51933	0.02039
2138.23356	0.02076
2136.94779	0.02121
2135.66202	0.02155
2134.37625	0.02169
2133.09048	0.02163
2131.80471	0.02140
2130.51895	0.02120
2129.23318	0.02125
2127.94741	0.02155
2126.66164	0.02188
2125.37587	0.02214
2124.09010	0.02246
2122.80433	0.02288
2121.51856	0.02325
2120.23280	0.02335
2118.94703	0.02316
2117.66126	0.02284
2116.37549	0.02254
2115.08972	0.02233
2113.80395	0.02215
2112.51818	0.02194
2111.23241	0.02174
2109.94664	0.02173
2108.66088	0.02201
2107.37511	0.02238
2106.08934	0.02252
2104.80357	0.02231
2103.51780	0.02196
2102.23203	0.02174
2100.94626	0.02164
2099.66049	0.02227
2098.37473	0.02207
2097.08896	0.02144
2095.80319	0.02123
2094.51742	0.02160
2093.23165	0.02209
2091.94588	0.02218
2090.66011	0.02180
2089.37434	0.02134
2088.08857	0.02118
2086.80281	0.02129
2085.51704	0.02139
2084.23127	0.02135
2082.94550	0.02130
2081.65973	0.02138
2080.37396	0.02153
2079.08819	0.02168
2077.80242	0.02186
2076.51666	0.02212
2075.23089	0.02229
2073.94512	0.02210
2072.65935	0.02142
2071.37358	0.02043
2070.08781	0.01945
2068.80204	0.01883
2067.51627	0.01862
2066.23050	0.01862
2064.94474	0.01860
2063.65897	0.01847
2062.37320	0.01825
2061.08743	0.01796
2059.80166	0.01753
2058.51589	0.01693
2057.23012	0.01624
2055.94435	0.01564
2054.65859	0.01535
2053.37282	0.01554
2052.08705	0.01609
2050.80128	0.01660
2049.51551	0.01659
2048.22974	0.01592
2046.94397	0.01491
2045.65820	0.01405
2044.37243	0.01357
2043.08667	0.01338
2041.80090	0.01330
2040.51513	0.01332
2039.22936	0.01349
2037.94359	0.01369
2036.65782	0.01364
2035.37205	0.01325
2034.08628	0.01275
2032.80052	0.01239
2031.51475	0.01209
2030.22898	0.01174
2028.94321	0.01152
2027.65744	0.01164
2026.37167	0.01186
2025.08590	0.01161
2023.80013	0.01068
2022.51436	0.00961
2021.22860	0.00921
2019.94283	0.00985
2018.65706	0.01119
2017.37129	0.01245
2016.08552	0.01302
2014.79975	0.01288
2013.51398	0.01243
2012.22821	0.01196
2010.94245	0.01162
2009.65668	0.01149
2008.37091	0.01174
2007.08514	0.01238
2005.79937	0.01316
2004.51360	0.01375
2003.22783	0.01395
2001.94206	0.01383
2000.65629	0.01374
1999.37053	0.01405
1998.08476	0.01484
1996.79899	0.01585
1995.51322	0.01659
1994.22745	0.01662
1992.94168	0.01586
1991.65591	0.01470
1990.37014	0.01388
1989.08438	0.01396
1987.79861	0.01494
1986.51284	0.01627
1985.22707	0.01733
1983.94130	0.01791
1982.65553	0.01812
1981.36976	0.01822
1980.08399	0.01834
1978.79822	0.01844
1977.51246	0.01832
1976.22669	0.01778
1974.94092	0.01683
1973.65515	0.01591
1972.36938	0.01563
1971.08361	0.01619
1969.79784	0.01715
1968.51207	0.01790
1967.22631	0.01827
1965.94054	0.01852
1964.65477	0.01888
1963.36900	0.01923
1962.08323	0.01929
1960.79746	0.01897
1959.51169	0.01839
1958.22592	0.01777
1956.94015	0.01734
1955.65439	0.01729
1954.36862	0.01755
1953.08285	0.01793
1951.79708	0.01830
1950.51131	0.01869
1949.22554	0.01919
1947.93977	0.01979
1946.65400	0.02038
1945.36823	0.02089
1944.08247	0.02134
1942.79670	0.02165
1941.51093	0.02173
1940.22516	0.02148
1938.93939	0.02098
1937.65362	0.02051
1936.36785	0.02040
1935.08208	0.02075
1933.79632	0.02129
1932.51055	0.02154
1931.22478	0.02130
1929.93901	0.02081
1928.65324	0.02040
1927.36747	0.02011
1926.08170	0.01982
1924.79593	0.01958
1923.51016	0.01956
1922.22440	0.01986
1920.93863	0.02031
1919.65286	0.02069
1918.36709	0.02085
1917.08132	0.02079
1915.79555	0.02065
1914.50978	0.02056
1913.22401	0.02058
1911.93825	0.02070
1910.65248	0.02088
1909.36671	0.02113
1908.08094	0.02141
1906.79517	0.02162
1905.50940	0.02167
1904.22363	0.02154
1902.93786	0.02132
1901.65209	0.02113
1900.36633	0.02099
1899.08056	0.02090
1897.79479	0.02090
1896.50902	0.02103
1895.22325	0.02129
1893.93748	0.02158
1892.65171	0.02170
1891.36594	0.02158
1890.08018	0.02132
1888.79441	0.02111
1887.50864	0.02107
1886.22287	0.02115
1884.93710	0.02116
1883.65133	0.02107
1882.36556	0.02102
1881.07979	0.02117
1879.79402	0.02149
1878.50826	0.02183
1877.22249	0.02205
1875.93672	0.02215
1874.65095	0.02221
1873.36518	0.02225
1872.07941	0.02223
1870.79364	0.02212
1869.50787	0.02192
1868.22211	0.02171
1866.93634	0.02163
1865.65057	0.02174
1864.36480	0.02194
1863.07903	0.02211
1861.79326	0.02218
1860.50749	0.02216
1859.22172	0.02209
1857.93595	0.02202
1856.65019	0.02196
1855.36442	0.02190
1854.07865	0.02188
1852.79288	0.02196
1851.50711	0.02208
1850.22134	0.02215
1848.93557	0.02212
1847.64980	0.02208
1846.36404	0.02210
1845.07827	0.02215
1843.79250	0.02207
1842.50673	0.02184
1841.22096	0.02158
1839.93519	0.02145
1838.64942	0.02148
1837.36365	0.02158
1836.07788	0.02161
1834.79212	0.02149
1833.50635	0.02130
1832.22058	0.02122
1830.93481	0.02128
1829.64904	0.02143
1828.36327	0.02157
1827.07750	0.02172
1825.79173	0.02193
1824.50597	0.02220
1823.22020	0.02250
1821.93443	0.02277
1820.64866	0.02288
1819.36289	0.02276
1818.07712	0.02243
1816.79135	0.02204
1815.50558	0.02173
1814.21981	0.02161
1812.93405	0.02167
1811.64828	0.02184
1810.36251	0.02197
1809.07674	0.02201
1807.79097	0.02200
1806.50520	0.02204
1805.21943	0.02218
1803.93366	0.02237
1802.64790	0.02250
1801.36213	0.02252
1800.07636	0.02248
1798.79059	0.02250
1797.50482	0.02261
1796.21905	0.02270
1794.93328	0.02270
1793.64751	0.02257
1792.36174	0.02239
1791.07598	0.02226
1789.79021	0.02224
1788.50444	0.02232
1787.21867	0.02244
1785.93290	0.02254
1784.64713	0.02259
1783.36136	0.02261
1782.07559	0.02269
1780.78983	0.02287
1779.50406	0.02308
1778.21829	0.02322
1776.93252	0.02324
1775.64675	0.02317
1774.36098	0.02315
1773.07521	0.02323
1771.78944	0.02335
1770.50367	0.02348
1769.21791	0.02360
1767.93214	0.02369
1766.64637	0.02370
1765.36060	0.02369
1764.07483	0.02370
1762.78906	0.02375
1761.50329	0.02380
1760.21752	0.02385
1758.93176	0.02397
1757.64599	0.02414
1756.36022	0.02428
1755.07445	0.02439
1753.78868	0.02452
1752.50291	0.02468
1751.21714	0.02483
1749.93137	0.02491
1748.64560	0.02497
1747.35984	0.02508
1746.07407	0.02522
1744.78830	0.02538
1743.50253	0.02558
1742.21676	0.02585
1740.93099	0.02616
1739.64522	0.02642
1738.35945	0.02658
1737.07369	0.02676
1735.78792	0.02707
1734.50215	0.02742
1733.21638	0.02761
1731.93061	0.02764
1730.64484	0.02762
1729.35907	0.02765
1728.07330	0.02771
1726.78753	0.02778
1725.50177	0.02789
1724.21600	0.02808
1722.93023	0.02832
1721.64446	0.02862
1720.35869	0.02901
1719.07292	0.02952
1717.78715	0.03008
1716.50138	0.03056
1715.21561	0.03095
1713.92985	0.03127
1712.64408	0.03157
1711.35831	0.03191
1710.07254	0.03229
1708.78677	0.03271
1707.50100	0.03315
1706.21523	0.03359
1704.92946	0.03402
1703.64370	0.03449
1702.35793	0.03508
1701.07216	0.03574
1699.78639	0.03631
1698.50062	0.03679
1697.21485	0.03728
1695.92908	0.03771
1694.64331	0.03794
1693.35754	0.03809
1692.07178	0.03838
1690.78601	0.03886
1689.50024	0.03946
1688.21447	0.04014
1686.92870	0.04094
1685.64293	0.04178
1684.35716	0.04246
1683.07139	0.04286
1681.78563	0.04309
1680.49986	0.04335
1679.21409	0.04372
1677.92832	0.04421
1676.64255	0.04482
1675.35678	0.04547
1674.07101	0.04603
1672.78524	0.04654
1671.49947	0.04708
1670.21371	0.04770
1668.92794	0.04834
1667.64217	0.04893
1666.35640	0.04949
1665.07063	0.05003
1663.78486	0.05054
1662.49909	0.05098
1661.21332	0.05135
1659.92756	0.05168
1658.64179	0.05200
1657.35602	0.05235
1656.07025	0.05278
1654.78448	0.05331
1653.49871	0.05377
1652.21294	0.05392
1650.92717	0.05382
1649.64140	0.05374
1648.35564	0.05387
1647.06987	0.05412
1645.78410	0.05433
1644.49833	0.05439
1643.21256	0.05431
1641.92679	0.05419
1640.64102	0.05410
1639.35525	0.05410
1638.06949	0.05417
1636.78372	0.05425
1635.49795	0.05423
1634.21218	0.05408
1632.92641	0.05393
1631.64064	0.05390
1630.35487	0.05396
1629.06910	0.05399
1627.78333	0.05394
1626.49757	0.05387
1625.21180	0.05383
1623.92603	0.05384
1622.64026	0.05384
1621.35449	0.05382
1620.06872	0.05386
1618.78295	0.05399
1617.49718	0.05417
1616.21142	0.05426
1614.92565	0.05427
1613.63988	0.05430
1612.35411	0.05441
1611.06834	0.05458
1609.78257	0.05476
1608.49680	0.05496
1607.21103	0.05523
1605.92526	0.05554
1604.63950	0.05585
1603.35373	0.05612
1602.06796	0.05634
1600.78219	0.05651
1599.49642	0.05669
1598.21065	0.05690
1596.92488	0.05716
1595.63911	0.05746
1594.35335	0.05778
1593.06758	0.05809
1591.78181	0.05841
1590.49604	0.05874
1589.21027	0.05908
1587.92450	0.05943
1586.63873	0.05976
1585.35296	0.06006
1584.06719	0.06036
1582.78143	0.06069
1581.49566	0.06113
1580.20989	0.06165
1578.92412	0.06225
1577.63835	0.06288
1576.35258	0.06343
1575.06681	0.06383
1573.78104	0.06417
1572.49528	0.06460
1571.20951	0.06510
1569.92374	0.06558
1568.63797	0.06595
1567.35220	0.06626
1566.06643	0.06656
1564.78066	0.06688
1563.49489	0.06723
1562.20912	0.06768
1560.92336	0.06827
1559.63759	0.06886
1558.35182	0.06925
1557.06605	0.06941
1555.78028	0.06946
1554.49451	0.06949
1553.20874	0.06950
1551.92297	0.06950
1550.63721	0.06953
1549.35144	0.06954
1548.06567	0.06950
1546.77990	0.06943
1545.49413	0.06931
1544.20836	0.06914
1542.92259	0.06895
1541.63682	0.06879
1540.35105	0.06860
1539.06529	0.06829
1537.77952	0.06785
1536.49375	0.06747
1535.20798	0.06727
1533.92221	0.06722
1532.63644	0.06723
1531.35067	0.06730
1530.06490	0.06746
1528.77914	0.06777
1527.49337	0.06823
1526.20760	0.06882
1524.92183	0.06957
1523.63606	0.07048
1522.35029	0.07151
1521.06452	0.07256
1519.77875	0.07362
1518.49298	0.07472
1517.20722	0.07589
1515.92145	0.07713
1514.63568	0.07844
1513.34991	0.07989
1512.06414	0.08149
1510.77837	0.08320
1509.49260	0.08503
1508.20683	0.08692
1506.92107	0.08873
1505.63530	0.09031
1504.34953	0.09169
1503.06376	0.09302
1501.77799	0.09439
1500.49222	0.09574
1499.20645	0.09697
1497.92068	0.09807
1496.63491	0.09904
1495.34915	0.09992
1494.06338	0.10078
1492.77761	0.10172
1491.49184	0.10276
1490.20607	0.10389
1488.92030	0.10505
1487.63453	0.10624
1486.34876	0.10751
1485.06299	0.10889
1483.77723	0.11040
1482.49146	0.11205
1481.20569	0.11376
1479.91992	0.11547
1478.63415	0.11712
1477.34838	0.11865
1476.06261	0.12007
1474.77684	0.12139
1473.49108	0.12262
1472.20531	0.12372
1470.91954	0.12464
1469.63377	0.12543
1468.34800	0.12613
1467.06223	0.12676
1465.77646	0.12730
1464.49069	0.12771
1463.20492	0.12804
1461.91916	0.12843
1460.63339	0.12903
1459.34762	0.12989
1458.06185	0.13087
1456.77608	0.13173
1455.49031	0.13235
1454.20454	0.13285
1452.91877	0.13344
1451.63301	0.13416
1450.34724	0.13492
1449.06147	0.13560
1447.77570	0.13607
1446.48993	0.13629
1445.20416	0.13631
1443.91839	0.13620
1442.63262	0.13593
1441.34685	0.13552
1440.06109	0.13501
1438.77532	0.13457
1437.48955	0.13426
1436.20378	0.13408
1434.91801	0.13406
1433.63224	0.13434
1432.34647	0.13501
1431.06070	0.13610
1429.77494	0.13752
1428.48917	0.13919
1427.20340	0.14105
1425.91763	0.14306
1424.63186	0.14513
1423.34609	0.14718
1422.06032	0.14917
1420.77455	0.15108
1419.48878	0.15281
1418.20302	0.15426
1416.91725	0.15540
1415.63148	0.15628
1414.34571	0.15695
1413.05994	0.15736
1411.77417	0.15747
1410.48840	0.15722
1409.20263	0.15659
1407.91687	0.15558
1406.63110	0.15424
1405.34533	0.15263
1404.05956	0.15076
1402.77379	0.14864
1401.48802	0.14626
1400.20225	0.14364
1398.91648	0.14084
1397.63071	0.13793
1396.34495	0.13502
1395.05918	0.13210
1393.77341	0.12915
1392.48764	0.12619
1391.20187	0.12327
1389.91610	0.12042
1388.63033	0.11767
1387.34456	0.11498
1386.05880	0.11234
1384.77303	0.10976
1383.48726	0.10723
1382.20149	0.10471
1380.91572	0.10215
1379.62995	0.09952
1378.34418	0.09677
1377.05841	0.09390
1375.77264	0.09092
1374.48688	0.08786
1373.20111	0.08481
1371.91534	0.08185
1370.62957	0.07904
1369.34380	0.07639
1368.05803	0.07388
1366.77226	0.07151
1365.48649	0.06931
1364.20073	0.06727
1362.91496	0.06535
1361.62919	0.06355
1360.34342	0.06185
1359.05765	0.06027
1357.77188	0.05878
1356.48611	0.05736
1355.20034	0.05603
1353.91457	0.05480
1352.62881	0.05366
1351.34304	0.05259
1350.05727	0.05158
1348.77150	0.05064
1347.48573	0.04977
1346.19996	0.04897
1344.91419	0.04820
1343.62842	0.04747
1342.34266	0.04677
1341.05689	0.04611
1339.77112	0.04548
1338.48535	0.04487
1337.19958	0.04426
1335.91381	0.04366
1334.62804	0.04309
1333.34227	0.04257
1332.05650	0.04210
1330.77074	0.04162
1329.48497	0.04114
1328.19920	0.04066
1326.91343	0.04023
1325.62766	0.03988
1324.34189	0.03958
1323.05612	0.03930
1321.77035	0.03901
1320.48459	0.03870
1319.19882	0.03838
1317.91305	0.03806
1316.62728	0.03775
1315.34151	0.03746
1314.05574	0.03718
1312.76997	0.03691
1311.48420	0.03666
1310.19843	0.03640
1308.91267	0.03612
1307.62690	0.03582
1306.34113	0.03550
1305.05536	0.03516
1303.76959	0.03485
1302.48382	0.03461
1301.19805	0.03442
1299.91228	0.03425
1298.62652	0.03408
1297.34075	0.03390
1296.05498	0.03374
1294.76921	0.03360
1293.48344	0.03347
1292.19767	0.03334
1290.91190	0.03319
1289.62613	0.03303
1288.34036	0.03285
1287.05460	0.03266
1285.76883	0.03245
1284.48306	0.03224
1283.19729	0.03205
1281.91152	0.03190
1280.62575	0.03174
1279.33998	0.03158
1278.05421	0.03141
1276.76845	0.03127
1275.48268	0.03114
1274.19691	0.03102
1272.91114	0.03090
1271.62537	0.03079
1270.33960	0.03071
1269.05383	0.03066
1267.76806	0.03062
1266.48229	0.03055
1265.19653	0.03047
1263.91076	0.03039
1262.62499	0.03034
1261.33922	0.03033
1260.05345	0.03032
1258.76768	0.03026
1257.48191	0.03015
1256.19614	0.03003
1254.91037	0.02993
1253.62461	0.02988
1252.33884	0.02986
1251.05307	0.02983
1249.76730	0.02977
1248.48153	0.02966
1247.19576	0.02950
1245.90999	0.02934
1244.62422	0.02923
1243.33846	0.02919
1242.05269	0.02917
1240.76692	0.02910
1239.48115	0.02895
1238.19538	0.02875
1236.90961	0.02855
1235.62384	0.02838
1234.33807	0.02825
1233.05230	0.02813
1231.76654	0.02800
1230.48077	0.02786
1229.19500	0.02772
1227.90923	0.02757
1226.62346	0.02744
1225.33769	0.02732
1224.05192	0.02720
1222.76615	0.02709
1221.48039	0.02699
1220.19462	0.02688
1218.90885	0.02674
1217.62308	0.02659
1216.33731	0.02645
1215.05154	0.02636
1213.76577	0.02632
1212.48000	0.02632
1211.19423	0.02632
1209.90847	0.02629
1208.62270	0.02625
1207.33693	0.02622
1206.05116	0.02623
1204.76539	0.02628
1203.47962	0.02635
1202.19385	0.02641
1200.90808	0.02636
1199.62232	0.02619
1198.33655	0.02614
1197.05078	0.02606
1195.76501	0.02596
1194.47924	0.02585
1193.19347	0.02576
1191.90770	0.02570
1190.62193	0.02568
1189.33616	0.02573
1188.05040	0.02583
1186.76463	0.02593
1185.47886	0.02597
1184.19309	0.02592
1182.90732	0.02582
1181.62155	0.02573
1180.33578	0.02573
1179.05001	0.02581
1177.76425	0.02592
1176.47848	0.02600
1175.19271	0.02599
1173.90694	0.02597
1172.62117	0.02600
1171.33540	0.02614
1170.04963	0.02634
1168.76386	0.02655
1167.47809	0.02676
1166.19233	0.02694
1164.90656	0.02709
1163.62079	0.02719
1162.33502	0.02729
1161.04925	0.02743
1159.76348	0.02763
1158.47771	0.02783
1157.19194	0.02802
1155.90618	0.02823
1154.62041	0.02851
1153.33464	0.02890
1152.04887	0.02935
1150.76310	0.02981
1149.47733	0.03026
1148.19156	0.03075
1146.90579	0.03133
1145.62002	0.03202
1144.33426	0.03280
1143.04849	0.03368
1141.76272	0.03464
1140.47695	0.03570
1139.19118	0.03690
1137.90541	0.03832
1136.61964	0.04002
1135.33387	0.04198
1134.04811	0.04411
1132.76234	0.04638
1131.47657	0.04887
1130.19080	0.05169
1128.90503	0.05489
1127.61926	0.05845
1126.33349	0.06235
1125.04772	0.06658
1123.76195	0.07105
1122.47619	0.07566
1121.19042	0.08032
1119.90465	0.08504
1118.61888	0.08985
1117.33311	0.09472
1116.04734	0.09955
1114.76157	0.10428
1113.47580	0.10883
1112.19004	0.11319
1110.90427	0.11739
1109.61850	0.12146
1108.33273	0.12543
1107.04696	0.12929
1105.76119	0.13303
1104.47542	0.13667
1103.18965	0.14022
1101.90388	0.14365
1100.61812	0.14692
1099.33235	0.15000
1098.04658	0.15292
1096.76081	0.15572
1095.47504	0.15843
1094.18927	0.16104
1092.90350	0.16354
1091.61773	0.16592
1090.33197	0.16820
1089.04620	0.17041
1087.76043	0.17257
1086.47466	0.17471
1085.18889	0.17686
1083.90312	0.17905
1082.61735	0.18131
1081.33158	0.18370
1080.04581	0.18630
1078.76005	0.18919
1077.47428	0.19237
1076.18851	0.19582
1074.90274	0.19947
1073.61697	0.20329
1072.33120	0.20728
1071.04543	0.21149
1069.75966	0.21590
1068.47390	0.22047
1067.18813	0.22515
1065.90236	0.22992
1064.61659	0.23476
1063.33082	0.23966
1062.04505	0.24465
1060.75928	0.24975
1059.47351	0.25494
1058.18774	0.26009
1056.90198	0.26506
1055.61621	0.26981
1054.33044	0.27446
1053.04467	0.27921
1051.75890	0.28420
1050.47313	0.28953
1049.18736	0.29517
1047.90159	0.30101
1046.61583	0.30697
1045.33006	0.31300
1044.04429	0.31916
1042.75852	0.32551
1041.47275	0.33206
1040.18698	0.33880
1038.90121	0.34571
1037.61544	0.35276
1036.32967	0.35992
1035.04391	0.36712
1033.75814	0.37422
1032.47237	0.38108
1031.18660	0.38763
1029.90083	0.39378
1028.61506	0.39945
1027.32929	0.40454
1026.04352	0.40901
1024.75775	0.41290
1023.47199	0.41628
1022.18622	0.41907
1020.90045	0.42112
1019.61468	0.42224
1018.32891	0.42238
1017.04314	0.42155
1015.75737	0.41976
1014.47160	0.41698
1013.18584	0.41312
1011.90007	0.40812
1010.61430	0.40195
1009.32853	0.39469
1008.04276	0.38643
1006.75699	0.37725
1005.47122	0.36721
1004.18545	0.35635
1002.89968	0.34470
1001.61392	0.33233
1000.32815	0.31939
999.04238	0.30615
997.75661	0.29285
996.47084	0.27961
995.18507	0.26645
993.89930	0.25343
992.61353	0.24068
991.32777	0.22839
990.04200	0.21671
988.75623	0.20572
987.47046	0.19539
986.18469	0.18570
984.89892	0.17664
983.61315	0.16819
982.32738	0.16036
981.04161	0.15316
979.75585	0.14666
978.47008	0.14089
977.18431	0.13582
975.89854	0.13138
974.61277	0.12753
973.32700	0.12436
972.04123	0.12198
970.75546	0.12045
969.46970	0.11982
968.18393	0.12007
966.89816	0.12114
965.61239	0.12282
964.32662	0.12475
963.04085	0.12658
961.75508	0.12791
960.46931	0.12839
959.18354	0.12776
957.89778	0.12598
956.61201	0.12320
955.32624	0.11970
954.04047	0.11579
952.75470	0.11177
951.46893	0.10786
950.18316	0.10412
948.89739	0.10057
947.61163	0.09718
946.32586	0.09400
945.04009	0.09099
943.75432	0.08811
942.46855	0.08536
941.18278	0.08274
939.89701	0.08030
938.61124	0.07802
937.32547	0.07586
936.03971	0.07383
934.75394	0.07199
933.46817	0.07032
932.18240	0.06876
930.89663	0.06731
929.61086	0.06601
928.32509	0.06489
927.03932	0.06394
925.75356	0.06310
924.46779	0.06233
923.18202	0.06163
921.89625	0.06096
920.61048	0.06026
919.32471	0.05952
918.03894	0.05875
916.75317	0.05795
915.46740	0.05716
914.18164	0.05641
912.89587	0.05576
911.61010	0.05525
910.32433	0.05483
909.03856	0.05440
907.75279	0.05392
906.46702	0.05340
905.18125	0.05287
903.89549	0.05241
902.60972	0.05207
901.32395	0.05185
900.03818	0.05173
898.75241	0.05160
897.46664	0.05134
896.18087	0.05096
894.89510	0.05061
893.60933	0.05049
892.32357	0.05061
891.03780	0.05087
889.75203	0.05118
888.46626	0.05163
887.18049	0.05253
885.89472	0.05420
884.60895	0.05689
883.32318	0.06060
882.03742	0.06498
880.75165	0.06931
879.46588	0.07287
878.18011	0.07546
876.89434	0.07751
875.60857	0.07969
874.32280	0.08221
873.03703	0.08459
871.75126	0.08602
870.46550	0.08594
869.17973	0.08433
867.89396	0.08157
866.60819	0.07804
865.32242	0.07407
864.03665	0.07000
862.75088	0.06618
861.46511	0.06285
860.17935	0.06009
858.89358	0.05783
857.60781	0.05595
856.32204	0.05436
855.03627	0.05306
853.75050	0.05206
852.46473	0.05132
851.17896	0.05076
849.89319	0.05027
848.60743	0.04977
847.32166	0.04923
846.03589	0.04870
844.75012	0.04825
843.46435	0.04789
842.17858	0.04756
840.89281	0.04722
839.60704	0.04688
838.32128	0.04658
837.03551	0.04637
835.74974	0.04622
834.46397	0.04608
833.17820	0.04589
831.89243	0.04565
830.60666	0.04540
829.32089	0.04524
828.03512	0.04516
826.74936	0.04509
825.46359	0.04498
824.17782	0.04483
822.89205	0.04472
821.60628	0.04463
820.32051	0.04455
819.03474	0.04448
817.74897	0.04449
816.46321	0.04460
815.17744	0.04473
813.89167	0.04472
812.60590	0.04455
811.32013	0.04429
810.03436	0.04403
808.74859	0.04382
807.46282	0.04366
806.17705	0.04358
804.89129	0.04362
803.60552	0.04370
802.31975	0.04374
801.03398	0.04368
799.74821	0.04356
798.46244	0.04348
797.17667	0.04353
795.89090	0.04371
794.60513	0.04391
793.31937	0.04396
792.03360	0.04381
790.74783	0.04353
789.46206	0.04326
788.17629	0.04307
786.89052	0.04294
785.60475	0.04286
784.31898	0.04281
783.03322	0.04280
781.74745	0.04282
780.46168	0.04286
779.17591	0.04288
777.89014	0.04289
776.60437	0.04288
775.31860	0.04285
774.03283	0.04280
772.74706	0.04276
771.46130	0.04278
770.17553	0.04288
768.88976	0.04302
767.60399	0.04312
766.31822	0.04311
765.03245	0.04298
763.74668	0.04287
762.46091	0.04287
761.17515	0.04303
759.88938	0.04326
758.60361	0.04349
757.31784	0.04366
756.03207	0.04374
754.74630	0.04374
753.46053	0.04370
752.17476	0.04366
750.88899	0.04359
749.60323	0.04346
748.31746	0.04330
747.03169	0.04317
745.74592	0.04306
744.46015	0.04293
743.17438	0.04274
741.88861	0.04254
740.60284	0.04240
739.31708	0.04234
738.03131	0.04234
736.74554	0.04242
735.45977	0.04256
734.17400	0.04269
732.88823	0.04271
731.60246	0.04261
730.31669	0.04245
729.03092	0.04239
727.74516	0.04249
726.45939	0.04268
725.17362	0.04282
723.88785	0.04312
722.60208	0.04295
721.31631	0.04256
720.03054	0.04221
718.74477	0.04193
717.45901	0.04175
716.17324	0.04170
714.88747	0.04178
713.60170	0.04198
712.31593	0.04224
711.03016	0.04248
709.74439	0.04264
708.45862	0.04271
707.17285	0.04272
705.88709	0.04271
704.60132	0.04268
703.31555	0.04265
702.02978	0.04264
700.74401	0.04265
699.45824	0.04261
698.17247	0.04248
696.88670	0.04230
695.60094	0.04215
694.31517	0.04211
693.02940	0.04216
691.74363	0.04223
690.45786	0.04227
689.17209	0.04227
687.88632	0.04223
686.60055	0.04216
685.31478	0.04209
684.02902	0.04202
682.74325	0.04199
681.45748	0.04197
680.17171	0.04195
678.88594	0.04193
677.60017	0.04194
676.31440	0.04197
675.02863	0.04203
673.74287	0.04212
672.45710	0.04228
671.17133	0.04255
669.88556	0.04290
668.59979	0.04326
667.31402	0.04350
666.02825	0.04350
664.74248	0.04325
663.45671	0.04284
662.17095	0.04237
660.88518	0.04195
659.59941	0.04165
658.31364	0.04147
657.02787	0.04138
655.74210	0.04134
654.45633	0.04130
653.17056	0.04126
651.88480	0.04120
650.59903	0.04115
649.31326	0.04113
648.02749	0.04119
646.74172	0.04133
645.45595	0.04150
644.17018	0.04164
642.88441	0.04176
641.59864	0.04191
640.31288	0.04209
639.02711	0.04232
637.74134	0.04260
636.45557	0.04296
635.16980	0.04344
633.88403	0.04398
632.59826	0.04454
631.31249	0.04523
630.02673	0.04661
628.74096	0.04838
627.45519	0.04832
626.16942	0.05051
624.88365	0.05437
623.59788	0.05854
622.31211	0.06258
621.02634	0.06637
619.74057	0.07003
618.45481	0.07398
617.16904	0.07829
615.88327	0.08233
614.59750	0.08571
613.31173	0.08931
612.02596	0.09483
610.74019	0.10294
609.45442	0.11215
608.16866	0.12042
606.88289	0.12718
605.59712	0.13293
604.31135	0.13767
603.02558	0.14071
601.73981	0.14153
600.45404	0.14020
599.16827	0.13714
597.88250	0.13292
596.59674	0.12823
595.31097	0.12365
594.02520	0.11952
592.73943	0.11599
591.45366	0.11313
590.16789	0.11109
588.88212	0.11004
587.59635	0.11009
586.31059	0.11119
585.02482	0.11315
583.73905	0.11570
582.45328	0.11864
581.16751	0.12184
579.88174	0.12526
578.59597	0.12882
577.31020	0.13247
576.02443	0.13613
574.73867	0.13971
573.45290	0.14315
572.16713	0.14657
570.88136	0.15035
569.59559	0.15499
568.30982	0.16071
567.02405	0.16729
565.73828	0.17423
564.45251	0.18087
563.16675	0.18646
561.88098	0.19012
560.59521	0.19095
559.30944	0.18843
558.02367	0.18259
556.73790	0.17413
555.45213	0.16411
554.16636	0.15358
552.88060	0.14326
551.59483	0.13346
550.30906	0.12434
549.02329	0.11599
547.73752	0.10856
546.45175	0.10215
545.16598	0.09677
543.88021	0.09229
542.59444	0.08843
541.30868	0.08489
540.02291	0.08155
538.73714	0.07844
537.45137	0.07558
536.16560	0.07297
534.87983	0.07062
533.59406	0.06852
532.30829	0.06666
531.02253	0.06496
529.73676	0.06334
528.45099	0.06182
527.16522	0.06043
525.87945	0.05915
524.59368	0.05790
523.30791	0.05664
522.02214	0.05539
520.73637	0.05423
519.45061	0.05321
518.16484	0.05232
516.87907	0.05146
515.59330	0.05057
514.30753	0.04970
513.02176	0.04895
511.73599	0.04836
510.45022	0.04784
509.16446	0.04729
507.87869	0.04663
506.59292	0.04590
505.30715	0.04515
504.02138	0.04441
502.73561	0.04373
501.44984	0.04315
500.16407	0.04266
498.87830	0.04224
497.59254	0.04184
496.30677	0.04144
495.02100	0.04106
493.73523	0.04071
492.44946	0.04037
491.16369	0.04003
489.87792	0.03968
488.59215	0.03939
487.30639	0.03923
486.02062	0.03921
484.73485	0.03926
483.44908	0.03927
482.16331	0.03921
480.87754	0.03914
479.59177	0.03913
478.30600	0.03926
477.02023	0.03957
475.73447	0.04001
474.44870	0.04049
473.16293	0.04093
471.87716	0.04128
470.59139	0.04153
469.30562	0.04166
468.01985	0.04161
466.73408	0.04136
465.44832	0.04089
464.16255	0.04021
462.87678	0.03943
461.59101	0.03867
460.30524	0.03804
459.01947	0.03758
457.73370	0.03720
456.44793	0.03681
455.16216	0.03635
453.87640	0.03586
452.59063	0.03537
451.30486	0.03493
450.01909	0.03456
448.73332	0.03430
447.44755	0.03412
446.16178	0.03397
444.87601	0.03378
443.59025	0.03352
442.30448	0.03321
441.01871	0.03289
439.73294	0.03259
438.44717	0.03232
437.16140	0.03211
435.87563	0.03197
434.58986	0.03189
433.30409	0.03183
432.01833	0.03178
430.73256	0.03172
429.44679	0.03162
428.16102	0.03147
426.87525	0.03124
425.58948	0.03099
424.30371	0.03077
423.01794	0.03062
421.73218	0.03051
420.44641	0.03036
419.16064	0.03011
417.87487	0.02977
416.58910	0.02945
415.30333	0.02926
414.01756	0.02922
412.73179	0.02925
411.44602	0.02928
410.16026	0.02924
408.87449	0.02916
407.58872	0.02906
406.30295	0.02899
405.01718	0.02895
403.73141	0.02896
402.44564	0.02901
401.15987	0.02910
399.87411	0.02921
