3997.45528 0.04424
3996.16951 0.04485
3994.88374 0.04511
3993.59798 0.04479
3992.31221 0.04417
3991.02644 0.04381
3989.74067 0.04382
3988.45490 0.04397
3987.16913 0.04405
3985.88336 0.04402
3984.59759 0.04387
3983.31183 0.04345
3982.02606 0.04266
3980.74029 0.04166
3979.45452 0.04086
3978.16875 0.04058
3976.88298 0.04084
3975.59721 0.04143
3974.31144 0.04211
3973.02567 0.04265
3971.73991 0.04284
3970.45414 0.04267
3969.16837 0.04233
3967.88260 0.04212
3966.59683 0.04224
3965.31106 0.04281
3964.02529 0.04367
3962.73952 0.04426
3961.45376 0.04400
3960.16799 0.04293
3958.88222 0.04183
3957.59645 0.04145
3956.31068 0.04180
3955.02491 0.04230
3953.73914 0.04252
3952.45337 0.04257
3951.16760 0.04269
3949.88184 0.04279
3948.59607 0.04262
3947.31030 0.04230
3946.02453 0.04221
3944.73876 0.04257
3943.45299 0.04320
3942.16722 0.04393
3940.88145 0.04464
3939.59569 0.04502
3938.30992 0.04467
3937.02415 0.04367
3935.73838 0.04276
3934.45261 0.04273
3933.16684 0.04363
3931.88107 0.04466
3930.59530 0.04487
3929.30953 0.04380
3928.02377 0.04186
3926.73800 0.03997
3925.45223 0.03907
3924.16646 0.03939
3922.88069 0.04039
3921.59492 0.04126
3920.30915 0.04154
3919.02338 0.04139
3917.73762 0.04111
3916.45185 0.04088
3915.16608 0.04063
3913.88031 0.04021
3912.59454 0.03962
3911.30877 0.03919
3910.02300 0.03932
3908.73723 0.04002
3907.45146 0.04066
3906.16570 0.04054
3904.87993 0.03963
3903.59416 0.03861
3902.30839 0.03817
3901.02262 0.03847
3899.73685 0.03920
3898.45108 0.03993
3897.16531 0.04049
3895.87955 0.04112
3894.59378 0.04213
3893.30801 0.04348
3892.02224 0.04468
3890.73647 0.04520
3889.45070 0.04490
3888.16493 0.04394
3886.87916 0.04272
3885.59339 0.04173
3884.30763 0.04127
3883.02186 0.04126
3881.73609 0.04147
3880.45032 0.04173
3879.16455 0.04204
3877.87878 0.04233
3876.59301 0.04244
3875.30724 0.04222
3874.02148 0.04190
3872.73571 0.04195
3871.44994 0.04254
3870.16417 0.04324
3868.87840 0.04331
3867.59263 0.04251
3866.30686 0.04141
3865.02109 0.04077
3863.73532 0.04059
3862.44956 0.04029
3861.16379 0.03966
3859.87802 0.03914
3858.59225 0.03930
3857.30648 0.04026
3856.02071 0.04170
3854.73494 0.04322
3853.44917 0.04453
3852.16341 0.04537
3850.87764 0.04560
3849.59187 0.04530
3848.30610 0.04463
3847.02033 0.04372
3845.73456 0.04285
3844.44879 0.04249
3843.16302 0.04287
3841.87725 0.04353
3840.59149 0.04369
3839.30572 0.04300
3838.01995 0.04178
3836.73418 0.04068
3835.44841 0.04014
3834.16264 0.04026
3832.87687 0.04082
3831.59110 0.04129
3830.30534 0.04129
3829.01957 0.04089
3827.73380 0.04047
3826.44803 0.04025
3825.16226 0.04013
3823.87649 0.03984
3822.59072 0.03932
3821.30495 0.03876
3820.01918 0.03835
3818.73342 0.03808
3817.44765 0.03792
3816.16188 0.03815
3814.87611 0.03898
3813.59034 0.04012
3812.30457 0.04095
3811.01880 0.04114
3809.73303 0.04083
3808.44726 0.04033
3807.16150 0.03990
3805.87573 0.03955
3804.58996 0.03929
3803.30419 0.03929
3802.01842 0.03976
3800.73265 0.04060
3799.44688 0.04143
3798.16111 0.04195
3796.87535 0.04217
3795.58958 0.04206
3794.30381 0.04143
3793.01804 0.04028
3791.73227 0.03902
3790.44650 0.03817
3789.16073 0.03798
3787.87496 0.03835
3786.58919 0.03892
3785.30343 0.03925
3784.01766 0.03913
3782.73189 0.03870
3781.44612 0.03831
3780.16035 0.03820
3778.87458 0.03838
3777.58881 0.03872
3776.30304 0.03912
3775.01728 0.03945
3773.73151 0.03964
3772.44574 0.03978
3771.15997 0.04029
3769.87420 0.04145
3768.58843 0.04290
3767.30266 0.04388
3766.01689 0.04387
3764.73112 0.04297
3763.44536 0.04160
3762.15959 0.04010
3760.87382 0.03869
3759.58805 0.03758
3758.30228 0.03709
3757.01651 0.03753
3755.73074 0.03882
3754.44497 0.04027
3753.15921 0.04101
3751.87344 0.04073
3750.58767 0.03994
3749.30190 0.03944
3748.01613 0.03960
3746.73036 0.03993
3745.44459 0.03963
3744.15882 0.03851
3742.87305 0.03713
3741.58729 0.03624
3740.30152 0.03632
3739.01575 0.03715
3737.72998 0.03818
3736.44421 0.03911
3735.15844 0.03995
3733.87267 0.04066
3732.58690 0.04091
3731.30114 0.04044
3730.01537 0.03931
3728.72960 0.03787
3727.44383 0.03670
3726.15806 0.03623
3724.87229 0.03651
3723.58652 0.03724
3722.30075 0.03801
3721.01498 0.03852
3719.72922 0.03877
3718.44345 0.03895
3717.15768 0.03922
3715.87191 0.03946
3714.58614 0.03944
3713.30037 0.03923
3712.01460 0.03900
3710.72883 0.03876
3709.44307 0.03835
3708.15730 0.03775
3706.87153 0.03718
3705.58576 0.03681
3704.29999 0.03673
3703.01422 0.03679
3701.72845 0.03674
3700.44268 0.03661
3699.15691 0.03677
3697.87115 0.03711
3696.58538 0.03716
3695.29961 0.03687
3694.01384 0.03647
3692.72807 0.03580
3691.44230 0.03505
3690.15653 0.03457
3688.87076 0.03425
3687.58500 0.03405
3686.29923 0.03432
3685.01346 0.03516
3683.72769 0.03638
3682.44192 0.03754
3681.15615 0.03793
3679.87038 0.03746
3678.58461 0.03667
3677.29884 0.03601
3676.01308 0.03589
3674.72731 0.03650
3673.44154 0.03762
3672.15577 0.03886
3670.87000 0.03981
3669.58423 0.04035
3668.29846 0.04063
3667.01269 0.04077
3665.72693 0.04076
3664.44116 0.04043
3663.15539 0.03989
3661.86962 0.03968
3660.58385 0.04019
3659.29808 0.04108
3658.01231 0.04160
3656.72654 0.04128
3655.44077 0.04040
3654.15501 0.03960
3652.86924 0.03925
3651.58347 0.03916
3650.29770 0.03882
3649.01193 0.03805
3647.72616 0.03738
3646.44039 0.03738
3645.15462 0.03801
3643.86886 0.03880
3642.58309 0.03958
3641.29732 0.04054
3640.01155 0.04169
3638.72578 0.04264
3637.44001 0.04305
3636.15424 0.04291
3634.86847 0.04253
3633.58270 0.04225
3632.29694 0.04228
3631.01117 0.04263
3629.72540 0.04319
3628.43963 0.04374
3627.15386 0.04389
3625.86809 0.04340
3624.58232 0.04246
3623.29655 0.04163
3622.01079 0.04122
3620.72502 0.04111
3619.43925 0.04107
3618.15348 0.04103
3616.86771 0.04096
3615.58194 0.04100
3614.29617 0.04140
3613.01040 0.04224
3611.72463 0.04311
3610.43887 0.04350
3609.15310 0.04351
3607.86733 0.04373
3606.58156 0.04435
3605.29579 0.04497
3604.01002 0.04519
3602.72425 0.04509
3601.43848 0.04484
3600.15272 0.04465
3598.86695 0.04482
3597.58118 0.04551
3596.29541 0.04628
3595.00964 0.04655
3593.72387 0.04628
3592.43810 0.04578
3591.15233 0.04549
3589.86656 0.04575
3588.58080 0.04636
3587.29503 0.04673
3586.00926 0.04663
3584.72349 0.04641
3583.43772 0.04619
3582.15195 0.04595
3580.86618 0.04572
3579.58041 0.04557
3578.29464 0.04580
3577.00888 0.04676
3575.72311 0.04825
3574.43734 0.04969
3573.15157 0.05042
3571.86580 0.05022
3570.58003 0.04952
3569.29426 0.04886
3568.00849 0.04841
3566.72273 0.04809
3565.43696 0.04795
3564.15119 0.04819
3562.86542 0.04884
3561.57965 0.04963
3560.29388 0.05023
3559.00811 0.05064
3557.72234 0.05106
3556.43657 0.05154
3555.15081 0.05186
3553.86504 0.05188
3552.57927 0.05187
3551.29350 0.05224
3550.00773 0.05302
3548.72196 0.05370
3547.43619 0.05381
3546.15042 0.05335
3544.86466 0.05272
3543.57889 0.05225
3542.29312 0.05207
3541.00735 0.05218
3539.72158 0.05252
3538.43581 0.05302
3537.15004 0.05363
3535.86427 0.05424
3534.57850 0.05468
3533.29274 0.05487
3532.00697 0.05493
3530.72120 0.05503
3529.43543 0.05514
3528.14966 0.05511
3526.86389 0.05490
3525.57812 0.05465
3524.29235 0.05457
3523.00659 0.05471
3521.72082 0.05492
3520.43505 0.05492
3519.14928 0.05458
3517.86351 0.05404
3516.57774 0.05368
3515.29197 0.05380
3514.00620 0.05436
3512.72043 0.05490
3511.43467 0.05497
3510.14890 0.05453
3508.86313 0.05392
3507.57736 0.05354
3506.29159 0.05366
3505.00582 0.05441
3503.72005 0.05569
3502.43428 0.05703
3501.14852 0.05785
3499.86275 0.05796
3498.57698 0.05768
3497.29121 0.05740
3496.00544 0.05721
3494.71967 0.05704
3493.43390 0.05685
3492.14813 0.05668
3490.86236 0.05652
3489.57660 0.05636
3488.29083 0.05634
3487.00506 0.05665
3485.71929 0.05731
3484.43352 0.05799
3483.14775 0.05829
3481.86198 0.05807
3480.57621 0.05764
3479.29045 0.05756
3478.00468 0.05812
3476.71891 0.05910
3475.43314 0.06003
3474.14737 0.06051
3472.86160 0.06042
3471.57583 0.05989
3470.29006 0.05922
3469.00429 0.05879
3467.71853 0.05877
3466.43276 0.05908
3465.14699 0.05948
3463.86122 0.05979
3462.57545 0.05997
3461.28968 0.06004
3460.00391 0.06010
3458.71814 0.06019
3457.43238 0.06029
3456.14661 0.06032
3454.86084 0.06023
3453.57507 0.06004
3452.28930 0.05979
3451.00353 0.05958
3449.71776 0.05961
3448.43199 0.05994
3447.14622 0.06042
3445.86046 0.06076
3444.57469 0.06081
3443.28892 0.06062
3442.00315 0.06041
3440.71738 0.06033
3439.43161 0.06038
3438.14584 0.06048
3436.86007 0.06055
3435.57431 0.06062
3434.28854 0.06077
3433.00277 0.06097
3431.71700 0.06112
3430.43123 0.06118
3429.14546 0.06119
3427.85969 0.06119
3426.57392 0.06114
3425.28815 0.06100
3424.00239 0.06083
3422.71662 0.06075
3421.43085 0.06077
3420.14508 0.06081
3418.85931 0.06085
3417.57354 0.06095
3416.28777 0.06117
3415.00200 0.06145
3413.71624 0.06171
3412.43047 0.06192
3411.14470 0.06213
3409.85893 0.06233
3408.57316 0.06252
3407.28739 0.06285
3406.00162 0.06351
3404.71585 0.06442
3403.43008 0.06525
3402.14432 0.06567
3400.85855 0.06575
3399.57278 0.06574
3398.28701 0.06568
3397.00124 0.06557
3395.71547 0.06535
3394.42970 0.06509
3393.14393 0.06489
3391.85817 0.06475
3390.57240 0.06465
3389.28663 0.06461
3388.00086 0.06463
3386.71509 0.06455
3385.42932 0.06413
3384.14355 0.06340
3382.85778 0.06276
3381.57201 0.06261
3380.28625 0.06295
3379.00048 0.06340
3377.71471 0.06360
3376.42894 0.06341
3375.14317 0.06296
3373.85740 0.06258
3372.57163 0.06271
3371.28586 0.06347
3370.00010 0.06451
3368.71433 0.06532
3367.42856 0.06563
3366.14279 0.06554
3364.85702 0.06521
3363.57125 0.06474
3362.28548 0.06423
3360.99971 0.06391
3359.71394 0.06403
3358.42818 0.06453
3357.14241 0.06513
3355.85664 0.06554
3354.57087 0.06571
3353.28510 0.06575
3351.99933 0.06567
3350.71356 0.06533
3349.42779 0.06462
3348.14202 0.06367
3346.85626 0.06284
3345.57049 0.06244
3344.28472 0.06246
3342.99895 0.06268
3341.71318 0.06286
3340.42741 0.06297
3339.14164 0.06309
3337.85587 0.06329
3336.57011 0.06353
3335.28434 0.06365
3333.99857 0.06356
3332.71280 0.06334
3331.42703 0.06325
3330.14126 0.06349
3328.85549 0.06401
3327.56972 0.06458
3326.28395 0.06502
3324.99819 0.06523
3323.71242 0.06521
3322.42665 0.06501
3321.14088 0.06474
3319.85511 0.06445
3318.56934 0.06412
3317.28357 0.06367
3315.99780 0.06314
3314.71204 0.06272
3313.42627 0.06257
3312.14050 0.06266
3310.85473 0.06280
3309.56896 0.06282
3308.28319 0.06273
3306.99742 0.06269
3305.71165 0.06283
3304.42588 0.06317
3303.14012 0.06352
3301.85435 0.06374
3300.56858 0.06385
3299.28281 0.06396
3297.99704 0.06401
3296.71127 0.06376
3295.42550 0.06309
3294.13973 0.06228
3292.85397 0.06181
3291.56820 0.06199
3290.28243 0.06261
3288.99666 0.06313
3287.71089 0.06314
3286.42512 0.06274
3285.13935 0.06241
3283.85358 0.06237
3282.56781 0.06251
3281.28205 0.06273
3279.99628 0.06315
3278.71051 0.06376
3277.42474 0.06412
3276.13897 0.06378
3274.85320 0.06277
3273.56743 0.06164
3272.28166 0.06106
3270.99590 0.06140
3269.71013 0.06253
3268.42436 0.06389
3267.13859 0.06483
3265.85282 0.06502
3264.56705 0.06459
3263.28128 0.06393
3261.99551 0.06347
3260.70974 0.06345
3259.42398 0.06378
3258.13821 0.06405
3256.85244 0.06377
3255.56667 0.06278
3254.28090 0.06145
3252.99513 0.06045
3251.70936 0.06020
3250.42359 0.06061
3249.13783 0.06111
3247.85206 0.06121
3246.56629 0.06087
3245.28052 0.06046
3243.99475 0.06040
3242.70898 0.06085
3241.42321 0.06165
3240.13744 0.06248
3238.85167 0.06300
3237.56591 0.06297
3236.28014 0.06244
3234.99437 0.06173
3233.70860 0.06118
3232.42283 0.06093
3231.13706 0.06098
3229.85129 0.06127
3228.56552 0.06166
3227.27976 0.06195
3225.99399 0.06207
3224.70822 0.06201
3223.42245 0.06183
3222.13668 0.06158
3220.85091 0.06133
3219.56514 0.06119
3218.27937 0.06118
3216.99360 0.06119
3215.70784 0.06109
3214.42207 0.06094
3213.13630 0.06090
3211.85053 0.06107
3210.56476 0.06143
3209.27899 0.06184
3207.99322 0.06208
3206.70745 0.06192
3205.42169 0.06127
3204.13592 0.06032
3202.85015 0.05943
3201.56438 0.05890
3200.27861 0.05882
3198.99284 0.05913
3197.70707 0.05963
3196.42130 0.06013
3195.13553 0.06047
3193.84977 0.06054
3192.56400 0.06030
3191.27823 0.05978
3189.99246 0.05916
3188.70669 0.05861
3187.42092 0.05816
3186.13515 0.05786
3184.84938 0.05787
3183.56362 0.05834
3182.27785 0.05916
3180.99208 0.05983
3179.70631 0.05990
3178.42054 0.05927
3177.13477 0.05827
3175.84900 0.05735
3174.56323 0.05677
3173.27746 0.05657
3171.99170 0.05669
3170.70593 0.05704
3169.42016 0.05746
3168.13439 0.05775
3166.84862 0.05777
3165.56285 0.05755
3164.27708 0.05725
3162.99131 0.05697
3161.70555 0.05667
3160.41978 0.05627
3159.13401 0.05584
3157.84824 0.05562
3156.56247 0.05581
3155.27670 0.05633
3153.99093 0.05689
3152.70516 0.05717
3151.41939 0.05701
3150.13363 0.05653
3148.84786 0.05609
3147.56209 0.05607
3146.27632 0.05654
3144.99055 0.05726
3143.70478 0.05796
3142.41901 0.05849
3141.13324 0.05881
3139.84748 0.05885
3138.56171 0.05853
3137.27594 0.05789
3135.99017 0.05715
3134.70440 0.05660
3133.41863 0.05635
3132.13286 0.05631
3130.84709 0.05634
3129.56132 0.05636
3128.27556 0.05638
3126.98979 0.05640
3125.70402 0.05642
3124.41825 0.05648
3123.13248 0.05651
3121.84671 0.05629
3120.56094 0.05562
3119.27517 0.05464
3117.98940 0.05375
3116.70364 0.05322
3115.41787 0.05308
3114.13210 0.05317
3112.84633 0.05340
3111.56056 0.05369
3110.27479 0.05398
3108.98902 0.05420
3107.70325 0.05439
3106.41749 0.05466
3105.13172 0.05499
3103.84595 0.05520
3102.56018 0.05513
3101.27441 0.05480
3099.98864 0.05441
3098.70287 0.05413
3097.41710 0.05400
3096.13133 0.05394
3094.84557 0.05378
3093.55980 0.05340
3092.27403 0.05289
3090.98826 0.05244
3089.70249 0.05218
3088.41672 0.05213
3087.13095 0.05221
3085.84518 0.05235
3084.55942 0.05239
3083.27365 0.05218
3081.98788 0.05169
3080.70211 0.05116
3079.41634 0.05092
3078.13057 0.05104
3076.84480 0.05137
3075.55903 0.05169
3074.27326 0.05199
3072.98750 0.05233
3071.70173 0.05268
3070.41596 0.05288
3069.13019 0.05288
3067.84442 0.05279
3066.55865 0.05267
3065.27288 0.05251
3063.98711 0.05227
3062.70135 0.05206
3061.41558 0.05210
3060.12981 0.05240
3058.84404 0.05263
3057.55827 0.05240
3056.27250 0.05162
3054.98673 0.05069
3053.70096 0.05010
3052.41519 0.05000
3051.12943 0.05014
3049.84366 0.05024
3048.55789 0.05026
3047.27212 0.05035
3045.98635 0.05055
3044.70058 0.05075
3043.41481 0.05083
3042.12904 0.05083
3040.84328 0.05082
3039.55751 0.05082
3038.27174 0.05080
3036.98597 0.05071
3035.70020 0.05055
3034.41443 0.05034
3033.12866 0.05018
3031.84289 0.05017
3030.55712 0.05035
3029.27136 0.05060
3027.98559 0.05073
3026.69982 0.05062
3025.41405 0.05026
3024.12828 0.04981
3022.84251 0.04943
3021.55674 0.04921
3020.27097 0.04912
3018.98521 0.04912
3017.69944 0.04917
3016.41367 0.04929
3015.12790 0.04941
3013.84213 0.04941
3012.55636 0.04924
3011.27059 0.04898
3009.98482 0.04880
3008.69905 0.04880
3007.41329 0.04895
3006.12752 0.04904
3004.84175 0.04893
3003.55598 0.04866
3002.27021 0.04848
3000.98444 0.04860
2999.69867 0.04890
2998.41290 0.04902
2997.12714 0.04870
2995.84137 0.04808
2994.55560 0.04749
2993.26983 0.04717
2991.98406 0.04717
2990.69829 0.04742
2989.41252 0.04779
2988.12675 0.04815
2986.84098 0.04839
2985.55522 0.04856
2984.26945 0.04877
2982.98368 0.04900
2981.69791 0.04916
2980.41214 0.04923
2979.12637 0.04934
2977.84060 0.04964
2976.55483 0.05017
2975.26907 0.05089
2973.98330 0.05173
2972.69753 0.05251
2971.41176 0.05309
2970.12599 0.05339
2968.84022 0.05347
2967.55445 0.05353
2966.26868 0.05384
2964.98291 0.05467
2963.69715 0.05598
2962.41138 0.05742
2961.12561 0.05856
2959.83984 0.05931
2958.55407 0.05986
2957.26830 0.06041
2955.98253 0.06092
2954.69676 0.06133
2953.41100 0.06160
2952.12523 0.06169
2950.83946 0.06150
2949.55369 0.06103
2948.26792 0.06053
2946.98215 0.06032
2945.69638 0.06053
2944.41061 0.06095
2943.12484 0.06124
2941.83908 0.06118
2940.55331 0.06096
2939.26754 0.06102
2937.98177 0.06159
2936.69600 0.06246
2935.41023 0.06325
2934.12446 0.06380
2932.83869 0.06421
2931.55293 0.06464
2930.26716 0.06505
2928.98139 0.06540
2927.69562 0.06568
2926.40985 0.06598
2925.12408 0.06634
2923.83831 0.06665
2922.55254 0.06671
2921.26677 0.06628
2919.98101 0.06542
2918.69524 0.06447
2917.40947 0.06371
2916.12370 0.06318
2914.83793 0.06265
2913.55216 0.06200
2912.26639 0.06134
2910.98062 0.06090
2909.69486 0.06077
2908.40909 0.06072
2907.12332 0.06046
2905.83755 0.05992
2904.55178 0.05930
2903.26601 0.05877
2901.98024 0.05826
2900.69447 0.05764
2899.40870 0.05693
2898.12294 0.05631
2896.83717 0.05594
2895.55140 0.05582
2894.26563 0.05580
2892.97986 0.05565
2891.69409 0.05526
2890.40832 0.05466
2889.12255 0.05399
2887.83678 0.05338
2886.55102 0.05293
2885.26525 0.05264
2883.97948 0.05249
2882.69371 0.05246
2881.40794 0.05253
2880.12217 0.05269
2878.83640 0.05296
2877.55063 0.05327
2876.26487 0.05352
2874.97910 0.05362
2873.69333 0.05365
2872.40756 0.05378
2871.12179 0.05403
2869.83602 0.05426
2868.55025 0.05432
2867.26448 0.05423
2865.97871 0.05411
2864.69295 0.05404
2863.40718 0.05395
2862.12141 0.05375
2860.83564 0.05348
2859.54987 0.05330
2858.26410 0.05332
2856.97833 0.05346
2855.69256 0.05352
2854.40680 0.05334
2853.12103 0.05288
2851.83526 0.05222
2850.54949 0.05151
2849.26372 0.05089
2847.97795 0.05040
2846.69218 0.05000
2845.40641 0.04966
2844.12064 0.04934
2842.83488 0.04895
2841.54911 0.04838
2840.26334 0.04763
2838.97757 0.04690
2837.69180 0.04630
2836.40603 0.04578
2835.12026 0.04520
2833.83449 0.04461
2832.54873 0.04416
2831.26296 0.04394
2829.97719 0.04385
2828.69142 0.04378
2827.40565 0.04362
2826.11988 0.04327
2824.83411 0.04271
2823.54834 0.04214
2822.26257 0.04184
2820.97681 0.04188
2819.69104 0.04205
2818.40527 0.04206
2817.11950 0.04173
2815.83373 0.04114
2814.54796 0.04055
2813.26219 0.04018
2811.97642 0.03998
2810.69066 0.03983
2809.40489 0.03973
2808.11912 0.03979
2806.83335 0.03996
2805.54758 0.04003
2804.26181 0.03992
2802.97604 0.03981
2801.69027 0.03987
2800.40450 0.04009
2799.11874 0.04030
2797.83297 0.04035
2796.54720 0.04022
2795.26143 0.04001
2793.97566 0.03985
2792.68989 0.03974
2791.40412 0.03954
2790.11835 0.03915
2788.83259 0.03865
2787.54682 0.03826
2786.26105 0.03812
2784.97528 0.03818
2783.68951 0.03831
2782.40374 0.03841
2781.11797 0.03851
2779.83220 0.03858
2778.54643 0.03858
2777.26067 0.03853
2775.97490 0.03852
2774.68913 0.03860
2773.40336 0.03870
2772.11759 0.03870
2770.83182 0.03858
2769.54605 0.03842
2768.26028 0.03826
2766.97452 0.03809
2765.68875 0.03795
2764.40298 0.03790
2763.11721 0.03789
2761.83144 0.03783
2760.54567 0.03771
2759.25990 0.03766
2757.97413 0.03773
2756.68836 0.03783
2755.40260 0.03782
2754.11683 0.03766
2752.83106 0.03743
2751.54529 0.03730
2750.25952 0.03739
2748.97375 0.03772
2747.68798 0.03811
2746.40221 0.03827
2745.11645 0.03807
2743.83068 0.03764
2742.54491 0.03721
2741.25914 0.03686
2739.97337 0.03654
2738.68760 0.03622
2737.40183 0.03602
2736.11606 0.03605
2734.83029 0.03624
2733.54453 0.03644
2732.25876 0.03654
2730.97299 0.03651
2729.68722 0.03636
2728.40145 0.03610
2727.11568 0.03582
2725.82991 0.03567
2724.54414 0.03570
2723.25838 0.03587
2721.97261 0.03604
2720.68684 0.03610
2719.40107 0.03603
2718.11530 0.03590
2716.82953 0.03580
2715.54376 0.03572
2714.25799 0.03555
2712.97222 0.03525
2711.68646 0.03491
2710.40069 0.03473
2709.11492 0.03477
2707.82915 0.03491
2706.54338 0.03499
2705.25761 0.03497
2703.97184 0.03491
2702.68607 0.03486
2701.40031 0.03479
2700.11454 0.03470
2698.82877 0.03458
2697.54300 0.03444
2696.25723 0.03430
2694.97146 0.03419
2693.68569 0.03412
2692.39992 0.03407
2691.11415 0.03403
2689.82839 0.03402
2688.54262 0.03404
2687.25685 0.03407
2685.97108 0.03403
2684.68531 0.03388
2683.39954 0.03363
2682.11377 0.03336
2680.82800 0.03309
2679.54224 0.03286
2678.25647 0.03276
2676.97070 0.03294
2675.68493 0.03340
2674.39916 0.03394
2673.11339 0.03423
2671.82762 0.03414
2670.54185 0.03376
2669.25608 0.03337
2667.97032 0.03326
2666.68455 0.03349
2665.39878 0.03389
2664.11301 0.03417
2662.82724 0.03426
2661.54147 0.03424
2660.25570 0.03418
2658.96993 0.03400
2657.68417 0.03371
2656.39840 0.03342
2655.11263 0.03324
2653.82686 0.03312
2652.54109 0.03298
2651.25532 0.03288
2649.96955 0.03287
2648.68378 0.03286
2647.39801 0.03273
2646.11225 0.03250
2644.82648 0.03237
2643.54071 0.03249
2642.25494 0.03279
2640.96917 0.03301
2639.68340 0.03295
2638.39763 0.03254
2637.11186 0.03194
2635.82609 0.03138
2634.54033 0.03104
2633.25456 0.03097
2631.96879 0.03105
2630.68302 0.03116
2629.39725 0.03119
2628.11148 0.03110
2626.82571 0.03093
2625.53994 0.03070
2624.25418 0.03043
2622.96841 0.03012
2621.68264 0.02989
2620.39687 0.02984
2619.11110 0.02992
2617.82533 0.02991
2616.53956 0.02968
2615.25379 0.02935
2613.96802 0.02913
2612.68226 0.02914
2611.39649 0.02930
2610.11072 0.02956
2608.82495 0.02981
2607.53918 0.02989
2606.25341 0.02970
2604.96764 0.02927
2603.68187 0.02877
2602.39611 0.02839
2601.11034 0.02826
2599.82457 0.02839
2598.53880 0.02869
2597.25303 0.02893
2595.96726 0.02899
2594.68149 0.02897
2593.39572 0.02904
2592.10995 0.02916
2590.82419 0.02913
2589.53842 0.02882
2588.25265 0.02834
2586.96688 0.02787
2585.68111 0.02742
2584.39534 0.02690
2583.10957 0.02640
2581.82380 0.02614
2580.53804 0.02622
2579.25227 0.02649
2577.96650 0.02671
2576.68073 0.02673
2575.39496 0.02653
2574.10919 0.02616
2572.82342 0.02581
2571.53765 0.02567
2570.25188 0.02569
2568.96612 0.02568
2567.68035 0.02560
2566.39458 0.02560
2565.10881 0.02574
2563.82304 0.02591
2562.53727 0.02594
2561.25150 0.02588
2559.96573 0.02584
2558.67997 0.02580
2557.39420 0.02573
2556.10843 0.02569
2554.82266 0.02585
2553.53689 0.02617
2552.25112 0.02641
2550.96535 0.02631
2549.67958 0.02596
2548.39381 0.02574
2547.10805 0.02588
2545.82228 0.02621
2544.53651 0.02633
2543.25074 0.02608
2541.96497 0.02565
2540.67920 0.02532
2539.39343 0.02516
2538.10766 0.02516
2536.82190 0.02535
2535.53613 0.02574
2534.25036 0.02614
2532.96459 0.02626
2531.67882 0.02604
2530.39305 0.02574
2529.10728 0.02560
2527.82151 0.02562
2526.53574 0.02558
2525.24998 0.02544
2523.96421 0.02535
2522.67844 0.02542
2521.39267 0.02552
2520.10690 0.02544
2518.82113 0.02514
2517.53536 0.02481
2516.24959 0.02462
2514.96383 0.02455
2513.67806 0.02450
2512.39229 0.02452
2511.10652 0.02474
2509.82075 0.02520
2508.53498 0.02571
2507.24921 0.02605
2505.96344 0.02616
2504.67767 0.02604
2503.39191 0.02563
2502.10614 0.02489
2500.82037 0.02409
2499.53460 0.02368
2498.24883 0.02384
2496.96306 0.02422
2495.67729 0.02435
2494.39152 0.02410
2493.10576 0.02377
2491.81999 0.02372
2490.53422 0.02403
2489.24845 0.02452
2487.96268 0.02488
2486.67691 0.02495
2485.39114 0.02477
2484.10537 0.02453
2482.81960 0.02446
2481.53384 0.02458
2480.24807 0.02472
2478.96230 0.02474
2477.67653 0.02464
2476.39076 0.02450
2475.10499 0.02436
2473.81922 0.02424
2472.53345 0.02416
2471.24769 0.02411
2469.96192 0.02400
2468.67615 0.02386
2467.39038 0.02372
2466.10461 0.02361
2464.81884 0.02348
2463.53307 0.02331
2462.24730 0.02325
2460.96153 0.02345
2459.67577 0.02386
2458.39000 0.02423
2457.10423 0.02435
2455.81846 0.02427
2454.53269 0.02428
2453.24692 0.02457
2451.96115 0.02497
2450.67538 0.02522
2449.38962 0.02524
2448.10385 0.02511
2446.81808 0.02487
2445.53231 0.02447
2444.24654 0.02388
2442.96077 0.02327
2441.67500 0.02291
2440.38923 0.02284
2439.10346 0.02293
2437.81770 0.02305
2436.53193 0.02326
2435.24616 0.02362
2433.96039 0.02396
2432.67462 0.02405
2431.38885 0.02383
2430.10308 0.02349
2428.81731 0.02326
2427.53155 0.02322
2426.24578 0.02325
2424.96001 0.02322
2423.67424 0.02307
2422.38847 0.02277
2421.10270 0.02231
2419.81693 0.02180
2418.53116 0.02141
2417.24539 0.02123
2415.95963 0.02116
2414.67386 0.02115
2413.38809 0.02132
2412.10232 0.02169
2410.81655 0.02198
2409.53078 0.02196
2408.24501 0.02178
2406.95924 0.02181
2405.67347 0.02209
2404.38771 0.02234
2403.10194 0.02236
2401.81617 0.02229
2400.53040 0.02232
2399.24463 0.02242
2397.95886 0.02235
2396.67309 0.02206
2395.38732 0.02172
2394.10156 0.02146
2392.81579 0.02133
2391.53002 0.02132
2390.24425 0.02143
2388.95848 0.02161
2387.67271 0.02182
2386.38694 0.02201
2385.10117 0.02220
2383.81540 0.02243
2382.52964 0.02264
2381.24387 0.02277
2379.95810 0.02279
2378.67233 0.02278
2377.38656 0.02277
2376.10079 0.02263
2374.81502 0.02259
2373.52925 0.02248
2372.24349 0.02227
2370.95772 0.02180
2369.67195 0.02169
2368.38618 0.02185
2367.10041 0.02202
2365.81464 0.02184
2364.52887 0.02199
2363.24310 0.02229
2361.95733 0.02209
2360.67157 0.02067
2359.38580 0.01964
2358.10003 0.01976
2356.81426 0.02082
2355.52849 0.02229
2354.24272 0.02371
2352.95695 0.02451
2351.67118 0.02376
2350.38542 0.02237
2349.09965 0.02224
2347.81388 0.02324
2346.52811 0.02254
2345.24234 0.02100
2343.95657 0.02211
2342.67080 0.02535
2341.38503 0.02496
2340.09926 0.02087
2338.81350 0.02105
2337.52773 0.02568
2336.24196 0.02483
2334.95619 0.01993
2333.67042 0.02116
2332.38465 0.02595
2331.09888 0.02356
2329.81311 0.02076
2328.52735 0.02493
2327.24158 0.02467
2325.95581 0.02182
2324.67004 0.02483
2323.38427 0.02606
2322.09850 0.02358
2320.81273 0.02512
2319.52696 0.02480
2318.24119 0.02282
2316.95543 0.02386
2315.66966 0.02348
2314.38389 0.02240
2313.09812 0.02297
2311.81235 0.02233
2310.52658 0.02222
2309.24081 0.02236
2307.95504 0.02185
2306.66928 0.02209
2305.38351 0.02183
2304.09774 0.02137
2302.81197 0.02107
2301.52620 0.02060
2300.24043 0.02061
2298.95466 0.02070
2297.66889 0.02095
2296.38312 0.02123
2295.09736 0.02131
2293.81159 0.02132
2292.52582 0.02115
2291.24005 0.02101
2289.95428 0.02089
2288.66851 0.02073
2287.38274 0.02044
2286.09697 0.02003
2284.81121 0.01980
2283.52544 0.02001
2282.23967 0.02065
2280.95390 0.02131
2279.66813 0.02157
2278.38236 0.02129
2277.09659 0.02064
2275.81082 0.01988
2274.52505 0.01922
2273.23929 0.01877
2271.95352 0.01847
2270.66775 0.01819
2269.38198 0.01792
2268.09621 0.01766
2266.81044 0.01732
2265.52467 0.01683
2264.23890 0.01646
2262.95314 0.01637
2261.66737 0.01663
2260.38160 0.01731
2259.09583 0.01827
2257.81006 0.01900
2256.52429 0.01908
2255.23852 0.01856
2253.95275 0.01767
2252.66698 0.01680
2251.38122 0.01618
2250.09545 0.01570
2248.80968 0.01522
2247.52391 0.01483
2246.23814 0.01460
2244.95237 0.01476
2243.66660 0.01529
2242.38083 0.01593
2241.09507 0.01648
2239.80930 0.01684
2238.52353 0.01686
2237.23776 0.01645
2235.95199 0.01589
2234.66622 0.01569
2233.38045 0.01599
2232.09468 0.01646
2230.80891 0.01669
2229.52315 0.01659
2228.23738 0.01635
2226.95161 0.01615
2225.66584 0.01600
2224.38007 0.01584
2223.09430 0.01555
2221.80853 0.01511
2220.52276 0.01462
2219.23700 0.01421
2217.95123 0.01395
2216.66546 0.01371
2215.37969 0.01326
2214.09392 0.01257
2212.80815 0.01185
2211.52238 0.01138
2210.23661 0.01120
2208.95084 0.01129
2207.66508 0.01174
2206.37931 0.01256
2205.09354 0.01333
2203.80777 0.01351
2202.52200 0.01301
2201.23623 0.01244
2199.95046 0.01244
2198.66469 0.01311
2197.37893 0.01408
2196.09316 0.01479
2194.80739 0.01476
2193.52162 0.01374
2192.23585 0.01206
2190.95008 0.01054
2189.66431 0.00998
2188.37854 0.01050
2187.09277 0.01149
2185.80701 0.01211
2184.52124 0.01183
2183.23547 0.01066
2181.94970 0.00905
2180.66393 0.00767
2179.37816 0.00712
2178.09239 0.00763
2176.80662 0.00872
2175.52085 0.00956
2174.23509 0.00978
2172.94932 0.00986
2171.66355 0.01041
2170.37778 0.01133
2169.09201 0.01182
2167.80624 0.01126
2166.52047 0.00980
2165.23470 0.00827
2163.94894 0.00746
2162.66317 0.00756
2161.37740 0.00810
2160.09163 0.00843
2158.80586 0.00822
2157.52009 0.00769
2156.23432 0.00712
2154.94855 0.00645
2153.66278 0.00541
2152.37702 0.00420
2151.09125 0.00359
2149.80548 0.00419
2148.51971 0.00582
2147.23394 0.00768
2145.94817 0.00909
2144.66240 0.00986
2143.37663 0.01017
2142.09087 0.01020
2140.80510 0.01009
2139.51933 0.00992
2138.23356 0.00970
2136.94779 0.00948
2135.66202 0.00929
2134.37625 0.00915
2133.09048 0.00902
2131.80471 0.00899
2130.51895 0.00924
2129.23318 0.00990
2127.94741 0.01079
2126.66164 0.01151
2125.37587 0.01165
2124.09010 0.01123
2122.80433 0.01066
2121.51856 0.01042
2120.23280 0.01060
2118.94703 0.01097
2117.66126 0.01130
2116.37549 0.01162
2115.08972 0.01208
2113.80395 0.01268
2112.51818 0.01315
2111.23241 0.01317
2109.94664 0.01258
2108.66088 0.01153
2107.37511 0.01049
2106.08934 0.00995
2104.80357 0.01004
2103.51780 0.01052
2102.23203 0.01096
2100.94626 0.01115
2099.66049 0.01258
2098.37473 0.01298
2097.08896 0.01246
2095.80319 0.01172
2094.51742 0.01101
2093.23165 0.01048
2091.94588 0.01028
2090.66011 0.01039
2089.37434 0.01067
2088.08857 0.01102
2086.80281 0.01142
2085.51704 0.01194
2084.23127 0.01254
2082.94550 0.01299
2081.65973 0.01293
2080.37396 0.01221
2079.08819 0.01108
2077.80242 0.01006
2076.51666 0.00954
2075.23089 0.00957
2073.94512 0.01005
2072.65935 0.01075
2071.37358 0.01131
2070.08781 0.01138
2068.80204 0.01095
2067.51627 0.01037
2066.23050 0.00995
2064.94474 0.00962
2063.65897 0.00915
2062.37320 0.00856
2061.08743 0.00813
2059.80166 0.00804
2058.51589 0.00811
2057.23012 0.00807
2055.94435 0.00788
2054.65859 0.00780
2053.37282 0.00807
2052.08705 0.00861
2050.80128 0.00913
2049.51551 0.00940
2048.22974 0.00932
2046.94397 0.00875
2045.65820 0.00764
2044.37243 0.00631
2043.08667 0.00527
2041.80090 0.00472
2040.51513 0.00443
2039.22936 0.00427
2037.94359 0.00449
2036.65782 0.00538
2035.37205 0.00664
2034.08628 0.00758
2032.80052 0.00773
2031.51475 0.00735
2030.22898 0.00706
2028.94321 0.00706
2027.65744 0.00696
2026.37167 0.00635
2025.08590 0.00549
2023.80013 0.00503
2022.51436 0.00515
2021.22860 0.00535
2019.94283 0.00500
2018.65706 0.00398
2017.37129 0.00272
2016.08552 0.00191
2014.79975 0.00208
2013.51398 0.00325
2012.22821 0.00496
2010.94245 0.00660
2009.65668 0.00786
2008.37091 0.00871
2007.08514 0.00911
2005.79937 0.00898
2004.51360 0.00840
2003.22783 0.00770
2001.94206 0.00711
2000.65629 0.00658
1999.37053 0.00594
1998.08476 0.00534
1996.79899 0.00532
1995.51322 0.00614
1994.22745 0.00741
1992.94168 0.00838
1991.65591 0.00875
1990.37014 0.00874
1989.08438 0.00856
1987.79861 0.00807
1986.51284 0.00723
1985.22707 0.00651
1983.94130 0.00670
1982.65553 0.00810
1981.36976 0.01034
1980.08399 0.01267
1978.79822 0.01443
1977.51246 0.01519
1976.22669 0.01481
1974.94092 0.01358
1973.65515 0.01212
1972.36938 0.01113
1971.08361 0.01090
1969.79784 0.01119
1968.51207 0.01155
1967.22631 0.01170
1965.94054 0.01163
1964.65477 0.01140
1963.36900 0.01096
1962.08323 0.01037
1960.79746 0.00990
1959.51169 0.00979
1958.22592 0.01001
1956.94015 0.01033
1955.65439 0.01056
1954.36862 0.01074
1953.08285 0.01088
1951.79708 0.01092
1950.51131 0.01087
1949.22554 0.01100
1947.93977 0.01157
1946.65400 0.01249
1945.36823 0.01340
1944.08247 0.01404
1942.79670 0.01441
1941.51093 0.01456
1940.22516 0.01444
1938.93939 0.01395
1937.65362 0.01318
1936.36785 0.01241
1935.08208 0.01190
1933.79632 0.01169
1932.51055 0.01170
1931.22478 0.01188
1929.93901 0.01216
1928.65324 0.01237
1927.36747 0.01232
1926.08170 0.01204
1924.79593 0.01174
1923.51016 0.01160
1922.22440 0.01161
1920.93863 0.01171
1919.65286 0.01186
1918.36709 0.01208
1917.08132 0.01245
1915.79555 0.01296
1914.50978 0.01342
1913.22401 0.01353
1911.93825 0.01315
1910.65248 0.01248
1909.36671 0.01187
1908.08094 0.01156
1906.79517 0.01155
1905.50940 0.01180
1904.22363 0.01221
1902.93786 0.01262
1901.65209 0.01277
1900.36633 0.01255
1899.08056 0.01214
1897.79479 0.01189
1896.50902 0.01201
1895.22325 0.01242
1893.93748 0.01294
1892.65171 0.01341
1891.36594 0.01368
1890.08018 0.01364
1888.79441 0.01333
1887.50864 0.01297
1886.22287 0.01282
1884.93710 0.01295
1883.65133 0.01325
1882.36556 0.01351
1881.07979 0.01361
1879.79402 0.01359
1878.50826 0.01357
1877.22249 0.01360
1875.93672 0.01361
1874.65095 0.01351
1873.36518 0.01334
1872.07941 0.01321
1870.79364 0.01325
1869.50787 0.01343
1868.22211 0.01360
1866.93634 0.01364
1865.65057 0.01348
1864.36480 0.01321
1863.07903 0.01300
1861.79326 0.01301
1860.50749 0.01326
1859.22172 0.01359
1857.93595 0.01385
1856.65019 0.01399
1855.36442 0.01403
1854.07865 0.01394
1852.79288 0.01370
1851.50711 0.01341
1850.22134 0.01325
1848.93557 0.01332
1847.64980 0.01353
1846.36404 0.01369
1845.07827 0.01373
1843.79250 0.01369
1842.50673 0.01363
1841.22096 0.01354
1839.93519 0.01341
1838.64942 0.01325
1837.36365 0.01310
1836.07788 0.01300
1834.79212 0.01306
1833.50635 0.01331
1832.22058 0.01372
1830.93481 0.01415
1829.64904 0.01445
1828.36327 0.01457
1827.07750 0.01457
1825.79173 0.01455
1824.50597 0.01460
1823.22020 0.01469
1821.93443 0.01476
1820.64866 0.01478
1819.36289 0.01473
1818.07712 0.01456
1816.79135 0.01423
1815.50558 0.01384
1814.21981 0.01352
1812.93405 0.01333
1811.64828 0.01325
1810.36251 0.01321
1809.07674 0.01322
1807.79097 0.01330
1806.50520 0.01345
1805.21943 0.01365
1803.93366 0.01382
1802.64790 0.01394
1801.36213 0.01400
1800.07636 0.01405
1798.79059 0.01409
1797.50482 0.01410
1796.21905 0.01413
1794.93328 0.01421
1793.64751 0.01435
1792.36174 0.01449
1791.07598 0.01459
1789.79021 0.01467
1788.50444 0.01479
1787.21867 0.01497
1785.93290 0.01514
1784.64713 0.01526
1783.36136 0.01530
1782.07559 0.01529
1780.78983 0.01524
1779.50406 0.01516
1778.21829 0.01506
1776.93252 0.01500
1775.64675 0.01502
1774.36098 0.01511
1773.07521 0.01521
1771.78944 0.01530
1770.50367 0.01535
1769.21791 0.01534
1767.93214 0.01531
1766.64637 0.01532
1765.36060 0.01534
1764.07483 0.01537
1762.78906 0.01542
1761.50329 0.01550
1760.21752 0.01562
1758.93176 0.01573
1757.64599 0.01584
1756.36022 0.01599
1755.07445 0.01620
1753.78868 0.01639
1752.50291 0.01647
1751.21714 0.01646
1749.93137 0.01640
1748.64560 0.01632
1747.35984 0.01626
1746.07407 0.01625
1744.78830 0.01634
1743.50253 0.01651
1742.21676 0.01668
1740.93099 0.01676
1739.64522 0.01678
1738.35945 0.01687
1737.07369 0.01708
1735.78792 0.01734
1734.50215 0.01753
1733.21638 0.01758
1731.93061 0.01752
1730.64484 0.01744
1729.35907 0.01745
1728.07330 0.01759
1726.78753 0.01777
1725.50177 0.01793
1724.21600 0.01809
1722.93023 0.01831
1721.64446 0.01866
1720.35869 0.01910
1719.07292 0.01952
1717.78715 0.01987
1716.50138 0.02012
1715.21561 0.02030
1713.92985 0.02044
1712.64408 0.02059
1711.35831 0.02081
1710.07254 0.02113
1708.78677 0.02150
1707.50100 0.02187
1706.21523 0.02218
1704.92946 0.02251
1703.64370 0.02290
1702.35793 0.02333
1701.07216 0.02377
1699.78639 0.02420
1698.50062 0.02454
1697.21485 0.02468
1695.92908 0.02466
1694.64331 0.02462
1693.35754 0.02462
1692.07178 0.02466
1690.78601 0.02483
1689.50024 0.02517
1688.21447 0.02567
1686.92870 0.02617
1685.64293 0.02657
1684.35716 0.02681
1683.07139 0.02691
1681.78563 0.02689
1680.49986 0.02683
1679.21409 0.02687
1677.92832 0.02701
1676.64255 0.02724
1675.35678 0.02753
1674.07101 0.02787
1672.78524 0.02819
1671.49947 0.02839
1670.21371 0.02845
1668.92794 0.02844
1667.64217 0.02845
1666.35640 0.02860
1665.07063 0.02890
1663.78486 0.02925
1662.49909 0.02955
1661.21332 0.02974
1659.92756 0.02987
1658.64179 0.03004
1657.35602 0.03039
1656.07025 0.03090
1654.78448 0.03142
1653.49871 0.03181
1652.21294 0.03199
1650.92717 0.03198
1649.64140 0.03187
1648.35564 0.03178
1647.06987 0.03175
1645.78410 0.03173
1644.49833 0.03168
1643.21256 0.03163
1641.92679 0.03169
1640.64102 0.03189
1639.35525 0.03220
1638.06949 0.03251
1636.78372 0.03274
1635.49795 0.03287
1634.21218 0.03291
1632.92641 0.03290
1631.64064 0.03289
1630.35487 0.03295
1629.06910 0.03310
1627.78333 0.03329
1626.49757 0.03347
1625.21180 0.03360
1623.92603 0.03370
1622.64026 0.03379
1621.35449 0.03394
1620.06872 0.03419
1618.78295 0.03449
1617.49718 0.03478
1616.21142 0.03498
1614.92565 0.03506
1613.63988 0.03505
1612.35411 0.03507
1611.06834 0.03519
1609.78257 0.03541
1608.49680 0.03562
1607.21103 0.03579
1605.92526 0.03594
1604.63950 0.03610
1603.35373 0.03628
1602.06796 0.03645
1600.78219 0.03660
1599.49642 0.03673
1598.21065 0.03684
1596.92488 0.03693
1595.63911 0.03701
1594.35335 0.03711
1593.06758 0.03724
1591.78181 0.03740
1590.49604 0.03751
1589.21027 0.03753
1587.92450 0.03750
1586.63873 0.03748
1585.35296 0.03754
1584.06719 0.03769
1582.78143 0.03791
1581.49566 0.03818
1580.20989 0.03849
1578.92412 0.03879
1577.63835 0.03898
1576.35258 0.03904
1575.06681 0.03904
1573.78104 0.03901
1572.49528 0.03901
1571.20951 0.03907
1569.92374 0.03917
1568.63797 0.03925
1567.35220 0.03928
1566.06643 0.03928
1564.78066 0.03937
1563.49489 0.03964
1562.20912 0.04005
1560.92336 0.04047
1559.63759 0.04076
1558.35182 0.04086
1557.06605 0.04078
1555.78028 0.04062
1554.49451 0.04050
1553.20874 0.04050
1551.92297 0.04055
1550.63721 0.04058
1549.35144 0.04059
1548.06567 0.04063
1546.77990 0.04074
1545.49413 0.04093
1544.20836 0.04117
1542.92259 0.04144
1541.63682 0.04163
1540.35105 0.04168
1539.06529 0.04158
1537.77952 0.04141
1536.49375 0.04126
1535.20798 0.04120
1533.92221 0.04128
1532.63644 0.04149
1531.35067 0.04177
1530.06490 0.04212
1528.77914 0.04256
1527.49337 0.04309
1526.20760 0.04375
1524.92183 0.04451
1523.63606 0.04529
1522.35029 0.04605
1521.06452 0.04680
1519.77875 0.04759
1518.49298 0.04842
1517.20722 0.04930
1515.92145 0.05024
1514.63568 0.05125
1513.34991 0.05230
1512.06414 0.05343
1510.77837 0.05467
1509.49260 0.05602
1508.20683 0.05738
1506.92107 0.05861
1505.63530 0.05965
1504.34953 0.06051
1503.06376 0.06127
1501.77799 0.06206
1500.49222 0.06294
1499.20645 0.06383
1497.92068 0.06464
1496.63491 0.06534
1495.34915 0.06596
1494.06338 0.06655
1492.77761 0.06718
1491.49184 0.06790
1490.20607 0.06874
1488.92030 0.06966
1487.63453 0.07058
1486.34876 0.07149
1485.06299 0.07244
1483.77723 0.07345
1482.49146 0.07452
1481.20569 0.07565
1479.91992 0.07682
1478.63415 0.07798
1477.34838 0.07912
1476.06261 0.08020
1474.77684 0.08117
1473.49108 0.08196
1472.20531 0.08259
1470.91954 0.08311
1469.63377 0.08357
1468.34800 0.08402
1467.06223 0.08445
1465.77646 0.08483
1464.49069 0.08516
1463.20492 0.08548
1461.91916 0.08585
1460.63339 0.08634
1459.34762 0.08692
1458.06185 0.08748
1456.77608 0.08791
1455.49031 0.08816
1454.20454 0.08825
1452.91877 0.08824
1451.63301 0.08822
1450.34724 0.08819
1449.06147 0.08811
1447.77570 0.08797
1446.48993 0.08778
1445.20416 0.08756
1443.91839 0.08731
1442.63262 0.08703
1441.34685 0.08677
1440.06109 0.08656
1438.77532 0.08644
1437.48955 0.08643
1436.20378 0.08656
1434.91801 0.08688
1433.63224 0.08742
1432.34647 0.08817
1431.06070 0.08912
1429.77494 0.09024
1428.48917 0.09152
1427.20340 0.09290
1425.91763 0.09436
1424.63186 0.09586
1423.34609 0.09736
1422.06032 0.09880
1420.77455 0.10009
1419.48878 0.10117
1418.20302 0.10202
1416.91725 0.10265
1415.63148 0.10305
1414.34571 0.10328
1413.05994 0.10335
1411.77417 0.10325
1410.48840 0.10296
1409.20263 0.10246
1407.91687 0.10176
1406.63110 0.10087
1405.34533 0.09978
1404.05956 0.09850
1402.77379 0.09705
1401.48802 0.09544
1400.20225 0.09371
1398.91648 0.09190
1397.63071 0.09002
1396.34495 0.08806
1395.05918 0.08605
1393.77341 0.08404
1392.48764 0.08208
1391.20187 0.08018
1389.91610 0.07835
1388.63033 0.07656
1387.34456 0.07480
1386.05880 0.07304
1384.77303 0.07128
1383.48726 0.06953
1382.20149 0.06783
1380.91572 0.06618
1379.62995 0.06456
1378.34418 0.06290
1377.05841 0.06115
1375.77264 0.05925
1374.48688 0.05727
1373.20111 0.05528
1371.91534 0.05336
1370.62957 0.05155
1369.34380 0.04988
1368.05803 0.04833
1366.77226 0.04689
1365.48649 0.04552
1364.20073 0.04418
1362.91496 0.04289
1361.62919 0.04168
1360.34342 0.04054
1359.05765 0.03944
1357.77188 0.03840
1356.48611 0.03742
1355.20034 0.03653
1353.91457 0.03573
1352.62881 0.03502
1351.34304 0.03439
1350.05727 0.03380
1348.77150 0.03321
1347.48573 0.03259
1346.19996 0.03198
1344.91419 0.03141
1343.62842 0.03091
1342.34266 0.03049
1341.05689 0.03010
1339.77112 0.02972
1338.48535 0.02933
1337.19958 0.02893
1335.91381 0.02856
1334.62804 0.02824
1333.34227 0.02794
1332.05650 0.02764
1330.77074 0.02730
1329.48497 0.02696
1328.19920 0.02667
1326.91343 0.02648
1325.62766 0.02634
1324.34189 0.02618
1323.05612 0.02596
1321.77035 0.02569
1320.48459 0.02540
1319.19882 0.02514
1317.91305 0.02495
1316.62728 0.02481
1315.34151 0.02470
1314.05574 0.02461
1312.76997 0.02450
1311.48420 0.02436
1310.19843 0.02421
1308.91267 0.02407
1307.62690 0.02396
1306.34113 0.02385
1305.05536 0.02372
1303.76959 0.02355
1302.48382 0.02336
1301.19805 0.02318
1299.91228 0.02304
1298.62652 0.02292
1297.34075 0.02278
1296.05498 0.02262
1294.76921 0.02245
1293.48344 0.02230
1292.19767 0.02219
1290.91190 0.02210
1289.62613 0.02200
1288.34036 0.02188
1287.05460 0.02173
1285.76883 0.02158
1284.48306 0.02143
1283.19729 0.02129
1281.91152 0.02115
1280.62575 0.02102
1279.33998 0.02092
1278.05421 0.02085
1276.76845 0.02079
1275.48268 0.02070
1274.19691 0.02057
1272.91114 0.02044
1271.62537 0.02033
1270.33960 0.02023
1269.05383 0.02014
1267.76806 0.02005
1266.48229 0.01999
1265.19653 0.01997
1263.91076 0.01995
1262.62499 0.01990
1261.33922 0.01979
1260.05345 0.01964
1258.76768 0.01950
1257.48191 0.01939
1256.19614 0.01934
1254.91037 0.01932
1253.62461 0.01931
1252.33884 0.01927
1251.05307 0.01921
1249.76730 0.01914
1248.48153 0.01910
1247.19576 0.01906
1245.90999 0.01902
1244.62422 0.01895
1243.33846 0.01886
1242.05269 0.01878
1240.76692 0.01872
1239.48115 0.01868
1238.19538 0.01864
1236.90961 0.01859
1235.62384 0.01852
1234.33807 0.01845
1233.05230 0.01838
1231.76654 0.01832
1230.48077 0.01827
1229.19500 0.01823
1227.90923 0.01818
1226.62346 0.01815
1225.33769 0.01813
1224.05192 0.01811
1222.76615 0.01811
1221.48039 0.01813
1220.19462 0.01817
1218.90885 0.01823
1217.62308 0.01826
1216.33731 0.01821
1215.05154 0.01808
1213.76577 0.01793
1212.48000 0.01782
1211.19423 0.01780
1209.90847 0.01785
1208.62270 0.01789
1207.33693 0.01791
1206.05116 0.01790
1204.76539 0.01787
1203.47962 0.01786
1202.19385 0.01786
1200.90808 0.01779
1199.62232 0.01763
1198.33655 0.01774
1197.05078 0.01786
1195.76501 0.01791
1194.47924 0.01787
1193.19347 0.01781
1191.90770 0.01777
1190.62193 0.01776
1189.33616 0.01772
1188.05040 0.01767
1186.76463 0.01768
1185.47886 0.01775
1184.19309 0.01787
1182.90732 0.01796
1181.62155 0.01801
1180.33578 0.01802
1179.05001 0.01801
1177.76425 0.01803
1176.47848 0.01807
1175.19271 0.01814
1173.90694 0.01824
1172.62117 0.01840
1171.33540 0.01864
1170.04963 0.01889
1168.76386 0.01908
1167.47809 0.01921
1166.19233 0.01935
1164.90656 0.01952
1163.62079 0.01972
1162.33502 0.01990
1161.04925 0.02007
1159.76348 0.02028
1158.47771 0.02057
1157.19194 0.02095
1155.90618 0.02135
1154.62041 0.02172
1153.33464 0.02206
1152.04887 0.02243
1150.76310 0.02286
1149.47733 0.02336
1148.19156 0.02389
1146.90579 0.02444
1145.62002 0.02504
1144.33426 0.02571
1143.04849 0.02651
1141.76272 0.02743
1140.47695 0.02845
1139.19118 0.02950
1137.90541 0.03056
1136.61964 0.03168
1135.33387 0.03295
1134.04811 0.03445
1132.76234 0.03621
1131.47657 0.03822
1130.19080 0.04050
1128.90503 0.04301
1127.61926 0.04569
1126.33349 0.04848
1125.04772 0.05137
1123.76195 0.05439
1122.47619 0.05757
1121.19042 0.06090
1119.90465 0.06434
1118.61888 0.06785
1117.33311 0.07135
1116.04734 0.07483
1114.76157 0.07829
1113.47580 0.08169
1112.19004 0.08500
1110.90427 0.08822
1109.61850 0.09138
1108.33273 0.09449
1107.04696 0.09754
1105.76119 0.10053
1104.47542 0.10345
1103.18965 0.10631
1101.90388 0.10912
1100.61812 0.11187
1099.33235 0.11453
1098.04658 0.11704
1096.76081 0.11936
1095.47504 0.12149
1094.18927 0.12347
1092.90350 0.12537
1091.61773 0.12717
1090.33197 0.12887
1089.04620 0.13053
1087.76043 0.13225
1086.47466 0.13406
1085.18889 0.13591
1083.90312 0.13778
1082.61735 0.13974
1081.33158 0.14188
1080.04581 0.14422
1078.76005 0.14669
1077.47428 0.14920
1076.18851 0.15174
1074.90274 0.15435
1073.61697 0.15710
1072.33120 0.15996
1071.04543 0.16289
1069.75966 0.16588
1068.47390 0.16896
1067.18813 0.17212
1065.90236 0.17532
1064.61659 0.17853
1063.33082 0.18179
1062.04505 0.18514
1060.75928 0.18853
1059.47351 0.19186
1058.18774 0.19504
1056.90198 0.19806
1055.61621 0.20102
1054.33044 0.20401
1053.04467 0.20708
1051.75890 0.21025
1050.47313 0.21354
1049.18736 0.21694
1047.90159 0.22045
1046.61583 0.22404
1045.33006 0.22768
1044.04429 0.23137
1042.75852 0.23510
1041.47275 0.23888
1040.18698 0.24272
1038.90121 0.24663
1037.61544 0.25057
1036.32967 0.25441
1035.04391 0.25803
1033.75814 0.26138
1032.47237 0.26449
1031.18660 0.26734
1029.90083 0.26987
1028.61506 0.27204
1027.32929 0.27388
1026.04352 0.27543
1024.75775 0.27663
1023.47199 0.27732
1022.18622 0.27741
1020.90045 0.27690
1019.61468 0.27589
1018.32891 0.27442
1017.04314 0.27253
1015.75737 0.27020
1014.47160 0.26741
1013.18584 0.26409
1011.90007 0.26019
1010.61430 0.25576
1009.32853 0.25087
1008.04276 0.24557
1006.75699 0.23986
1005.47122 0.23368
1004.18545 0.22702
1002.89968 0.21996
1001.61392 0.21264
1000.32815 0.20518
999.04238 0.19765
997.75661 0.19007
996.47084 0.18247
995.18507 0.17491
993.89930 0.16744
992.61353 0.16012
991.32777 0.15300
990.04200 0.14617
988.75623 0.13970
987.47046 0.13363
986.18469 0.12790
984.89892 0.12247
983.61315 0.11728
982.32738 0.11239
981.04161 0.10789
979.75585 0.10386
978.47008 0.10031
977.18431 0.09721
975.89854 0.09454
974.61277 0.09226
973.32700 0.09037
972.04123 0.08888
970.75546 0.08789
969.46970 0.08748
968.18393 0.08771
966.89816 0.08848
965.61239 0.08959
964.32662 0.09073
963.04085 0.09156
961.75508 0.09186
960.46931 0.09150
959.18354 0.09044
957.89778 0.08877
956.61201 0.08665
955.32624 0.08431
954.04047 0.08191
952.75470 0.07950
951.46893 0.07710
950.18316 0.07476
948.89739 0.07253
947.61163 0.07039
946.32586 0.06827
945.04009 0.06618
943.75432 0.06418
942.46855 0.06236
941.18278 0.06070
939.89701 0.05910
938.61124 0.05754
937.32547 0.05606
936.03971 0.05471
934.75394 0.05353
933.46817 0.05252
932.18240 0.05166
930.89663 0.05088
929.61086 0.05008
928.32509 0.04919
927.03932 0.04821
925.75356 0.04723
924.46779 0.04633
923.18202 0.04559
921.89625 0.04504
920.61048 0.04465
919.32471 0.04433
918.03894 0.04400
916.75317 0.04363
915.46740 0.04320
914.18164 0.04272
912.89587 0.04221
911.61010 0.04171
910.32433 0.04124
909.03856 0.04077
907.75279 0.04033
906.46702 0.03994
905.18125 0.03967
903.89549 0.03945
902.60972 0.03920
901.32395 0.03889
900.03818 0.03859
898.75241 0.03844
897.46664 0.03841
896.18087 0.03840
894.89510 0.03835
893.60933 0.03830
892.32357 0.03828
891.03780 0.03832
889.75203 0.03848
888.46626 0.03887
887.18049 0.03964
885.89472 0.04094
884.60895 0.04285
883.32318 0.04532
882.03742 0.04810
880.75165 0.05081
879.46588 0.05315
878.18011 0.05503
876.89434 0.05660
875.60857 0.05812
874.32280 0.05964
873.03703 0.06090
871.75126 0.06151
870.46550 0.06118
869.17973 0.05987
867.89396 0.05778
866.60819 0.05530
865.32242 0.05278
864.03665 0.05042
862.75088 0.04820
861.46511 0.04612
860.17935 0.04422
858.89358 0.04260
857.60781 0.04132
856.32204 0.04037
855.03627 0.03968
853.75050 0.03913
852.46473 0.03862
851.17896 0.03810
849.89319 0.03758
848.60743 0.03711
847.32166 0.03670
846.03589 0.03634
844.75012 0.03600
843.46435 0.03572
842.17858 0.03551
840.89281 0.03534
839.60704 0.03513
838.32128 0.03490
837.03551 0.03472
835.74974 0.03461
834.46397 0.03452
833.17820 0.03438
831.89243 0.03412
830.60666 0.03378
829.32089 0.03344
828.03512 0.03321
826.74936 0.03316
825.46359 0.03326
824.17782 0.03338
822.89205 0.03344
821.60628 0.03340
820.32051 0.03331
819.03474 0.03318
817.74897 0.03306
816.46321 0.03294
815.17744 0.03284
813.89167 0.03274
812.60590 0.03265
811.32013 0.03257
810.03436 0.03251
808.74859 0.03247
807.46282 0.03247
806.17705 0.03252
804.89129 0.03257
803.60552 0.03257
802.31975 0.03247
801.03398 0.03229
799.74821 0.03208
798.46244 0.03190
797.17667 0.03181
795.89090 0.03184
794.60513 0.03195
793.31937 0.03208
792.03360 0.03216
790.74783 0.03217
789.46206 0.03209
788.17629 0.03192
786.89052 0.03172
785.60475 0.03159
784.31898 0.03161
783.03322 0.03175
781.74745 0.03190
780.46168 0.03198
779.17591 0.03202
777.89014 0.03208
776.60437 0.03214
775.31860 0.03218
774.03283 0.03215
772.74706 0.03208
771.46130 0.03201
770.17553 0.03194
768.88976 0.03189
767.60399 0.03187
766.31822 0.03187
765.03245 0.03186
763.74668 0.03183
762.46091 0.03183
761.17515 0.03193
759.88938 0.03212
758.60361 0.03229
757.31784 0.03235
756.03207 0.03229
754.74630 0.03220
753.46053 0.03216
752.17476 0.03212
750.88899 0.03202
749.60323 0.03184
748.31746 0.03165
747.03169 0.03149
745.74592 0.03140
744.46015 0.03140
743.17438 0.03152
741.88861 0.03169
740.60284 0.03185
739.31708 0.03189
738.03131 0.03180
736.74554 0.03164
735.45977 0.03151
734.17400 0.03147
732.88823 0.03145
731.60246 0.03139
730.31669 0.03131
729.03092 0.03128
727.74516 0.03132
726.45939 0.03138
725.17362 0.03140
723.88785 0.03144
722.60208 0.03144
721.31631 0.03145
720.03054 0.03147
718.74477 0.03144
717.45901 0.03138
716.17324 0.03129
714.88747 0.03122
713.60170 0.03117
712.31593 0.03116
711.03016 0.03119
709.74439 0.03123
708.45862 0.03126
707.17285 0.03125
705.88709 0.03123
704.60132 0.03119
703.31555 0.03112
702.02978 0.03102
700.74401 0.03091
699.45824 0.03080
698.17247 0.03071
696.88670 0.03064
695.60094 0.03057
694.31517 0.03051
693.02940 0.03048
691.74363 0.03046
690.45786 0.03043
689.17209 0.03036
687.88632 0.03028
686.60055 0.03023
685.31478 0.03019
684.02902 0.03006
682.74325 0.02982
681.45748 0.02954
680.17171 0.02938
678.88594 0.02937
677.60017 0.02943
676.31440 0.02952
675.02863 0.02968
673.74287 0.02995
672.45710 0.03021
671.17133 0.03025
669.88556 0.03006
668.59979 0.03020
667.31402 0.03041
666.02825 0.02992
664.74248 0.02981
663.45671 0.02962
662.17095 0.02931
660.88518 0.02906
659.59941 0.02890
658.31364 0.02882
657.02787 0.02878
655.74210 0.02883
654.45633 0.02894
653.17056 0.02908
651.88480 0.02914
650.59903 0.02911
649.31326 0.02903
648.02749 0.02896
646.74172 0.02897
645.45595 0.02905
644.17018 0.02915
642.88441 0.02928
641.59864 0.02946
640.31288 0.02968
639.02711 0.02995
637.74134 0.03022
636.45557 0.03048
635.16980 0.03078
633.88403 0.03116
632.59826 0.03156
631.31249 0.03216
630.02673 0.03381
628.74096 0.03608
627.45519 0.03551
626.16942 0.03827
624.88365 0.04337
623.59788 0.04869
622.31211 0.05373
621.02634 0.05788
619.74057 0.05982
618.45481 0.05898
617.16904 0.05682
615.88327 0.05597
614.59750 0.05821
613.31173 0.06358
612.02596 0.07074
610.74019 0.07805
609.45442 0.08444
608.16866 0.08987
606.88289 0.09477
605.59712 0.09915
604.31135 0.10233
603.02558 0.10359
601.73981 0.10281
600.45404 0.10051
599.16827 0.09745
597.88250 0.09422
596.59674 0.09112
595.31097 0.08829
594.02520 0.08582
592.73943 0.08379
591.45366 0.08231
590.16789 0.08146
588.88212 0.08126
587.59635 0.08169
586.31059 0.08270
585.02482 0.08423
583.73905 0.08620
582.45328 0.08851
581.16751 0.09105
579.88174 0.09369
578.59597 0.09633
577.31020 0.09891
576.02443 0.10138
574.73867 0.10373
573.45290 0.10598
572.16713 0.10830
570.88136 0.11093
569.59559 0.11414
568.30982 0.11795
567.02405 0.12213
565.73828 0.12621
564.45251 0.12961
563.16675 0.13181
561.88098 0.13236
560.59521 0.13092
559.30944 0.12746
558.02367 0.12234
556.73790 0.11619
555.45213 0.10960
554.16636 0.10295
552.88060 0.09644
551.59483 0.09023
550.30906 0.08456
549.02329 0.07955
547.73752 0.07519
546.45175 0.07136
545.16598 0.06792
543.88021 0.06476
542.59444 0.06185
541.30868 0.05924
540.02291 0.05698
538.73714 0.05510
537.45137 0.05354
536.16560 0.05213
534.87983 0.05076
533.59406 0.04936
532.30829 0.04799
531.02253 0.04673
529.73676 0.04562
528.45099 0.04458
527.16522 0.04354
525.87945 0.04249
524.59368 0.04152
523.30791 0.04067
522.02214 0.03992
520.73637 0.03920
519.45061 0.03849
518.16484 0.03783
516.87907 0.03725
515.59330 0.03671
514.30753 0.03614
513.02176 0.03558
511.73599 0.03510
510.45022 0.03468
509.16446 0.03428
507.87869 0.03380
506.59292 0.03329
505.30715 0.03278
504.02138 0.03231
502.73561 0.03187
501.44984 0.03145
500.16407 0.03106
498.87830 0.03072
497.59254 0.03045
496.30677 0.03025
495.02100 0.03013
493.73523 0.03008
492.44946 0.03004
491.16369 0.02993
489.87792 0.02971
488.59215 0.02944
487.30639 0.02925
486.02062 0.02924
484.73485 0.02938
483.44908 0.02960
482.16331 0.02980
480.87754 0.02994
479.59177 0.03004
478.30600 0.03019
477.02023 0.03043
475.73447 0.03075
474.44870 0.03107
473.16293 0.03134
471.87716 0.03150
470.59139 0.03153
469.30562 0.03144
468.01985 0.03129
466.73408 0.03117
465.44832 0.03109
464.16255 0.03099
462.87678 0.03080
461.59101 0.03051
460.30524 0.03017
459.01947 0.02983
457.73370 0.02951
456.44793 0.02920
455.16216 0.02891
453.87640 0.02865
452.59063 0.02844
451.30486 0.02827
450.01909 0.02812
448.73332 0.02793
447.44755 0.02771
446.16178 0.02752
444.87601 0.02740
443.59025 0.02733
442.30448 0.02722
441.01871 0.02705
439.73294 0.02688
438.44717 0.02676
437.16140 0.02673
435.87563 0.02673
434.58986 0.02676
433.30409 0.02677
432.01833 0.02674
430.73256 0.02665
429.44679 0.02653
428.16102 0.02642
426.87525 0.02633
425.58948 0.02628
424.30371 0.02623
423.01794 0.02615
421.73218 0.02604
420.44641 0.02591
419.16064 0.02579
417.87487 0.02568
416.58910 0.02560
415.30333 0.02557
414.01756 0.02559
412.73179 0.02561
411.44602 0.02559
410.16026 0.02553
408.87449 0.02545
407.58872 0.02540
406.30295 0.02541
405.01718 0.02548
403.73141 0.02561
402.44564 0.02578
401.15987 0.02596
399.87411 0.02617
