3997.45528	0.04463
3996.16951	0.04430
3994.88374	0.04400
3993.59798	0.04372
3992.31221	0.04349
3991.02644	0.04325
3989.74067	0.04298
3988.45490	0.04276
3987.16913	0.04278
3985.88336	0.04300
3984.59759	0.04320
3983.31183	0.04318
3982.02606	0.04310
3980.74029	0.04316
3979.45452	0.04339
3978.16875	0.04363
3976.88298	0.04380
3975.59721	0.04395
3974.31144	0.04409
3973.02567	0.04421
3971.73991	0.04433
3970.45414	0.04446
3969.16837	0.04457
3967.88260	0.04461
3966.59683	0.04461
3965.31106	0.04457
3964.02529	0.04442
3962.73952	0.04417
3961.45376	0.04391
3960.16799	0.04375
3958.88222	0.04362
3957.59645	0.04348
3956.31068	0.04348
3955.02491	0.04384
3953.73914	0.04450
3952.45337	0.04510
3951.16760	0.04531
3949.88184	0.04516
3948.59607	0.04507
3947.31030	0.04533
3946.02453	0.04585
3944.73876	0.04630
3943.45299	0.04657
3942.16722	0.04693
3940.88145	0.04748
3939.59569	0.04792
3938.30992	0.04782
3937.02415	0.04705
3935.73838	0.04584
3934.45261	0.04445
3933.16684	0.04309
3931.88107	0.04207
3930.59530	0.04177
3929.30953	0.04227
3928.02377	0.04319
3926.73800	0.04397
3925.45223	0.04441
3924.16646	0.04470
3922.88069	0.04502
3921.59492	0.04518
3920.30915	0.04483
3919.02338	0.04385
3917.73762	0.04256
3916.45185	0.04160
3915.16608	0.04146
3913.88031	0.04217
3912.59454	0.04332
3911.30877	0.04444
3910.02300	0.04525
3908.73723	0.04577
3907.45146	0.04603
3906.16570	0.04603
3904.87993	0.04574
3903.59416	0.04521
3902.30839	0.04444
3901.02262	0.04353
3899.73685	0.04276
3898.45108	0.04242
3897.16531	0.04244
3895.87955	0.04244
3894.59378	0.04215
3893.30801	0.04178
3892.02224	0.04188
3890.73647	0.04282
3889.45070	0.04421
3888.16493	0.04504
3886.87916	0.04470
3885.59339	0.04349
3884.30763	0.04196
3883.02186	0.04049
3881.73609	0.03931
3880.45032	0.03877
3879.16455	0.03900
3877.87878	0.03970
3876.59301	0.04045
3875.30724	0.04102
3874.02148	0.04132
3872.73571	0.04123
3871.44994	0.04089
3870.16417	0.04086
3868.87840	0.04153
3867.59263	0.04251
3866.30686	0.04318
3865.02109	0.04343
3863.73532	0.04350
3862.44956	0.04346
3861.16379	0.04329
3859.87802	0.04306
3858.59225	0.04279
3857.30648	0.04235
3856.02071	0.04170
3854.73494	0.04120
3853.44917	0.04138
3852.16341	0.04212
3850.87764	0.04264
3849.59187	0.04244
3848.30610	0.04180
3847.02033	0.04136
3845.73456	0.04150
3844.44879	0.04215
3843.16302	0.04291
3841.87725	0.04341
3840.59149	0.04348
3839.30572	0.04319
3838.01995	0.04277
3836.73418	0.04237
3835.44841	0.04205
3834.16264	0.04193
3832.87687	0.04217
3831.59110	0.04275
3830.30534	0.04336
3829.01957	0.04360
3827.73380	0.04336
3826.44803	0.04293
3825.16226	0.04278
3823.87649	0.04301
3822.59072	0.04337
3821.30495	0.04355
3820.01918	0.04327
3818.73342	0.04230
3817.44765	0.04083
3816.16188	0.03967
3814.87611	0.03946
3813.59034	0.03994
3812.30457	0.04051
3811.01880	0.04081
3809.73303	0.04071
3808.44726	0.04025
3807.16150	0.03986
3805.87573	0.04003
3804.58996	0.04067
3803.30419	0.04130
3802.01842	0.04170
3800.73265	0.04196
3799.44688	0.04207
3798.16111	0.04195
3796.87535	0.04179
3795.58958	0.04184
3794.30381	0.04200
3793.01804	0.04198
3791.73227	0.04153
3790.44650	0.04072
3789.16073	0.03988
3787.87496	0.03930
3786.58919	0.03894
3785.30343	0.03862
3784.01766	0.03835
3782.73189	0.03843
3781.44612	0.03902
3780.16035	0.03988
3778.87458	0.04059
3777.58881	0.04084
3776.30304	0.04076
3775.01728	0.04074
3773.73151	0.04100
3772.44574	0.04137
3771.15997	0.04155
3769.87420	0.04146
3768.58843	0.04115
3767.30266	0.04076
3766.01689	0.04061
3764.73112	0.04086
3763.44536	0.04114
3762.15959	0.04078
3760.87382	0.03956
3759.58805	0.03798
3758.30228	0.03680
3757.01651	0.03646
3755.73074	0.03688
3754.44497	0.03758
3753.15921	0.03828
3751.87344	0.03895
3750.58767	0.03952
3749.30190	0.03986
3748.01613	0.03996
3746.73036	0.03981
3745.44459	0.03967
3744.15882	0.03999
3742.87305	0.04055
3741.58729	0.04065
3740.30152	0.04003
3739.01575	0.03904
3737.72998	0.03805
3736.44421	0.03733
3735.15844	0.03709
3733.87267	0.03719
3732.58690	0.03742
3731.30114	0.03766
3730.01537	0.03778
3728.72960	0.03767
3727.44383	0.03743
3726.15806	0.03744
3724.87229	0.03798
3723.58652	0.03908
3722.30075	0.04055
3721.01498	0.04199
3719.72922	0.04294
3718.44345	0.04314
3717.15768	0.04258
3715.87191	0.04150
3714.58614	0.04026
3713.30037	0.03925
3712.01460	0.03876
3710.72883	0.03876
3709.44307	0.03885
3708.15730	0.03871
3706.87153	0.03814
3705.58576	0.03729
3704.29999	0.03653
3703.01422	0.03626
3701.72845	0.03661
3700.44268	0.03733
3699.15691	0.03791
3697.87115	0.03822
3696.58538	0.03862
3695.29961	0.03934
3694.01384	0.04008
3692.72807	0.04049
3691.44230	0.04025
3690.15653	0.03938
3688.87076	0.03855
3687.58500	0.03831
3686.29923	0.03846
3685.01346	0.03863
3683.72769	0.03870
3682.44192	0.03873
3681.15615	0.03875
3679.87038	0.03863
3678.58461	0.03814
3677.29884	0.03731
3676.01308	0.03659
3674.72731	0.03653
3673.44154	0.03719
3672.15577	0.03812
3670.87000	0.03903
3669.58423	0.03970
3668.29846	0.03976
3667.01269	0.03909
3665.72693	0.03814
3664.44116	0.03753
3663.15539	0.03749
3661.86962	0.03783
3660.58385	0.03823
3659.29808	0.03848
3658.01231	0.03859
3656.72654	0.03877
3655.44077	0.03924
3654.15501	0.03985
3652.86924	0.04027
3651.58347	0.04039
3650.29770	0.04046
3649.01193	0.04072
3647.72616	0.04116
3646.44039	0.04153
3645.15462	0.04159
3643.86886	0.04133
3642.58309	0.04095
3641.29732	0.04057
3640.01155	0.04012
3638.72578	0.03969
3637.44001	0.03962
3636.15424	0.04015
3634.86847	0.04106
3633.58270	0.04184
3632.29694	0.04212
3631.01117	0.04183
3629.72540	0.04145
3628.43963	0.04146
3627.15386	0.04190
3625.86809	0.04240
3624.58232	0.04294
3623.29655	0.04369
3622.01079	0.04458
3620.72502	0.04525
3619.43925	0.04552
3618.15348	0.04548
3616.86771	0.04534
3615.58194	0.04520
3614.29617	0.04516
3613.01040	0.04533
3611.72463	0.04567
3610.43887	0.04595
3609.15310	0.04593
3607.86733	0.04554
3606.58156	0.04492
3605.29579	0.04439
3604.01002	0.04420
3602.72425	0.04446
3601.43848	0.04513
3600.15272	0.04608
3598.86695	0.04697
3597.58118	0.04738
3596.29541	0.04725
3595.00964	0.04682
3593.72387	0.04646
3592.43810	0.04657
3591.15233	0.04725
3589.86656	0.04820
3588.58080	0.04902
3587.29503	0.04950
3586.00926	0.04970
3584.72349	0.04982
3583.43772	0.05008
3582.15195	0.05050
3580.86618	0.05101
3579.58041	0.05152
3578.29464	0.05185
3577.00888	0.05173
3575.72311	0.05119
3574.43734	0.05049
3573.15157	0.05005
3571.86580	0.05023
3570.58003	0.05104
3569.29426	0.05219
3568.00849	0.05318
3566.72273	0.05363
3565.43696	0.05350
3564.15119	0.05300
3562.86542	0.05244
3561.57965	0.05209
3560.29388	0.05209
3559.00811	0.05241
3557.72234	0.05279
3556.43657	0.05297
3555.15081	0.05293
3553.86504	0.05292
3552.57927	0.05328
3551.29350	0.05414
3550.00773	0.05534
3548.72196	0.05645
3547.43619	0.05708
3546.15042	0.05703
3544.86466	0.05650
3543.57889	0.05592
3542.29312	0.05570
3541.00735	0.05590
3539.72158	0.05621
3538.43581	0.05631
3537.15004	0.05619
3535.86427	0.05612
3534.57850	0.05634
3533.29274	0.05670
3532.00697	0.05684
3530.72120	0.05668
3529.43543	0.05651
3528.14966	0.05664
3526.86389	0.05705
3525.57812	0.05747
3524.29235	0.05772
3523.00659	0.05792
3521.72082	0.05822
3520.43505	0.05860
3519.14928	0.05889
3517.86351	0.05906
3516.57774	0.05928
3515.29197	0.05972
3514.00620	0.06033
3512.72043	0.06087
3511.43467	0.06112
3510.14890	0.06111
3508.86313	0.06098
3507.57736	0.06081
3506.29159	0.06051
3505.00582	0.05995
3503.72005	0.05920
3502.43428	0.05851
3501.14852	0.05820
3499.86275	0.05848
3498.57698	0.05928
3497.29121	0.06042
3496.00544	0.06171
3494.71967	0.06309
3493.43390	0.06446
3492.14813	0.06552
3490.86236	0.06590
3489.57660	0.06540
3488.29083	0.06428
3487.00506	0.06305
3485.71929	0.06212
3484.43352	0.06166
3483.14775	0.06162
3481.86198	0.06195
3480.57621	0.06264
3479.29045	0.06355
3478.00468	0.06439
3476.71891	0.06485
3475.43314	0.06490
3474.14737	0.06477
3472.86160	0.06472
3471.57583	0.06487
3470.29006	0.06513
3469.00429	0.06541
3467.71853	0.06563
3466.43276	0.06575
3465.14699	0.06564
3463.86122	0.06521
3462.57545	0.06460
3461.28968	0.06419
3460.00391	0.06435
3458.71814	0.06506
3457.43238	0.06587
3456.14661	0.06633
3454.86084	0.06636
3453.57507	0.06621
3452.28930	0.06618
3451.00353	0.06637
3449.71776	0.06669
3448.43199	0.06702
3447.14622	0.06722
3445.86046	0.06731
3444.57469	0.06738
3443.28892	0.06761
3442.00315	0.06802
3440.71738	0.06843
3439.43161	0.06857
3438.14584	0.06837
3436.86007	0.06806
3435.57431	0.06798
3434.28854	0.06832
3433.00277	0.06900
3431.71700	0.06972
3430.43123	0.07019
3429.14546	0.07031
3427.85969	0.07016
3426.57392	0.06996
3425.28815	0.06994
3424.00239	0.07022
3422.71662	0.07064
3421.43085	0.07086
3420.14508	0.07057
3418.85931	0.06989
3417.57354	0.06925
3416.28777	0.06899
3415.00200	0.06913
3413.71624	0.06938
3412.43047	0.06958
3411.14470	0.06981
3409.85893	0.07021
3408.57316	0.07071
3407.28739	0.07113
3406.00162	0.07138
3404.71585	0.07159
3403.43008	0.07188
3402.14432	0.07217
3400.85855	0.07224
3399.57278	0.07200
3398.28701	0.07163
3397.00124	0.07136
3395.71547	0.07130
3394.42970	0.07141
3393.14393	0.07173
3391.85817	0.07234
3390.57240	0.07314
3389.28663	0.07376
3388.00086	0.07381
3386.71509	0.07329
3385.42932	0.07256
3384.14355	0.07205
3382.85778	0.07193
3381.57201	0.07218
3380.28625	0.07269
3379.00048	0.07331
3377.71471	0.07381
3376.42894	0.07408
3375.14317	0.07413
3373.85740	0.07409
3372.57163	0.07405
3371.28586	0.07409
3370.00010	0.07426
3368.71433	0.07445
3367.42856	0.07446
3366.14279	0.07421
3364.85702	0.07388
3363.57125	0.07373
3362.28548	0.07381
3360.99971	0.07396
3359.71394	0.07396
3358.42818	0.07368
3357.14241	0.07318
3355.85664	0.07275
3354.57087	0.07276
3353.28510	0.07333
3351.99933	0.07407
3350.71356	0.07444
3349.42779	0.07421
3348.14202	0.07367
3346.85626	0.07326
3345.57049	0.07321
3344.28472	0.07344
3342.99895	0.07368
3341.71318	0.07374
3340.42741	0.07360
3339.14164	0.07336
3337.85587	0.07317
3336.57011	0.07313
3335.28434	0.07320
3333.99857	0.07326
3332.71280	0.07313
3331.42703	0.07274
3330.14126	0.07221
3328.85549	0.07186
3327.56972	0.07193
3326.28395	0.07233
3324.99819	0.07274
3323.71242	0.07284
3322.42665	0.07262
3321.14088	0.07233
3319.85511	0.07225
3318.56934	0.07249
3317.28357	0.07289
3315.99780	0.07321
3314.71204	0.07329
3313.42627	0.07321
3312.14050	0.07310
3310.85473	0.07295
3309.56896	0.07270
3308.28319	0.07236
3306.99742	0.07202
3305.71165	0.07178
3304.42588	0.07167
3303.14012	0.07169
3301.85435	0.07189
3300.56858	0.07233
3299.28281	0.07300
3297.99704	0.07366
3296.71127	0.07395
3295.42550	0.07369
3294.13973	0.07318
3292.85397	0.07287
3291.56820	0.07293
3290.28243	0.07316
3288.99666	0.07330
3287.71089	0.07330
3286.42512	0.07319
3285.13935	0.07293
3283.85358	0.07242
3282.56781	0.07164
3281.28205	0.07078
3279.99628	0.07014
3278.71051	0.06996
3277.42474	0.07028
3276.13897	0.07096
3274.85320	0.07175
3273.56743	0.07233
3272.28166	0.07247
3270.99590	0.07217
3269.71013	0.07167
3268.42436	0.07123
3267.13859	0.07100
3265.85282	0.07098
3264.56705	0.07113
3263.28128	0.07143
3261.99551	0.07182
3260.70974	0.07216
3259.42398	0.07233
3258.13821	0.07227
3256.85244	0.07207
3255.56667	0.07185
3254.28090	0.07169
3252.99513	0.07157
3251.70936	0.07136
3250.42359	0.07095
3249.13783	0.07036
3247.85206	0.06980
3246.56629	0.06951
3245.28052	0.06956
3243.99475	0.06980
3242.70898	0.07001
3241.42321	0.07008
3240.13744	0.07004
3238.85167	0.07001
3237.56591	0.06999
3236.28014	0.06986
3234.99437	0.06946
3233.70860	0.06886
3232.42283	0.06839
3231.13706	0.06833
3229.85129	0.06864
3228.56552	0.06894
3227.27976	0.06905
3225.99399	0.06908
3224.70822	0.06919
3223.42245	0.06926
3222.13668	0.06906
3220.85091	0.06866
3219.56514	0.06841
3218.27937	0.06863
3216.99360	0.06929
3215.70784	0.07003
3214.42207	0.07041
3213.13630	0.07029
3211.85053	0.06985
3210.56476	0.06945
3209.27899	0.06935
3207.99322	0.06956
3206.70745	0.06981
3205.42169	0.06983
3204.13592	0.06956
3202.85015	0.06920
3201.56438	0.06894
3200.27861	0.06884
3198.99284	0.06881
3197.70707	0.06875
3196.42130	0.06855
3195.13553	0.06815
3193.84977	0.06767
3192.56400	0.06731
3191.27823	0.06711
3189.99246	0.06693
3188.70669	0.06669
3187.42092	0.06648
3186.13515	0.06646
3184.84938	0.06661
3183.56362	0.06684
3182.27785	0.06710
3180.99208	0.06740
3179.70631	0.06758
3178.42054	0.06746
3177.13477	0.06705
3175.84900	0.06667
3174.56323	0.06657
3173.27746	0.06671
3171.99170	0.06676
3170.70593	0.06643
3169.42016	0.06577
3168.13439	0.06518
3166.84862	0.06500
3165.56285	0.06528
3164.27708	0.06576
3162.99131	0.06612
3161.70555	0.06627
3160.41978	0.06625
3159.13401	0.06617
3157.84824	0.06604
3156.56247	0.06582
3155.27670	0.06550
3153.99093	0.06509
3152.70516	0.06460
3151.41939	0.06407
3150.13363	0.06363
3148.84786	0.06348
3147.56209	0.06371
3146.27632	0.06414
3144.99055	0.06450
3143.70478	0.06465
3142.41901	0.06465
3141.13324	0.06459
3139.84748	0.06448
3138.56171	0.06424
3137.27594	0.06385
3135.99017	0.06336
3134.70440	0.06285
3133.41863	0.06241
3132.13286	0.06213
3130.84709	0.06205
3129.56132	0.06214
3128.27556	0.06232
3126.98979	0.06246
3125.70402	0.06252
3124.41825	0.06251
3123.13248	0.06253
3121.84671	0.06263
3120.56094	0.06283
3119.27517	0.06303
3117.98940	0.06310
3116.70364	0.06289
3115.41787	0.06241
3114.13210	0.06183
3112.84633	0.06137
3111.56056	0.06112
3110.27479	0.06108
3108.98902	0.06120
3107.70325	0.06141
3106.41749	0.06164
3105.13172	0.06180
3103.84595	0.06177
3102.56018	0.06145
3101.27441	0.06090
3099.98864	0.06031
3098.70287	0.05992
3097.41710	0.05977
3096.13133	0.05979
3094.84557	0.05994
3093.55980	0.06020
3092.27403	0.06042
3090.98826	0.06046
3089.70249	0.06034
3088.41672	0.06023
3087.13095	0.06025
3085.84518	0.06027
3084.55942	0.06008
3083.27365	0.05960
3081.98788	0.05902
3080.70211	0.05869
3079.41634	0.05884
3078.13057	0.05930
3076.84480	0.05973
3075.55903	0.05994
3074.27326	0.05997
3072.98750	0.05995
3071.70173	0.05983
3070.41596	0.05959
3069.13019	0.05930
3067.84442	0.05913
3066.55865	0.05913
3065.27288	0.05921
3063.98711	0.05919
3062.70135	0.05900
3061.41558	0.05866
3060.12981	0.05823
3058.84404	0.05780
3057.55827	0.05749
3056.27250	0.05743
3054.98673	0.05764
3053.70096	0.05795
3052.41519	0.05812
3051.12943	0.05801
3049.84366	0.05768
3048.55789	0.05738
3047.27212	0.05729
3045.98635	0.05742
3044.70058	0.05763
3043.41481	0.05776
3042.12904	0.05764
3040.84328	0.05726
3039.55751	0.05675
3038.27174	0.05638
3036.98597	0.05635
3035.70020	0.05664
3034.41443	0.05696
3033.12866	0.05704
3031.84289	0.05680
3030.55712	0.05640
3029.27136	0.05606
3027.98559	0.05593
3026.69982	0.05597
3025.41405	0.05599
3024.12828	0.05587
3022.84251	0.05563
3021.55674	0.05542
3020.27097	0.05535
3018.98521	0.05537
3017.69944	0.05538
3016.41367	0.05529
3015.12790	0.05516
3013.84213	0.05508
3012.55636	0.05503
3011.27059	0.05491
3009.98482	0.05476
3008.69905	0.05467
3007.41329	0.05465
3006.12752	0.05456
3004.84175	0.05433
3003.55598	0.05407
3002.27021	0.05395
3000.98444	0.05401
2999.69867	0.05410
2998.41290	0.05403
2997.12714	0.05383
2995.84137	0.05370
2994.55560	0.05379
2993.26983	0.05400
2991.98406	0.05414
2990.69829	0.05421
2989.41252	0.05434
2988.12675	0.05459
2986.84098	0.05481
2985.55522	0.05480
2984.26945	0.05461
2982.98368	0.05447
2981.69791	0.05460
2980.41214	0.05502
2979.12637	0.05560
2977.84060	0.05614
2976.55483	0.05666
2975.26907	0.05730
2973.98330	0.05813
2972.69753	0.05896
2971.41176	0.05953
2970.12599	0.05981
2968.84022	0.06002
2967.55445	0.06042
2966.26868	0.06112
2964.98291	0.06203
2963.69715	0.06296
2962.41138	0.06380
2961.12561	0.06456
2959.83984	0.06530
2958.55407	0.06600
2957.26830	0.06653
2955.98253	0.06680
2954.69676	0.06685
2953.41100	0.06683
2952.12523	0.06691
2950.83946	0.06705
2949.55369	0.06716
2948.26792	0.06712
2946.98215	0.06699
2945.69638	0.06687
2944.41061	0.06681
2943.12484	0.06684
2941.83908	0.06694
2940.55331	0.06712
2939.26754	0.06742
2937.98177	0.06783
2936.69600	0.06835
2935.41023	0.06894
2934.12446	0.06957
2932.83869	0.07016
2931.55293	0.07062
2930.26716	0.07093
2928.98139	0.07112
2927.69562	0.07130
2926.40985	0.07153
2925.12408	0.07182
2923.83831	0.07206
2922.55254	0.07213
2921.26677	0.07197
2919.98101	0.07159
2918.69524	0.07103
2917.40947	0.07033
2916.12370	0.06959
2914.83793	0.06892
2913.55216	0.06838
2912.26639	0.06789
2910.98062	0.06732
2909.69486	0.06663
2908.40909	0.06591
2907.12332	0.06519
2905.83755	0.06449
2904.55178	0.06381
2903.26601	0.06323
2901.98024	0.06280
2900.69447	0.06248
2899.40870	0.06225
2898.12294	0.06209
2896.83717	0.06193
2895.55140	0.06164
2894.26563	0.06115
2892.97986	0.06059
2891.69409	0.06018
2890.40832	0.05993
2889.12255	0.05970
2887.83678	0.05935
2886.55102	0.05888
2885.26525	0.05838
2883.97948	0.05795
2882.69371	0.05773
2881.40794	0.05779
2880.12217	0.05803
2878.83640	0.05825
2877.55063	0.05836
2876.26487	0.05844
2874.97910	0.05858
2873.69333	0.05868
2872.40756	0.05866
2871.12179	0.05859
2869.83602	0.05869
2868.55025	0.05901
2867.26448	0.05935
2865.97871	0.05948
2864.69295	0.05932
2863.40718	0.05903
2862.12141	0.05880
2860.83564	0.05869
2859.54987	0.05872
2858.26410	0.05885
2856.97833	0.05903
2855.69256	0.05910
2854.40680	0.05890
2853.12103	0.05841
2851.83526	0.05789
2850.54949	0.05751
2849.26372	0.05719
2847.97795	0.05670
2846.69218	0.05593
2845.40641	0.05503
2844.12064	0.05424
2842.83488	0.05363
2841.54911	0.05311
2840.26334	0.05251
2838.97757	0.05179
2837.69180	0.05103
2836.40603	0.05033
2835.12026	0.04977
2833.83449	0.04939
2832.54873	0.04914
2831.26296	0.04882
2829.97719	0.04833
2828.69142	0.04775
2827.40565	0.04733
2826.11988	0.04713
2824.83411	0.04701
2823.54834	0.04676
2822.26257	0.04640
2820.97681	0.04606
2819.69104	0.04590
2818.40527	0.04587
2817.11950	0.04582
2815.83373	0.04562
2814.54796	0.04531
2813.26219	0.04503
2811.97642	0.04495
2810.69066	0.04506
2809.40489	0.04522
2808.11912	0.04524
2806.83335	0.04505
2805.54758	0.04473
2804.26181	0.04446
2802.97604	0.04436
2801.69027	0.04438
2800.40450	0.04434
2799.11874	0.04413
2797.83297	0.04381
2796.54720	0.04354
2795.26143	0.04339
2793.97566	0.04334
2792.68989	0.04336
2791.40412	0.04347
2790.11835	0.04363
2788.83259	0.04370
2787.54682	0.04360
2786.26105	0.04341
2784.97528	0.04326
2783.68951	0.04316
2782.40374	0.04309
2781.11797	0.04302
2779.83220	0.04300
2778.54643	0.04301
2777.26067	0.04294
2775.97490	0.04272
2774.68913	0.04240
2773.40336	0.04215
2772.11759	0.04207
2770.83182	0.04208
2769.54605	0.04205
2768.26028	0.04196
2766.97452	0.04188
2765.68875	0.04188
2764.40298	0.04192
2763.11721	0.04194
2761.83144	0.04190
2760.54567	0.04181
2759.25990	0.04167
2757.97413	0.04149
2756.68836	0.04130
2755.40260	0.04116
2754.11683	0.04113
2752.83106	0.04125
2751.54529	0.04148
2750.25952	0.04169
2748.97375	0.04169
2747.68798	0.04144
2746.40221	0.04109
2745.11645	0.04082
2743.83068	0.04070
2742.54491	0.04067
2741.25914	0.04066
2739.97337	0.04063
2738.68760	0.04061
2737.40183	0.04062
2736.11606	0.04062
2734.83029	0.04054
2733.54453	0.04034
2732.25876	0.04009
2730.97299	0.03990
2729.68722	0.03986
2728.40145	0.03996
2727.11568	0.04013
2725.82991	0.04022
2724.54414	0.04005
2723.25838	0.03960
2721.97261	0.03910
2720.68684	0.03886
2719.40107	0.03897
2718.11530	0.03924
2716.82953	0.03943
2715.54376	0.03941
2714.25799	0.03922
2712.97222	0.03896
2711.68646	0.03873
2710.40069	0.03858
2709.11492	0.03850
2707.82915	0.03842
2706.54338	0.03834
2705.25761	0.03834
2703.97184	0.03842
2702.68607	0.03854
2701.40031	0.03862
2700.11454	0.03867
2698.82877	0.03867
2697.54300	0.03855
2696.25723	0.03832
2694.97146	0.03811
2693.68569	0.03804
2692.39992	0.03807
2691.11415	0.03803
2689.82839	0.03781
2688.54262	0.03747
2687.25685	0.03725
2685.97108	0.03733
2684.68531	0.03764
2683.39954	0.03795
2682.11377	0.03814
2680.82800	0.03824
2679.54224	0.03831
2678.25647	0.03830
2676.97070	0.03816
2675.68493	0.03790
2674.39916	0.03759
2673.11339	0.03729
2671.82762	0.03705
2670.54185	0.03693
2669.25608	0.03694
2667.97032	0.03704
2666.68455	0.03714
2665.39878	0.03720
2664.11301	0.03723
2662.82724	0.03722
2661.54147	0.03713
2660.25570	0.03694
2658.96993	0.03670
2657.68417	0.03645
2656.39840	0.03624
2655.11263	0.03610
2653.82686	0.03605
2652.54109	0.03606
2651.25532	0.03604
2649.96955	0.03595
2648.68378	0.03581
2647.39801	0.03566
2646.11225	0.03550
2644.82648	0.03535
2643.54071	0.03524
2642.25494	0.03518
2640.96917	0.03510
2639.68340	0.03493
2638.39763	0.03471
2637.11186	0.03449
2635.82609	0.03431
2634.54033	0.03414
2633.25456	0.03400
2631.96879	0.03392
2630.68302	0.03391
2629.39725	0.03390
2628.11148	0.03385
2626.82571	0.03375
2625.53994	0.03362
2624.25418	0.03350
2622.96841	0.03342
2621.68264	0.03334
2620.39687	0.03318
2619.11110	0.03290
2617.82533	0.03256
2616.53956	0.03232
2615.25379	0.03231
2613.96802	0.03248
2612.68226	0.03262
2611.39649	0.03253
2610.11072	0.03225
2608.82495	0.03201
2607.53918	0.03204
2606.25341	0.03230
2604.96764	0.03254
2603.68187	0.03253
2602.39611	0.03237
2601.11034	0.03223
2599.82457	0.03212
2598.53880	0.03183
2597.25303	0.03124
2595.96726	0.03056
2594.68149	0.03016
2593.39572	0.03025
2592.10995	0.03070
2590.82419	0.03120
2589.53842	0.03143
2588.25265	0.03128
2586.96688	0.03085
2585.68111	0.03035
2584.39534	0.02996
2583.10957	0.02979
2581.82380	0.02984
2580.53804	0.03002
2579.25227	0.03019
2577.96650	0.03021
2576.68073	0.03007
2575.39496	0.02998
2574.10919	0.03007
2572.82342	0.03024
2571.53765	0.03021
2570.25188	0.02990
2568.96612	0.02947
2567.68035	0.02914
2566.39458	0.02894
2565.10881	0.02883
2563.82304	0.02875
2562.53727	0.02868
2561.25150	0.02859
2559.96573	0.02853
2558.67997	0.02859
2557.39420	0.02881
2556.10843	0.02914
2554.82266	0.02944
2553.53689	0.02955
2552.25112	0.02944
2550.96535	0.02930
2549.67958	0.02924
2548.39381	0.02922
2547.10805	0.02910
2545.82228	0.02891
2544.53651	0.02874
2543.25074	0.02860
2541.96497	0.02839
2540.67920	0.02810
2539.39343	0.02787
2538.10766	0.02780
2536.82190	0.02787
2535.53613	0.02791
2534.25036	0.02784
2532.96459	0.02775
2531.67882	0.02785
2530.39305	0.02822
2529.10728	0.02875
2527.82151	0.02916
2526.53574	0.02921
2525.24998	0.02887
2523.96421	0.02835
2522.67844	0.02798
2521.39267	0.02782
2520.10690	0.02773
2518.82113	0.02760
2517.53536	0.02755
2516.24959	0.02767
2514.96383	0.02783
2513.67806	0.02777
2512.39229	0.02741
2511.10652	0.02699
2509.82075	0.02679
2508.53498	0.02689
2507.24921	0.02704
2505.96344	0.02704
2504.67767	0.02698
2503.39191	0.02714
2502.10614	0.02751
2500.82037	0.02775
2499.53460	0.02756
2498.24883	0.02708
2496.96306	0.02676
2495.67729	0.02685
2494.39152	0.02713
2493.10576	0.02729
2491.81999	0.02720
2490.53422	0.02699
2489.24845	0.02678
2487.96268	0.02667
2486.67691	0.02672
2485.39114	0.02691
2484.10537	0.02704
2482.81960	0.02691
2481.53384	0.02648
2480.24807	0.02598
2478.96230	0.02571
2477.67653	0.02580
2476.39076	0.02610
2475.10499	0.02636
2473.81922	0.02640
2472.53345	0.02628
2471.24769	0.02615
2469.96192	0.02611
2468.67615	0.02616
2467.39038	0.02626
2466.10461	0.02639
2464.81884	0.02661
2463.53307	0.02684
2462.24730	0.02697
2460.96153	0.02686
2459.67577	0.02661
2458.39000	0.02643
2457.10423	0.02647
2455.81846	0.02658
2454.53269	0.02652
2453.24692	0.02624
2451.96115	0.02590
2450.67538	0.02569
2449.38962	0.02573
2448.10385	0.02606
2446.81808	0.02661
2445.53231	0.02707
2444.24654	0.02712
2442.96077	0.02672
2441.67500	0.02614
2440.38923	0.02567
2439.10346	0.02542
2437.81770	0.02539
2436.53193	0.02546
2435.24616	0.02550
2433.96039	0.02537
2432.67462	0.02517
2431.38885	0.02506
2430.10308	0.02508
2428.81731	0.02510
2427.53155	0.02497
2426.24578	0.02471
2424.96001	0.02443
2423.67424	0.02431
2422.38847	0.02443
2421.10270	0.02475
2419.81693	0.02509
2418.53116	0.02527
2417.24539	0.02516
2415.95963	0.02477
2414.67386	0.02422
2413.38809	0.02373
2412.10232	0.02352
2410.81655	0.02365
2409.53078	0.02398
2408.24501	0.02427
2406.95924	0.02432
2405.67347	0.02417
2404.38771	0.02402
2403.10194	0.02404
2401.81617	0.02423
2400.53040	0.02444
2399.24463	0.02459
2397.95886	0.02468
2396.67309	0.02469
2395.38732	0.02459
2394.10156	0.02439
2392.81579	0.02420
2391.53002	0.02416
2390.24425	0.02428
2388.95848	0.02445
2387.67271	0.02456
2386.38694	0.02458
2385.10117	0.02455
2383.81540	0.02452
2382.52964	0.02455
2381.24387	0.02469
2379.95810	0.02491
2378.67233	0.02515
2377.38656	0.02540
2376.10079	0.02558
2374.81502	0.02569
2373.52925	0.02592
2372.24349	0.02618
2370.95772	0.02669
2369.67195	0.02685
2368.38618	0.02673
2367.10041	0.02675
2365.81464	0.02717
2364.52887	0.02716
2363.24310	0.02696
2361.95733	0.02693
2360.67157	0.02731
2359.38580	0.02722
2358.10003	0.02713
2356.81426	0.02719
2355.52849	0.02724
2354.24272	0.02728
2352.95695	0.02691
2351.67118	0.02679
2350.38542	0.02738
2349.09965	0.02774
2347.81388	0.02703
2346.52811	0.02649
2345.24234	0.02660
2343.95657	0.02684
2342.67080	0.02637
2341.38503	0.02637
2340.09926	0.02726
2338.81350	0.02758
2337.52773	0.02716
2336.24196	0.02715
2334.95619	0.02760
2333.67042	0.02758
2332.38465	0.02654
2331.09888	0.02710
2329.81311	0.02799
2328.52735	0.02670
2327.24158	0.02707
2325.95581	0.02832
2324.67004	0.02747
2323.38427	0.02731
2322.09850	0.02824
2320.81273	0.02713
2319.52696	0.02698
2318.24119	0.02737
2316.95543	0.02632
2315.66966	0.02601
2314.38389	0.02587
2313.09812	0.02515
2311.81235	0.02520
2310.52658	0.02480
2309.24081	0.02439
2307.95504	0.02440
2306.66928	0.02410
2305.38351	0.02419
2304.09774	0.02425
2302.81197	0.02413
2301.52620	0.02418
2300.24043	0.02407
2298.95466	0.02399
2297.66889	0.02371
2296.38312	0.02340
2295.09736	0.02334
2293.81159	0.02352
2292.52582	0.02384
2291.24005	0.02393
2289.95428	0.02378
2288.66851	0.02349
2287.38274	0.02320
2286.09697	0.02296
2284.81121	0.02282
2283.52544	0.02283
2282.23967	0.02288
2280.95390	0.02274
2279.66813	0.02226
2278.38236	0.02165
2277.09659	0.02126
2275.81082	0.02127
2274.52505	0.02149
2273.23929	0.02160
2271.95352	0.02149
2270.66775	0.02125
2269.38198	0.02102
2268.09621	0.02080
2266.81044	0.02059
2265.52467	0.02033
2264.23890	0.01994
2262.95314	0.01949
2261.66737	0.01920
2260.38160	0.01920
2259.09583	0.01947
2257.81006	0.01983
2256.52429	0.02004
2255.23852	0.02001
2253.95275	0.01990
2252.66698	0.01991
2251.38122	0.01999
2250.09545	0.01992
2248.80968	0.01947
2247.52391	0.01874
2246.23814	0.01812
2244.95237	0.01776
2243.66660	0.01754
2242.38083	0.01744
2241.09507	0.01767
2239.80930	0.01816
2238.52353	0.01834
2237.23776	0.01773
2235.95199	0.01662
2234.66622	0.01578
2233.38045	0.01576
2232.09468	0.01643
2230.80891	0.01726
2229.52315	0.01777
2228.23738	0.01770
2226.95161	0.01708
2225.66584	0.01622
2224.38007	0.01541
2223.09430	0.01472
2221.80853	0.01411
2220.52276	0.01372
2219.23700	0.01383
2217.95123	0.01442
2216.66546	0.01515
2215.37969	0.01563
2214.09392	0.01573
2212.80815	0.01561
2211.52238	0.01540
2210.23661	0.01507
2208.95084	0.01447
2207.66508	0.01363
2206.37931	0.01287
2205.09354	0.01257
2203.80777	0.01276
2202.52200	0.01305
2201.23623	0.01306
2199.95046	0.01283
2198.66469	0.01263
2197.37893	0.01255
2196.09316	0.01244
2194.80739	0.01228
2193.52162	0.01230
2192.23585	0.01270
2190.95008	0.01327
2189.66431	0.01363
2188.37854	0.01368
2187.09277	0.01363
2185.80701	0.01357
2184.52124	0.01327
2183.23547	0.01257
2181.94970	0.01176
2180.66393	0.01133
2179.37816	0.01145
2178.09239	0.01178
2176.80662	0.01190
2175.52085	0.01175
2174.23509	0.01160
2172.94932	0.01160
2171.66355	0.01166
2170.37778	0.01165
2169.09201	0.01162
2167.80624	0.01180
2166.52047	0.01235
2165.23470	0.01322
2163.94894	0.01402
2162.66317	0.01412
2161.37740	0.01292
2160.09163	0.01054
2158.80586	0.00799
2157.52009	0.00642
2156.23432	0.00606
2154.94855	0.00642
2153.66278	0.00704
2152.37702	0.00777
2151.09125	0.00840
2149.80548	0.00868
2148.51971	0.00851
2147.23394	0.00801
2145.94817	0.00734
2144.66240	0.00671
2143.37663	0.00647
2142.09087	0.00697
2140.80510	0.00813
2139.51933	0.00939
2138.23356	0.01016
2136.94779	0.01028
2135.66202	0.00991
2134.37625	0.00938
2133.09048	0.00904
2131.80471	0.00914
2130.51895	0.00967
2129.23318	0.01032
2127.94741	0.01081
2126.66164	0.01111
2125.37587	0.01136
2124.09010	0.01164
2122.80433	0.01198
2121.51856	0.01240
2120.23280	0.01295
2118.94703	0.01353
2117.66126	0.01389
2116.37549	0.01385
2115.08972	0.01347
2113.80395	0.01300
2112.51818	0.01269
2111.23241	0.01259
2109.94664	0.01252
2108.66088	0.01232
2107.37511	0.01204
2106.08934	0.01185
2104.80357	0.01178
2103.51780	0.01171
2102.23203	0.01159
2100.94626	0.01154
2099.66049	0.01125
2098.37473	0.01114
2097.08896	0.01092
2095.80319	0.01048
2094.51742	0.01023
2093.23165	0.01059
2091.94588	0.01155
2090.66011	0.01264
2089.37434	0.01334
2088.08857	0.01346
2086.80281	0.01317
2085.51704	0.01273
2084.23127	0.01229
2082.94550	0.01187
2081.65973	0.01151
2080.37396	0.01118
2079.08819	0.01078
2077.80242	0.01029
2076.51666	0.00991
2075.23089	0.00995
2073.94512	0.01053
2072.65935	0.01136
2071.37358	0.01198
2070.08781	0.01214
2068.80204	0.01176
2067.51627	0.01091
2066.23050	0.00974
2064.94474	0.00858
2063.65897	0.00777
2062.37320	0.00752
2061.08743	0.00779
2059.80166	0.00844
2058.51589	0.00931
2057.23012	0.01017
2055.94435	0.01082
2054.65859	0.01110
2053.37282	0.01091
2052.08705	0.01015
2050.80128	0.00889
2049.51551	0.00736
2048.22974	0.00579
2046.94397	0.00429
2045.65820	0.00295
2044.37243	0.00204
2043.08667	0.00173
2041.80090	0.00201
2040.51513	0.00276
2039.22936	0.00382
2037.94359	0.00489
2036.65782	0.00551
2035.37205	0.00543
2034.08628	0.00477
2032.80052	0.00383
2031.51475	0.00291
2030.22898	0.00231
2028.94321	0.00236
2027.65744	0.00310
2026.37167	0.00406
2025.08590	0.00460
2023.80013	0.00442
2022.51436	0.00375
2021.22860	0.00310
2019.94283	0.00290
2018.65706	0.00319
2017.37129	0.00371
2016.08552	0.00406
2014.79975	0.00400
2013.51398	0.00357
2012.22821	0.00300
2010.94245	0.00251
2009.65668	0.00228
2008.37091	0.00252
2007.08514	0.00330
2005.79937	0.00439
2004.51360	0.00537
2003.22783	0.00595
2001.94206	0.00620
2000.65629	0.00625
1999.37053	0.00620
1998.08476	0.00619
1996.79899	0.00651
1995.51322	0.00728
1994.22745	0.00831
1992.94168	0.00923
1991.65591	0.00973
1990.37014	0.00980
1989.08438	0.00959
1987.79861	0.00923
1986.51284	0.00877
1985.22707	0.00826
1983.94130	0.00792
1982.65553	0.00793
1981.36976	0.00817
1980.08399	0.00836
1978.79822	0.00824
1977.51246	0.00777
1976.22669	0.00717
1974.94092	0.00684
1973.65515	0.00724
1972.36938	0.00842
1971.08361	0.00983
1969.79784	0.01064
1968.51207	0.01040
1967.22631	0.00937
1965.94054	0.00825
1964.65477	0.00767
1963.36900	0.00783
1962.08323	0.00849
1960.79746	0.00917
1959.51169	0.00956
1958.22592	0.00971
1956.94015	0.00988
1955.65439	0.01020
1954.36862	0.01055
1953.08285	0.01080
1951.79708	0.01100
1950.51131	0.01128
1949.22554	0.01166
1947.93977	0.01205
1946.65400	0.01234
1945.36823	0.01243
1944.08247	0.01227
1942.79670	0.01192
1941.51093	0.01155
1940.22516	0.01128
1938.93939	0.01103
1937.65362	0.01067
1936.36785	0.01027
1935.08208	0.01012
1933.79632	0.01051
1932.51055	0.01137
1931.22478	0.01225
1929.93901	0.01264
1928.65324	0.01233
1927.36747	0.01157
1926.08170	0.01082
1924.79593	0.01051
1923.51016	0.01075
1922.22440	0.01137
1920.93863	0.01197
1919.65286	0.01227
1918.36709	0.01226
1917.08132	0.01213
1915.79555	0.01206
1914.50978	0.01205
1913.22401	0.01210
1911.93825	0.01217
1910.65248	0.01223
1909.36671	0.01229
1908.08094	0.01236
1906.79517	0.01254
1905.50940	0.01283
1904.22363	0.01311
1902.93786	0.01317
1901.65209	0.01299
1900.36633	0.01278
1899.08056	0.01277
1897.79479	0.01294
1896.50902	0.01307
1895.22325	0.01299
1893.93748	0.01275
1892.65171	0.01253
1891.36594	0.01247
1890.08018	0.01264
1888.79441	0.01301
1887.50864	0.01339
1886.22287	0.01360
1884.93710	0.01359
1883.65133	0.01345
1882.36556	0.01335
1881.07979	0.01336
1879.79402	0.01342
1878.50826	0.01341
1877.22249	0.01324
1875.93672	0.01299
1874.65095	0.01280
1873.36518	0.01276
1872.07941	0.01286
1870.79364	0.01306
1869.50787	0.01334
1868.22211	0.01361
1866.93634	0.01376
1865.65057	0.01372
1864.36480	0.01361
1863.07903	0.01356
1861.79326	0.01358
1860.50749	0.01352
1859.22172	0.01338
1857.93595	0.01330
1856.65019	0.01341
1855.36442	0.01365
1854.07865	0.01379
1852.79288	0.01368
1851.50711	0.01341
1850.22134	0.01318
1848.93557	0.01312
1847.64980	0.01321
1846.36404	0.01327
1845.07827	0.01323
1843.79250	0.01316
1842.50673	0.01315
1841.22096	0.01317
1839.93519	0.01320
1838.64942	0.01330
1837.36365	0.01345
1836.07788	0.01359
1834.79212	0.01366
1833.50635	0.01364
1832.22058	0.01358
1830.93481	0.01352
1829.64904	0.01350
1828.36327	0.01349
1827.07750	0.01342
1825.79173	0.01333
1824.50597	0.01333
1823.22020	0.01341
1821.93443	0.01345
1820.64866	0.01332
1819.36289	0.01311
1818.07712	0.01298
1816.79135	0.01309
1815.50558	0.01340
1814.21981	0.01376
1812.93405	0.01403
1811.64828	0.01418
1810.36251	0.01429
1809.07674	0.01439
1807.79097	0.01445
1806.50520	0.01448
1805.21943	0.01452
1803.93366	0.01459
1802.64790	0.01467
1801.36213	0.01474
1800.07636	0.01478
1798.79059	0.01479
1797.50482	0.01475
1796.21905	0.01466
1794.93328	0.01453
1793.64751	0.01437
1792.36174	0.01428
1791.07598	0.01427
1789.79021	0.01430
1788.50444	0.01432
1787.21867	0.01431
1785.93290	0.01433
1784.64713	0.01442
1783.36136	0.01459
1782.07559	0.01480
1780.78983	0.01500
1779.50406	0.01513
1778.21829	0.01516
1776.93252	0.01513
1775.64675	0.01512
1774.36098	0.01516
1773.07521	0.01527
1771.78944	0.01546
1770.50367	0.01563
1769.21791	0.01570
1767.93214	0.01569
1766.64637	0.01571
1765.36060	0.01573
1764.07483	0.01568
1762.78906	0.01560
1761.50329	0.01562
1760.21752	0.01574
1758.93176	0.01587
1757.64599	0.01595
1756.36022	0.01600
1755.07445	0.01607
1753.78868	0.01607
1752.50291	0.01598
1751.21714	0.01587
1749.93137	0.01582
1748.64560	0.01582
1747.35984	0.01587
1746.07407	0.01597
1744.78830	0.01611
1743.50253	0.01625
1742.21676	0.01637
1740.93099	0.01645
1739.64522	0.01653
1738.35945	0.01666
1737.07369	0.01676
1735.78792	0.01674
1734.50215	0.01671
1733.21638	0.01686
1731.93061	0.01714
1730.64484	0.01736
1729.35907	0.01746
1728.07330	0.01751
1726.78753	0.01757
1725.50177	0.01766
1724.21600	0.01778
1722.93023	0.01793
1721.64446	0.01805
1720.35869	0.01806
1719.07292	0.01801
1717.78715	0.01805
1716.50138	0.01831
1715.21561	0.01869
1713.92985	0.01908
1712.64408	0.01945
1711.35831	0.01981
1710.07254	0.02017
1708.78677	0.02052
1707.50100	0.02086
1706.21523	0.02122
1704.92946	0.02161
1703.64370	0.02196
1702.35793	0.02218
1701.07216	0.02240
1699.78639	0.02288
1698.50062	0.02352
1697.21485	0.02402
1695.92908	0.02440
1694.64331	0.02491
1693.35754	0.02547
1692.07178	0.02586
1690.78601	0.02611
1689.50024	0.02641
1688.21447	0.02682
1686.92870	0.02720
1685.64293	0.02751
1684.35716	0.02794
1683.07139	0.02858
1681.78563	0.02920
1680.49986	0.02966
1679.21409	0.03004
1677.92832	0.03043
1676.64255	0.03085
1675.35678	0.03134
1674.07101	0.03192
1672.78524	0.03247
1671.49947	0.03288
1670.21371	0.03322
1668.92794	0.03365
1667.64217	0.03416
1666.35640	0.03465
1665.07063	0.03502
1663.78486	0.03535
1662.49909	0.03574
1661.21332	0.03617
1659.92756	0.03656
1658.64179	0.03691
1657.35602	0.03723
1656.07025	0.03741
1654.78448	0.03737
1653.49871	0.03733
1652.21294	0.03760
1650.92717	0.03813
1649.64140	0.03855
1648.35564	0.03867
1647.06987	0.03866
1645.78410	0.03867
1644.49833	0.03872
1643.21256	0.03873
1641.92679	0.03870
1640.64102	0.03869
1639.35525	0.03870
1638.06949	0.03863
1636.78372	0.03849
1635.49795	0.03842
1634.21218	0.03849
1632.92641	0.03858
1631.64064	0.03855
1630.35487	0.03843
1629.06910	0.03833
1627.78333	0.03828
1626.49757	0.03823
1625.21180	0.03812
1623.92603	0.03797
1622.64026	0.03788
1621.35449	0.03790
1620.06872	0.03793
1618.78295	0.03786
1617.49718	0.03778
1616.21142	0.03784
1614.92565	0.03803
1613.63988	0.03821
1612.35411	0.03831
1611.06834	0.03842
1609.78257	0.03858
1608.49680	0.03874
1607.21103	0.03888
1605.92526	0.03902
1604.63950	0.03917
1603.35373	0.03936
1602.06796	0.03960
1600.78219	0.03986
1599.49642	0.04013
1598.21065	0.04039
1596.92488	0.04063
1595.63911	0.04087
1594.35335	0.04111
1593.06758	0.04138
1591.78181	0.04169
1590.49604	0.04205
1589.21027	0.04243
1587.92450	0.04282
1586.63873	0.04319
1585.35296	0.04353
1584.06719	0.04384
1582.78143	0.04417
1581.49566	0.04460
1580.20989	0.04514
1578.92412	0.04569
1577.63835	0.04613
1576.35258	0.04657
1575.06681	0.04715
1573.78104	0.04780
1572.49528	0.04834
1571.20951	0.04872
1569.92374	0.04909
1568.63797	0.04952
1567.35220	0.04997
1566.06643	0.05037
1564.78066	0.05076
1563.49489	0.05116
1562.20912	0.05146
1560.92336	0.05160
1559.63759	0.05172
1558.35182	0.05205
1557.06605	0.05254
1555.78028	0.05296
1554.49451	0.05327
1553.20874	0.05356
1551.92297	0.05381
1550.63721	0.05394
1549.35144	0.05399
1548.06567	0.05399
1546.77990	0.05395
1545.49413	0.05384
1544.20836	0.05369
1542.92259	0.05348
1541.63682	0.05315
1540.35105	0.05279
1539.06529	0.05258
1537.77952	0.05253
1536.49375	0.05246
1535.20798	0.05226
1533.92221	0.05205
1532.63644	0.05201
1531.35067	0.05215
1530.06490	0.05237
1528.77914	0.05264
1527.49337	0.05296
1526.20760	0.05337
1524.92183	0.05384
1523.63606	0.05432
1522.35029	0.05483
1521.06452	0.05548
1519.77875	0.05630
1518.49298	0.05717
1517.20722	0.05801
1515.92145	0.05891
1514.63568	0.05990
1513.34991	0.06097
1512.06414	0.06215
1510.77837	0.06343
1509.49260	0.06466
1508.20683	0.06575
1506.92107	0.06679
1505.63530	0.06795
1504.34953	0.06920
1503.06376	0.07036
1501.77799	0.07136
1500.49222	0.07229
1499.20645	0.07319
1497.92068	0.07403
1496.63491	0.07482
1495.34915	0.07562
1494.06338	0.07642
1492.77761	0.07713
1491.49184	0.07779
1490.20607	0.07849
1488.92030	0.07926
1487.63453	0.08013
1486.34876	0.08110
1485.06299	0.08219
1483.77723	0.08338
1482.49146	0.08463
1481.20569	0.08591
1479.91992	0.08717
1478.63415	0.08838
1477.34838	0.08950
1476.06261	0.09052
1474.77684	0.09146
1473.49108	0.09235
1472.20531	0.09327
1470.91954	0.09422
1469.63377	0.09510
1468.34800	0.09578
1467.06223	0.09628
1465.77646	0.09673
1464.49069	0.09726
1463.20492	0.09792
1461.91916	0.09865
1460.63339	0.09936
1459.34762	0.09997
1458.06185	0.10053
1456.77608	0.10116
1455.49031	0.10185
1454.20454	0.10243
1452.91877	0.10280
1451.63301	0.10304
1450.34724	0.10325
1449.06147	0.10340
1447.77570	0.10346
1446.48993	0.10342
1445.20416	0.10328
1443.91839	0.10306
1442.63262	0.10279
1441.34685	0.10255
1440.06109	0.10233
1438.77532	0.10212
1437.48955	0.10198
1436.20378	0.10206
1434.91801	0.10244
1433.63224	0.10303
1432.34647	0.10378
1431.06070	0.10473
1429.77494	0.10592
1428.48917	0.10732
1427.20340	0.10885
1425.91763	0.11044
1424.63186	0.11205
1423.34609	0.11366
1422.06032	0.11513
1420.77455	0.11640
1419.48878	0.11752
1418.20302	0.11855
1416.91725	0.11944
1415.63148	0.12007
1414.34571	0.12043
1413.05994	0.12054
1411.77417	0.12042
1410.48840	0.12007
1409.20263	0.11950
1407.91687	0.11874
1406.63110	0.11778
1405.34533	0.11663
1404.05956	0.11525
1402.77379	0.11361
1401.48802	0.11169
1400.20225	0.10952
1398.91648	0.10721
1397.63071	0.10483
1396.34495	0.10239
1395.05918	0.09991
1393.77341	0.09745
1392.48764	0.09503
1391.20187	0.09264
1389.91610	0.09025
1388.63033	0.08784
1387.34456	0.08544
1386.05880	0.08309
1384.77303	0.08079
1383.48726	0.07854
1382.20149	0.07636
1380.91572	0.07423
1379.62995	0.07211
1378.34418	0.06995
1377.05841	0.06775
1375.77264	0.06550
1374.48688	0.06323
1373.20111	0.06098
1371.91534	0.05877
1370.62957	0.05664
1369.34380	0.05463
1368.05803	0.05280
1366.77226	0.05110
1365.48649	0.04948
1364.20073	0.04790
1362.91496	0.04638
1361.62919	0.04498
1360.34342	0.04373
1359.05765	0.04263
1357.77188	0.04165
1356.48611	0.04073
1355.20034	0.03984
1353.91457	0.03896
1352.62881	0.03808
1351.34304	0.03723
1350.05727	0.03646
1348.77150	0.03579
1347.48573	0.03521
1346.19996	0.03464
1344.91419	0.03405
1343.62842	0.03342
1342.34266	0.03280
1341.05689	0.03225
1339.77112	0.03178
1338.48535	0.03137
1337.19958	0.03097
1335.91381	0.03057
1334.62804	0.03017
1333.34227	0.02979
1332.05650	0.02944
1330.77074	0.02910
1329.48497	0.02876
1328.19920	0.02844
1326.91343	0.02814
1325.62766	0.02785
1324.34189	0.02756
1323.05612	0.02724
1321.77035	0.02692
1320.48459	0.02665
1319.19882	0.02642
1317.91305	0.02621
1316.62728	0.02599
1315.34151	0.02576
1314.05574	0.02555
1312.76997	0.02536
1311.48420	0.02521
1310.19843	0.02505
1308.91267	0.02488
1307.62690	0.02468
1306.34113	0.02448
1305.05536	0.02430
1303.76959	0.02414
1302.48382	0.02396
1301.19805	0.02375
1299.91228	0.02350
1298.62652	0.02326
1297.34075	0.02302
1296.05498	0.02281
1294.76921	0.02268
1293.48344	0.02265
1292.19767	0.02268
1290.91190	0.02268
1289.62613	0.02258
1288.34036	0.02236
1287.05460	0.02209
1285.76883	0.02183
1284.48306	0.02165
1283.19729	0.02156
1281.91152	0.02156
1280.62575	0.02157
1279.33998	0.02155
1278.05421	0.02145
1276.76845	0.02129
1275.48268	0.02113
1274.19691	0.02098
1272.91114	0.02084
1271.62537	0.02069
1270.33960	0.02058
1269.05383	0.02052
1267.76806	0.02049
1266.48229	0.02042
1265.19653	0.02029
1263.91076	0.02013
1262.62499	0.01998
1261.33922	0.01987
1260.05345	0.01980
1258.76768	0.01975
1257.48191	0.01969
1256.19614	0.01964
1254.91037	0.01961
1253.62461	0.01955
1252.33884	0.01947
1251.05307	0.01938
1249.76730	0.01931
1248.48153	0.01924
1247.19576	0.01919
1245.90999	0.01914
1244.62422	0.01910
1243.33846	0.01903
1242.05269	0.01895
1240.76692	0.01888
1239.48115	0.01883
1238.19538	0.01878
1236.90961	0.01872
1235.62384	0.01865
1234.33807	0.01857
1233.05230	0.01850
1231.76654	0.01843
1230.48077	0.01834
1229.19500	0.01824
1227.90923	0.01813
1226.62346	0.01802
1225.33769	0.01790
1224.05192	0.01781
1222.76615	0.01775
1221.48039	0.01771
1220.19462	0.01769
1218.90885	0.01768
1217.62308	0.01768
1216.33731	0.01767
1215.05154	0.01764
1213.76577	0.01757
1212.48000	0.01747
1211.19423	0.01737
1209.90847	0.01729
1208.62270	0.01724
1207.33693	0.01722
1206.05116	0.01718
1204.76539	0.01712
1203.47962	0.01709
1202.19385	0.01709
1200.90808	0.01716
1199.62232	0.01727
1198.33655	0.01729
1197.05078	0.01727
1195.76501	0.01723
1194.47924	0.01721
1193.19347	0.01722
1191.90770	0.01722
1190.62193	0.01718
1189.33616	0.01709
1188.05040	0.01699
1186.76463	0.01693
1185.47886	0.01691
1184.19309	0.01692
1182.90732	0.01697
1181.62155	0.01709
1180.33578	0.01724
1179.05001	0.01739
1177.76425	0.01750
1176.47848	0.01759
1175.19271	0.01769
1173.90694	0.01782
1172.62117	0.01797
1171.33540	0.01815
1170.04963	0.01833
1168.76386	0.01853
1167.47809	0.01875
1166.19233	0.01899
1164.90656	0.01924
1163.62079	0.01948
1162.33502	0.01970
1161.04925	0.01993
1159.76348	0.02019
1158.47771	0.02049
1157.19194	0.02080
1155.90618	0.02113
1154.62041	0.02151
1153.33464	0.02190
1152.04887	0.02228
1150.76310	0.02267
1149.47733	0.02315
1148.19156	0.02374
1146.90579	0.02441
1145.62002	0.02513
1144.33426	0.02589
1143.04849	0.02675
1141.76272	0.02775
1140.47695	0.02885
1139.19118	0.03004
1137.90541	0.03127
1136.61964	0.03257
1135.33387	0.03399
1134.04811	0.03557
1132.76234	0.03739
1131.47657	0.03944
1130.19080	0.04169
1128.90503	0.04413
1127.61926	0.04676
1126.33349	0.04960
1125.04772	0.05258
1123.76195	0.05567
1122.47619	0.05886
1121.19042	0.06215
1119.90465	0.06557
1118.61888	0.06911
1117.33311	0.07279
1116.04734	0.07660
1114.76157	0.08051
1113.47580	0.08446
1112.19004	0.08833
1110.90427	0.09204
1109.61850	0.09562
1108.33273	0.09909
1107.04696	0.10248
1105.76119	0.10578
1104.47542	0.10906
1103.18965	0.11238
1101.90388	0.11573
1100.61812	0.11902
1099.33235	0.12216
1098.04658	0.12515
1096.76081	0.12806
1095.47504	0.13096
1094.18927	0.13380
1092.90350	0.13649
1091.61773	0.13898
1090.33197	0.14130
1089.04620	0.14351
1087.76043	0.14567
1086.47466	0.14781
1085.18889	0.14999
1083.90312	0.15224
1082.61735	0.15460
1081.33158	0.15708
1080.04581	0.15967
1078.76005	0.16238
1077.47428	0.16523
1076.18851	0.16822
1074.90274	0.17135
1073.61697	0.17460
1072.33120	0.17798
1071.04543	0.18149
1069.75966	0.18515
1068.47390	0.18892
1067.18813	0.19276
1065.90236	0.19663
1064.61659	0.20051
1063.33082	0.20441
1062.04505	0.20833
1060.75928	0.21227
1059.47351	0.21622
1058.18774	0.22014
1056.90198	0.22399
1055.61621	0.22777
1054.33044	0.23146
1053.04467	0.23513
1051.75890	0.23880
1050.47313	0.24251
1049.18736	0.24628
1047.90159	0.25009
1046.61583	0.25394
1045.33006	0.25783
1044.04429	0.26183
1042.75852	0.26593
1041.47275	0.27012
1040.18698	0.27433
1038.90121	0.27848
1037.61544	0.28251
1036.32967	0.28643
1035.04391	0.29027
1033.75814	0.29403
1032.47237	0.29763
1031.18660	0.30094
1029.90083	0.30388
1028.61506	0.30642
1027.32929	0.30862
1026.04352	0.31055
1024.75775	0.31219
1023.47199	0.31348
1022.18622	0.31431
1020.90045	0.31466
1019.61468	0.31451
1018.32891	0.31381
1017.04314	0.31251
1015.75737	0.31060
1014.47160	0.30810
1013.18584	0.30502
1011.90007	0.30140
1010.61430	0.29727
1009.32853	0.29262
1008.04276	0.28743
1006.75699	0.28172
1005.47122	0.27557
1004.18545	0.26908
1002.89968	0.26230
1001.61392	0.25520
1000.32815	0.24779
999.04238	0.24015
997.75661	0.23239
996.47084	0.22460
995.18507	0.21684
993.89930	0.20915
992.61353	0.20155
991.32777	0.19403
990.04200	0.18659
988.75623	0.17929
987.47046	0.17223
986.18469	0.16551
984.89892	0.15918
983.61315	0.15321
982.32738	0.14756
981.04161	0.14221
979.75585	0.13716
978.47008	0.13240
977.18431	0.12794
975.89854	0.12388
974.61277	0.12034
973.32700	0.11739
972.04123	0.11504
970.75546	0.11329
969.46970	0.11221
968.18393	0.11181
966.89816	0.11205
965.61239	0.11279
964.32662	0.11379
963.04085	0.11471
961.75508	0.11521
960.46931	0.11503
959.18354	0.11410
957.89778	0.11249
956.61201	0.11038
955.32624	0.10794
954.04047	0.10530
952.75470	0.10253
951.46893	0.09965
950.18316	0.09673
948.89739	0.09386
947.61163	0.09115
946.32586	0.08860
945.04009	0.08613
943.75432	0.08369
942.46855	0.08127
941.18278	0.07894
939.89701	0.07676
938.61124	0.07474
937.32547	0.07285
936.03971	0.07106
934.75394	0.06937
933.46817	0.06777
932.18240	0.06624
930.89663	0.06476
929.61086	0.06336
928.32509	0.06208
927.03932	0.06095
925.75356	0.05995
924.46779	0.05901
923.18202	0.05810
921.89625	0.05720
920.61048	0.05635
919.32471	0.05554
918.03894	0.05474
916.75317	0.05393
915.46740	0.05310
914.18164	0.05230
912.89587	0.05154
911.61010	0.05088
910.32433	0.05034
909.03856	0.04989
907.75279	0.04948
906.46702	0.04905
905.18125	0.04855
903.89549	0.04800
902.60972	0.04750
901.32395	0.04710
900.03818	0.04677
898.75241	0.04641
897.46664	0.04596
896.18087	0.04550
894.89510	0.04518
893.60933	0.04508
892.32357	0.04519
891.03780	0.04538
889.75203	0.04562
888.46626	0.04595
887.18049	0.04658
885.89472	0.04775
884.60895	0.04969
883.32318	0.05245
882.03742	0.05579
880.75165	0.05919
879.46588	0.06210
878.18011	0.06438
876.89434	0.06632
875.60857	0.06832
874.32280	0.07039
873.03703	0.07210
871.75126	0.07291
870.46550	0.07261
869.17973	0.07128
867.89396	0.06919
866.60819	0.06661
865.32242	0.06381
864.03665	0.06103
862.75088	0.05840
861.46511	0.05597
860.17935	0.05371
858.89358	0.05168
857.60781	0.04992
856.32204	0.04848
855.03627	0.04733
853.75050	0.04642
852.46473	0.04564
851.17896	0.04494
849.89319	0.04430
848.60743	0.04374
847.32166	0.04323
846.03589	0.04276
844.75012	0.04230
843.46435	0.04185
842.17858	0.04146
840.89281	0.04111
839.60704	0.04076
838.32128	0.04040
837.03551	0.04004
835.74974	0.03971
834.46397	0.03942
833.17820	0.03914
831.89243	0.03888
830.60666	0.03864
829.32089	0.03843
828.03512	0.03821
826.74936	0.03803
825.46359	0.03789
824.17782	0.03781
822.89205	0.03773
821.60628	0.03763
820.32051	0.03754
819.03474	0.03744
817.74897	0.03728
816.46321	0.03705
815.17744	0.03680
813.89167	0.03664
812.60590	0.03660
811.32013	0.03656
810.03436	0.03647
808.74859	0.03637
807.46282	0.03633
806.17705	0.03631
804.89129	0.03623
803.60552	0.03610
802.31975	0.03600
801.03398	0.03599
799.74821	0.03602
798.46244	0.03601
797.17667	0.03593
795.89090	0.03581
794.60513	0.03566
793.31937	0.03551
792.03360	0.03536
790.74783	0.03529
789.46206	0.03527
788.17629	0.03524
786.89052	0.03515
785.60475	0.03504
784.31898	0.03498
783.03322	0.03498
781.74745	0.03501
780.46168	0.03498
779.17591	0.03486
777.89014	0.03468
776.60437	0.03452
775.31860	0.03442
774.03283	0.03441
772.74706	0.03448
771.46130	0.03458
770.17553	0.03467
768.88976	0.03474
767.60399	0.03475
766.31822	0.03470
765.03245	0.03458
763.74668	0.03444
762.46091	0.03437
761.17515	0.03443
759.88938	0.03456
758.60361	0.03467
757.31784	0.03471
756.03207	0.03479
754.74630	0.03497
753.46053	0.03520
752.17476	0.03535
750.88899	0.03530
749.60323	0.03509
748.31746	0.03486
747.03169	0.03471
745.74592	0.03464
744.46015	0.03461
743.17438	0.03460
741.88861	0.03459
740.60284	0.03457
739.31708	0.03451
738.03131	0.03444
736.74554	0.03438
735.45977	0.03438
734.17400	0.03441
732.88823	0.03443
731.60246	0.03442
730.31669	0.03438
729.03092	0.03432
727.74516	0.03426
726.45939	0.03420
725.17362	0.03418
723.88785	0.03421
722.60208	0.03425
721.31631	0.03427
720.03054	0.03426
718.74477	0.03427
717.45901	0.03426
716.17324	0.03426
714.88747	0.03426
713.60170	0.03422
712.31593	0.03415
711.03016	0.03409
709.74439	0.03405
708.45862	0.03404
707.17285	0.03405
705.88709	0.03404
704.60132	0.03400
703.31555	0.03391
702.02978	0.03379
700.74401	0.03365
699.45824	0.03354
698.17247	0.03349
696.88670	0.03349
695.60094	0.03353
694.31517	0.03362
693.02940	0.03371
691.74363	0.03375
690.45786	0.03369
689.17209	0.03353
687.88632	0.03336
686.60055	0.03325
685.31478	0.03320
684.02902	0.03317
682.74325	0.03312
681.45748	0.03306
680.17171	0.03300
678.88594	0.03297
677.60017	0.03296
676.31440	0.03298
675.02863	0.03302
673.74287	0.03306
672.45710	0.03321
671.17133	0.03367
669.88556	0.03408
668.59979	0.03328
667.31402	0.03314
666.02825	0.03420
664.74248	0.03371
663.45671	0.03312
662.17095	0.03288
660.88518	0.03271
659.59941	0.03252
658.31364	0.03230
657.02787	0.03208
655.74210	0.03187
654.45633	0.03173
653.17056	0.03165
651.88480	0.03162
650.59903	0.03164
649.31326	0.03168
648.02749	0.03174
646.74172	0.03177
645.45595	0.03174
644.17018	0.03169
642.88441	0.03169
641.59864	0.03178
640.31288	0.03195
639.02711	0.03215
637.74134	0.03236
636.45557	0.03263
635.16980	0.03302
633.88403	0.03357
632.59826	0.03419
631.31249	0.03473
630.02673	0.03492
628.74096	0.03497
627.45519	0.03600
626.16942	0.03649
624.88365	0.03685
623.59788	0.03769
622.31211	0.03912
621.02634	0.04117
619.74057	0.04410
618.45481	0.04827
617.16904	0.05355
615.88327	0.05902
614.59750	0.06369
613.31173	0.06741
612.02596	0.07124
610.74019	0.07646
609.45442	0.08317
608.16866	0.09020
606.88289	0.09664
605.59712	0.10235
604.31135	0.10710
603.02558	0.11022
601.73981	0.11134
600.45404	0.11077
599.16827	0.10902
597.88250	0.10639
596.59674	0.10306
595.31097	0.09945
594.02520	0.09616
592.73943	0.09367
591.45366	0.09210
590.16789	0.09133
588.88212	0.09127
587.59635	0.09191
586.31059	0.09323
585.02482	0.09511
583.73905	0.09736
582.45328	0.09988
581.16751	0.10268
579.88174	0.10576
578.59597	0.10904
577.31020	0.11235
576.02443	0.11551
574.73867	0.11842
573.45290	0.12111
572.16713	0.12373
570.88136	0.12653
569.59559	0.12978
568.30982	0.13357
567.02405	0.13774
565.73828	0.14178
564.45251	0.14507
563.16675	0.14710
561.88098	0.14761
560.59521	0.14653
559.30944	0.14380
558.02367	0.13950
556.73790	0.13391
555.45213	0.12752
554.16636	0.12082
552.88060	0.11418
551.59483	0.10779
550.30906	0.10175
549.02329	0.09619
547.73752	0.09119
546.45175	0.08679
545.16598	0.08287
543.88021	0.07927
542.59444	0.07593
541.30868	0.07289
540.02291	0.07021
538.73714	0.06785
537.45137	0.06568
536.16560	0.06358
534.87983	0.06153
533.59406	0.05964
532.30829	0.05793
531.02253	0.05636
529.73676	0.05485
528.45099	0.05339
527.16522	0.05199
525.87945	0.05063
524.59368	0.04929
523.30791	0.04795
522.02214	0.04668
520.73637	0.04554
519.45061	0.04450
518.16484	0.04354
516.87907	0.04262
515.59330	0.04174
514.30753	0.04091
513.02176	0.04012
511.73599	0.03938
510.45022	0.03873
509.16446	0.03818
507.87869	0.03772
506.59292	0.03727
505.30715	0.03671
504.02138	0.03604
502.73561	0.03536
501.44984	0.03483
500.16407	0.03447
498.87830	0.03423
497.59254	0.03402
496.30677	0.03377
495.02100	0.03351
493.73523	0.03321
492.44946	0.03288
491.16369	0.03253
489.87792	0.03222
488.59215	0.03203
487.30639	0.03195
486.02062	0.03198
484.73485	0.03207
483.44908	0.03220
482.16331	0.03235
480.87754	0.03251
479.59177	0.03267
478.30600	0.03281
477.02023	0.03296
475.73447	0.03316
474.44870	0.03346
473.16293	0.03381
471.87716	0.03410
470.59139	0.03420
469.30562	0.03406
468.01985	0.03372
466.73408	0.03331
465.44832	0.03292
464.16255	0.03259
462.87678	0.03225
461.59101	0.03185
460.30524	0.03140
459.01947	0.03097
457.73370	0.03062
456.44793	0.03031
455.16216	0.02998
453.87640	0.02962
452.59063	0.02927
451.30486	0.02897
450.01909	0.02870
448.73332	0.02847
447.44755	0.02831
446.16178	0.02823
444.87601	0.02820
443.59025	0.02816
442.30448	0.02806
441.01871	0.02791
439.73294	0.02770
438.44717	0.02748
437.16140	0.02730
435.87563	0.02717
434.58986	0.02709
433.30409	0.02700
432.01833	0.02690
430.73256	0.02679
429.44679	0.02672
428.16102	0.02666
426.87525	0.02655
425.58948	0.02637
424.30371	0.02616
423.01794	0.02598
421.73218	0.02583
420.44641	0.02569
419.16064	0.02558
417.87487	0.02552
416.58910	0.02550
415.30333	0.02550
414.01756	0.02549
412.73179	0.02544
411.44602	0.02539
410.16026	0.02536
408.87449	0.02536
407.58872	0.02540
406.30295	0.02543
405.01718	0.02546
403.73141	0.02551
402.44564	0.02562
401.15987	0.02578
399.87411	0.02597
