3997.45528	0.02541
3996.16951	0.02584
3994.88374	0.02613
3993.59798	0.02627
3992.31221	0.02641
3991.02644	0.02663
3989.74067	0.02678
3988.45490	0.02663
3987.16913	0.02617
3985.88336	0.02569
3984.59759	0.02555
3983.31183	0.02581
3982.02606	0.02622
3980.74029	0.02651
3979.45452	0.02674
3978.16875	0.02709
3976.88298	0.02752
3975.59721	0.02776
3974.31144	0.02767
3973.02567	0.02736
3971.73991	0.02705
3970.45414	0.02683
3969.16837	0.02667
3967.88260	0.02660
3966.59683	0.02678
3965.31106	0.02726
3964.02529	0.02787
3962.73952	0.02809
3961.45376	0.02750
3960.16799	0.02622
3958.88222	0.02510
3957.59645	0.02496
3956.31068	0.02575
3955.02491	0.02663
3953.73914	0.02694
3952.45337	0.02675
3951.16760	0.02656
3949.88184	0.02656
3948.59607	0.02654
3947.31030	0.02634
3946.02453	0.02602
3944.73876	0.02579
3943.45299	0.02581
3942.16722	0.02615
3940.88145	0.02673
3939.59569	0.02727
3938.30992	0.02759
3937.02415	0.02775
3935.73838	0.02795
3934.45261	0.02815
3933.16684	0.02815
3931.88107	0.02788
3930.59530	0.02754
3929.30953	0.02740
3928.02377	0.02746
3926.73800	0.02751
3925.45223	0.02740
3924.16646	0.02721
3922.88069	0.02716
3921.59492	0.02741
3920.30915	0.02794
3919.02338	0.02848
3917.73762	0.02876
3916.45185	0.02868
3915.16608	0.02835
3913.88031	0.02792
3912.59454	0.02755
3911.30877	0.02737
3910.02300	0.02742
3908.73723	0.02778
3907.45146	0.02842
3906.16570	0.02914
3904.87993	0.02951
3903.59416	0.02916
3902.30839	0.02810
3901.02262	0.02689
3899.73685	0.02625
3898.45108	0.02643
3897.16531	0.02710
3895.87955	0.02783
3894.59378	0.02853
3893.30801	0.02918
3892.02224	0.02957
3890.73647	0.02950
3889.45070	0.02894
3888.16493	0.02808
3886.87916	0.02741
3885.59339	0.02738
3884.30763	0.02781
3883.02186	0.02816
3881.73609	0.02817
3880.45032	0.02808
3879.16455	0.02807
3877.87878	0.02804
3876.59301	0.02798
3875.30724	0.02808
3874.02148	0.02836
3872.73571	0.02845
3871.44994	0.02804
3870.16417	0.02746
3868.87840	0.02719
3867.59263	0.02720
3866.30686	0.02714
3865.02109	0.02690
3863.73532	0.02654
3862.44956	0.02617
3861.16379	0.02612
3859.87802	0.02659
3858.59225	0.02741
3857.30648	0.02819
3856.02071	0.02872
3854.73494	0.02905
3853.44917	0.02919
3852.16341	0.02883
3850.87764	0.02787
3849.59187	0.02697
3848.30610	0.02702
3847.02033	0.02813
3845.73456	0.02966
3844.44879	0.03079
3843.16302	0.03103
3841.87725	0.03030
3840.59149	0.02887
3839.30572	0.02731
3838.01995	0.02632
3836.73418	0.02615
3835.44841	0.02646
3834.16264	0.02682
3832.87687	0.02721
3831.59110	0.02771
3830.30534	0.02819
3829.01957	0.02840
3827.73380	0.02834
3826.44803	0.02832
3825.16226	0.02855
3823.87649	0.02880
3822.59072	0.02889
3821.30495	0.02904
3820.01918	0.02945
3818.73342	0.02982
3817.44765	0.02978
3816.16188	0.02950
3814.87611	0.02917
3813.59034	0.02869
3812.30457	0.02814
3811.01880	0.02795
3809.73303	0.02811
3808.44726	0.02812
3807.16150	0.02785
3805.87573	0.02771
3804.58996	0.02794
3803.30419	0.02841
3802.01842	0.02900
3800.73265	0.02962
3799.44688	0.02986
3798.16111	0.02943
3796.87535	0.02863
3795.58958	0.02797
3794.30381	0.02762
3793.01804	0.02756
3791.73227	0.02777
3790.44650	0.02810
3789.16073	0.02820
3787.87496	0.02783
3786.58919	0.02716
3785.30343	0.02659
3784.01766	0.02632
3782.73189	0.02626
3781.44612	0.02621
3780.16035	0.02616
3778.87458	0.02608
3777.58881	0.02588
3776.30304	0.02559
3775.01728	0.02552
3773.73151	0.02584
3772.44574	0.02631
3771.15997	0.02664
3769.87420	0.02680
3768.58843	0.02697
3767.30266	0.02723
3766.01689	0.02764
3764.73112	0.02815
3763.44536	0.02851
3762.15959	0.02840
3760.87382	0.02782
3759.58805	0.02702
3758.30228	0.02626
3757.01651	0.02580
3755.73074	0.02572
3754.44497	0.02582
3753.15921	0.02596
3751.87344	0.02616
3750.58767	0.02653
3749.30190	0.02719
3748.01613	0.02805
3746.73036	0.02859
3745.44459	0.02849
3744.15882	0.02820
3742.87305	0.02810
3741.58729	0.02806
3740.30152	0.02801
3739.01575	0.02795
3737.72998	0.02775
3736.44421	0.02750
3735.15844	0.02736
3733.87267	0.02714
3732.58690	0.02656
3731.30114	0.02581
3730.01537	0.02534
3728.72960	0.02538
3727.44383	0.02592
3726.15806	0.02667
3724.87229	0.02713
3723.58652	0.02691
3722.30075	0.02618
3721.01498	0.02544
3719.72922	0.02519
3718.44345	0.02565
3717.15768	0.02670
3715.87191	0.02790
3714.58614	0.02870
3713.30037	0.02882
3712.01460	0.02841
3710.72883	0.02776
3709.44307	0.02700
3708.15730	0.02621
3706.87153	0.02549
3705.58576	0.02487
3704.29999	0.02434
3703.01422	0.02408
3701.72845	0.02430
3700.44268	0.02496
3699.15691	0.02564
3697.87115	0.02603
3696.58538	0.02619
3695.29961	0.02632
3694.01384	0.02645
3692.72807	0.02653
3691.44230	0.02638
3690.15653	0.02586
3688.87076	0.02529
3687.58500	0.02512
3686.29923	0.02528
3685.01346	0.02537
3683.72769	0.02536
3682.44192	0.02566
3681.15615	0.02654
3679.87038	0.02782
3678.58461	0.02892
3677.29884	0.02922
3676.01308	0.02867
3674.72731	0.02775
3673.44154	0.02692
3672.15577	0.02646
3670.87000	0.02665
3669.58423	0.02735
3668.29846	0.02787
3667.01269	0.02777
3665.72693	0.02728
3664.44116	0.02688
3663.15539	0.02675
3661.86962	0.02684
3660.58385	0.02707
3659.29808	0.02725
3658.01231	0.02713
3656.72654	0.02674
3655.44077	0.02637
3654.15501	0.02622
3652.86924	0.02616
3651.58347	0.02601
3650.29770	0.02582
3649.01193	0.02577
3647.72616	0.02595
3646.44039	0.02632
3645.15462	0.02677
3643.86886	0.02718
3642.58309	0.02746
3641.29732	0.02754
3640.01155	0.02747
3638.72578	0.02741
3637.44001	0.02750
3636.15424	0.02766
3634.86847	0.02779
3633.58270	0.02783
3632.29694	0.02761
3631.01117	0.02700
3629.72540	0.02640
3628.43963	0.02649
3627.15386	0.02738
3625.86809	0.02849
3624.58232	0.02936
3623.29655	0.02994
3622.01079	0.03026
3620.72502	0.03029
3619.43925	0.03012
3618.15348	0.02996
3616.86771	0.02998
3615.58194	0.03017
3614.29617	0.03046
3613.01040	0.03081
3611.72463	0.03114
3610.43887	0.03131
3609.15310	0.03127
3607.86733	0.03109
3606.58156	0.03084
3605.29579	0.03057
3604.01002	0.03042
3602.72425	0.03057
3601.43848	0.03111
3600.15272	0.03198
3598.86695	0.03301
3597.58118	0.03396
3596.29541	0.03458
3595.00964	0.03457
3593.72387	0.03399
3592.43810	0.03334
3591.15233	0.03317
3589.86656	0.03359
3588.58080	0.03426
3587.29503	0.03474
3586.00926	0.03474
3584.72349	0.03429
3583.43772	0.03377
3582.15195	0.03353
3580.86618	0.03362
3579.58041	0.03380
3578.29464	0.03397
3577.00888	0.03425
3575.72311	0.03478
3574.43734	0.03540
3573.15157	0.03577
3571.86580	0.03576
3570.58003	0.03554
3569.29426	0.03545
3568.00849	0.03560
3566.72273	0.03586
3565.43696	0.03608
3564.15119	0.03621
3562.86542	0.03624
3561.57965	0.03604
3560.29388	0.03558
3559.00811	0.03505
3557.72234	0.03477
3556.43657	0.03489
3555.15081	0.03522
3553.86504	0.03550
3552.57927	0.03564
3551.29350	0.03573
3550.00773	0.03590
3548.72196	0.03627
3547.43619	0.03696
3546.15042	0.03790
3544.86466	0.03874
3543.57889	0.03910
3542.29312	0.03892
3541.00735	0.03855
3539.72158	0.03838
3538.43581	0.03857
3537.15004	0.03891
3535.86427	0.03913
3534.57850	0.03912
3533.29274	0.03911
3532.00697	0.03936
3530.72120	0.03983
3529.43543	0.04019
3528.14966	0.04015
3526.86389	0.03986
3525.57812	0.03969
3524.29235	0.03985
3523.00659	0.04025
3521.72082	0.04066
3520.43505	0.04102
3519.14928	0.04140
3517.86351	0.04190
3516.57774	0.04245
3515.29197	0.04292
3514.00620	0.04318
3512.72043	0.04309
3511.43467	0.04257
3510.14890	0.04175
3508.86313	0.04101
3507.57736	0.04078
3506.29159	0.04114
3505.00582	0.04176
3503.72005	0.04228
3502.43428	0.04257
3501.14852	0.04279
3499.86275	0.04306
3498.57698	0.04333
3497.29121	0.04348
3496.00544	0.04346
3494.71967	0.04344
3493.43390	0.04367
3492.14813	0.04420
3490.86236	0.04476
3489.57660	0.04505
3488.29083	0.04499
3487.00506	0.04475
3485.71929	0.04452
3484.43352	0.04440
3483.14775	0.04447
3481.86198	0.04481
3480.57621	0.04539
3479.29045	0.04597
3478.00468	0.04630
3476.71891	0.04630
3475.43314	0.04616
3474.14737	0.04607
3472.86160	0.04606
3471.57583	0.04607
3470.29006	0.04606
3469.00429	0.04612
3467.71853	0.04626
3466.43276	0.04643
3465.14699	0.04656
3463.86122	0.04663
3462.57545	0.04673
3461.28968	0.04696
3460.00391	0.04735
3458.71814	0.04781
3457.43238	0.04819
3456.14661	0.04837
3454.86084	0.04837
3453.57507	0.04827
3452.28930	0.04818
3451.00353	0.04810
3449.71776	0.04797
3448.43199	0.04783
3447.14622	0.04785
3445.86046	0.04816
3444.57469	0.04863
3443.28892	0.04901
3442.00315	0.04912
3440.71738	0.04901
3439.43161	0.04884
3438.14584	0.04884
3436.86007	0.04919
3435.57431	0.04985
3434.28854	0.05053
3433.00277	0.05092
3431.71700	0.05085
3430.43123	0.05044
3429.14546	0.04994
3427.85969	0.04960
3426.57392	0.04948
3425.28815	0.04953
3424.00239	0.04972
3422.71662	0.04999
3421.43085	0.05026
3420.14508	0.05049
3418.85931	0.05066
3417.57354	0.05075
3416.28777	0.05076
3415.00200	0.05071
3413.71624	0.05056
3412.43047	0.05025
3411.14470	0.04984
3409.85893	0.04961
3408.57316	0.04984
3407.28739	0.05053
3406.00162	0.05136
3404.71585	0.05199
3403.43008	0.05231
3402.14432	0.05250
3400.85855	0.05271
3399.57278	0.05291
3398.28701	0.05287
3397.00124	0.05255
3395.71547	0.05219
3394.42970	0.05205
3393.14393	0.05215
3391.85817	0.05231
3390.57240	0.05242
3389.28663	0.05255
3388.00086	0.05278
3386.71509	0.05306
3385.42932	0.05325
3384.14355	0.05328
3382.85778	0.05324
3381.57201	0.05326
3380.28625	0.05341
3379.00048	0.05373
3377.71471	0.05420
3376.42894	0.05465
3375.14317	0.05494
3373.85740	0.05508
3372.57163	0.05521
3371.28586	0.05544
3370.00010	0.05574
3368.71433	0.05603
3367.42856	0.05624
3366.14279	0.05633
3364.85702	0.05613
3363.57125	0.05554
3362.28548	0.05458
3360.99971	0.05347
3359.71394	0.05255
3358.42818	0.05213
3357.14241	0.05233
3355.85664	0.05302
3354.57087	0.05383
3353.28510	0.05437
3351.99933	0.05451
3350.71356	0.05445
3349.42779	0.05453
3348.14202	0.05494
3346.85626	0.05545
3345.57049	0.05572
3344.28472	0.05568
3342.99895	0.05550
3341.71318	0.05535
3340.42741	0.05518
3339.14164	0.05489
3337.85587	0.05457
3336.57011	0.05444
3335.28434	0.05463
3333.99857	0.05498
3332.71280	0.05520
3331.42703	0.05513
3330.14126	0.05488
3328.85549	0.05468
3327.56972	0.05465
3326.28395	0.05471
3324.99819	0.05473
3323.71242	0.05464
3322.42665	0.05451
3321.14088	0.05444
3319.85511	0.05448
3318.56934	0.05456
3317.28357	0.05463
3315.99780	0.05476
3314.71204	0.05505
3313.42627	0.05550
3312.14050	0.05590
3310.85473	0.05604
3309.56896	0.05588
3308.28319	0.05557
3306.99742	0.05529
3305.71165	0.05513
3304.42588	0.05521
3303.14012	0.05565
3301.85435	0.05634
3300.56858	0.05697
3299.28281	0.05717
3297.99704	0.05680
3296.71127	0.05603
3295.42550	0.05523
3294.13973	0.05477
3292.85397	0.05478
3291.56820	0.05505
3290.28243	0.05526
3288.99666	0.05526
3287.71089	0.05515
3286.42512	0.05516
3285.13935	0.05538
3283.85358	0.05568
3282.56781	0.05584
3281.28205	0.05579
3279.99628	0.05566
3278.71051	0.05563
3277.42474	0.05571
3276.13897	0.05571
3274.85320	0.05547
3273.56743	0.05503
3272.28166	0.05469
3270.99590	0.05466
3269.71013	0.05486
3268.42436	0.05496
3267.13859	0.05475
3265.85282	0.05443
3264.56705	0.05444
3263.28128	0.05495
3261.99551	0.05565
3260.70974	0.05599
3259.42398	0.05573
3258.13821	0.05507
3256.85244	0.05440
3255.56667	0.05390
3254.28090	0.05358
3252.99513	0.05342
3251.70936	0.05340
3250.42359	0.05347
3249.13783	0.05356
3247.85206	0.05363
3246.56629	0.05368
3245.28052	0.05367
3243.99475	0.05360
3242.70898	0.05358
3241.42321	0.05375
3240.13744	0.05412
3238.85167	0.05446
3237.56591	0.05454
3236.28014	0.05425
3234.99437	0.05370
3233.70860	0.05318
3232.42283	0.05296
3231.13706	0.05320
3229.85129	0.05370
3228.56552	0.05404
3227.27976	0.05391
3225.99399	0.05338
3224.70822	0.05278
3223.42245	0.05235
3222.13668	0.05205
3220.85091	0.05177
3219.56514	0.05153
3218.27937	0.05146
3216.99360	0.05161
3215.70784	0.05191
3214.42207	0.05224
3213.13630	0.05245
3211.85053	0.05243
3210.56476	0.05214
3209.27899	0.05176
3207.99322	0.05157
3206.70745	0.05170
3205.42169	0.05200
3204.13592	0.05211
3202.85015	0.05183
3201.56438	0.05132
3200.27861	0.05095
3198.99284	0.05095
3197.70707	0.05123
3196.42130	0.05147
3195.13553	0.05149
3193.84977	0.05145
3192.56400	0.05152
3191.27823	0.05164
3189.99246	0.05149
3188.70669	0.05099
3187.42092	0.05048
3186.13515	0.05038
3184.84938	0.05065
3183.56362	0.05092
3182.27785	0.05090
3180.99208	0.05064
3179.70631	0.05035
3178.42054	0.05009
3177.13477	0.04984
3175.84900	0.04960
3174.56323	0.04939
3173.27746	0.04918
3171.99170	0.04890
3170.70593	0.04861
3169.42016	0.04847
3168.13439	0.04856
3166.84862	0.04872
3165.56285	0.04872
3164.27708	0.04855
3162.99131	0.04840
3161.70555	0.04839
3160.41978	0.04846
3159.13401	0.04845
3157.84824	0.04826
3156.56247	0.04801
3155.27670	0.04787
3153.99093	0.04781
3152.70516	0.04768
3151.41939	0.04741
3150.13363	0.04723
3148.84786	0.04741
3147.56209	0.04790
3146.27632	0.04842
3144.99055	0.04876
3143.70478	0.04885
3142.41901	0.04867
3141.13324	0.04824
3139.84748	0.04771
3138.56171	0.04731
3137.27594	0.04719
3135.99017	0.04729
3134.70440	0.04746
3133.41863	0.04768
3132.13286	0.04791
3130.84709	0.04802
3129.56132	0.04780
3128.27556	0.04725
3126.98979	0.04664
3125.70402	0.04629
3124.41825	0.04627
3123.13248	0.04643
3121.84671	0.04661
3120.56094	0.04667
3119.27517	0.04655
3117.98940	0.04621
3116.70364	0.04580
3115.41787	0.04554
3114.13210	0.04557
3112.84633	0.04582
3111.56056	0.04615
3110.27479	0.04642
3108.98902	0.04652
3107.70325	0.04636
3106.41749	0.04590
3105.13172	0.04532
3103.84595	0.04493
3102.56018	0.04489
3101.27441	0.04513
3099.98864	0.04546
3098.70287	0.04573
3097.41710	0.04589
3096.13133	0.04598
3094.84557	0.04608
3093.55980	0.04622
3092.27403	0.04634
3090.98826	0.04632
3089.70249	0.04611
3088.41672	0.04578
3087.13095	0.04547
3085.84518	0.04527
3084.55942	0.04528
3083.27365	0.04555
3081.98788	0.04600
3080.70211	0.04638
3079.41634	0.04644
3078.13057	0.04613
3076.84480	0.04566
3075.55903	0.04536
3074.27326	0.04535
3072.98750	0.04550
3071.70173	0.04562
3070.41596	0.04561
3069.13019	0.04553
3067.84442	0.04543
3066.55865	0.04538
3065.27288	0.04539
3063.98711	0.04545
3062.70135	0.04548
3061.41558	0.04540
3060.12981	0.04522
3058.84404	0.04506
3057.55827	0.04507
3056.27250	0.04527
3054.98673	0.04549
3053.70096	0.04551
3052.41519	0.04525
3051.12943	0.04481
3049.84366	0.04435
3048.55789	0.04393
3047.27212	0.04358
3045.98635	0.04329
3044.70058	0.04303
3043.41481	0.04281
3042.12904	0.04268
3040.84328	0.04271
3039.55751	0.04296
3038.27174	0.04344
3036.98597	0.04407
3035.70020	0.04464
3034.41443	0.04488
3033.12866	0.04464
3031.84289	0.04403
3030.55712	0.04336
3029.27136	0.04286
3027.98559	0.04258
3026.69982	0.04248
3025.41405	0.04248
3024.12828	0.04250
3022.84251	0.04251
3021.55674	0.04255
3020.27097	0.04268
3018.98521	0.04284
3017.69944	0.04288
3016.41367	0.04269
3015.12790	0.04233
3013.84213	0.04198
3012.55636	0.04176
3011.27059	0.04169
3009.98482	0.04168
3008.69905	0.04162
3007.41329	0.04153
3006.12752	0.04151
3004.84175	0.04161
3003.55598	0.04174
3002.27021	0.04177
3000.98444	0.04172
2999.69867	0.04169
2998.41290	0.04177
2997.12714	0.04190
2995.84137	0.04199
2994.55560	0.04197
2993.26983	0.04179
2991.98406	0.04147
2990.69829	0.04114
2989.41252	0.04105
2988.12675	0.04127
2986.84098	0.04161
2985.55522	0.04181
2984.26945	0.04178
2982.98368	0.04159
2981.69791	0.04138
2980.41214	0.04125
2979.12637	0.04127
2977.84060	0.04142
2976.55483	0.04157
2975.26907	0.04166
2973.98330	0.04180
2972.69753	0.04210
2971.41176	0.04248
2970.12599	0.04279
2968.84022	0.04297
2967.55445	0.04312
2966.26868	0.04334
2964.98291	0.04359
2963.69715	0.04376
2962.41138	0.04382
2961.12561	0.04391
2959.83984	0.04415
2958.55407	0.04448
2957.26830	0.04472
2955.98253	0.04486
2954.69676	0.04509
2953.41100	0.04550
2952.12523	0.04597
2950.83946	0.04626
2949.55369	0.04629
2948.26792	0.04625
2946.98215	0.04629
2945.69638	0.04639
2944.41061	0.04643
2943.12484	0.04638
2941.83908	0.04630
2940.55331	0.04623
2939.26754	0.04613
2937.98177	0.04599
2936.69600	0.04583
2935.41023	0.04568
2934.12446	0.04549
2932.83869	0.04518
2931.55293	0.04467
2930.26716	0.04396
2928.98139	0.04320
2927.69562	0.04256
2926.40985	0.04205
2925.12408	0.04148
2923.83831	0.04069
2922.55254	0.03966
2921.26677	0.03852
2919.98101	0.03745
2918.69524	0.03663
2917.40947	0.03625
2916.12370	0.03646
2914.83793	0.03725
2913.55216	0.03849
2912.26639	0.03999
2910.98062	0.04153
2909.69486	0.04284
2908.40909	0.04369
2907.12332	0.04410
2905.83755	0.04431
2904.55178	0.04449
2903.26601	0.04461
2901.98024	0.04460
2900.69447	0.04458
2899.40870	0.04465
2898.12294	0.04481
2896.83717	0.04489
2895.55140	0.04479
2894.26563	0.04457
2892.97986	0.04432
2891.69409	0.04411
2890.40832	0.04395
2889.12255	0.04382
2887.83678	0.04376
2886.55102	0.04378
2885.26525	0.04384
2883.97948	0.04395
2882.69371	0.04409
2881.40794	0.04421
2880.12217	0.04419
2878.83640	0.04404
2877.55063	0.04392
2876.26487	0.04396
2874.97910	0.04413
2873.69333	0.04429
2872.40756	0.04436
2871.12179	0.04436
2869.83602	0.04427
2868.55025	0.04407
2867.26448	0.04379
2865.97871	0.04351
2864.69295	0.04333
2863.40718	0.04322
2862.12141	0.04311
2860.83564	0.04293
2859.54987	0.04257
2858.26410	0.04188
2856.97833	0.04074
2855.69256	0.03929
2854.40680	0.03787
2853.12103	0.03677
2851.83526	0.03605
2850.54949	0.03569
2849.26372	0.03573
2847.97795	0.03620
2846.69218	0.03703
2845.40641	0.03807
2844.12064	0.03916
2842.83488	0.04018
2841.54911	0.04095
2840.26334	0.04133
2838.97757	0.04131
2837.69180	0.04105
2836.40603	0.04079
2835.12026	0.04065
2833.83449	0.04052
2832.54873	0.04024
2831.26296	0.03983
2829.97719	0.03948
2828.69142	0.03942
2827.40565	0.03959
2826.11988	0.03973
2824.83411	0.03960
2823.54834	0.03920
2822.26257	0.03876
2820.97681	0.03845
2819.69104	0.03832
2818.40527	0.03826
2817.11950	0.03818
2815.83373	0.03807
2814.54796	0.03800
2813.26219	0.03802
2811.97642	0.03808
2810.69066	0.03814
2809.40489	0.03811
2808.11912	0.03798
2806.83335	0.03775
2805.54758	0.03752
2804.26181	0.03731
2802.97604	0.03711
2801.69027	0.03689
2800.40450	0.03674
2799.11874	0.03672
2797.83297	0.03677
2796.54720	0.03678
2795.26143	0.03676
2793.97566	0.03683
2792.68989	0.03704
2791.40412	0.03724
2790.11835	0.03724
2788.83259	0.03698
2787.54682	0.03659
2786.26105	0.03623
2784.97528	0.03597
2783.68951	0.03578
2782.40374	0.03570
2781.11797	0.03587
2779.83220	0.03633
2778.54643	0.03695
2777.26067	0.03747
2775.97490	0.03766
2774.68913	0.03748
2773.40336	0.03707
2772.11759	0.03665
2770.83182	0.03632
2769.54605	0.03606
2768.26028	0.03581
2766.97452	0.03561
2765.68875	0.03555
2764.40298	0.03563
2763.11721	0.03573
2761.83144	0.03576
2760.54567	0.03568
2759.25990	0.03555
2757.97413	0.03540
2756.68836	0.03530
2755.40260	0.03532
2754.11683	0.03545
2752.83106	0.03556
2751.54529	0.03551
2750.25952	0.03529
2748.97375	0.03506
2747.68798	0.03494
2746.40221	0.03488
2745.11645	0.03478
2743.83068	0.03457
2742.54491	0.03438
2741.25914	0.03429
2739.97337	0.03430
2738.68760	0.03433
2737.40183	0.03435
2736.11606	0.03439
2734.83029	0.03449
2733.54453	0.03462
2732.25876	0.03473
2730.97299	0.03476
2729.68722	0.03468
2728.40145	0.03452
2727.11568	0.03436
2725.82991	0.03424
2724.54414	0.03416
2723.25838	0.03407
2721.97261	0.03397
2720.68684	0.03392
2719.40107	0.03392
2718.11530	0.03391
2716.82953	0.03385
2715.54376	0.03377
2714.25799	0.03373
2712.97222	0.03377
2711.68646	0.03387
2710.40069	0.03403
2709.11492	0.03420
2707.82915	0.03430
2706.54338	0.03423
2705.25761	0.03404
2703.97184	0.03380
2702.68607	0.03360
2701.40031	0.03348
2700.11454	0.03345
2698.82877	0.03352
2697.54300	0.03356
2696.25723	0.03350
2694.97146	0.03335
2693.68569	0.03326
2692.39992	0.03328
2691.11415	0.03338
2689.82839	0.03346
2688.54262	0.03348
2687.25685	0.03346
2685.97108	0.03342
2684.68531	0.03333
2683.39954	0.03315
2682.11377	0.03289
2680.82800	0.03258
2679.54224	0.03231
2678.25647	0.03211
2676.97070	0.03205
2675.68493	0.03219
2674.39916	0.03246
2673.11339	0.03270
2671.82762	0.03276
2670.54185	0.03267
2669.25608	0.03254
2667.97032	0.03252
2666.68455	0.03263
2665.39878	0.03285
2664.11301	0.03303
2662.82724	0.03300
2661.54147	0.03275
2660.25570	0.03244
2658.96993	0.03227
2657.68417	0.03227
2656.39840	0.03238
2655.11263	0.03248
2653.82686	0.03247
2652.54109	0.03227
2651.25532	0.03188
2649.96955	0.03148
2648.68378	0.03127
2647.39801	0.03127
2646.11225	0.03137
2644.82648	0.03148
2643.54071	0.03157
2642.25494	0.03156
2640.96917	0.03136
2639.68340	0.03104
2638.39763	0.03078
2637.11186	0.03072
2635.82609	0.03075
2634.54033	0.03067
2633.25456	0.03041
2631.96879	0.03008
2630.68302	0.02984
2629.39725	0.02969
2628.11148	0.02952
2626.82571	0.02929
2625.53994	0.02908
2624.25418	0.02900
2622.96841	0.02905
2621.68264	0.02909
2620.39687	0.02902
2619.11110	0.02882
2617.82533	0.02855
2616.53956	0.02826
2615.25379	0.02794
2613.96802	0.02760
2612.68226	0.02729
2611.39649	0.02710
2610.11072	0.02708
2608.82495	0.02722
2607.53918	0.02750
2606.25341	0.02789
2604.96764	0.02830
2603.68187	0.02854
2602.39611	0.02847
2601.11034	0.02812
2599.82457	0.02771
2598.53880	0.02747
2597.25303	0.02746
2595.96726	0.02755
2594.68149	0.02748
2593.39572	0.02717
2592.10995	0.02686
2590.82419	0.02678
2589.53842	0.02691
2588.25265	0.02692
2586.96688	0.02662
2585.68111	0.02622
2584.39534	0.02610
2583.10957	0.02637
2581.82380	0.02667
2580.53804	0.02664
2579.25227	0.02629
2577.96650	0.02600
2576.68073	0.02607
2575.39496	0.02639
2574.10919	0.02661
2572.82342	0.02653
2571.53765	0.02623
2570.25188	0.02594
2568.96612	0.02581
2567.68035	0.02584
2566.39458	0.02598
2565.10881	0.02616
2563.82304	0.02625
2562.53727	0.02621
2561.25150	0.02608
2559.96573	0.02594
2558.67997	0.02580
2557.39420	0.02566
2556.10843	0.02558
2554.82266	0.02567
2553.53689	0.02592
2552.25112	0.02615
2550.96535	0.02617
2549.67958	0.02591
2548.39381	0.02551
2547.10805	0.02521
2545.82228	0.02516
2544.53651	0.02533
2543.25074	0.02557
2541.96497	0.02572
2540.67920	0.02572
2539.39343	0.02558
2538.10766	0.02536
2536.82190	0.02515
2535.53613	0.02510
2534.25036	0.02535
2532.96459	0.02582
2531.67882	0.02622
2530.39305	0.02637
2529.10728	0.02641
2527.82151	0.02654
2526.53574	0.02671
2525.24998	0.02664
2523.96421	0.02620
2522.67844	0.02559
2521.39267	0.02510
2520.10690	0.02493
2518.82113	0.02503
2517.53536	0.02524
2516.24959	0.02536
2514.96383	0.02535
2513.67806	0.02533
2512.39229	0.02538
2511.10652	0.02549
2509.82075	0.02550
2508.53498	0.02537
2507.24921	0.02512
2505.96344	0.02484
2504.67767	0.02451
2503.39191	0.02415
2502.10614	0.02391
2500.82037	0.02398
2499.53460	0.02435
2498.24883	0.02468
2496.96306	0.02468
2495.67729	0.02447
2494.39152	0.02438
2493.10576	0.02458
2491.81999	0.02494
2490.53422	0.02521
2489.24845	0.02520
2487.96268	0.02496
2486.67691	0.02470
2485.39114	0.02457
2484.10537	0.02451
2482.81960	0.02442
2481.53384	0.02431
2480.24807	0.02426
2478.96230	0.02424
2477.67653	0.02416
2476.39076	0.02404
2475.10499	0.02397
2473.81922	0.02398
2472.53345	0.02403
2471.24769	0.02409
2469.96192	0.02420
2468.67615	0.02442
2467.39038	0.02476
2466.10461	0.02511
2464.81884	0.02527
2463.53307	0.02516
2462.24730	0.02498
2460.96153	0.02491
2459.67577	0.02486
2458.39000	0.02467
2457.10423	0.02431
2455.81846	0.02397
2454.53269	0.02375
2453.24692	0.02359
2451.96115	0.02338
2450.67538	0.02319
2449.38962	0.02307
2448.10385	0.02297
2446.81808	0.02280
2445.53231	0.02263
2444.24654	0.02263
2442.96077	0.02285
2441.67500	0.02308
2440.38923	0.02309
2439.10346	0.02287
2437.81770	0.02265
2436.53193	0.02268
2435.24616	0.02297
2433.96039	0.02329
2432.67462	0.02342
2431.38885	0.02328
2430.10308	0.02297
2428.81731	0.02264
2427.53155	0.02240
2426.24578	0.02231
2424.96001	0.02241
2423.67424	0.02270
2422.38847	0.02317
2421.10270	0.02376
2419.81693	0.02425
2418.53116	0.02440
2417.24539	0.02419
2415.95963	0.02382
2414.67386	0.02358
2413.38809	0.02353
2412.10232	0.02357
2410.81655	0.02362
2409.53078	0.02362
2408.24501	0.02356
2406.95924	0.02347
2405.67347	0.02340
2404.38771	0.02338
2403.10194	0.02336
2401.81617	0.02334
2400.53040	0.02340
2399.24463	0.02356
2397.95886	0.02375
2396.67309	0.02379
2395.38732	0.02361
2394.10156	0.02332
2392.81579	0.02315
2391.53002	0.02322
2390.24425	0.02347
2388.95848	0.02369
2387.67271	0.02370
2386.38694	0.02354
2385.10117	0.02337
2383.81540	0.02336
2382.52964	0.02352
2381.24387	0.02379
2379.95810	0.02410
2378.67233	0.02441
2377.38656	0.02468
2376.10079	0.02484
2374.81502	0.02488
2373.52925	0.02491
2372.24349	0.02507
2370.95772	0.02548
2369.67195	0.02599
2368.38618	0.02647
2367.10041	0.02686
2365.81464	0.02718
2364.52887	0.02733
2363.24310	0.02744
2361.95733	0.02758
2360.67157	0.02782
2359.38580	0.02790
2358.10003	0.02784
2356.81426	0.02767
2355.52849	0.02741
2354.24272	0.02707
2352.95695	0.02662
2351.67118	0.02622
2350.38542	0.02604
2349.09965	0.02598
2347.81388	0.02590
2346.52811	0.02603
2345.24234	0.02635
2343.95657	0.02655
2342.67080	0.02643
2341.38503	0.02636
2340.09926	0.02662
2338.81350	0.02689
2337.52773	0.02696
2336.24196	0.02705
2334.95619	0.02706
2333.67042	0.02663
2332.38465	0.02590
2331.09888	0.02569
2329.81311	0.02580
2328.52735	0.02577
2327.24158	0.02652
2325.95581	0.02759
2324.67004	0.02782
2323.38427	0.02768
2322.09850	0.02730
2320.81273	0.02624
2319.52696	0.02545
2318.24119	0.02495
2316.95543	0.02420
2315.66966	0.02369
2314.38389	0.02328
2313.09812	0.02280
2311.81235	0.02262
2310.52658	0.02254
2309.24081	0.02268
2307.95504	0.02299
2306.66928	0.02309
2305.38351	0.02297
2304.09774	0.02262
2302.81197	0.02224
2301.52620	0.02208
2300.24043	0.02202
2298.95466	0.02195
2297.66889	0.02181
2296.38312	0.02176
2295.09736	0.02195
2293.81159	0.02227
2292.52582	0.02246
2291.24005	0.02231
2289.95428	0.02186
2288.66851	0.02138
2287.38274	0.02117
2286.09697	0.02135
2284.81121	0.02176
2283.52544	0.02209
2282.23967	0.02210
2280.95390	0.02177
2279.66813	0.02123
2278.38236	0.02067
2277.09659	0.02013
2275.81082	0.01965
2274.52505	0.01935
2273.23929	0.01932
2271.95352	0.01943
2270.66775	0.01943
2269.38198	0.01923
2268.09621	0.01894
2266.81044	0.01871
2265.52467	0.01865
2264.23890	0.01884
2262.95314	0.01923
2261.66737	0.01956
2260.38160	0.01949
2259.09583	0.01895
2257.81006	0.01826
2256.52429	0.01773
2255.23852	0.01730
2253.95275	0.01675
2252.66698	0.01615
2251.38122	0.01589
2250.09545	0.01627
2248.80968	0.01705
2247.52391	0.01774
2246.23814	0.01768
2244.95237	0.01699
2243.66660	0.01622
2242.38083	0.01577
2241.09507	0.01570
2239.80930	0.01588
2238.52353	0.01620
2237.23776	0.01654
2235.95199	0.01669
2234.66622	0.01651
2233.38045	0.01609
2232.09468	0.01563
2230.80891	0.01516
2229.52315	0.01457
2228.23738	0.01385
2226.95161	0.01316
2225.66584	0.01266
2224.38007	0.01233
2223.09430	0.01209
2221.80853	0.01197
2220.52276	0.01209
2219.23700	0.01254
2217.95123	0.01326
2216.66546	0.01402
2215.37969	0.01457
2214.09392	0.01477
2212.80815	0.01461
2211.52238	0.01417
2210.23661	0.01366
2208.95084	0.01336
2207.66508	0.01338
2206.37931	0.01357
2205.09354	0.01373
2203.80777	0.01389
2202.52200	0.01419
2201.23623	0.01451
2199.95046	0.01451
2198.66469	0.01401
2197.37893	0.01325
2196.09316	0.01263
2194.80739	0.01228
2193.52162	0.01202
2192.23585	0.01183
2190.95008	0.01197
2189.66431	0.01254
2188.37854	0.01293
2187.09277	0.01240
2185.80701	0.01104
2184.52124	0.00969
2183.23547	0.00904
2181.94970	0.00899
2180.66393	0.00914
2179.37816	0.00924
2178.09239	0.00921
2176.80662	0.00906
2175.52085	0.00900
2174.23509	0.00934
2172.94932	0.01017
2171.66355	0.01128
2170.37778	0.01231
2169.09201	0.01293
2167.80624	0.01291
2166.52047	0.01219
2165.23470	0.01099
2163.94894	0.00977
2162.66317	0.00882
2161.37740	0.00805
2160.09163	0.00721
2158.80586	0.00642
2157.52009	0.00609
2156.23432	0.00623
2154.94855	0.00636
2153.66278	0.00620
2152.37702	0.00617
2151.09125	0.00676
2149.80548	0.00785
2148.51971	0.00890
2147.23394	0.00958
2145.94817	0.01008
2144.66240	0.01067
2143.37663	0.01120
2142.09087	0.01118
2140.80510	0.01046
2139.51933	0.00949
2138.23356	0.00891
2136.94779	0.00904
2135.66202	0.00984
2134.37625	0.01109
2133.09048	0.01234
2131.80471	0.01302
2130.51895	0.01297
2129.23318	0.01256
2127.94741	0.01222
2126.66164	0.01201
2125.37587	0.01188
2124.09010	0.01188
2122.80433	0.01215
2121.51856	0.01259
2120.23280	0.01293
2118.94703	0.01302
2117.66126	0.01295
2116.37549	0.01291
2115.08972	0.01309
2113.80395	0.01348
2112.51818	0.01388
2111.23241	0.01404
2109.94664	0.01384
2108.66088	0.01341
2107.37511	0.01298
2106.08934	0.01271
2104.80357	0.01259
2103.51780	0.01253
2102.23203	0.01239
2100.94626	0.01204
2099.66049	0.01262
2098.37473	0.01259
2097.08896	0.01219
2095.80319	0.01194
2094.51742	0.01191
2093.23165	0.01206
2091.94588	0.01229
2090.66011	0.01248
2089.37434	0.01257
2088.08857	0.01258
2086.80281	0.01259
2085.51704	0.01264
2084.23127	0.01264
2082.94550	0.01248
2081.65973	0.01207
2080.37396	0.01152
2079.08819	0.01115
2077.80242	0.01124
2076.51666	0.01175
2075.23089	0.01235
2073.94512	0.01264
2072.65935	0.01255
2071.37358	0.01238
2070.08781	0.01251
2068.80204	0.01299
2067.51627	0.01341
2066.23050	0.01332
2064.94474	0.01274
2063.65897	0.01205
2062.37320	0.01151
2061.08743	0.01110
2059.80166	0.01072
2058.51589	0.01037
2057.23012	0.01008
2055.94435	0.00974
2054.65859	0.00926
2053.37282	0.00874
2052.08705	0.00836
2050.80128	0.00819
2049.51551	0.00810
2048.22974	0.00799
2046.94397	0.00800
2045.65820	0.00829
2044.37243	0.00864
2043.08667	0.00850
2041.80090	0.00760
2040.51513	0.00641
2039.22936	0.00575
2037.94359	0.00596
2036.65782	0.00667
2035.37205	0.00731
2034.08628	0.00761
2032.80052	0.00772
2031.51475	0.00788
2030.22898	0.00828
2028.94321	0.00887
2027.65744	0.00942
2026.37167	0.00958
2025.08590	0.00921
2023.80013	0.00846
2022.51436	0.00773
2021.22860	0.00733
2019.94283	0.00720
2018.65706	0.00698
2017.37129	0.00641
2016.08552	0.00563
2014.79975	0.00510
2013.51398	0.00527
2012.22821	0.00630
2010.94245	0.00800
2009.65668	0.00976
2008.37091	0.01080
2007.08514	0.01067
2005.79937	0.00960
2004.51360	0.00832
2003.22783	0.00746
2001.94206	0.00728
2000.65629	0.00772
1999.37053	0.00850
1998.08476	0.00917
1996.79899	0.00937
1995.51322	0.00918
1994.22745	0.00913
1992.94168	0.00961
1991.65591	0.01049
1990.37014	0.01122
1989.08438	0.01143
1987.79861	0.01117
1986.51284	0.01077
1985.22707	0.01047
1983.94130	0.01049
1982.65553	0.01106
1981.36976	0.01232
1980.08399	0.01393
1978.79822	0.01518
1977.51246	0.01546
1976.22669	0.01485
1974.94092	0.01388
1973.65515	0.01304
1972.36938	0.01242
1971.08361	0.01200
1969.79784	0.01176
1968.51207	0.01171
1967.22631	0.01182
1965.94054	0.01200
1964.65477	0.01210
1963.36900	0.01192
1962.08323	0.01130
1960.79746	0.01036
1959.51169	0.00944
1958.22592	0.00892
1956.94015	0.00899
1955.65439	0.00954
1954.36862	0.01033
1953.08285	0.01107
1951.79708	0.01161
1950.51131	0.01186
1949.22554	0.01184
1947.93977	0.01161
1946.65400	0.01129
1945.36823	0.01108
1944.08247	0.01110
1942.79670	0.01141
1941.51093	0.01193
1940.22516	0.01249
1938.93939	0.01291
1937.65362	0.01313
1936.36785	0.01315
1935.08208	0.01305
1933.79632	0.01296
1932.51055	0.01296
1931.22478	0.01312
1929.93901	0.01340
1928.65324	0.01366
1927.36747	0.01366
1926.08170	0.01328
1924.79593	0.01266
1923.51016	0.01222
1922.22440	0.01222
1920.93863	0.01257
1919.65286	0.01288
1918.36709	0.01304
1917.08132	0.01322
1915.79555	0.01362
1914.50978	0.01418
1913.22401	0.01465
1911.93825	0.01484
1910.65248	0.01476
1909.36671	0.01456
1908.08094	0.01440
1906.79517	0.01431
1905.50940	0.01430
1904.22363	0.01434
1902.93786	0.01439
1901.65209	0.01439
1900.36633	0.01436
1899.08056	0.01434
1897.79479	0.01436
1896.50902	0.01434
1895.22325	0.01418
1893.93748	0.01392
1892.65171	0.01365
1891.36594	0.01349
1890.08018	0.01352
1888.79441	0.01375
1887.50864	0.01405
1886.22287	0.01420
1884.93710	0.01411
1883.65133	0.01387
1882.36556	0.01367
1881.07979	0.01364
1879.79402	0.01376
1878.50826	0.01394
1877.22249	0.01412
1875.93672	0.01430
1874.65095	0.01451
1873.36518	0.01472
1872.07941	0.01488
1870.79364	0.01494
1869.50787	0.01487
1868.22211	0.01468
1866.93634	0.01439
1865.65057	0.01413
1864.36480	0.01402
1863.07903	0.01414
1861.79326	0.01438
1860.50749	0.01453
1859.22172	0.01449
1857.93595	0.01428
1856.65019	0.01407
1855.36442	0.01397
1854.07865	0.01395
1852.79288	0.01396
1851.50711	0.01396
1850.22134	0.01399
1848.93557	0.01408
1847.64980	0.01420
1846.36404	0.01428
1845.07827	0.01431
1843.79250	0.01436
1842.50673	0.01443
1841.22096	0.01441
1839.93519	0.01426
1838.64942	0.01403
1837.36365	0.01387
1836.07788	0.01385
1834.79212	0.01399
1833.50635	0.01422
1832.22058	0.01443
1830.93481	0.01458
1829.64904	0.01471
1828.36327	0.01485
1827.07750	0.01497
1825.79173	0.01509
1824.50597	0.01528
1823.22020	0.01553
1821.93443	0.01574
1820.64866	0.01583
1819.36289	0.01575
1818.07712	0.01550
1816.79135	0.01513
1815.50558	0.01469
1814.21981	0.01423
1812.93405	0.01380
1811.64828	0.01353
1810.36251	0.01349
1809.07674	0.01362
1807.79097	0.01380
1806.50520	0.01395
1805.21943	0.01407
1803.93366	0.01419
1802.64790	0.01429
1801.36213	0.01436
1800.07636	0.01438
1798.79059	0.01436
1797.50482	0.01432
1796.21905	0.01430
1794.93328	0.01433
1793.64751	0.01441
1792.36174	0.01456
1791.07598	0.01473
1789.79021	0.01481
1788.50444	0.01477
1787.21867	0.01470
1785.93290	0.01467
1784.64713	0.01471
1783.36136	0.01474
1782.07559	0.01472
1780.78983	0.01463
1779.50406	0.01453
1778.21829	0.01448
1776.93252	0.01452
1775.64675	0.01462
1774.36098	0.01470
1773.07521	0.01469
1771.78944	0.01461
1770.50367	0.01444
1769.21791	0.01421
1767.93214	0.01401
1766.64637	0.01398
1765.36060	0.01405
1764.07483	0.01410
1762.78906	0.01405
1761.50329	0.01394
1760.21752	0.01379
1758.93176	0.01362
1757.64599	0.01347
1756.36022	0.01343
1755.07445	0.01344
1753.78868	0.01336
1752.50291	0.01312
1751.21714	0.01286
1749.93137	0.01267
1748.64560	0.01247
1747.35984	0.01217
1746.07407	0.01175
1744.78830	0.01130
1743.50253	0.01094
1742.21676	0.01074
1740.93099	0.01067
1739.64522	0.01076
1738.35945	0.01102
1737.07369	0.01133
1735.78792	0.01153
1734.50215	0.01168
1733.21638	0.01188
1731.93061	0.01204
1730.64484	0.01203
1729.35907	0.01190
1728.07330	0.01186
1726.78753	0.01195
1725.50177	0.01215
1724.21600	0.01241
1722.93023	0.01275
1721.64446	0.01316
1720.35869	0.01352
1719.07292	0.01377
1717.78715	0.01399
1716.50138	0.01424
1715.21561	0.01446
1713.92985	0.01459
1712.64408	0.01468
1711.35831	0.01483
1710.07254	0.01509
1708.78677	0.01545
1707.50100	0.01585
1706.21523	0.01632
1704.92946	0.01696
1703.64370	0.01776
1702.35793	0.01852
1701.07216	0.01918
1699.78639	0.01992
1698.50062	0.02065
1697.21485	0.02117
1695.92908	0.02152
1694.64331	0.02195
1693.35754	0.02243
1692.07178	0.02284
1690.78601	0.02332
1689.50024	0.02406
1688.21447	0.02501
1686.92870	0.02593
1685.64293	0.02668
1684.35716	0.02737
1683.07139	0.02803
1681.78563	0.02855
1680.49986	0.02894
1679.21409	0.02941
1677.92832	0.03005
1676.64255	0.03071
1675.35678	0.03130
1674.07101	0.03189
1672.78524	0.03249
1671.49947	0.03313
1670.21371	0.03382
1668.92794	0.03453
1667.64217	0.03522
1666.35640	0.03582
1665.07063	0.03635
1663.78486	0.03684
1662.49909	0.03733
1661.21332	0.03780
1659.92756	0.03824
1658.64179	0.03874
1657.35602	0.03945
1656.07025	0.04026
1654.78448	0.04091
1653.49871	0.04132
1652.21294	0.04163
1650.92717	0.04185
1649.64140	0.04190
1648.35564	0.04184
1647.06987	0.04184
1645.78410	0.04194
1644.49833	0.04200
1643.21256	0.04196
1641.92679	0.04185
1640.64102	0.04180
1639.35525	0.04183
1638.06949	0.04180
1636.78372	0.04159
1635.49795	0.04125
1634.21218	0.04085
1632.92641	0.04039
1631.64064	0.03990
1630.35487	0.03948
1629.06910	0.03915
1627.78333	0.03886
1626.49757	0.03853
1625.21180	0.03811
1623.92603	0.03765
1622.64026	0.03724
1621.35449	0.03693
1620.06872	0.03665
1618.78295	0.03637
1617.49718	0.03614
1616.21142	0.03604
1614.92565	0.03599
1613.63988	0.03585
1612.35411	0.03561
1611.06834	0.03542
1609.78257	0.03535
1608.49680	0.03537
1607.21103	0.03542
1605.92526	0.03547
1604.63950	0.03549
1603.35373	0.03549
1602.06796	0.03550
1600.78219	0.03555
1599.49642	0.03567
1598.21065	0.03588
1596.92488	0.03615
1595.63911	0.03646
1594.35335	0.03682
1593.06758	0.03721
1591.78181	0.03759
1590.49604	0.03790
1589.21027	0.03815
1587.92450	0.03839
1586.63873	0.03870
1585.35296	0.03910
1584.06719	0.03955
1582.78143	0.04001
1581.49566	0.04052
1580.20989	0.04113
1578.92412	0.04178
1577.63835	0.04236
1576.35258	0.04288
1575.06681	0.04345
1573.78104	0.04401
1572.49528	0.04446
1571.20951	0.04484
1569.92374	0.04524
1568.63797	0.04570
1567.35220	0.04613
1566.06643	0.04650
1564.78066	0.04692
1563.49489	0.04749
1562.20912	0.04816
1560.92336	0.04878
1559.63759	0.04933
1558.35182	0.04982
1557.06605	0.05013
1555.78028	0.05012
1554.49451	0.04992
1553.20874	0.04976
1551.92297	0.04966
1550.63721	0.04951
1549.35144	0.04934
1548.06567	0.04919
1546.77990	0.04907
1545.49413	0.04900
1544.20836	0.04897
1542.92259	0.04891
1541.63682	0.04866
1540.35105	0.04821
1539.06529	0.04768
1537.77952	0.04719
1536.49375	0.04668
1535.20798	0.04612
1533.92221	0.04564
1532.63644	0.04532
1531.35067	0.04508
1530.06490	0.04487
1528.77914	0.04473
1527.49337	0.04473
1526.20760	0.04487
1524.92183	0.04514
1523.63606	0.04542
1522.35029	0.04564
1521.06452	0.04586
1519.77875	0.04610
1518.49298	0.04632
1517.20722	0.04653
1515.92145	0.04686
1514.63568	0.04730
1513.34991	0.04781
1512.06414	0.04841
1510.77837	0.04917
1509.49260	0.05000
1508.20683	0.05079
1506.92107	0.05152
1505.63530	0.05221
1504.34953	0.05282
1503.06376	0.05327
1501.77799	0.05366
1500.49222	0.05415
1499.20645	0.05474
1497.92068	0.05527
1496.63491	0.05570
1495.34915	0.05608
1494.06338	0.05648
1492.77761	0.05687
1491.49184	0.05726
1490.20607	0.05771
1488.92030	0.05821
1487.63453	0.05872
1486.34876	0.05925
1485.06299	0.05984
1483.77723	0.06051
1482.49146	0.06126
1481.20569	0.06207
1479.91992	0.06292
1478.63415	0.06376
1477.34838	0.06459
1476.06261	0.06537
1474.77684	0.06602
1473.49108	0.06649
1472.20531	0.06690
1470.91954	0.06735
1469.63377	0.06785
1468.34800	0.06838
1467.06223	0.06895
1465.77646	0.06958
1464.49069	0.07027
1463.20492	0.07099
1461.91916	0.07174
1460.63339	0.07257
1459.34762	0.07350
1458.06185	0.07446
1456.77608	0.07541
1455.49031	0.07631
1454.20454	0.07702
1452.91877	0.07750
1451.63301	0.07788
1450.34724	0.07823
1449.06147	0.07855
1447.77570	0.07883
1446.48993	0.07904
1445.20416	0.07914
1443.91839	0.07913
1442.63262	0.07904
1441.34685	0.07897
1440.06109	0.07893
1438.77532	0.07889
1437.48955	0.07884
1436.20378	0.07886
1434.91801	0.07900
1433.63224	0.07926
1432.34647	0.07966
1431.06070	0.08023
1429.77494	0.08096
1428.48917	0.08178
1427.20340	0.08262
1425.91763	0.08350
1424.63186	0.08445
1423.34609	0.08549
1422.06032	0.08655
1420.77455	0.08752
1419.48878	0.08840
1418.20302	0.08919
1416.91725	0.08982
1415.63148	0.09029
1414.34571	0.09067
1413.05994	0.09101
1411.77417	0.09124
1410.48840	0.09128
1409.20263	0.09112
1407.91687	0.09077
1406.63110	0.09025
1405.34533	0.08957
1404.05956	0.08872
1402.77379	0.08772
1401.48802	0.08658
1400.20225	0.08532
1398.91648	0.08394
1397.63071	0.08246
1396.34495	0.08085
1395.05918	0.07915
1393.77341	0.07744
1392.48764	0.07572
1391.20187	0.07401
1389.91610	0.07233
1388.63033	0.07068
1387.34456	0.06909
1386.05880	0.06753
1384.77303	0.06596
1383.48726	0.06438
1382.20149	0.06280
1380.91572	0.06125
1379.62995	0.05973
1378.34418	0.05825
1377.05841	0.05678
1375.77264	0.05527
1374.48688	0.05371
1373.20111	0.05215
1371.91534	0.05064
1370.62957	0.04919
1369.34380	0.04782
1368.05803	0.04656
1366.77226	0.04541
1365.48649	0.04434
1364.20073	0.04328
1362.91496	0.04221
1361.62919	0.04114
1360.34342	0.04013
1359.05765	0.03924
1357.77188	0.03851
1356.48611	0.03790
1355.20034	0.03735
1353.91457	0.03681
1352.62881	0.03629
1351.34304	0.03583
1350.05727	0.03544
1348.77150	0.03510
1347.48573	0.03477
1346.19996	0.03445
1344.91419	0.03416
1343.62842	0.03388
1342.34266	0.03360
1341.05689	0.03328
1339.77112	0.03295
1338.48535	0.03261
1337.19958	0.03227
1335.91381	0.03193
1334.62804	0.03158
1333.34227	0.03120
1332.05650	0.03079
1330.77074	0.03037
1329.48497	0.02996
1328.19920	0.02961
1326.91343	0.02934
1325.62766	0.02912
1324.34189	0.02890
1323.05612	0.02863
1321.77035	0.02832
1320.48459	0.02801
1319.19882	0.02771
1317.91305	0.02743
1316.62728	0.02718
1315.34151	0.02696
1314.05574	0.02678
1312.76997	0.02661
1311.48420	0.02640
1310.19843	0.02616
1308.91267	0.02592
1307.62690	0.02570
1306.34113	0.02550
1305.05536	0.02525
1303.76959	0.02495
1302.48382	0.02461
1301.19805	0.02430
1299.91228	0.02406
1298.62652	0.02391
1297.34075	0.02380
1296.05498	0.02367
1294.76921	0.02352
1293.48344	0.02337
1292.19767	0.02325
1290.91190	0.02316
1289.62613	0.02308
1288.34036	0.02296
1287.05460	0.02281
1285.76883	0.02266
1284.48306	0.02256
1283.19729	0.02249
1281.91152	0.02241
1280.62575	0.02228
1279.33998	0.02208
1278.05421	0.02187
1276.76845	0.02171
1275.48268	0.02160
1274.19691	0.02155
1272.91114	0.02151
1271.62537	0.02145
1270.33960	0.02136
1269.05383	0.02122
1267.76806	0.02106
1266.48229	0.02089
1265.19653	0.02073
1263.91076	0.02058
1262.62499	0.02044
1261.33922	0.02031
1260.05345	0.02020
1258.76768	0.02012
1257.48191	0.02008
1256.19614	0.02007
1254.91037	0.02007
1253.62461	0.02008
1252.33884	0.02005
1251.05307	0.02001
1249.76730	0.01996
1248.48153	0.01994
1247.19576	0.01994
1245.90999	0.01997
1244.62422	0.01999
1243.33846	0.01998
1242.05269	0.01990
1240.76692	0.01976
1239.48115	0.01961
1238.19538	0.01950
1236.90961	0.01942
1235.62384	0.01935
1234.33807	0.01926
1233.05230	0.01912
1231.76654	0.01896
1230.48077	0.01877
1229.19500	0.01855
1227.90923	0.01830
1226.62346	0.01808
1225.33769	0.01789
1224.05192	0.01776
1222.76615	0.01764
1221.48039	0.01751
1220.19462	0.01735
1218.90885	0.01716
1217.62308	0.01694
1216.33731	0.01672
1215.05154	0.01651
1213.76577	0.01635
1212.48000	0.01624
1211.19423	0.01617
1209.90847	0.01612
1208.62270	0.01608
1207.33693	0.01606
1206.05116	0.01605
1204.76539	0.01604
1203.47962	0.01600
1202.19385	0.01594
1200.90808	0.01576
1199.62232	0.01545
1198.33655	0.01533
1197.05078	0.01524
1195.76501	0.01515
1194.47924	0.01506
1193.19347	0.01496
1191.90770	0.01484
1190.62193	0.01468
1189.33616	0.01447
1188.05040	0.01422
1186.76463	0.01399
1185.47886	0.01381
1184.19309	0.01366
1182.90732	0.01352
1181.62155	0.01338
1180.33578	0.01326
1179.05001	0.01319
1177.76425	0.01317
1176.47848	0.01315
1175.19271	0.01311
1173.90694	0.01304
1172.62117	0.01296
1171.33540	0.01293
1170.04963	0.01296
1168.76386	0.01305
1167.47809	0.01314
1166.19233	0.01322
1164.90656	0.01326
1163.62079	0.01328
1162.33502	0.01329
1161.04925	0.01330
1159.76348	0.01333
1158.47771	0.01340
1157.19194	0.01349
1155.90618	0.01359
1154.62041	0.01367
1153.33464	0.01375
1152.04887	0.01381
1150.76310	0.01388
1149.47733	0.01399
1148.19156	0.01414
1146.90579	0.01432
1145.62002	0.01453
1144.33426	0.01480
1143.04849	0.01518
1141.76272	0.01571
1140.47695	0.01637
1139.19118	0.01712
1137.90541	0.01792
1136.61964	0.01874
1135.33387	0.01960
1134.04811	0.02056
1132.76234	0.02168
1131.47657	0.02297
1130.19080	0.02442
1128.90503	0.02600
1127.61926	0.02772
1126.33349	0.02957
1125.04772	0.03158
1123.76195	0.03380
1122.47619	0.03620
1121.19042	0.03868
1119.90465	0.04112
1118.61888	0.04350
1117.33311	0.04583
1116.04734	0.04814
1114.76157	0.05044
1113.47580	0.05277
1112.19004	0.05516
1110.90427	0.05761
1109.61850	0.06003
1108.33273	0.06233
1107.04696	0.06447
1105.76119	0.06648
1104.47542	0.06840
1103.18965	0.07026
1101.90388	0.07210
1100.61812	0.07392
1099.33235	0.07572
1098.04658	0.07753
1096.76081	0.07932
1095.47504	0.08105
1094.18927	0.08266
1092.90350	0.08411
1091.61773	0.08541
1090.33197	0.08661
1089.04620	0.08774
1087.76043	0.08886
1086.47466	0.09004
1085.18889	0.09128
1083.90312	0.09254
1082.61735	0.09379
1081.33158	0.09508
1080.04581	0.09649
1078.76005	0.09807
1077.47428	0.09981
1076.18851	0.10169
1074.90274	0.10366
1073.61697	0.10572
1072.33120	0.10785
1071.04543	0.11009
1069.75966	0.11243
1068.47390	0.11483
1067.18813	0.11723
1065.90236	0.11958
1064.61659	0.12190
1063.33082	0.12421
1062.04505	0.12651
1060.75928	0.12881
1059.47351	0.13112
1058.18774	0.13343
1056.90198	0.13572
1055.61621	0.13796
1054.33044	0.14016
1053.04467	0.14235
1051.75890	0.14458
1050.47313	0.14684
1049.18736	0.14911
1047.90159	0.15136
1046.61583	0.15360
1045.33006	0.15585
1044.04429	0.15814
1042.75852	0.16047
1041.47275	0.16283
1040.18698	0.16522
1038.90121	0.16761
1037.61544	0.17001
1036.32967	0.17240
1035.04391	0.17473
1033.75814	0.17693
1032.47237	0.17897
1031.18660	0.18087
1029.90083	0.18265
1028.61506	0.18426
1027.32929	0.18565
1026.04352	0.18680
1024.75775	0.18774
1023.47199	0.18845
1022.18622	0.18888
1020.90045	0.18896
1019.61468	0.18870
1018.32891	0.18812
1017.04314	0.18730
1015.75737	0.18627
1014.47160	0.18499
1013.18584	0.18339
1011.90007	0.18144
1010.61430	0.17914
1009.32853	0.17651
1008.04276	0.17353
1006.75699	0.17022
1005.47122	0.16664
1004.18545	0.16288
1002.89968	0.15900
1001.61392	0.15502
1000.32815	0.15091
999.04238	0.14668
997.75661	0.14233
996.47084	0.13792
995.18507	0.13354
993.89930	0.12922
992.61353	0.12494
991.32777	0.12071
990.04200	0.11656
988.75623	0.11255
987.47046	0.10868
986.18469	0.10492
984.89892	0.10129
983.61315	0.09785
982.32738	0.09463
981.04161	0.09159
979.75585	0.08873
978.47008	0.08605
977.18431	0.08358
975.89854	0.08133
974.61277	0.07932
973.32700	0.07762
972.04123	0.07629
970.75546	0.07533
969.46970	0.07476
968.18393	0.07459
966.89816	0.07478
965.61239	0.07526
964.32662	0.07590
963.04085	0.07652
961.75508	0.07698
960.46931	0.07713
959.18354	0.07687
957.89778	0.07616
956.61201	0.07502
955.32624	0.07361
954.04047	0.07211
952.75470	0.07062
951.46893	0.06909
950.18316	0.06748
948.89739	0.06578
947.61163	0.06409
946.32586	0.06250
945.04009	0.06106
943.75432	0.05975
942.46855	0.05854
941.18278	0.05735
939.89701	0.05614
938.61124	0.05493
937.32547	0.05375
936.03971	0.05264
934.75394	0.05160
933.46817	0.05060
932.18240	0.04962
930.89663	0.04869
929.61086	0.04780
928.32509	0.04694
927.03932	0.04613
925.75356	0.04540
924.46779	0.04479
923.18202	0.04425
921.89625	0.04373
920.61048	0.04321
919.32471	0.04270
918.03894	0.04222
916.75317	0.04177
915.46740	0.04134
914.18164	0.04089
912.89587	0.04041
911.61010	0.03991
910.32433	0.03943
909.03856	0.03899
907.75279	0.03856
906.46702	0.03810
905.18125	0.03763
903.89549	0.03721
902.60972	0.03692
901.32395	0.03670
900.03818	0.03648
898.75241	0.03614
897.46664	0.03567
896.18087	0.03516
894.89510	0.03471
893.60933	0.03442
892.32357	0.03430
891.03780	0.03427
889.75203	0.03432
888.46626	0.03450
887.18049	0.03493
885.89472	0.03571
884.60895	0.03694
883.32318	0.03870
882.03742	0.04087
880.75165	0.04312
879.46588	0.04504
878.18011	0.04655
876.89434	0.04789
875.60857	0.04932
874.32280	0.05082
873.03703	0.05209
871.75126	0.05280
870.46550	0.05280
869.17973	0.05213
867.89396	0.05091
866.60819	0.04931
865.32242	0.04751
864.03665	0.04565
862.75088	0.04381
861.46511	0.04208
860.17935	0.04050
858.89358	0.03911
857.60781	0.03789
856.32204	0.03686
855.03627	0.03600
853.75050	0.03532
852.46473	0.03482
851.17896	0.03451
849.89319	0.03431
848.60743	0.03410
847.32166	0.03379
846.03589	0.03339
844.75012	0.03298
843.46435	0.03264
842.17858	0.03236
840.89281	0.03211
839.60704	0.03185
838.32128	0.03155
837.03551	0.03120
835.74974	0.03086
834.46397	0.03061
833.17820	0.03045
831.89243	0.03031
830.60666	0.03017
829.32089	0.03004
828.03512	0.02996
826.74936	0.02992
825.46359	0.02984
824.17782	0.02969
822.89205	0.02944
821.60628	0.02912
820.32051	0.02886
819.03474	0.02876
817.74897	0.02886
816.46321	0.02905
815.17744	0.02921
813.89167	0.02928
812.60590	0.02926
811.32013	0.02916
810.03436	0.02904
808.74859	0.02893
807.46282	0.02878
806.17705	0.02857
804.89129	0.02833
803.60552	0.02814
802.31975	0.02804
801.03398	0.02802
799.74821	0.02798
798.46244	0.02791
797.17667	0.02786
795.89090	0.02787
794.60513	0.02794
793.31937	0.02798
792.03360	0.02791
790.74783	0.02775
789.46206	0.02758
788.17629	0.02749
786.89052	0.02750
785.60475	0.02754
784.31898	0.02751
783.03322	0.02741
781.74745	0.02732
780.46168	0.02731
779.17591	0.02736
777.89014	0.02742
776.60437	0.02744
775.31860	0.02739
774.03283	0.02729
772.74706	0.02721
771.46130	0.02724
770.17553	0.02739
768.88976	0.02753
767.60399	0.02753
766.31822	0.02738
765.03245	0.02719
763.74668	0.02707
762.46091	0.02706
761.17515	0.02715
759.88938	0.02731
758.60361	0.02748
757.31784	0.02759
756.03207	0.02757
754.74630	0.02745
753.46053	0.02729
752.17476	0.02716
750.88899	0.02710
749.60323	0.02710
748.31746	0.02710
747.03169	0.02708
745.74592	0.02704
744.46015	0.02699
743.17438	0.02689
741.88861	0.02674
740.60284	0.02656
739.31708	0.02644
738.03131	0.02640
736.74554	0.02642
735.45977	0.02645
734.17400	0.02646
732.88823	0.02647
731.60246	0.02651
730.31669	0.02658
729.03092	0.02665
727.74516	0.02671
726.45939	0.02679
725.17362	0.02691
723.88785	0.02704
722.60208	0.02704
721.31631	0.02693
720.03054	0.02679
718.74477	0.02667
717.45901	0.02659
716.17324	0.02657
714.88747	0.02659
713.60170	0.02660
712.31593	0.02657
711.03016	0.02649
709.74439	0.02638
708.45862	0.02628
707.17285	0.02621
705.88709	0.02618
704.60132	0.02619
703.31555	0.02623
702.02978	0.02627
700.74401	0.02627
699.45824	0.02620
698.17247	0.02606
696.88670	0.02592
695.60094	0.02583
694.31517	0.02580
693.02940	0.02581
691.74363	0.02582
690.45786	0.02586
689.17209	0.02594
687.88632	0.02606
686.60055	0.02615
685.31478	0.02617
684.02902	0.02610
682.74325	0.02597
681.45748	0.02584
680.17171	0.02573
678.88594	0.02567
677.60017	0.02566
676.31440	0.02570
675.02863	0.02580
673.74287	0.02595
672.45710	0.02618
671.17133	0.02653
669.88556	0.02693
668.59979	0.02713
667.31402	0.02726
666.02825	0.02736
664.74248	0.02711
663.45671	0.02679
662.17095	0.02653
660.88518	0.02631
659.59941	0.02606
658.31364	0.02579
657.02787	0.02554
655.74210	0.02534
654.45633	0.02524
653.17056	0.02518
651.88480	0.02512
650.59903	0.02505
649.31326	0.02496
648.02749	0.02482
646.74172	0.02465
645.45595	0.02446
644.17018	0.02427
642.88441	0.02411
641.59864	0.02399
640.31288	0.02392
639.02711	0.02390
637.74134	0.02393
636.45557	0.02398
635.16980	0.02404
633.88403	0.02410
632.59826	0.02416
631.31249	0.02441
630.02673	0.02549
628.74096	0.02699
627.45519	0.02633
626.16942	0.02829
624.88365	0.03229
623.59788	0.03675
622.31211	0.04100
621.02634	0.04449
619.74057	0.04688
618.45481	0.04826
617.16904	0.04895
615.88327	0.04913
614.59750	0.04902
613.31173	0.04931
612.02596	0.05142
610.74019	0.05650
609.45442	0.06389
608.16866	0.07117
606.88289	0.07643
605.59712	0.07959
604.31135	0.08139
603.02558	0.08220
601.73981	0.08190
600.45404	0.08044
599.16827	0.07801
597.88250	0.07500
596.59674	0.07184
595.31097	0.06888
594.02520	0.06625
592.73943	0.06402
591.45366	0.06233
590.16789	0.06132
588.88212	0.06106
587.59635	0.06146
586.31059	0.06236
585.02482	0.06359
583.73905	0.06504
582.45328	0.06664
581.16751	0.06837
579.88174	0.07024
578.59597	0.07222
577.31020	0.07424
576.02443	0.07618
574.73867	0.07797
573.45290	0.07962
572.16713	0.08132
570.88136	0.08330
569.59559	0.08569
568.30982	0.08844
567.02405	0.09141
565.73828	0.09439
564.45251	0.09704
563.16675	0.09893
561.88098	0.09965
560.59521	0.09907
559.30944	0.09727
558.02367	0.09448
556.73790	0.09089
555.45213	0.08666
554.16636	0.08202
552.88060	0.07733
551.59483	0.07294
550.30906	0.06900
549.02329	0.06550
547.73752	0.06236
546.45175	0.05960
545.16598	0.05720
543.88021	0.05510
542.59444	0.05318
541.30868	0.05137
540.02291	0.04965
538.73714	0.04809
537.45137	0.04669
536.16560	0.04545
534.87983	0.04432
533.59406	0.04328
532.30829	0.04229
531.02253	0.04132
529.73676	0.04038
528.45099	0.03946
527.16522	0.03859
525.87945	0.03778
524.59368	0.03710
523.30791	0.03652
522.02214	0.03596
520.73637	0.03529
519.45061	0.03447
518.16484	0.03360
516.87907	0.03281
515.59330	0.03213
514.30753	0.03156
513.02176	0.03111
511.73599	0.03078
510.45022	0.03053
509.16446	0.03021
507.87869	0.02975
506.59292	0.02916
505.30715	0.02857
504.02138	0.02807
502.73561	0.02768
501.44984	0.02733
500.16407	0.02698
498.87830	0.02661
497.59254	0.02621
496.30677	0.02584
495.02100	0.02550
493.73523	0.02521
492.44946	0.02497
491.16369	0.02478
489.87792	0.02463
488.59215	0.02447
487.30639	0.02428
486.02062	0.02410
484.73485	0.02397
483.44908	0.02391
482.16331	0.02390
480.87754	0.02393
479.59177	0.02397
478.30600	0.02402
477.02023	0.02410
475.73447	0.02422
474.44870	0.02437
473.16293	0.02452
471.87716	0.02464
470.59139	0.02469
469.30562	0.02461
468.01985	0.02443
466.73408	0.02418
465.44832	0.02389
464.16255	0.02357
462.87678	0.02323
461.59101	0.02288
460.30524	0.02256
459.01947	0.02230
457.73370	0.02211
456.44793	0.02197
455.16216	0.02181
453.87640	0.02159
452.59063	0.02130
451.30486	0.02097
450.01909	0.02063
448.73332	0.02031
447.44755	0.02003
446.16178	0.01981
444.87601	0.01962
443.59025	0.01944
442.30448	0.01927
441.01871	0.01913
439.73294	0.01900
438.44717	0.01885
437.16140	0.01866
435.87563	0.01847
434.58986	0.01835
433.30409	0.01829
432.01833	0.01825
430.73256	0.01819
429.44679	0.01810
428.16102	0.01798
426.87525	0.01782
425.58948	0.01761
424.30371	0.01741
423.01794	0.01724
421.73218	0.01714
420.44641	0.01706
419.16064	0.01698
417.87487	0.01688
416.58910	0.01672
415.30333	0.01655
414.01756	0.01640
412.73179	0.01629
411.44602	0.01616
410.16026	0.01602
408.87449	0.01591
407.58872	0.01592
406.30295	0.01603
405.01718	0.01617
403.73141	0.01628
402.44564	0.01633
401.15987	0.01638
399.87411	0.01645
