3997.45528	0.00435
3996.16951	0.00512
3994.88374	0.00558
3993.59798	0.00553
3992.31221	0.00502
3991.02644	0.00428
3989.74067	0.00362
3988.45490	0.00324
3987.16913	0.00314
3985.88336	0.00323
3984.59759	0.00346
3983.31183	0.00377
3982.02606	0.00408
3980.74029	0.00433
3979.45452	0.00466
3978.16875	0.00525
3976.88298	0.00599
3975.59721	0.00650
3974.31144	0.00647
3973.02567	0.00602
3971.73991	0.00557
3970.45414	0.00541
3969.16837	0.00555
3967.88260	0.00571
3966.59683	0.00559
3965.31106	0.00513
3964.02529	0.00453
3962.73952	0.00399
3961.45376	0.00351
3960.16799	0.00305
3958.88222	0.00272
3957.59645	0.00274
3956.31068	0.00301
3955.02491	0.00321
3953.73914	0.00322
3952.45337	0.00334
3951.16760	0.00386
3949.88184	0.00468
3948.59607	0.00533
3947.31030	0.00549
3946.02453	0.00535
3944.73876	0.00524
3943.45299	0.00520
3942.16722	0.00498
3940.88145	0.00446
3939.59569	0.00380
3938.30992	0.00327
3937.02415	0.00307
3935.73838	0.00326
3934.45261	0.00384
3933.16684	0.00458
3931.88107	0.00518
3930.59530	0.00558
3929.30953	0.00592
3928.02377	0.00624
3926.73800	0.00639
3925.45223	0.00612
3924.16646	0.00537
3922.88069	0.00431
3921.59492	0.00333
3920.30915	0.00291
3919.02338	0.00325
3917.73762	0.00416
3916.45185	0.00509
3915.16608	0.00558
3913.88031	0.00548
3912.59454	0.00499
3911.30877	0.00453
3910.02300	0.00438
3908.73723	0.00454
3907.45146	0.00483
3906.16570	0.00502
3904.87993	0.00492
3903.59416	0.00438
3902.30839	0.00341
3901.02262	0.00249
3899.73685	0.00223
3898.45108	0.00285
3897.16531	0.00391
3895.87955	0.00485
3894.59378	0.00547
3893.30801	0.00591
3892.02224	0.00629
3890.73647	0.00651
3889.45070	0.00639
3888.16493	0.00595
3886.87916	0.00537
3885.59339	0.00486
3884.30763	0.00442
3883.02186	0.00398
3881.73609	0.00361
3880.45032	0.00357
3879.16455	0.00393
3877.87878	0.00448
3876.59301	0.00488
3875.30724	0.00484
3874.02148	0.00427
3872.73571	0.00334
3871.44994	0.00252
3870.16417	0.00224
3868.87840	0.00261
3867.59263	0.00334
3866.30686	0.00399
3865.02109	0.00421
3863.73532	0.00396
3862.44956	0.00347
3861.16379	0.00314
3859.87802	0.00312
3858.59225	0.00329
3857.30648	0.00352
3856.02071	0.00386
3854.73494	0.00430
3853.44917	0.00460
3852.16341	0.00454
3850.87764	0.00411
3849.59187	0.00354
3848.30610	0.00315
3847.02033	0.00324
3845.73456	0.00403
3844.44879	0.00540
3843.16302	0.00676
3841.87725	0.00735
3840.59149	0.00684
3839.30572	0.00545
3838.01995	0.00380
3836.73418	0.00242
3835.44841	0.00161
3834.16264	0.00142
3832.87687	0.00185
3831.59110	0.00281
3830.30534	0.00399
3829.01957	0.00495
3827.73380	0.00528
3826.44803	0.00489
3825.16226	0.00409
3823.87649	0.00338
3822.59072	0.00314
3821.30495	0.00342
3820.01918	0.00401
3818.73342	0.00458
3817.44765	0.00483
3816.16188	0.00457
3814.87611	0.00388
3813.59034	0.00309
3812.30457	0.00263
3811.01880	0.00270
3809.73303	0.00312
3808.44726	0.00355
3807.16150	0.00378
3805.87573	0.00382
3804.58996	0.00387
3803.30419	0.00403
3802.01842	0.00425
3800.73265	0.00445
3799.44688	0.00462
3798.16111	0.00480
3796.87535	0.00490
3795.58958	0.00474
3794.30381	0.00428
3793.01804	0.00376
3791.73227	0.00357
3790.44650	0.00380
3789.16073	0.00414
3787.87496	0.00422
3786.58919	0.00413
3785.30343	0.00421
3784.01766	0.00461
3782.73189	0.00514
3781.44612	0.00554
3780.16035	0.00577
3778.87458	0.00582
3777.58881	0.00560
3776.30304	0.00506
3775.01728	0.00437
3773.73151	0.00377
3772.44574	0.00335
3771.15997	0.00310
3769.87420	0.00295
3768.58843	0.00290
3767.30266	0.00297
3766.01689	0.00324
3764.73112	0.00375
3763.44536	0.00431
3762.15959	0.00460
3760.87382	0.00444
3759.58805	0.00391
3758.30228	0.00328
3757.01651	0.00278
3755.73074	0.00249
3754.44497	0.00244
3753.15921	0.00265
3751.87344	0.00311
3750.58767	0.00367
3749.30190	0.00404
3748.01613	0.00402
3746.73036	0.00371
3745.44459	0.00347
3744.15882	0.00349
3742.87305	0.00380
3741.58729	0.00426
3740.30152	0.00461
3739.01575	0.00448
3737.72998	0.00381
3736.44421	0.00305
3735.15844	0.00287
3733.87267	0.00340
3732.58690	0.00419
3731.30114	0.00466
3730.01537	0.00457
3728.72960	0.00415
3727.44383	0.00375
3726.15806	0.00363
3724.87229	0.00380
3723.58652	0.00401
3722.30075	0.00401
3721.01498	0.00377
3719.72922	0.00348
3718.44345	0.00346
3717.15768	0.00383
3715.87191	0.00439
3714.58614	0.00478
3713.30037	0.00478
3712.01460	0.00459
3710.72883	0.00453
3709.44307	0.00476
3708.15730	0.00515
3706.87153	0.00534
3705.58576	0.00501
3704.29999	0.00411
3703.01422	0.00288
3701.72845	0.00181
3700.44268	0.00134
3699.15691	0.00164
3697.87115	0.00255
3696.58538	0.00371
3695.29961	0.00467
3694.01384	0.00508
3692.72807	0.00504
3691.44230	0.00475
3690.15653	0.00446
3688.87076	0.00454
3687.58500	0.00503
3686.29923	0.00548
3685.01346	0.00554
3683.72769	0.00528
3682.44192	0.00506
3681.15615	0.00517
3679.87038	0.00552
3678.58461	0.00594
3677.29884	0.00636
3676.01308	0.00652
3674.72731	0.00612
3673.44154	0.00522
3672.15577	0.00430
3670.87000	0.00379
3669.58423	0.00368
3668.29846	0.00377
3667.01269	0.00409
3665.72693	0.00469
3664.44116	0.00534
3663.15539	0.00551
3661.86962	0.00498
3660.58385	0.00412
3659.29808	0.00353
3658.01231	0.00347
3656.72654	0.00374
3655.44077	0.00405
3654.15501	0.00428
3652.86924	0.00437
3651.58347	0.00421
3650.29770	0.00377
3649.01193	0.00336
3647.72616	0.00335
3646.44039	0.00377
3645.15462	0.00426
3643.86886	0.00448
3642.58309	0.00442
3641.29732	0.00426
3640.01155	0.00415
3638.72578	0.00403
3637.44001	0.00378
3636.15424	0.00345
3634.86847	0.00324
3633.58270	0.00327
3632.29694	0.00338
3631.01117	0.00332
3629.72540	0.00312
3628.43963	0.00314
3627.15386	0.00363
3625.86809	0.00448
3624.58232	0.00536
3623.29655	0.00599
3622.01079	0.00630
3620.72502	0.00637
3619.43925	0.00630
3618.15348	0.00614
3616.86771	0.00591
3615.58194	0.00571
3614.29617	0.00564
3613.01040	0.00574
3611.72463	0.00588
3610.43887	0.00594
3609.15310	0.00587
3607.86733	0.00575
3606.58156	0.00555
3605.29579	0.00514
3604.01002	0.00453
3602.72425	0.00397
3601.43848	0.00379
3600.15272	0.00402
3598.86695	0.00449
3597.58118	0.00506
3596.29541	0.00571
3595.00964	0.00621
3593.72387	0.00626
3592.43810	0.00586
3591.15233	0.00538
3589.86656	0.00514
3588.58080	0.00527
3587.29503	0.00571
3586.00926	0.00631
3584.72349	0.00694
3583.43772	0.00751
3582.15195	0.00786
3580.86618	0.00776
3579.58041	0.00714
3578.29464	0.00619
3577.00888	0.00531
3575.72311	0.00486
3574.43734	0.00481
3573.15157	0.00487
3571.86580	0.00481
3570.58003	0.00473
3569.29426	0.00488
3568.00849	0.00527
3566.72273	0.00556
3565.43696	0.00545
3564.15119	0.00504
3562.86542	0.00472
3561.57965	0.00471
3560.29388	0.00492
3559.00811	0.00513
3557.72234	0.00526
3556.43657	0.00533
3555.15081	0.00524
3553.86504	0.00487
3552.57927	0.00424
3551.29350	0.00356
3550.00773	0.00309
3548.72196	0.00304
3547.43619	0.00359
3546.15042	0.00472
3544.86466	0.00611
3543.57889	0.00730
3542.29312	0.00799
3541.00735	0.00819
3539.72158	0.00819
3538.43581	0.00816
3537.15004	0.00807
3535.86427	0.00774
3534.57850	0.00719
3533.29274	0.00662
3532.00697	0.00624
3530.72120	0.00611
3529.43543	0.00623
3528.14966	0.00658
3526.86389	0.00705
3525.57812	0.00746
3524.29235	0.00762
3523.00659	0.00753
3521.72082	0.00736
3520.43505	0.00730
3519.14928	0.00746
3517.86351	0.00785
3516.57774	0.00836
3515.29197	0.00881
3514.00620	0.00900
3512.72043	0.00877
3511.43467	0.00817
3510.14890	0.00747
3508.86313	0.00702
3507.57736	0.00696
3506.29159	0.00713
3505.00582	0.00727
3503.72005	0.00724
3502.43428	0.00711
3501.14852	0.00698
3499.86275	0.00688
3498.57698	0.00677
3497.29121	0.00663
3496.00544	0.00651
3494.71967	0.00650
3493.43390	0.00662
3492.14813	0.00679
3490.86236	0.00685
3489.57660	0.00667
3488.29083	0.00629
3487.00506	0.00593
3485.71929	0.00590
3484.43352	0.00638
3483.14775	0.00730
3481.86198	0.00833
3480.57621	0.00909
3479.29045	0.00940
3478.00468	0.00935
3476.71891	0.00917
3475.43314	0.00896
3474.14737	0.00870
3472.86160	0.00837
3471.57583	0.00808
3470.29006	0.00797
3469.00429	0.00808
3467.71853	0.00836
3466.43276	0.00861
3465.14699	0.00861
3463.86122	0.00829
3462.57545	0.00782
3461.28968	0.00753
3460.00391	0.00763
3458.71814	0.00803
3457.43238	0.00844
3456.14661	0.00867
3454.86084	0.00869
3453.57507	0.00869
3452.28930	0.00880
3451.00353	0.00899
3449.71776	0.00914
3448.43199	0.00918
3447.14622	0.00909
3445.86046	0.00889
3444.57469	0.00864
3443.28892	0.00843
3442.00315	0.00832
3440.71738	0.00824
3439.43161	0.00809
3438.14584	0.00791
3436.86007	0.00789
3435.57431	0.00819
3434.28854	0.00866
3433.00277	0.00896
3431.71700	0.00884
3430.43123	0.00843
3429.14546	0.00813
3427.85969	0.00822
3426.57392	0.00858
3425.28815	0.00887
3424.00239	0.00896
3422.71662	0.00900
3421.43085	0.00917
3420.14508	0.00945
3418.85931	0.00959
3417.57354	0.00950
3416.28777	0.00928
3415.00200	0.00914
3413.71624	0.00912
3412.43047	0.00907
3411.14470	0.00886
3409.85893	0.00857
3408.57316	0.00843
3407.28739	0.00857
3406.00162	0.00893
3404.71585	0.00935
3403.43008	0.00972
3402.14432	0.01002
3400.85855	0.01024
3399.57278	0.01042
3398.28701	0.01042
3397.00124	0.01013
3395.71547	0.00972
3394.42970	0.00946
3393.14393	0.00949
3391.85817	0.00959
3390.57240	0.00950
3389.28663	0.00912
3388.00086	0.00868
3386.71509	0.00841
3385.42932	0.00834
3384.14355	0.00835
3382.85778	0.00839
3381.57201	0.00851
3380.28625	0.00872
3379.00048	0.00897
3377.71471	0.00928
3376.42894	0.00966
3375.14317	0.00999
3373.85740	0.01005
3372.57163	0.00981
3371.28586	0.00955
3370.00010	0.00959
3368.71433	0.01000
3367.42856	0.01048
3366.14279	0.01066
3364.85702	0.01037
3363.57125	0.00974
3362.28548	0.00911
3360.99971	0.00876
3359.71394	0.00876
3358.42818	0.00896
3357.14241	0.00913
3355.85664	0.00920
3354.57087	0.00923
3353.28510	0.00937
3351.99933	0.00961
3350.71356	0.00987
3349.42779	0.01009
3348.14202	0.01025
3346.85626	0.01022
3345.57049	0.00992
3344.28472	0.00948
3342.99895	0.00920
3341.71318	0.00921
3340.42741	0.00934
3339.14164	0.00932
3337.85587	0.00902
3336.57011	0.00858
3335.28434	0.00828
3333.99857	0.00828
3332.71280	0.00854
3331.42703	0.00888
3330.14126	0.00910
3328.85549	0.00921
3327.56972	0.00933
3326.28395	0.00949
3324.99819	0.00956
3323.71242	0.00941
3322.42665	0.00907
3321.14088	0.00864
3319.85511	0.00825
3318.56934	0.00795
3317.28357	0.00783
3315.99780	0.00802
3314.71204	0.00858
3313.42627	0.00940
3312.14050	0.01019
3310.85473	0.01067
3309.56896	0.01075
3308.28319	0.01056
3306.99742	0.01028
3305.71165	0.01010
3304.42588	0.01009
3303.14012	0.01023
3301.85435	0.01046
3300.56858	0.01063
3299.28281	0.01060
3297.99704	0.01034
3296.71127	0.00996
3295.42550	0.00969
3294.13973	0.00969
3292.85397	0.00989
3291.56820	0.01007
3290.28243	0.01005
3288.99666	0.00981
3287.71089	0.00939
3286.42512	0.00883
3285.13935	0.00821
3283.85358	0.00780
3282.56781	0.00781
3281.28205	0.00822
3279.99628	0.00878
3278.71051	0.00922
3277.42474	0.00941
3276.13897	0.00931
3274.85320	0.00894
3273.56743	0.00841
3272.28166	0.00794
3270.99590	0.00777
3269.71013	0.00799
3268.42436	0.00846
3267.13859	0.00890
3265.85282	0.00923
3264.56705	0.00958
3263.28128	0.01007
3261.99551	0.01062
3260.70974	0.01088
3259.42398	0.01059
3258.13821	0.00982
3256.85244	0.00894
3255.56667	0.00837
3254.28090	0.00825
3252.99513	0.00841
3251.70936	0.00857
3250.42359	0.00863
3249.13783	0.00866
3247.85206	0.00875
3246.56629	0.00893
3245.28052	0.00919
3243.99475	0.00955
3242.70898	0.01003
3241.42321	0.01055
3240.13744	0.01093
3238.85167	0.01100
3237.56591	0.01082
3236.28014	0.01061
3234.99437	0.01047
3233.70860	0.01030
3232.42283	0.00996
3231.13706	0.00956
3229.85129	0.00933
3228.56552	0.00932
3227.27976	0.00935
3225.99399	0.00926
3224.70822	0.00911
3223.42245	0.00911
3222.13668	0.00931
3220.85091	0.00961
3219.56514	0.00984
3218.27937	0.00987
3216.99360	0.00971
3215.70784	0.00953
3214.42207	0.00945
3213.13630	0.00943
3211.85053	0.00931
3210.56476	0.00910
3209.27899	0.00898
3207.99322	0.00917
3206.70745	0.00955
3205.42169	0.00974
3204.13592	0.00944
3202.85015	0.00873
3201.56438	0.00804
3200.27861	0.00773
3198.99284	0.00788
3197.70707	0.00825
3196.42130	0.00861
3195.13553	0.00888
3193.84977	0.00911
3192.56400	0.00930
3191.27823	0.00939
3189.99246	0.00928
3188.70669	0.00905
3187.42092	0.00890
3186.13515	0.00896
3184.84938	0.00907
3183.56362	0.00905
3182.27785	0.00888
3180.99208	0.00878
3179.70631	0.00885
3178.42054	0.00894
3177.13477	0.00883
3175.84900	0.00860
3174.56323	0.00843
3173.27746	0.00837
3171.99170	0.00832
3170.70593	0.00824
3169.42016	0.00818
3168.13439	0.00815
3166.84862	0.00805
3165.56285	0.00788
3164.27708	0.00784
3162.99131	0.00808
3161.70555	0.00844
3160.41978	0.00865
3159.13401	0.00864
3157.84824	0.00855
3156.56247	0.00853
3155.27670	0.00852
3153.99093	0.00844
3152.70516	0.00826
3151.41939	0.00810
3150.13363	0.00813
3148.84786	0.00850
3147.56209	0.00911
3146.27632	0.00966
3144.99055	0.00981
3143.70478	0.00942
3142.41901	0.00864
3141.13324	0.00774
3139.84748	0.00701
3138.56171	0.00663
3137.27594	0.00658
3135.99017	0.00675
3134.70440	0.00699
3133.41863	0.00726
3132.13286	0.00753
3130.84709	0.00772
3129.56132	0.00774
3128.27556	0.00757
3126.98979	0.00730
3125.70402	0.00711
3124.41825	0.00712
3123.13248	0.00735
3121.84671	0.00763
3120.56094	0.00773
3119.27517	0.00756
3117.98940	0.00719
3116.70364	0.00682
3115.41787	0.00666
3114.13210	0.00684
3112.84633	0.00730
3111.56056	0.00784
3110.27479	0.00820
3108.98902	0.00816
3107.70325	0.00766
3106.41749	0.00691
3105.13172	0.00631
3103.84595	0.00617
3102.56018	0.00646
3101.27441	0.00689
3099.98864	0.00717
3098.70287	0.00725
3097.41710	0.00726
3096.13133	0.00730
3094.84557	0.00743
3093.55980	0.00762
3092.27403	0.00787
3090.98826	0.00810
3089.70249	0.00823
3088.41672	0.00830
3087.13095	0.00841
3085.84518	0.00858
3084.55942	0.00866
3083.27365	0.00856
3081.98788	0.00831
3080.70211	0.00802
3079.41634	0.00769
3078.13057	0.00734
3076.84480	0.00709
3075.55903	0.00710
3074.27326	0.00730
3072.98750	0.00749
3071.70173	0.00755
3070.41596	0.00755
3069.13019	0.00754
3067.84442	0.00751
3066.55865	0.00751
3065.27288	0.00765
3063.98711	0.00794
3062.70135	0.00822
3061.41558	0.00827
3060.12981	0.00807
3058.84404	0.00782
3057.55827	0.00776
3056.27250	0.00799
3054.98673	0.00843
3053.70096	0.00888
3052.41519	0.00912
3051.12943	0.00894
3049.84366	0.00833
3048.55789	0.00755
3047.27212	0.00698
3045.98635	0.00686
3044.70058	0.00710
3043.41481	0.00742
3042.12904	0.00752
3040.84328	0.00735
3039.55751	0.00715
3038.27174	0.00722
3036.98597	0.00766
3035.70020	0.00825
3034.41443	0.00865
3033.12866	0.00867
3031.84289	0.00834
3030.55712	0.00785
3029.27136	0.00741
3027.98559	0.00714
3026.69982	0.00702
3025.41405	0.00694
3024.12828	0.00686
3022.84251	0.00681
3021.55674	0.00690
3020.27097	0.00706
3018.98521	0.00711
3017.69944	0.00693
3016.41367	0.00663
3015.12790	0.00642
3013.84213	0.00644
3012.55636	0.00663
3011.27059	0.00681
3009.98482	0.00682
3008.69905	0.00665
3007.41329	0.00646
3006.12752	0.00639
3004.84175	0.00650
3003.55598	0.00673
3002.27021	0.00698
3000.98444	0.00722
2999.69867	0.00745
2998.41290	0.00750
2997.12714	0.00735
2995.84137	0.00711
2994.55560	0.00690
2993.26983	0.00680
2991.98406	0.00676
2990.69829	0.00670
2989.41252	0.00663
2988.12675	0.00665
2986.84098	0.00674
2985.55522	0.00676
2984.26945	0.00653
2982.98368	0.00605
2981.69791	0.00554
2980.41214	0.00525
2979.12637	0.00522
2977.84060	0.00521
2976.55483	0.00495
2975.26907	0.00441
2973.98330	0.00388
2972.69753	0.00360
2971.41176	0.00367
2970.12599	0.00393
2968.84022	0.00415
2967.55445	0.00421
2966.26868	0.00417
2964.98291	0.00414
2963.69715	0.00406
2962.41138	0.00382
2961.12561	0.00342
2959.83984	0.00297
2958.55407	0.00254
2957.26830	0.00223
2955.98253	0.00217
2954.69676	0.00245
2953.41100	0.00282
2952.12523	0.00291
2950.83946	0.00269
2949.55369	0.00244
2948.26792	0.00244
2946.98215	0.00260
2945.69638	0.00261
2944.41061	0.00241
2943.12484	0.00225
2941.83908	0.00230
2940.55331	0.00241
2939.26754	0.00226
2937.98177	0.00176
2936.69600	0.00103
2935.41023	0.00024
2934.12446	-0.00054
2932.83869	-0.00132
2931.55293	-0.00212
2930.26716	-0.00297
2928.98139	-0.00379
2927.69562	-0.00451
2926.40985	-0.00513
2925.12408	-0.00577
2923.83831	-0.00661
2922.55254	-0.00765
2921.26677	-0.00876
2919.98101	-0.00975
2918.69524	-0.01040
2917.40947	-0.01053
2916.12370	-0.01000
2914.83793	-0.00878
2913.55216	-0.00711
2912.26639	-0.00534
2910.98062	-0.00371
2909.69486	-0.00229
2908.40909	-0.00103
2907.12332	0.00004
2905.83755	0.00086
2904.55178	0.00137
2903.26601	0.00157
2901.98024	0.00161
2900.69447	0.00166
2899.40870	0.00186
2898.12294	0.00218
2896.83717	0.00251
2895.55140	0.00280
2894.26563	0.00306
2892.97986	0.00334
2891.69409	0.00363
2890.40832	0.00386
2889.12255	0.00397
2887.83678	0.00398
2886.55102	0.00396
2885.26525	0.00396
2883.97948	0.00400
2882.69371	0.00413
2881.40794	0.00429
2880.12217	0.00439
2878.83640	0.00438
2877.55063	0.00435
2876.26487	0.00436
2874.97910	0.00438
2873.69333	0.00434
2872.40756	0.00429
2871.12179	0.00421
2869.83602	0.00403
2868.55025	0.00372
2867.26448	0.00337
2865.97871	0.00314
2864.69295	0.00306
2863.40718	0.00304
2862.12141	0.00298
2860.83564	0.00282
2859.54987	0.00249
2858.26410	0.00187
2856.97833	0.00090
2855.69256	-0.00033
2854.40680	-0.00161
2853.12103	-0.00272
2851.83526	-0.00355
2850.54949	-0.00398
2849.26372	-0.00383
2847.97795	-0.00303
2846.69218	-0.00173
2845.40641	-0.00024
2844.12064	0.00113
2842.83488	0.00226
2841.54911	0.00309
2840.26334	0.00367
2838.97757	0.00408
2837.69180	0.00441
2836.40603	0.00471
2835.12026	0.00493
2833.83449	0.00501
2832.54873	0.00493
2831.26296	0.00478
2829.97719	0.00470
2828.69142	0.00477
2827.40565	0.00498
2826.11988	0.00524
2824.83411	0.00550
2823.54834	0.00572
2822.26257	0.00589
2820.97681	0.00596
2819.69104	0.00593
2818.40527	0.00585
2817.11950	0.00578
2815.83373	0.00572
2814.54796	0.00568
2813.26219	0.00568
2811.97642	0.00575
2810.69066	0.00587
2809.40489	0.00604
2808.11912	0.00618
2806.83335	0.00626
2805.54758	0.00630
2804.26181	0.00632
2802.97604	0.00627
2801.69027	0.00608
2800.40450	0.00579
2799.11874	0.00551
2797.83297	0.00527
2796.54720	0.00513
2795.26143	0.00514
2793.97566	0.00540
2792.68989	0.00583
2791.40412	0.00622
2790.11835	0.00640
2788.83259	0.00637
2787.54682	0.00622
2786.26105	0.00603
2784.97528	0.00581
2783.68951	0.00564
2782.40374	0.00565
2781.11797	0.00588
2779.83220	0.00629
2778.54643	0.00669
2777.26067	0.00690
2775.97490	0.00681
2774.68913	0.00648
2773.40336	0.00611
2772.11759	0.00587
2770.83182	0.00578
2769.54605	0.00571
2768.26028	0.00559
2766.97452	0.00548
2765.68875	0.00550
2764.40298	0.00565
2763.11721	0.00583
2761.83144	0.00593
2760.54567	0.00591
2759.25990	0.00583
2757.97413	0.00574
2756.68836	0.00569
2755.40260	0.00570
2754.11683	0.00574
2752.83106	0.00571
2751.54529	0.00556
2750.25952	0.00537
2748.97375	0.00527
2747.68798	0.00532
2746.40221	0.00540
2745.11645	0.00537
2743.83068	0.00521
2742.54491	0.00508
2741.25914	0.00507
2739.97337	0.00519
2738.68760	0.00533
2737.40183	0.00541
2736.11606	0.00539
2734.83029	0.00541
2733.54453	0.00557
2732.25876	0.00586
2730.97299	0.00605
2729.68722	0.00598
2728.40145	0.00572
2727.11568	0.00550
2725.82991	0.00547
2724.54414	0.00558
2723.25838	0.00569
2721.97261	0.00568
2720.68684	0.00560
2719.40107	0.00554
2718.11530	0.00552
2716.82953	0.00550
2715.54376	0.00538
2714.25799	0.00524
2712.97222	0.00520
2711.68646	0.00531
2710.40069	0.00549
2709.11492	0.00561
2707.82915	0.00566
2706.54338	0.00565
2705.25761	0.00567
2703.97184	0.00572
2702.68607	0.00575
2701.40031	0.00571
2700.11454	0.00558
2698.82877	0.00545
2697.54300	0.00537
2696.25723	0.00531
2694.97146	0.00524
2693.68569	0.00518
2692.39992	0.00521
2691.11415	0.00535
2689.82839	0.00554
2688.54262	0.00565
2687.25685	0.00563
2685.97108	0.00551
2684.68531	0.00535
2683.39954	0.00518
2682.11377	0.00497
2680.82800	0.00473
2679.54224	0.00450
2678.25647	0.00439
2676.97070	0.00444
2675.68493	0.00464
2674.39916	0.00491
2673.11339	0.00511
2671.82762	0.00518
2670.54185	0.00513
2669.25608	0.00514
2667.97032	0.00528
2666.68455	0.00551
2665.39878	0.00564
2664.11301	0.00560
2662.82724	0.00542
2661.54147	0.00521
2660.25570	0.00507
2658.96993	0.00502
2657.68417	0.00503
2656.39840	0.00505
2655.11263	0.00510
2653.82686	0.00521
2652.54109	0.00532
2651.25532	0.00531
2649.96955	0.00513
2648.68378	0.00488
2647.39801	0.00470
2646.11225	0.00467
2644.82648	0.00475
2643.54071	0.00483
2642.25494	0.00481
2640.96917	0.00461
2639.68340	0.00429
2638.39763	0.00408
2637.11186	0.00418
2635.82609	0.00455
2634.54033	0.00497
2633.25456	0.00523
2631.96879	0.00530
2630.68302	0.00532
2629.39725	0.00533
2628.11148	0.00521
2626.82571	0.00489
2625.53994	0.00449
2624.25418	0.00427
2622.96841	0.00437
2621.68264	0.00468
2620.39687	0.00495
2619.11110	0.00505
2617.82533	0.00502
2616.53956	0.00496
2615.25379	0.00488
2613.96802	0.00468
2612.68226	0.00434
2611.39649	0.00398
2610.11072	0.00373
2608.82495	0.00365
2607.53918	0.00374
2606.25341	0.00403
2604.96764	0.00447
2603.68187	0.00489
2602.39611	0.00506
2601.11034	0.00491
2599.82457	0.00459
2598.53880	0.00438
2597.25303	0.00441
2595.96726	0.00457
2594.68149	0.00460
2593.39572	0.00448
2592.10995	0.00442
2590.82419	0.00457
2589.53842	0.00477
2588.25265	0.00470
2586.96688	0.00435
2585.68111	0.00406
2584.39534	0.00415
2583.10957	0.00457
2581.82380	0.00489
2580.53804	0.00477
2579.25227	0.00428
2577.96650	0.00380
2576.68073	0.00363
2575.39496	0.00378
2574.10919	0.00406
2572.82342	0.00432
2571.53765	0.00448
2570.25188	0.00456
2568.96612	0.00453
2567.68035	0.00440
2566.39458	0.00422
2565.10881	0.00409
2563.82304	0.00404
2562.53727	0.00409
2561.25150	0.00424
2559.96573	0.00452
2558.67997	0.00488
2557.39420	0.00519
2556.10843	0.00535
2554.82266	0.00527
2553.53689	0.00497
2552.25112	0.00454
2550.96535	0.00422
2549.67958	0.00421
2548.39381	0.00452
2547.10805	0.00481
2545.82228	0.00476
2544.53651	0.00429
2543.25074	0.00367
2541.96497	0.00325
2540.67920	0.00319
2539.39343	0.00343
2538.10766	0.00382
2536.82190	0.00419
2535.53613	0.00446
2534.25036	0.00463
2532.96459	0.00466
2531.67882	0.00456
2530.39305	0.00443
2529.10728	0.00446
2527.82151	0.00469
2526.53574	0.00495
2525.24998	0.00500
2523.96421	0.00477
2522.67844	0.00439
2521.39267	0.00405
2520.10690	0.00391
2518.82113	0.00394
2517.53536	0.00397
2516.24959	0.00386
2514.96383	0.00374
2513.67806	0.00379
2512.39229	0.00396
2511.10652	0.00401
2509.82075	0.00385
2508.53498	0.00377
2507.24921	0.00403
2505.96344	0.00452
2504.67767	0.00483
2503.39191	0.00474
2502.10614	0.00439
2500.82037	0.00418
2499.53460	0.00430
2498.24883	0.00466
2496.96306	0.00499
2495.67729	0.00512
2494.39152	0.00506
2493.10576	0.00489
2491.81999	0.00473
2490.53422	0.00467
2489.24845	0.00465
2487.96268	0.00455
2486.67691	0.00430
2485.39114	0.00403
2484.10537	0.00393
2482.81960	0.00400
2481.53384	0.00411
2480.24807	0.00410
2478.96230	0.00394
2477.67653	0.00376
2476.39076	0.00372
2475.10499	0.00378
2473.81922	0.00379
2472.53345	0.00372
2471.24769	0.00375
2469.96192	0.00402
2468.67615	0.00442
2467.39038	0.00471
2466.10461	0.00476
2464.81884	0.00460
2463.53307	0.00433
2462.24730	0.00413
2460.96153	0.00412
2459.67577	0.00425
2458.39000	0.00439
2457.10423	0.00450
2455.81846	0.00464
2454.53269	0.00472
2453.24692	0.00458
2451.96115	0.00418
2450.67538	0.00378
2449.38962	0.00366
2448.10385	0.00380
2446.81808	0.00395
2445.53231	0.00394
2444.24654	0.00385
2442.96077	0.00383
2441.67500	0.00384
2440.38923	0.00378
2439.10346	0.00364
2437.81770	0.00351
2436.53193	0.00353
2435.24616	0.00367
2433.96039	0.00376
2432.67462	0.00369
2431.38885	0.00350
2430.10308	0.00337
2428.81731	0.00341
2427.53155	0.00359
2426.24578	0.00379
2424.96001	0.00396
2423.67424	0.00411
2422.38847	0.00431
2421.10270	0.00455
2419.81693	0.00467
2418.53116	0.00450
2417.24539	0.00409
2415.95963	0.00371
2414.67386	0.00358
2413.38809	0.00367
2412.10232	0.00381
2410.81655	0.00388
2409.53078	0.00388
2408.24501	0.00387
2406.95924	0.00392
2405.67347	0.00408
2404.38771	0.00431
2403.10194	0.00452
2401.81617	0.00459
2400.53040	0.00454
2399.24463	0.00443
2397.95886	0.00461
2396.67309	0.00483
2395.38732	0.00487
2394.10156	0.00471
2392.81579	0.00453
2391.53002	0.00447
2390.24425	0.00454
2388.95848	0.00456
2387.67271	0.00442
2386.38694	0.00412
2385.10117	0.00377
2383.81540	0.00349
2382.52964	0.00335
2381.24387	0.00335
2379.95810	0.00342
2378.67233	0.00350
2377.38656	0.00360
2376.10079	0.00356
2374.81502	0.00334
2373.52925	0.00312
2372.24349	0.00297
2370.95772	0.00328
2369.67195	0.00359
2368.38618	0.00381
2367.10041	0.00418
2365.81464	0.00476
2364.52887	0.00479
2363.24310	0.00464
2361.95733	0.00469
2360.67157	0.00508
2359.38580	0.00498
2358.10003	0.00489
2356.81426	0.00498
2355.52849	0.00514
2354.24272	0.00533
2352.95695	0.00504
2351.67118	0.00476
2350.38542	0.00497
2349.09965	0.00493
2347.81388	0.00394
2346.52811	0.00318
2345.24234	0.00317
2343.95657	0.00349
2342.67080	0.00321
2341.38503	0.00316
2340.09926	0.00382
2338.81350	0.00425
2337.52773	0.00434
2336.24196	0.00438
2334.95619	0.00448
2333.67042	0.00450
2332.38465	0.00372
2331.09888	0.00396
2329.81311	0.00464
2328.52735	0.00385
2327.24158	0.00435
2325.95581	0.00549
2324.67004	0.00504
2323.38427	0.00503
2322.09850	0.00572
2320.81273	0.00476
2319.52696	0.00457
2318.24119	0.00483
2316.95543	0.00408
2315.66966	0.00395
2314.38389	0.00391
2313.09812	0.00349
2311.81235	0.00378
2310.52658	0.00391
2309.24081	0.00414
2307.95504	0.00456
2306.66928	0.00440
2305.38351	0.00429
2304.09774	0.00416
2302.81197	0.00407
2301.52620	0.00424
2300.24043	0.00425
2298.95466	0.00413
2297.66889	0.00379
2296.38312	0.00345
2295.09736	0.00330
2293.81159	0.00323
2292.52582	0.00317
2291.24005	0.00294
2289.95428	0.00266
2288.66851	0.00249
2287.38274	0.00263
2286.09697	0.00314
2284.81121	0.00380
2283.52544	0.00434
2282.23967	0.00454
2280.95390	0.00446
2279.66813	0.00425
2278.38236	0.00397
2277.09659	0.00359
2275.81082	0.00318
2274.52505	0.00294
2273.23929	0.00305
2271.95352	0.00342
2270.66775	0.00381
2269.38198	0.00404
2268.09621	0.00409
2266.81044	0.00403
2265.52467	0.00392
2264.23890	0.00391
2262.95314	0.00406
2261.66737	0.00426
2260.38160	0.00425
2259.09583	0.00399
2257.81006	0.00368
2256.52429	0.00343
2255.23852	0.00318
2253.95275	0.00289
2252.66698	0.00269
2251.38122	0.00274
2250.09545	0.00304
2248.80968	0.00323
2247.52391	0.00344
2246.23814	0.00336
2244.95237	0.00297
2243.66660	0.00239
2242.38083	0.00178
2241.09507	0.00121
2239.80930	0.00072
2238.52353	0.00049
2237.23776	0.00065
2235.95199	0.00115
2234.66622	0.00178
2233.38045	0.00229
2232.09468	0.00241
2230.80891	0.00197
2229.52315	0.00106
2228.23738	0.00011
2226.95161	-0.00042
2225.66584	-0.00042
2224.38007	0.00001
2223.09430	0.00064
2221.80853	0.00123
2220.52276	0.00154
2219.23700	0.00144
2217.95123	0.00108
2216.66546	0.00087
2215.37969	0.00112
2214.09392	0.00165
2212.80815	0.00194
2211.52238	0.00190
2210.23661	0.00208
2208.95084	0.00289
2207.66508	0.00400
2206.37931	0.00458
2205.09354	0.00435
2203.80777	0.00386
2202.52200	0.00376
2201.23623	0.00403
2199.95046	0.00405
2198.66469	0.00337
2197.37893	0.00222
2196.09316	0.00114
2194.80739	0.00054
2193.52162	0.00063
2192.23585	0.00145
2190.95008	0.00268
2189.66431	0.00358
2188.37854	0.00363
2187.09277	0.00308
2185.80701	0.00263
2184.52124	0.00252
2183.23547	0.00237
2181.94970	0.00191
2180.66393	0.00141
2179.37816	0.00132
2178.09239	0.00173
2176.80662	0.00231
2175.52085	0.00262
2174.23509	0.00251
2172.94932	0.00220
2171.66355	0.00207
2170.37778	0.00223
2169.09201	0.00236
2167.80624	0.00202
2166.52047	0.00109
2165.23470	-0.00003
2163.94894	-0.00075
2162.66317	-0.00079
2161.37740	-0.00039
2160.09163	0.00007
2158.80586	0.00036
2157.52009	0.00036
2156.23432	-0.00002
2154.94855	-0.00072
2153.66278	-0.00131
2152.37702	-0.00130
2151.09125	-0.00053
2149.80548	0.00071
2148.51971	0.00204
2147.23394	0.00325
2145.94817	0.00435
2144.66240	0.00530
2143.37663	0.00578
2142.09087	0.00545
2140.80510	0.00437
2139.51933	0.00317
2138.23356	0.00244
2136.94779	0.00222
2135.66202	0.00224
2134.37625	0.00238
2133.09048	0.00266
2131.80471	0.00295
2130.51895	0.00310
2129.23318	0.00309
2127.94741	0.00292
2126.66164	0.00254
2125.37587	0.00196
2124.09010	0.00146
2122.80433	0.00130
2121.51856	0.00145
2120.23280	0.00166
2118.94703	0.00182
2117.66126	0.00190
2116.37549	0.00184
2115.08972	0.00158
2113.80395	0.00119
2112.51818	0.00087
2111.23241	0.00074
2109.94664	0.00076
2108.66088	0.00086
2107.37511	0.00099
2106.08934	0.00116
2104.80357	0.00132
2103.51780	0.00137
2102.23203	0.00113
2100.94626	0.00050
2099.66049	-0.00052
2098.37473	-0.00147
2097.08896	-0.00188
2095.80319	-0.00165
2094.51742	-0.00093
2093.23165	0.00002
2091.94588	0.00085
2090.66011	0.00131
2089.37434	0.00128
2088.08857	0.00093
2086.80281	0.00059
2085.51704	0.00051
2084.23127	0.00063
2082.94550	0.00068
2081.65973	0.00038
2080.37396	-0.00027
2079.08819	-0.00097
2077.80242	-0.00137
2076.51666	-0.00129
2075.23089	-0.00083
2073.94512	-0.00018
2072.65935	0.00042
2071.37358	0.00071
2070.08781	0.00060
2068.80204	0.00024
2067.51627	-0.00002
2066.23050	0.00001
2064.94474	0.00033
2063.65897	0.00079
2062.37320	0.00129
2061.08743	0.00173
2059.80166	0.00199
2058.51589	0.00200
2057.23012	0.00170
2055.94435	0.00110
2054.65859	0.00036
2053.37282	-0.00024
2052.08705	-0.00055
2050.80128	-0.00071
2049.51551	-0.00096
2048.22974	-0.00135
2046.94397	-0.00160
2045.65820	-0.00129
2044.37243	-0.00037
2043.08667	0.00071
2041.80090	0.00126
2040.51513	0.00090
2039.22936	-0.00015
2037.94359	-0.00134
2036.65782	-0.00220
2035.37205	-0.00257
2034.08628	-0.00258
2032.80052	-0.00242
2031.51475	-0.00211
2030.22898	-0.00146
2028.94321	-0.00038
2027.65744	0.00079
2026.37167	0.00150
2025.08590	0.00138
2023.80013	0.00063
2022.51436	-0.00002
2021.22860	-0.00001
2019.94283	0.00046
2018.65706	0.00057
2017.37129	-0.00023
2016.08552	-0.00165
2014.79975	-0.00282
2013.51398	-0.00299
2012.22821	-0.00207
2010.94245	-0.00071
2009.65668	0.00017
2008.37091	0.00008
2007.08514	-0.00059
2005.79937	-0.00095
2004.51360	-0.00051
2003.22783	0.00048
2001.94206	0.00143
2000.65629	0.00196
1999.37053	0.00202
1998.08476	0.00166
1996.79899	0.00106
1995.51322	0.00061
1994.22745	0.00076
1992.94168	0.00170
1991.65591	0.00318
1990.37014	0.00459
1989.08438	0.00533
1987.79861	0.00513
1986.51284	0.00426
1985.22707	0.00332
1983.94130	0.00277
1982.65553	0.00261
1981.36976	0.00256
1980.08399	0.00239
1978.79822	0.00209
1977.51246	0.00176
1976.22669	0.00165
1974.94092	0.00194
1973.65515	0.00247
1972.36938	0.00280
1971.08361	0.00263
1969.79784	0.00217
1968.51207	0.00182
1967.22631	0.00173
1965.94054	0.00171
1964.65477	0.00154
1963.36900	0.00114
1962.08323	0.00060
1960.79746	0.00017
1959.51169	0.00016
1958.22592	0.00070
1956.94015	0.00159
1955.65439	0.00246
1954.36862	0.00301
1953.08285	0.00313
1951.79708	0.00290
1950.51131	0.00253
1949.22554	0.00220
1947.93977	0.00196
1946.65400	0.00172
1945.36823	0.00143
1944.08247	0.00124
1942.79670	0.00135
1941.51093	0.00178
1940.22516	0.00221
1938.93939	0.00230
1937.65362	0.00203
1936.36785	0.00167
1935.08208	0.00151
1933.79632	0.00158
1932.51055	0.00180
1931.22478	0.00215
1929.93901	0.00265
1928.65324	0.00323
1927.36747	0.00368
1926.08170	0.00377
1924.79593	0.00349
1923.51016	0.00301
1922.22440	0.00258
1920.93863	0.00227
1919.65286	0.00208
1918.36709	0.00204
1917.08132	0.00227
1915.79555	0.00277
1914.50978	0.00332
1913.22401	0.00361
1911.93825	0.00350
1910.65248	0.00308
1909.36671	0.00257
1908.08094	0.00217
1906.79517	0.00205
1905.50940	0.00225
1904.22363	0.00260
1902.93786	0.00287
1901.65209	0.00291
1900.36633	0.00271
1899.08056	0.00241
1897.79479	0.00216
1896.50902	0.00209
1895.22325	0.00220
1893.93748	0.00239
1892.65171	0.00250
1891.36594	0.00249
1890.08018	0.00240
1888.79441	0.00230
1887.50864	0.00219
1886.22287	0.00203
1884.93710	0.00181
1883.65133	0.00162
1882.36556	0.00154
1881.07979	0.00160
1879.79402	0.00176
1878.50826	0.00194
1877.22249	0.00213
1875.93672	0.00232
1874.65095	0.00247
1873.36518	0.00253
1872.07941	0.00246
1870.79364	0.00233
1869.50787	0.00220
1868.22211	0.00215
1866.93634	0.00221
1865.65057	0.00236
1864.36480	0.00256
1863.07903	0.00273
1861.79326	0.00281
1860.50749	0.00279
1859.22172	0.00270
1857.93595	0.00264
1856.65019	0.00262
1855.36442	0.00263
1854.07865	0.00263
1852.79288	0.00263
1851.50711	0.00264
1850.22134	0.00261
1848.93557	0.00252
1847.64980	0.00239
1846.36404	0.00229
1845.07827	0.00228
1843.79250	0.00233
1842.50673	0.00234
1841.22096	0.00226
1839.93519	0.00213
1838.64942	0.00202
1837.36365	0.00201
1836.07788	0.00211
1834.79212	0.00225
1833.50635	0.00240
1832.22058	0.00254
1830.93481	0.00267
1829.64904	0.00276
1828.36327	0.00278
1827.07750	0.00277
1825.79173	0.00278
1824.50597	0.00280
1823.22020	0.00281
1821.93443	0.00282
1820.64866	0.00289
1819.36289	0.00302
1818.07712	0.00313
1816.79135	0.00312
1815.50558	0.00297
1814.21981	0.00276
1812.93405	0.00259
1811.64828	0.00250
1810.36251	0.00248
1809.07674	0.00246
1807.79097	0.00246
1806.50520	0.00249
1805.21943	0.00255
1803.93366	0.00261
1802.64790	0.00262
1801.36213	0.00257
1800.07636	0.00250
1798.79059	0.00244
1797.50482	0.00239
1796.21905	0.00231
1794.93328	0.00224
1793.64751	0.00221
1792.36174	0.00229
1791.07598	0.00243
1789.79021	0.00256
1788.50444	0.00261
1787.21867	0.00258
1785.93290	0.00252
1784.64713	0.00246
1783.36136	0.00243
1782.07559	0.00243
1780.78983	0.00242
1779.50406	0.00238
1778.21829	0.00231
1776.93252	0.00230
1775.64675	0.00238
1774.36098	0.00253
1773.07521	0.00266
1771.78944	0.00266
1770.50367	0.00254
1769.21791	0.00239
1767.93214	0.00230
1766.64637	0.00232
1765.36060	0.00239
1764.07483	0.00246
1762.78906	0.00250
1761.50329	0.00248
1760.21752	0.00239
1758.93176	0.00225
1757.64599	0.00209
1756.36022	0.00193
1755.07445	0.00174
1753.78868	0.00148
1752.50291	0.00114
1751.21714	0.00081
1749.93137	0.00056
1748.64560	0.00036
1747.35984	0.00013
1746.07407	-0.00019
1744.78830	-0.00055
1743.50253	-0.00086
1742.21676	-0.00108
1740.93099	-0.00121
1739.64522	-0.00130
1738.35945	-0.00134
1737.07369	-0.00127
1735.78792	-0.00104
1734.50215	-0.00069
1733.21638	-0.00032
1731.93061	-0.00007
1730.64484	-0.00001
1729.35907	-0.00007
1728.07330	-0.00010
1726.78753	-0.00002
1725.50177	0.00022
1724.21600	0.00055
1722.93023	0.00089
1721.64446	0.00116
1720.35869	0.00131
1719.07292	0.00138
1717.78715	0.00143
1716.50138	0.00152
1715.21561	0.00165
1713.92985	0.00183
1712.64408	0.00201
1711.35831	0.00220
1710.07254	0.00237
1708.78677	0.00252
1707.50100	0.00264
1706.21523	0.00272
1704.92946	0.00274
1703.64370	0.00275
1702.35793	0.00284
1701.07216	0.00306
1699.78639	0.00334
1698.50062	0.00359
1697.21485	0.00375
1695.92908	0.00385
1694.64331	0.00395
1693.35754	0.00407
1692.07178	0.00423
1690.78601	0.00440
1689.50024	0.00457
1688.21447	0.00472
1686.92870	0.00487
1685.64293	0.00509
1684.35716	0.00535
1683.07139	0.00560
1681.78563	0.00576
1680.49986	0.00584
1679.21409	0.00589
1677.92832	0.00599
1676.64255	0.00613
1675.35678	0.00628
1674.07101	0.00640
1672.78524	0.00653
1671.49947	0.00667
1670.21371	0.00681
1668.92794	0.00691
1667.64217	0.00698
1666.35640	0.00704
1665.07063	0.00714
1663.78486	0.00727
1662.49909	0.00740
1661.21332	0.00750
1659.92756	0.00759
1658.64179	0.00766
1657.35602	0.00773
1656.07025	0.00781
1654.78448	0.00792
1653.49871	0.00804
1652.21294	0.00812
1650.92717	0.00813
1649.64140	0.00809
1648.35564	0.00807
1647.06987	0.00810
1645.78410	0.00818
1644.49833	0.00826
1643.21256	0.00831
1641.92679	0.00831
1640.64102	0.00826
1639.35525	0.00819
1638.06949	0.00814
1636.78372	0.00811
1635.49795	0.00813
1634.21218	0.00814
1632.92641	0.00812
1631.64064	0.00809
1630.35487	0.00807
1629.06910	0.00803
1627.78333	0.00795
1626.49757	0.00781
1625.21180	0.00765
1623.92603	0.00754
1622.64026	0.00747
1621.35449	0.00738
1620.06872	0.00723
1618.78295	0.00708
1617.49718	0.00700
1616.21142	0.00702
1614.92565	0.00706
1613.63988	0.00705
1612.35411	0.00695
1611.06834	0.00683
1609.78257	0.00675
1608.49680	0.00675
1607.21103	0.00678
1605.92526	0.00679
1604.63950	0.00674
1603.35373	0.00664
1602.06796	0.00651
1600.78219	0.00639
1599.49642	0.00633
1598.21065	0.00634
1596.92488	0.00641
1595.63911	0.00649
1594.35335	0.00660
1593.06758	0.00673
1591.78181	0.00687
1590.49604	0.00697
1589.21027	0.00698
1587.92450	0.00694
1586.63873	0.00692
1585.35296	0.00699
1584.06719	0.00712
1582.78143	0.00725
1581.49566	0.00733
1580.20989	0.00738
1578.92412	0.00744
1577.63835	0.00756
1576.35258	0.00773
1575.06681	0.00793
1573.78104	0.00809
1572.49528	0.00821
1571.20951	0.00829
1569.92374	0.00836
1568.63797	0.00844
1567.35220	0.00852
1566.06643	0.00860
1564.78066	0.00868
1563.49489	0.00876
1562.20912	0.00887
1560.92336	0.00901
1559.63759	0.00921
1558.35182	0.00940
1557.06605	0.00954
1555.78028	0.00960
1554.49451	0.00963
1553.20874	0.00966
1551.92297	0.00968
1550.63721	0.00968
1549.35144	0.00969
1548.06567	0.00973
1546.77990	0.00979
1545.49413	0.00985
1544.20836	0.00984
1542.92259	0.00979
1541.63682	0.00976
1540.35105	0.00982
1539.06529	0.00994
1537.77952	0.01005
1536.49375	0.01011
1535.20798	0.01015
1533.92221	0.01020
1532.63644	0.01025
1531.35067	0.01029
1530.06490	0.01036
1528.77914	0.01049
1527.49337	0.01070
1526.20760	0.01094
1524.92183	0.01116
1523.63606	0.01135
1522.35029	0.01152
1521.06452	0.01168
1519.77875	0.01185
1518.49298	0.01204
1517.20722	0.01226
1515.92145	0.01250
1514.63568	0.01274
1513.34991	0.01293
1512.06414	0.01309
1510.77837	0.01323
1509.49260	0.01341
1508.20683	0.01369
1506.92107	0.01405
1505.63530	0.01442
1504.34953	0.01471
1503.06376	0.01490
1501.77799	0.01508
1500.49222	0.01530
1499.20645	0.01556
1497.92068	0.01580
1496.63491	0.01597
1495.34915	0.01609
1494.06338	0.01620
1492.77761	0.01632
1491.49184	0.01646
1490.20607	0.01664
1488.92030	0.01686
1487.63453	0.01710
1486.34876	0.01735
1485.06299	0.01756
1483.77723	0.01773
1482.49146	0.01787
1481.20569	0.01801
1479.91992	0.01817
1478.63415	0.01833
1477.34838	0.01850
1476.06261	0.01865
1474.77684	0.01878
1473.49108	0.01887
1472.20531	0.01890
1470.91954	0.01889
1469.63377	0.01886
1468.34800	0.01885
1467.06223	0.01888
1465.77646	0.01896
1464.49069	0.01904
1463.20492	0.01910
1461.91916	0.01915
1460.63339	0.01923
1459.34762	0.01939
1458.06185	0.01962
1456.77608	0.01986
1455.49031	0.02005
1454.20454	0.02019
1452.91877	0.02030
1451.63301	0.02040
1450.34724	0.02049
1449.06147	0.02056
1447.77570	0.02059
1446.48993	0.02058
1445.20416	0.02054
1443.91839	0.02052
1442.63262	0.02052
1441.34685	0.02056
1440.06109	0.02063
1438.77532	0.02072
1437.48955	0.02083
1436.20378	0.02094
1434.91801	0.02106
1433.63224	0.02117
1432.34647	0.02129
1431.06070	0.02143
1429.77494	0.02164
1428.48917	0.02189
1427.20340	0.02216
1425.91763	0.02245
1424.63186	0.02273
1423.34609	0.02300
1422.06032	0.02327
1420.77455	0.02351
1419.48878	0.02372
1418.20302	0.02386
1416.91725	0.02392
1415.63148	0.02393
1414.34571	0.02393
1413.05994	0.02394
1411.77417	0.02394
1410.48840	0.02389
1409.20263	0.02381
1407.91687	0.02368
1406.63110	0.02350
1405.34533	0.02327
1404.05956	0.02298
1402.77379	0.02266
1401.48802	0.02233
1400.20225	0.02199
1398.91648	0.02159
1397.63071	0.02114
1396.34495	0.02064
1395.05918	0.02012
1393.77341	0.01959
1392.48764	0.01905
1391.20187	0.01853
1389.91610	0.01805
1388.63033	0.01761
1387.34456	0.01721
1386.05880	0.01681
1384.77303	0.01640
1383.48726	0.01595
1382.20149	0.01543
1380.91572	0.01483
1379.62995	0.01422
1378.34418	0.01365
1377.05841	0.01318
1375.77264	0.01278
1374.48688	0.01244
1373.20111	0.01212
1371.91534	0.01180
1370.62957	0.01148
1369.34380	0.01115
1368.05803	0.01083
1366.77226	0.01053
1365.48649	0.01025
1364.20073	0.00997
1362.91496	0.00970
1361.62919	0.00943
1360.34342	0.00915
1359.05765	0.00887
1357.77188	0.00861
1356.48611	0.00838
1355.20034	0.00819
1353.91457	0.00803
1352.62881	0.00788
1351.34304	0.00773
1350.05727	0.00759
1348.77150	0.00745
1347.48573	0.00732
1346.19996	0.00722
1344.91419	0.00714
1343.62842	0.00709
1342.34266	0.00705
1341.05689	0.00697
1339.77112	0.00686
1338.48535	0.00673
1337.19958	0.00663
1335.91381	0.00656
1334.62804	0.00649
1333.34227	0.00642
1332.05650	0.00635
1330.77074	0.00629
1329.48497	0.00621
1328.19920	0.00609
1326.91343	0.00594
1325.62766	0.00583
1324.34189	0.00580
1323.05612	0.00584
1321.77035	0.00589
1320.48459	0.00590
1319.19882	0.00585
1317.91305	0.00575
1316.62728	0.00566
1315.34151	0.00560
1314.05574	0.00557
1312.76997	0.00555
1311.48420	0.00550
1310.19843	0.00541
1308.91267	0.00529
1307.62690	0.00519
1306.34113	0.00512
1305.05536	0.00508
1303.76959	0.00504
1302.48382	0.00499
1301.19805	0.00494
1299.91228	0.00492
1298.62652	0.00494
1297.34075	0.00495
1296.05498	0.00493
1294.76921	0.00487
1293.48344	0.00479
1292.19767	0.00474
1290.91190	0.00472
1289.62613	0.00472
1288.34036	0.00472
1287.05460	0.00472
1285.76883	0.00472
1284.48306	0.00474
1283.19729	0.00475
1281.91152	0.00476
1280.62575	0.00473
1279.33998	0.00465
1278.05421	0.00454
1276.76845	0.00444
1275.48268	0.00438
1274.19691	0.00436
1272.91114	0.00436
1271.62537	0.00436
1270.33960	0.00434
1269.05383	0.00430
1267.76806	0.00424
1266.48229	0.00417
1265.19653	0.00408
1263.91076	0.00397
1262.62499	0.00388
1261.33922	0.00382
1260.05345	0.00380
1258.76768	0.00382
1257.48191	0.00386
1256.19614	0.00389
1254.91037	0.00391
1253.62461	0.00392
1252.33884	0.00392
1251.05307	0.00392
1249.76730	0.00392
1248.48153	0.00391
1247.19576	0.00389
1245.90999	0.00388
1244.62422	0.00390
1243.33846	0.00393
1242.05269	0.00396
1240.76692	0.00398
1239.48115	0.00399
1238.19538	0.00399
1236.90961	0.00399
1235.62384	0.00397
1234.33807	0.00392
1233.05230	0.00386
1231.76654	0.00380
1230.48077	0.00374
1229.19500	0.00370
1227.90923	0.00366
1226.62346	0.00362
1225.33769	0.00359
1224.05192	0.00359
1222.76615	0.00361
1221.48039	0.00363
1220.19462	0.00362
1218.90885	0.00358
1217.62308	0.00352
1216.33731	0.00346
1215.05154	0.00341
1213.76577	0.00340
1212.48000	0.00340
1211.19423	0.00340
1209.90847	0.00339
1208.62270	0.00336
1207.33693	0.00332
1206.05116	0.00330
1204.76539	0.00328
1203.47962	0.00325
1202.19385	0.00319
1200.90808	0.00314
1199.62232	0.00308
1198.33655	0.00307
1197.05078	0.00309
1195.76501	0.00313
1194.47924	0.00318
1193.19347	0.00323
1191.90770	0.00324
1190.62193	0.00318
1189.33616	0.00303
1188.05040	0.00286
1186.76463	0.00273
1185.47886	0.00264
1184.19309	0.00258
1182.90732	0.00252
1181.62155	0.00249
1180.33578	0.00248
1179.05001	0.00251
1177.76425	0.00255
1176.47848	0.00259
1175.19271	0.00261
1173.90694	0.00259
1172.62117	0.00257
1171.33540	0.00257
1170.04963	0.00261
1168.76386	0.00269
1167.47809	0.00280
1166.19233	0.00286
1164.90656	0.00288
1163.62079	0.00286
1162.33502	0.00285
1161.04925	0.00287
1159.76348	0.00290
1158.47771	0.00295
1157.19194	0.00303
1155.90618	0.00313
1154.62041	0.00322
1153.33464	0.00325
1152.04887	0.00322
1150.76310	0.00317
1149.47733	0.00317
1148.19156	0.00329
1146.90579	0.00352
1145.62002	0.00379
1144.33426	0.00402
1143.04849	0.00418
1141.76272	0.00435
1140.47695	0.00458
1139.19118	0.00488
1137.90541	0.00524
1136.61964	0.00562
1135.33387	0.00605
1134.04811	0.00653
1132.76234	0.00705
1131.47657	0.00758
1130.19080	0.00810
1128.90503	0.00863
1127.61926	0.00922
1126.33349	0.00993
1125.04772	0.01075
1123.76195	0.01165
1122.47619	0.01258
1121.19042	0.01350
1119.90465	0.01439
1118.61888	0.01527
1117.33311	0.01619
1116.04734	0.01714
1114.76157	0.01809
1113.47580	0.01902
1112.19004	0.01996
1110.90427	0.02092
1109.61850	0.02189
1108.33273	0.02284
1107.04696	0.02374
1105.76119	0.02457
1104.47542	0.02530
1103.18965	0.02594
1101.90388	0.02656
1100.61812	0.02723
1099.33235	0.02799
1098.04658	0.02880
1096.76081	0.02960
1095.47504	0.03033
1094.18927	0.03096
1092.90350	0.03151
1091.61773	0.03201
1090.33197	0.03248
1089.04620	0.03292
1087.76043	0.03338
1086.47466	0.03393
1085.18889	0.03454
1083.90312	0.03515
1082.61735	0.03573
1081.33158	0.03632
1080.04581	0.03698
1078.76005	0.03771
1077.47428	0.03849
1076.18851	0.03927
1074.90274	0.04006
1073.61697	0.04085
1072.33120	0.04165
1071.04543	0.04248
1069.75966	0.04334
1068.47390	0.04422
1067.18813	0.04513
1065.90236	0.04601
1064.61659	0.04684
1063.33082	0.04761
1062.04505	0.04835
1060.75928	0.04911
1059.47351	0.04993
1058.18774	0.05074
1056.90198	0.05147
1055.61621	0.05210
1054.33044	0.05270
1053.04467	0.05332
1051.75890	0.05400
1050.47313	0.05471
1049.18736	0.05543
1047.90159	0.05615
1046.61583	0.05687
1045.33006	0.05760
1044.04429	0.05831
1042.75852	0.05899
1041.47275	0.05963
1040.18698	0.06023
1038.90121	0.06079
1037.61544	0.06133
1036.32967	0.06189
1035.04391	0.06246
1033.75814	0.06296
1032.47237	0.06334
1031.18660	0.06363
1029.90083	0.06385
1028.61506	0.06403
1027.32929	0.06417
1026.04352	0.06428
1024.75775	0.06432
1023.47199	0.06421
1022.18622	0.06388
1020.90045	0.06337
1019.61468	0.06273
1018.32891	0.06204
1017.04314	0.06131
1015.75737	0.06055
1014.47160	0.05973
1013.18584	0.05882
1011.90007	0.05781
1010.61430	0.05668
1009.32853	0.05543
1008.04276	0.05406
1006.75699	0.05258
1005.47122	0.05099
1004.18545	0.04932
1002.89968	0.04758
1001.61392	0.04580
1000.32815	0.04403
999.04238	0.04229
997.75661	0.04053
996.47084	0.03876
995.18507	0.03702
993.89930	0.03536
992.61353	0.03379
991.32777	0.03226
990.04200	0.03077
988.75623	0.02937
987.47046	0.02812
986.18469	0.02699
984.89892	0.02593
983.61315	0.02490
982.32738	0.02388
981.04161	0.02289
979.75585	0.02201
978.47008	0.02127
977.18431	0.02067
975.89854	0.02017
974.61277	0.01972
973.32700	0.01932
972.04123	0.01898
970.75546	0.01874
969.46970	0.01864
968.18393	0.01868
966.89816	0.01886
965.61239	0.01912
964.32662	0.01940
963.04085	0.01965
961.75508	0.01984
960.46931	0.01992
959.18354	0.01981
957.89778	0.01948
956.61201	0.01904
955.32624	0.01862
954.04047	0.01832
952.75470	0.01804
951.46893	0.01768
950.18316	0.01719
948.89739	0.01663
947.61163	0.01606
946.32586	0.01553
945.04009	0.01508
943.75432	0.01473
942.46855	0.01449
941.18278	0.01428
939.89701	0.01401
938.61124	0.01368
937.32547	0.01332
936.03971	0.01297
934.75394	0.01263
933.46817	0.01229
932.18240	0.01197
930.89663	0.01167
929.61086	0.01138
928.32509	0.01112
927.03932	0.01092
925.75356	0.01078
924.46779	0.01066
923.18202	0.01057
921.89625	0.01049
920.61048	0.01044
919.32471	0.01042
918.03894	0.01041
916.75317	0.01039
915.46740	0.01033
914.18164	0.01019
912.89587	0.00997
911.61010	0.00976
910.32433	0.00965
909.03856	0.00966
907.75279	0.00974
906.46702	0.00978
905.18125	0.00970
903.89549	0.00951
902.60972	0.00928
901.32395	0.00914
900.03818	0.00911
898.75241	0.00915
897.46664	0.00920
896.18087	0.00922
894.89510	0.00919
893.60933	0.00912
892.32357	0.00905
891.03780	0.00901
889.75203	0.00901
888.46626	0.00909
887.18049	0.00930
885.89472	0.00966
884.60895	0.01015
883.32318	0.01078
882.03742	0.01152
880.75165	0.01231
879.46588	0.01301
878.18011	0.01356
876.89434	0.01400
875.60857	0.01444
874.32280	0.01491
873.03703	0.01532
871.75126	0.01554
870.46550	0.01551
869.17973	0.01525
867.89396	0.01481
866.60819	0.01423
865.32242	0.01354
864.03665	0.01282
862.75088	0.01213
861.46511	0.01152
860.17935	0.01102
858.89358	0.01060
857.60781	0.01023
856.32204	0.00992
855.03627	0.00968
853.75050	0.00950
852.46473	0.00934
851.17896	0.00920
849.89319	0.00913
848.60743	0.00913
847.32166	0.00915
846.03589	0.00914
844.75012	0.00908
843.46435	0.00898
842.17858	0.00885
840.89281	0.00872
839.60704	0.00861
838.32128	0.00853
837.03551	0.00846
835.74974	0.00837
834.46397	0.00829
833.17820	0.00825
831.89243	0.00823
830.60666	0.00821
829.32089	0.00822
828.03512	0.00829
826.74936	0.00839
825.46359	0.00843
824.17782	0.00834
822.89205	0.00812
821.60628	0.00787
820.32051	0.00770
819.03474	0.00766
817.74897	0.00774
816.46321	0.00787
815.17744	0.00802
813.89167	0.00812
812.60590	0.00814
811.32013	0.00808
810.03436	0.00800
808.74859	0.00793
807.46282	0.00787
806.17705	0.00779
804.89129	0.00769
803.60552	0.00761
802.31975	0.00762
801.03398	0.00767
799.74821	0.00769
798.46244	0.00762
797.17667	0.00751
795.89090	0.00746
794.60513	0.00747
793.31937	0.00750
792.03360	0.00749
790.74783	0.00747
789.46206	0.00750
788.17629	0.00759
786.89052	0.00769
785.60475	0.00777
784.31898	0.00777
783.03322	0.00768
781.74745	0.00757
780.46168	0.00749
779.17591	0.00748
777.89014	0.00752
776.60437	0.00756
775.31860	0.00754
774.03283	0.00748
772.74706	0.00745
771.46130	0.00752
770.17553	0.00769
768.88976	0.00787
767.60399	0.00796
766.31822	0.00792
765.03245	0.00782
763.74668	0.00772
762.46091	0.00768
761.17515	0.00773
759.88938	0.00787
758.60361	0.00803
757.31784	0.00813
756.03207	0.00813
754.74630	0.00800
753.46053	0.00776
752.17476	0.00753
750.88899	0.00745
749.60323	0.00750
748.31746	0.00759
747.03169	0.00759
745.74592	0.00750
744.46015	0.00739
743.17438	0.00733
741.88861	0.00731
740.60284	0.00729
739.31708	0.00726
738.03131	0.00724
736.74554	0.00729
735.45977	0.00744
734.17400	0.00767
732.88823	0.00790
731.60246	0.00802
730.31669	0.00801
729.03092	0.00797
727.74516	0.00799
726.45939	0.00812
725.17362	0.00831
723.88785	0.00844
722.60208	0.00846
721.31631	0.00829
720.03054	0.00802
718.74477	0.00782
717.45901	0.00773
716.17324	0.00778
714.88747	0.00792
713.60170	0.00809
712.31593	0.00819
711.03016	0.00819
709.74439	0.00809
708.45862	0.00796
707.17285	0.00788
705.88709	0.00788
704.60132	0.00795
703.31555	0.00802
702.02978	0.00807
700.74401	0.00810
699.45824	0.00809
698.17247	0.00807
696.88670	0.00803
695.60094	0.00802
694.31517	0.00804
693.02940	0.00806
691.74363	0.00807
690.45786	0.00810
689.17209	0.00818
687.88632	0.00830
686.60055	0.00842
685.31478	0.00847
684.02902	0.00842
682.74325	0.00830
681.45748	0.00815
680.17171	0.00803
678.88594	0.00796
677.60017	0.00795
676.31440	0.00798
675.02863	0.00803
673.74287	0.00809
672.45710	0.00827
671.17133	0.00876
669.88556	0.00913
668.59979	0.00822
667.31402	0.00807
666.02825	0.00919
664.74248	0.00879
663.45671	0.00832
662.17095	0.00822
660.88518	0.00818
659.59941	0.00810
658.31364	0.00797
657.02787	0.00787
655.74210	0.00784
654.45633	0.00790
653.17056	0.00797
651.88480	0.00803
650.59903	0.00807
649.31326	0.00810
648.02749	0.00814
646.74172	0.00814
645.45595	0.00806
644.17018	0.00796
642.88441	0.00789
641.59864	0.00790
640.31288	0.00798
639.02711	0.00810
637.74134	0.00823
636.45557	0.00834
635.16980	0.00842
633.88403	0.00843
632.59826	0.00840
631.31249	0.00839
630.02673	0.00839
628.74096	0.00811
627.45519	0.00775
626.16942	0.00720
624.88365	0.00673
623.59788	0.00682
622.31211	0.00769
621.02634	0.00902
619.74057	0.01042
618.45481	0.01188
617.16904	0.01359
615.88327	0.01535
614.59750	0.01664
613.31173	0.01712
612.02596	0.01723
610.74019	0.01795
609.45442	0.01986
608.16866	0.02244
606.88289	0.02474
605.59712	0.02638
604.31135	0.02752
603.02558	0.02826
601.73981	0.02846
600.45404	0.02800
599.16827	0.02705
597.88250	0.02593
596.59674	0.02484
595.31097	0.02387
594.02520	0.02303
592.73943	0.02237
591.45366	0.02196
590.16789	0.02184
588.88212	0.02200
587.59635	0.02236
586.31059	0.02286
585.02482	0.02346
583.73905	0.02411
582.45328	0.02480
581.16751	0.02549
579.88174	0.02620
578.59597	0.02692
577.31020	0.02763
576.02443	0.02832
574.73867	0.02897
573.45290	0.02963
572.16713	0.03033
570.88136	0.03108
569.59559	0.03185
568.30982	0.03262
567.02405	0.03342
565.73828	0.03429
564.45251	0.03508
563.16675	0.03550
561.88098	0.03536
560.59521	0.03466
559.30944	0.03352
558.02367	0.03203
556.73790	0.03028
555.45213	0.02841
554.16636	0.02654
552.88060	0.02475
551.59483	0.02306
550.30906	0.02148
549.02329	0.02005
547.73752	0.01879
546.45175	0.01772
545.16598	0.01684
543.88021	0.01615
542.59444	0.01564
541.30868	0.01526
540.02291	0.01496
538.73714	0.01466
537.45137	0.01430
536.16560	0.01390
534.87983	0.01353
533.59406	0.01327
532.30829	0.01308
531.02253	0.01286
529.73676	0.01252
528.45099	0.01204
527.16522	0.01154
525.87945	0.01114
524.59368	0.01093
523.30791	0.01087
522.02214	0.01082
520.73637	0.01062
519.45061	0.01025
518.16484	0.00986
516.87907	0.00958
515.59330	0.00945
514.30753	0.00940
513.02176	0.00939
511.73599	0.00939
510.45022	0.00940
509.16446	0.00938
507.87869	0.00930
506.59292	0.00915
505.30715	0.00894
504.02138	0.00872
502.73561	0.00855
501.44984	0.00847
500.16407	0.00845
498.87830	0.00842
497.59254	0.00833
496.30677	0.00822
495.02100	0.00812
493.73523	0.00800
492.44946	0.00785
491.16369	0.00767
489.87792	0.00756
488.59215	0.00760
487.30639	0.00777
486.02062	0.00795
484.73485	0.00800
483.44908	0.00790
482.16331	0.00776
480.87754	0.00772
479.59177	0.00782
478.30600	0.00799
477.02023	0.00814
475.73447	0.00828
474.44870	0.00842
473.16293	0.00854
471.87716	0.00857
470.59139	0.00851
469.30562	0.00841
468.01985	0.00835
466.73408	0.00832
465.44832	0.00827
464.16255	0.00817
462.87678	0.00802
461.59101	0.00788
460.30524	0.00778
459.01947	0.00769
457.73370	0.00762
456.44793	0.00756
455.16216	0.00751
453.87640	0.00746
452.59063	0.00738
451.30486	0.00730
450.01909	0.00727
448.73332	0.00728
447.44755	0.00732
446.16178	0.00736
444.87601	0.00738
443.59025	0.00738
442.30448	0.00732
441.01871	0.00720
439.73294	0.00704
438.44717	0.00689
437.16140	0.00679
435.87563	0.00676
434.58986	0.00681
433.30409	0.00687
432.01833	0.00687
430.73256	0.00678
429.44679	0.00668
428.16102	0.00660
426.87525	0.00656
425.58948	0.00656
424.30371	0.00656
423.01794	0.00656
421.73218	0.00657
420.44641	0.00658
419.16064	0.00657
417.87487	0.00655
416.58910	0.00649
415.30333	0.00641
414.01756	0.00635
412.73179	0.00635
411.44602	0.00640
410.16026	0.00646
408.87449	0.00652
407.58872	0.00658
406.30295	0.00665
405.01718	0.00670
403.73141	0.00673
402.44564	0.00672
401.15987	0.00672
399.87411	0.00675
