3997.45528	0.04395
3996.16951	0.04455
3994.88374	0.04472
3993.59798	0.04423
3992.31221	0.04314
3991.02644	0.04200
3989.74067	0.04142
3988.45490	0.04159
3987.16913	0.04206
3985.88336	0.04229
3984.59759	0.04223
3983.31183	0.04229
3982.02606	0.04291
3980.74029	0.04406
3979.45452	0.04522
3978.16875	0.04584
3976.88298	0.04581
3975.59721	0.04548
3974.31144	0.04523
3973.02567	0.04512
3971.73991	0.04494
3970.45414	0.04449
3969.16837	0.04381
3967.88260	0.04319
3966.59683	0.04289
3965.31106	0.04285
3964.02529	0.04275
3962.73952	0.04241
3961.45376	0.04195
3960.16799	0.04161
3958.88222	0.04147
3957.59645	0.04146
3956.31068	0.04166
3955.02491	0.04226
3953.73914	0.04332
3952.45337	0.04454
3951.16760	0.04551
3949.88184	0.04614
3948.59607	0.04670
3947.31030	0.04737
3946.02453	0.04791
3944.73876	0.04796
3943.45299	0.04757
3942.16722	0.04716
3940.88145	0.04690
3939.59569	0.04664
3938.30992	0.04622
3937.02415	0.04562
3935.73838	0.04488
3934.45261	0.04407
3933.16684	0.04344
3931.88107	0.04318
3930.59530	0.04319
3929.30953	0.04313
3928.02377	0.04288
3926.73800	0.04269
3925.45223	0.04294
3924.16646	0.04371
3922.88069	0.04475
3921.59492	0.04571
3920.30915	0.04629
3919.02338	0.04626
3917.73762	0.04556
3916.45185	0.04458
3915.16608	0.04387
3913.88031	0.04364
3912.59454	0.04381
3911.30877	0.04415
3910.02300	0.04451
3908.73723	0.04488
3907.45146	0.04523
3906.16570	0.04545
3904.87993	0.04535
3903.59416	0.04485
3902.30839	0.04398
3901.02262	0.04303
3899.73685	0.04240
3898.45108	0.04233
3897.16531	0.04264
3895.87955	0.04295
3894.59378	0.04300
3893.30801	0.04289
3892.02224	0.04291
3890.73647	0.04336
3889.45070	0.04399
3888.16493	0.04424
3886.87916	0.04396
3885.59339	0.04355
3884.30763	0.04318
3883.02186	0.04265
3881.73609	0.04200
3880.45032	0.04172
3879.16455	0.04203
3877.87878	0.04259
3876.59301	0.04296
3875.30724	0.04307
3874.02148	0.04301
3872.73571	0.04272
3871.44994	0.04232
3870.16417	0.04238
3868.87840	0.04309
3867.59263	0.04368
3866.30686	0.04351
3865.02109	0.04299
3863.73532	0.04271
3862.44956	0.04258
3861.16379	0.04234
3859.87802	0.04209
3858.59225	0.04204
3857.30648	0.04198
3856.02071	0.04163
3854.73494	0.04127
3853.44917	0.04163
3852.16341	0.04269
3850.87764	0.04353
3849.59187	0.04350
3848.30610	0.04284
3847.02033	0.04210
3845.73456	0.04177
3844.44879	0.04203
3843.16302	0.04265
3841.87725	0.04305
3840.59149	0.04272
3839.30572	0.04190
3838.01995	0.04143
3836.73418	0.04170
3835.44841	0.04211
3834.16264	0.04201
3832.87687	0.04161
3831.59110	0.04155
3830.30534	0.04202
3829.01957	0.04266
3827.73380	0.04310
3826.44803	0.04335
3825.16226	0.04338
3823.87649	0.04293
3822.59072	0.04205
3821.30495	0.04128
3820.01918	0.04085
3818.73342	0.04023
3817.44765	0.03926
3816.16188	0.03886
3814.87611	0.03966
3813.59034	0.04085
3812.30457	0.04141
3811.01880	0.04124
3809.73303	0.04071
3808.44726	0.04020
3807.16150	0.04026
3805.87573	0.04106
3804.58996	0.04179
3803.30419	0.04164
3802.01842	0.04101
3800.73265	0.04077
3799.44688	0.04078
3798.16111	0.04042
3796.87535	0.03981
3795.58958	0.03943
3794.30381	0.03914
3793.01804	0.03859
3791.73227	0.03796
3790.44650	0.03770
3789.16073	0.03787
3787.87496	0.03818
3786.58919	0.03836
3785.30343	0.03843
3784.01766	0.03855
3782.73189	0.03874
3781.44612	0.03884
3780.16035	0.03880
3778.87458	0.03875
3777.58881	0.03878
3776.30304	0.03894
3775.01728	0.03931
3773.73151	0.03991
3772.44574	0.04057
3771.15997	0.04112
3769.87420	0.04148
3768.58843	0.04147
3767.30266	0.04092
3766.01689	0.04016
3764.73112	0.03975
3763.44536	0.03974
3762.15959	0.03968
3760.87382	0.03926
3759.58805	0.03860
3758.30228	0.03794
3757.01651	0.03751
3755.73074	0.03733
3754.44497	0.03719
3753.15921	0.03709
3751.87344	0.03729
3750.58767	0.03784
3749.30190	0.03855
3748.01613	0.03906
3746.73036	0.03882
3745.44459	0.03811
3744.15882	0.03799
3742.87305	0.03856
3741.58729	0.03875
3740.30152	0.03816
3739.01575	0.03738
3737.72998	0.03689
3736.44421	0.03685
3735.15844	0.03713
3733.87267	0.03726
3732.58690	0.03697
3731.30114	0.03663
3730.01537	0.03667
3728.72960	0.03706
3727.44383	0.03766
3726.15806	0.03836
3724.87229	0.03900
3723.58652	0.03954
3722.30075	0.04008
3721.01498	0.04058
3719.72922	0.04087
3718.44345	0.04090
3717.15768	0.04081
3715.87191	0.04065
3714.58614	0.04023
3713.30037	0.03959
3712.01460	0.03906
3710.72883	0.03874
3709.44307	0.03830
3708.15730	0.03739
3706.87153	0.03609
3705.58576	0.03479
3704.29999	0.03397
3703.01422	0.03394
3701.72845	0.03469
3700.44268	0.03586
3699.15691	0.03699
3697.87115	0.03778
3696.58538	0.03831
3695.29961	0.03893
3694.01384	0.03975
3692.72807	0.04042
3691.44230	0.04064
3690.15653	0.04050
3688.87076	0.04045
3687.58500	0.04086
3686.29923	0.04141
3685.01346	0.04147
3683.72769	0.04110
3682.44192	0.04080
3681.15615	0.04060
3679.87038	0.04016
3678.58461	0.03913
3677.29884	0.03761
3676.01308	0.03656
3674.72731	0.03677
3673.44154	0.03778
3672.15577	0.03853
3670.87000	0.03884
3669.58423	0.03915
3668.29846	0.03944
3667.01269	0.03956
3665.72693	0.03982
3664.44116	0.04044
3663.15539	0.04116
3661.86962	0.04156
3660.58385	0.04151
3659.29808	0.04106
3658.01231	0.04041
3656.72654	0.04007
3655.44077	0.04053
3654.15501	0.04155
3652.86924	0.04227
3651.58347	0.04228
3650.29770	0.04202
3649.01193	0.04209
3647.72616	0.04250
3646.44039	0.04272
3645.15462	0.04238
3643.86886	0.04170
3642.58309	0.04117
3641.29732	0.04095
3640.01155	0.04089
3638.72578	0.04087
3637.44001	0.04109
3636.15424	0.04172
3634.86847	0.04274
3633.58270	0.04391
3632.29694	0.04470
3631.01117	0.04468
3629.72540	0.04415
3628.43963	0.04395
3627.15386	0.04435
3625.86809	0.04488
3624.58232	0.04530
3623.29655	0.04585
3622.01079	0.04656
3620.72502	0.04719
3619.43925	0.04769
3618.15348	0.04818
3616.86771	0.04867
3615.58194	0.04900
3614.29617	0.04914
3613.01040	0.04921
3611.72463	0.04919
3610.43887	0.04897
3609.15310	0.04855
3607.86733	0.04817
3606.58156	0.04798
3605.29579	0.04794
3604.01002	0.04802
3602.72425	0.04812
3601.43848	0.04812
3600.15272	0.04804
3598.86695	0.04809
3597.58118	0.04834
3596.29541	0.04856
3595.00964	0.04855
3593.72387	0.04841
3592.43810	0.04847
3591.15233	0.04887
3589.86656	0.04954
3588.58080	0.05029
3587.29503	0.05105
3586.00926	0.05183
3584.72349	0.05258
3583.43772	0.05302
3582.15195	0.05301
3580.86618	0.05276
3579.58041	0.05264
3578.29464	0.05280
3577.00888	0.05299
3575.72311	0.05291
3574.43734	0.05263
3573.15157	0.05251
3571.86580	0.05278
3570.58003	0.05335
3569.29426	0.05397
3568.00849	0.05450
3566.72273	0.05489
3565.43696	0.05503
3564.15119	0.05481
3562.86542	0.05438
3561.57965	0.05403
3560.29388	0.05398
3559.00811	0.05419
3557.72234	0.05448
3556.43657	0.05470
3555.15081	0.05488
3553.86504	0.05521
3552.57927	0.05584
3551.29350	0.05669
3550.00773	0.05742
3548.72196	0.05783
3547.43619	0.05803
3546.15042	0.05823
3544.86466	0.05851
3543.57889	0.05873
3542.29312	0.05869
3541.00735	0.05831
3539.72158	0.05769
3538.43581	0.05712
3537.15004	0.05696
3535.86427	0.05740
3534.57850	0.05825
3533.29274	0.05905
3532.00697	0.05948
3530.72120	0.05959
3529.43543	0.05960
3528.14966	0.05971
3526.86389	0.05990
3525.57812	0.06010
3524.29235	0.06024
3523.00659	0.06034
3521.72082	0.06037
3520.43505	0.06029
3519.14928	0.06018
3517.86351	0.06030
3516.57774	0.06081
3515.29197	0.06160
3514.00620	0.06226
3512.72043	0.06243
3511.43467	0.06208
3510.14890	0.06156
3508.86313	0.06131
3507.57736	0.06142
3506.29159	0.06166
3505.00582	0.06176
3503.72005	0.06167
3502.43428	0.06152
3501.14852	0.06146
3499.86275	0.06159
3498.57698	0.06186
3497.29121	0.06225
3496.00544	0.06283
3494.71967	0.06369
3493.43390	0.06471
3492.14813	0.06565
3490.86236	0.06628
3489.57660	0.06644
3488.29083	0.06609
3487.00506	0.06540
3485.71929	0.06474
3484.43352	0.06439
3483.14775	0.06422
3481.86198	0.06400
3480.57621	0.06385
3479.29045	0.06412
3478.00468	0.06485
3476.71891	0.06567
3475.43314	0.06621
3474.14737	0.06652
3472.86160	0.06687
3471.57583	0.06732
3470.29006	0.06769
3469.00429	0.06782
3467.71853	0.06776
3466.43276	0.06767
3465.14699	0.06757
3463.86122	0.06741
3462.57545	0.06722
3461.28968	0.06715
3460.00391	0.06733
3458.71814	0.06771
3457.43238	0.06807
3456.14661	0.06829
3454.86084	0.06845
3453.57507	0.06872
3452.28930	0.06920
3451.00353	0.06989
3449.71776	0.07062
3448.43199	0.07105
3447.14622	0.07092
3445.86046	0.07028
3444.57469	0.06956
3443.28892	0.06910
3442.00315	0.06891
3440.71738	0.06874
3439.43161	0.06852
3438.14584	0.06838
3436.86007	0.06845
3435.57431	0.06875
3434.28854	0.06924
3433.00277	0.06990
3431.71700	0.07057
3430.43123	0.07106
3429.14546	0.07126
3427.85969	0.07118
3426.57392	0.07101
3425.28815	0.07098
3424.00239	0.07127
3422.71662	0.07177
3421.43085	0.07215
3420.14508	0.07221
3418.85931	0.07209
3417.57354	0.07208
3416.28777	0.07230
3415.00200	0.07260
3413.71624	0.07279
3412.43047	0.07285
3411.14470	0.07280
3409.85893	0.07267
3408.57316	0.07251
3407.28739	0.07243
3406.00162	0.07248
3404.71585	0.07254
3403.43008	0.07248
3402.14432	0.07232
3400.85855	0.07223
3399.57278	0.07233
3398.28701	0.07248
3397.00124	0.07249
3395.71547	0.07236
3394.42970	0.07222
3393.14393	0.07222
3391.85817	0.07247
3390.57240	0.07290
3389.28663	0.07331
3388.00086	0.07351
3386.71509	0.07348
3385.42932	0.07327
3384.14355	0.07299
3382.85778	0.07276
3381.57201	0.07280
3380.28625	0.07321
3379.00048	0.07381
3377.71471	0.07421
3376.42894	0.07420
3375.14317	0.07385
3373.85740	0.07346
3372.57163	0.07333
3371.28586	0.07359
3370.00010	0.07412
3368.71433	0.07460
3367.42856	0.07480
3366.14279	0.07478
3364.85702	0.07475
3363.57125	0.07490
3362.28548	0.07528
3360.99971	0.07573
3359.71394	0.07591
3358.42818	0.07552
3357.14241	0.07455
3355.85664	0.07345
3354.57087	0.07282
3353.28510	0.07297
3351.99933	0.07363
3350.71356	0.07425
3349.42779	0.07450
3348.14202	0.07440
3346.85626	0.07418
3345.57049	0.07402
3344.28472	0.07399
3342.99895	0.07411
3341.71318	0.07427
3340.42741	0.07430
3339.14164	0.07404
3337.85587	0.07361
3336.57011	0.07331
3335.28434	0.07335
3333.99857	0.07366
3332.71280	0.07392
3331.42703	0.07381
3330.14126	0.07336
3328.85549	0.07288
3327.56972	0.07271
3326.28395	0.07290
3324.99819	0.07325
3323.71242	0.07349
3322.42665	0.07348
3321.14088	0.07327
3319.85511	0.07303
3318.56934	0.07294
3317.28357	0.07310
3315.99780	0.07349
3314.71204	0.07393
3313.42627	0.07423
3312.14050	0.07423
3310.85473	0.07388
3309.56896	0.07328
3308.28319	0.07265
3306.99742	0.07218
3305.71165	0.07190
3304.42588	0.07162
3303.14012	0.07130
3301.85435	0.07111
3300.56858	0.07140
3299.28281	0.07227
3297.99704	0.07346
3296.71127	0.07445
3295.42550	0.07480
3294.13973	0.07445
3292.85397	0.07370
3291.56820	0.07289
3290.28243	0.07230
3288.99666	0.07202
3287.71089	0.07197
3286.42512	0.07196
3285.13935	0.07178
3283.85358	0.07131
3282.56781	0.07058
3281.28205	0.06987
3279.99628	0.06960
3278.71051	0.06994
3277.42474	0.07075
3276.13897	0.07156
3274.85320	0.07197
3273.56743	0.07179
3272.28166	0.07112
3270.99590	0.07025
3269.71013	0.06957
3268.42436	0.06932
3267.13859	0.06955
3265.85282	0.07011
3264.56705	0.07081
3263.28128	0.07148
3261.99551	0.07191
3260.70974	0.07195
3259.42398	0.07164
3258.13821	0.07111
3256.85244	0.07052
3255.56667	0.06993
3254.28090	0.06940
3252.99513	0.06905
3251.70936	0.06892
3250.42359	0.06893
3249.13783	0.06896
3247.85206	0.06905
3246.56629	0.06930
3245.28052	0.06969
3243.99475	0.07006
3242.70898	0.07026
3241.42321	0.07036
3240.13744	0.07049
3238.85167	0.07057
3237.56591	0.07033
3236.28014	0.06961
3234.99437	0.06862
3233.70860	0.06776
3232.42283	0.06735
3231.13706	0.06746
3229.85129	0.06791
3228.56552	0.06839
3227.27976	0.06871
3225.99399	0.06890
3224.70822	0.06911
3223.42245	0.06935
3222.13668	0.06944
3220.85091	0.06920
3219.56514	0.06868
3218.27937	0.06817
3216.99360	0.06797
3215.70784	0.06810
3214.42207	0.06836
3213.13630	0.06853
3211.85053	0.06864
3210.56476	0.06887
3209.27899	0.06930
3207.99322	0.06976
3206.70745	0.06998
3205.42169	0.06982
3204.13592	0.06940
3202.85015	0.06894
3201.56438	0.06866
3200.27861	0.06858
3198.99284	0.06853
3197.70707	0.06837
3196.42130	0.06810
3195.13553	0.06789
3193.84977	0.06783
3192.56400	0.06784
3191.27823	0.06772
3189.99246	0.06737
3188.70669	0.06691
3187.42092	0.06659
3186.13515	0.06646
3184.84938	0.06638
3183.56362	0.06618
3182.27785	0.06583
3180.99208	0.06547
3179.70631	0.06531
3178.42054	0.06540
3177.13477	0.06571
3175.84900	0.06609
3174.56323	0.06639
3173.27746	0.06645
3171.99170	0.06618
3170.70593	0.06564
3169.42016	0.06503
3168.13439	0.06464
3166.84862	0.06460
3165.56285	0.06484
3164.27708	0.06516
3162.99131	0.06543
3161.70555	0.06567
3160.41978	0.06590
3159.13401	0.06608
3157.84824	0.06615
3156.56247	0.06605
3155.27670	0.06578
3153.99093	0.06535
3152.70516	0.06480
3151.41939	0.06425
3150.13363	0.06388
3148.84786	0.06389
3147.56209	0.06426
3146.27632	0.06465
3144.99055	0.06468
3143.70478	0.06433
3142.41901	0.06398
3141.13324	0.06391
3139.84748	0.06400
3138.56171	0.06388
3137.27594	0.06337
3135.99017	0.06261
3134.70440	0.06196
3133.41863	0.06168
3132.13286	0.06181
3130.84709	0.06220
3129.56132	0.06258
3128.27556	0.06285
3126.98979	0.06295
3125.70402	0.06290
3124.41825	0.06276
3123.13248	0.06267
3121.84671	0.06269
3120.56094	0.06269
3119.27517	0.06251
3117.98940	0.06213
3116.70364	0.06170
3115.41787	0.06147
3114.13210	0.06153
3112.84633	0.06177
3111.56056	0.06197
3110.27479	0.06198
3108.98902	0.06182
3107.70325	0.06164
3106.41749	0.06159
3105.13172	0.06172
3103.84595	0.06189
3102.56018	0.06185
3101.27441	0.06149
3099.98864	0.06091
3098.70287	0.06040
3097.41710	0.06011
3096.13133	0.06001
3094.84557	0.05995
3093.55980	0.05987
3092.27403	0.05984
3090.98826	0.05993
3089.70249	0.06013
3088.41672	0.06038
3087.13095	0.06047
3085.84518	0.06025
3084.55942	0.05973
3083.27365	0.05913
3081.98788	0.05869
3080.70211	0.05854
3079.41634	0.05859
3078.13057	0.05863
3076.84480	0.05855
3075.55903	0.05838
3074.27326	0.05825
3072.98750	0.05820
3071.70173	0.05817
3070.41596	0.05816
3069.13019	0.05829
3067.84442	0.05865
3066.55865	0.05917
3065.27288	0.05961
3063.98711	0.05976
3062.70135	0.05954
3061.41558	0.05909
3060.12981	0.05858
3058.84404	0.05812
3057.55827	0.05774
3056.27250	0.05751
3054.98673	0.05752
3053.70096	0.05769
3052.41519	0.05781
3051.12943	0.05768
3049.84366	0.05737
3048.55789	0.05707
3047.27212	0.05690
3045.98635	0.05679
3044.70058	0.05661
3043.41481	0.05629
3042.12904	0.05588
3040.84328	0.05550
3039.55751	0.05526
3038.27174	0.05523
3036.98597	0.05538
3035.70020	0.05560
3034.41443	0.05577
3033.12866	0.05585
3031.84289	0.05579
3030.55712	0.05563
3029.27136	0.05540
3027.98559	0.05519
3026.69982	0.05504
3025.41405	0.05494
3024.12828	0.05486
3022.84251	0.05479
3021.55674	0.05473
3020.27097	0.05470
3018.98521	0.05466
3017.69944	0.05457
3016.41367	0.05442
3015.12790	0.05430
3013.84213	0.05423
3012.55636	0.05416
3011.27059	0.05399
3009.98482	0.05375
3008.69905	0.05356
3007.41329	0.05346
3006.12752	0.05337
3004.84175	0.05320
3003.55598	0.05299
3002.27021	0.05291
3000.98444	0.05299
2999.69867	0.05315
2998.41290	0.05308
2997.12714	0.05283
2995.84137	0.05260
2994.55560	0.05257
2993.26983	0.05280
2991.98406	0.05323
2990.69829	0.05378
2989.41252	0.05428
2988.12675	0.05458
2986.84098	0.05459
2985.55522	0.05438
2984.26945	0.05416
2982.98368	0.05413
2981.69791	0.05439
2980.41214	0.05486
2979.12637	0.05540
2977.84060	0.05596
2976.55483	0.05661
2975.26907	0.05742
2973.98330	0.05835
2972.69753	0.05917
2971.41176	0.05970
2970.12599	0.05999
2968.84022	0.06036
2967.55445	0.06109
2966.26868	0.06215
2964.98291	0.06330
2963.69715	0.06433
2962.41138	0.06524
2961.12561	0.06612
2959.83984	0.06703
2958.55407	0.06794
2957.26830	0.06872
2955.98253	0.06922
2954.69676	0.06935
2953.41100	0.06922
2952.12523	0.06910
2950.83946	0.06919
2949.55369	0.06944
2948.26792	0.06966
2946.98215	0.06977
2945.69638	0.06987
2944.41061	0.07002
2943.12484	0.07018
2941.83908	0.07030
2940.55331	0.07043
2939.26754	0.07070
2937.98177	0.07117
2936.69600	0.07179
2935.41023	0.07246
2934.12446	0.07311
2932.83869	0.07369
2931.55293	0.07421
2930.26716	0.07468
2928.98139	0.07514
2927.69562	0.07563
2926.40985	0.07618
2925.12408	0.07670
2923.83831	0.07703
2922.55254	0.07704
2921.26677	0.07673
2919.98101	0.07624
2918.69524	0.07568
2917.40947	0.07507
2916.12370	0.07439
2914.83793	0.07356
2913.55216	0.07258
2912.26639	0.07152
2910.98062	0.07052
2909.69486	0.06961
2908.40909	0.06877
2907.12332	0.06797
2905.83755	0.06722
2904.55178	0.06664
2903.26601	0.06628
2901.98024	0.06610
2900.69447	0.06591
2899.40870	0.06558
2898.12294	0.06514
2896.83717	0.06468
2895.55140	0.06426
2894.26563	0.06385
2892.97986	0.06340
2891.69409	0.06293
2890.40832	0.06244
2889.12255	0.06196
2887.83678	0.06147
2886.55102	0.06097
2885.26525	0.06046
2883.97948	0.06001
2882.69371	0.05973
2881.40794	0.05967
2880.12217	0.05977
2878.83640	0.05990
2877.55063	0.05999
2876.26487	0.06007
2874.97910	0.06022
2873.69333	0.06045
2872.40756	0.06069
2871.12179	0.06091
2869.83602	0.06117
2868.55025	0.06147
2867.26448	0.06174
2865.97871	0.06187
2864.69295	0.06181
2863.40718	0.06165
2862.12141	0.06154
2860.83564	0.06152
2859.54987	0.06159
2858.26410	0.06175
2856.97833	0.06193
2855.69256	0.06198
2854.40680	0.06170
2853.12103	0.06109
2851.83526	0.06035
2850.54949	0.05968
2849.26372	0.05917
2847.97795	0.05874
2846.69218	0.05827
2845.40641	0.05769
2844.12064	0.05695
2842.83488	0.05609
2841.54911	0.05519
2840.26334	0.05428
2838.97757	0.05332
2837.69180	0.05233
2836.40603	0.05143
2835.12026	0.05075
2833.83449	0.05030
2832.54873	0.04991
2831.26296	0.04941
2829.97719	0.04877
2828.69142	0.04816
2827.40565	0.04774
2826.11988	0.04755
2824.83411	0.04751
2823.54834	0.04745
2822.26257	0.04728
2820.97681	0.04699
2819.69104	0.04672
2818.40527	0.04653
2817.11950	0.04638
2815.83373	0.04613
2814.54796	0.04573
2813.26219	0.04531
2811.97642	0.04509
2810.69066	0.04517
2809.40489	0.04545
2808.11912	0.04569
2806.83335	0.04569
2805.54758	0.04541
2804.26181	0.04501
2802.97604	0.04467
2801.69027	0.04454
2800.40450	0.04457
2799.11874	0.04459
2797.83297	0.04445
2796.54720	0.04419
2795.26143	0.04394
2793.97566	0.04379
2792.68989	0.04375
2791.40412	0.04382
2790.11835	0.04399
2788.83259	0.04419
2787.54682	0.04426
2786.26105	0.04413
2784.97528	0.04388
2783.68951	0.04365
2782.40374	0.04352
2781.11797	0.04344
2779.83220	0.04333
2778.54643	0.04313
2777.26067	0.04283
2775.97490	0.04244
2774.68913	0.04206
2773.40336	0.04185
2772.11759	0.04187
2770.83182	0.04200
2769.54605	0.04208
2768.26028	0.04207
2766.97452	0.04201
2765.68875	0.04195
2764.40298	0.04187
2763.11721	0.04173
2761.83144	0.04158
2760.54567	0.04144
2759.25990	0.04131
2757.97413	0.04116
2756.68836	0.04099
2755.40260	0.04083
2754.11683	0.04071
2752.83106	0.04068
2751.54529	0.04076
2750.25952	0.04089
2748.97375	0.04100
2747.68798	0.04106
2746.40221	0.04110
2745.11645	0.04115
2743.83068	0.04112
2742.54491	0.04096
2741.25914	0.04068
2739.97337	0.04041
2738.68760	0.04026
2737.40183	0.04022
2736.11606	0.04022
2734.83029	0.04022
2733.54453	0.04022
2732.25876	0.04019
2730.97299	0.04012
2729.68722	0.04005
2728.40145	0.04009
2727.11568	0.04023
2725.82991	0.04029
2724.54414	0.04009
2723.25838	0.03962
2721.97261	0.03907
2720.68684	0.03868
2719.40107	0.03857
2718.11530	0.03867
2716.82953	0.03884
2715.54376	0.03893
2714.25799	0.03892
2712.97222	0.03887
2711.68646	0.03884
2710.40069	0.03882
2709.11492	0.03877
2707.82915	0.03864
2706.54338	0.03852
2705.25761	0.03847
2703.97184	0.03852
2702.68607	0.03858
2701.40031	0.03859
2700.11454	0.03860
2698.82877	0.03866
2697.54300	0.03871
2696.25723	0.03866
2694.97146	0.03853
2693.68569	0.03838
2692.39992	0.03822
2691.11415	0.03797
2689.82839	0.03760
2688.54262	0.03722
2687.25685	0.03702
2685.97108	0.03709
2684.68531	0.03737
2683.39954	0.03767
2682.11377	0.03788
2680.82800	0.03800
2679.54224	0.03809
2678.25647	0.03813
2676.97070	0.03805
2675.68493	0.03783
2674.39916	0.03752
2673.11339	0.03721
2671.82762	0.03692
2670.54185	0.03667
2669.25608	0.03651
2667.97032	0.03648
2666.68455	0.03659
2665.39878	0.03681
2664.11301	0.03705
2662.82724	0.03717
2661.54147	0.03713
2660.25570	0.03699
2658.96993	0.03683
2657.68417	0.03665
2656.39840	0.03645
2655.11263	0.03626
2653.82686	0.03613
2652.54109	0.03600
2651.25532	0.03579
2649.96955	0.03548
2648.68378	0.03515
2647.39801	0.03490
2646.11225	0.03475
2644.82648	0.03470
2643.54071	0.03472
2642.25494	0.03474
2640.96917	0.03470
2639.68340	0.03462
2638.39763	0.03463
2637.11186	0.03476
2635.82609	0.03484
2634.54033	0.03467
2633.25456	0.03423
2631.96879	0.03375
2630.68302	0.03344
2629.39725	0.03330
2628.11148	0.03324
2626.82571	0.03319
2625.53994	0.03315
2624.25418	0.03311
2622.96841	0.03307
2621.68264	0.03296
2620.39687	0.03276
2619.11110	0.03251
2617.82533	0.03232
2616.53956	0.03237
2615.25379	0.03271
2613.96802	0.03310
2612.68226	0.03324
2611.39649	0.03297
2610.11072	0.03245
2608.82495	0.03189
2607.53918	0.03148
2606.25341	0.03127
2604.96764	0.03122
2603.68187	0.03125
2602.39611	0.03135
2601.11034	0.03149
2599.82457	0.03155
2598.53880	0.03133
2597.25303	0.03086
2595.96726	0.03039
2594.68149	0.03020
2593.39572	0.03024
2592.10995	0.03028
2590.82419	0.03021
2589.53842	0.03016
2588.25265	0.03021
2586.96688	0.03027
2585.68111	0.03012
2584.39534	0.02979
2583.10957	0.02959
2581.82380	0.02977
2580.53804	0.03018
2579.25227	0.03046
2577.96650	0.03045
2576.68073	0.03031
2575.39496	0.03025
2574.10919	0.03031
2572.82342	0.03037
2571.53765	0.03034
2570.25188	0.03023
2568.96612	0.03008
2567.68035	0.02992
2566.39458	0.02973
2565.10881	0.02948
2563.82304	0.02924
2562.53727	0.02908
2561.25150	0.02910
2559.96573	0.02927
2558.67997	0.02949
2557.39420	0.02959
2556.10843	0.02949
2554.82266	0.02925
2553.53689	0.02902
2552.25112	0.02890
2550.96535	0.02885
2549.67958	0.02873
2548.39381	0.02847
2547.10805	0.02813
2545.82228	0.02784
2544.53651	0.02772
2543.25074	0.02782
2541.96497	0.02811
2540.67920	0.02847
2539.39343	0.02877
2538.10766	0.02890
2536.82190	0.02884
2535.53613	0.02866
2534.25036	0.02850
2532.96459	0.02847
2531.67882	0.02854
2530.39305	0.02864
2529.10728	0.02874
2527.82151	0.02882
2526.53574	0.02883
2525.24998	0.02876
2523.96421	0.02872
2522.67844	0.02879
2521.39267	0.02887
2520.10690	0.02880
2518.82113	0.02861
2517.53536	0.02847
2516.24959	0.02851
2514.96383	0.02867
2513.67806	0.02881
2512.39229	0.02886
2511.10652	0.02880
2509.82075	0.02867
2508.53498	0.02844
2507.24921	0.02807
2505.96344	0.02766
2504.67767	0.02742
2503.39191	0.02753
2502.10614	0.02784
2500.82037	0.02802
2499.53460	0.02788
2498.24883	0.02753
2496.96306	0.02722
2495.67729	0.02701
2494.39152	0.02683
2493.10576	0.02666
2491.81999	0.02661
2490.53422	0.02678
2489.24845	0.02703
2487.96268	0.02715
2486.67691	0.02708
2485.39114	0.02695
2484.10537	0.02688
2482.81960	0.02689
2481.53384	0.02690
2480.24807	0.02692
2478.96230	0.02701
2477.67653	0.02716
2476.39076	0.02725
2475.10499	0.02715
2473.81922	0.02688
2472.53345	0.02665
2471.24769	0.02665
2469.96192	0.02680
2468.67615	0.02687
2467.39038	0.02671
2466.10461	0.02643
2464.81884	0.02632
2463.53307	0.02651
2462.24730	0.02680
2460.96153	0.02689
2459.67577	0.02674
2458.39000	0.02661
2457.10423	0.02677
2455.81846	0.02715
2454.53269	0.02754
2453.24692	0.02780
2451.96115	0.02789
2450.67538	0.02778
2449.38962	0.02746
2448.10385	0.02702
2446.81808	0.02659
2445.53231	0.02627
2444.24654	0.02614
2442.96077	0.02616
2441.67500	0.02622
2440.38923	0.02621
2439.10346	0.02614
2437.81770	0.02612
2436.53193	0.02617
2435.24616	0.02617
2433.96039	0.02610
2432.67462	0.02615
2431.38885	0.02647
2430.10308	0.02684
2428.81731	0.02688
2427.53155	0.02638
2426.24578	0.02557
2424.96001	0.02486
2423.67424	0.02460
2422.38847	0.02482
2421.10270	0.02532
2419.81693	0.02580
2418.53116	0.02605
2417.24539	0.02604
2415.95963	0.02576
2414.67386	0.02531
2413.38809	0.02486
2412.10232	0.02466
2410.81655	0.02483
2409.53078	0.02527
2408.24501	0.02571
2406.95924	0.02598
2405.67347	0.02601
2404.38771	0.02581
2403.10194	0.02550
2401.81617	0.02531
2400.53040	0.02537
2399.24463	0.02552
2397.95886	0.02576
2396.67309	0.02587
2395.38732	0.02586
2394.10156	0.02581
2392.81579	0.02569
2391.53002	0.02550
2390.24425	0.02526
2388.95848	0.02505
2387.67271	0.02490
2386.38694	0.02483
2385.10117	0.02484
2383.81540	0.02495
2382.52964	0.02513
2381.24387	0.02527
2379.95810	0.02529
2378.67233	0.02520
2377.38656	0.02510
2376.10079	0.02509
2374.81502	0.02522
2373.52925	0.02529
2372.24349	0.02529
2370.95772	0.02509
2369.67195	0.02502
2368.38618	0.02504
2367.10041	0.02507
2365.81464	0.02499
2364.52887	0.02519
2363.24310	0.02556
2361.95733	0.02591
2360.67157	0.02603
2359.38580	0.02638
2358.10003	0.02681
2356.81426	0.02718
2355.52849	0.02740
2354.24272	0.02740
2352.95695	0.02735
2351.67118	0.02704
2350.38542	0.02641
2349.09965	0.02596
2347.81388	0.02603
2346.52811	0.02589
2345.24234	0.02543
2343.95657	0.02525
2342.67080	0.02579
2341.38503	0.02614
2340.09926	0.02586
2338.81350	0.02594
2337.52773	0.02651
2336.24196	0.02637
2334.95619	0.02574
2333.67042	0.02594
2332.38465	0.02697
2331.09888	0.02667
2329.81311	0.02613
2328.52735	0.02704
2327.24158	0.02673
2325.95581	0.02582
2324.67004	0.02640
2323.38427	0.02640
2322.09850	0.02553
2320.81273	0.02597
2319.52696	0.02584
2318.24119	0.02534
2316.95543	0.02572
2315.66966	0.02545
2314.38389	0.02490
2313.09812	0.02480
2311.81235	0.02440
2310.52658	0.02445
2309.24081	0.02461
2307.95504	0.02445
2306.66928	0.02449
2305.38351	0.02437
2304.09774	0.02428
2302.81197	0.02422
2301.52620	0.02397
2300.24043	0.02374
2298.95466	0.02343
2297.66889	0.02317
2296.38312	0.02306
2295.09736	0.02312
2293.81159	0.02338
2292.52582	0.02359
2291.24005	0.02359
2289.95428	0.02332
2288.66851	0.02288
2287.38274	0.02238
2286.09697	0.02199
2284.81121	0.02191
2283.52544	0.02214
2282.23967	0.02242
2280.95390	0.02230
2279.66813	0.02167
2278.38236	0.02086
2277.09659	0.02040
2275.81082	0.02048
2274.52505	0.02086
2273.23929	0.02120
2271.95352	0.02133
2270.66775	0.02130
2269.38198	0.02128
2268.09621	0.02121
2266.81044	0.02083
2265.52467	0.01997
2264.23890	0.01883
2262.95314	0.01788
2261.66737	0.01746
2260.38160	0.01767
2259.09583	0.01829
2257.81006	0.01900
2256.52429	0.01952
2255.23852	0.01971
2253.95275	0.01950
2252.66698	0.01901
2251.38122	0.01848
2250.09545	0.01804
2248.80968	0.01760
2247.52391	0.01739
2246.23814	0.01738
2244.95237	0.01751
2243.66660	0.01772
2242.38083	0.01813
2241.09507	0.01883
2239.80930	0.01955
2238.52353	0.01974
2237.23776	0.01925
2235.95199	0.01847
2234.66622	0.01790
2233.38045	0.01774
2232.09468	0.01795
2230.80891	0.01841
2229.52315	0.01886
2228.23738	0.01900
2226.95161	0.01879
2225.66584	0.01847
2224.38007	0.01822
2223.09430	0.01797
2221.80853	0.01760
2220.52276	0.01714
2219.23700	0.01680
2217.95123	0.01666
2216.66546	0.01658
2215.37969	0.01640
2214.09392	0.01612
2212.80815	0.01584
2211.52238	0.01555
2210.23661	0.01501
2208.95084	0.01409
2207.66508	0.01306
2206.37931	0.01251
2205.09354	0.01282
2203.80777	0.01369
2202.52200	0.01439
2201.23623	0.01453
2199.95046	0.01442
2198.66469	0.01461
2197.37893	0.01512
2196.09316	0.01537
2194.80739	0.01497
2193.52162	0.01427
2192.23585	0.01401
2190.95008	0.01446
2189.66431	0.01513
2188.37854	0.01545
2187.09277	0.01530
2185.80701	0.01495
2184.52124	0.01457
2183.23547	0.01421
2181.94970	0.01399
2180.66393	0.01404
2179.37816	0.01429
2178.09239	0.01452
2176.80662	0.01460
2175.52085	0.01446
2174.23509	0.01390
2172.94932	0.01282
2171.66355	0.01148
2170.37778	0.01041
2169.09201	0.01002
2167.80624	0.01035
2166.52047	0.01124
2165.23470	0.01230
2163.94894	0.01272
2162.66317	0.01157
2161.37740	0.00887
2160.09163	0.00608
2158.80586	0.00495
2157.52009	0.00576
2156.23432	0.00727
2154.94855	0.00829
2153.66278	0.00870
2152.37702	0.00885
2151.09125	0.00883
2149.80548	0.00843
2148.51971	0.00768
2147.23394	0.00699
2145.94817	0.00672
2144.66240	0.00696
2143.37663	0.00770
2142.09087	0.00899
2140.80510	0.01063
2139.51933	0.01207
2138.23356	0.01278
2136.94779	0.01267
2135.66202	0.01212
2134.37625	0.01164
2133.09048	0.01154
2131.80471	0.01187
2130.51895	0.01237
2129.23318	0.01271
2127.94741	0.01272
2126.66164	0.01253
2125.37587	0.01241
2124.09010	0.01254
2122.80433	0.01298
2121.51856	0.01360
2120.23280	0.01422
2118.94703	0.01466
2117.66126	0.01484
2116.37549	0.01468
2115.08972	0.01422
2113.80395	0.01375
2112.51818	0.01362
2111.23241	0.01381
2109.94664	0.01385
2108.66088	0.01345
2107.37511	0.01289
2106.08934	0.01270
2104.80357	0.01299
2103.51780	0.01334
2102.23203	0.01332
2100.94626	0.01292
2099.66049	0.01213
2098.37473	0.01167
2097.08896	0.01156
2095.80319	0.01151
2094.51742	0.01146
2093.23165	0.01154
2091.94588	0.01183
2090.66011	0.01228
2089.37434	0.01271
2088.08857	0.01296
2086.80281	0.01294
2085.51704	0.01266
2084.23127	0.01222
2082.94550	0.01183
2081.65973	0.01173
2080.37396	0.01190
2079.08819	0.01210
2077.80242	0.01204
2076.51666	0.01168
2075.23089	0.01131
2073.94512	0.01127
2072.65935	0.01156
2071.37358	0.01184
2070.08781	0.01181
2068.80204	0.01142
2067.51627	0.01088
2066.23050	0.01041
2064.94474	0.01014
2063.65897	0.01001
2062.37320	0.00989
2061.08743	0.00976
2059.80166	0.00979
2058.51589	0.01014
2057.23012	0.01064
2055.94435	0.01085
2054.65859	0.01056
2053.37282	0.01001
2052.08705	0.00957
2050.80128	0.00932
2049.51551	0.00903
2048.22974	0.00840
2046.94397	0.00729
2045.65820	0.00593
2044.37243	0.00474
2043.08667	0.00387
2041.80090	0.00313
2040.51513	0.00237
2039.22936	0.00191
2037.94359	0.00210
2036.65782	0.00272
2035.37205	0.00306
2034.08628	0.00270
2032.80052	0.00207
2031.51475	0.00190
2030.22898	0.00249
2028.94321	0.00354
2027.65744	0.00460
2026.37167	0.00540
2025.08590	0.00575
2023.80013	0.00558
2022.51436	0.00507
2021.22860	0.00459
2019.94283	0.00433
2018.65706	0.00410
2017.37129	0.00358
2016.08552	0.00276
2014.79975	0.00205
2013.51398	0.00192
2012.22821	0.00246
2010.94245	0.00334
2009.65668	0.00412
2008.37091	0.00470
2007.08514	0.00534
2005.79937	0.00622
2004.51360	0.00711
2003.22783	0.00757
2001.94206	0.00749
2000.65629	0.00718
1999.37053	0.00708
1998.08476	0.00739
1996.79899	0.00804
1995.51322	0.00889
1994.22745	0.00978
1992.94168	0.01054
1991.65591	0.01091
1990.37014	0.01067
1989.08438	0.00981
1987.79861	0.00859
1986.51284	0.00743
1985.22707	0.00672
1983.94130	0.00661
1982.65553	0.00695
1981.36976	0.00740
1980.08399	0.00773
1978.79822	0.00792
1977.51246	0.00795
1976.22669	0.00776
1974.94092	0.00742
1973.65515	0.00729
1972.36938	0.00768
1971.08361	0.00826
1969.79784	0.00830
1968.51207	0.00745
1967.22631	0.00621
1965.94054	0.00548
1964.65477	0.00577
1963.36900	0.00691
1962.08323	0.00829
1960.79746	0.00947
1959.51169	0.01042
1958.22592	0.01129
1956.94015	0.01205
1955.65439	0.01244
1954.36862	0.01237
1953.08285	0.01210
1951.79708	0.01199
1950.51131	0.01214
1949.22554	0.01238
1947.93977	0.01258
1946.65400	0.01269
1945.36823	0.01267
1944.08247	0.01243
1942.79670	0.01204
1941.51093	0.01169
1940.22516	0.01148
1938.93939	0.01126
1937.65362	0.01083
1936.36785	0.01021
1935.08208	0.00972
1933.79632	0.00984
1932.51055	0.01070
1931.22478	0.01191
1929.93901	0.01287
1928.65324	0.01315
1927.36747	0.01286
1926.08170	0.01239
1924.79593	0.01215
1923.51016	0.01235
1922.22440	0.01286
1920.93863	0.01332
1919.65286	0.01342
1918.36709	0.01317
1917.08132	0.01283
1915.79555	0.01260
1914.50978	0.01255
1913.22401	0.01271
1911.93825	0.01308
1910.65248	0.01355
1909.36671	0.01399
1908.08094	0.01432
1906.79517	0.01451
1905.50940	0.01456
1904.22363	0.01447
1902.93786	0.01425
1901.65209	0.01396
1900.36633	0.01373
1899.08056	0.01362
1897.79479	0.01353
1896.50902	0.01327
1895.22325	0.01284
1893.93748	0.01252
1892.65171	0.01258
1891.36594	0.01307
1890.08018	0.01375
1888.79441	0.01429
1887.50864	0.01452
1886.22287	0.01448
1884.93710	0.01438
1883.65133	0.01436
1882.36556	0.01438
1881.07979	0.01434
1879.79402	0.01419
1878.50826	0.01398
1877.22249	0.01380
1875.93672	0.01376
1874.65095	0.01391
1873.36518	0.01418
1872.07941	0.01439
1870.79364	0.01441
1869.50787	0.01432
1868.22211	0.01426
1866.93634	0.01427
1865.65057	0.01428
1864.36480	0.01428
1863.07903	0.01434
1861.79326	0.01444
1860.50749	0.01453
1859.22172	0.01450
1857.93595	0.01435
1856.65019	0.01416
1855.36442	0.01406
1854.07865	0.01412
1852.79288	0.01427
1851.50711	0.01445
1850.22134	0.01463
1848.93557	0.01480
1847.64980	0.01490
1846.36404	0.01478
1845.07827	0.01449
1843.79250	0.01429
1842.50673	0.01429
1841.22096	0.01439
1839.93519	0.01441
1838.64942	0.01437
1837.36365	0.01434
1836.07788	0.01438
1834.79212	0.01447
1833.50635	0.01455
1832.22058	0.01458
1830.93481	0.01458
1829.64904	0.01460
1828.36327	0.01460
1827.07750	0.01445
1825.79173	0.01421
1824.50597	0.01410
1823.22020	0.01419
1821.93443	0.01436
1820.64866	0.01449
1819.36289	0.01457
1818.07712	0.01467
1816.79135	0.01480
1815.50558	0.01490
1814.21981	0.01492
1812.93405	0.01489
1811.64828	0.01493
1810.36251	0.01508
1809.07674	0.01529
1807.79097	0.01548
1806.50520	0.01563
1805.21943	0.01573
1803.93366	0.01570
1802.64790	0.01553
1801.36213	0.01532
1800.07636	0.01521
1798.79059	0.01523
1797.50482	0.01528
1796.21905	0.01523
1794.93328	0.01505
1793.64751	0.01480
1792.36174	0.01471
1791.07598	0.01487
1789.79021	0.01517
1788.50444	0.01542
1787.21867	0.01555
1785.93290	0.01564
1784.64713	0.01575
1783.36136	0.01587
1782.07559	0.01594
1780.78983	0.01598
1779.50406	0.01603
1778.21829	0.01608
1776.93252	0.01612
1775.64675	0.01613
1774.36098	0.01612
1773.07521	0.01621
1771.78944	0.01654
1770.50367	0.01692
1769.21791	0.01712
1767.93214	0.01716
1766.64637	0.01721
1765.36060	0.01725
1764.07483	0.01716
1762.78906	0.01698
1761.50329	0.01696
1760.21752	0.01713
1758.93176	0.01732
1757.64599	0.01740
1756.36022	0.01746
1755.07445	0.01752
1753.78868	0.01751
1752.50291	0.01745
1751.21714	0.01749
1749.93137	0.01765
1748.64560	0.01776
1747.35984	0.01775
1746.07407	0.01773
1744.78830	0.01779
1743.50253	0.01789
1742.21676	0.01792
1740.93099	0.01790
1739.64522	0.01798
1738.35945	0.01825
1737.07369	0.01846
1735.78792	0.01841
1734.50215	0.01835
1733.21638	0.01868
1731.93061	0.01926
1730.64484	0.01968
1729.35907	0.01982
1728.07330	0.01986
1726.78753	0.01994
1725.50177	0.02009
1724.21600	0.02034
1722.93023	0.02068
1721.64446	0.02097
1720.35869	0.02099
1719.07292	0.02079
1717.78715	0.02077
1716.50138	0.02119
1715.21561	0.02190
1713.92985	0.02250
1712.64408	0.02289
1711.35831	0.02311
1710.07254	0.02330
1708.78677	0.02353
1707.50100	0.02383
1706.21523	0.02422
1704.92946	0.02472
1703.64370	0.02512
1702.35793	0.02517
1701.07216	0.02509
1699.78639	0.02537
1698.50062	0.02589
1697.21485	0.02613
1695.92908	0.02617
1694.64331	0.02646
1693.35754	0.02691
1692.07178	0.02713
1690.78601	0.02719
1689.50024	0.02740
1688.21447	0.02772
1686.92870	0.02784
1685.64293	0.02776
1684.35716	0.02792
1683.07139	0.02849
1681.78563	0.02906
1680.49986	0.02931
1679.21409	0.02939
1677.92832	0.02946
1676.64255	0.02955
1675.35678	0.02973
1674.07101	0.03009
1672.78524	0.03045
1671.49947	0.03062
1670.21371	0.03072
1668.92794	0.03099
1667.64217	0.03144
1666.35640	0.03185
1665.07063	0.03209
1663.78486	0.03224
1662.49909	0.03248
1661.21332	0.03282
1659.92756	0.03314
1658.64179	0.03339
1657.35602	0.03356
1656.07025	0.03343
1654.78448	0.03295
1653.49871	0.03264
1652.21294	0.03309
1650.92717	0.03403
1649.64140	0.03462
1648.35564	0.03458
1647.06987	0.03438
1645.78410	0.03445
1644.49833	0.03472
1643.21256	0.03491
1641.92679	0.03498
1640.64102	0.03508
1639.35525	0.03528
1638.06949	0.03542
1636.78372	0.03545
1635.49795	0.03558
1634.21218	0.03590
1632.92641	0.03621
1631.64064	0.03629
1630.35487	0.03623
1629.06910	0.03627
1627.78333	0.03650
1626.49757	0.03681
1625.21180	0.03708
1623.92603	0.03729
1622.64026	0.03757
1621.35449	0.03795
1620.06872	0.03821
1618.78295	0.03822
1617.49718	0.03819
1616.21142	0.03846
1614.92565	0.03900
1613.63988	0.03945
1612.35411	0.03967
1611.06834	0.03984
1609.78257	0.04010
1608.49680	0.04042
1607.21103	0.04071
1605.92526	0.04091
1604.63950	0.04104
1603.35373	0.04119
1602.06796	0.04142
1600.78219	0.04173
1599.49642	0.04206
1598.21065	0.04235
1596.92488	0.04258
1595.63911	0.04275
1594.35335	0.04292
1593.06758	0.04310
1591.78181	0.04328
1590.49604	0.04345
1589.21027	0.04360
1587.92450	0.04374
1586.63873	0.04389
1585.35296	0.04404
1584.06719	0.04417
1582.78143	0.04428
1581.49566	0.04446
1580.20989	0.04472
1578.92412	0.04490
1577.63835	0.04490
1576.35258	0.04496
1575.06681	0.04535
1573.78104	0.04586
1572.49528	0.04612
1571.20951	0.04609
1569.92374	0.04608
1568.63797	0.04631
1567.35220	0.04662
1566.06643	0.04684
1564.78066	0.04701
1563.49489	0.04718
1562.20912	0.04719
1560.92336	0.04695
1559.63759	0.04679
1558.35182	0.04709
1557.06605	0.04767
1555.78028	0.04802
1554.49451	0.04806
1553.20874	0.04805
1551.92297	0.04810
1550.63721	0.04817
1549.35144	0.04829
1548.06567	0.04843
1546.77990	0.04846
1545.49413	0.04835
1544.20836	0.04815
1542.92259	0.04785
1541.63682	0.04742
1540.35105	0.04701
1539.06529	0.04693
1537.77952	0.04718
1536.49375	0.04733
1535.20798	0.04716
1533.92221	0.04688
1532.63644	0.04682
1531.35067	0.04700
1530.06490	0.04724
1528.77914	0.04748
1527.49337	0.04779
1526.20760	0.04823
1524.92183	0.04879
1523.63606	0.04933
1522.35029	0.04983
1521.06452	0.05051
1519.77875	0.05145
1518.49298	0.05241
1517.20722	0.05328
1515.92145	0.05420
1514.63568	0.05525
1513.34991	0.05638
1512.06414	0.05758
1510.77837	0.05881
1509.49260	0.05988
1508.20683	0.06074
1506.92107	0.06165
1505.63530	0.06294
1504.34953	0.06445
1503.06376	0.06573
1501.77799	0.06664
1500.49222	0.06738
1499.20645	0.06811
1497.92068	0.06881
1496.63491	0.06954
1495.34915	0.07039
1494.06338	0.07131
1492.77761	0.07209
1491.49184	0.07272
1490.20607	0.07338
1488.92030	0.07420
1487.63453	0.07515
1486.34876	0.07621
1485.06299	0.07735
1483.77723	0.07850
1482.49146	0.07963
1481.20569	0.08074
1479.91992	0.08186
1478.63415	0.08298
1477.34838	0.08409
1476.06261	0.08514
1474.77684	0.08606
1473.49108	0.08688
1472.20531	0.08775
1470.91954	0.08871
1469.63377	0.08960
1468.34800	0.09028
1467.06223	0.09076
1465.77646	0.09119
1464.49069	0.09171
1463.20492	0.09234
1461.91916	0.09298
1460.63339	0.09349
1459.34762	0.09380
1458.06185	0.09402
1456.77608	0.09444
1455.49031	0.09512
1454.20454	0.09579
1452.91877	0.09621
1451.63301	0.09646
1450.34724	0.09665
1449.06147	0.09680
1447.77570	0.09690
1446.48993	0.09697
1445.20416	0.09696
1443.91839	0.09679
1442.63262	0.09649
1441.34685	0.09615
1440.06109	0.09577
1438.77532	0.09536
1437.48955	0.09503
1436.20378	0.09501
1434.91801	0.09530
1433.63224	0.09569
1432.34647	0.09610
1431.06070	0.09665
1429.77494	0.09750
1428.48917	0.09862
1427.20340	0.09985
1425.91763	0.10111
1424.63186	0.10241
1423.34609	0.10374
1422.06032	0.10496
1420.77455	0.10595
1419.48878	0.10683
1418.20302	0.10772
1416.91725	0.10854
1415.63148	0.10911
1414.34571	0.10938
1413.05994	0.10942
1411.77417	0.10925
1410.48840	0.10889
1409.20263	0.10834
1407.91687	0.10760
1406.63110	0.10668
1405.34533	0.10560
1404.05956	0.10435
1402.77379	0.10287
1401.48802	0.10112
1400.20225	0.09916
1398.91648	0.09712
1397.63071	0.09511
1396.34495	0.09310
1395.05918	0.09107
1393.77341	0.08907
1392.48764	0.08713
1391.20187	0.08522
1389.91610	0.08333
1388.63033	0.08149
1387.34456	0.07972
1386.05880	0.07801
1384.77303	0.07630
1383.48726	0.07461
1382.20149	0.07299
1380.91572	0.07143
1379.62995	0.06990
1378.34418	0.06830
1377.05841	0.06658
1375.77264	0.06472
1374.48688	0.06274
1373.20111	0.06075
1371.91534	0.05879
1370.62957	0.05692
1369.34380	0.05516
1368.05803	0.05354
1366.77226	0.05204
1365.48649	0.05059
1364.20073	0.04917
1362.91496	0.04782
1361.62919	0.04659
1360.34342	0.04550
1359.05765	0.04452
1357.77188	0.04361
1356.48611	0.04273
1355.20034	0.04188
1353.91457	0.04102
1352.62881	0.04015
1351.34304	0.03931
1350.05727	0.03853
1348.77150	0.03785
1347.48573	0.03725
1346.19996	0.03666
1344.91419	0.03604
1343.62842	0.03542
1342.34266	0.03486
1341.05689	0.03436
1339.77112	0.03391
1338.48535	0.03350
1337.19958	0.03312
1335.91381	0.03276
1334.62804	0.03241
1333.34227	0.03207
1332.05650	0.03172
1330.77074	0.03137
1329.48497	0.03104
1328.19920	0.03073
1326.91343	0.03042
1325.62766	0.03012
1324.34189	0.02981
1323.05612	0.02954
1321.77035	0.02930
1320.48459	0.02908
1319.19882	0.02885
1317.91305	0.02859
1316.62728	0.02833
1315.34151	0.02810
1314.05574	0.02794
1312.76997	0.02783
1311.48420	0.02770
1310.19843	0.02753
1308.91267	0.02730
1307.62690	0.02708
1306.34113	0.02692
1305.05536	0.02681
1303.76959	0.02669
1302.48382	0.02653
1301.19805	0.02635
1299.91228	0.02620
1298.62652	0.02609
1297.34075	0.02596
1296.05498	0.02580
1294.76921	0.02560
1293.48344	0.02543
1292.19767	0.02531
1290.91190	0.02521
1289.62613	0.02510
1288.34036	0.02496
1287.05460	0.02481
1285.76883	0.02464
1284.48306	0.02448
1283.19729	0.02434
1281.91152	0.02427
1280.62575	0.02425
1279.33998	0.02423
1278.05421	0.02414
1276.76845	0.02398
1275.48268	0.02377
1274.19691	0.02360
1272.91114	0.02348
1271.62537	0.02342
1270.33960	0.02339
1269.05383	0.02337
1267.76806	0.02333
1266.48229	0.02325
1265.19653	0.02312
1263.91076	0.02294
1262.62499	0.02275
1261.33922	0.02259
1260.05345	0.02247
1258.76768	0.02239
1257.48191	0.02234
1256.19614	0.02231
1254.91037	0.02230
1253.62461	0.02228
1252.33884	0.02224
1251.05307	0.02218
1249.76730	0.02212
1248.48153	0.02204
1247.19576	0.02194
1245.90999	0.02184
1244.62422	0.02176
1243.33846	0.02172
1242.05269	0.02173
1240.76692	0.02175
1239.48115	0.02175
1238.19538	0.02173
1236.90961	0.02170
1235.62384	0.02168
1234.33807	0.02167
1233.05230	0.02166
1231.76654	0.02164
1230.48077	0.02159
1229.19500	0.02153
1227.90923	0.02149
1226.62346	0.02148
1225.33769	0.02146
1224.05192	0.02141
1222.76615	0.02135
1221.48039	0.02130
1220.19462	0.02128
1218.90885	0.02128
1217.62308	0.02129
1216.33731	0.02130
1215.05154	0.02131
1213.76577	0.02132
1212.48000	0.02132
1211.19423	0.02130
1209.90847	0.02127
1208.62270	0.02128
1207.33693	0.02131
1206.05116	0.02134
1204.76539	0.02134
1203.47962	0.02131
1202.19385	0.02129
1200.90808	0.02132
1199.62232	0.02139
1198.33655	0.02147
1197.05078	0.02156
1195.76501	0.02162
1194.47924	0.02165
1193.19347	0.02168
1191.90770	0.02176
1190.62193	0.02188
1189.33616	0.02197
1188.05040	0.02197
1186.76463	0.02192
1185.47886	0.02188
1184.19309	0.02191
1182.90732	0.02204
1181.62155	0.02223
1180.33578	0.02244
1179.05001	0.02264
1177.76425	0.02279
1176.47848	0.02292
1175.19271	0.02305
1173.90694	0.02321
1172.62117	0.02342
1171.33540	0.02368
1170.04963	0.02398
1168.76386	0.02427
1167.47809	0.02451
1166.19233	0.02471
1164.90656	0.02489
1163.62079	0.02509
1162.33502	0.02534
1161.04925	0.02560
1159.76348	0.02583
1158.47771	0.02604
1157.19194	0.02627
1155.90618	0.02660
1154.62041	0.02701
1153.33464	0.02744
1152.04887	0.02784
1150.76310	0.02821
1149.47733	0.02864
1148.19156	0.02916
1146.90579	0.02980
1145.62002	0.03054
1144.33426	0.03134
1143.04849	0.03216
1141.76272	0.03297
1140.47695	0.03382
1139.19118	0.03479
1137.90541	0.03590
1136.61964	0.03717
1135.33387	0.03860
1134.04811	0.04021
1132.76234	0.04199
1131.47657	0.04392
1130.19080	0.04603
1128.90503	0.04838
1127.61926	0.05098
1126.33349	0.05381
1125.04772	0.05679
1123.76195	0.05987
1122.47619	0.06305
1121.19042	0.06635
1119.90465	0.06975
1118.61888	0.07323
1117.33311	0.07679
1116.04734	0.08042
1114.76157	0.08408
1113.47580	0.08770
1112.19004	0.09120
1110.90427	0.09455
1109.61850	0.09777
1108.33273	0.10088
1107.04696	0.10390
1105.76119	0.10683
1104.47542	0.10971
1103.18965	0.11251
1101.90388	0.11519
1100.61812	0.11772
1099.33235	0.12010
1098.04658	0.12241
1096.76081	0.12468
1095.47504	0.12691
1094.18927	0.12904
1092.90350	0.13104
1091.61773	0.13292
1090.33197	0.13474
1089.04620	0.13652
1087.76043	0.13825
1086.47466	0.13992
1085.18889	0.14157
1083.90312	0.14327
1082.61735	0.14508
1081.33158	0.14707
1080.04581	0.14922
1078.76005	0.15150
1077.47428	0.15390
1076.18851	0.15643
1074.90274	0.15912
1073.61697	0.16193
1072.33120	0.16484
1071.04543	0.16784
1069.75966	0.17096
1068.47390	0.17417
1067.18813	0.17742
1065.90236	0.18071
1064.61659	0.18409
1063.33082	0.18757
1062.04505	0.19114
1060.75928	0.19475
1059.47351	0.19837
1058.18774	0.20202
1056.90198	0.20564
1055.61621	0.20919
1054.33044	0.21268
1053.04467	0.21615
1051.75890	0.21969
1050.47313	0.22334
1049.18736	0.22706
1047.90159	0.23078
1046.61583	0.23447
1045.33006	0.23818
1044.04429	0.24201
1042.75852	0.24601
1041.47275	0.25014
1040.18698	0.25434
1038.90121	0.25854
1037.61544	0.26270
1036.32967	0.26677
1035.04391	0.27074
1033.75814	0.27455
1032.47237	0.27813
1031.18660	0.28138
1029.90083	0.28424
1028.61506	0.28665
1027.32929	0.28867
1026.04352	0.29037
1024.75775	0.29175
1023.47199	0.29271
1022.18622	0.29319
1020.90045	0.29317
1019.61468	0.29264
1018.32891	0.29157
1017.04314	0.28995
1015.75737	0.28779
1014.47160	0.28515
1013.18584	0.28204
1011.90007	0.27846
1010.61430	0.27439
1009.32853	0.26980
1008.04276	0.26472
1006.75699	0.25913
1005.47122	0.25306
1004.18545	0.24655
1002.89968	0.23970
1001.61392	0.23266
1000.32815	0.22551
999.04238	0.21831
997.75661	0.21106
996.47084	0.20380
995.18507	0.19662
993.89930	0.18954
992.61353	0.18258
991.32777	0.17576
990.04200	0.16912
988.75623	0.16275
987.47046	0.15668
986.18469	0.15092
984.89892	0.14546
983.61315	0.14030
982.32738	0.13541
981.04161	0.13078
979.75585	0.12646
978.47008	0.12252
977.18431	0.11897
975.89854	0.11579
974.61277	0.11292
973.32700	0.11043
972.04123	0.10840
970.75546	0.10693
969.46970	0.10606
968.18393	0.10579
966.89816	0.10600
965.61239	0.10655
964.32662	0.10726
963.04085	0.10793
961.75508	0.10833
960.46931	0.10821
959.18354	0.10744
957.89778	0.10606
956.61201	0.10421
955.32624	0.10204
954.04047	0.09964
952.75470	0.09708
951.46893	0.09443
950.18316	0.09181
948.89739	0.08934
947.61163	0.08707
946.32586	0.08494
945.04009	0.08286
943.75432	0.08077
942.46855	0.07865
941.18278	0.07657
939.89701	0.07462
938.61124	0.07283
937.32547	0.07118
936.03971	0.06967
934.75394	0.06830
933.46817	0.06704
932.18240	0.06583
930.89663	0.06464
929.61086	0.06349
928.32509	0.06245
927.03932	0.06152
925.75356	0.06070
924.46779	0.05994
923.18202	0.05920
921.89625	0.05848
920.61048	0.05779
919.32471	0.05716
918.03894	0.05657
916.75317	0.05601
915.46740	0.05544
914.18164	0.05491
912.89587	0.05443
911.61010	0.05399
910.32433	0.05355
909.03856	0.05309
907.75279	0.05264
906.46702	0.05217
905.18125	0.05166
903.89549	0.05113
902.60972	0.05061
901.32395	0.05011
900.03818	0.04963
898.75241	0.04916
897.46664	0.04871
896.18087	0.04831
894.89510	0.04801
893.60933	0.04785
892.32357	0.04791
891.03780	0.04820
889.75203	0.04869
888.46626	0.04934
887.18049	0.05020
885.89472	0.05148
884.60895	0.05341
883.32318	0.05601
882.03742	0.05901
880.75165	0.06193
879.46588	0.06434
878.18011	0.06609
876.89434	0.06741
875.60857	0.06864
874.32280	0.06985
873.03703	0.07076
871.75126	0.07094
870.46550	0.07016
869.17973	0.06856
867.89396	0.06645
866.60819	0.06410
865.32242	0.06170
864.03665	0.05938
862.75088	0.05721
861.46511	0.05519
860.17935	0.05323
858.89358	0.05137
857.60781	0.04972
856.32204	0.04842
855.03627	0.04748
853.75050	0.04678
852.46473	0.04618
851.17896	0.04561
849.89319	0.04504
848.60743	0.04452
847.32166	0.04406
846.03589	0.04363
844.75012	0.04320
843.46435	0.04276
842.17858	0.04233
840.89281	0.04196
839.60704	0.04165
838.32128	0.04138
837.03551	0.04117
835.74974	0.04099
834.46397	0.04076
833.17820	0.04044
831.89243	0.04008
830.60666	0.03977
829.32089	0.03956
828.03512	0.03938
826.74936	0.03920
825.46359	0.03903
824.17782	0.03892
822.89205	0.03881
821.60628	0.03868
820.32051	0.03854
819.03474	0.03847
817.74897	0.03849
816.46321	0.03853
815.17744	0.03849
813.89167	0.03833
812.60590	0.03809
811.32013	0.03790
810.03436	0.03785
808.74859	0.03798
807.46282	0.03819
806.17705	0.03839
804.89129	0.03851
803.60552	0.03856
802.31975	0.03862
801.03398	0.03870
799.74821	0.03877
798.46244	0.03881
797.17667	0.03882
795.89090	0.03882
794.60513	0.03880
793.31937	0.03871
792.03360	0.03858
790.74783	0.03848
789.46206	0.03848
788.17629	0.03853
786.89052	0.03858
785.60475	0.03860
784.31898	0.03859
783.03322	0.03857
781.74745	0.03856
780.46168	0.03857
779.17591	0.03860
777.89014	0.03857
776.60437	0.03845
775.31860	0.03830
774.03283	0.03817
772.74706	0.03812
771.46130	0.03813
770.17553	0.03815
768.88976	0.03813
767.60399	0.03804
766.31822	0.03790
765.03245	0.03775
763.74668	0.03765
762.46091	0.03766
761.17515	0.03779
759.88938	0.03798
758.60361	0.03807
757.31784	0.03805
756.03207	0.03800
754.74630	0.03801
753.46053	0.03809
752.17476	0.03814
750.88899	0.03810
749.60323	0.03797
748.31746	0.03780
747.03169	0.03766
745.74592	0.03754
744.46015	0.03744
743.17438	0.03740
741.88861	0.03743
740.60284	0.03749
739.31708	0.03751
738.03131	0.03745
736.74554	0.03736
735.45977	0.03725
734.17400	0.03712
732.88823	0.03699
731.60246	0.03691
730.31669	0.03692
729.03092	0.03700
727.74516	0.03707
726.45939	0.03708
725.17362	0.03704
723.88785	0.03693
722.60208	0.03685
721.31631	0.03679
720.03054	0.03680
718.74477	0.03688
717.45901	0.03698
716.17324	0.03704
714.88747	0.03701
713.60170	0.03691
712.31593	0.03678
711.03016	0.03666
709.74439	0.03655
708.45862	0.03644
707.17285	0.03630
705.88709	0.03614
704.60132	0.03598
703.31555	0.03585
702.02978	0.03573
700.74401	0.03564
699.45824	0.03561
698.17247	0.03564
696.88670	0.03572
695.60094	0.03581
694.31517	0.03587
693.02940	0.03587
691.74363	0.03578
690.45786	0.03563
689.17209	0.03546
687.88632	0.03535
686.60055	0.03531
685.31478	0.03531
684.02902	0.03528
682.74325	0.03518
681.45748	0.03502
680.17171	0.03484
678.88594	0.03472
677.60017	0.03471
676.31440	0.03480
675.02863	0.03497
673.74287	0.03516
672.45710	0.03526
671.17133	0.03515
669.88556	0.03498
668.59979	0.03526
667.31402	0.03537
666.02825	0.03492
664.74248	0.03495
663.45671	0.03491
662.17095	0.03475
660.88518	0.03463
659.59941	0.03455
658.31364	0.03444
657.02787	0.03429
655.74210	0.03414
654.45633	0.03404
653.17056	0.03400
651.88480	0.03402
650.59903	0.03406
649.31326	0.03414
648.02749	0.03421
646.74172	0.03429
645.45595	0.03438
644.17018	0.03446
642.88441	0.03454
641.59864	0.03460
640.31288	0.03468
639.02711	0.03480
637.74134	0.03498
636.45557	0.03526
635.16980	0.03565
633.88403	0.03616
632.59826	0.03671
631.31249	0.03723
630.02673	0.03750
628.74096	0.03740
627.45519	0.03785
626.16942	0.03775
624.88365	0.03754
623.59788	0.03797
622.31211	0.03949
621.02634	0.04214
619.74057	0.04558
618.45481	0.04937
617.16904	0.05332
615.88327	0.05734
614.59750	0.06122
613.31173	0.06458
612.02596	0.06734
610.74019	0.07028
609.45442	0.07474
608.16866	0.08118
606.88289	0.08843
605.59712	0.09461
604.31135	0.09855
603.02558	0.10026
601.73981	0.10041
600.45404	0.09953
599.16827	0.09785
597.88250	0.09553
596.59674	0.09286
595.31097	0.09021
594.02520	0.08786
592.73943	0.08590
591.45366	0.08431
590.16789	0.08313
588.88212	0.08251
587.59635	0.08263
586.31059	0.08350
585.02482	0.08495
583.73905	0.08677
582.45328	0.08882
581.16751	0.09106
579.88174	0.09352
578.59597	0.09620
577.31020	0.09901
576.02443	0.10181
574.73867	0.10443
573.45290	0.10684
572.16713	0.10921
570.88136	0.11179
569.59559	0.11480
568.30982	0.11826
567.02405	0.12199
565.73828	0.12567
564.45251	0.12889
563.16675	0.13119
561.88098	0.13213
560.59521	0.13144
559.30944	0.12898
558.02367	0.12489
556.73790	0.11957
555.45213	0.11359
554.16636	0.10751
552.88060	0.10164
551.59483	0.09608
550.30906	0.09085
549.02329	0.08610
547.73752	0.08201
546.45175	0.07863
545.16598	0.07577
543.88021	0.07320
542.59444	0.07079
541.30868	0.06860
540.02291	0.06672
538.73714	0.06515
537.45137	0.06375
536.16560	0.06238
534.87983	0.06099
533.59406	0.05961
532.30829	0.05830
531.02253	0.05708
529.73676	0.05591
528.45099	0.05478
527.16522	0.05365
525.87945	0.05253
524.59368	0.05146
523.30791	0.05046
522.02214	0.04957
520.73637	0.04876
519.45061	0.04801
518.16484	0.04729
516.87907	0.04656
515.59330	0.04580
514.30753	0.04502
513.02176	0.04424
511.73599	0.04356
510.45022	0.04299
509.16446	0.04252
507.87869	0.04210
506.59292	0.04167
505.30715	0.04123
504.02138	0.04082
502.73561	0.04048
501.44984	0.04019
500.16407	0.03992
498.87830	0.03970
497.59254	0.03959
496.30677	0.03959
495.02100	0.03961
493.73523	0.03951
492.44946	0.03928
491.16369	0.03902
489.87792	0.03884
488.59215	0.03878
487.30639	0.03884
486.02062	0.03900
484.73485	0.03921
483.44908	0.03946
482.16331	0.03976
480.87754	0.04014
479.59177	0.04062
478.30600	0.04120
477.02023	0.04183
475.73447	0.04245
474.44870	0.04299
473.16293	0.04343
471.87716	0.04377
470.59139	0.04398
469.30562	0.04399
468.01985	0.04382
466.73408	0.04357
465.44832	0.04335
464.16255	0.04320
462.87678	0.04306
461.59101	0.04284
460.30524	0.04251
459.01947	0.04210
457.73370	0.04169
456.44793	0.04130
455.16216	0.04094
453.87640	0.04062
452.59063	0.04039
451.30486	0.04023
450.01909	0.04006
448.73332	0.03987
447.44755	0.03969
446.16178	0.03953
444.87601	0.03935
443.59025	0.03910
442.30448	0.03879
441.01871	0.03848
439.73294	0.03819
438.44717	0.03797
437.16140	0.03783
435.87563	0.03777
434.58986	0.03776
433.30409	0.03776
432.01833	0.03777
430.73256	0.03778
429.44679	0.03778
428.16102	0.03772
426.87525	0.03759
425.58948	0.03742
424.30371	0.03723
423.01794	0.03705
421.73218	0.03683
420.44641	0.03658
419.16064	0.03632
417.87487	0.03610
416.58910	0.03588
415.30333	0.03565
414.01756	0.03546
412.73179	0.03531
411.44602	0.03517
410.16026	0.03499
408.87449	0.03480
407.58872	0.03465
406.30295	0.03458
405.01718	0.03457
403.73141	0.03460
402.44564	0.03471
401.15987	0.03487
399.87411	0.03507
