3997.45528 0.06489
3996.16951 0.06471
3994.88374 0.06451
3993.59798 0.06383
3992.31221 0.06284
3991.02644 0.06222
3989.74067 0.06254
3988.45490 0.06366
3987.16913 0.06488
3985.88336 0.06543
3984.59759 0.06502
3983.31183 0.06399
3982.02606 0.06300
3980.74029 0.06246
3979.45452 0.06232
3978.16875 0.06233
3976.88298 0.06243
3975.59721 0.06285
3974.31144 0.06365
3973.02567 0.06458
3971.73991 0.06523
3970.45414 0.06540
3969.16837 0.06520
3967.88260 0.06480
3966.59683 0.06432
3965.31106 0.06386
3964.02529 0.06344
3962.73952 0.06298
3961.45376 0.06246
3960.16799 0.06205
3958.88222 0.06194
3957.59645 0.06214
3956.31068 0.06241
3955.02491 0.06252
3953.73914 0.06239
3952.45337 0.06209
3951.16760 0.06182
3949.88184 0.06182
3948.59607 0.06231
3947.31030 0.06322
3946.02453 0.06409
3944.73876 0.06444
3943.45299 0.06418
3942.16722 0.06352
3940.88145 0.06259
3939.59569 0.06154
3938.30992 0.06078
3937.02415 0.06076
3935.73838 0.06138
3934.45261 0.06207
3933.16684 0.06239
3931.88107 0.06248
3930.59530 0.06264
3929.30953 0.06295
3928.02377 0.06319
3926.73800 0.06321
3925.45223 0.06308
3924.16646 0.06296
3922.88069 0.06277
3921.59492 0.06247
3920.30915 0.06235
3919.02338 0.06279
3917.73762 0.06373
3916.45185 0.06452
3915.16608 0.06451
3913.88031 0.06367
3912.59454 0.06268
3911.30877 0.06230
3910.02300 0.06280
3908.73723 0.06378
3907.45146 0.06463
3906.16570 0.06500
3904.87993 0.06495
3903.59416 0.06463
3902.30839 0.06403
3901.02262 0.06318
3899.73685 0.06236
3898.45108 0.06197
3897.16531 0.06198
3895.87955 0.06206
3894.59378 0.06195
3893.30801 0.06184
3892.02224 0.06209
3890.73647 0.06265
3889.45070 0.06287
3888.16493 0.06222
3886.87916 0.06120
3885.59339 0.06077
3884.30763 0.06091
3883.02186 0.06078
3881.73609 0.06009
3880.45032 0.05954
3879.16455 0.05974
3877.87878 0.06048
3876.59301 0.06116
3875.30724 0.06150
3874.02148 0.06144
3872.73571 0.06095
3871.44994 0.06016
3870.16417 0.05962
3868.87840 0.05973
3867.59263 0.06010
3866.30686 0.06031
3865.02109 0.06038
3863.73532 0.06045
3862.44956 0.06033
3861.16379 0.06002
3859.87802 0.05997
3858.59225 0.06061
3857.30648 0.06177
3856.02071 0.06276
3854.73494 0.06303
3853.44917 0.06276
3852.16341 0.06231
3850.87764 0.06177
3849.59187 0.06116
3848.30610 0.06061
3847.02033 0.06009
3845.73456 0.05947
3844.44879 0.05876
3843.16302 0.05826
3841.87725 0.05829
3840.59149 0.05878
3839.30572 0.05937
3838.01995 0.05970
3836.73418 0.05957
3835.44841 0.05883
3834.16264 0.05769
3832.87687 0.05682
3831.59110 0.05668
3830.30534 0.05698
3829.01957 0.05711
3827.73380 0.05689
3826.44803 0.05674
3825.16226 0.05701
3823.87649 0.05750
3822.59072 0.05802
3821.30495 0.05883
3820.01918 0.06001
3818.73342 0.06084
3817.44765 0.06065
3816.16188 0.05971
3814.87611 0.05868
3813.59034 0.05773
3812.30457 0.05700
3811.01880 0.05684
3809.73303 0.05718
3808.44726 0.05747
3807.16150 0.05746
3805.87573 0.05739
3804.58996 0.05736
3803.30419 0.05737
3802.01842 0.05765
3800.73265 0.05835
3799.44688 0.05900
3798.16111 0.05908
3796.87535 0.05880
3795.58958 0.05866
3794.30381 0.05871
3793.01804 0.05870
3791.73227 0.05853
3790.44650 0.05816
3789.16073 0.05778
3787.87496 0.05775
3786.58919 0.05819
3785.30343 0.05864
3784.01766 0.05847
3782.73189 0.05760
3781.44612 0.05657
3780.16035 0.05600
3778.87458 0.05602
3777.58881 0.05627
3776.30304 0.05627
3775.01728 0.05588
3773.73151 0.05542
3772.44574 0.05534
3771.15997 0.05589
3769.87420 0.05682
3768.58843 0.05745
3767.30266 0.05737
3766.01689 0.05690
3764.73112 0.05661
3763.44536 0.05649
3762.15959 0.05609
3760.87382 0.05537
3759.58805 0.05476
3758.30228 0.05448
3757.01651 0.05443
3755.73074 0.05450
3754.44497 0.05466
3753.15921 0.05496
3751.87344 0.05531
3750.58767 0.05559
3749.30190 0.05607
3748.01613 0.05690
3746.73036 0.05745
3745.44459 0.05719
3744.15882 0.05653
3742.87305 0.05593
3741.58729 0.05521
3740.30152 0.05439
3739.01575 0.05367
3737.72998 0.05302
3736.44421 0.05238
3735.15844 0.05187
3733.87267 0.05152
3732.58690 0.05146
3731.30114 0.05186
3730.01537 0.05242
3728.72960 0.05261
3727.44383 0.05242
3726.15806 0.05234
3724.87229 0.05239
3723.58652 0.05219
3722.30075 0.05172
3721.01498 0.05140
3719.72922 0.05147
3718.44345 0.05177
3717.15768 0.05201
3715.87191 0.05204
3714.58614 0.05181
3713.30037 0.05141
3712.01460 0.05115
3710.72883 0.05133
3709.44307 0.05200
3708.15730 0.05298
3706.87153 0.05384
3705.58576 0.05410
3704.29999 0.05369
3703.01422 0.05315
3701.72845 0.05313
3700.44268 0.05378
3699.15691 0.05446
3697.87115 0.05438
3696.58538 0.05347
3695.29961 0.05240
3694.01384 0.05176
3692.72807 0.05173
3691.44230 0.05218
3690.15653 0.05270
3688.87076 0.05281
3687.58500 0.05237
3686.29923 0.05163
3685.01346 0.05102
3683.72769 0.05084
3682.44192 0.05098
3681.15615 0.05102
3679.87038 0.05094
3678.58461 0.05099
3677.29884 0.05124
3676.01308 0.05173
3674.72731 0.05230
3673.44154 0.05239
3672.15577 0.05163
3670.87000 0.05069
3669.58423 0.05057
3668.29846 0.05130
3667.01269 0.05222
3665.72693 0.05281
3664.44116 0.05295
3663.15539 0.05269
3661.86962 0.05235
3660.58385 0.05232
3659.29808 0.05269
3658.01231 0.05324
3656.72654 0.05386
3655.44077 0.05466
3654.15501 0.05548
3652.86924 0.05591
3651.58347 0.05572
3650.29770 0.05519
3649.01193 0.05468
3647.72616 0.05438
3646.44039 0.05422
3645.15462 0.05413
3643.86886 0.05405
3642.58309 0.05400
3641.29732 0.05406
3640.01155 0.05436
3638.72578 0.05489
3637.44001 0.05528
3636.15424 0.05511
3634.86847 0.05447
3633.58270 0.05398
3632.29694 0.05416
3631.01117 0.05490
3629.72540 0.05586
3628.43963 0.05665
3627.15386 0.05676
3625.86809 0.05591
3624.58232 0.05459
3623.29655 0.05363
3622.01079 0.05333
3620.72502 0.05353
3619.43925 0.05417
3618.15348 0.05526
3616.86771 0.05656
3615.58194 0.05768
3614.29617 0.05838
3613.01040 0.05867
3611.72463 0.05869
3610.43887 0.05859
3609.15310 0.05863
3607.86733 0.05904
3606.58156 0.05966
3605.29579 0.06001
3604.01002 0.05982
3602.72425 0.05929
3601.43848 0.05895
3600.15272 0.05915
3598.86695 0.05983
3597.58118 0.06065
3596.29541 0.06123
3595.00964 0.06137
3593.72387 0.06114
3592.43810 0.06089
3591.15233 0.06109
3589.86656 0.06204
3588.58080 0.06338
3587.29503 0.06429
3586.00926 0.06403
3584.72349 0.06264
3583.43772 0.06075
3582.15195 0.05923
3580.86618 0.05871
3579.58041 0.05929
3578.29464 0.06064
3577.00888 0.06221
3575.72311 0.06344
3574.43734 0.06399
3573.15157 0.06394
3571.86580 0.06355
3570.58003 0.06298
3569.29426 0.06228
3568.00849 0.06164
3566.72273 0.06139
3565.43696 0.06166
3564.15119 0.06227
3562.86542 0.06305
3561.57965 0.06383
3560.29388 0.06448
3559.00811 0.06489
3557.72234 0.06521
3556.43657 0.06563
3555.15081 0.06621
3553.86504 0.06679
3552.57927 0.06716
3551.29350 0.06733
3550.00773 0.06742
3548.72196 0.06747
3547.43619 0.06741
3546.15042 0.06715
3544.86466 0.06691
3543.57889 0.06710
3542.29312 0.06791
3541.00735 0.06903
3539.72158 0.06981
3538.43581 0.06984
3537.15004 0.06917
3535.86427 0.06818
3534.57850 0.06724
3533.29274 0.06667
3532.00697 0.06671
3530.72120 0.06747
3529.43543 0.06873
3528.14966 0.06998
3526.86389 0.07069
3525.57812 0.07079
3524.29235 0.07064
3523.00659 0.07068
3521.72082 0.07099
3520.43505 0.07131
3519.14928 0.07147
3517.86351 0.07159
3516.57774 0.07181
3515.29197 0.07216
3514.00620 0.07254
3512.72043 0.07287
3511.43467 0.07312
3510.14890 0.07327
3508.86313 0.07331
3507.57736 0.07325
3506.29159 0.07305
3505.00582 0.07266
3503.72005 0.07213
3502.43428 0.07170
3501.14852 0.07167
3499.86275 0.07222
3498.57698 0.07320
3497.29121 0.07429
3496.00544 0.07518
3494.71967 0.07572
3493.43390 0.07577
3492.14813 0.07531
3490.86236 0.07446
3489.57660 0.07357
3488.29083 0.07299
3487.00506 0.07290
3485.71929 0.07330
3484.43352 0.07410
3483.14775 0.07514
3481.86198 0.07619
3480.57621 0.07699
3479.29045 0.07738
3478.00468 0.07743
3476.71891 0.07725
3475.43314 0.07698
3474.14737 0.07687
3472.86160 0.07717
3471.57583 0.07792
3470.29006 0.07876
3469.00429 0.07920
3467.71853 0.07902
3466.43276 0.07834
3465.14699 0.07756
3463.86122 0.07711
3462.57545 0.07721
3461.28968 0.07770
3460.00391 0.07817
3458.71814 0.07831
3457.43238 0.07815
3456.14661 0.07792
3454.86084 0.07783
3453.57507 0.07798
3452.28930 0.07833
3451.00353 0.07878
3449.71776 0.07922
3448.43199 0.07959
3447.14622 0.07989
3445.86046 0.08013
3444.57469 0.08036
3443.28892 0.08073
3442.00315 0.08129
3440.71738 0.08186
3439.43161 0.08215
3438.14584 0.08211
3436.86007 0.08189
3435.57431 0.08153
3434.28854 0.08091
3433.00277 0.08019
3431.71700 0.07989
3430.43123 0.08044
3429.14546 0.08161
3427.85969 0.08268
3426.57392 0.08310
3425.28815 0.08290
3424.00239 0.08247
3422.71662 0.08217
3421.43085 0.08210
3420.14508 0.08212
3418.85931 0.08212
3417.57354 0.08206
3416.28777 0.08207
3415.00200 0.08237
3413.71624 0.08301
3412.43047 0.08375
3411.14470 0.08412
3409.85893 0.08385
3408.57316 0.08313
3407.28739 0.08255
3406.00162 0.08258
3404.71585 0.08323
3403.43008 0.08408
3402.14432 0.08478
3400.85855 0.08521
3399.57278 0.08502
3398.28701 0.08445
3397.00124 0.08433
3395.71547 0.08460
3394.42970 0.08491
3393.14393 0.08504
3391.85817 0.08504
3390.57240 0.08511
3389.28663 0.08538
3388.00086 0.08587
3386.71509 0.08656
3385.42932 0.08744
3384.14355 0.08842
3382.85778 0.08928
3381.57201 0.08972
3380.28625 0.08959
3379.00048 0.08908
3377.71471 0.08856
3376.42894 0.08828
3375.14317 0.08828
3373.85740 0.08840
3372.57163 0.08853
3371.28586 0.08865
3370.00010 0.08873
3368.71433 0.08868
3367.42856 0.08843
3366.14279 0.08804
3364.85702 0.08774
3363.57125 0.08775
3362.28548 0.08806
3360.99971 0.08846
3359.71394 0.08872
3358.42818 0.08883
3357.14241 0.08889
3355.85664 0.08902
3354.57087 0.08921
3353.28510 0.08941
3351.99933 0.08967
3350.71356 0.09008
3349.42779 0.09060
3348.14202 0.09090
3346.85626 0.09069
3345.57049 0.09018
3344.28472 0.08999
3342.99895 0.09044
3341.71318 0.09127
3340.42741 0.09187
3339.14164 0.09194
3337.85587 0.09163
3336.57011 0.09129
3335.28434 0.09110
3333.99857 0.09105
3332.71280 0.09106
3331.42703 0.09110
3330.14126 0.09116
3328.85549 0.09115
3327.56972 0.09103
3326.28395 0.09093
3324.99819 0.09102
3323.71242 0.09138
3322.42665 0.09189
3321.14088 0.09243
3319.85511 0.09295
3318.56934 0.09341
3317.28357 0.09373
3315.99780 0.09395
3314.71204 0.09427
3313.42627 0.09476
3312.14050 0.09517
3310.85473 0.09521
3309.56896 0.09484
3308.28319 0.09436
3306.99742 0.09401
3305.71165 0.09380
3304.42588 0.09366
3303.14012 0.09365
3301.85435 0.09376
3300.56858 0.09382
3299.28281 0.09359
3297.99704 0.09300
3296.71127 0.09235
3295.42550 0.09208
3294.13973 0.09241
3292.85397 0.09316
3291.56820 0.09389
3290.28243 0.09427
3288.99666 0.09435
3287.71089 0.09433
3286.42512 0.09437
3285.13935 0.09445
3283.85358 0.09449
3282.56781 0.09449
3281.28205 0.09436
3279.99628 0.09403
3278.71051 0.09355
3277.42474 0.09314
3276.13897 0.09298
3274.85320 0.09308
3273.56743 0.09329
3272.28166 0.09345
3270.99590 0.09350
3269.71013 0.09350
3268.42436 0.09366
3267.13859 0.09414
3265.85282 0.09483
3264.56705 0.09540
3263.28128 0.09562
3261.99551 0.09559
3260.70974 0.09555
3259.42398 0.09544
3258.13821 0.09498
3256.85244 0.09406
3255.56667 0.09308
3254.28090 0.09250
3252.99513 0.09243
3251.70936 0.09252
3250.42359 0.09243
3249.13783 0.09213
3247.85206 0.09169
3246.56629 0.09114
3245.28052 0.09054
3243.99475 0.09008
3242.70898 0.08989
3241.42321 0.08995
3240.13744 0.09017
3238.85167 0.09046
3237.56591 0.09075
3236.28014 0.09088
3234.99437 0.09065
3233.70860 0.08998
3232.42283 0.08907
3231.13706 0.08837
3229.85129 0.08830
3228.56552 0.08877
3227.27976 0.08925
3225.99399 0.08926
3224.70822 0.08886
3223.42245 0.08848
3222.13668 0.08846
3220.85091 0.08871
3219.56514 0.08887
3218.27937 0.08867
3216.99360 0.08821
3215.70784 0.08782
3214.42207 0.08774
3213.13630 0.08782
3211.85053 0.08773
3210.56476 0.08734
3209.27899 0.08685
3207.99322 0.08660
3206.70745 0.08666
3205.42169 0.08690
3204.13592 0.08716
3202.85015 0.08735
3201.56438 0.08741
3200.27861 0.08721
3198.99284 0.08673
3197.70707 0.08619
3196.42130 0.08585
3195.13553 0.08575
3193.84977 0.08574
3192.56400 0.08575
3191.27823 0.08587
3189.99246 0.08611
3188.70669 0.08625
3187.42092 0.08602
3186.13515 0.08540
3184.84938 0.08461
3183.56362 0.08399
3182.27785 0.08377
3180.99208 0.08386
3179.70631 0.08395
3178.42054 0.08371
3177.13477 0.08304
3175.84900 0.08221
3174.56323 0.08166
3173.27746 0.08169
3171.99170 0.08222
3170.70593 0.08287
3169.42016 0.08329
3168.13439 0.08338
3166.84862 0.08324
3165.56285 0.08296
3164.27708 0.08256
3162.99131 0.08206
3161.70555 0.08154
3160.41978 0.08108
3159.13401 0.08067
3157.84824 0.08027
3156.56247 0.07988
3155.27670 0.07957
3153.99093 0.07944
3152.70516 0.07953
3151.41939 0.07983
3150.13363 0.08020
3148.84786 0.08047
3147.56209 0.08056
3146.27632 0.08055
3144.99055 0.08063
3143.70478 0.08087
3142.41901 0.08112
3141.13324 0.08118
3139.84748 0.08098
3138.56171 0.08070
3137.27594 0.08048
3135.99017 0.08028
3134.70440 0.08003
3133.41863 0.07982
3132.13286 0.07974
3130.84709 0.07969
3129.56132 0.07938
3128.27556 0.07866
3126.98979 0.07773
3125.70402 0.07696
3124.41825 0.07659
3123.13248 0.07658
3121.84671 0.07675
3120.56094 0.07693
3119.27517 0.07701
3117.98940 0.07694
3116.70364 0.07674
3115.41787 0.07656
3114.13210 0.07660
3112.84633 0.07687
3111.56056 0.07712
3110.27479 0.07707
3108.98902 0.07663
3107.70325 0.07602
3106.41749 0.07544
3105.13172 0.07503
3103.84595 0.07485
3102.56018 0.07503
3101.27441 0.07557
3099.98864 0.07620
3098.70287 0.07659
3097.41710 0.07661
3096.13133 0.07647
3094.84557 0.07644
3093.55980 0.07658
3092.27403 0.07676
3090.98826 0.07682
3089.70249 0.07670
3088.41672 0.07641
3087.13095 0.07607
3085.84518 0.07577
3084.55942 0.07555
3083.27365 0.07534
3081.98788 0.07512
3080.70211 0.07492
3079.41634 0.07483
3078.13057 0.07492
3076.84480 0.07520
3075.55903 0.07553
3074.27326 0.07574
3072.98750 0.07575
3071.70173 0.07569
3070.41596 0.07576
3069.13019 0.07600
3067.84442 0.07621
3066.55865 0.07618
3065.27288 0.07602
3063.98711 0.07591
3062.70135 0.07588
3061.41558 0.07576
3060.12981 0.07544
3058.84404 0.07507
3057.55827 0.07478
3056.27250 0.07455
3054.98673 0.07426
3053.70096 0.07389
3052.41519 0.07357
3051.12943 0.07343
3049.84366 0.07345
3048.55789 0.07344
3047.27212 0.07318
3045.98635 0.07259
3044.70058 0.07181
3043.41481 0.07114
3042.12904 0.07088
3040.84328 0.07112
3039.55751 0.07166
3038.27174 0.07221
3036.98597 0.07255
3035.70020 0.07268
3034.41443 0.07265
3033.12866 0.07255
3031.84289 0.07241
3030.55712 0.07226
3029.27136 0.07210
3027.98559 0.07188
3026.69982 0.07157
3025.41405 0.07126
3024.12828 0.07111
3022.84251 0.07114
3021.55674 0.07126
3020.27097 0.07135
3018.98521 0.07143
3017.69944 0.07151
3016.41367 0.07152
3015.12790 0.07135
3013.84213 0.07096
3012.55636 0.07048
3011.27059 0.07004
3009.98482 0.06967
3008.69905 0.06935
3007.41329 0.06905
3006.12752 0.06881
3004.84175 0.06870
3003.55598 0.06877
3002.27021 0.06912
3000.98444 0.06953
2999.69867 0.06931
2998.41290 0.06927
2997.12714 0.06921
2995.84137 0.06931
2994.55560 0.06965
2993.26983 0.06997
2991.98406 0.07001
2990.69829 0.06976
2989.41252 0.06950
2988.12675 0.06939
2986.84098 0.06938
2985.55522 0.06942
2984.26945 0.06961
2982.98368 0.06996
2981.69791 0.07029
2980.41214 0.07045
2979.12637 0.07051
2977.84060 0.07065
2976.55483 0.07089
2975.26907 0.07112
2973.98330 0.07125
2972.69753 0.07135
2971.41176 0.07161
2970.12599 0.07216
2968.84022 0.07292
2967.55445 0.07364
2966.26868 0.07418
2964.98291 0.07465
2963.69715 0.07523
2962.41138 0.07591
2961.12561 0.07653
2959.83984 0.07703
2958.55407 0.07745
2957.26830 0.07784
2955.98253 0.07822
2954.69676 0.07857
2953.41100 0.07877
2952.12523 0.07876
2950.83946 0.07865
2949.55369 0.07864
2948.26792 0.07879
2946.98215 0.07891
2945.69638 0.07885
2944.41061 0.07860
2943.12484 0.07830
2941.83908 0.07805
2940.55331 0.07800
2939.26754 0.07821
2937.98177 0.07865
2936.69600 0.07909
2935.41023 0.07942
2934.12446 0.07971
2932.83869 0.08007
2931.55293 0.08048
2930.26716 0.08082
2928.98139 0.08104
2927.69562 0.08123
2926.40985 0.08148
2925.12408 0.08168
2923.83831 0.08170
2922.55254 0.08156
2921.26677 0.08148
2919.98101 0.08155
2918.69524 0.08155
2917.40947 0.08119
2916.12370 0.08042
2914.83793 0.07950
2913.55216 0.07867
2912.26639 0.07809
2910.98062 0.07779
2909.69486 0.07769
2908.40909 0.07757
2907.12332 0.07719
2905.83755 0.07655
2904.55178 0.07588
2903.26601 0.07542
2901.98024 0.07519
2900.69447 0.07504
2899.40870 0.07480
2898.12294 0.07439
2896.83717 0.07384
2895.55140 0.07324
2894.26563 0.07273
2892.97986 0.07238
2891.69409 0.07212
2890.40832 0.07181
2889.12255 0.07135
2887.83678 0.07078
2886.55102 0.07022
2885.26525 0.06977
2883.97948 0.06950
2882.69371 0.06944
2881.40794 0.06956
2880.12217 0.06976
2878.83640 0.06994
2877.55063 0.07015
2876.26487 0.07054
2874.97910 0.07110
2873.69333 0.07158
2872.40756 0.07175
2871.12179 0.07162
2869.83602 0.07146
2868.55025 0.07143
2867.26448 0.07142
2865.97871 0.07124
2864.69295 0.07082
2863.40718 0.07027
2862.12141 0.06976
2860.83564 0.06944
2859.54987 0.06937
2858.26410 0.06943
2856.97833 0.06942
2855.69256 0.06918
2854.40680 0.06880
2853.12103 0.06853
2851.83526 0.06853
2850.54949 0.06865
2849.26372 0.06859
2847.97795 0.06824
2846.69218 0.06777
2845.40641 0.06740
2844.12064 0.06717
2842.83488 0.06687
2841.54911 0.06632
2840.26334 0.06551
2838.97757 0.06459
2837.69180 0.06373
2836.40603 0.06296
2835.12026 0.06234
2833.83449 0.06194
2832.54873 0.06181
2831.26296 0.06178
2829.97719 0.06163
2828.69142 0.06127
2827.40565 0.06082
2826.11988 0.06043
2824.83411 0.06012
2823.54834 0.05987
2822.26257 0.05967
2820.97681 0.05951
2819.69104 0.05939
2818.40527 0.05931
2817.11950 0.05929
2815.83373 0.05930
2814.54796 0.05922
2813.26219 0.05892
2811.97642 0.05850
2810.69066 0.05817
2809.40489 0.05802
2808.11912 0.05799
2806.83335 0.05792
2805.54758 0.05775
2804.26181 0.05749
2802.97604 0.05721
2801.69027 0.05693
2800.40450 0.05672
2799.11874 0.05665
2797.83297 0.05676
2796.54720 0.05700
2795.26143 0.05730
2793.97566 0.05757
2792.68989 0.05775
2791.40412 0.05777
2790.11835 0.05766
2788.83259 0.05746
2787.54682 0.05717
2786.26105 0.05675
2784.97528 0.05627
2783.68951 0.05591
2782.40374 0.05575
2781.11797 0.05576
2779.83220 0.05581
2778.54643 0.05585
2777.26067 0.05583
2775.97490 0.05570
2774.68913 0.05548
2773.40336 0.05528
2772.11759 0.05521
2770.83182 0.05529
2769.54605 0.05543
2768.26028 0.05550
2766.97452 0.05538
2765.68875 0.05506
2764.40298 0.05468
2763.11721 0.05438
2761.83144 0.05422
2760.54567 0.05415
2759.25990 0.05411
2757.97413 0.05406
2756.68836 0.05402
2755.40260 0.05410
2754.11683 0.05432
2752.83106 0.05457
2751.54529 0.05466
2750.25952 0.05452
2748.97375 0.05426
2747.68798 0.05398
2746.40221 0.05364
2745.11645 0.05325
2743.83068 0.05294
2742.54491 0.05288
2741.25914 0.05307
2739.97337 0.05327
2738.68760 0.05329
2737.40183 0.05317
2736.11606 0.05308
2734.83029 0.05301
2733.54453 0.05286
2732.25876 0.05264
2730.97299 0.05251
2729.68722 0.05253
2728.40145 0.05254
2727.11568 0.05239
2725.82991 0.05212
2724.54414 0.05188
2723.25838 0.05178
2721.97261 0.05179
2720.68684 0.05181
2719.40107 0.05178
2718.11530 0.05168
2716.82953 0.05153
2715.54376 0.05137
2714.25799 0.05127
2712.97222 0.05128
2711.68646 0.05133
2710.40069 0.05129
2709.11492 0.05108
2707.82915 0.05078
2706.54338 0.05055
2705.25761 0.05048
2703.97184 0.05054
2702.68607 0.05065
2701.40031 0.05067
2700.11454 0.05055
2698.82877 0.05032
2697.54300 0.05007
2696.25723 0.04994
2694.97146 0.04996
2693.68569 0.05006
2692.39992 0.05010
2691.11415 0.05002
2689.82839 0.04989
2688.54262 0.04983
2687.25685 0.04984
2685.97108 0.04981
2684.68531 0.04967
2683.39954 0.04951
2682.11377 0.04939
2680.82800 0.04931
2679.54224 0.04917
2678.25647 0.04896
2676.97070 0.04875
2675.68493 0.04862
2674.39916 0.04859
2673.11339 0.04861
2671.82762 0.04866
2670.54185 0.04873
2669.25608 0.04879
2667.97032 0.04877
2666.68455 0.04859
2665.39878 0.04827
2664.11301 0.04803
2662.82724 0.04805
2661.54147 0.04823
2660.25570 0.04839
2658.96993 0.04846
2657.68417 0.04849
2656.39840 0.04852
2655.11263 0.04855
2653.82686 0.04854
2652.54109 0.04843
2651.25532 0.04809
2649.96955 0.04754
2648.68378 0.04696
2647.39801 0.04655
2646.11225 0.04634
2644.82648 0.04629
2643.54071 0.04638
2642.25494 0.04656
2640.96917 0.04670
2639.68340 0.04666
2638.39763 0.04646
2637.11186 0.04617
2635.82609 0.04580
2634.54033 0.04531
2633.25456 0.04482
2631.96879 0.04459
2630.68302 0.04476
2629.39725 0.04522
2628.11148 0.04567
2626.82571 0.04588
2625.53994 0.04580
2624.25418 0.04548
2622.96841 0.04503
2621.68264 0.04458
2620.39687 0.04424
2619.11110 0.04399
2617.82533 0.04370
2616.53956 0.04331
2615.25379 0.04303
2613.96802 0.04311
2612.68226 0.04348
2611.39649 0.04373
2610.11072 0.04353
2608.82495 0.04294
2607.53918 0.04227
2606.25341 0.04180
2604.96764 0.04160
2603.68187 0.04162
2602.39611 0.04183
2601.11034 0.04210
2599.82457 0.04219
2598.53880 0.04190
2597.25303 0.04126
2595.96726 0.04052
2594.68149 0.03995
2593.39572 0.03967
2592.10995 0.03967
2590.82419 0.03990
2589.53842 0.04029
2588.25265 0.04069
2586.96688 0.04090
2585.68111 0.04088
2584.39534 0.04072
2583.10957 0.04060
2581.82380 0.04061
2580.53804 0.04065
2579.25227 0.04061
2577.96650 0.04043
2576.68073 0.04014
2575.39496 0.03986
2574.10919 0.03970
2572.82342 0.03973
2571.53765 0.03983
2570.25188 0.03982
2568.96612 0.03968
2567.68035 0.03958
2566.39458 0.03968
2565.10881 0.03987
2563.82304 0.03994
2562.53727 0.03978
2561.25150 0.03951
2559.96573 0.03929
2558.67997 0.03916
2557.39420 0.03910
2556.10843 0.03908
2554.82266 0.03912
2553.53689 0.03917
2552.25112 0.03906
2550.96535 0.03863
2549.67958 0.03792
2548.39381 0.03718
2547.10805 0.03672
2545.82228 0.03664
2544.53651 0.03685
2543.25074 0.03711
2541.96497 0.03729
2540.67920 0.03737
2539.39343 0.03746
2538.10766 0.03762
2536.82190 0.03778
2535.53613 0.03788
2534.25036 0.03794
2532.96459 0.03805
2531.67882 0.03825
2530.39305 0.03836
2529.10728 0.03818
2527.82151 0.03773
2526.53574 0.03732
2525.24998 0.03721
2523.96421 0.03749
2522.67844 0.03801
2521.39267 0.03856
2520.10690 0.03886
2518.82113 0.03872
2517.53536 0.03811
2516.24959 0.03727
2514.96383 0.03649
2513.67806 0.03599
2512.39229 0.03594
2511.10652 0.03637
2509.82075 0.03706
2508.53498 0.03754
2507.24921 0.03743
2505.96344 0.03684
2504.67767 0.03623
2503.39191 0.03598
2502.10614 0.03603
2500.82037 0.03612
2499.53460 0.03612
2498.24883 0.03612
2496.96306 0.03622
2495.67729 0.03642
2494.39152 0.03659
2493.10576 0.03666
2491.81999 0.03668
2490.53422 0.03673
2489.24845 0.03679
2487.96268 0.03675
2486.67691 0.03652
2485.39114 0.03622
2484.10537 0.03612
2482.81960 0.03636
2481.53384 0.03678
2480.24807 0.03698
2478.96230 0.03677
2477.67653 0.03637
2476.39076 0.03614
2475.10499 0.03614
2473.81922 0.03612
2472.53345 0.03588
2471.24769 0.03548
2469.96192 0.03506
2468.67615 0.03468
2467.39038 0.03444
2466.10461 0.03449
2464.81884 0.03487
2463.53307 0.03534
2462.24730 0.03562
2460.96153 0.03570
2459.67577 0.03573
2458.39000 0.03579
2457.10423 0.03580
2455.81846 0.03564
2454.53269 0.03530
2453.24692 0.03494
2451.96115 0.03478
2450.67538 0.03494
2449.38962 0.03527
2448.10385 0.03554
2446.81808 0.03566
2445.53231 0.03571
2444.24654 0.03578
2442.96077 0.03587
2441.67500 0.03595
2440.38923 0.03597
2439.10346 0.03586
2437.81770 0.03555
2436.53193 0.03506
2435.24616 0.03454
2433.96039 0.03426
2432.67462 0.03450
2431.38885 0.03524
2430.10308 0.03605
2428.81731 0.03644
2427.53155 0.03627
2426.24578 0.03576
2424.96001 0.03517
2423.67424 0.03458
2422.38847 0.03402
2421.10270 0.03360
2419.81693 0.03340
2418.53116 0.03341
2417.24539 0.03348
2415.95963 0.03354
2414.67386 0.03359
2413.38809 0.03367
2412.10232 0.03379
2410.81655 0.03392
2409.53078 0.03402
2408.24501 0.03401
2406.95924 0.03377
2405.67347 0.03331
2404.38771 0.03292
2403.10194 0.03290
2401.81617 0.03324
2400.53040 0.03372
2399.24463 0.03490
2397.95886 0.03429
2396.67309 0.03364
2395.38732 0.03344
2394.10156 0.03349
2392.81579 0.03367
2391.53002 0.03379
2390.24425 0.03370
2388.95848 0.03342
2387.67271 0.03316
2386.38694 0.03310
2385.10117 0.03326
2383.81540 0.03348
2382.52964 0.03359
2381.24387 0.03356
2379.95810 0.03348
2378.67233 0.03333
2377.38656 0.03325
2376.10079 0.03337
2374.81502 0.03366
2373.52925 0.03365
2372.24349 0.03343
2370.95772 0.03340
2369.67195 0.03370
2368.38618 0.03401
2367.10041 0.03396
2365.81464 0.03369
2364.52887 0.03336
2363.24310 0.03314
2361.95733 0.03299
2360.67157 0.03270
2359.38580 0.03256
2358.10003 0.03283
2356.81426 0.03344
2355.52849 0.03419
2354.24272 0.03493
2352.95695 0.03533
2351.67118 0.03493
2350.38542 0.03429
2349.09965 0.03420
2347.81388 0.03440
2346.52811 0.03409
2345.24234 0.03378
2343.95657 0.03445
2342.67080 0.03587
2341.38503 0.03567
2340.09926 0.03422
2338.81350 0.03458
2337.52773 0.03635
2336.24196 0.03587
2334.95619 0.03407
2333.67042 0.03424
2332.38465 0.03573
2331.09888 0.03482
2329.81311 0.03427
2328.52735 0.03554
2327.24158 0.03554
2325.95581 0.03497
2324.67004 0.03555
2323.38427 0.03600
2322.09850 0.03530
2320.81273 0.03522
2319.52696 0.03496
2318.24119 0.03448
2316.95543 0.03443
2315.66966 0.03410
2314.38389 0.03375
2313.09812 0.03364
2311.81235 0.03322
2310.52658 0.03292
2309.24081 0.03273
2307.95504 0.03237
2306.66928 0.03212
2305.38351 0.03178
2304.09774 0.03148
2302.81197 0.03125
2301.52620 0.03101
2300.24043 0.03089
2298.95466 0.03084
2297.66889 0.03091
2296.38312 0.03111
2295.09736 0.03146
2293.81159 0.03189
2292.52582 0.03207
2291.24005 0.03184
2289.95428 0.03129
2288.66851 0.03071
2287.38274 0.03029
2286.09697 0.02999
2284.81121 0.02973
2283.52544 0.02952
2282.23967 0.02943
2280.95390 0.02948
2279.66813 0.02956
2278.38236 0.02941
2277.09659 0.02890
2275.81082 0.02815
2274.52505 0.02754
2273.23929 0.02732
2271.95352 0.02737
2270.66775 0.02730
2269.38198 0.02690
2268.09621 0.02627
2266.81044 0.02578
2265.52467 0.02568
2264.23890 0.02595
2262.95314 0.02617
2261.66737 0.02599
2260.38160 0.02553
2259.09583 0.02519
2257.81006 0.02525
2256.52429 0.02562
2255.23852 0.02605
2253.95275 0.02629
2252.66698 0.02613
2251.38122 0.02533
2250.09545 0.02442
2248.80968 0.02506
2247.52391 0.02495
2246.23814 0.02495
2244.95237 0.02491
2243.66660 0.02470
2242.38083 0.02438
2241.09507 0.02407
2239.80930 0.02386
2238.52353 0.02376
2237.23776 0.02370
2235.95199 0.02360
2234.66622 0.02349
2233.38045 0.02349
2232.09468 0.02370
2230.80891 0.02406
2229.52315 0.02422
2228.23738 0.02396
2226.95161 0.02337
2225.66584 0.02271
2224.38007 0.02202
2223.09430 0.02121
2221.80853 0.02058
2220.52276 0.02071
2219.23700 0.02173
2217.95123 0.02292
2216.66546 0.02324
2215.37969 0.02231
2214.09392 0.02082
2212.80815 0.01992
2211.52238 0.02016
2210.23661 0.02118
2208.95084 0.02210
2207.66508 0.02234
2206.37931 0.02196
2205.09354 0.02149
2203.80777 0.02146
2202.52200 0.02187
2201.23623 0.02225
2199.95046 0.02218
2198.66469 0.02178
2197.37893 0.02131
2196.09316 0.02064
2194.80739 0.01956
2193.52162 0.01836
2192.23585 0.01778
2190.95008 0.01810
2189.66431 0.01877
2188.37854 0.01892
2187.09277 0.01816
2185.80701 0.01684
2184.52124 0.01569
2183.23547 0.01520
2181.94970 0.01544
2180.66393 0.01609
2179.37816 0.01658
2178.09239 0.01636
2176.80662 0.01533
2175.52085 0.01397
2174.23509 0.01295
2172.94932 0.01259
2171.66355 0.01283
2170.37778 0.01362
2169.09201 0.01489
2167.80624 0.01635
2166.52047 0.01729
2165.23470 0.01700
2163.94894 0.01528
2162.66317 0.01268
2161.37740 0.01014
2160.09163 0.00850
2158.80586 0.00827
2157.52009 0.00920
2156.23432 0.01027
2154.94855 0.01045
2153.66278 0.00974
2152.37702 0.00917
2151.09125 0.00975
2149.80548 0.01153
2148.51971 0.01364
2147.23394 0.01512
2145.94817 0.01560
2144.66240 0.01536
2143.37663 0.01501
2142.09087 0.01497
2140.80510 0.01520
2139.51933 0.01538
2138.23356 0.01531
2136.94779 0.01508
2135.66202 0.01503
2134.37625 0.01540
2133.09048 0.01604
2131.80471 0.01648
2130.51895 0.01649
2129.23318 0.01631
2127.94741 0.01639
2126.66164 0.01692
2125.37587 0.01775
2124.09010 0.01855
2122.80433 0.01901
2121.51856 0.01902
2120.23280 0.01875
2118.94703 0.01853
2117.66126 0.01861
2116.37549 0.01901
2115.08972 0.01948
2113.80395 0.01971
2112.51818 0.01964
2111.23241 0.01944
2109.94664 0.01932
2108.66088 0.01934
2107.37511 0.01937
2106.08934 0.01923
2104.80357 0.01883
2103.51780 0.01830
2102.23203 0.01791
2100.94626 0.01789
2099.66049 0.02000
2098.37473 0.02126
2097.08896 0.02106
2095.80319 0.02032
2094.51742 0.01966
2093.23165 0.01930
2091.94588 0.01921
2090.66011 0.01914
2089.37434 0.01883
2088.08857 0.01824
2086.80281 0.01760
2085.51704 0.01729
2084.23127 0.01752
2082.94550 0.01821
2081.65973 0.01907
2080.37396 0.01976
2079.08819 0.02012
2077.80242 0.02013
2076.51666 0.01993
2075.23089 0.01975
2073.94512 0.01980
2072.65935 0.02014
2071.37358 0.02058
2070.08781 0.02077
2068.80204 0.02047
2067.51627 0.01965
2066.23050 0.01858
2064.94474 0.01764
2063.65897 0.01699
2062.37320 0.01655
2061.08743 0.01620
2059.80166 0.01602
2058.51589 0.01610
2057.23012 0.01620
2055.94435 0.01589
2054.65859 0.01504
2053.37282 0.01418
2052.08705 0.01409
2050.80128 0.01494
2049.51551 0.01613
2048.22974 0.01680
2046.94397 0.01656
2045.65820 0.01559
2044.37243 0.01441
2043.08667 0.01348
2041.80090 0.01310
2040.51513 0.01340
2039.22936 0.01441
2037.94359 0.01589
2036.65782 0.01734
2035.37205 0.01808
2034.08628 0.01768
2032.80052 0.01625
2031.51475 0.01433
2030.22898 0.01249
2028.94321 0.01116
2027.65744 0.01058
2026.37167 0.01073
2025.08590 0.01131
2023.80013 0.01187
2022.51436 0.01208
2021.22860 0.01192
2019.94283 0.01164
2018.65706 0.01156
2017.37129 0.01186
2016.08552 0.01236
2014.79975 0.01280
2013.51398 0.01305
2012.22821 0.01320
2010.94245 0.01331
2009.65668 0.01340
2008.37091 0.01356
2007.08514 0.01388
2005.79937 0.01416
2004.51360 0.01398
2003.22783 0.01323
2001.94206 0.01239
2000.65629 0.01209
1999.37053 0.01242
1998.08476 0.01282
1996.79899 0.01271
1995.51322 0.01209
1994.22745 0.01152
1992.94168 0.01147
1991.65591 0.01185
1990.37014 0.01221
1989.08438 0.01227
1987.79861 0.01220
1986.51284 0.01246
1985.22707 0.01336
1983.94130 0.01474
1982.65553 0.01614
1981.36976 0.01723
1980.08399 0.01803
1978.79822 0.01878
1977.51246 0.01942
1976.22669 0.01969
1974.94092 0.01943
1973.65515 0.01891
1972.36938 0.01867
1971.08361 0.01896
1969.79784 0.01959
1968.51207 0.02007
1967.22631 0.02007
1965.94054 0.01952
1964.65477 0.01864
1963.36900 0.01770
1962.08323 0.01691
1960.79746 0.01633
1959.51169 0.01589
1958.22592 0.01553
1956.94015 0.01510
1955.65439 0.01455
1954.36862 0.01400
1953.08285 0.01376
1951.79708 0.01407
1950.51131 0.01487
1949.22554 0.01587
1947.93977 0.01675
1946.65400 0.01731
1945.36823 0.01752
1944.08247 0.01750
1942.79670 0.01748
1941.51093 0.01763
1940.22516 0.01805
1938.93939 0.01872
1937.65362 0.01946
1936.36785 0.01995
1935.08208 0.02000
1933.79632 0.01969
1932.51055 0.01929
1931.22478 0.01894
1929.93901 0.01874
1928.65324 0.01878
1927.36747 0.01909
1926.08170 0.01947
1924.79593 0.01963
1923.51016 0.01957
1922.22440 0.01952
1920.93863 0.01957
1919.65286 0.01957
1918.36709 0.01950
1917.08132 0.01953
1915.79555 0.01975
1914.50978 0.02005
1913.22401 0.02035
1911.93825 0.02060
1910.65248 0.02078
1909.36671 0.02080
1908.08094 0.02055
1906.79517 0.02003
1905.50940 0.01939
1904.22363 0.01894
1902.93786 0.01887
1901.65209 0.01918
1900.36633 0.01961
1899.08056 0.01991
1897.79479 0.01996
1896.50902 0.01980
1895.22325 0.01955
1893.93748 0.01936
1892.65171 0.01929
1891.36594 0.01933
1890.08018 0.01942
1888.79441 0.01946
1887.50864 0.01939
1886.22287 0.01923
1884.93710 0.01903
1883.65133 0.01883
1882.36556 0.01866
1881.07979 0.01855
1879.79402 0.01854
1878.50826 0.01861
1877.22249 0.01875
1875.93672 0.01891
1874.65095 0.01910
1873.36518 0.01935
1872.07941 0.01966
1870.79364 0.01990
1869.50787 0.01995
1868.22211 0.01976
1866.93634 0.01943
1865.65057 0.01913
1864.36480 0.01900
1863.07903 0.01908
1861.79326 0.01932
1860.50749 0.01958
1859.22172 0.01969
1857.93595 0.01958
1856.65019 0.01930
1855.36442 0.01905
1854.07865 0.01895
1852.79288 0.01899
1851.50711 0.01902
1850.22134 0.01898
1848.93557 0.01896
1847.64980 0.01907
1846.36404 0.01931
1845.07827 0.01958
1843.79250 0.01979
1842.50673 0.01987
1841.22096 0.01975
1839.93519 0.01950
1838.64942 0.01930
1837.36365 0.01923
1836.07788 0.01923
1834.79212 0.01928
1833.50635 0.01932
1832.22058 0.01935
1830.93481 0.01936
1829.64904 0.01944
1828.36327 0.01962
1827.07750 0.01983
1825.79173 0.02005
1824.50597 0.02031
1823.22020 0.02060
1821.93443 0.02081
1820.64866 0.02084
1819.36289 0.02064
1818.07712 0.02020
1816.79135 0.01958
1815.50558 0.01892
1814.21981 0.01836
1812.93405 0.01799
1811.64828 0.01783
1810.36251 0.01785
1809.07674 0.01797
1807.79097 0.01811
1806.50520 0.01826
1805.21943 0.01842
1803.93366 0.01856
1802.64790 0.01865
1801.36213 0.01871
1800.07636 0.01879
1798.79059 0.01895
1797.50482 0.01918
1796.21905 0.01942
1794.93328 0.01959
1793.64751 0.01961
1792.36174 0.01961
1791.07598 0.01969
1789.79021 0.01982
1788.50444 0.01987
1787.21867 0.01980
1785.93290 0.01968
1784.64713 0.01964
1783.36136 0.01968
1782.07559 0.01973
1780.78983 0.01977
1779.50406 0.01982
1778.21829 0.01987
1776.93252 0.01989
1775.64675 0.01983
1774.36098 0.01967
1773.07521 0.01948
1771.78944 0.01936
1770.50367 0.01927
1769.21791 0.01911
1767.93214 0.01895
1766.64637 0.01895
1765.36060 0.01909
1764.07483 0.01923
1762.78906 0.01932
1761.50329 0.01940
1760.21752 0.01947
1758.93176 0.01945
1757.64599 0.01936
1756.36022 0.01931
1755.07445 0.01934
1753.78868 0.01934
1752.50291 0.01928
1751.21714 0.01925
1749.93137 0.01932
1748.64560 0.01936
1747.35984 0.01929
1746.07407 0.01916
1744.78830 0.01911
1743.50253 0.01917
1742.21676 0.01929
1740.93099 0.01939
1739.64522 0.01953
1738.35945 0.01978
1737.07369 0.02003
1735.78792 0.02008
1734.50215 0.02001
1733.21638 0.01998
1731.93061 0.01991
1730.64484 0.01970
1729.35907 0.01946
1728.07330 0.01938
1726.78753 0.01945
1725.50177 0.01957
1724.21600 0.01972
1722.93023 0.02001
1721.64446 0.02045
1720.35869 0.02092
1719.07292 0.02130
1717.78715 0.02163
1716.50138 0.02198
1715.21561 0.02230
1713.92985 0.02257
1712.64408 0.02290
1711.35831 0.02342
1710.07254 0.02409
1708.78677 0.02485
1707.50100 0.02564
1706.21523 0.02649
1704.92946 0.02752
1703.64370 0.02873
1702.35793 0.02991
1701.07216 0.03107
1699.78639 0.03242
1698.50062 0.03382
1697.21485 0.03497
1695.92908 0.03598
1694.64331 0.03720
1693.35754 0.03851
1692.07178 0.03965
1690.78601 0.04074
1689.50024 0.04207
1688.21447 0.04362
1686.92870 0.04513
1685.64293 0.04644
1684.35716 0.04772
1683.07139 0.04908
1681.78563 0.05039
1680.49986 0.05159
1679.21409 0.05285
1677.92832 0.05419
1676.64255 0.05550
1675.35678 0.05681
1674.07101 0.05823
1672.78524 0.05963
1671.49947 0.06088
1670.21371 0.06203
1668.92794 0.06323
1667.64217 0.06450
1666.35640 0.06577
1665.07063 0.06696
1663.78486 0.06813
1662.49909 0.06935
1661.21332 0.07057
1659.92756 0.07174
1658.64179 0.07294
1657.35602 0.07426
1656.07025 0.07556
1654.78448 0.07661
1653.49871 0.07750
1652.21294 0.07846
1650.92717 0.07937
1649.64140 0.07988
1648.35564 0.07998
1647.06987 0.08006
1645.78410 0.08029
1644.49833 0.08051
1643.21256 0.08051
1641.92679 0.08028
1640.64102 0.08005
1639.35525 0.07990
1638.06949 0.07970
1636.78372 0.07933
1635.49795 0.07882
1634.21218 0.07824
1632.92641 0.07751
1631.64064 0.07657
1630.35487 0.07554
1629.06910 0.07457
1627.78333 0.07369
1626.49757 0.07286
1625.21180 0.07200
1623.92603 0.07107
1622.64026 0.07014
1621.35449 0.06926
1620.06872 0.06835
1618.78295 0.06735
1617.49718 0.06635
1616.21142 0.06554
1614.92565 0.06489
1613.63988 0.06422
1612.35411 0.06351
1611.06834 0.06290
1609.78257 0.06245
1608.49680 0.06210
1607.21103 0.06180
1605.92526 0.06153
1604.63950 0.06128
1603.35373 0.06109
1602.06796 0.06094
1600.78219 0.06086
1599.49642 0.06081
1598.21065 0.06081
1596.92488 0.06087
1595.63911 0.06101
1594.35335 0.06122
1593.06758 0.06144
1591.78181 0.06165
1590.49604 0.06185
1589.21027 0.06207
1587.92450 0.06234
1586.63873 0.06266
1585.35296 0.06300
1584.06719 0.06338
1582.78143 0.06382
1581.49566 0.06440
1580.20989 0.06516
1578.92412 0.06598
1577.63835 0.06670
1576.35258 0.06738
1575.06681 0.06811
1573.78104 0.06879
1572.49528 0.06929
1571.20951 0.06968
1569.92374 0.07015
1568.63797 0.07077
1567.35220 0.07146
1566.06643 0.07210
1564.78066 0.07280
1563.49489 0.07362
1562.20912 0.07439
1560.92336 0.07496
1559.63759 0.07544
1558.35182 0.07603
1557.06605 0.07656
1555.78028 0.07675
1554.49451 0.07666
1553.20874 0.07659
1551.92297 0.07661
1550.63721 0.07664
1549.35144 0.07666
1548.06567 0.07667
1546.77990 0.07666
1545.49413 0.07665
1544.20836 0.07667
1542.92259 0.07661
1541.63682 0.07634
1540.35105 0.07587
1539.06529 0.07539
1537.77952 0.07497
1536.49375 0.07444
1535.20798 0.07378
1533.92221 0.07316
1532.63644 0.07277
1531.35067 0.07251
1530.06490 0.07229
1528.77914 0.07210
1527.49337 0.07202
1526.20760 0.07206
1524.92183 0.07219
1523.63606 0.07226
1522.35029 0.07222
1521.06452 0.07223
1519.77875 0.07236
1518.49298 0.07246
1517.20722 0.07249
1515.92145 0.07259
1514.63568 0.07283
1513.34991 0.07320
1512.06414 0.07377
1510.77837 0.07455
1509.49260 0.07534
1508.20683 0.07590
1506.92107 0.07625
1505.63530 0.07659
1504.34953 0.07690
1503.06376 0.07707
1501.77799 0.07715
1500.49222 0.07732
1499.20645 0.07758
1497.92068 0.07781
1496.63491 0.07796
1495.34915 0.07809
1494.06338 0.07824
1492.77761 0.07835
1491.49184 0.07849
1490.20607 0.07879
1488.92030 0.07925
1487.63453 0.07979
1486.34876 0.08031
1485.06299 0.08083
1483.77723 0.08139
1482.49146 0.08207
1481.20569 0.08296
1479.91992 0.08404
1478.63415 0.08522
1477.34838 0.08642
1476.06261 0.08756
1474.77684 0.08857
1473.49108 0.08946
1472.20531 0.09029
1470.91954 0.09109
1469.63377 0.09182
1468.34800 0.09243
1467.06223 0.09298
1465.77646 0.09352
1464.49069 0.09411
1463.20492 0.09482
1461.91916 0.09569
1460.63339 0.09672
1459.34762 0.09782
1458.06185 0.09890
1456.77608 0.10000
1455.49031 0.10107
1454.20454 0.10192
1452.91877 0.10245
1451.63301 0.10284
1450.34724 0.10322
1449.06147 0.10358
1447.77570 0.10383
1446.48993 0.10396
1445.20416 0.10394
1443.91839 0.10383
1442.63262 0.10370
1441.34685 0.10362
1440.06109 0.10351
1438.77532 0.10328
1437.48955 0.10297
1436.20378 0.10276
1434.91801 0.10272
1433.63224 0.10277
1432.34647 0.10290
1431.06070 0.10323
1429.77494 0.10384
1428.48917 0.10470
1427.20340 0.10570
1425.91763 0.10677
1424.63186 0.10790
1423.34609 0.10912
1422.06032 0.11031
1420.77455 0.11140
1419.48878 0.11243
1418.20302 0.11345
1416.91725 0.11435
1415.63148 0.11501
1414.34571 0.11544
1413.05994 0.11574
1411.77417 0.11590
1410.48840 0.11591
1409.20263 0.11574
1407.91687 0.11537
1406.63110 0.11477
1405.34533 0.11393
1404.05956 0.11289
1402.77379 0.11171
1401.48802 0.11041
1400.20225 0.10900
1398.91648 0.10751
1397.63071 0.10592
1396.34495 0.10420
1395.05918 0.10239
1393.77341 0.10056
1392.48764 0.09875
1391.20187 0.09693
1389.91610 0.09512
1388.63033 0.09335
1387.34456 0.09166
1386.05880 0.08999
1384.77303 0.08826
1383.48726 0.08641
1382.20149 0.08451
1380.91572 0.08264
1379.62995 0.08083
1378.34418 0.07906
1377.05841 0.07729
1375.77264 0.07546
1374.48688 0.07358
1373.20111 0.07168
1371.91534 0.06982
1370.62957 0.06799
1369.34380 0.06623
1368.05803 0.06459
1366.77226 0.06308
1365.48649 0.06171
1364.20073 0.06042
1362.91496 0.05919
1361.62919 0.05801
1360.34342 0.05689
1359.05765 0.05587
1357.77188 0.05497
1356.48611 0.05418
1355.20034 0.05345
1353.91457 0.05274
1352.62881 0.05209
1351.34304 0.05151
1350.05727 0.05100
1348.77150 0.05052
1347.48573 0.05008
1346.19996 0.04966
1344.91419 0.04926
1343.62842 0.04890
1342.34266 0.04855
1341.05689 0.04819
1339.77112 0.04782
1338.48535 0.04744
1337.19958 0.04704
1335.91381 0.04662
1334.62804 0.04621
1333.34227 0.04582
1332.05650 0.04546
1330.77074 0.04511
1329.48497 0.04472
1328.19920 0.04424
1326.91343 0.04370
1325.62766 0.04314
1324.34189 0.04262
1323.05612 0.04217
1321.77035 0.04178
1320.48459 0.04140
1319.19882 0.04102
1317.91305 0.04065
1316.62728 0.04031
1315.34151 0.04001
1314.05574 0.03972
1312.76997 0.03942
1311.48420 0.03909
1310.19843 0.03872
1308.91267 0.03833
1307.62690 0.03793
1306.34113 0.03753
1305.05536 0.03715
1303.76959 0.03681
1302.48382 0.03653
1301.19805 0.03627
1299.91228 0.03600
1298.62652 0.03569
1297.34075 0.03535
1296.05498 0.03503
1294.76921 0.03475
1293.48344 0.03453
1292.19767 0.03439
1290.91190 0.03430
1289.62613 0.03422
1288.34036 0.03410
1287.05460 0.03394
1285.76883 0.03380
1284.48306 0.03369
1283.19729 0.03363
1281.91152 0.03358
1280.62575 0.03352
1279.33998 0.03343
1278.05421 0.03332
1276.76845 0.03318
1275.48268 0.03301
1274.19691 0.03285
1272.91114 0.03270
1271.62537 0.03257
1270.33960 0.03245
1269.05383 0.03238
1267.76806 0.03237
1266.48229 0.03242
1265.19653 0.03247
1263.91076 0.03248
1262.62499 0.03244
1261.33922 0.03238
1260.05345 0.03232
1258.76768 0.03228
1257.48191 0.03224
1256.19614 0.03221
1254.91037 0.03218
1253.62461 0.03219
1252.33884 0.03222
1251.05307 0.03226
1249.76730 0.03229
1248.48153 0.03228
1247.19576 0.03226
1245.90999 0.03224
1244.62422 0.03221
1243.33846 0.03218
1242.05269 0.03214
1240.76692 0.03209
1239.48115 0.03204
1238.19538 0.03197
1236.90961 0.03187
1235.62384 0.03173
1234.33807 0.03155
1233.05230 0.03135
1231.76654 0.03114
1230.48077 0.03090
1229.19500 0.03060
1227.90923 0.03023
1226.62346 0.02983
1225.33769 0.02947
1224.05192 0.02915
1222.76615 0.02880
1221.48039 0.02839
1220.19462 0.02794
1218.90885 0.02753
1217.62308 0.02722
1216.33731 0.02696
1215.05154 0.02672
1213.76577 0.02647
1212.48000 0.02624
1211.19423 0.02606
1209.90847 0.02595
1208.62270 0.02590
1207.33693 0.02587
1206.05116 0.02585
1204.76539 0.02583
1203.47962 0.02585
1202.19385 0.02580
1200.90808 0.02557
1199.62232 0.02536
1198.33655 0.02524
1197.05078 0.02506
1195.76501 0.02480
1194.47924 0.02451
1193.19347 0.02422
1191.90770 0.02395
1190.62193 0.02374
1189.33616 0.02357
1188.05040 0.02344
1186.76463 0.02332
1185.47886 0.02316
1184.19309 0.02294
1182.90732 0.02271
1181.62155 0.02253
1180.33578 0.02243
1179.05001 0.02239
1177.76425 0.02237
1176.47848 0.02234
1175.19271 0.02232
1173.90694 0.02231
1172.62117 0.02233
1171.33540 0.02240
1170.04963 0.02252
1168.76386 0.02267
1167.47809 0.02281
1166.19233 0.02291
1164.90656 0.02293
1163.62079 0.02287
1162.33502 0.02279
1161.04925 0.02273
1159.76348 0.02273
1158.47771 0.02280
1157.19194 0.02293
1155.90618 0.02311
1154.62041 0.02330
1153.33464 0.02346
1152.04887 0.02358
1150.76310 0.02365
1149.47733 0.02370
1148.19156 0.02381
1146.90579 0.02404
1145.62002 0.02440
1144.33426 0.02486
1143.04849 0.02539
1141.76272 0.02598
1140.47695 0.02667
1139.19118 0.02749
1137.90541 0.02843
1136.61964 0.02953
1135.33387 0.03080
1134.04811 0.03219
1132.76234 0.03369
1131.47657 0.03528
1130.19080 0.03704
1128.90503 0.03904
1127.61926 0.04135
1126.33349 0.04397
1125.04772 0.04684
1123.76195 0.04985
1122.47619 0.05293
1121.19042 0.05602
1119.90465 0.05912
1118.61888 0.06226
1117.33311 0.06547
1116.04734 0.06877
1114.76157 0.07210
1113.47580 0.07542
1112.19004 0.07865
1110.90427 0.08173
1109.61850 0.08464
1108.33273 0.08739
1107.04696 0.09002
1105.76119 0.09257
1104.47542 0.09509
1103.18965 0.09757
1101.90388 0.09997
1100.61812 0.10223
1099.33235 0.10435
1098.04658 0.10642
1096.76081 0.10849
1095.47504 0.11051
1094.18927 0.11242
1092.90350 0.11416
1091.61773 0.11571
1090.33197 0.11708
1089.04620 0.11834
1087.76043 0.11960
1086.47466 0.12093
1085.18889 0.12232
1083.90312 0.12373
1082.61735 0.12520
1081.33158 0.12678
1080.04581 0.12853
1078.76005 0.13048
1077.47428 0.13259
1076.18851 0.13481
1074.90274 0.13711
1073.61697 0.13949
1072.33120 0.14200
1071.04543 0.14465
1069.75966 0.14742
1068.47390 0.15024
1067.18813 0.15309
1065.90236 0.15596
1064.61659 0.15887
1063.33082 0.16182
1062.04505 0.16481
1060.75928 0.16783
1059.47351 0.17086
1058.18774 0.17385
1056.90198 0.17677
1055.61621 0.17958
1054.33044 0.18230
1053.04467 0.18500
1051.75890 0.18775
1050.47313 0.19063
1049.18736 0.19371
1047.90159 0.19694
1046.61583 0.20024
1045.33006 0.20355
1044.04429 0.20684
1042.75852 0.21012
1041.47275 0.21341
1040.18698 0.21672
1038.90121 0.22008
1037.61544 0.22349
1036.32967 0.22695
1035.04391 0.23043
1033.75814 0.23388
1032.47237 0.23720
1031.18660 0.24030
1029.90083 0.24311
1028.61506 0.24558
1027.32929 0.24767
1026.04352 0.24943
1024.75775 0.25094
1023.47199 0.25220
1022.18622 0.25314
1020.90045 0.25365
1019.61468 0.25373
1018.32891 0.25340
1017.04314 0.25269
1015.75737 0.25160
1014.47160 0.25014
1013.18584 0.24826
1011.90007 0.24594
1010.61430 0.24315
1009.32853 0.23989
1008.04276 0.23618
1006.75699 0.23206
1005.47122 0.22759
1004.18545 0.22280
1002.89968 0.21771
1001.61392 0.21233
1000.32815 0.20677
999.04238 0.20113
997.75661 0.19544
996.47084 0.18970
995.18507 0.18389
993.89930 0.17806
992.61353 0.17219
991.32777 0.16631
990.04200 0.16044
988.75623 0.15470
987.47046 0.14921
986.18469 0.14400
984.89892 0.13901
983.61315 0.13420
982.32738 0.12955
981.04161 0.12511
979.75585 0.12095
978.47008 0.11710
977.18431 0.11358
975.89854 0.11041
974.61277 0.10763
973.32700 0.10526
972.04123 0.10332
970.75546 0.10187
969.46970 0.10090
968.18393 0.10045
966.89816 0.10051
965.61239 0.10101
964.32662 0.10177
963.04085 0.10252
961.75508 0.10301
960.46931 0.10303
959.18354 0.10244
957.89778 0.10124
956.61201 0.09956
955.32624 0.09763
954.04047 0.09561
952.75470 0.09354
951.46893 0.09140
950.18316 0.08915
948.89739 0.08688
947.61163 0.08471
946.32586 0.08271
945.04009 0.08084
943.75432 0.07903
942.46855 0.07722
941.18278 0.07542
939.89701 0.07365
938.61124 0.07193
937.32547 0.07024
936.03971 0.06865
934.75394 0.06722
933.46817 0.06602
932.18240 0.06498
930.89663 0.06400
929.61086 0.06304
928.32509 0.06209
927.03932 0.06113
925.75356 0.06015
924.46779 0.05919
923.18202 0.05833
921.89625 0.05760
920.61048 0.05687
919.32471 0.05604
918.03894 0.05510
916.75317 0.05419
915.46740 0.05348
914.18164 0.05300
912.89587 0.05262
911.61010 0.05222
910.32433 0.05171
909.03856 0.05112
907.75279 0.05053
906.46702 0.05003
905.18125 0.04964
903.89549 0.04929
902.60972 0.04887
901.32395 0.04836
900.03818 0.04782
898.75241 0.04735
897.46664 0.04694
896.18087 0.04649
894.89510 0.04595
893.60933 0.04540
892.32357 0.04497
891.03780 0.04477
889.75203 0.04481
888.46626 0.04504
887.18049 0.04547
885.89472 0.04626
884.60895 0.04763
883.32318 0.04975
882.03742 0.05245
880.75165 0.05527
879.46588 0.05766
878.18011 0.05940
876.89434 0.06072
875.60857 0.06203
874.32280 0.06350
873.03703 0.06488
871.75126 0.06578
870.46550 0.06594
869.17973 0.06533
867.89396 0.06405
866.60819 0.06220
865.32242 0.05999
864.03665 0.05766
862.75088 0.05543
861.46511 0.05337
860.17935 0.05152
858.89358 0.04991
857.60781 0.04855
856.32204 0.04738
855.03627 0.04636
853.75050 0.04549
852.46473 0.04478
851.17896 0.04426
849.89319 0.04385
848.60743 0.04349
847.32166 0.04311
846.03589 0.04269
844.75012 0.04223
843.46435 0.04179
842.17858 0.04147
840.89281 0.04129
839.60704 0.04121
838.32128 0.04110
837.03551 0.04083
835.74974 0.04036
834.46397 0.03978
833.17820 0.03927
831.89243 0.03893
830.60666 0.03879
829.32089 0.03879
828.03512 0.03888
826.74936 0.03895
825.46359 0.03894
824.17782 0.03883
822.89205 0.03872
821.60628 0.03869
820.32051 0.03875
819.03474 0.03877
817.74897 0.03865
816.46321 0.03839
815.17744 0.03809
813.89167 0.03785
812.60590 0.03772
811.32013 0.03764
810.03436 0.03756
808.74859 0.03747
807.46282 0.03742
806.17705 0.03747
804.89129 0.03755
803.60552 0.03760
802.31975 0.03760
801.03398 0.03757
799.74821 0.03753
798.46244 0.03746
797.17667 0.03737
795.89090 0.03731
794.60513 0.03730
793.31937 0.03732
792.03360 0.03733
790.74783 0.03732
789.46206 0.03730
788.17629 0.03733
786.89052 0.03743
785.60475 0.03757
784.31898 0.03766
783.03322 0.03765
781.74745 0.03758
780.46168 0.03755
779.17591 0.03761
777.89014 0.03772
776.60437 0.03775
775.31860 0.03769
774.03283 0.03759
772.74706 0.03753
771.46130 0.03753
770.17553 0.03755
768.88976 0.03761
767.60399 0.03768
766.31822 0.03778
765.03245 0.03792
763.74668 0.03810
762.46091 0.03822
761.17515 0.03819
759.88938 0.03799
758.60361 0.03773
757.31784 0.03758
756.03207 0.03764
754.74630 0.03788
753.46053 0.03817
752.17476 0.03834
750.88899 0.03829
749.60323 0.03805
748.31746 0.03777
747.03169 0.03756
745.74592 0.03744
744.46015 0.03739
743.17438 0.03739
741.88861 0.03745
740.60284 0.03756
739.31708 0.03767
738.03131 0.03772
736.74554 0.03770
735.45977 0.03764
734.17400 0.03766
732.88823 0.03779
731.60246 0.03794
730.31669 0.03801
729.03092 0.03798
727.74516 0.03789
726.45939 0.03777
725.17362 0.03770
723.88785 0.03793
722.60208 0.03789
721.31631 0.03799
720.03054 0.03820
718.74477 0.03833
717.45901 0.03834
716.17324 0.03826
714.88747 0.03814
713.60170 0.03803
712.31593 0.03799
711.03016 0.03802
709.74439 0.03810
708.45862 0.03816
707.17285 0.03817
705.88709 0.03816
704.60132 0.03817
703.31555 0.03820
702.02978 0.03823
700.74401 0.03821
699.45824 0.03813
698.17247 0.03804
696.88670 0.03798
695.60094 0.03797
694.31517 0.03801
693.02940 0.03807
691.74363 0.03815
690.45786 0.03822
689.17209 0.03826
687.88632 0.03825
686.60055 0.03821
685.31478 0.03812
684.02902 0.03801
682.74325 0.03786
681.45748 0.03776
680.17171 0.03771
678.88594 0.03772
677.60017 0.03774
676.31440 0.03777
675.02863 0.03784
673.74287 0.03800
672.45710 0.03821
671.17133 0.03844
669.88556 0.03860
668.59979 0.03874
667.31402 0.03889
666.02825 0.03890
664.74248 0.03885
663.45671 0.03871
662.17095 0.03850
660.88518 0.03827
659.59941 0.03805
658.31364 0.03786
657.02787 0.03765
655.74210 0.03742
654.45633 0.03721
653.17056 0.03708
651.88480 0.03698
650.59903 0.03686
649.31326 0.03670
648.02749 0.03652
646.74172 0.03633
645.45595 0.03615
644.17018 0.03599
642.88441 0.03588
641.59864 0.03583
640.31288 0.03584
639.02711 0.03590
637.74134 0.03598
636.45557 0.03607
635.16980 0.03621
633.88403 0.03639
632.59826 0.03642
631.31249 0.03587
630.02673 0.03571
628.74096 0.03835
627.45519 0.03930
626.16942 0.04414
624.88365 0.05168
623.59788 0.05887
622.31211 0.06431
621.02634 0.06764
619.74057 0.06896
618.45481 0.06853
617.16904 0.06690
615.88327 0.06531
614.59750 0.06564
613.31173 0.06930
612.02596 0.07593
610.74019 0.08363
609.45442 0.09073
608.16866 0.09691
606.88289 0.10229
605.59712 0.10652
604.31135 0.10903
603.02558 0.10970
601.73981 0.10876
600.45404 0.10654
599.16827 0.10343
597.88250 0.09990
596.59674 0.09637
595.31097 0.09310
594.02520 0.09019
592.73943 0.08771
591.45366 0.08575
590.16789 0.08444
588.88212 0.08382
587.59635 0.08388
586.31059 0.08452
585.02482 0.08567
583.73905 0.08729
582.45328 0.08932
581.16751 0.09165
579.88174 0.09412
578.59597 0.09662
577.31020 0.09909
576.02443 0.10151
574.73867 0.10386
573.45290 0.10621
572.16713 0.10869
570.88136 0.11147
569.59559 0.11460
568.30982 0.11805
567.02405 0.12171
565.73828 0.12542
564.45251 0.12886
563.16675 0.13155
561.88098 0.13301
560.59521 0.13291
559.30944 0.13117
558.02367 0.12792
556.73790 0.12345
555.45213 0.11818
554.16636 0.11259
552.88060 0.10706
551.59483 0.10179
550.30906 0.09684
549.02329 0.09226
547.73752 0.08807
546.45175 0.08430
545.16598 0.08093
543.88021 0.07794
542.59444 0.07533
541.30868 0.07307
540.02291 0.07110
538.73714 0.06928
537.45137 0.06749
536.16560 0.06568
534.87983 0.06390
533.59406 0.06225
532.30829 0.06081
531.02253 0.05952
529.73676 0.05831
528.45099 0.05713
527.16522 0.05597
525.87945 0.05489
524.59368 0.05394
523.30791 0.05314
522.02214 0.05240
520.73637 0.05160
519.45061 0.05071
518.16484 0.04977
516.87907 0.04885
515.59330 0.04794
514.30753 0.04704
513.02176 0.04621
511.73599 0.04553
510.45022 0.04498
509.16446 0.04446
507.87869 0.04388
506.59292 0.04330
505.30715 0.04281
504.02138 0.04240
502.73561 0.04199
501.44984 0.04151
500.16407 0.04095
498.87830 0.04037
497.59254 0.03979
496.30677 0.03922
495.02100 0.03867
493.73523 0.03820
492.44946 0.03787
491.16369 0.03771
489.87792 0.03763
488.59215 0.03750
487.30639 0.03728
486.02062 0.03699
484.73485 0.03671
483.44908 0.03647
482.16331 0.03627
480.87754 0.03609
479.59177 0.03596
478.30600 0.03593
477.02023 0.03603
475.73447 0.03621
474.44870 0.03639
473.16293 0.03651
471.87716 0.03659
470.59139 0.03667
469.30562 0.03674
468.01985 0.03672
466.73408 0.03653
465.44832 0.03615
464.16255 0.03561
462.87678 0.03501
461.59101 0.03444
460.30524 0.03392
459.01947 0.03346
457.73370 0.03304
456.44793 0.03264
455.16216 0.03222
453.87640 0.03181
452.59063 0.03146
451.30486 0.03118
450.01909 0.03091
448.73332 0.03059
447.44755 0.03022
446.16178 0.02985
444.87601 0.02949
443.59025 0.02919
442.30448 0.02894
441.01871 0.02876
439.73294 0.02860
438.44717 0.02843
437.16140 0.02825
435.87563 0.02812
434.58986 0.02804
433.30409 0.02796
432.01833 0.02782
430.73256 0.02757
429.44679 0.02726
428.16102 0.02697
426.87525 0.02674
425.58948 0.02656
424.30371 0.02641
423.01794 0.02629
421.73218 0.02619
420.44641 0.02611
419.16064 0.02603
417.87487 0.02594
416.58910 0.02579
415.30333 0.02555
414.01756 0.02528
412.73179 0.02503
411.44602 0.02482
410.16026 0.02465
408.87449 0.02452
407.58872 0.02442
406.30295 0.02435
405.01718 0.02431
403.73141 0.02432
402.44564 0.02437
401.15987 0.02445
399.87411 0.02453
