3997.45528	0.07984
3996.16951	0.07983
3994.88374	0.07952
3993.59798	0.07917
3992.31221	0.07904
3991.02644	0.07882
3989.74067	0.07805
3988.45490	0.07688
3987.16913	0.07595
3985.88336	0.07566
3984.59759	0.07569
3983.31183	0.07549
3982.02606	0.07508
3980.74029	0.07492
3979.45452	0.07535
3978.16875	0.07612
3976.88298	0.07659
3975.59721	0.07629
3974.31144	0.07531
3973.02567	0.07425
3971.73991	0.07379
3970.45414	0.07415
3969.16837	0.07495
3967.88260	0.07556
3966.59683	0.07570
3965.31106	0.07564
3964.02529	0.07592
3962.73952	0.07673
3961.45376	0.07765
3960.16799	0.07800
3958.88222	0.07750
3957.59645	0.07648
3956.31068	0.07551
3955.02491	0.07495
3953.73914	0.07475
3952.45337	0.07471
3951.16760	0.07473
3949.88184	0.07490
3948.59607	0.07527
3947.31030	0.07576
3946.02453	0.07622
3944.73876	0.07652
3943.45299	0.07657
3942.16722	0.07631
3940.88145	0.07583
3939.59569	0.07525
3938.30992	0.07465
3937.02415	0.07423
3935.73838	0.07436
3934.45261	0.07511
3933.16684	0.07600
3931.88107	0.07635
3930.59530	0.07593
3929.30953	0.07519
3928.02377	0.07472
3926.73800	0.07480
3925.45223	0.07518
3924.16646	0.07544
3922.88069	0.07543
3921.59492	0.07530
3920.30915	0.07518
3919.02338	0.07509
3917.73762	0.07513
3916.45185	0.07546
3915.16608	0.07618
3913.88031	0.07698
3912.59454	0.07729
3911.30877	0.07677
3910.02300	0.07570
3908.73723	0.07466
3907.45146	0.07401
3906.16570	0.07368
3904.87993	0.07337
3903.59416	0.07304
3902.30839	0.07293
3901.02262	0.07322
3899.73685	0.07372
3898.45108	0.07412
3897.16531	0.07435
3895.87955	0.07454
3894.59378	0.07466
3893.30801	0.07438
3892.02224	0.07345
3890.73647	0.07214
3889.45070	0.07129
3888.16493	0.07156
3886.87916	0.07270
3885.59339	0.07374
3884.30763	0.07404
3883.02186	0.07375
3881.73609	0.07323
3880.45032	0.07258
3879.16455	0.07176
3877.87878	0.07081
3876.59301	0.06983
3875.30724	0.06886
3874.02148	0.06803
3872.73571	0.06762
3871.44994	0.06783
3870.16417	0.06851
3868.87840	0.06934
3867.59263	0.07025
3866.30686	0.07110
3865.02109	0.07158
3863.73532	0.07149
3862.44956	0.07104
3861.16379	0.07052
3859.87802	0.07009
3858.59225	0.06970
3857.30648	0.06923
3856.02071	0.06878
3854.73494	0.06859
3853.44917	0.06873
3852.16341	0.06904
3850.87764	0.06930
3849.59187	0.06931
3848.30610	0.06907
3847.02033	0.06888
3845.73456	0.06900
3844.44879	0.06941
3843.16302	0.06973
3841.87725	0.06965
3840.59149	0.06925
3839.30572	0.06894
3838.01995	0.06902
3836.73418	0.06949
3835.44841	0.07024
3834.16264	0.07107
3832.87687	0.07164
3831.59110	0.07170
3830.30534	0.07133
3829.01957	0.07077
3827.73380	0.07019
3826.44803	0.06961
3825.16226	0.06913
3823.87649	0.06904
3822.59072	0.06932
3821.30495	0.06951
3820.01918	0.06933
3818.73342	0.06920
3817.44765	0.06947
3816.16188	0.06975
3814.87611	0.06949
3813.59034	0.06891
3812.30457	0.06862
3811.01880	0.06889
3809.73303	0.06967
3808.44726	0.07073
3807.16150	0.07165
3805.87573	0.07208
3804.58996	0.07206
3803.30419	0.07168
3802.01842	0.07076
3800.73265	0.06927
3799.44688	0.06788
3798.16111	0.06724
3796.87535	0.06708
3795.58958	0.06662
3794.30381	0.06566
3793.01804	0.06474
3791.73227	0.06441
3790.44650	0.06469
3789.16073	0.06516
3787.87496	0.06549
3786.58919	0.06578
3785.30343	0.06633
3784.01766	0.06713
3782.73189	0.06778
3781.44612	0.06784
3780.16035	0.06717
3778.87458	0.06603
3777.58881	0.06504
3776.30304	0.06478
3775.01728	0.06551
3773.73151	0.06691
3772.44574	0.06834
3771.15997	0.06906
3769.87420	0.06871
3768.58843	0.06764
3767.30266	0.06667
3766.01689	0.06633
3764.73112	0.06653
3763.44536	0.06696
3762.15959	0.06754
3760.87382	0.06812
3759.58805	0.06831
3758.30228	0.06781
3757.01651	0.06677
3755.73074	0.06582
3754.44497	0.06549
3753.15921	0.06554
3751.87344	0.06524
3750.58767	0.06435
3749.30190	0.06331
3748.01613	0.06277
3746.73036	0.06314
3745.44459	0.06403
3744.15882	0.06454
3742.87305	0.06461
3741.58729	0.06506
3740.30152	0.06628
3739.01575	0.06779
3737.72998	0.06881
3736.44421	0.06889
3735.15844	0.06813
3733.87267	0.06722
3732.58690	0.06671
3731.30114	0.06661
3730.01537	0.06670
3728.72960	0.06671
3727.44383	0.06619
3726.15806	0.06481
3724.87229	0.06287
3723.58652	0.06117
3722.30075	0.06035
3721.01498	0.06057
3719.72922	0.06161
3718.44345	0.06296
3717.15768	0.06411
3715.87191	0.06472
3714.58614	0.06476
3713.30037	0.06440
3712.01460	0.06393
3710.72883	0.06372
3709.44307	0.06398
3708.15730	0.06439
3706.87153	0.06446
3705.58576	0.06399
3704.29999	0.06318
3703.01422	0.06225
3701.72845	0.06127
3700.44268	0.06036
3699.15691	0.05985
3697.87115	0.05988
3696.58538	0.06024
3695.29961	0.06084
3694.01384	0.06178
3692.72807	0.06290
3691.44230	0.06391
3690.15653	0.06452
3688.87076	0.06442
3687.58500	0.06357
3686.29923	0.06250
3685.01346	0.06183
3683.72769	0.06181
3682.44192	0.06232
3681.15615	0.06296
3679.87038	0.06341
3678.58461	0.06367
3677.29884	0.06390
3676.01308	0.06408
3674.72731	0.06412
3673.44154	0.06417
3672.15577	0.06443
3670.87000	0.06464
3669.58423	0.06451
3668.29846	0.06439
3667.01269	0.06456
3665.72693	0.06476
3664.44116	0.06448
3663.15539	0.06372
3661.86962	0.06311
3660.58385	0.06322
3659.29808	0.06408
3658.01231	0.06520
3656.72654	0.06598
3655.44077	0.06621
3654.15501	0.06605
3652.86924	0.06570
3651.58347	0.06527
3650.29770	0.06495
3649.01193	0.06505
3647.72616	0.06559
3646.44039	0.06623
3645.15462	0.06664
3643.86886	0.06681
3642.58309	0.06688
3641.29732	0.06697
3640.01155	0.06709
3638.72578	0.06710
3637.44001	0.06670
3636.15424	0.06575
3634.86847	0.06453
3633.58270	0.06370
3632.29694	0.06394
3631.01117	0.06535
3629.72540	0.06713
3628.43963	0.06820
3627.15386	0.06827
3625.86809	0.06809
3624.58232	0.06842
3623.29655	0.06932
3622.01079	0.07027
3620.72502	0.07065
3619.43925	0.07024
3618.15348	0.06932
3616.86771	0.06846
3615.58194	0.06819
3614.29617	0.06872
3613.01040	0.06983
3611.72463	0.07094
3610.43887	0.07156
3609.15310	0.07170
3607.86733	0.07175
3606.58156	0.07194
3605.29579	0.07205
3604.01002	0.07186
3602.72425	0.07157
3601.43848	0.07160
3600.15272	0.07207
3598.86695	0.07278
3597.58118	0.07337
3596.29541	0.07358
3595.00964	0.07348
3593.72387	0.07347
3592.43810	0.07386
3591.15233	0.07459
3589.86656	0.07523
3588.58080	0.07532
3587.29503	0.07481
3586.00926	0.07431
3584.72349	0.07463
3583.43772	0.07593
3582.15195	0.07769
3580.86618	0.07915
3579.58041	0.07984
3578.29464	0.07986
3577.00888	0.07966
3575.72311	0.07960
3574.43734	0.07983
3573.15157	0.08037
3571.86580	0.08114
3570.58003	0.08191
3569.29426	0.08226
3568.00849	0.08195
3566.72273	0.08109
3565.43696	0.08016
3564.15119	0.07963
3562.86542	0.07981
3561.57965	0.08068
3560.29388	0.08195
3559.00811	0.08319
3557.72234	0.08400
3556.43657	0.08417
3555.15081	0.08368
3553.86504	0.08273
3552.57927	0.08171
3551.29350	0.08094
3550.00773	0.08057
3548.72196	0.08069
3547.43619	0.08143
3546.15042	0.08281
3544.86466	0.08447
3543.57889	0.08575
3542.29312	0.08626
3541.00735	0.08621
3539.72158	0.08614
3538.43581	0.08635
3537.15004	0.08667
3535.86427	0.08686
3534.57850	0.08688
3533.29274	0.08687
3532.00697	0.08697
3530.72120	0.08721
3529.43543	0.08757
3528.14966	0.08794
3526.86389	0.08819
3525.57812	0.08828
3524.29235	0.08829
3523.00659	0.08834
3521.72082	0.08853
3520.43505	0.08885
3519.14928	0.08919
3517.86351	0.08955
3516.57774	0.08995
3515.29197	0.09038
3514.00620	0.09056
3512.72043	0.09012
3511.43467	0.08904
3510.14890	0.08776
3508.86313	0.08687
3507.57736	0.08660
3506.29159	0.08679
3505.00582	0.08720
3503.72005	0.08782
3502.43428	0.08882
3501.14852	0.09017
3499.86275	0.09137
3498.57698	0.09183
3497.29121	0.09145
3496.00544	0.09078
3494.71967	0.09041
3493.43390	0.09045
3492.14813	0.09061
3490.86236	0.09067
3489.57660	0.09067
3488.29083	0.09073
3487.00506	0.09090
3485.71929	0.09115
3484.43352	0.09155
3483.14775	0.09219
3481.86198	0.09298
3480.57621	0.09368
3479.29045	0.09411
3478.00468	0.09433
3476.71891	0.09456
3475.43314	0.09485
3474.14737	0.09502
3472.86160	0.09492
3471.57583	0.09468
3470.29006	0.09460
3469.00429	0.09486
3467.71853	0.09533
3466.43276	0.09578
3465.14699	0.09609
3463.86122	0.09636
3462.57545	0.09675
3461.28968	0.09724
3460.00391	0.09756
3458.71814	0.09741
3457.43238	0.09674
3456.14661	0.09600
3454.86084	0.09575
3453.57507	0.09614
3452.28930	0.09677
3451.00353	0.09708
3449.71776	0.09681
3448.43199	0.09613
3447.14622	0.09542
3445.86046	0.09509
3444.57469	0.09536
3443.28892	0.09616
3442.00315	0.09714
3440.71738	0.09787
3439.43161	0.09816
3438.14584	0.09814
3436.86007	0.09815
3435.57431	0.09844
3434.28854	0.09892
3433.00277	0.09926
3431.71700	0.09921
3430.43123	0.09882
3429.14546	0.09841
3427.85969	0.09825
3426.57392	0.09834
3425.28815	0.09857
3424.00239	0.09882
3422.71662	0.09899
3421.43085	0.09900
3420.14508	0.09890
3418.85931	0.09893
3417.57354	0.09936
3416.28777	0.10011
3415.00200	0.10076
3413.71624	0.10084
3412.43047	0.10015
3411.14470	0.09896
3409.85893	0.09784
3408.57316	0.09731
3407.28739	0.09754
3406.00162	0.09839
3404.71585	0.09948
3403.43008	0.10048
3402.14432	0.10118
3400.85855	0.10156
3399.57278	0.10164
3398.28701	0.10149
3397.00124	0.10118
3395.71547	0.10082
3394.42970	0.10061
3393.14393	0.10069
3391.85817	0.10099
3390.57240	0.10118
3389.28663	0.10105
3388.00086	0.10071
3386.71509	0.10051
3385.42932	0.10067
3384.14355	0.10113
3382.85778	0.10156
3381.57201	0.10164
3380.28625	0.10129
3379.00048	0.10078
3377.71471	0.10050
3376.42894	0.10062
3375.14317	0.10083
3373.85740	0.10062
3372.57163	0.09986
3371.28586	0.09896
3370.00010	0.09855
3368.71433	0.09899
3367.42856	0.10010
3366.14279	0.10136
3364.85702	0.10225
3363.57125	0.10263
3362.28548	0.10267
3360.99971	0.10268
3359.71394	0.10279
3358.42818	0.10298
3357.14241	0.10309
3355.85664	0.10303
3354.57087	0.10286
3353.28510	0.10276
3351.99933	0.10285
3350.71356	0.10302
3349.42779	0.10299
3348.14202	0.10256
3346.85626	0.10177
3345.57049	0.10093
3344.28472	0.10042
3342.99895	0.10053
3341.71318	0.10126
3340.42741	0.10226
3339.14164	0.10315
3337.85587	0.10370
3336.57011	0.10389
3335.28434	0.10373
3333.99857	0.10313
3332.71280	0.10218
3331.42703	0.10125
3330.14126	0.10077
3328.85549	0.10090
3327.56972	0.10136
3326.28395	0.10174
3324.99819	0.10183
3323.71242	0.10167
3322.42665	0.10150
3321.14088	0.10153
3319.85511	0.10173
3318.56934	0.10181
3317.28357	0.10155
3315.99780	0.10108
3314.71204	0.10073
3313.42627	0.10075
3312.14050	0.10110
3310.85473	0.10150
3309.56896	0.10169
3308.28319	0.10154
3306.99742	0.10117
3305.71165	0.10079
3304.42588	0.10048
3303.14012	0.10025
3301.85435	0.10007
3300.56858	0.09995
3299.28281	0.09988
3297.99704	0.09978
3296.71127	0.09960
3295.42550	0.09934
3294.13973	0.09904
3292.85397	0.09876
3291.56820	0.09851
3290.28243	0.09842
3288.99666	0.09869
3287.71089	0.09938
3286.42512	0.10022
3285.13935	0.10076
3283.85358	0.10073
3282.56781	0.10026
3281.28205	0.09967
3279.99628	0.09919
3278.71051	0.09877
3277.42474	0.09834
3276.13897	0.09792
3274.85320	0.09774
3273.56743	0.09795
3272.28166	0.09850
3270.99590	0.09905
3269.71013	0.09930
3268.42436	0.09909
3267.13859	0.09855
3265.85282	0.09797
3264.56705	0.09762
3263.28128	0.09758
3261.99551	0.09770
3260.70974	0.09779
3259.42398	0.09778
3258.13821	0.09772
3256.85244	0.09767
3255.56667	0.09762
3254.28090	0.09744
3252.99513	0.09702
3251.70936	0.09650
3250.42359	0.09619
3249.13783	0.09627
3247.85206	0.09654
3246.56629	0.09666
3245.28052	0.09647
3243.99475	0.09611
3242.70898	0.09582
3241.42321	0.09571
3240.13744	0.09568
3238.85167	0.09557
3237.56591	0.09527
3236.28014	0.09490
3234.99437	0.09476
3233.70860	0.09502
3232.42283	0.09559
3231.13706	0.09617
3229.85129	0.09653
3228.56552	0.09659
3227.27976	0.09644
3225.99399	0.09622
3224.70822	0.09606
3223.42245	0.09605
3222.13668	0.09619
3220.85091	0.09634
3219.56514	0.09626
3218.27937	0.09582
3216.99360	0.09520
3215.70784	0.09468
3214.42207	0.09441
3213.13630	0.09431
3211.85053	0.09422
3210.56476	0.09414
3209.27899	0.09405
3207.99322	0.09393
3206.70745	0.09376
3205.42169	0.09368
3204.13592	0.09384
3202.85015	0.09420
3201.56438	0.09447
3200.27861	0.09441
3198.99284	0.09401
3197.70707	0.09350
3196.42130	0.09316
3195.13553	0.09306
3193.84977	0.09296
3192.56400	0.09254
3191.27823	0.09168
3189.99246	0.09062
3188.70669	0.08974
3187.42092	0.08928
3186.13515	0.08925
3184.84938	0.08948
3183.56362	0.08981
3182.27785	0.09015
3180.99208	0.09052
3179.70631	0.09085
3178.42054	0.09104
3177.13477	0.09101
3175.84900	0.09082
3174.56323	0.09054
3173.27746	0.09019
3171.99170	0.08976
3170.70593	0.08934
3169.42016	0.08914
3168.13439	0.08931
3166.84862	0.08970
3165.56285	0.08990
3164.27708	0.08958
3162.99131	0.08874
3161.70555	0.08783
3160.41978	0.08739
3159.13401	0.08763
3157.84824	0.08829
3156.56247	0.08885
3155.27670	0.08896
3153.99093	0.08866
3152.70516	0.08818
3151.41939	0.08775
3150.13363	0.08756
3148.84786	0.08767
3147.56209	0.08791
3146.27632	0.08799
3144.99055	0.08769
3143.70478	0.08709
3142.41901	0.08646
3141.13324	0.08603
3139.84748	0.08583
3138.56171	0.08576
3137.27594	0.08571
3135.99017	0.08569
3134.70440	0.08576
3133.41863	0.08590
3132.13286	0.08598
3130.84709	0.08582
3129.56132	0.08540
3128.27556	0.08480
3126.98979	0.08421
3125.70402	0.08386
3124.41825	0.08393
3123.13248	0.08434
3121.84671	0.08475
3120.56094	0.08479
3119.27517	0.08445
3117.98940	0.08404
3116.70364	0.08384
3115.41787	0.08385
3114.13210	0.08394
3112.84633	0.08405
3111.56056	0.08417
3110.27479	0.08426
3108.98902	0.08424
3107.70325	0.08405
3106.41749	0.08370
3105.13172	0.08324
3103.84595	0.08282
3102.56018	0.08255
3101.27441	0.08243
3099.98864	0.08230
3098.70287	0.08209
3097.41710	0.08187
3096.13133	0.08178
3094.84557	0.08185
3093.55980	0.08195
3092.27403	0.08201
3090.98826	0.08204
3089.70249	0.08208
3088.41672	0.08203
3087.13095	0.08183
3085.84518	0.08156
3084.55942	0.08138
3083.27365	0.08135
3081.98788	0.08136
3080.70211	0.08126
3079.41634	0.08103
3078.13057	0.08082
3076.84480	0.08071
3075.55903	0.08068
3074.27326	0.08062
3072.98750	0.08053
3071.70173	0.08048
3070.41596	0.08050
3069.13019	0.08053
3067.84442	0.08046
3066.55865	0.08024
3065.27288	0.07989
3063.98711	0.07951
3062.70135	0.07929
3061.41558	0.07930
3060.12981	0.07949
3058.84404	0.07975
3057.55827	0.07996
3056.27250	0.08002
3054.98673	0.07986
3053.70096	0.07947
3052.41519	0.07895
3051.12943	0.07842
3049.84366	0.07794
3048.55789	0.07762
3047.27212	0.07756
3045.98635	0.07780
3044.70058	0.07816
3043.41481	0.07836
3042.12904	0.07823
3040.84328	0.07785
3039.55751	0.07743
3038.27174	0.07709
3036.98597	0.07688
3035.70020	0.07680
3034.41443	0.07684
3033.12866	0.07687
3031.84289	0.07680
3030.55712	0.07662
3029.27136	0.07641
3027.98559	0.07616
3026.69982	0.07590
3025.41405	0.07573
3024.12828	0.07574
3022.84251	0.07590
3021.55674	0.07603
3020.27097	0.07595
3018.98521	0.07561
3017.69944	0.07517
3016.41367	0.07488
3015.12790	0.07481
3013.84213	0.07483
3012.55636	0.07476
3011.27059	0.07460
3009.98482	0.07446
3008.69905	0.07444
3007.41329	0.07454
3006.12752	0.07473
3004.84175	0.07493
3003.55598	0.07506
3002.27021	0.07506
3000.98444	0.07488
2999.69867	0.07446
2998.41290	0.07391
2997.12714	0.07338
2995.84137	0.07304
2994.55560	0.07296
2993.26983	0.07311
2991.98406	0.07340
2990.69829	0.07366
2989.41252	0.07378
2988.12675	0.07377
2986.84098	0.07377
2985.55522	0.07387
2984.26945	0.07408
2982.98368	0.07439
2981.69791	0.07479
2980.41214	0.07532
2979.12637	0.07599
2977.84060	0.07675
2976.55483	0.07752
2975.26907	0.07821
2973.98330	0.07877
2972.69753	0.07930
2971.41176	0.08007
2970.12599	0.08134
2968.84022	0.08303
2967.55445	0.08477
2966.26868	0.08620
2964.98291	0.08726
2963.69715	0.08812
2962.41138	0.08898
2961.12561	0.08980
2959.83984	0.09045
2958.55407	0.09084
2957.26830	0.09116
2955.98253	0.09164
2954.69676	0.09235
2953.41100	0.09308
2952.12523	0.09353
2950.83946	0.09364
2949.55369	0.09351
2948.26792	0.09333
2946.98215	0.09319
2945.69638	0.09311
2944.41061	0.09309
2943.12484	0.09321
2941.83908	0.09355
2940.55331	0.09412
2939.26754	0.09479
2937.98177	0.09544
2936.69600	0.09602
2935.41023	0.09663
2934.12446	0.09729
2932.83869	0.09794
2931.55293	0.09849
2930.26716	0.09900
2928.98139	0.09965
2927.69562	0.10047
2926.40985	0.10124
2925.12408	0.10169
2923.83831	0.10170
2922.55254	0.10139
2921.26677	0.10097
2919.98101	0.10056
2918.69524	0.10011
2917.40947	0.09944
2916.12370	0.09852
2914.83793	0.09754
2913.55216	0.09679
2912.26639	0.09630
2910.98062	0.09582
2909.69486	0.09509
2908.40909	0.09401
2907.12332	0.09275
2905.83755	0.09160
2904.55178	0.09079
2903.26601	0.09026
2901.98024	0.08977
2900.69447	0.08910
2899.40870	0.08827
2898.12294	0.08741
2896.83717	0.08651
2895.55140	0.08553
2894.26563	0.08452
2892.97986	0.08366
2891.69409	0.08303
2890.40832	0.08260
2889.12255	0.08230
2887.83678	0.08209
2886.55102	0.08189
2885.26525	0.08160
2883.97948	0.08119
2882.69371	0.08079
2881.40794	0.08060
2880.12217	0.08070
2878.83640	0.08100
2877.55063	0.08137
2876.26487	0.08178
2874.97910	0.08224
2873.69333	0.08268
2872.40756	0.08299
2871.12179	0.08310
2869.83602	0.08310
2868.55025	0.08312
2867.26448	0.08317
2865.97871	0.08309
2864.69295	0.08283
2863.40718	0.08253
2862.12141	0.08248
2860.83564	0.08280
2859.54987	0.08334
2858.26410	0.08380
2856.97833	0.08400
2855.69256	0.08391
2854.40680	0.08352
2853.12103	0.08283
2851.83526	0.08185
2850.54949	0.08074
2849.26372	0.07970
2847.97795	0.07886
2846.69218	0.07813
2845.40641	0.07734
2844.12064	0.07645
2842.83488	0.07557
2841.54911	0.07483
2840.26334	0.07407
2838.97757	0.07305
2837.69180	0.07173
2836.40603	0.07044
2835.12026	0.06954
2833.83449	0.06906
2832.54873	0.06876
2831.26296	0.06836
2829.97719	0.06775
2828.69142	0.06702
2827.40565	0.06637
2826.11988	0.06594
2824.83411	0.06574
2823.54834	0.06563
2822.26257	0.06554
2820.97681	0.06546
2819.69104	0.06543
2818.40527	0.06537
2817.11950	0.06510
2815.83373	0.06451
2814.54796	0.06371
2813.26219	0.06297
2811.97642	0.06249
2810.69066	0.06232
2809.40489	0.06241
2808.11912	0.06269
2806.83335	0.06298
2805.54758	0.06308
2804.26181	0.06292
2802.97604	0.06266
2801.69027	0.06250
2800.40450	0.06252
2799.11874	0.06263
2797.83297	0.06267
2796.54720	0.06257
2795.26143	0.06234
2793.97566	0.06203
2792.68989	0.06166
2791.40412	0.06125
2790.11835	0.06081
2788.83259	0.06036
2787.54682	0.05995
2786.26105	0.05962
2784.97528	0.05939
2783.68951	0.05926
2782.40374	0.05921
2781.11797	0.05923
2779.83220	0.05925
2778.54643	0.05925
2777.26067	0.05921
2775.97490	0.05916
2774.68913	0.05906
2773.40336	0.05897
2772.11759	0.05899
2770.83182	0.05914
2769.54605	0.05933
2768.26028	0.05937
2766.97452	0.05914
2765.68875	0.05866
2764.40298	0.05815
2763.11721	0.05783
2761.83144	0.05779
2760.54567	0.05787
2759.25990	0.05787
2757.97413	0.05771
2756.68836	0.05750
2755.40260	0.05741
2754.11683	0.05746
2752.83106	0.05753
2751.54529	0.05753
2750.25952	0.05746
2748.97375	0.05739
2747.68798	0.05723
2746.40221	0.05693
2745.11645	0.05658
2743.83068	0.05641
2742.54491	0.05653
2741.25914	0.05680
2739.97337	0.05697
2738.68760	0.05698
2737.40183	0.05689
2736.11606	0.05676
2734.83029	0.05659
2733.54453	0.05641
2732.25876	0.05629
2730.97299	0.05631
2729.68722	0.05646
2728.40145	0.05659
2727.11568	0.05657
2725.82991	0.05633
2724.54414	0.05597
2723.25838	0.05564
2721.97261	0.05542
2720.68684	0.05528
2719.40107	0.05508
2718.11530	0.05483
2716.82953	0.05465
2715.54376	0.05465
2714.25799	0.05475
2712.97222	0.05481
2711.68646	0.05476
2710.40069	0.05468
2709.11492	0.05471
2707.82915	0.05488
2706.54338	0.05507
2705.25761	0.05517
2703.97184	0.05516
2702.68607	0.05508
2701.40031	0.05491
2700.11454	0.05459
2698.82877	0.05418
2697.54300	0.05381
2696.25723	0.05358
2694.97146	0.05345
2693.68569	0.05329
2692.39992	0.05306
2691.11415	0.05285
2689.82839	0.05274
2688.54262	0.05273
2687.25685	0.05269
2685.97108	0.05255
2684.68531	0.05238
2683.39954	0.05234
2682.11377	0.05241
2680.82800	0.05246
2679.54224	0.05238
2678.25647	0.05219
2676.97070	0.05205
2675.68493	0.05211
2674.39916	0.05235
2673.11339	0.05263
2671.82762	0.05280
2670.54185	0.05286
2669.25608	0.05289
2667.97032	0.05291
2666.68455	0.05281
2665.39878	0.05257
2664.11301	0.05229
2662.82724	0.05212
2661.54147	0.05212
2660.25570	0.05227
2658.96993	0.05249
2657.68417	0.05265
2656.39840	0.05264
2655.11263	0.05252
2653.82686	0.05239
2652.54109	0.05232
2651.25532	0.05224
2649.96955	0.05211
2648.68378	0.05195
2647.39801	0.05174
2646.11225	0.05144
2644.82648	0.05097
2643.54071	0.05042
2642.25494	0.05002
2640.96917	0.04992
2639.68340	0.05003
2638.39763	0.05011
2637.11186	0.05002
2635.82609	0.04980
2634.54033	0.04952
2633.25456	0.04922
2631.96879	0.04889
2630.68302	0.04866
2629.39725	0.04860
2628.11148	0.04866
2626.82571	0.04868
2625.53994	0.04852
2624.25418	0.04817
2622.96841	0.04773
2621.68264	0.04739
2620.39687	0.04718
2619.11110	0.04700
2617.82533	0.04671
2616.53956	0.04636
2615.25379	0.04611
2613.96802	0.04605
2612.68226	0.04609
2611.39649	0.04599
2610.11072	0.04559
2608.82495	0.04494
2607.53918	0.04427
2606.25341	0.04387
2604.96764	0.04381
2603.68187	0.04398
2602.39611	0.04419
2601.11034	0.04437
2599.82457	0.04453
2598.53880	0.04467
2597.25303	0.04473
2595.96726	0.04461
2594.68149	0.04431
2593.39572	0.04403
2592.10995	0.04396
2590.82419	0.04414
2589.53842	0.04439
2588.25265	0.04449
2586.96688	0.04437
2585.68111	0.04418
2584.39534	0.04406
2583.10957	0.04398
2581.82380	0.04379
2580.53804	0.04341
2579.25227	0.04294
2577.96650	0.04257
2576.68073	0.04237
2575.39496	0.04230
2574.10919	0.04224
2572.82342	0.04210
2571.53765	0.04185
2570.25188	0.04158
2568.96612	0.04145
2567.68035	0.04151
2566.39458	0.04173
2565.10881	0.04199
2563.82304	0.04224
2562.53727	0.04239
2561.25150	0.04240
2559.96573	0.04233
2558.67997	0.04223
2557.39420	0.04203
2556.10843	0.04163
2554.82266	0.04113
2553.53689	0.04083
2552.25112	0.04096
2550.96535	0.04139
2549.67958	0.04171
2548.39381	0.04164
2547.10805	0.04120
2545.82228	0.04073
2544.53651	0.04054
2543.25074	0.04061
2541.96497	0.04067
2540.67920	0.04051
2539.39343	0.04021
2538.10766	0.03996
2536.82190	0.03987
2535.53613	0.03988
2534.25036	0.03986
2532.96459	0.03979
2531.67882	0.03974
2530.39305	0.03983
2529.10728	0.04001
2527.82151	0.04009
2526.53574	0.03998
2525.24998	0.03975
2523.96421	0.03947
2522.67844	0.03904
2521.39267	0.03841
2520.10690	0.03780
2518.82113	0.03757
2517.53536	0.03777
2516.24959	0.03816
2514.96383	0.03852
2513.67806	0.03883
2512.39229	0.03915
2511.10652	0.03938
2509.82075	0.03944
2508.53498	0.03938
2507.24921	0.03929
2505.96344	0.03918
2504.67767	0.03904
2503.39191	0.03892
2502.10614	0.03878
2500.82037	0.03847
2499.53460	0.03796
2498.24883	0.03750
2496.96306	0.03737
2495.67729	0.03756
2494.39152	0.03779
2493.10576	0.03782
2491.81999	0.03763
2490.53422	0.03733
2489.24845	0.03705
2487.96268	0.03692
2486.67691	0.03707
2485.39114	0.03745
2484.10537	0.03788
2482.81960	0.03827
2481.53384	0.03871
2480.24807	0.03920
2478.96230	0.03950
2477.67653	0.03938
2476.39076	0.03897
2475.10499	0.03868
2473.81922	0.03876
2472.53345	0.03902
2471.24769	0.03918
2469.96192	0.03911
2468.67615	0.03888
2467.39038	0.03860
2466.10461	0.03830
2464.81884	0.03795
2463.53307	0.03754
2462.24730	0.03719
2460.96153	0.03708
2459.67577	0.03723
2458.39000	0.03752
2457.10423	0.03776
2455.81846	0.03789
2454.53269	0.03787
2453.24692	0.03774
2451.96115	0.03753
2450.67538	0.03722
2449.38962	0.03678
2448.10385	0.03632
2446.81808	0.03613
2445.53231	0.03634
2444.24654	0.03675
2442.96077	0.03701
2441.67500	0.03700
2440.38923	0.03687
2439.10346	0.03671
2437.81770	0.03642
2436.53193	0.03597
2435.24616	0.03559
2433.96039	0.03550
2432.67462	0.03561
2431.38885	0.03557
2430.10308	0.03519
2428.81731	0.03465
2427.53155	0.03430
2426.24578	0.03435
2424.96001	0.03470
2423.67424	0.03515
2422.38847	0.03560
2421.10270	0.03601
2419.81693	0.03632
2418.53116	0.03640
2417.24539	0.03623
2415.95963	0.03600
2414.67386	0.03586
2413.38809	0.03578
2412.10232	0.03562
2410.81655	0.03535
2409.53078	0.03505
2408.24501	0.03488
2406.95924	0.03487
2405.67347	0.03493
2404.38771	0.03492
2403.10194	0.03484
2401.81617	0.03480
2400.53040	0.03484
2399.24463	0.03486
2397.95886	0.03471
2396.67309	0.03455
2395.38732	0.03458
2394.10156	0.03480
2392.81579	0.03508
2391.53002	0.03523
2390.24425	0.03521
2388.95848	0.03511
2387.67271	0.03507
2386.38694	0.03522
2385.10117	0.03550
2383.81540	0.03578
2382.52964	0.03594
2381.24387	0.03597
2379.95810	0.03595
2378.67233	0.03594
2377.38656	0.03588
2376.10079	0.03572
2374.81502	0.03560
2373.52925	0.03557
2372.24349	0.03567
2370.95772	0.03567
2369.67195	0.03562
2368.38618	0.03542
2367.10041	0.03508
2365.81464	0.03462
2364.52887	0.03456
2363.24310	0.03489
2361.95733	0.03523
2360.67157	0.03512
2359.38580	0.03490
2358.10003	0.03469
2356.81426	0.03451
2355.52849	0.03434
2354.24272	0.03410
2352.95695	0.03396
2351.67118	0.03383
2350.38542	0.03384
2349.09965	0.03437
2347.81388	0.03543
2346.52811	0.03606
2345.24234	0.03612
2343.95657	0.03623
2342.67080	0.03669
2341.38503	0.03656
2340.09926	0.03576
2338.81350	0.03569
2337.52773	0.03643
2336.24196	0.03617
2334.95619	0.03516
2333.67042	0.03528
2332.38465	0.03628
2331.09888	0.03578
2329.81311	0.03517
2328.52735	0.03634
2327.24158	0.03656
2325.95581	0.03628
2324.67004	0.03740
2323.38427	0.03762
2322.09850	0.03657
2320.81273	0.03665
2319.52696	0.03620
2318.24119	0.03541
2316.95543	0.03552
2315.66966	0.03518
2314.38389	0.03476
2313.09812	0.03495
2311.81235	0.03486
2310.52658	0.03505
2309.24081	0.03522
2307.95504	0.03498
2306.66928	0.03487
2305.38351	0.03463
2304.09774	0.03454
2302.81197	0.03462
2301.52620	0.03457
2300.24043	0.03449
2298.95466	0.03427
2297.66889	0.03404
2296.38312	0.03379
2295.09736	0.03348
2293.81159	0.03317
2292.52582	0.03291
2291.24005	0.03287
2289.95428	0.03299
2288.66851	0.03307
2287.38274	0.03286
2286.09697	0.03228
2284.81121	0.03162
2283.52544	0.03124
2282.23967	0.03135
2280.95390	0.03177
2279.66813	0.03218
2278.38236	0.03227
2277.09659	0.03196
2275.81082	0.03137
2274.52505	0.03077
2273.23929	0.03036
2271.95352	0.03009
2270.66775	0.02973
2269.38198	0.02919
2268.09621	0.02867
2266.81044	0.02838
2265.52467	0.02828
2264.23890	0.02814
2262.95314	0.02779
2261.66737	0.02733
2260.38160	0.02703
2259.09583	0.02702
2257.81006	0.02711
2256.52429	0.02705
2255.23852	0.02688
2253.95275	0.02676
2252.66698	0.02684
2251.38122	0.02701
2250.09545	0.02711
2248.80968	0.02712
2247.52391	0.02685
2246.23814	0.02640
2244.95237	0.02593
2243.66660	0.02557
2242.38083	0.02533
2241.09507	0.02513
2239.80930	0.02497
2238.52353	0.02494
2237.23776	0.02516
2235.95199	0.02551
2234.66622	0.02571
2233.38045	0.02547
2232.09468	0.02486
2230.80891	0.02421
2229.52315	0.02384
2228.23738	0.02382
2226.95161	0.02416
2225.66584	0.02476
2224.38007	0.02526
2223.09430	0.02516
2221.80853	0.02432
2220.52276	0.02306
2219.23700	0.02194
2217.95123	0.02139
2216.66546	0.02159
2215.37969	0.02233
2214.09392	0.02290
2212.80815	0.02265
2211.52238	0.02166
2210.23661	0.02067
2208.95084	0.02030
2207.66508	0.02044
2206.37931	0.02064
2205.09354	0.02065
2203.80777	0.02058
2202.52200	0.02064
2201.23623	0.02081
2199.95046	0.02100
2198.66469	0.02111
2197.37893	0.02097
2196.09316	0.02034
2194.80739	0.01926
2193.52162	0.01828
2192.23585	0.01822
2190.95008	0.01924
2189.66431	0.02061
2188.37854	0.02143
2187.09277	0.02139
2185.80701	0.02089
2184.52124	0.02032
2183.23547	0.01970
2181.94970	0.01895
2180.66393	0.01828
2179.37816	0.01797
2178.09239	0.01791
2176.80662	0.01754
2175.52085	0.01659
2174.23509	0.01550
2172.94932	0.01503
2171.66355	0.01538
2170.37778	0.01615
2169.09201	0.01679
2167.80624	0.01701
2166.52047	0.01669
2165.23470	0.01587
2163.94894	0.01478
2162.66317	0.01357
2161.37740	0.01216
2160.09163	0.01046
2158.80586	0.00881
2157.52009	0.00775
2156.23432	0.00744
2154.94855	0.00770
2153.66278	0.00848
2152.37702	0.00971
2151.09125	0.01097
2149.80548	0.01164
2148.51971	0.01164
2147.23394	0.01175
2145.94817	0.01273
2144.66240	0.01436
2143.37663	0.01549
2142.09087	0.01548
2140.80510	0.01496
2139.51933	0.01509
2138.23356	0.01616
2136.94779	0.01734
2135.66202	0.01779
2134.37625	0.01759
2133.09048	0.01736
2131.80471	0.01748
2130.51895	0.01783
2129.23318	0.01815
2127.94741	0.01837
2126.66164	0.01866
2125.37587	0.01925
2124.09010	0.02012
2122.80433	0.02079
2121.51856	0.02071
2120.23280	0.01990
2118.94703	0.01900
2117.66126	0.01863
2116.37549	0.01887
2115.08972	0.01928
2113.80395	0.01943
2112.51818	0.01932
2111.23241	0.01922
2109.94664	0.01942
2108.66088	0.01996
2107.37511	0.02065
2106.08934	0.02121
2104.80357	0.02133
2103.51780	0.02086
2102.23203	0.01994
2100.94626	0.01903
2099.66049	0.01851
2098.37473	0.01845
2097.08896	0.01870
2095.80319	0.01921
2094.51742	0.01990
2093.23165	0.02053
2091.94588	0.02081
2090.66011	0.02064
2089.37434	0.02025
2088.08857	0.01990
2086.80281	0.01963
2085.51704	0.01940
2084.23127	0.01924
2082.94550	0.01928
2081.65973	0.01946
2080.37396	0.01952
2079.08819	0.01926
2077.80242	0.01877
2076.51666	0.01833
2075.23089	0.01816
2073.94512	0.01819
2072.65935	0.01818
2071.37358	0.01795
2070.08781	0.01744
2068.80204	0.01669
2067.51627	0.01582
2066.23050	0.01506
2064.94474	0.01474
2063.65897	0.01496
2062.37320	0.01549
2061.08743	0.01587
2059.80166	0.01574
2058.51589	0.01501
2057.23012	0.01386
2055.94435	0.01267
2054.65859	0.01199
2053.37282	0.01235
2052.08705	0.01369
2050.80128	0.01524
2049.51551	0.01588
2048.22974	0.01509
2046.94397	0.01334
2045.65820	0.01162
2044.37243	0.01061
2043.08667	0.01032
2041.80090	0.01048
2040.51513	0.01086
2039.22936	0.01135
2037.94359	0.01189
2036.65782	0.01238
2035.37205	0.01281
2034.08628	0.01305
2032.80052	0.01283
2031.51475	0.01192
2030.22898	0.01054
2028.94321	0.00926
2027.65744	0.00853
2026.37167	0.00828
2025.08590	0.00813
2023.80013	0.00782
2022.51436	0.00744
2021.22860	0.00729
2019.94283	0.00750
2018.65706	0.00775
2017.37129	0.00761
2016.08552	0.00702
2014.79975	0.00655
2013.51398	0.00679
2012.22821	0.00762
2010.94245	0.00833
2009.65668	0.00841
2008.37091	0.00808
2007.08514	0.00787
2005.79937	0.00807
2004.51360	0.00851
2003.22783	0.00900
2001.94206	0.00949
2000.65629	0.01008
1999.37053	0.01093
1998.08476	0.01210
1996.79899	0.01344
1995.51322	0.01461
1994.22745	0.01531
1992.94168	0.01541
1991.65591	0.01508
1990.37014	0.01476
1989.08438	0.01484
1987.79861	0.01535
1986.51284	0.01597
1985.22707	0.01636
1983.94130	0.01638
1982.65553	0.01604
1981.36976	0.01539
1980.08399	0.01458
1978.79822	0.01386
1977.51246	0.01343
1976.22669	0.01323
1974.94092	0.01316
1973.65515	0.01324
1972.36938	0.01349
1971.08361	0.01376
1969.79784	0.01378
1968.51207	0.01345
1967.22631	0.01297
1965.94054	0.01261
1964.65477	0.01242
1963.36900	0.01225
1962.08323	0.01198
1960.79746	0.01172
1959.51169	0.01164
1958.22592	0.01190
1956.94015	0.01251
1955.65439	0.01333
1954.36862	0.01417
1953.08285	0.01494
1951.79708	0.01562
1950.51131	0.01614
1949.22554	0.01649
1947.93977	0.01680
1946.65400	0.01726
1945.36823	0.01787
1944.08247	0.01842
1942.79670	0.01869
1941.51093	0.01860
1940.22516	0.01824
1938.93939	0.01771
1937.65362	0.01719
1936.36785	0.01691
1935.08208	0.01704
1933.79632	0.01755
1932.51055	0.01821
1931.22478	0.01879
1929.93901	0.01913
1928.65324	0.01916
1927.36747	0.01884
1926.08170	0.01824
1924.79593	0.01759
1923.51016	0.01713
1922.22440	0.01697
1920.93863	0.01709
1919.65286	0.01735
1918.36709	0.01758
1917.08132	0.01769
1915.79555	0.01775
1914.50978	0.01784
1913.22401	0.01798
1911.93825	0.01810
1910.65248	0.01814
1909.36671	0.01803
1908.08094	0.01780
1906.79517	0.01761
1905.50940	0.01764
1904.22363	0.01792
1902.93786	0.01827
1901.65209	0.01848
1900.36633	0.01848
1899.08056	0.01838
1897.79479	0.01834
1896.50902	0.01848
1895.22325	0.01874
1893.93748	0.01892
1892.65171	0.01887
1891.36594	0.01861
1890.08018	0.01831
1888.79441	0.01822
1887.50864	0.01845
1886.22287	0.01891
1884.93710	0.01936
1883.65133	0.01959
1882.36556	0.01958
1881.07979	0.01946
1879.79402	0.01936
1878.50826	0.01931
1877.22249	0.01928
1875.93672	0.01925
1874.65095	0.01927
1873.36518	0.01940
1872.07941	0.01961
1870.79364	0.01977
1869.50787	0.01973
1868.22211	0.01949
1866.93634	0.01927
1865.65057	0.01922
1864.36480	0.01925
1863.07903	0.01916
1861.79326	0.01895
1860.50749	0.01879
1859.22172	0.01885
1857.93595	0.01913
1856.65019	0.01947
1855.36442	0.01970
1854.07865	0.01976
1852.79288	0.01966
1851.50711	0.01946
1850.22134	0.01921
1848.93557	0.01896
1847.64980	0.01878
1846.36404	0.01878
1845.07827	0.01890
1843.79250	0.01897
1842.50673	0.01897
1841.22096	0.01899
1839.93519	0.01909
1838.64942	0.01921
1837.36365	0.01923
1836.07788	0.01913
1834.79212	0.01892
1833.50635	0.01868
1832.22058	0.01853
1830.93481	0.01855
1829.64904	0.01871
1828.36327	0.01895
1827.07750	0.01920
1825.79173	0.01939
1824.50597	0.01949
1823.22020	0.01951
1821.93443	0.01952
1820.64866	0.01952
1819.36289	0.01950
1818.07712	0.01944
1816.79135	0.01940
1815.50558	0.01943
1814.21981	0.01955
1812.93405	0.01973
1811.64828	0.01989
1810.36251	0.01995
1809.07674	0.01992
1807.79097	0.01990
1806.50520	0.01994
1805.21943	0.02003
1803.93366	0.02010
1802.64790	0.02006
1801.36213	0.01993
1800.07636	0.01980
1798.79059	0.01978
1797.50482	0.01988
1796.21905	0.01999
1794.93328	0.02003
1793.64751	0.01997
1792.36174	0.01988
1791.07598	0.01983
1789.79021	0.01992
1788.50444	0.02014
1787.21867	0.02035
1785.93290	0.02044
1784.64713	0.02041
1783.36136	0.02036
1782.07559	0.02040
1780.78983	0.02053
1779.50406	0.02067
1778.21829	0.02077
1776.93252	0.02081
1775.64675	0.02085
1774.36098	0.02095
1773.07521	0.02108
1771.78944	0.02117
1770.50367	0.02122
1769.21791	0.02131
1767.93214	0.02140
1766.64637	0.02141
1765.36060	0.02138
1764.07483	0.02139
1762.78906	0.02142
1761.50329	0.02142
1760.21752	0.02143
1758.93176	0.02153
1757.64599	0.02174
1756.36022	0.02196
1755.07445	0.02212
1753.78868	0.02223
1752.50291	0.02228
1751.21714	0.02225
1749.93137	0.02217
1748.64560	0.02217
1747.35984	0.02226
1746.07407	0.02235
1744.78830	0.02237
1743.50253	0.02237
1742.21676	0.02244
1740.93099	0.02257
1739.64522	0.02266
1738.35945	0.02264
1737.07369	0.02269
1735.78792	0.02292
1734.50215	0.02319
1733.21638	0.02326
1731.93061	0.02317
1730.64484	0.02312
1729.35907	0.02318
1728.07330	0.02330
1726.78753	0.02346
1725.50177	0.02371
1724.21600	0.02402
1722.93023	0.02432
1721.64446	0.02458
1720.35869	0.02486
1719.07292	0.02519
1717.78715	0.02550
1716.50138	0.02573
1715.21561	0.02598
1713.92985	0.02634
1712.64408	0.02680
1711.35831	0.02726
1710.07254	0.02769
1708.78677	0.02812
1707.50100	0.02859
1706.21523	0.02910
1704.92946	0.02954
1703.64370	0.02991
1702.35793	0.03036
1701.07216	0.03085
1699.78639	0.03123
1698.50062	0.03158
1697.21485	0.03213
1695.92908	0.03277
1694.64331	0.03322
1693.35754	0.03354
1692.07178	0.03396
1690.78601	0.03449
1689.50024	0.03501
1688.21447	0.03552
1686.92870	0.03616
1685.64293	0.03686
1684.35716	0.03738
1683.07139	0.03766
1681.78563	0.03795
1680.49986	0.03843
1679.21409	0.03902
1677.92832	0.03961
1676.64255	0.04021
1675.35678	0.04076
1674.07101	0.04121
1672.78524	0.04168
1671.49947	0.04226
1670.21371	0.04289
1668.92794	0.04340
1667.64217	0.04373
1666.35640	0.04400
1665.07063	0.04432
1663.78486	0.04472
1662.49909	0.04512
1661.21332	0.04548
1659.92756	0.04586
1658.64179	0.04625
1657.35602	0.04660
1656.07025	0.04697
1654.78448	0.04742
1653.49871	0.04777
1652.21294	0.04782
1650.92717	0.04771
1649.64140	0.04781
1648.35564	0.04819
1647.06987	0.04856
1645.78410	0.04869
1644.49833	0.04861
1643.21256	0.04850
1641.92679	0.04842
1640.64102	0.04837
1639.35525	0.04832
1638.06949	0.04832
1636.78372	0.04831
1635.49795	0.04815
1634.21218	0.04783
1632.92641	0.04753
1631.64064	0.04741
1630.35487	0.04736
1629.06910	0.04724
1627.78333	0.04698
1626.49757	0.04670
1625.21180	0.04651
1623.92603	0.04640
1622.64026	0.04626
1621.35449	0.04609
1620.06872	0.04598
1618.78295	0.04600
1617.49718	0.04607
1616.21142	0.04602
1614.92565	0.04589
1613.63988	0.04586
1612.35411	0.04596
1611.06834	0.04608
1609.78257	0.04615
1608.49680	0.04621
1607.21103	0.04631
1605.92526	0.04647
1604.63950	0.04663
1603.35373	0.04678
1602.06796	0.04690
1600.78219	0.04701
1599.49642	0.04712
1598.21065	0.04728
1596.92488	0.04749
1595.63911	0.04773
1594.35335	0.04796
1593.06758	0.04818
1591.78181	0.04841
1590.49604	0.04869
1589.21027	0.04900
1587.92450	0.04930
1586.63873	0.04958
1585.35296	0.04985
1584.06719	0.05017
1582.78143	0.05058
1581.49566	0.05106
1580.20989	0.05158
1578.92412	0.05213
1577.63835	0.05273
1576.35258	0.05328
1575.06681	0.05367
1573.78104	0.05403
1572.49528	0.05453
1571.20951	0.05515
1569.92374	0.05573
1568.63797	0.05620
1567.35220	0.05662
1566.06643	0.05707
1564.78066	0.05749
1563.49489	0.05785
1562.20912	0.05823
1560.92336	0.05870
1559.63759	0.05913
1558.35182	0.05937
1557.06605	0.05950
1555.78028	0.05976
1554.49451	0.06016
1553.20874	0.06058
1551.92297	0.06097
1550.63721	0.06136
1549.35144	0.06168
1548.06567	0.06185
1546.77990	0.06190
1545.49413	0.06184
1544.20836	0.06165
1542.92259	0.06141
1541.63682	0.06119
1540.35105	0.06099
1539.06529	0.06069
1537.77952	0.06030
1536.49375	0.06001
1535.20798	0.05996
1533.92221	0.06003
1532.63644	0.06010
1531.35067	0.06019
1530.06490	0.06042
1528.77914	0.06080
1527.49337	0.06125
1526.20760	0.06170
1524.92183	0.06219
1523.63606	0.06280
1522.35029	0.06356
1521.06452	0.06436
1519.77875	0.06519
1518.49298	0.06615
1517.20722	0.06728
1515.92145	0.06849
1514.63568	0.06974
1513.34991	0.07108
1512.06414	0.07249
1510.77837	0.07393
1509.49260	0.07543
1508.20683	0.07702
1506.92107	0.07858
1505.63530	0.07996
1504.34953	0.08122
1503.06376	0.08254
1501.77799	0.08393
1500.49222	0.08524
1499.20645	0.08641
1497.92068	0.08746
1496.63491	0.08841
1495.34915	0.08924
1494.06338	0.09005
1492.77761	0.09093
1491.49184	0.09191
1490.20607	0.09292
1488.92030	0.09397
1487.63453	0.09511
1486.34876	0.09635
1485.06299	0.09767
1483.77723	0.09907
1482.49146	0.10057
1481.20569	0.10217
1479.91992	0.10382
1478.63415	0.10549
1477.34838	0.10710
1476.06261	0.10862
1474.77684	0.11007
1473.49108	0.11146
1472.20531	0.11274
1470.91954	0.11388
1469.63377	0.11493
1468.34800	0.11594
1467.06223	0.11687
1465.77646	0.11768
1464.49069	0.11833
1463.20492	0.11888
1461.91916	0.11946
1460.63339	0.12021
1459.34762	0.12117
1458.06185	0.12227
1456.77608	0.12327
1455.49031	0.12402
1454.20454	0.12462
1452.91877	0.12518
1451.63301	0.12570
1450.34724	0.12613
1449.06147	0.12645
1447.77570	0.12658
1446.48993	0.12649
1445.20416	0.12621
1443.91839	0.12577
1442.63262	0.12517
1441.34685	0.12442
1440.06109	0.12364
1438.77532	0.12299
1437.48955	0.12253
1436.20378	0.12221
1434.91801	0.12202
1433.63224	0.12206
1432.34647	0.12241
1431.06070	0.12308
1429.77494	0.12405
1428.48917	0.12535
1427.20340	0.12694
1425.91763	0.12875
1424.63186	0.13063
1423.34609	0.13250
1422.06032	0.13435
1420.77455	0.13617
1419.48878	0.13783
1418.20302	0.13920
1416.91725	0.14029
1415.63148	0.14119
1414.34571	0.14191
1413.05994	0.14239
1411.77417	0.14259
1410.48840	0.14250
1409.20263	0.14209
1407.91687	0.14136
1406.63110	0.14028
1405.34533	0.13884
1404.05956	0.13703
1402.77379	0.13492
1401.48802	0.13262
1400.20225	0.13021
1398.91648	0.12769
1397.63071	0.12507
1396.34495	0.12237
1395.05918	0.11960
1393.77341	0.11679
1392.48764	0.11402
1391.20187	0.11135
1389.91610	0.10880
1388.63033	0.10634
1387.34456	0.10393
1386.05880	0.10154
1384.77303	0.09918
1383.48726	0.09685
1382.20149	0.09451
1380.91572	0.09213
1379.62995	0.08971
1378.34418	0.08723
1377.05841	0.08468
1375.77264	0.08206
1374.48688	0.07938
1373.20111	0.07666
1371.91534	0.07399
1370.62957	0.07143
1369.34380	0.06901
1368.05803	0.06671
1366.77226	0.06456
1365.48649	0.06254
1364.20073	0.06064
1362.91496	0.05882
1361.62919	0.05707
1360.34342	0.05547
1359.05765	0.05402
1357.77188	0.05271
1356.48611	0.05148
1355.20034	0.05031
1353.91457	0.04919
1352.62881	0.04811
1351.34304	0.04707
1350.05727	0.04610
1348.77150	0.04523
1347.48573	0.04446
1346.19996	0.04375
1344.91419	0.04306
1343.62842	0.04239
1342.34266	0.04177
1341.05689	0.04120
1339.77112	0.04068
1338.48535	0.04016
1337.19958	0.03961
1335.91381	0.03904
1334.62804	0.03850
1333.34227	0.03803
1332.05650	0.03766
1330.77074	0.03735
1329.48497	0.03704
1328.19920	0.03670
1326.91343	0.03632
1325.62766	0.03597
1324.34189	0.03566
1323.05612	0.03538
1321.77035	0.03511
1320.48459	0.03482
1319.19882	0.03452
1317.91305	0.03422
1316.62728	0.03393
1315.34151	0.03370
1314.05574	0.03350
1312.76997	0.03328
1311.48420	0.03304
1310.19843	0.03280
1308.91267	0.03258
1307.62690	0.03235
1306.34113	0.03208
1305.05536	0.03180
1303.76959	0.03154
1302.48382	0.03135
1301.19805	0.03117
1299.91228	0.03097
1298.62652	0.03071
1297.34075	0.03044
1296.05498	0.03019
1294.76921	0.02997
1293.48344	0.02978
1292.19767	0.02964
1290.91190	0.02952
1289.62613	0.02941
1288.34036	0.02927
1287.05460	0.02909
1285.76883	0.02888
1284.48306	0.02870
1283.19729	0.02853
1281.91152	0.02836
1280.62575	0.02814
1279.33998	0.02791
1278.05421	0.02771
1276.76845	0.02758
1275.48268	0.02750
1274.19691	0.02740
1272.91114	0.02725
1271.62537	0.02704
1270.33960	0.02685
1269.05383	0.02671
1267.76806	0.02663
1266.48229	0.02656
1265.19653	0.02646
1263.91076	0.02636
1262.62499	0.02628
1261.33922	0.02624
1260.05345	0.02622
1258.76768	0.02616
1257.48191	0.02604
1256.19614	0.02586
1254.91037	0.02570
1253.62461	0.02558
1252.33884	0.02550
1251.05307	0.02543
1249.76730	0.02536
1248.48153	0.02529
1247.19576	0.02522
1245.90999	0.02513
1244.62422	0.02504
1243.33846	0.02495
1242.05269	0.02485
1240.76692	0.02474
1239.48115	0.02459
1238.19538	0.02442
1236.90961	0.02425
1235.62384	0.02411
1234.33807	0.02401
1233.05230	0.02392
1231.76654	0.02383
1230.48077	0.02372
1229.19500	0.02358
1227.90923	0.02342
1226.62346	0.02326
1225.33769	0.02311
1224.05192	0.02300
1222.76615	0.02293
1221.48039	0.02289
1220.19462	0.02285
1218.90885	0.02279
1217.62308	0.02269
1216.33731	0.02255
1215.05154	0.02241
1213.76577	0.02228
1212.48000	0.02218
1211.19423	0.02210
1209.90847	0.02204
1208.62270	0.02200
1207.33693	0.02195
1206.05116	0.02186
1204.76539	0.02173
1203.47962	0.02159
1202.19385	0.02152
1200.90808	0.02154
1199.62232	0.02163
1198.33655	0.02165
1197.05078	0.02156
1195.76501	0.02136
1194.47924	0.02116
1193.19347	0.02102
1191.90770	0.02094
1190.62193	0.02090
1189.33616	0.02088
1188.05040	0.02090
1186.76463	0.02096
1185.47886	0.02102
1184.19309	0.02105
1182.90732	0.02103
1181.62155	0.02099
1180.33578	0.02097
1179.05001	0.02099
1177.76425	0.02102
1176.47848	0.02102
1175.19271	0.02100
1173.90694	0.02100
1172.62117	0.02107
1171.33540	0.02118
1170.04963	0.02129
1168.76386	0.02142
1167.47809	0.02162
1166.19233	0.02185
1164.90656	0.02204
1163.62079	0.02209
1162.33502	0.02207
1161.04925	0.02211
1159.76348	0.02228
1158.47771	0.02253
1157.19194	0.02279
1155.90618	0.02302
1154.62041	0.02326
1153.33464	0.02355
1152.04887	0.02391
1150.76310	0.02433
1149.47733	0.02474
1148.19156	0.02516
1146.90579	0.02562
1145.62002	0.02621
1144.33426	0.02696
1143.04849	0.02787
1141.76272	0.02890
1140.47695	0.03000
1139.19118	0.03118
1137.90541	0.03246
1136.61964	0.03389
1135.33387	0.03551
1134.04811	0.03734
1132.76234	0.03940
1131.47657	0.04173
1130.19080	0.04432
1128.90503	0.04712
1127.61926	0.05014
1126.33349	0.05343
1125.04772	0.05708
1123.76195	0.06106
1122.47619	0.06524
1121.19042	0.06952
1119.90465	0.07386
1118.61888	0.07830
1117.33311	0.08287
1116.04734	0.08749
1114.76157	0.09204
1113.47580	0.09645
1112.19004	0.10070
1110.90427	0.10485
1109.61850	0.10892
1108.33273	0.11288
1107.04696	0.11671
1105.76119	0.12039
1104.47542	0.12393
1103.18965	0.12739
1101.90388	0.13084
1100.61812	0.13430
1099.33235	0.13770
1098.04658	0.14089
1096.76081	0.14381
1095.47504	0.14655
1094.18927	0.14920
1092.90350	0.15178
1091.61773	0.15425
1090.33197	0.15661
1089.04620	0.15888
1087.76043	0.16108
1086.47466	0.16322
1085.18889	0.16532
1083.90312	0.16744
1082.61735	0.16963
1081.33158	0.17199
1080.04581	0.17457
1078.76005	0.17738
1077.47428	0.18041
1076.18851	0.18364
1074.90274	0.18709
1073.61697	0.19079
1072.33120	0.19476
1071.04543	0.19895
1069.75966	0.20328
1068.47390	0.20772
1067.18813	0.21230
1065.90236	0.21703
1064.61659	0.22189
1063.33082	0.22683
1062.04505	0.23180
1060.75928	0.23678
1059.47351	0.24179
1058.18774	0.24681
1056.90198	0.25179
1055.61621	0.25672
1054.33044	0.26166
1053.04467	0.26665
1051.75890	0.27171
1050.47313	0.27682
1049.18736	0.28201
1047.90159	0.28730
1046.61583	0.29268
1045.33006	0.29814
1044.04429	0.30370
1042.75852	0.30941
1041.47275	0.31527
1040.18698	0.32123
1038.90121	0.32726
1037.61544	0.33336
1036.32967	0.33953
1035.04391	0.34573
1033.75814	0.35189
1032.47237	0.35790
1031.18660	0.36360
1029.90083	0.36882
1028.61506	0.37348
1027.32929	0.37756
1026.04352	0.38109
1024.75775	0.38404
1023.47199	0.38637
1022.18622	0.38809
1020.90045	0.38919
1019.61468	0.38965
1018.32891	0.38936
1017.04314	0.38822
1015.75737	0.38617
1014.47160	0.38324
1013.18584	0.37945
1011.90007	0.37478
1010.61430	0.36922
1009.32853	0.36280
1008.04276	0.35559
1006.75699	0.34766
1005.47122	0.33908
1004.18545	0.32988
1002.89968	0.32011
1001.61392	0.30982
1000.32815	0.29909
999.04238	0.28803
997.75661	0.27681
996.47084	0.26564
995.18507	0.25465
993.89930	0.24383
992.61353	0.23319
991.32777	0.22280
990.04200	0.21280
988.75623	0.20324
987.47046	0.19412
986.18469	0.18545
984.89892	0.17725
983.61315	0.16954
982.32738	0.16231
981.04161	0.15553
979.75585	0.14926
978.47008	0.14355
977.18431	0.13842
975.89854	0.13381
974.61277	0.12973
973.32700	0.12625
972.04123	0.12353
970.75546	0.12167
969.46970	0.12073
968.18393	0.12069
966.89816	0.12149
965.61239	0.12297
964.32662	0.12485
963.04085	0.12673
961.75508	0.12818
960.46931	0.12880
959.18354	0.12836
957.89778	0.12685
956.61201	0.12446
955.32624	0.12144
954.04047	0.11802
952.75470	0.11437
951.46893	0.11060
950.18316	0.10682
948.89739	0.10316
947.61163	0.09974
946.32586	0.09654
945.04009	0.09349
943.75432	0.09054
942.46855	0.08777
941.18278	0.08525
939.89701	0.08293
938.61124	0.08071
937.32547	0.07850
936.03971	0.07636
934.75394	0.07438
933.46817	0.07261
932.18240	0.07100
930.89663	0.06953
929.61086	0.06819
928.32509	0.06696
927.03932	0.06579
925.75356	0.06464
924.46779	0.06353
923.18202	0.06253
921.89625	0.06165
920.61048	0.06086
919.32471	0.06009
918.03894	0.05932
916.75317	0.05852
915.46740	0.05770
914.18164	0.05693
912.89587	0.05626
911.61010	0.05569
910.32433	0.05518
909.03856	0.05467
907.75279	0.05415
906.46702	0.05361
905.18125	0.05306
903.89549	0.05259
902.60972	0.05223
901.32395	0.05196
900.03818	0.05171
898.75241	0.05138
897.46664	0.05090
896.18087	0.05033
894.89510	0.04985
893.60933	0.04960
892.32357	0.04960
891.03780	0.04975
889.75203	0.05001
888.46626	0.05050
887.18049	0.05142
885.89472	0.05303
884.60895	0.05557
883.32318	0.05910
882.03742	0.06332
880.75165	0.06754
879.46588	0.07104
878.18011	0.07357
876.89434	0.07549
875.60857	0.07741
874.32280	0.07956
873.03703	0.08150
871.75126	0.08251
870.46550	0.08215
869.17973	0.08048
867.89396	0.07790
866.60819	0.07475
865.32242	0.07127
864.03665	0.06766
862.75088	0.06416
861.46511	0.06104
860.17935	0.05843
858.89358	0.05629
857.60781	0.05449
856.32204	0.05298
855.03627	0.05176
853.75050	0.05081
852.46473	0.05006
851.17896	0.04938
849.89319	0.04872
848.60743	0.04807
847.32166	0.04746
846.03589	0.04696
844.75012	0.04656
843.46435	0.04621
842.17858	0.04586
840.89281	0.04550
839.60704	0.04520
838.32128	0.04494
837.03551	0.04468
835.74974	0.04436
834.46397	0.04401
833.17820	0.04366
831.89243	0.04334
830.60666	0.04306
829.32089	0.04281
828.03512	0.04260
826.74936	0.04239
825.46359	0.04217
824.17782	0.04197
822.89205	0.04185
821.60628	0.04181
820.32051	0.04180
819.03474	0.04174
817.74897	0.04162
816.46321	0.04151
815.17744	0.04143
813.89167	0.04131
812.60590	0.04112
811.32013	0.04086
810.03436	0.04063
808.74859	0.04046
807.46282	0.04035
806.17705	0.04027
804.89129	0.04020
803.60552	0.04010
802.31975	0.04001
801.03398	0.03995
799.74821	0.03994
798.46244	0.03994
797.17667	0.03993
795.89090	0.03993
794.60513	0.03992
793.31937	0.03984
792.03360	0.03964
790.74783	0.03940
789.46206	0.03925
788.17629	0.03922
786.89052	0.03923
785.60475	0.03914
784.31898	0.03894
783.03322	0.03874
781.74745	0.03866
780.46168	0.03872
779.17591	0.03887
777.89014	0.03899
776.60437	0.03904
775.31860	0.03900
774.03283	0.03887
772.74706	0.03866
771.46130	0.03846
770.17553	0.03835
768.88976	0.03842
767.60399	0.03861
766.31822	0.03879
765.03245	0.03886
763.74668	0.03882
762.46091	0.03874
761.17515	0.03866
759.88938	0.03862
758.60361	0.03863
757.31784	0.03871
756.03207	0.03883
754.74630	0.03895
753.46053	0.03905
752.17476	0.03910
750.88899	0.03909
749.60323	0.03902
748.31746	0.03888
747.03169	0.03868
745.74592	0.03841
744.46015	0.03813
743.17438	0.03792
741.88861	0.03779
740.60284	0.03771
739.31708	0.03762
738.03131	0.03752
736.74554	0.03742
735.45977	0.03735
734.17400	0.03733
732.88823	0.03743
731.60246	0.03762
730.31669	0.03779
729.03092	0.03786
727.74516	0.03786
726.45939	0.03786
725.17362	0.03787
723.88785	0.03789
722.60208	0.03787
721.31631	0.03783
720.03054	0.03775
718.74477	0.03762
717.45901	0.03748
716.17324	0.03734
714.88747	0.03726
713.60170	0.03724
712.31593	0.03728
711.03016	0.03734
709.74439	0.03739
708.45862	0.03742
707.17285	0.03742
705.88709	0.03740
704.60132	0.03735
703.31555	0.03730
702.02978	0.03728
700.74401	0.03727
699.45824	0.03725
698.17247	0.03720
696.88670	0.03715
695.60094	0.03717
694.31517	0.03727
693.02940	0.03742
691.74363	0.03751
690.45786	0.03751
689.17209	0.03742
687.88632	0.03729
686.60055	0.03712
685.31478	0.03697
684.02902	0.03683
682.74325	0.03672
681.45748	0.03662
680.17171	0.03654
678.88594	0.03649
677.60017	0.03646
676.31440	0.03647
675.02863	0.03655
673.74287	0.03672
672.45710	0.03696
671.17133	0.03715
669.88556	0.03728
668.59979	0.03762
667.31402	0.03780
666.02825	0.03755
664.74248	0.03758
663.45671	0.03748
662.17095	0.03721
660.88518	0.03690
659.59941	0.03663
658.31364	0.03641
657.02787	0.03627
655.74210	0.03622
654.45633	0.03625
653.17056	0.03632
651.88480	0.03639
650.59903	0.03644
649.31326	0.03652
648.02749	0.03666
646.74172	0.03685
645.45595	0.03704
644.17018	0.03719
642.88441	0.03734
641.59864	0.03754
640.31288	0.03782
639.02711	0.03813
637.74134	0.03843
636.45557	0.03877
635.16980	0.03919
633.88403	0.03973
632.59826	0.04038
631.31249	0.04104
630.02673	0.04167
628.74096	0.04239
627.45519	0.04325
626.16942	0.04416
624.88365	0.04530
623.59788	0.04684
622.31211	0.04870
621.02634	0.05070
619.74057	0.05300
618.45481	0.05616
617.16904	0.06042
615.88327	0.06535
614.59750	0.07039
613.31173	0.07556
612.02596	0.08159
610.74019	0.08907
609.45442	0.09745
608.16866	0.10531
606.88289	0.11180
605.59712	0.11721
604.31135	0.12211
603.02558	0.12645
601.73981	0.12949
600.45404	0.13047
599.16827	0.12912
597.88250	0.12576
596.59674	0.12116
595.31097	0.11620
594.02520	0.11161
592.73943	0.10778
591.45366	0.10487
590.16789	0.10289
588.88212	0.10183
587.59635	0.10169
586.31059	0.10248
585.02482	0.10412
583.73905	0.10646
582.45328	0.10928
581.16751	0.11243
579.88174	0.11587
578.59597	0.11960
577.31020	0.12360
576.02443	0.12776
574.73867	0.13189
573.45290	0.13579
572.16713	0.13943
570.88136	0.14307
569.59559	0.14721
568.30982	0.15226
567.02405	0.15822
565.73828	0.16460
564.45251	0.17060
563.16675	0.17542
561.88098	0.17834
560.59521	0.17876
559.30944	0.17632
558.02367	0.17112
556.73790	0.16367
555.45213	0.15481
554.16636	0.14534
552.88060	0.13585
551.59483	0.12674
550.30906	0.11826
549.02329	0.11058
547.73752	0.10376
546.45175	0.09774
545.16598	0.09246
543.88021	0.08787
542.59444	0.08393
541.30868	0.08050
540.02291	0.07736
538.73714	0.07435
537.45137	0.07147
536.16560	0.06877
534.87983	0.06632
533.59406	0.06413
532.30829	0.06213
531.02253	0.06028
529.73676	0.05854
528.45099	0.05694
527.16522	0.05546
525.87945	0.05406
524.59368	0.05269
523.30791	0.05138
522.02214	0.05018
520.73637	0.04910
519.45061	0.04808
518.16484	0.04710
516.87907	0.04618
515.59330	0.04532
514.30753	0.04452
513.02176	0.04375
511.73599	0.04300
510.45022	0.04228
509.16446	0.04163
507.87869	0.04102
506.59292	0.04039
505.30715	0.03972
504.02138	0.03906
502.73561	0.03849
501.44984	0.03802
500.16407	0.03759
498.87830	0.03716
497.59254	0.03671
496.30677	0.03627
495.02100	0.03588
493.73523	0.03553
492.44946	0.03522
491.16369	0.03491
489.87792	0.03459
488.59215	0.03429
487.30639	0.03403
486.02062	0.03382
484.73485	0.03366
483.44908	0.03359
482.16331	0.03367
480.87754	0.03386
479.59177	0.03407
478.30600	0.03426
477.02023	0.03447
475.73447	0.03473
474.44870	0.03500
473.16293	0.03519
471.87716	0.03529
470.59139	0.03532
469.30562	0.03530
468.01985	0.03517
466.73408	0.03486
465.44832	0.03441
464.16255	0.03391
462.87678	0.03343
461.59101	0.03301
460.30524	0.03264
459.01947	0.03230
457.73370	0.03195
456.44793	0.03152
455.16216	0.03098
453.87640	0.03041
452.59063	0.02986
451.30486	0.02942
450.01909	0.02911
448.73332	0.02894
447.44755	0.02883
446.16178	0.02871
444.87601	0.02853
443.59025	0.02829
442.30448	0.02803
441.01871	0.02779
439.73294	0.02758
438.44717	0.02740
437.16140	0.02725
435.87563	0.02714
434.58986	0.02708
433.30409	0.02705
432.01833	0.02704
430.73256	0.02700
429.44679	0.02690
428.16102	0.02673
426.87525	0.02651
425.58948	0.02626
424.30371	0.02600
423.01794	0.02577
421.73218	0.02559
420.44641	0.02544
419.16064	0.02528
417.87487	0.02510
416.58910	0.02491
415.30333	0.02476
414.01756	0.02466
412.73179	0.02459
411.44602	0.02455
410.16026	0.02451
408.87449	0.02446
407.58872	0.02439
406.30295	0.02437
405.01718	0.02444
403.73141	0.02458
402.44564	0.02476
401.15987	0.02492
399.87411	0.02505
