3997.45528 0.05876
3996.16951 0.05851
3994.88374 0.05836
3993.59798 0.05781
3992.31221 0.05672
3991.02644 0.05551
3989.74067 0.05490
3988.45490 0.05534
3987.16913 0.05658
3985.88336 0.05788
3984.59759 0.05853
3983.31183 0.05828
3982.02606 0.05733
3980.74029 0.05615
3979.45452 0.05525
3978.16875 0.05494
3976.88298 0.05511
3975.59721 0.05535
3974.31144 0.05529
3973.02567 0.05504
3971.73991 0.05509
3970.45414 0.05569
3969.16837 0.05648
3967.88260 0.05680
3966.59683 0.05642
3965.31106 0.05568
3964.02529 0.05500
3962.73952 0.05449
3961.45376 0.05417
3960.16799 0.05417
3958.88222 0.05463
3957.59645 0.05542
3956.31068 0.05619
3955.02491 0.05662
3953.73914 0.05656
3952.45337 0.05613
3951.16760 0.05558
3949.88184 0.05523
3948.59607 0.05535
3947.31030 0.05603
3946.02453 0.05702
3944.73876 0.05771
3943.45299 0.05756
3942.16722 0.05653
3940.88145 0.05504
3939.59569 0.05365
3938.30992 0.05273
3937.02415 0.05247
3935.73838 0.05288
3934.45261 0.05368
3933.16684 0.05441
3931.88107 0.05470
3930.59530 0.05451
3929.30953 0.05409
3928.02377 0.05377
3926.73800 0.05374
3925.45223 0.05401
3924.16646 0.05444
3922.88069 0.05494
3921.59492 0.05554
3920.30915 0.05640
3919.02338 0.05751
3917.73762 0.05856
3916.45185 0.05908
3915.16608 0.05888
3913.88031 0.05822
3912.59454 0.05758
3911.30877 0.05732
3910.02300 0.05763
3908.73723 0.05845
3907.45146 0.05950
3906.16570 0.06020
3904.87993 0.06006
3903.59416 0.05903
3902.30839 0.05760
3901.02262 0.05642
3899.73685 0.05582
3898.45108 0.05581
3897.16531 0.05623
3895.87955 0.05697
3894.59378 0.05790
3893.30801 0.05875
3892.02224 0.05901
3890.73647 0.05827
3889.45070 0.05675
3888.16493 0.05542
3886.87916 0.05518
3885.59339 0.05595
3884.30763 0.05682
3883.02186 0.05696
3881.73609 0.05631
3880.45032 0.05546
3879.16455 0.05515
3877.87878 0.05571
3876.59301 0.05686
3875.30724 0.05783
3874.02148 0.05800
3872.73571 0.05731
3871.44994 0.05622
3870.16417 0.05519
3868.87840 0.05443
3867.59263 0.05404
3866.30686 0.05402
3865.02109 0.05423
3863.73532 0.05447
3862.44956 0.05463
3861.16379 0.05472
3859.87802 0.05480
3858.59225 0.05485
3857.30648 0.05483
3856.02071 0.05465
3854.73494 0.05426
3853.44917 0.05378
3852.16341 0.05349
3850.87764 0.05356
3849.59187 0.05373
3848.30610 0.05351
3847.02033 0.05277
3845.73456 0.05185
3844.44879 0.05116
3843.16302 0.05089
3841.87725 0.05120
3840.59149 0.05218
3839.30572 0.05362
3838.01995 0.05491
3836.73418 0.05544
3835.44841 0.05503
3834.16264 0.05397
3832.87687 0.05269
3831.59110 0.05152
3830.30534 0.05059
3829.01957 0.04984
3827.73380 0.04914
3826.44803 0.04851
3825.16226 0.04828
3823.87649 0.04885
3822.59072 0.05019
3821.30495 0.05168
3820.01918 0.05273
3818.73342 0.05324
3817.44765 0.05339
3816.16188 0.05333
3814.87611 0.05326
3813.59034 0.05343
3812.30457 0.05381
3811.01880 0.05400
3809.73303 0.05368
3808.44726 0.05297
3807.16150 0.05222
3805.87573 0.05182
3804.58996 0.05207
3803.30419 0.05285
3802.01842 0.05356
3800.73265 0.05367
3799.44688 0.05330
3798.16111 0.05288
3796.87535 0.05253
3795.58958 0.05204
3794.30381 0.05129
3793.01804 0.05046
3791.73227 0.04997
3790.44650 0.05013
3789.16073 0.05093
3787.87496 0.05199
3786.58919 0.05276
3785.30343 0.05283
3784.01766 0.05217
3782.73189 0.05129
3781.44612 0.05085
3780.16035 0.05117
3778.87458 0.05196
3777.58881 0.05271
3776.30304 0.05303
3775.01728 0.05284
3773.73151 0.05235
3772.44574 0.05195
3771.15997 0.05190
3769.87420 0.05206
3768.58843 0.05218
3767.30266 0.05222
3766.01689 0.05240
3764.73112 0.05277
3763.44536 0.05304
3762.15959 0.05286
3760.87382 0.05216
3759.58805 0.05126
3758.30228 0.05063
3757.01651 0.05049
3755.73074 0.05077
3754.44497 0.05127
3753.15921 0.05175
3751.87344 0.05198
3750.58767 0.05190
3749.30190 0.05162
3748.01613 0.05138
3746.73036 0.05141
3745.44459 0.05168
3744.15882 0.05185
3742.87305 0.05178
3741.58729 0.05170
3740.30152 0.05182
3739.01575 0.05207
3737.72998 0.05208
3736.44421 0.05139
3735.15844 0.04992
3733.87267 0.04832
3732.58690 0.04753
3731.30114 0.04802
3730.01537 0.04935
3728.72960 0.05057
3727.44383 0.05091
3726.15806 0.05037
3724.87229 0.04961
3723.58652 0.04916
3722.30075 0.04897
3721.01498 0.04868
3719.72922 0.04821
3718.44345 0.04779
3717.15768 0.04768
3715.87191 0.04802
3714.58614 0.04880
3713.30037 0.04977
3712.01460 0.05047
3710.72883 0.05074
3709.44307 0.05080
3708.15730 0.05102
3706.87153 0.05137
3705.58576 0.05154
3704.29999 0.05138
3703.01422 0.05120
3701.72845 0.05143
3700.44268 0.05190
3699.15691 0.05186
3697.87115 0.05079
3696.58538 0.04895
3695.29961 0.04704
3694.01384 0.04574
3692.72807 0.04551
3691.44230 0.04615
3690.15653 0.04689
3688.87076 0.04690
3687.58500 0.04609
3686.29923 0.04526
3685.01346 0.04531
3683.72769 0.04625
3682.44192 0.04728
3681.15615 0.04788
3679.87038 0.04813
3678.58461 0.04840
3677.29884 0.04884
3676.01308 0.04916
3674.72731 0.04913
3673.44154 0.04898
3672.15577 0.04909
3670.87000 0.04949
3669.58423 0.04982
3668.29846 0.04981
3667.01269 0.04955
3665.72693 0.04919
3664.44116 0.04886
3663.15539 0.04870
3661.86962 0.04885
3660.58385 0.04941
3659.29808 0.05027
3658.01231 0.05112
3656.72654 0.05161
3655.44077 0.05159
3654.15501 0.05131
3652.86924 0.05117
3651.58347 0.05128
3650.29770 0.05132
3649.01193 0.05092
3647.72616 0.05012
3646.44039 0.04935
3645.15462 0.04902
3643.86886 0.04919
3642.58309 0.04963
3641.29732 0.05010
3640.01155 0.05062
3638.72578 0.05121
3637.44001 0.05169
3636.15424 0.05156
3634.86847 0.05054
3633.58270 0.04901
3632.29694 0.04805
3631.01117 0.04854
3629.72540 0.05032
3628.43963 0.05235
3627.15386 0.05368
3625.86809 0.05401
3624.58232 0.05348
3623.29655 0.05236
3622.01079 0.05113
3620.72502 0.05037
3619.43925 0.05036
3618.15348 0.05085
3616.86771 0.05141
3615.58194 0.05182
3614.29617 0.05222
3613.01040 0.05287
3611.72463 0.05384
3610.43887 0.05488
3609.15310 0.05560
3607.86733 0.05586
3606.58156 0.05585
3605.29579 0.05579
3604.01002 0.05572
3602.72425 0.05564
3601.43848 0.05563
3600.15272 0.05568
3598.86695 0.05569
3597.58118 0.05566
3596.29541 0.05575
3595.00964 0.05599
3593.72387 0.05618
3592.43810 0.05627
3591.15233 0.05655
3589.86656 0.05716
3588.58080 0.05787
3587.29503 0.05817
3586.00926 0.05774
3584.72349 0.05669
3583.43772 0.05557
3582.15195 0.05482
3580.86618 0.05468
3579.58041 0.05518
3578.29464 0.05622
3577.00888 0.05748
3575.72311 0.05856
3574.43734 0.05914
3573.15157 0.05911
3571.86580 0.05862
3570.58003 0.05794
3569.29426 0.05751
3568.00849 0.05769
3566.72273 0.05856
3565.43696 0.05975
3564.15119 0.06067
3562.86542 0.06087
3561.57965 0.06037
3560.29388 0.05963
3559.00811 0.05933
3557.72234 0.05993
3556.43657 0.06135
3555.15081 0.06282
3553.86504 0.06348
3552.57927 0.06301
3551.29350 0.06192
3550.00773 0.06102
3548.72196 0.06074
3547.43619 0.06089
3546.15042 0.06121
3544.86466 0.06177
3543.57889 0.06269
3542.29312 0.06367
3541.00735 0.06407
3539.72158 0.06355
3538.43581 0.06240
3537.15004 0.06131
3535.86427 0.06078
3534.57850 0.06088
3533.29274 0.06136
3532.00697 0.06193
3530.72120 0.06244
3529.43543 0.06284
3528.14966 0.06314
3526.86389 0.06333
3525.57812 0.06349
3524.29235 0.06373
3523.00659 0.06406
3521.72082 0.06434
3520.43505 0.06442
3519.14928 0.06444
3517.86351 0.06472
3516.57774 0.06543
3515.29197 0.06635
3514.00620 0.06701
3512.72043 0.06713
3511.43467 0.06682
3510.14890 0.06639
3508.86313 0.06609
3507.57736 0.06597
3506.29159 0.06590
3505.00582 0.06572
3503.72005 0.06547
3502.43428 0.06522
3501.14852 0.06501
3499.86275 0.06489
3498.57698 0.06510
3497.29121 0.06585
3496.00544 0.06703
3494.71967 0.06805
3493.43390 0.06832
3492.14813 0.06773
3490.86236 0.06674
3489.57660 0.06603
3488.29083 0.06600
3487.00506 0.06660
3485.71929 0.06749
3484.43352 0.06826
3483.14775 0.06864
3481.86198 0.06863
3480.57621 0.06842
3479.29045 0.06827
3478.00468 0.06832
3476.71891 0.06851
3475.43314 0.06878
3474.14737 0.06913
3472.86160 0.06961
3471.57583 0.07019
3470.29006 0.07070
3469.00429 0.07089
3467.71853 0.07066
3466.43276 0.07008
3465.14699 0.06930
3463.86122 0.06852
3462.57545 0.06800
3461.28968 0.06794
3460.00391 0.06833
3458.71814 0.06896
3457.43238 0.06955
3456.14661 0.06992
3454.86084 0.07002
3453.57507 0.06988
3452.28930 0.06961
3451.00353 0.06940
3449.71776 0.06935
3448.43199 0.06939
3447.14622 0.06942
3445.86046 0.06944
3444.57469 0.06961
3443.28892 0.07007
3442.00315 0.07069
3440.71738 0.07118
3439.43161 0.07139
3438.14584 0.07145
3436.86007 0.07151
3435.57431 0.07152
3434.28854 0.07130
3433.00277 0.07090
3431.71700 0.07070
3430.43123 0.07107
3429.14546 0.07192
3427.85969 0.07273
3426.57392 0.07311
3425.28815 0.07304
3424.00239 0.07273
3422.71662 0.07240
3421.43085 0.07214
3420.14508 0.07199
3418.85931 0.07200
3417.57354 0.07220
3416.28777 0.07256
3415.00200 0.07298
3413.71624 0.07340
3412.43047 0.07384
3411.14470 0.07422
3409.85893 0.07437
3408.57316 0.07417
3407.28739 0.07378
3406.00162 0.07356
3404.71585 0.07376
3403.43008 0.07430
3402.14432 0.07500
3400.85855 0.07572
3399.57278 0.07594
3398.28701 0.07571
3397.00124 0.07555
3395.71547 0.07530
3394.42970 0.07482
3393.14393 0.07429
3391.85817 0.07402
3390.57240 0.07420
3389.28663 0.07474
3388.00086 0.07542
3386.71509 0.07607
3385.42932 0.07667
3384.14355 0.07721
3382.85778 0.07759
3381.57201 0.07767
3380.28625 0.07750
3379.00048 0.07727
3377.71471 0.07717
3376.42894 0.07727
3375.14317 0.07751
3373.85740 0.07775
3372.57163 0.07788
3371.28586 0.07787
3370.00010 0.07776
3368.71433 0.07756
3367.42856 0.07733
3366.14279 0.07717
3364.85702 0.07717
3363.57125 0.07728
3362.28548 0.07733
3360.99971 0.07725
3359.71394 0.07720
3358.42818 0.07731
3357.14241 0.07755
3355.85664 0.07781
3354.57087 0.07805
3353.28510 0.07833
3351.99933 0.07862
3350.71356 0.07876
3349.42779 0.07855
3348.14202 0.07793
3346.85626 0.07705
3345.57049 0.07630
3344.28472 0.07612
3342.99895 0.07661
3341.71318 0.07737
3340.42741 0.07780
3339.14164 0.07771
3337.85587 0.07752
3336.57011 0.07768
3335.28434 0.07816
3333.99857 0.07852
3332.71280 0.07841
3331.42703 0.07793
3330.14126 0.07743
3328.85549 0.07716
3327.56972 0.07708
3326.28395 0.07711
3324.99819 0.07726
3323.71242 0.07760
3322.42665 0.07817
3321.14088 0.07883
3319.85511 0.07939
3318.56934 0.07961
3317.28357 0.07944
3315.99780 0.07902
3314.71204 0.07869
3313.42627 0.07864
3312.14050 0.07883
3310.85473 0.07916
3309.56896 0.07956
3308.28319 0.07997
3306.99742 0.08017
3305.71165 0.07997
3304.42588 0.07942
3303.14012 0.07883
3301.85435 0.07848
3300.56858 0.07845
3299.28281 0.07865
3297.99704 0.07890
3296.71127 0.07905
3295.42550 0.07912
3294.13973 0.07928
3292.85397 0.07966
3291.56820 0.08016
3290.28243 0.08053
3288.99666 0.08062
3287.71089 0.08046
3286.42512 0.08015
3285.13935 0.07985
3283.85358 0.07978
3282.56781 0.08002
3281.28205 0.08036
3279.99628 0.08047
3278.71051 0.08024
3277.42474 0.07981
3276.13897 0.07940
3274.85320 0.07910
3273.56743 0.07893
3272.28166 0.07898
3270.99590 0.07926
3269.71013 0.07971
3268.42436 0.08023
3267.13859 0.08079
3265.85282 0.08133
3264.56705 0.08169
3263.28128 0.08180
3261.99551 0.08176
3260.70974 0.08162
3259.42398 0.08124
3258.13821 0.08045
3256.85244 0.07947
3255.56667 0.07891
3254.28090 0.07911
3252.99513 0.07974
3251.70936 0.08014
3250.42359 0.08000
3249.13783 0.07952
3247.85206 0.07908
3246.56629 0.07887
3245.28052 0.07882
3243.99475 0.07874
3242.70898 0.07847
3241.42321 0.07806
3240.13744 0.07768
3238.85167 0.07742
3237.56591 0.07718
3236.28014 0.07687
3234.99437 0.07651
3233.70860 0.07612
3232.42283 0.07562
3231.13706 0.07506
3229.85129 0.07475
3228.56552 0.07491
3227.27976 0.07535
3225.99399 0.07560
3224.70822 0.07552
3223.42245 0.07545
3222.13668 0.07582
3220.85091 0.07654
3219.56514 0.07702
3218.27937 0.07675
3216.99360 0.07591
3215.70784 0.07523
3214.42207 0.07517
3213.13630 0.07552
3211.85053 0.07569
3210.56476 0.07543
3209.27899 0.07510
3207.99322 0.07512
3206.70745 0.07551
3205.42169 0.07588
3204.13592 0.07593
3202.85015 0.07575
3201.56438 0.07560
3200.27861 0.07552
3198.99284 0.07535
3197.70707 0.07503
3196.42130 0.07481
3195.13553 0.07490
3193.84977 0.07518
3192.56400 0.07536
3191.27823 0.07529
3189.99246 0.07505
3188.70669 0.07474
3187.42092 0.07436
3186.13515 0.07387
3184.84938 0.07334
3183.56362 0.07297
3182.27785 0.07297
3180.99208 0.07341
3179.70631 0.07405
3178.42054 0.07445
3177.13477 0.07438
3175.84900 0.07398
3174.56323 0.07357
3173.27746 0.07328
3171.99170 0.07298
3170.70593 0.07253
3169.42016 0.07203
3168.13439 0.07172
3166.84862 0.07176
3165.56285 0.07202
3164.27708 0.07219
3162.99131 0.07209
3161.70555 0.07176
3160.41978 0.07142
3159.13401 0.07121
3157.84824 0.07108
3156.56247 0.07089
3155.27670 0.07046
3153.99093 0.06986
3152.70516 0.06937
3151.41939 0.06924
3150.13363 0.06939
3148.84786 0.06953
3147.56209 0.06954
3146.27632 0.06963
3144.99055 0.07002
3143.70478 0.07067
3142.41901 0.07132
3141.13324 0.07171
3139.84748 0.07181
3138.56171 0.07169
3137.27594 0.07144
3135.99017 0.07117
3134.70440 0.07103
3133.41863 0.07117
3132.13286 0.07152
3130.84709 0.07169
3129.56132 0.07121
3128.27556 0.06999
3126.98979 0.06853
3125.70402 0.06753
3124.41825 0.06725
3123.13248 0.06747
3121.84671 0.06780
3120.56094 0.06806
3119.27517 0.06826
3117.98940 0.06844
3116.70364 0.06857
3115.41787 0.06865
3114.13210 0.06868
3112.84633 0.06866
3111.56056 0.06857
3110.27479 0.06839
3108.98902 0.06814
3107.70325 0.06782
3106.41749 0.06741
3105.13172 0.06691
3103.84595 0.06648
3102.56018 0.06639
3101.27441 0.06678
3099.98864 0.06747
3098.70287 0.06806
3097.41710 0.06827
3096.13133 0.06817
3094.84557 0.06804
3093.55980 0.06804
3092.27403 0.06810
3090.98826 0.06804
3089.70249 0.06779
3088.41672 0.06745
3087.13095 0.06716
3085.84518 0.06702
3084.55942 0.06707
3083.27365 0.06723
3081.98788 0.06730
3080.70211 0.06711
3079.41634 0.06672
3078.13057 0.06639
3076.84480 0.06634
3075.55903 0.06666
3074.27326 0.06722
3072.98750 0.06781
3071.70173 0.06826
3070.41596 0.06852
3069.13019 0.06865
3067.84442 0.06863
3066.55865 0.06844
3065.27288 0.06815
3063.98711 0.06786
3062.70135 0.06760
3061.41558 0.06726
3060.12981 0.06684
3058.84404 0.06650
3057.55827 0.06637
3056.27250 0.06638
3054.98673 0.06629
3053.70096 0.06597
3052.41519 0.06553
3051.12943 0.06516
3049.84366 0.06491
3048.55789 0.06474
3047.27212 0.06462
3045.98635 0.06459
3044.70058 0.06463
3043.41481 0.06469
3042.12904 0.06470
3040.84328 0.06464
3039.55751 0.06454
3038.27174 0.06439
3036.98597 0.06418
3035.70020 0.06394
3034.41443 0.06372
3033.12866 0.06354
3031.84289 0.06345
3030.55712 0.06349
3029.27136 0.06359
3027.98559 0.06363
3026.69982 0.06355
3025.41405 0.06341
3024.12828 0.06331
3022.84251 0.06326
3021.55674 0.06322
3020.27097 0.06322
3018.98521 0.06335
3017.69944 0.06358
3016.41367 0.06376
3015.12790 0.06364
3013.84213 0.06322
3012.55636 0.06274
3011.27059 0.06243
3009.98482 0.06229
3008.69905 0.06216
3007.41329 0.06194
3006.12752 0.06167
3004.84175 0.06145
3003.55598 0.06139
3002.27021 0.06162
3000.98444 0.06204
2999.69867 0.06202
2998.41290 0.06228
2997.12714 0.06248
2995.84137 0.06264
2994.55560 0.06284
2993.26983 0.06303
2991.98406 0.06308
2990.69829 0.06297
2989.41252 0.06278
2988.12675 0.06266
2986.84098 0.06267
2985.55522 0.06276
2984.26945 0.06294
2982.98368 0.06319
2981.69791 0.06352
2980.41214 0.06393
2979.12637 0.06447
2977.84060 0.06513
2976.55483 0.06578
2975.26907 0.06630
2973.98330 0.06676
2972.69753 0.06736
2971.41176 0.06828
2970.12599 0.06955
2968.84022 0.07101
2967.55445 0.07242
2966.26868 0.07366
2964.98291 0.07479
2963.69715 0.07603
2962.41138 0.07744
2961.12561 0.07889
2959.83984 0.08014
2958.55407 0.08116
2957.26830 0.08213
2955.98253 0.08312
2954.69676 0.08398
2953.41100 0.08450
2952.12523 0.08469
2950.83946 0.08479
2949.55369 0.08493
2948.26792 0.08507
2946.98215 0.08501
2945.69638 0.08459
2944.41061 0.08385
2943.12484 0.08305
2941.83908 0.08260
2940.55331 0.08282
2939.26754 0.08368
2937.98177 0.08487
2936.69600 0.08598
2935.41023 0.08687
2934.12446 0.08772
2932.83869 0.08882
2931.55293 0.09016
2930.26716 0.09150
2928.98139 0.09261
2927.69562 0.09353
2926.40985 0.09430
2925.12408 0.09481
2923.83831 0.09490
2922.55254 0.09467
2921.26677 0.09440
2919.98101 0.09420
2918.69524 0.09388
2917.40947 0.09327
2916.12370 0.09247
2914.83793 0.09164
2913.55216 0.09078
2912.26639 0.08987
2910.98062 0.08904
2909.69486 0.08843
2908.40909 0.08788
2907.12332 0.08705
2905.83755 0.08596
2904.55178 0.08500
2903.26601 0.08441
2901.98024 0.08410
2900.69447 0.08383
2899.40870 0.08350
2898.12294 0.08305
2896.83717 0.08235
2895.55140 0.08137
2894.26563 0.08028
2892.97986 0.07929
2891.69409 0.07849
2890.40832 0.07777
2889.12255 0.07695
2887.83678 0.07604
2886.55102 0.07516
2885.26525 0.07450
2883.97948 0.07417
2882.69371 0.07416
2881.40794 0.07434
2880.12217 0.07453
2878.83640 0.07460
2877.55063 0.07466
2876.26487 0.07501
2874.97910 0.07579
2873.69333 0.07682
2872.40756 0.07776
2871.12179 0.07845
2869.83602 0.07893
2868.55025 0.07923
2867.26448 0.07925
2865.97871 0.07891
2864.69295 0.07833
2863.40718 0.07781
2862.12141 0.07759
2860.83564 0.07772
2859.54987 0.07808
2858.26410 0.07841
2856.97833 0.07852
2855.69256 0.07839
2854.40680 0.07819
2853.12103 0.07800
2851.83526 0.07774
2850.54949 0.07729
2849.26372 0.07663
2847.97795 0.07591
2846.69218 0.07524
2845.40641 0.07461
2844.12064 0.07387
2842.83488 0.07288
2841.54911 0.07163
2840.26334 0.07024
2838.97757 0.06896
2837.69180 0.06789
2836.40603 0.06695
2835.12026 0.06600
2833.83449 0.06502
2832.54873 0.06421
2831.26296 0.06367
2829.97719 0.06329
2828.69142 0.06286
2827.40565 0.06231
2826.11988 0.06168
2824.83411 0.06104
2823.54834 0.06047
2822.26257 0.06004
2820.97681 0.05977
2819.69104 0.05958
2818.40527 0.05942
2817.11950 0.05929
2815.83373 0.05922
2814.54796 0.05921
2813.26219 0.05920
2811.97642 0.05916
2810.69066 0.05905
2809.40489 0.05886
2808.11912 0.05866
2806.83335 0.05852
2805.54758 0.05836
2804.26181 0.05804
2802.97604 0.05758
2801.69027 0.05721
2800.40450 0.05711
2799.11874 0.05722
2797.83297 0.05726
2796.54720 0.05706
2795.26143 0.05670
2793.97566 0.05645
2792.68989 0.05643
2791.40412 0.05656
2790.11835 0.05666
2788.83259 0.05662
2787.54682 0.05641
2786.26105 0.05599
2784.97528 0.05548
2783.68951 0.05507
2782.40374 0.05489
2781.11797 0.05498
2779.83220 0.05522
2778.54643 0.05546
2777.26067 0.05553
2775.97490 0.05536
2774.68913 0.05506
2773.40336 0.05481
2772.11759 0.05472
2770.83182 0.05476
2769.54605 0.05487
2768.26028 0.05493
2766.97452 0.05479
2765.68875 0.05446
2764.40298 0.05416
2763.11721 0.05405
2761.83144 0.05414
2760.54567 0.05427
2759.25990 0.05435
2757.97413 0.05437
2756.68836 0.05428
2755.40260 0.05411
2754.11683 0.05397
2752.83106 0.05394
2751.54529 0.05393
2750.25952 0.05378
2748.97375 0.05347
2747.68798 0.05311
2746.40221 0.05278
2745.11645 0.05246
2743.83068 0.05218
2742.54491 0.05207
2741.25914 0.05219
2739.97337 0.05245
2738.68760 0.05270
2737.40183 0.05283
2736.11606 0.05281
2734.83029 0.05266
2733.54453 0.05245
2732.25876 0.05234
2730.97299 0.05240
2729.68722 0.05254
2728.40145 0.05260
2727.11568 0.05247
2725.82991 0.05217
2724.54414 0.05176
2723.25838 0.05136
2721.97261 0.05108
2720.68684 0.05100
2719.40107 0.05110
2718.11530 0.05128
2716.82953 0.05142
2715.54376 0.05147
2714.25799 0.05145
2712.97222 0.05140
2711.68646 0.05135
2710.40069 0.05124
2709.11492 0.05107
2707.82915 0.05091
2706.54338 0.05080
2705.25761 0.05073
2703.97184 0.05065
2702.68607 0.05052
2701.40031 0.05033
2700.11454 0.05010
2698.82877 0.04988
2697.54300 0.04973
2696.25723 0.04969
2694.97146 0.04975
2693.68569 0.04980
2692.39992 0.04973
2691.11415 0.04956
2689.82839 0.04949
2688.54262 0.04965
2687.25685 0.04993
2685.97108 0.05004
2684.68531 0.04987
2683.39954 0.04958
2682.11377 0.04942
2680.82800 0.04947
2679.54224 0.04963
2678.25647 0.04970
2676.97070 0.04955
2675.68493 0.04925
2674.39916 0.04897
2673.11339 0.04891
2671.82762 0.04910
2670.54185 0.04939
2669.25608 0.04954
2667.97032 0.04941
2666.68455 0.04907
2665.39878 0.04875
2664.11301 0.04865
2662.82724 0.04880
2661.54147 0.04898
2660.25570 0.04899
2658.96993 0.04887
2657.68417 0.04880
2656.39840 0.04890
2655.11263 0.04912
2653.82686 0.04930
2652.54109 0.04930
2651.25532 0.04906
2649.96955 0.04861
2648.68378 0.04806
2647.39801 0.04758
2646.11225 0.04726
2644.82648 0.04709
2643.54071 0.04704
2642.25494 0.04703
2640.96917 0.04699
2639.68340 0.04685
2638.39763 0.04661
2637.11186 0.04629
2635.82609 0.04589
2634.54033 0.04547
2633.25456 0.04511
2631.96879 0.04494
2630.68302 0.04504
2629.39725 0.04545
2628.11148 0.04606
2626.82571 0.04659
2625.53994 0.04670
2624.25418 0.04632
2622.96841 0.04573
2621.68264 0.04525
2620.39687 0.04495
2619.11110 0.04472
2617.82533 0.04455
2616.53956 0.04453
2615.25379 0.04471
2613.96802 0.04498
2612.68226 0.04515
2611.39649 0.04506
2610.11072 0.04474
2608.82495 0.04434
2607.53918 0.04401
2606.25341 0.04380
2604.96764 0.04364
2603.68187 0.04347
2602.39611 0.04333
2601.11034 0.04329
2599.82457 0.04334
2598.53880 0.04325
2597.25303 0.04286
2595.96726 0.04227
2594.68149 0.04177
2593.39572 0.04155
2592.10995 0.04154
2590.82419 0.04154
2589.53842 0.04148
2588.25265 0.04140
2586.96688 0.04136
2585.68111 0.04134
2584.39534 0.04126
2583.10957 0.04118
2581.82380 0.04115
2580.53804 0.04117
2579.25227 0.04112
2577.96650 0.04090
2576.68073 0.04055
2575.39496 0.04023
2574.10919 0.04013
2572.82342 0.04031
2571.53765 0.04063
2570.25188 0.04093
2568.96612 0.04115
2567.68035 0.04134
2566.39458 0.04158
2565.10881 0.04179
2563.82304 0.04180
2562.53727 0.04146
2561.25150 0.04085
2559.96573 0.04024
2558.67997 0.03979
2557.39420 0.03946
2556.10843 0.03921
2554.82266 0.03915
2553.53689 0.03928
2552.25112 0.03930
2550.96535 0.03902
2549.67958 0.03861
2548.39381 0.03836
2547.10805 0.03835
2545.82228 0.03844
2544.53651 0.03854
2543.25074 0.03868
2541.96497 0.03885
2540.67920 0.03902
2539.39343 0.03913
2538.10766 0.03908
2536.82190 0.03883
2535.53613 0.03844
2534.25036 0.03816
2532.96459 0.03824
2531.67882 0.03865
2530.39305 0.03902
2529.10728 0.03899
2527.82151 0.03860
2526.53574 0.03829
2525.24998 0.03844
2523.96421 0.03899
2522.67844 0.03953
2521.39267 0.03967
2520.10690 0.03937
2518.82113 0.03879
2517.53536 0.03815
2516.24959 0.03762
2514.96383 0.03726
2513.67806 0.03705
2512.39229 0.03694
2511.10652 0.03694
2509.82075 0.03702
2508.53498 0.03707
2507.24921 0.03689
2505.96344 0.03650
2504.67767 0.03618
2503.39191 0.03619
2502.10614 0.03650
2500.82037 0.03687
2499.53460 0.03718
2498.24883 0.03744
2496.96306 0.03770
2495.67729 0.03791
2494.39152 0.03795
2493.10576 0.03780
2491.81999 0.03753
2490.53422 0.03723
2489.24845 0.03696
2487.96268 0.03686
2486.67691 0.03701
2485.39114 0.03736
2484.10537 0.03772
2482.81960 0.03792
2481.53384 0.03788
2480.24807 0.03757
2478.96230 0.03706
2477.67653 0.03662
2476.39076 0.03647
2475.10499 0.03658
2473.81922 0.03671
2472.53345 0.03666
2471.24769 0.03636
2469.96192 0.03595
2468.67615 0.03567
2467.39038 0.03574
2466.10461 0.03609
2464.81884 0.03646
2463.53307 0.03657
2462.24730 0.03642
2460.96153 0.03625
2459.67577 0.03628
2458.39000 0.03657
2457.10423 0.03693
2455.81846 0.03714
2454.53269 0.03711
2453.24692 0.03693
2451.96115 0.03683
2450.67538 0.03696
2449.38962 0.03729
2448.10385 0.03765
2446.81808 0.03776
2445.53231 0.03745
2444.24654 0.03677
2442.96077 0.03597
2441.67500 0.03538
2440.38923 0.03521
2439.10346 0.03547
2437.81770 0.03589
2436.53193 0.03618
2435.24616 0.03618
2433.96039 0.03600
2432.67462 0.03585
2431.38885 0.03590
2430.10308 0.03609
2428.81731 0.03620
2427.53155 0.03606
2426.24578 0.03574
2424.96001 0.03546
2423.67424 0.03533
2422.38847 0.03528
2421.10270 0.03518
2419.81693 0.03501
2418.53116 0.03487
2417.24539 0.03481
2415.95963 0.03479
2414.67386 0.03483
2413.38809 0.03500
2412.10232 0.03531
2410.81655 0.03564
2409.53078 0.03580
2408.24501 0.03571
2406.95924 0.03542
2405.67347 0.03512
2404.38771 0.03498
2403.10194 0.03506
2401.81617 0.03523
2400.53040 0.03537
2399.24463 0.03627
2397.95886 0.03582
2396.67309 0.03557
2395.38732 0.03575
2394.10156 0.03594
2392.81579 0.03598
2391.53002 0.03586
2390.24425 0.03559
2388.95848 0.03523
2387.67271 0.03491
2386.38694 0.03473
2385.10117 0.03468
2383.81540 0.03468
2382.52964 0.03461
2381.24387 0.03446
2379.95810 0.03428
2378.67233 0.03413
2377.38656 0.03410
2376.10079 0.03425
2374.81502 0.03446
2373.52925 0.03465
2372.24349 0.03472
2370.95772 0.03475
2369.67195 0.03474
2368.38618 0.03483
2367.10041 0.03505
2365.81464 0.03540
2364.52887 0.03557
2363.24310 0.03566
2361.95733 0.03587
2360.67157 0.03636
2359.38580 0.03663
2358.10003 0.03653
2356.81426 0.03623
2355.52849 0.03592
2354.24272 0.03570
2352.95695 0.03558
2351.67118 0.03576
2350.38542 0.03602
2349.09965 0.03594
2347.81388 0.03557
2346.52811 0.03570
2345.24234 0.03615
2343.95657 0.03600
2342.67080 0.03530
2341.38503 0.03551
2340.09926 0.03671
2338.81350 0.03685
2337.52773 0.03575
2336.24196 0.03589
2334.95619 0.03695
2333.67042 0.03645
2332.38465 0.03509
2331.09888 0.03571
2329.81311 0.03654
2328.52735 0.03575
2327.24158 0.03640
2325.95581 0.03785
2324.67004 0.03756
2323.38427 0.03739
2322.09850 0.03784
2320.81273 0.03706
2319.52696 0.03686
2318.24119 0.03715
2316.95543 0.03649
2315.66966 0.03601
2314.38389 0.03560
2313.09812 0.03482
2311.81235 0.03453
2310.52658 0.03419
2309.24081 0.03382
2307.95504 0.03364
2306.66928 0.03327
2305.38351 0.03302
2304.09774 0.03278
2302.81197 0.03251
2301.52620 0.03236
2300.24043 0.03217
2298.95466 0.03206
2297.66889 0.03199
2296.38312 0.03202
2295.09736 0.03220
2293.81159 0.03242
2292.52582 0.03260
2291.24005 0.03264
2289.95428 0.03265
2288.66851 0.03271
2287.38274 0.03279
2286.09697 0.03270
2284.81121 0.03234
2283.52544 0.03180
2282.23967 0.03131
2280.95390 0.03109
2279.66813 0.03113
2278.38236 0.03120
2277.09659 0.03107
2275.81082 0.03081
2274.52505 0.03065
2273.23929 0.03074
2271.95352 0.03086
2270.66775 0.03064
2269.38198 0.02987
2268.09621 0.02878
2266.81044 0.02786
2265.52467 0.02753
2264.23890 0.02776
2262.95314 0.02810
2261.66737 0.02808
2260.38160 0.02758
2259.09583 0.02691
2257.81006 0.02642
2256.52429 0.02609
2255.23852 0.02579
2253.95275 0.02563
2252.66698 0.02572
2251.38122 0.02579
2250.09545 0.02593
2248.80968 0.02719
2247.52391 0.02710
2246.23814 0.02665
2244.95237 0.02610
2243.66660 0.02557
2242.38083 0.02516
2241.09507 0.02488
2239.80930 0.02476
2238.52353 0.02476
2237.23776 0.02482
2235.95199 0.02489
2234.66622 0.02500
2233.38045 0.02528
2232.09468 0.02579
2230.80891 0.02621
2229.52315 0.02595
2228.23738 0.02471
2226.95161 0.02295
2225.66584 0.02152
2224.38007 0.02085
2223.09430 0.02068
2221.80853 0.02065
2220.52276 0.02068
2219.23700 0.02089
2217.95123 0.02123
2216.66546 0.02159
2215.37969 0.02200
2214.09392 0.02266
2212.80815 0.02363
2211.52238 0.02467
2210.23661 0.02539
2208.95084 0.02551
2207.66508 0.02496
2206.37931 0.02384
2205.09354 0.02252
2203.80777 0.02159
2202.52200 0.02137
2201.23623 0.02151
2199.95046 0.02142
2198.66469 0.02089
2197.37893 0.02018
2196.09316 0.01951
2194.80739 0.01900
2193.52162 0.01894
2192.23585 0.01958
2190.95008 0.02072
2189.66431 0.02179
2188.37854 0.02230
2187.09277 0.02211
2185.80701 0.02122
2184.52124 0.01979
2183.23547 0.01832
2181.94970 0.01747
2180.66393 0.01745
2179.37816 0.01784
2178.09239 0.01805
2176.80662 0.01791
2175.52085 0.01758
2174.23509 0.01701
2172.94932 0.01595
2171.66355 0.01465
2170.37778 0.01413
2169.09201 0.01534
2167.80624 0.01787
2166.52047 0.01999
2165.23470 0.02007
2163.94894 0.01812
2162.66317 0.01564
2161.37740 0.01399
2160.09163 0.01307
2158.80586 0.01201
2157.52009 0.01088
2156.23432 0.01057
2154.94855 0.01125
2153.66278 0.01212
2152.37702 0.01261
2151.09125 0.01302
2149.80548 0.01379
2148.51971 0.01475
2147.23394 0.01545
2145.94817 0.01569
2144.66240 0.01555
2143.37663 0.01521
2142.09087 0.01487
2140.80510 0.01477
2139.51933 0.01495
2138.23356 0.01522
2136.94779 0.01546
2135.66202 0.01576
2134.37625 0.01631
2133.09048 0.01698
2131.80471 0.01747
2130.51895 0.01769
2129.23318 0.01786
2127.94741 0.01822
2126.66164 0.01878
2125.37587 0.01934
2124.09010 0.01972
2122.80433 0.01984
2121.51856 0.01977
2120.23280 0.01967
2118.94703 0.01969
2117.66126 0.01995
2116.37549 0.02045
2115.08972 0.02106
2113.80395 0.02153
2112.51818 0.02171
2111.23241 0.02171
2109.94664 0.02175
2108.66088 0.02187
2107.37511 0.02183
2106.08934 0.02146
2104.80357 0.02100
2103.51780 0.02079
2102.23203 0.02087
2100.94626 0.02101
2099.66049 0.02102
2098.37473 0.02124
2097.08896 0.02120
2095.80319 0.02088
2094.51742 0.02042
2093.23165 0.01999
2091.94588 0.01978
2090.66011 0.01980
2089.37434 0.01987
2088.08857 0.01982
2086.80281 0.01959
2085.51704 0.01919
2084.23127 0.01863
2082.94550 0.01796
2081.65973 0.01737
2080.37396 0.01711
2079.08819 0.01730
2077.80242 0.01776
2076.51666 0.01813
2075.23089 0.01817
2073.94512 0.01803
2072.65935 0.01797
2071.37358 0.01809
2070.08781 0.01811
2068.80204 0.01784
2067.51627 0.01735
2066.23050 0.01683
2064.94474 0.01631
2063.65897 0.01571
2062.37320 0.01503
2061.08743 0.01449
2059.80166 0.01431
2058.51589 0.01453
2057.23012 0.01494
2055.94435 0.01521
2054.65859 0.01520
2053.37282 0.01514
2052.08705 0.01531
2050.80128 0.01559
2049.51551 0.01543
2048.22974 0.01448
2046.94397 0.01296
2045.65820 0.01134
2044.37243 0.00998
2043.08667 0.00913
2041.80090 0.00913
2040.51513 0.01021
2039.22936 0.01202
2037.94359 0.01370
2036.65782 0.01448
2035.37205 0.01429
2034.08628 0.01350
2032.80052 0.01244
2031.51475 0.01126
2030.22898 0.01016
2028.94321 0.00943
2027.65744 0.00918
2026.37167 0.00919
2025.08590 0.00923
2023.80013 0.00936
2022.51436 0.00971
2021.22860 0.01007
2019.94283 0.01004
2018.65706 0.00956
2017.37129 0.00916
2016.08552 0.00933
2014.79975 0.01006
2013.51398 0.01085
2012.22821 0.01112
2010.94245 0.01056
2009.65668 0.00933
2008.37091 0.00815
2007.08514 0.00782
2005.79937 0.00853
2004.51360 0.00972
2003.22783 0.01083
2001.94206 0.01184
2000.65629 0.01305
1999.37053 0.01446
1998.08476 0.01556
1996.79899 0.01590
1995.51322 0.01555
1994.22745 0.01508
1992.94168 0.01499
1991.65591 0.01522
1990.37014 0.01528
1989.08438 0.01481
1987.79861 0.01397
1986.51284 0.01322
1985.22707 0.01293
1983.94130 0.01315
1982.65553 0.01359
1981.36976 0.01387
1980.08399 0.01377
1978.79822 0.01348
1977.51246 0.01350
1976.22669 0.01411
1974.94092 0.01500
1973.65515 0.01557
1972.36938 0.01560
1971.08361 0.01547
1969.79784 0.01559
1968.51207 0.01598
1967.22631 0.01634
1965.94054 0.01647
1964.65477 0.01650
1963.36900 0.01661
1962.08323 0.01687
1960.79746 0.01712
1959.51169 0.01718
1958.22592 0.01691
1956.94015 0.01631
1955.65439 0.01553
1954.36862 0.01491
1953.08285 0.01479
1951.79708 0.01531
1950.51131 0.01623
1949.22554 0.01704
1947.93977 0.01734
1946.65400 0.01717
1945.36823 0.01691
1944.08247 0.01693
1942.79670 0.01734
1941.51093 0.01804
1940.22516 0.01884
1938.93939 0.01952
1937.65362 0.01986
1936.36785 0.01981
1935.08208 0.01946
1933.79632 0.01897
1932.51055 0.01849
1931.22478 0.01817
1929.93901 0.01812
1928.65324 0.01834
1927.36747 0.01872
1926.08170 0.01909
1924.79593 0.01937
1923.51016 0.01960
1922.22440 0.01985
1920.93863 0.02017
1919.65286 0.02050
1918.36709 0.02070
1917.08132 0.02068
1915.79555 0.02047
1914.50978 0.02034
1913.22401 0.02052
1911.93825 0.02096
1910.65248 0.02134
1909.36671 0.02135
1908.08094 0.02098
1906.79517 0.02046
1905.50940 0.02001
1904.22363 0.01967
1902.93786 0.01943
1901.65209 0.01933
1900.36633 0.01944
1899.08056 0.01974
1897.79479 0.02015
1896.50902 0.02050
1895.22325 0.02069
1893.93748 0.02070
1892.65171 0.02065
1891.36594 0.02064
1890.08018 0.02068
1888.79441 0.02069
1887.50864 0.02063
1886.22287 0.02050
1884.93710 0.02034
1883.65133 0.02020
1882.36556 0.02010
1881.07979 0.02004
1879.79402 0.02003
1878.50826 0.02008
1877.22249 0.02014
1875.93672 0.02015
1874.65095 0.02009
1873.36518 0.02007
1872.07941 0.02020
1870.79364 0.02043
1869.50787 0.02054
1868.22211 0.02036
1866.93634 0.02000
1865.65057 0.01974
1864.36480 0.01973
1863.07903 0.01992
1861.79326 0.02015
1860.50749 0.02029
1859.22172 0.02030
1857.93595 0.02021
1856.65019 0.02008
1855.36442 0.01998
1854.07865 0.01994
1852.79288 0.01997
1851.50711 0.02005
1850.22134 0.02019
1848.93557 0.02040
1847.64980 0.02068
1846.36404 0.02099
1845.07827 0.02118
1843.79250 0.02117
1842.50673 0.02099
1841.22096 0.02084
1839.93519 0.02083
1838.64942 0.02088
1837.36365 0.02091
1836.07788 0.02086
1834.79212 0.02081
1833.50635 0.02080
1832.22058 0.02082
1830.93481 0.02084
1829.64904 0.02084
1828.36327 0.02086
1827.07750 0.02093
1825.79173 0.02106
1824.50597 0.02119
1823.22020 0.02128
1821.93443 0.02129
1820.64866 0.02116
1819.36289 0.02095
1818.07712 0.02076
1816.79135 0.02070
1815.50558 0.02072
1814.21981 0.02073
1812.93405 0.02068
1811.64828 0.02066
1810.36251 0.02071
1809.07674 0.02081
1807.79097 0.02089
1806.50520 0.02094
1805.21943 0.02101
1803.93366 0.02109
1802.64790 0.02111
1801.36213 0.02104
1800.07636 0.02092
1798.79059 0.02085
1797.50482 0.02087
1796.21905 0.02099
1794.93328 0.02116
1793.64751 0.02136
1792.36174 0.02154
1791.07598 0.02165
1789.79021 0.02169
1788.50444 0.02167
1787.21867 0.02162
1785.93290 0.02157
1784.64713 0.02157
1783.36136 0.02163
1782.07559 0.02173
1780.78983 0.02176
1779.50406 0.02166
1778.21829 0.02150
1776.93252 0.02135
1775.64675 0.02125
1774.36098 0.02117
1773.07521 0.02110
1771.78944 0.02106
1770.50367 0.02113
1769.21791 0.02130
1767.93214 0.02145
1766.64637 0.02149
1765.36060 0.02150
1764.07483 0.02158
1762.78906 0.02173
1761.50329 0.02182
1760.21752 0.02182
1758.93176 0.02178
1757.64599 0.02178
1756.36022 0.02180
1755.07445 0.02179
1753.78868 0.02177
1752.50291 0.02177
1751.21714 0.02177
1749.93137 0.02175
1748.64560 0.02174
1747.35984 0.02174
1746.07407 0.02177
1744.78830 0.02183
1743.50253 0.02193
1742.21676 0.02204
1740.93099 0.02215
1739.64522 0.02221
1738.35945 0.02223
1737.07369 0.02228
1735.78792 0.02242
1734.50215 0.02256
1733.21638 0.02256
1731.93061 0.02245
1730.64484 0.02240
1729.35907 0.02248
1728.07330 0.02262
1726.78753 0.02270
1725.50177 0.02273
1724.21600 0.02278
1722.93023 0.02294
1721.64446 0.02324
1720.35869 0.02361
1719.07292 0.02397
1717.78715 0.02422
1716.50138 0.02437
1715.21561 0.02454
1713.92985 0.02482
1712.64408 0.02525
1711.35831 0.02580
1710.07254 0.02645
1708.78677 0.02716
1707.50100 0.02790
1706.21523 0.02861
1704.92946 0.02928
1703.64370 0.02998
1702.35793 0.03078
1701.07216 0.03164
1699.78639 0.03243
1698.50062 0.03318
1697.21485 0.03399
1695.92908 0.03487
1694.64331 0.03565
1693.35754 0.03636
1692.07178 0.03715
1690.78601 0.03806
1689.50024 0.03900
1688.21447 0.03987
1686.92870 0.04069
1685.64293 0.04152
1684.35716 0.04231
1683.07139 0.04306
1681.78563 0.04383
1680.49986 0.04466
1679.21409 0.04549
1677.92832 0.04633
1676.64255 0.04722
1675.35678 0.04815
1674.07101 0.04908
1672.78524 0.05000
1671.49947 0.05096
1670.21371 0.05194
1668.92794 0.05286
1667.64217 0.05367
1666.35640 0.05444
1665.07063 0.05524
1663.78486 0.05611
1662.49909 0.05701
1661.21332 0.05787
1659.92756 0.05866
1658.64179 0.05937
1657.35602 0.06002
1656.07025 0.06072
1654.78448 0.06150
1653.49871 0.06221
1652.21294 0.06265
1650.92717 0.06283
1649.64140 0.06294
1648.35564 0.06309
1647.06987 0.06323
1645.78410 0.06332
1644.49833 0.06335
1643.21256 0.06336
1641.92679 0.06330
1640.64102 0.06312
1639.35525 0.06286
1638.06949 0.06260
1636.78372 0.06236
1635.49795 0.06200
1634.21218 0.06146
1632.92641 0.06083
1631.64064 0.06020
1630.35487 0.05959
1629.06910 0.05894
1627.78333 0.05823
1626.49757 0.05749
1625.21180 0.05676
1623.92603 0.05603
1622.64026 0.05528
1621.35449 0.05451
1620.06872 0.05380
1618.78295 0.05320
1617.49718 0.05266
1616.21142 0.05210
1614.92565 0.05152
1613.63988 0.05103
1612.35411 0.05066
1611.06834 0.05039
1609.78257 0.05014
1608.49680 0.04991
1607.21103 0.04972
1605.92526 0.04956
1604.63950 0.04946
1603.35373 0.04937
1602.06796 0.04928
1600.78219 0.04922
1599.49642 0.04921
1598.21065 0.04929
1596.92488 0.04950
1595.63911 0.04981
1594.35335 0.05017
1593.06758 0.05053
1591.78181 0.05085
1590.49604 0.05114
1589.21027 0.05142
1587.92450 0.05171
1586.63873 0.05204
1585.35296 0.05239
1584.06719 0.05278
1582.78143 0.05323
1581.49566 0.05373
1580.20989 0.05430
1578.92412 0.05498
1577.63835 0.05576
1576.35258 0.05654
1575.06681 0.05720
1573.78104 0.05776
1572.49528 0.05834
1571.20951 0.05898
1569.92374 0.05961
1568.63797 0.06019
1567.35220 0.06072
1566.06643 0.06123
1564.78066 0.06169
1563.49489 0.06210
1562.20912 0.06254
1560.92336 0.06304
1559.63759 0.06351
1558.35182 0.06385
1557.06605 0.06408
1555.78028 0.06432
1554.49451 0.06455
1553.20874 0.06471
1551.92297 0.06481
1550.63721 0.06487
1549.35144 0.06493
1548.06567 0.06496
1546.77990 0.06497
1545.49413 0.06492
1544.20836 0.06480
1542.92259 0.06460
1541.63682 0.06435
1540.35105 0.06402
1539.06529 0.06358
1537.77952 0.06306
1536.49375 0.06261
1535.20798 0.06232
1533.92221 0.06214
1532.63644 0.06200
1531.35067 0.06189
1530.06490 0.06186
1528.77914 0.06190
1527.49337 0.06201
1526.20760 0.06216
1524.92183 0.06236
1523.63606 0.06262
1522.35029 0.06295
1521.06452 0.06330
1519.77875 0.06366
1518.49298 0.06410
1517.20722 0.06464
1515.92145 0.06528
1514.63568 0.06603
1513.34991 0.06690
1512.06414 0.06787
1510.77837 0.06886
1509.49260 0.06988
1508.20683 0.07091
1506.92107 0.07188
1505.63530 0.07271
1504.34953 0.07345
1503.06376 0.07420
1501.77799 0.07500
1500.49222 0.07578
1499.20645 0.07646
1497.92068 0.07702
1496.63491 0.07746
1495.34915 0.07781
1494.06338 0.07816
1492.77761 0.07857
1491.49184 0.07908
1490.20607 0.07968
1488.92030 0.08040
1487.63453 0.08125
1486.34876 0.08220
1485.06299 0.08321
1483.77723 0.08429
1482.49146 0.08544
1481.20569 0.08668
1479.91992 0.08801
1478.63415 0.08943
1477.34838 0.09086
1476.06261 0.09226
1474.77684 0.09360
1473.49108 0.09488
1472.20531 0.09610
1470.91954 0.09723
1469.63377 0.09827
1468.34800 0.09922
1467.06223 0.10012
1465.77646 0.10097
1464.49069 0.10180
1463.20492 0.10260
1461.91916 0.10344
1460.63339 0.10436
1459.34762 0.10538
1458.06185 0.10647
1456.77608 0.10749
1455.49031 0.10836
1454.20454 0.10913
1452.91877 0.10989
1451.63301 0.11063
1450.34724 0.11128
1449.06147 0.11175
1447.77570 0.11199
1446.48993 0.11198
1445.20416 0.11175
1443.91839 0.11134
1442.63262 0.11080
1441.34685 0.11017
1440.06109 0.10948
1438.77532 0.10881
1437.48955 0.10819
1436.20378 0.10765
1434.91801 0.10726
1433.63224 0.10712
1432.34647 0.10728
1431.06070 0.10774
1429.77494 0.10845
1428.48917 0.10937
1427.20340 0.11049
1425.91763 0.11180
1424.63186 0.11329
1423.34609 0.11487
1422.06032 0.11643
1420.77455 0.11785
1419.48878 0.11909
1418.20302 0.12016
1416.91725 0.12112
1415.63148 0.12200
1414.34571 0.12275
1413.05994 0.12326
1411.77417 0.12348
1410.48840 0.12344
1409.20263 0.12316
1407.91687 0.12266
1406.63110 0.12194
1405.34533 0.12096
1404.05956 0.11971
1402.77379 0.11822
1401.48802 0.11657
1400.20225 0.11479
1398.91648 0.11286
1397.63071 0.11080
1396.34495 0.10867
1395.05918 0.10653
1393.77341 0.10437
1392.48764 0.10222
1391.20187 0.10013
1389.91610 0.09815
1388.63033 0.09625
1387.34456 0.09439
1386.05880 0.09252
1384.77303 0.09066
1383.48726 0.08886
1382.20149 0.08711
1380.91572 0.08539
1379.62995 0.08366
1378.34418 0.08187
1377.05841 0.08000
1375.77264 0.07801
1374.48688 0.07591
1373.20111 0.07374
1371.91534 0.07152
1370.62957 0.06935
1369.34380 0.06727
1368.05803 0.06532
1366.77226 0.06350
1365.48649 0.06181
1364.20073 0.06020
1362.91496 0.05864
1361.62919 0.05710
1360.34342 0.05564
1359.05765 0.05434
1357.77188 0.05325
1356.48611 0.05231
1355.20034 0.05145
1353.91457 0.05061
1352.62881 0.04980
1351.34304 0.04910
1350.05727 0.04851
1348.77150 0.04800
1347.48573 0.04751
1346.19996 0.04699
1344.91419 0.04647
1343.62842 0.04597
1342.34266 0.04552
1341.05689 0.04508
1339.77112 0.04461
1338.48535 0.04412
1337.19958 0.04363
1335.91381 0.04317
1334.62804 0.04276
1333.34227 0.04241
1332.05650 0.04210
1330.77074 0.04177
1329.48497 0.04137
1328.19920 0.04089
1326.91343 0.04040
1325.62766 0.03998
1324.34189 0.03965
1323.05612 0.03937
1321.77035 0.03907
1320.48459 0.03874
1319.19882 0.03842
1317.91305 0.03813
1316.62728 0.03789
1315.34151 0.03764
1314.05574 0.03737
1312.76997 0.03707
1311.48420 0.03676
1310.19843 0.03646
1308.91267 0.03617
1307.62690 0.03589
1306.34113 0.03561
1305.05536 0.03532
1303.76959 0.03503
1302.48382 0.03476
1301.19805 0.03451
1299.91228 0.03426
1298.62652 0.03398
1297.34075 0.03367
1296.05498 0.03337
1294.76921 0.03310
1293.48344 0.03289
1292.19767 0.03273
1290.91190 0.03260
1289.62613 0.03249
1288.34036 0.03237
1287.05460 0.03225
1285.76883 0.03215
1284.48306 0.03207
1283.19729 0.03203
1281.91152 0.03199
1280.62575 0.03191
1279.33998 0.03177
1278.05421 0.03158
1276.76845 0.03138
1275.48268 0.03120
1274.19691 0.03105
1272.91114 0.03091
1271.62537 0.03076
1270.33960 0.03061
1269.05383 0.03048
1267.76806 0.03041
1266.48229 0.03040
1265.19653 0.03042
1263.91076 0.03044
1262.62499 0.03041
1261.33922 0.03033
1260.05345 0.03021
1258.76768 0.03011
1257.48191 0.03005
1256.19614 0.03001
1254.91037 0.02997
1253.62461 0.02991
1252.33884 0.02988
1251.05307 0.02988
1249.76730 0.02989
1248.48153 0.02987
1247.19576 0.02981
1245.90999 0.02976
1244.62422 0.02974
1243.33846 0.02973
1242.05269 0.02972
1240.76692 0.02968
1239.48115 0.02962
1238.19538 0.02955
1236.90961 0.02947
1235.62384 0.02938
1234.33807 0.02928
1233.05230 0.02921
1231.76654 0.02915
1230.48077 0.02908
1229.19500 0.02897
1227.90923 0.02881
1226.62346 0.02863
1225.33769 0.02848
1224.05192 0.02834
1222.76615 0.02817
1221.48039 0.02797
1220.19462 0.02773
1218.90885 0.02752
1217.62308 0.02733
1216.33731 0.02715
1215.05154 0.02698
1213.76577 0.02685
1212.48000 0.02681
1211.19423 0.02687
1209.90847 0.02698
1208.62270 0.02706
1207.33693 0.02710
1206.05116 0.02711
1204.76539 0.02713
1203.47962 0.02714
1202.19385 0.02708
1200.90808 0.02696
1199.62232 0.02705
1198.33655 0.02698
1197.05078 0.02685
1195.76501 0.02669
1194.47924 0.02653
1193.19347 0.02642
1191.90770 0.02634
1190.62193 0.02627
1189.33616 0.02622
1188.05040 0.02620
1186.76463 0.02621
1185.47886 0.02620
1184.19309 0.02610
1182.90732 0.02593
1181.62155 0.02576
1180.33578 0.02565
1179.05001 0.02561
1177.76425 0.02564
1176.47848 0.02570
1175.19271 0.02578
1173.90694 0.02584
1172.62117 0.02587
1171.33540 0.02591
1170.04963 0.02599
1168.76386 0.02612
1167.47809 0.02624
1166.19233 0.02634
1164.90656 0.02644
1163.62079 0.02655
1162.33502 0.02665
1161.04925 0.02667
1159.76348 0.02662
1158.47771 0.02658
1157.19194 0.02666
1155.90618 0.02690
1154.62041 0.02724
1153.33464 0.02759
1152.04887 0.02787
1150.76310 0.02804
1149.47733 0.02816
1148.19156 0.02831
1146.90579 0.02856
1145.62002 0.02894
1144.33426 0.02942
1143.04849 0.03001
1141.76272 0.03073
1140.47695 0.03154
1139.19118 0.03241
1137.90541 0.03330
1136.61964 0.03426
1135.33387 0.03538
1134.04811 0.03668
1132.76234 0.03815
1131.47657 0.03978
1130.19080 0.04162
1128.90503 0.04373
1127.61926 0.04609
1126.33349 0.04864
1125.04772 0.05139
1123.76195 0.05435
1122.47619 0.05751
1121.19042 0.06083
1119.90465 0.06425
1118.61888 0.06776
1117.33311 0.07136
1116.04734 0.07505
1114.76157 0.07878
1113.47580 0.08245
1112.19004 0.08600
1110.90427 0.08940
1109.61850 0.09269
1108.33273 0.09591
1107.04696 0.09903
1105.76119 0.10202
1104.47542 0.10491
1103.18965 0.10771
1101.90388 0.11042
1100.61812 0.11300
1099.33235 0.11547
1098.04658 0.11789
1096.76081 0.12032
1095.47504 0.12270
1094.18927 0.12494
1092.90350 0.12694
1091.61773 0.12871
1090.33197 0.13029
1089.04620 0.13180
1087.76043 0.13331
1086.47466 0.13485
1085.18889 0.13638
1083.90312 0.13788
1082.61735 0.13941
1081.33158 0.14107
1080.04581 0.14292
1078.76005 0.14500
1077.47428 0.14729
1076.18851 0.14974
1074.90274 0.15235
1073.61697 0.15510
1072.33120 0.15797
1071.04543 0.16093
1069.75966 0.16392
1068.47390 0.16697
1067.18813 0.17014
1065.90236 0.17344
1064.61659 0.17684
1063.33082 0.18025
1062.04505 0.18366
1060.75928 0.18707
1059.47351 0.19044
1058.18774 0.19372
1056.90198 0.19692
1055.61621 0.20011
1054.33044 0.20339
1053.04467 0.20679
1051.75890 0.21024
1050.47313 0.21369
1049.18736 0.21715
1047.90159 0.22067
1046.61583 0.22430
1045.33006 0.22807
1044.04429 0.23196
1042.75852 0.23593
1041.47275 0.23990
1040.18698 0.24383
1038.90121 0.24776
1037.61544 0.25175
1036.32967 0.25584
1035.04391 0.25996
1033.75814 0.26400
1032.47237 0.26787
1031.18660 0.27151
1029.90083 0.27489
1028.61506 0.27799
1027.32929 0.28077
1026.04352 0.28323
1024.75775 0.28539
1023.47199 0.28725
1022.18622 0.28876
1020.90045 0.28983
1019.61468 0.29039
1018.32891 0.29042
1017.04314 0.28998
1015.75737 0.28914
1014.47160 0.28793
1013.18584 0.28631
1011.90007 0.28425
1010.61430 0.28169
1009.32853 0.27859
1008.04276 0.27490
1006.75699 0.27064
1005.47122 0.26591
1004.18545 0.26076
1002.89968 0.25523
1001.61392 0.24933
1000.32815 0.24311
999.04238 0.23665
997.75661 0.23006
996.47084 0.22340
995.18507 0.21674
993.89930 0.21006
992.61353 0.20335
991.32777 0.19667
990.04200 0.19010
988.75623 0.18373
987.47046 0.17759
986.18469 0.17167
984.89892 0.16595
983.61315 0.16046
982.32738 0.15521
981.04161 0.15021
979.75585 0.14545
978.47008 0.14095
977.18431 0.13674
975.89854 0.13286
974.61277 0.12936
973.32700 0.12638
972.04123 0.12404
970.75546 0.12237
969.46970 0.12129
968.18393 0.12079
966.89816 0.12090
965.61239 0.12157
964.32662 0.12258
963.04085 0.12360
961.75508 0.12435
960.46931 0.12461
959.18354 0.12422
957.89778 0.12308
956.61201 0.12118
955.32624 0.11872
954.04047 0.11597
952.75470 0.11315
951.46893 0.11033
950.18316 0.10751
948.89739 0.10472
947.61163 0.10200
946.32586 0.09942
945.04009 0.09698
943.75432 0.09462
942.46855 0.09229
941.18278 0.09001
939.89701 0.08783
938.61124 0.08578
937.32547 0.08384
936.03971 0.08197
934.75394 0.08019
933.46817 0.07859
932.18240 0.07718
930.89663 0.07594
929.61086 0.07478
928.32509 0.07364
927.03932 0.07247
925.75356 0.07127
924.46779 0.07009
923.18202 0.06899
921.89625 0.06801
920.61048 0.06711
919.32471 0.06620
918.03894 0.06522
916.75317 0.06422
915.46740 0.06333
914.18164 0.06264
912.89587 0.06205
911.61010 0.06141
910.32433 0.06064
909.03856 0.05979
907.75279 0.05900
906.46702 0.05836
905.18125 0.05786
903.89549 0.05741
902.60972 0.05695
901.32395 0.05643
900.03818 0.05583
898.75241 0.05516
897.46664 0.05449
896.18087 0.05391
894.89510 0.05348
893.60933 0.05319
892.32357 0.05297
891.03780 0.05278
889.75203 0.05267
888.46626 0.05278
887.18049 0.05328
885.89472 0.05435
884.60895 0.05616
883.32318 0.05881
882.03742 0.06209
880.75165 0.06543
879.46588 0.06816
878.18011 0.07002
876.89434 0.07134
875.60857 0.07275
874.32280 0.07452
873.03703 0.07631
871.75126 0.07752
870.46550 0.07775
869.17973 0.07694
867.89396 0.07525
866.60819 0.07291
865.32242 0.07013
864.03665 0.06715
862.75088 0.06424
861.46511 0.06158
860.17935 0.05929
858.89358 0.05739
857.60781 0.05589
856.32204 0.05469
855.03627 0.05366
853.75050 0.05270
852.46473 0.05181
851.17896 0.05101
849.89319 0.05035
848.60743 0.04979
847.32166 0.04930
846.03589 0.04881
844.75012 0.04833
843.46435 0.04787
842.17858 0.04746
840.89281 0.04714
839.60704 0.04687
838.32128 0.04665
837.03551 0.04640
835.74974 0.04607
834.46397 0.04565
833.17820 0.04519
831.89243 0.04477
830.60666 0.04446
829.32089 0.04428
828.03512 0.04421
826.74936 0.04419
825.46359 0.04415
824.17782 0.04406
822.89205 0.04391
821.60628 0.04374
820.32051 0.04359
819.03474 0.04344
817.74897 0.04326
816.46321 0.04303
815.17744 0.04281
813.89167 0.04266
812.60590 0.04256
811.32013 0.04242
810.03436 0.04222
808.74859 0.04198
807.46282 0.04176
806.17705 0.04155
804.89129 0.04136
803.60552 0.04126
802.31975 0.04131
801.03398 0.04145
799.74821 0.04157
798.46244 0.04154
797.17667 0.04134
795.89090 0.04109
794.60513 0.04089
793.31937 0.04078
792.03360 0.04066
790.74783 0.04049
789.46206 0.04030
788.17629 0.04018
786.89052 0.04018
785.60475 0.04025
784.31898 0.04031
783.03322 0.04030
781.74745 0.04025
780.46168 0.04020
779.17591 0.04014
777.89014 0.04001
776.60437 0.03978
775.31860 0.03948
774.03283 0.03922
772.74706 0.03907
771.46130 0.03907
770.17553 0.03917
768.88976 0.03929
767.60399 0.03938
766.31822 0.03944
765.03245 0.03952
763.74668 0.03963
762.46091 0.03968
761.17515 0.03962
759.88938 0.03951
758.60361 0.03944
757.31784 0.03945
756.03207 0.03951
754.74630 0.03960
753.46053 0.03972
752.17476 0.03984
750.88899 0.03989
749.60323 0.03983
748.31746 0.03972
747.03169 0.03960
745.74592 0.03951
744.46015 0.03939
743.17438 0.03921
741.88861 0.03897
740.60284 0.03876
739.31708 0.03868
738.03131 0.03869
736.74554 0.03871
735.45977 0.03866
734.17400 0.03857
732.88823 0.03849
731.60246 0.03844
730.31669 0.03844
729.03092 0.03851
727.74516 0.03861
726.45939 0.03869
725.17362 0.03870
723.88785 0.03882
722.60208 0.03857
721.31631 0.03840
720.03054 0.03835
718.74477 0.03832
717.45901 0.03828
716.17324 0.03823
714.88747 0.03817
713.60170 0.03808
712.31593 0.03796
711.03016 0.03785
709.74439 0.03776
708.45862 0.03769
707.17285 0.03762
705.88709 0.03754
704.60132 0.03748
703.31555 0.03748
702.02978 0.03751
700.74401 0.03754
699.45824 0.03751
698.17247 0.03744
696.88670 0.03736
695.60094 0.03731
694.31517 0.03729
693.02940 0.03729
691.74363 0.03729
690.45786 0.03730
689.17209 0.03730
687.88632 0.03728
686.60055 0.03721
685.31478 0.03706
684.02902 0.03686
682.74325 0.03665
681.45748 0.03650
680.17171 0.03642
678.88594 0.03639
677.60017 0.03640
676.31440 0.03646
675.02863 0.03656
673.74287 0.03669
672.45710 0.03690
671.17133 0.03719
669.88556 0.03754
668.59979 0.03770
667.31402 0.03774
666.02825 0.03787
664.74248 0.03771
663.45671 0.03748
662.17095 0.03728
660.88518 0.03711
659.59941 0.03698
658.31364 0.03687
657.02787 0.03673
655.74210 0.03654
654.45633 0.03634
653.17056 0.03616
651.88480 0.03605
650.59903 0.03599
649.31326 0.03600
648.02749 0.03604
646.74172 0.03609
645.45595 0.03614
644.17018 0.03618
642.88441 0.03619
641.59864 0.03614
640.31288 0.03607
639.02711 0.03604
637.74134 0.03609
636.45557 0.03623
635.16980 0.03645
633.88403 0.03677
632.59826 0.03711
631.31249 0.03683
630.02673 0.03569
628.74096 0.03635
627.45519 0.03887
626.16942 0.04107
624.88365 0.04285
623.59788 0.04448
622.31211 0.04612
621.02634 0.04793
619.74057 0.04988
618.45481 0.05176
617.16904 0.05366
615.88327 0.05625
614.59750 0.06047
613.31173 0.06674
612.02596 0.07447
610.74019 0.08235
609.45442 0.08944
608.16866 0.09573
606.88289 0.10128
605.59712 0.10580
604.31135 0.10893
603.02558 0.11061
601.73981 0.11086
600.45404 0.10965
599.16827 0.10715
597.88250 0.10379
596.59674 0.10009
595.31097 0.09647
594.02520 0.09324
592.73943 0.09061
591.45366 0.08864
590.16789 0.08730
588.88212 0.08653
587.59635 0.08637
586.31059 0.08690
585.02482 0.08814
583.73905 0.09001
582.45328 0.09241
581.16751 0.09515
579.88174 0.09806
578.59597 0.10098
577.31020 0.10384
576.02443 0.10665
574.73867 0.10943
573.45290 0.11218
572.16713 0.11495
570.88136 0.11790
569.59559 0.12126
568.30982 0.12518
567.02405 0.12967
565.73828 0.13444
564.45251 0.13896
563.16675 0.14260
561.88098 0.14476
560.59521 0.14512
559.30944 0.14359
558.02367 0.14029
556.73790 0.13549
555.45213 0.12962
554.16636 0.12316
552.88060 0.11648
551.59483 0.10985
550.30906 0.10353
549.02329 0.09775
547.73752 0.09267
546.45175 0.08831
545.16598 0.08450
543.88021 0.08108
542.59444 0.07799
541.30868 0.07525
540.02291 0.07280
538.73714 0.07053
537.45137 0.06832
536.16560 0.06619
534.87983 0.06425
533.59406 0.06254
532.30829 0.06102
531.02253 0.05959
529.73676 0.05818
528.45099 0.05676
527.16522 0.05532
525.87945 0.05393
524.59368 0.05271
523.30791 0.05173
522.02214 0.05093
520.73637 0.05017
519.45061 0.04934
518.16484 0.04843
516.87907 0.04753
515.59330 0.04668
514.30753 0.04591
513.02176 0.04520
511.73599 0.04457
510.45022 0.04400
509.16446 0.04344
507.87869 0.04286
506.59292 0.04229
505.30715 0.04178
504.02138 0.04132
502.73561 0.04086
501.44984 0.04034
500.16407 0.03974
498.87830 0.03914
497.59254 0.03857
496.30677 0.03804
495.02100 0.03759
493.73523 0.03724
492.44946 0.03700
491.16369 0.03680
489.87792 0.03658
488.59215 0.03629
487.30639 0.03597
486.02062 0.03569
484.73485 0.03553
483.44908 0.03554
482.16331 0.03573
480.87754 0.03602
479.59177 0.03633
478.30600 0.03662
477.02023 0.03691
475.73447 0.03718
474.44870 0.03740
473.16293 0.03753
471.87716 0.03758
470.59139 0.03759
469.30562 0.03758
468.01985 0.03748
466.73408 0.03726
465.44832 0.03689
464.16255 0.03639
462.87678 0.03581
461.59101 0.03522
460.30524 0.03469
459.01947 0.03427
457.73370 0.03395
456.44793 0.03368
455.16216 0.03335
453.87640 0.03290
452.59063 0.03234
451.30486 0.03176
450.01909 0.03124
448.73332 0.03078
447.44755 0.03035
446.16178 0.02995
444.87601 0.02960
443.59025 0.02936
442.30448 0.02920
441.01871 0.02907
439.73294 0.02892
438.44717 0.02875
437.16140 0.02858
435.87563 0.02844
434.58986 0.02834
433.30409 0.02824
432.01833 0.02808
430.73256 0.02787
429.44679 0.02764
428.16102 0.02741
426.87525 0.02718
425.58948 0.02695
424.30371 0.02673
423.01794 0.02652
421.73218 0.02632
420.44641 0.02614
419.16064 0.02596
417.87487 0.02575
416.58910 0.02550
415.30333 0.02526
414.01756 0.02507
412.73179 0.02495
411.44602 0.02487
410.16026 0.02479
408.87449 0.02466
407.58872 0.02451
406.30295 0.02441
405.01718 0.02439
403.73141 0.02445
402.44564 0.02455
401.15987 0.02464
399.87411 0.02471
