3997.45528 0.03978
3996.16951 0.04180
3994.88374 0.04285
3993.59798 0.04258
3992.31221 0.04150
3991.02644 0.04037
3989.74067 0.03974
3988.45490 0.03974
3987.16913 0.04009
3985.88336 0.04031
3984.59759 0.04006
3983.31183 0.03944
3982.02606 0.03893
3980.74029 0.03887
3979.45452 0.03904
3978.16875 0.03891
3976.88298 0.03822
3975.59721 0.03731
3974.31144 0.03679
3973.02567 0.03698
3971.73991 0.03764
3970.45414 0.03822
3969.16837 0.03825
3967.88260 0.03785
3966.59683 0.03763
3965.31106 0.03811
3964.02529 0.03919
3962.73952 0.04028
3961.45376 0.04087
3960.16799 0.04096
3958.88222 0.04083
3957.59645 0.04066
3956.31068 0.04047
3955.02491 0.04020
3953.73914 0.03969
3952.45337 0.03885
3951.16760 0.03787
3949.88184 0.03721
3948.59607 0.03728
3947.31030 0.03807
3946.02453 0.03911
3944.73876 0.03986
3943.45299 0.03996
3942.16722 0.03939
3940.88145 0.03843
3939.59569 0.03760
3938.30992 0.03743
3937.02415 0.03804
3935.73838 0.03904
3934.45261 0.03990
3933.16684 0.04038
3931.88107 0.04052
3930.59530 0.04042
3929.30953 0.04018
3928.02377 0.03987
3926.73800 0.03942
3925.45223 0.03871
3924.16646 0.03784
3922.88069 0.03716
3921.59492 0.03692
3920.30915 0.03709
3919.02338 0.03757
3917.73762 0.03830
3916.45185 0.03905
3915.16608 0.03945
3913.88031 0.03938
3912.59454 0.03910
3911.30877 0.03889
3910.02300 0.03881
3908.73723 0.03900
3907.45146 0.03968
3906.16570 0.04082
3904.87993 0.04179
3903.59416 0.04193
3902.30839 0.04116
3901.02262 0.04016
3899.73685 0.03967
3898.45108 0.03990
3897.16531 0.04060
3895.87955 0.04135
3894.59378 0.04183
3893.30801 0.04192
3892.02224 0.04168
3890.73647 0.04138
3889.45070 0.04116
3888.16493 0.04088
3886.87916 0.04036
3885.59339 0.03974
3884.30763 0.03941
3883.02186 0.03953
3881.73609 0.03983
3880.45032 0.04003
3879.16455 0.04018
3877.87878 0.04052
3876.59301 0.04100
3875.30724 0.04124
3874.02148 0.04098
3872.73571 0.04034
3871.44994 0.03962
3870.16417 0.03900
3868.87840 0.03860
3867.59263 0.03863
3866.30686 0.03915
3865.02109 0.03966
3863.73532 0.03938
3862.44956 0.03816
3861.16379 0.03682
3859.87802 0.03645
3858.59225 0.03726
3857.30648 0.03847
3856.02071 0.03915
3854.73494 0.03902
3853.44917 0.03839
3852.16341 0.03772
3850.87764 0.03730
3849.59187 0.03713
3848.30610 0.03697
3847.02033 0.03660
3845.73456 0.03606
3844.44879 0.03583
3843.16302 0.03625
3841.87725 0.03715
3840.59149 0.03800
3839.30572 0.03849
3838.01995 0.03874
3836.73418 0.03896
3835.44841 0.03903
3834.16264 0.03865
3832.87687 0.03774
3831.59110 0.03671
3830.30534 0.03613
3829.01957 0.03620
3827.73380 0.03654
3826.44803 0.03664
3825.16226 0.03640
3823.87649 0.03619
3822.59072 0.03638
3821.30495 0.03692
3820.01918 0.03742
3818.73342 0.03757
3817.44765 0.03742
3816.16188 0.03711
3814.87611 0.03672
3813.59034 0.03635
3812.30457 0.03632
3811.01880 0.03696
3809.73303 0.03812
3808.44726 0.03911
3807.16150 0.03930
3805.87573 0.03866
3804.58996 0.03766
3803.30419 0.03689
3802.01842 0.03680
3800.73265 0.03741
3799.44688 0.03825
3798.16111 0.03858
3796.87535 0.03800
3795.58958 0.03681
3794.30381 0.03568
3793.01804 0.03505
3791.73227 0.03499
3790.44650 0.03538
3789.16073 0.03606
3787.87496 0.03677
3786.58919 0.03719
3785.30343 0.03711
3784.01766 0.03658
3782.73189 0.03577
3781.44612 0.03488
3780.16035 0.03414
3778.87458 0.03377
3777.58881 0.03379
3776.30304 0.03410
3775.01728 0.03454
3773.73151 0.03501
3772.44574 0.03550
3771.15997 0.03608
3769.87420 0.03683
3768.58843 0.03758
3767.30266 0.03790
3766.01689 0.03752
3764.73112 0.03676
3763.44536 0.03625
3762.15959 0.03633
3760.87382 0.03677
3759.58805 0.03703
3758.30228 0.03684
3757.01651 0.03624
3755.73074 0.03547
3754.44497 0.03472
3753.15921 0.03416
3751.87344 0.03397
3750.58767 0.03419
3749.30190 0.03463
3748.01613 0.03501
3746.73036 0.03521
3745.44459 0.03548
3744.15882 0.03607
3742.87305 0.03694
3741.58729 0.03771
3740.30152 0.03794
3739.01575 0.03730
3737.72998 0.03587
3736.44421 0.03428
3735.15844 0.03341
3733.87267 0.03370
3732.58690 0.03474
3731.30114 0.03559
3730.01537 0.03543
3728.72960 0.03423
3727.44383 0.03268
3726.15806 0.03164
3724.87229 0.03149
3723.58652 0.03201
3722.30075 0.03283
3721.01498 0.03388
3719.72922 0.03525
3718.44345 0.03667
3717.15768 0.03744
3715.87191 0.03697
3714.58614 0.03542
3713.30037 0.03371
3712.01460 0.03282
3710.72883 0.03299
3709.44307 0.03364
3708.15730 0.03404
3706.87153 0.03389
3705.58576 0.03342
3704.29999 0.03300
3703.01422 0.03300
3701.72845 0.03347
3700.44268 0.03394
3699.15691 0.03388
3697.87115 0.03353
3696.58538 0.03359
3695.29961 0.03416
3694.01384 0.03480
3692.72807 0.03525
3691.44230 0.03550
3690.15653 0.03557
3688.87076 0.03562
3687.58500 0.03576
3686.29923 0.03587
3685.01346 0.03571
3683.72769 0.03508
3682.44192 0.03416
3681.15615 0.03364
3679.87038 0.03413
3678.58461 0.03551
3677.29884 0.03718
3676.01308 0.03851
3674.72731 0.03923
3673.44154 0.03943
3672.15577 0.03926
3670.87000 0.03893
3669.58423 0.03846
3668.29846 0.03767
3667.01269 0.03652
3665.72693 0.03536
3664.44116 0.03484
3663.15539 0.03529
3661.86962 0.03635
3660.58385 0.03730
3659.29808 0.03769
3658.01231 0.03760
3656.72654 0.03732
3655.44077 0.03705
3654.15501 0.03685
3652.86924 0.03666
3651.58347 0.03634
3650.29770 0.03585
3649.01193 0.03547
3647.72616 0.03560
3646.44039 0.03635
3645.15462 0.03727
3643.86886 0.03782
3642.58309 0.03779
3641.29732 0.03752
3640.01155 0.03747
3638.72578 0.03771
3637.44001 0.03789
3636.15424 0.03771
3634.86847 0.03741
3633.58270 0.03758
3632.29694 0.03859
3631.01117 0.04029
3629.72540 0.04206
3628.43963 0.04327
3627.15386 0.04368
3625.86809 0.04347
3624.58232 0.04312
3623.29655 0.04294
3622.01079 0.04302
3620.72502 0.04330
3619.43925 0.04370
3618.15348 0.04407
3616.86771 0.04430
3615.58194 0.04430
3614.29617 0.04406
3613.01040 0.04363
3611.72463 0.04311
3610.43887 0.04272
3609.15310 0.04269
3607.86733 0.04308
3606.58156 0.04361
3605.29579 0.04377
3604.01002 0.04330
3602.72425 0.04257
3601.43848 0.04227
3600.15272 0.04270
3598.86695 0.04346
3597.58118 0.04412
3596.29541 0.04456
3595.00964 0.04481
3593.72387 0.04480
3592.43810 0.04481
3591.15233 0.04535
3589.86656 0.04654
3588.58080 0.04798
3587.29503 0.04903
3586.00926 0.04925
3584.72349 0.04862
3583.43772 0.04765
3582.15195 0.04698
3580.86618 0.04690
3579.58041 0.04738
3578.29464 0.04816
3577.00888 0.04893
3575.72311 0.04951
3574.43734 0.04977
3573.15157 0.04979
3571.86580 0.04983
3570.58003 0.05019
3569.29426 0.05080
3568.00849 0.05129
3566.72273 0.05128
3565.43696 0.05087
3564.15119 0.05044
3562.86542 0.05027
3561.57965 0.05028
3560.29388 0.05023
3559.00811 0.05013
3557.72234 0.05032
3556.43657 0.05106
3555.15081 0.05220
3553.86504 0.05312
3552.57927 0.05328
3551.29350 0.05270
3550.00773 0.05199
3548.72196 0.05182
3547.43619 0.05240
3546.15042 0.05345
3544.86466 0.05456
3543.57889 0.05556
3542.29312 0.05642
3541.00735 0.05699
3539.72158 0.05709
3538.43581 0.05681
3537.15004 0.05648
3535.86427 0.05641
3534.57850 0.05664
3533.29274 0.05707
3532.00697 0.05757
3530.72120 0.05801
3529.43543 0.05822
3528.14966 0.05815
3526.86389 0.05791
3525.57812 0.05767
3524.29235 0.05751
3523.00659 0.05748
3521.72082 0.05764
3520.43505 0.05811
3519.14928 0.05890
3517.86351 0.05983
3516.57774 0.06053
3515.29197 0.06063
3514.00620 0.06002
3512.72043 0.05898
3511.43467 0.05815
3510.14890 0.05801
3508.86313 0.05851
3507.57736 0.05906
3506.29159 0.05912
3505.00582 0.05875
3503.72005 0.05853
3502.43428 0.05889
3501.14852 0.05971
3499.86275 0.06056
3498.57698 0.06132
3497.29121 0.06228
3496.00544 0.06361
3494.71967 0.06501
3493.43390 0.06590
3492.14813 0.06599
3490.86236 0.06536
3489.57660 0.06425
3488.29083 0.06307
3487.00506 0.06230
3485.71929 0.06217
3484.43352 0.06240
3483.14775 0.06246
3481.86198 0.06223
3480.57621 0.06212
3479.29045 0.06262
3478.00468 0.06373
3476.71891 0.06493
3475.43314 0.06564
3474.14737 0.06571
3472.86160 0.06541
3471.57583 0.06505
3470.29006 0.06467
3469.00429 0.06428
3467.71853 0.06418
3466.43276 0.06475
3465.14699 0.06600
3463.86122 0.06734
3462.57545 0.06805
3461.28968 0.06793
3460.00391 0.06737
3458.71814 0.06695
3457.43238 0.06689
3456.14661 0.06696
3454.86084 0.06684
3453.57507 0.06647
3452.28930 0.06609
3451.00353 0.06595
3449.71776 0.06605
3448.43199 0.06627
3447.14622 0.06657
3445.86046 0.06703
3444.57469 0.06767
3443.28892 0.06831
3442.00315 0.06869
3440.71738 0.06873
3439.43161 0.06855
3438.14584 0.06845
3436.86007 0.06881
3435.57431 0.06978
3434.28854 0.07102
3433.00277 0.07191
3431.71700 0.07204
3430.43123 0.07159
3429.14546 0.07111
3427.85969 0.07089
3426.57392 0.07090
3425.28815 0.07105
3424.00239 0.07140
3422.71662 0.07201
3421.43085 0.07260
3420.14508 0.07277
3418.85931 0.07244
3417.57354 0.07191
3416.28777 0.07155
3415.00200 0.07146
3413.71624 0.07161
3412.43047 0.07210
3411.14470 0.07302
3409.85893 0.07415
3408.57316 0.07495
3407.28739 0.07495
3406.00162 0.07423
3404.71585 0.07330
3403.43008 0.07267
3402.14432 0.07243
3400.85855 0.07233
3399.57278 0.07217
3398.28701 0.07215
3397.00124 0.07245
3395.71547 0.07300
3394.42970 0.07351
3393.14393 0.07382
3391.85817 0.07409
3390.57240 0.07450
3389.28663 0.07492
3388.00086 0.07502
3386.71509 0.07471
3385.42932 0.07435
3384.14355 0.07434
3382.85778 0.07483
3381.57201 0.07568
3380.28625 0.07669
3379.00048 0.07763
3377.71471 0.07817
3376.42894 0.07815
3375.14317 0.07778
3373.85740 0.07746
3372.57163 0.07745
3371.28586 0.07770
3370.00010 0.07794
3368.71433 0.07787
3367.42856 0.07731
3366.14279 0.07637
3364.85702 0.07558
3363.57125 0.07550
3362.28548 0.07617
3360.99971 0.07710
3359.71394 0.07774
3358.42818 0.07798
3357.14241 0.07803
3355.85664 0.07804
3354.57087 0.07791
3353.28510 0.07749
3351.99933 0.07690
3350.71356 0.07648
3349.42779 0.07650
3348.14202 0.07687
3346.85626 0.07727
3345.57049 0.07750
3344.28472 0.07755
3342.99895 0.07746
3341.71318 0.07721
3340.42741 0.07683
3339.14164 0.07655
3337.85587 0.07665
3336.57011 0.07706
3335.28434 0.07744
3333.99857 0.07755
3332.71280 0.07744
3331.42703 0.07728
3330.14126 0.07712
3328.85549 0.07694
3327.56972 0.07678
3326.28395 0.07669
3324.99819 0.07669
3323.71242 0.07677
3322.42665 0.07697
3321.14088 0.07736
3319.85511 0.07784
3318.56934 0.07819
3317.28357 0.07820
3315.99780 0.07787
3314.71204 0.07747
3313.42627 0.07733
3312.14050 0.07755
3310.85473 0.07791
3309.56896 0.07811
3308.28319 0.07807
3306.99742 0.07804
3305.71165 0.07841
3304.42588 0.07918
3303.14012 0.07988
3301.85435 0.07991
3300.56858 0.07921
3299.28281 0.07828
3297.99704 0.07772
3296.71127 0.07764
3295.42550 0.07774
3294.13973 0.07771
3292.85397 0.07767
3291.56820 0.07793
3290.28243 0.07854
3288.99666 0.07917
3287.71089 0.07937
3286.42512 0.07907
3285.13935 0.07857
3283.85358 0.07810
3282.56781 0.07766
3281.28205 0.07727
3279.99628 0.07705
3278.71051 0.07712
3277.42474 0.07738
3276.13897 0.07764
3274.85320 0.07784
3273.56743 0.07802
3272.28166 0.07815
3270.99590 0.07815
3269.71013 0.07797
3268.42436 0.07767
3267.13859 0.07733
3265.85282 0.07701
3264.56705 0.07683
3263.28128 0.07697
3261.99551 0.07742
3260.70974 0.07779
3259.42398 0.07767
3258.13821 0.07699
3256.85244 0.07614
3255.56667 0.07553
3254.28090 0.07529
3252.99513 0.07527
3251.70936 0.07526
3250.42359 0.07526
3249.13783 0.07543
3247.85206 0.07592
3246.56629 0.07660
3245.28052 0.07710
3243.99475 0.07714
3242.70898 0.07678
3241.42321 0.07637
3240.13744 0.07622
3238.85167 0.07634
3237.56591 0.07647
3236.28014 0.07636
3234.99437 0.07597
3233.70860 0.07545
3232.42283 0.07491
3231.13706 0.07446
3229.85129 0.07418
3228.56552 0.07414
3227.27976 0.07413
3225.99399 0.07389
3224.70822 0.07328
3223.42245 0.07252
3222.13668 0.07195
3220.85091 0.07182
3219.56514 0.07211
3218.27937 0.07262
3216.99360 0.07313
3215.70784 0.07343
3214.42207 0.07347
3213.13630 0.07341
3211.85053 0.07356
3210.56476 0.07405
3209.27899 0.07468
3207.99322 0.07501
3206.70745 0.07482
3205.42169 0.07431
3204.13592 0.07377
3202.85015 0.07334
3201.56438 0.07292
3200.27861 0.07251
3198.99284 0.07224
3197.70707 0.07225
3196.42130 0.07243
3195.13553 0.07258
3193.84977 0.07259
3192.56400 0.07256
3191.27823 0.07250
3189.99246 0.07233
3188.70669 0.07195
3187.42092 0.07143
3186.13515 0.07089
3184.84938 0.07035
3183.56362 0.06988
3182.27785 0.06960
3180.99208 0.06952
3179.70631 0.06954
3178.42054 0.06951
3177.13477 0.06945
3175.84900 0.06943
3174.56323 0.06938
3173.27746 0.06924
3171.99170 0.06914
3170.70593 0.06926
3169.42016 0.06963
3168.13439 0.07002
3166.84862 0.07020
3165.56285 0.07014
3164.27708 0.06991
3162.99131 0.06951
3161.70555 0.06896
3160.41978 0.06838
3159.13401 0.06792
3157.84824 0.06762
3156.56247 0.06742
3155.27670 0.06727
3153.99093 0.06723
3152.70516 0.06733
3151.41939 0.06748
3150.13363 0.06751
3148.84786 0.06724
3147.56209 0.06670
3146.27632 0.06610
3144.99055 0.06569
3143.70478 0.06558
3142.41901 0.06573
3141.13324 0.06602
3139.84748 0.06629
3138.56171 0.06643
3137.27594 0.06645
3135.99017 0.06641
3134.70440 0.06636
3133.41863 0.06618
3132.13286 0.06571
3130.84709 0.06491
3129.56132 0.06407
3128.27556 0.06358
3126.98979 0.06363
3125.70402 0.06396
3124.41825 0.06419
3123.13248 0.06411
3121.84671 0.06390
3120.56094 0.06377
3119.27517 0.06374
3117.98940 0.06368
3116.70364 0.06352
3115.41787 0.06332
3114.13210 0.06321
3112.84633 0.06327
3111.56056 0.06347
3110.27479 0.06371
3108.98902 0.06385
3107.70325 0.06384
3106.41749 0.06372
3105.13172 0.06357
3103.84595 0.06346
3102.56018 0.06338
3101.27441 0.06330
3099.98864 0.06320
3098.70287 0.06312
3097.41710 0.06313
3096.13133 0.06320
3094.84557 0.06323
3093.55980 0.06311
3092.27403 0.06289
3090.98826 0.06275
3089.70249 0.06282
3088.41672 0.06307
3087.13095 0.06328
3085.84518 0.06329
3084.55942 0.06309
3083.27365 0.06284
3081.98788 0.06268
3080.70211 0.06264
3079.41634 0.06261
3078.13057 0.06241
3076.84480 0.06198
3075.55903 0.06146
3074.27326 0.06108
3072.98750 0.06103
3071.70173 0.06123
3070.41596 0.06151
3069.13019 0.06169
3067.84442 0.06173
3066.55865 0.06162
3065.27288 0.06144
3063.98711 0.06126
3062.70135 0.06118
3061.41558 0.06122
3060.12981 0.06130
3058.84404 0.06121
3057.55827 0.06081
3056.27250 0.06024
3054.98673 0.05983
3053.70096 0.05984
3052.41519 0.06015
3051.12943 0.06044
3049.84366 0.06044
3048.55789 0.06013
3047.27212 0.05970
3045.98635 0.05936
3044.70058 0.05915
3043.41481 0.05900
3042.12904 0.05877
3040.84328 0.05838
3039.55751 0.05790
3038.27174 0.05751
3036.98597 0.05731
3035.70020 0.05726
3034.41443 0.05723
3033.12866 0.05719
3031.84289 0.05717
3030.55712 0.05723
3029.27136 0.05731
3027.98559 0.05733
3026.69982 0.05719
3025.41405 0.05691
3024.12828 0.05664
3022.84251 0.05655
3021.55674 0.05662
3020.27097 0.05665
3018.98521 0.05645
3017.69944 0.05603
3016.41367 0.05560
3015.12790 0.05539
3013.84213 0.05541
3012.55636 0.05555
3011.27059 0.05567
3009.98482 0.05580
3008.69905 0.05601
3007.41329 0.05621
3006.12752 0.05619
3004.84175 0.05586
3003.55598 0.05539
3002.27021 0.05502
3000.98444 0.05485
2999.69867 0.05484
2998.41290 0.05491
2997.12714 0.05494
2995.84137 0.05477
2994.55560 0.05439
2993.26983 0.05398
2991.98406 0.05382
2990.69829 0.05392
2989.41252 0.05407
2988.12675 0.05416
2986.84098 0.05437
2985.55522 0.05484
2984.26945 0.05546
2982.98368 0.05587
2981.69791 0.05580
2980.41214 0.05532
2979.12637 0.05484
2977.84060 0.05478
2976.55483 0.05524
2975.26907 0.05599
2973.98330 0.05667
2972.69753 0.05701
2971.41176 0.05699
2970.12599 0.05673
2968.84022 0.05646
2967.55445 0.05634
2966.26868 0.05633
2964.98291 0.05633
2963.69715 0.05630
2962.41138 0.05634
2961.12561 0.05644
2959.83984 0.05649
2958.55407 0.05642
2957.26830 0.05637
2955.98253 0.05657
2954.69676 0.05708
2953.41100 0.05776
2952.12523 0.05846
2950.83946 0.05907
2949.55369 0.05946
2948.26792 0.05948
2946.98215 0.05919
2945.69638 0.05885
2944.41061 0.05874
2943.12484 0.05891
2941.83908 0.05923
2940.55331 0.05945
2939.26754 0.05937
2937.98177 0.05892
2936.69600 0.05808
2935.41023 0.05688
2934.12446 0.05548
2932.83869 0.05424
2931.55293 0.05345
2930.26716 0.05305
2928.98139 0.05254
2927.69562 0.05142
2926.40985 0.04941
2925.12408 0.04652
2923.83831 0.04294
2922.55254 0.03889
2921.26677 0.03462
2919.98101 0.03044
2918.69524 0.02689
2917.40947 0.02475
2916.12370 0.02474
2914.83793 0.02707
2913.55216 0.03116
2912.26639 0.03590
2910.98062 0.04023
2909.69486 0.04363
2908.40909 0.04603
2907.12332 0.04768
2905.83755 0.04885
2904.55178 0.04974
2903.26601 0.05033
2901.98024 0.05055
2900.69447 0.05044
2899.40870 0.05027
2898.12294 0.05032
2896.83717 0.05066
2895.55140 0.05120
2894.26563 0.05172
2892.97986 0.05202
2891.69409 0.05207
2890.40832 0.05195
2889.12255 0.05173
2887.83678 0.05144
2886.55102 0.05123
2885.26525 0.05130
2883.97948 0.05169
2882.69371 0.05220
2881.40794 0.05258
2880.12217 0.05274
2878.83640 0.05276
2877.55063 0.05265
2876.26487 0.05245
2874.97910 0.05221
2873.69333 0.05207
2872.40756 0.05212
2871.12179 0.05238
2869.83602 0.05276
2868.55025 0.05311
2867.26448 0.05317
2865.97871 0.05284
2864.69295 0.05218
2863.40718 0.05136
2862.12141 0.05051
2860.83564 0.04963
2859.54987 0.04866
2858.26410 0.04745
2856.97833 0.04582
2855.69256 0.04358
2854.40680 0.04062
2853.12103 0.03695
2851.83526 0.03291
2850.54949 0.02952
2849.26372 0.02817
2847.97795 0.02966
2846.69218 0.03343
2845.40641 0.03787
2844.12064 0.04147
2842.83488 0.04370
2841.54911 0.04487
2840.26334 0.04558
2838.97757 0.04625
2837.69180 0.04693
2836.40603 0.04749
2835.12026 0.04784
2833.83449 0.04799
2832.54873 0.04800
2831.26296 0.04793
2829.97719 0.04786
2828.69142 0.04780
2827.40565 0.04773
2826.11988 0.04757
2824.83411 0.04727
2823.54834 0.04681
2822.26257 0.04624
2820.97681 0.04567
2819.69104 0.04526
2818.40527 0.04511
2817.11950 0.04521
2815.83373 0.04543
2814.54796 0.04558
2813.26219 0.04564
2811.97642 0.04565
2810.69066 0.04559
2809.40489 0.04534
2808.11912 0.04496
2806.83335 0.04462
2805.54758 0.04451
2804.26181 0.04466
2802.97604 0.04499
2801.69027 0.04534
2800.40450 0.04555
2799.11874 0.04552
2797.83297 0.04529
2796.54720 0.04496
2795.26143 0.04459
2793.97566 0.04423
2792.68989 0.04393
2791.40412 0.04374
2790.11835 0.04366
2788.83259 0.04364
2787.54682 0.04363
2786.26105 0.04361
2784.97528 0.04358
2783.68951 0.04359
2782.40374 0.04363
2781.11797 0.04365
2779.83220 0.04366
2778.54643 0.04367
2777.26067 0.04367
2775.97490 0.04351
2774.68913 0.04314
2773.40336 0.04271
2772.11759 0.04244
2770.83182 0.04237
2769.54605 0.04242
2768.26028 0.04249
2766.97452 0.04259
2765.68875 0.04273
2764.40298 0.04281
2763.11721 0.04270
2761.83144 0.04243
2760.54567 0.04216
2759.25990 0.04196
2757.97413 0.04184
2756.68836 0.04181
2755.40260 0.04184
2754.11683 0.04190
2752.83106 0.04187
2751.54529 0.04176
2750.25952 0.04165
2748.97375 0.04163
2747.68798 0.04169
2746.40221 0.04172
2745.11645 0.04160
2743.83068 0.04132
2742.54491 0.04103
2741.25914 0.04087
2739.97337 0.04087
2738.68760 0.04097
2737.40183 0.04102
2736.11606 0.04099
2734.83029 0.04092
2733.54453 0.04091
2732.25876 0.04097
2730.97299 0.04103
2729.68722 0.04107
2728.40145 0.04114
2727.11568 0.04118
2725.82991 0.04107
2724.54414 0.04086
2723.25838 0.04073
2721.97261 0.04082
2720.68684 0.04099
2719.40107 0.04108
2718.11530 0.04106
2716.82953 0.04100
2715.54376 0.04090
2714.25799 0.04069
2712.97222 0.04039
2711.68646 0.04008
2710.40069 0.03983
2709.11492 0.03966
2707.82915 0.03958
2706.54338 0.03961
2705.25761 0.03971
2703.97184 0.03979
2702.68607 0.03969
2701.40031 0.03942
2700.11454 0.03914
2698.82877 0.03904
2697.54300 0.03918
2696.25723 0.03949
2694.97146 0.03982
2693.68569 0.04005
2692.39992 0.04010
2691.11415 0.03999
2689.82839 0.03981
2688.54262 0.03969
2687.25685 0.03965
2685.97108 0.03962
2684.68531 0.03948
2683.39954 0.03922
2682.11377 0.03892
2680.82800 0.03864
2679.54224 0.03832
2678.25647 0.03795
2676.97070 0.03766
2675.68493 0.03757
2674.39916 0.03764
2673.11339 0.03772
2671.82762 0.03773
2670.54185 0.03773
2669.25608 0.03786
2667.97032 0.03817
2666.68455 0.03858
2665.39878 0.03892
2664.11301 0.03905
2662.82724 0.03894
2661.54147 0.03874
2660.25570 0.03864
2658.96993 0.03869
2657.68417 0.03879
2656.39840 0.03879
2655.11263 0.03866
2653.82686 0.03844
2652.54109 0.03819
2651.25532 0.03792
2649.96955 0.03765
2648.68378 0.03740
2647.39801 0.03719
2646.11225 0.03705
2644.82648 0.03702
2643.54071 0.03707
2642.25494 0.03714
2640.96917 0.03716
2639.68340 0.03708
2638.39763 0.03682
2637.11186 0.03640
2635.82609 0.03594
2634.54033 0.03559
2633.25456 0.03536
2631.96879 0.03516
2630.68302 0.03503
2629.39725 0.03510
2628.11148 0.03538
2626.82571 0.03563
2625.53994 0.03563
2624.25418 0.03538
2622.96841 0.03497
2621.68264 0.03448
2620.39687 0.03403
2619.11110 0.03376
2617.82533 0.03368
2616.53956 0.03359
2615.25379 0.03334
2613.96802 0.03303
2612.68226 0.03282
2611.39649 0.03280
2610.11072 0.03294
2608.82495 0.03318
2607.53918 0.03347
2606.25341 0.03371
2604.96764 0.03378
2603.68187 0.03358
2602.39611 0.03312
2601.11034 0.03265
2599.82457 0.03246
2598.53880 0.03256
2597.25303 0.03276
2595.96726 0.03282
2594.68149 0.03273
2593.39572 0.03268
2592.10995 0.03285
2590.82419 0.03314
2589.53842 0.03320
2588.25265 0.03275
2586.96688 0.03198
2585.68111 0.03139
2584.39534 0.03128
2583.10957 0.03147
2581.82380 0.03162
2580.53804 0.03157
2579.25227 0.03136
2577.96650 0.03119
2576.68073 0.03116
2575.39496 0.03128
2574.10919 0.03143
2572.82342 0.03150
2571.53765 0.03144
2570.25188 0.03133
2568.96612 0.03134
2567.68035 0.03164
2566.39458 0.03220
2565.10881 0.03268
2563.82304 0.03268
2562.53727 0.03214
2561.25150 0.03142
2559.96573 0.03092
2558.67997 0.03072
2557.39420 0.03062
2556.10843 0.03038
2554.82266 0.02997
2553.53689 0.02960
2552.25112 0.02954
2550.96535 0.02994
2549.67958 0.03073
2548.39381 0.03160
2547.10805 0.03210
2545.82228 0.03195
2544.53651 0.03129
2543.25074 0.03056
2541.96497 0.03013
2540.67920 0.03004
2539.39343 0.03010
2538.10766 0.03007
2536.82190 0.02984
2535.53613 0.02947
2534.25036 0.02912
2532.96459 0.02901
2531.67882 0.02922
2530.39305 0.02961
2529.10728 0.02986
2527.82151 0.02973
2526.53574 0.02925
2525.24998 0.02867
2523.96421 0.02823
2522.67844 0.02804
2521.39267 0.02810
2520.10690 0.02833
2518.82113 0.02857
2517.53536 0.02871
2516.24959 0.02863
2514.96383 0.02830
2513.67806 0.02784
2512.39229 0.02758
2511.10652 0.02782
2509.82075 0.02855
2508.53498 0.02935
2507.24921 0.02980
2505.96344 0.02970
2504.67767 0.02920
2503.39191 0.02864
2502.10614 0.02844
2500.82037 0.02876
2499.53460 0.02937
2498.24883 0.02988
2496.96306 0.03005
2495.67729 0.02990
2494.39152 0.02963
2493.10576 0.02936
2491.81999 0.02917
2490.53422 0.02907
2489.24845 0.02901
2487.96268 0.02894
2486.67691 0.02883
2485.39114 0.02870
2484.10537 0.02864
2482.81960 0.02869
2481.53384 0.02882
2480.24807 0.02888
2478.96230 0.02879
2477.67653 0.02859
2476.39076 0.02834
2475.10499 0.02811
2473.81922 0.02797
2472.53345 0.02795
2471.24769 0.02802
2469.96192 0.02816
2468.67615 0.02835
2467.39038 0.02861
2466.10461 0.02895
2464.81884 0.02936
2463.53307 0.02975
2462.24730 0.02988
2460.96153 0.02953
2459.67577 0.02878
2458.39000 0.02803
2457.10423 0.02770
2455.81846 0.02789
2454.53269 0.02835
2453.24692 0.02868
2451.96115 0.02864
2450.67538 0.02832
2449.38962 0.02799
2448.10385 0.02777
2446.81808 0.02756
2445.53231 0.02723
2444.24654 0.02683
2442.96077 0.02658
2441.67500 0.02661
2440.38923 0.02683
2439.10346 0.02707
2437.81770 0.02728
2436.53193 0.02752
2435.24616 0.02779
2433.96039 0.02794
2432.67462 0.02784
2431.38885 0.02753
2430.10308 0.02717
2428.81731 0.02691
2427.53155 0.02685
2426.24578 0.02696
2424.96001 0.02712
2423.67424 0.02725
2422.38847 0.02737
2421.10270 0.02755
2419.81693 0.02776
2418.53116 0.02791
2417.24539 0.02792
2415.95963 0.02783
2414.67386 0.02769
2413.38809 0.02760
2412.10232 0.02762
2410.81655 0.02771
2409.53078 0.02780
2408.24501 0.02788
2406.95924 0.02794
2405.67347 0.02795
2404.38771 0.02779
2403.10194 0.02739
2401.81617 0.02676
2400.53040 0.02613
2399.24463 0.02572
2397.95886 0.02567
2396.67309 0.02591
2395.38732 0.02632
2394.10156 0.02682
2392.81579 0.02734
2391.53002 0.02770
2390.24425 0.02780
2388.95848 0.02764
2387.67271 0.02737
2386.38694 0.02709
2385.10117 0.02684
2383.81540 0.02669
2382.52964 0.02668
2381.24387 0.02689
2379.95810 0.02717
2378.67233 0.02764
2377.38656 0.02791
2376.10079 0.02758
2374.81502 0.02697
2373.52925 0.02729
2372.24349 0.02841
2370.95772 0.02929
2369.67195 0.02943
2368.38618 0.02922
2367.10041 0.02934
2365.81464 0.02972
2364.52887 0.03016
2363.24310 0.03053
2361.95733 0.03098
2360.67157 0.03186
2359.38580 0.03243
2358.10003 0.03223
2356.81426 0.03128
2355.52849 0.02980
2354.24272 0.02810
2352.95695 0.02692
2351.67118 0.02736
2350.38542 0.02837
2349.09965 0.02853
2347.81388 0.02830
2346.52811 0.02899
2345.24234 0.02958
2343.95657 0.02845
2342.67080 0.02596
2341.38503 0.02664
2340.09926 0.02974
2338.81350 0.02972
2337.52773 0.02694
2336.24196 0.02760
2334.95619 0.03005
2333.67042 0.02912
2332.38465 0.02615
2331.09888 0.02782
2329.81311 0.02880
2328.52735 0.02686
2327.24158 0.02763
2325.95581 0.02946
2324.67004 0.02901
2323.38427 0.02811
2322.09850 0.02877
2320.81273 0.02807
2319.52696 0.02775
2318.24119 0.02786
2316.95543 0.02718
2315.66966 0.02703
2314.38389 0.02700
2313.09812 0.02674
2311.81235 0.02716
2310.52658 0.02728
2309.24081 0.02715
2307.95504 0.02729
2306.66928 0.02716
2305.38351 0.02699
2304.09774 0.02658
2302.81197 0.02604
2301.52620 0.02576
2300.24043 0.02560
2298.95466 0.02558
2297.66889 0.02553
2296.38312 0.02539
2295.09736 0.02521
2293.81159 0.02503
2292.52582 0.02504
2291.24005 0.02523
2289.95428 0.02545
2288.66851 0.02544
2287.38274 0.02500
2286.09697 0.02422
2284.81121 0.02343
2283.52544 0.02297
2282.23967 0.02293
2280.95390 0.02316
2279.66813 0.02349
2278.38236 0.02376
2277.09659 0.02375
2275.81082 0.02335
2274.52505 0.02266
2273.23929 0.02213
2271.95352 0.02212
2270.66775 0.02265
2269.38198 0.02335
2268.09621 0.02382
2266.81044 0.02390
2265.52467 0.02374
2264.23890 0.02346
2262.95314 0.02318
2261.66737 0.02280
2260.38160 0.02213
2259.09583 0.02122
2257.81006 0.02040
2256.52429 0.01993
2255.23852 0.01979
2253.95275 0.01977
2252.66698 0.01951
2251.38122 0.01890
2250.09545 0.01823
2248.80968 0.01804
2247.52391 0.01855
2246.23814 0.01982
2244.95237 0.02128
2243.66660 0.02221
2242.38083 0.02227
2241.09507 0.02160
2239.80930 0.02069
2238.52353 0.02005
2237.23776 0.01993
2235.95199 0.02028
2234.66622 0.02082
2233.38045 0.02121
2232.09468 0.02123
2230.80891 0.02087
2229.52315 0.02034
2228.23738 0.01995
2226.95161 0.01989
2225.66584 0.02004
2224.38007 0.01999
2223.09430 0.01946
2221.80853 0.01869
2220.52276 0.01825
2219.23700 0.01836
2217.95123 0.01866
2216.66546 0.01873
2215.37969 0.01850
2214.09392 0.01807
2212.80815 0.01711
2211.52238 0.01518
2210.23661 0.01268
2208.95084 0.01094
2207.66508 0.01116
2206.37931 0.01317
2205.09354 0.01546
2203.80777 0.01667
2202.52200 0.01675
2201.23623 0.01665
2199.95046 0.01707
2198.66469 0.01780
2197.37893 0.01825
2196.09316 0.01807
2194.80739 0.01728
2193.52162 0.01613
2192.23585 0.01502
2190.95008 0.01431
2189.66431 0.01398
2188.37854 0.01370
2187.09277 0.01330
2185.80701 0.01299
2184.52124 0.01307
2183.23547 0.01349
2181.94970 0.01400
2180.66393 0.01446
2179.37816 0.01498
2178.09239 0.01555
2176.80662 0.01583
2175.52085 0.01539
2174.23509 0.01421
2172.94932 0.01272
2171.66355 0.01150
2170.37778 0.01099
2169.09201 0.01124
2167.80624 0.01174
2166.52047 0.01167
2165.23470 0.01065
2163.94894 0.00921
2162.66317 0.00820
2161.37740 0.00791
2160.09163 0.00787
2158.80586 0.00760
2157.52009 0.00721
2156.23432 0.00707
2154.94855 0.00738
2153.66278 0.00809
2152.37702 0.00902
2151.09125 0.00991
2149.80548 0.01046
2148.51971 0.01063
2147.23394 0.01073
2145.94817 0.01104
2144.66240 0.01164
2143.37663 0.01240
2142.09087 0.01315
2140.80510 0.01365
2139.51933 0.01369
2138.23356 0.01326
2136.94779 0.01266
2135.66202 0.01220
2134.37625 0.01213
2133.09048 0.01248
2131.80471 0.01307
2130.51895 0.01359
2129.23318 0.01385
2127.94741 0.01396
2126.66164 0.01421
2125.37587 0.01471
2124.09010 0.01530
2122.80433 0.01582
2121.51856 0.01626
2120.23280 0.01672
2118.94703 0.01721
2117.66126 0.01753
2116.37549 0.01750
2115.08972 0.01714
2113.80395 0.01673
2112.51818 0.01651
2111.23241 0.01652
2109.94664 0.01657
2108.66088 0.01644
2107.37511 0.01609
2106.08934 0.01562
2104.80357 0.01515
2103.51780 0.01470
2102.23203 0.01428
2100.94626 0.01403
2099.66049 0.01469
2098.37473 0.01534
2097.08896 0.01583
2095.80319 0.01615
2094.51742 0.01616
2093.23165 0.01586
2091.94588 0.01536
2090.66011 0.01475
2089.37434 0.01416
2088.08857 0.01383
2086.80281 0.01395
2085.51704 0.01447
2084.23127 0.01501
2082.94550 0.01517
2081.65973 0.01486
2080.37396 0.01429
2079.08819 0.01376
2077.80242 0.01340
2076.51666 0.01315
2075.23089 0.01296
2073.94512 0.01287
2072.65935 0.01294
2071.37358 0.01316
2070.08781 0.01349
2068.80204 0.01383
2067.51627 0.01401
2066.23050 0.01399
2064.94474 0.01387
2063.65897 0.01373
2062.37320 0.01340
2061.08743 0.01276
2059.80166 0.01202
2058.51589 0.01160
2057.23012 0.01166
2055.94435 0.01192
2054.65859 0.01201
2053.37282 0.01183
2052.08705 0.01161
2050.80128 0.01163
2049.51551 0.01197
2048.22974 0.01243
2046.94397 0.01267
2045.65820 0.01256
2044.37243 0.01219
2043.08667 0.01170
2041.80090 0.01113
2040.51513 0.01043
2039.22936 0.00960
2037.94359 0.00873
2036.65782 0.00798
2035.37205 0.00754
2034.08628 0.00748
2032.80052 0.00775
2031.51475 0.00812
2030.22898 0.00833
2028.94321 0.00823
2027.65744 0.00788
2026.37167 0.00743
2025.08590 0.00691
2023.80013 0.00633
2022.51436 0.00592
2021.22860 0.00603
2019.94283 0.00676
2018.65706 0.00779
2017.37129 0.00865
2016.08552 0.00907
2014.79975 0.00896
2013.51398 0.00847
2012.22821 0.00795
2010.94245 0.00783
2009.65668 0.00826
2008.37091 0.00889
2007.08514 0.00923
2005.79937 0.00910
2004.51360 0.00869
2003.22783 0.00829
2001.94206 0.00813
2000.65629 0.00822
1999.37053 0.00845
1998.08476 0.00870
1996.79899 0.00890
1995.51322 0.00908
1994.22745 0.00928
1992.94168 0.00958
1991.65591 0.00996
1990.37014 0.01022
1989.08438 0.01011
1987.79861 0.00963
1986.51284 0.00914
1985.22707 0.00910
1983.94130 0.00962
1982.65553 0.01041
1981.36976 0.01110
1980.08399 0.01165
1978.79822 0.01211
1977.51246 0.01243
1976.22669 0.01249
1974.94092 0.01240
1973.65515 0.01248
1972.36938 0.01289
1971.08361 0.01353
1969.79784 0.01417
1968.51207 0.01467
1967.22631 0.01499
1965.94054 0.01504
1964.65477 0.01471
1963.36900 0.01395
1962.08323 0.01287
1960.79746 0.01178
1959.51169 0.01102
1958.22592 0.01088
1956.94015 0.01143
1955.65439 0.01242
1954.36862 0.01344
1953.08285 0.01420
1951.79708 0.01459
1950.51131 0.01456
1949.22554 0.01409
1947.93977 0.01340
1946.65400 0.01300
1945.36823 0.01328
1944.08247 0.01409
1942.79670 0.01487
1941.51093 0.01513
1940.22516 0.01478
1938.93939 0.01418
1937.65362 0.01375
1936.36785 0.01369
1935.08208 0.01391
1933.79632 0.01415
1932.51055 0.01421
1931.22478 0.01410
1929.93901 0.01398
1928.65324 0.01393
1927.36747 0.01391
1926.08170 0.01388
1924.79593 0.01389
1923.51016 0.01397
1922.22440 0.01414
1920.93863 0.01433
1919.65286 0.01448
1918.36709 0.01453
1917.08132 0.01449
1915.79555 0.01453
1914.50978 0.01485
1913.22401 0.01547
1911.93825 0.01615
1910.65248 0.01661
1909.36671 0.01676
1908.08094 0.01669
1906.79517 0.01651
1905.50940 0.01625
1904.22363 0.01593
1902.93786 0.01564
1901.65209 0.01551
1900.36633 0.01560
1899.08056 0.01585
1897.79479 0.01610
1896.50902 0.01623
1895.22325 0.01620
1893.93748 0.01600
1892.65171 0.01566
1891.36594 0.01522
1890.08018 0.01482
1888.79441 0.01462
1887.50864 0.01470
1886.22287 0.01502
1884.93710 0.01552
1883.65133 0.01610
1882.36556 0.01655
1881.07979 0.01658
1879.79402 0.01609
1878.50826 0.01531
1877.22249 0.01462
1875.93672 0.01434
1874.65095 0.01449
1873.36518 0.01490
1872.07941 0.01531
1870.79364 0.01552
1869.50787 0.01556
1868.22211 0.01555
1866.93634 0.01558
1865.65057 0.01561
1864.36480 0.01561
1863.07903 0.01560
1861.79326 0.01565
1860.50749 0.01582
1859.22172 0.01605
1857.93595 0.01626
1856.65019 0.01638
1855.36442 0.01645
1854.07865 0.01655
1852.79288 0.01673
1851.50711 0.01692
1850.22134 0.01697
1848.93557 0.01681
1847.64980 0.01648
1846.36404 0.01612
1845.07827 0.01591
1843.79250 0.01589
1842.50673 0.01598
1841.22096 0.01608
1839.93519 0.01614
1838.64942 0.01613
1837.36365 0.01603
1836.07788 0.01588
1834.79212 0.01571
1833.50635 0.01557
1832.22058 0.01550
1830.93481 0.01553
1829.64904 0.01569
1828.36327 0.01600
1827.07750 0.01638
1825.79173 0.01670
1824.50597 0.01687
1823.22020 0.01690
1821.93443 0.01688
1820.64866 0.01689
1819.36289 0.01692
1818.07712 0.01691
1816.79135 0.01679
1815.50558 0.01666
1814.21981 0.01658
1812.93405 0.01657
1811.64828 0.01656
1810.36251 0.01657
1809.07674 0.01664
1807.79097 0.01680
1806.50520 0.01692
1805.21943 0.01690
1803.93366 0.01673
1802.64790 0.01653
1801.36213 0.01641
1800.07636 0.01640
1798.79059 0.01646
1797.50482 0.01656
1796.21905 0.01668
1794.93328 0.01681
1793.64751 0.01693
1792.36174 0.01700
1791.07598 0.01701
1789.79021 0.01695
1788.50444 0.01687
1787.21867 0.01682
1785.93290 0.01680
1784.64713 0.01682
1783.36136 0.01683
1782.07559 0.01682
1780.78983 0.01682
1779.50406 0.01687
1778.21829 0.01695
1776.93252 0.01701
1775.64675 0.01706
1774.36098 0.01716
1773.07521 0.01730
1771.78944 0.01744
1770.50367 0.01752
1769.21791 0.01754
1767.93214 0.01753
1766.64637 0.01751
1765.36060 0.01753
1764.07483 0.01756
1762.78906 0.01755
1761.50329 0.01749
1760.21752 0.01741
1758.93176 0.01738
1757.64599 0.01745
1756.36022 0.01756
1755.07445 0.01766
1753.78868 0.01772
1752.50291 0.01772
1751.21714 0.01766
1749.93137 0.01757
1748.64560 0.01749
1747.35984 0.01748
1746.07407 0.01756
1744.78830 0.01771
1743.50253 0.01788
1742.21676 0.01805
1740.93099 0.01819
1739.64522 0.01828
1738.35945 0.01834
1737.07369 0.01842
1735.78792 0.01853
1734.50215 0.01864
1733.21638 0.01873
1731.93061 0.01881
1730.64484 0.01889
1729.35907 0.01896
1728.07330 0.01901
1726.78753 0.01902
1725.50177 0.01903
1724.21600 0.01912
1722.93023 0.01934
1721.64446 0.01964
1720.35869 0.01997
1719.07292 0.02026
1717.78715 0.02051
1716.50138 0.02076
1715.21561 0.02101
1713.92985 0.02130
1712.64408 0.02165
1711.35831 0.02207
1710.07254 0.02255
1708.78677 0.02307
1707.50100 0.02361
1706.21523 0.02417
1704.92946 0.02482
1703.64370 0.02564
1702.35793 0.02664
1701.07216 0.02770
1699.78639 0.02868
1698.50062 0.02950
1697.21485 0.03021
1695.92908 0.03088
1694.64331 0.03156
1693.35754 0.03229
1692.07178 0.03313
1690.78601 0.03413
1689.50024 0.03521
1688.21447 0.03631
1686.92870 0.03738
1685.64293 0.03843
1684.35716 0.03948
1683.07139 0.04048
1681.78563 0.04143
1680.49986 0.04232
1679.21409 0.04320
1677.92832 0.04412
1676.64255 0.04508
1675.35678 0.04606
1674.07101 0.04706
1672.78524 0.04808
1671.49947 0.04914
1670.21371 0.05022
1668.92794 0.05124
1667.64217 0.05218
1666.35640 0.05306
1665.07063 0.05390
1663.78486 0.05475
1662.49909 0.05556
1661.21332 0.05633
1659.92756 0.05705
1658.64179 0.05776
1657.35602 0.05848
1656.07025 0.05923
1654.78448 0.05996
1653.49871 0.06060
1652.21294 0.06106
1650.92717 0.06136
1649.64140 0.06161
1648.35564 0.06188
1647.06987 0.06219
1645.78410 0.06247
1644.49833 0.06265
1643.21256 0.06270
1641.92679 0.06267
1640.64102 0.06258
1639.35525 0.06245
1638.06949 0.06225
1636.78372 0.06197
1635.49795 0.06159
1634.21218 0.06112
1632.92641 0.06060
1631.64064 0.06005
1630.35487 0.05948
1629.06910 0.05890
1627.78333 0.05835
1626.49757 0.05782
1625.21180 0.05730
1623.92603 0.05671
1622.64026 0.05606
1621.35449 0.05541
1620.06872 0.05485
1618.78295 0.05441
1617.49718 0.05404
1616.21142 0.05367
1614.92565 0.05326
1613.63988 0.05281
1612.35411 0.05240
1611.06834 0.05207
1609.78257 0.05184
1608.49680 0.05170
1607.21103 0.05159
1605.92526 0.05150
1604.63950 0.05145
1603.35373 0.05143
1602.06796 0.05146
1600.78219 0.05150
1599.49642 0.05156
1598.21065 0.05164
1596.92488 0.05175
1595.63911 0.05187
1594.35335 0.05201
1593.06758 0.05215
1591.78181 0.05229
1590.49604 0.05243
1589.21027 0.05257
1587.92450 0.05275
1586.63873 0.05298
1585.35296 0.05322
1584.06719 0.05343
1582.78143 0.05360
1581.49566 0.05380
1580.20989 0.05409
1578.92412 0.05451
1577.63835 0.05501
1576.35258 0.05558
1575.06681 0.05618
1573.78104 0.05682
1572.49528 0.05749
1571.20951 0.05818
1569.92374 0.05886
1568.63797 0.05948
1567.35220 0.05999
1566.06643 0.06042
1564.78066 0.06083
1563.49489 0.06127
1562.20912 0.06174
1560.92336 0.06219
1559.63759 0.06254
1558.35182 0.06276
1557.06605 0.06291
1555.78028 0.06301
1554.49451 0.06307
1553.20874 0.06307
1551.92297 0.06296
1550.63721 0.06276
1549.35144 0.06248
1548.06567 0.06214
1546.77990 0.06171
1545.49413 0.06118
1544.20836 0.06057
1542.92259 0.05997
1541.63682 0.05947
1540.35105 0.05911
1539.06529 0.05889
1537.77952 0.05881
1536.49375 0.05886
1535.20798 0.05900
1533.92221 0.05914
1532.63644 0.05919
1531.35067 0.05917
1530.06490 0.05916
1528.77914 0.05924
1527.49337 0.05943
1526.20760 0.05968
1524.92183 0.05997
1523.63606 0.06028
1522.35029 0.06061
1521.06452 0.06097
1519.77875 0.06133
1518.49298 0.06176
1517.20722 0.06228
1515.92145 0.06293
1514.63568 0.06366
1513.34991 0.06444
1512.06414 0.06524
1510.77837 0.06605
1509.49260 0.06689
1508.20683 0.06776
1506.92107 0.06863
1505.63530 0.06942
1504.34953 0.07015
1503.06376 0.07085
1501.77799 0.07155
1500.49222 0.07222
1499.20645 0.07285
1497.92068 0.07342
1496.63491 0.07396
1495.34915 0.07448
1494.06338 0.07499
1492.77761 0.07549
1491.49184 0.07603
1490.20607 0.07664
1488.92030 0.07732
1487.63453 0.07803
1486.34876 0.07878
1485.06299 0.07958
1483.77723 0.08045
1482.49146 0.08142
1481.20569 0.08246
1479.91992 0.08352
1478.63415 0.08453
1477.34838 0.08538
1476.06261 0.08606
1474.77684 0.08661
1473.49108 0.08717
1472.20531 0.08783
1470.91954 0.08860
1469.63377 0.08942
1468.34800 0.09022
1467.06223 0.09093
1465.77646 0.09156
1464.49069 0.09219
1463.20492 0.09297
1461.91916 0.09401
1460.63339 0.09527
1459.34762 0.09661
1458.06185 0.09787
1456.77608 0.09895
1455.49031 0.09983
1454.20454 0.10055
1452.91877 0.10112
1451.63301 0.10156
1450.34724 0.10188
1449.06147 0.10210
1447.77570 0.10221
1446.48993 0.10220
1445.20416 0.10211
1443.91839 0.10198
1442.63262 0.10185
1441.34685 0.10173
1440.06109 0.10163
1438.77532 0.10159
1437.48955 0.10168
1436.20378 0.10197
1434.91801 0.10247
1433.63224 0.10314
1432.34647 0.10396
1431.06070 0.10492
1429.77494 0.10604
1428.48917 0.10731
1427.20340 0.10865
1425.91763 0.10997
1424.63186 0.11123
1423.34609 0.11247
1422.06032 0.11373
1420.77455 0.11502
1419.48878 0.11627
1418.20302 0.11743
1416.91725 0.11844
1415.63148 0.11930
1414.34571 0.12000
1413.05994 0.12055
1411.77417 0.12092
1410.48840 0.12107
1409.20263 0.12098
1407.91687 0.12064
1406.63110 0.12006
1405.34533 0.11924
1404.05956 0.11821
1402.77379 0.11700
1401.48802 0.11564
1400.20225 0.11413
1398.91648 0.11251
1397.63071 0.11076
1396.34495 0.10891
1395.05918 0.10694
1393.77341 0.10488
1392.48764 0.10280
1391.20187 0.10072
1389.91610 0.09867
1388.63033 0.09660
1387.34456 0.09451
1386.05880 0.09240
1384.77303 0.09028
1383.48726 0.08816
1382.20149 0.08603
1380.91572 0.08390
1379.62995 0.08180
1378.34418 0.07970
1377.05841 0.07760
1375.77264 0.07549
1374.48688 0.07337
1373.20111 0.07125
1371.91534 0.06917
1370.62957 0.06716
1369.34380 0.06526
1368.05803 0.06350
1366.77226 0.06186
1365.48649 0.06028
1364.20073 0.05873
1362.91496 0.05720
1361.62919 0.05574
1360.34342 0.05442
1359.05765 0.05327
1357.77188 0.05226
1356.48611 0.05132
1355.20034 0.05044
1353.91457 0.04961
1352.62881 0.04883
1351.34304 0.04810
1350.05727 0.04740
1348.77150 0.04675
1347.48573 0.04615
1346.19996 0.04560
1344.91419 0.04508
1343.62842 0.04457
1342.34266 0.04408
1341.05689 0.04359
1339.77112 0.04310
1338.48535 0.04263
1337.19958 0.04218
1335.91381 0.04174
1334.62804 0.04124
1333.34227 0.04066
1332.05650 0.04000
1330.77074 0.03938
1329.48497 0.03885
1328.19920 0.03843
1326.91343 0.03808
1325.62766 0.03776
1324.34189 0.03745
1323.05612 0.03716
1321.77035 0.03688
1320.48459 0.03656
1319.19882 0.03617
1317.91305 0.03574
1316.62728 0.03532
1315.34151 0.03493
1314.05574 0.03453
1312.76997 0.03410
1311.48420 0.03369
1310.19843 0.03334
1308.91267 0.03308
1307.62690 0.03287
1306.34113 0.03263
1305.05536 0.03235
1303.76959 0.03208
1302.48382 0.03188
1301.19805 0.03172
1299.91228 0.03157
1298.62652 0.03139
1297.34075 0.03119
1296.05498 0.03101
1294.76921 0.03085
1293.48344 0.03071
1292.19767 0.03060
1290.91190 0.03047
1289.62613 0.03031
1288.34036 0.03012
1287.05460 0.02997
1285.76883 0.02987
1284.48306 0.02982
1283.19729 0.02976
1281.91152 0.02967
1280.62575 0.02952
1279.33998 0.02937
1278.05421 0.02924
1276.76845 0.02915
1275.48268 0.02906
1274.19691 0.02894
1272.91114 0.02876
1271.62537 0.02854
1270.33960 0.02834
1269.05383 0.02821
1267.76806 0.02813
1266.48229 0.02804
1265.19653 0.02790
1263.91076 0.02778
1262.62499 0.02773
1261.33922 0.02774
1260.05345 0.02776
1258.76768 0.02774
1257.48191 0.02765
1256.19614 0.02756
1254.91037 0.02750
1253.62461 0.02748
1252.33884 0.02746
1251.05307 0.02740
1249.76730 0.02732
1248.48153 0.02723
1247.19576 0.02714
1245.90999 0.02705
1244.62422 0.02696
1243.33846 0.02687
1242.05269 0.02678
1240.76692 0.02666
1239.48115 0.02650
1238.19538 0.02631
1236.90961 0.02610
1235.62384 0.02590
1234.33807 0.02572
1233.05230 0.02556
1231.76654 0.02540
1230.48077 0.02524
1229.19500 0.02506
1227.90923 0.02488
1226.62346 0.02471
1225.33769 0.02453
1224.05192 0.02432
1222.76615 0.02405
1221.48039 0.02376
1220.19462 0.02347
1218.90885 0.02321
1217.62308 0.02299
1216.33731 0.02282
1215.05154 0.02268
1213.76577 0.02255
1212.48000 0.02241
1211.19423 0.02226
1209.90847 0.02211
1208.62270 0.02202
1207.33693 0.02198
1206.05116 0.02199
1204.76539 0.02201
1203.47962 0.02200
1202.19385 0.02194
1200.90808 0.02179
1199.62232 0.02157
1198.33655 0.02144
1197.05078 0.02131
1195.76501 0.02118
1194.47924 0.02103
1193.19347 0.02085
1191.90770 0.02062
1190.62193 0.02039
1189.33616 0.02021
1188.05040 0.02008
1186.76463 0.01999
1185.47886 0.01991
1184.19309 0.01984
1182.90732 0.01978
1181.62155 0.01975
1180.33578 0.01975
1179.05001 0.01974
1177.76425 0.01969
1176.47848 0.01962
1175.19271 0.01957
1173.90694 0.01959
1172.62117 0.01966
1171.33540 0.01973
1170.04963 0.01978
1168.76386 0.01982
1167.47809 0.01987
1166.19233 0.01994
1164.90656 0.02006
1163.62079 0.02022
1162.33502 0.02041
1161.04925 0.02054
1159.76348 0.02058
1158.47771 0.02057
1157.19194 0.02057
1155.90618 0.02062
1154.62041 0.02076
1153.33464 0.02100
1152.04887 0.02130
1150.76310 0.02162
1149.47733 0.02193
1148.19156 0.02224
1146.90579 0.02260
1145.62002 0.02301
1144.33426 0.02351
1143.04849 0.02414
1141.76272 0.02494
1140.47695 0.02586
1139.19118 0.02681
1137.90541 0.02772
1136.61964 0.02863
1135.33387 0.02968
1134.04811 0.03094
1132.76234 0.03242
1131.47657 0.03412
1130.19080 0.03606
1128.90503 0.03823
1127.61926 0.04062
1126.33349 0.04315
1125.04772 0.04580
1123.76195 0.04855
1122.47619 0.05143
1121.19042 0.05444
1119.90465 0.05755
1118.61888 0.06075
1117.33311 0.06401
1116.04734 0.06727
1114.76157 0.07047
1113.47580 0.07357
1112.19004 0.07658
1110.90427 0.07956
1109.61850 0.08256
1108.33273 0.08559
1107.04696 0.08859
1105.76119 0.09149
1104.47542 0.09426
1103.18965 0.09693
1101.90388 0.09956
1100.61812 0.10218
1099.33235 0.10477
1098.04658 0.10728
1096.76081 0.10969
1095.47504 0.11201
1094.18927 0.11422
1092.90350 0.11631
1091.61773 0.11831
1090.33197 0.12022
1089.04620 0.12206
1087.76043 0.12384
1086.47466 0.12561
1085.18889 0.12743
1083.90312 0.12937
1082.61735 0.13141
1081.33158 0.13352
1080.04581 0.13569
1078.76005 0.13793
1077.47428 0.14026
1076.18851 0.14271
1074.90274 0.14527
1073.61697 0.14794
1072.33120 0.15080
1071.04543 0.15388
1069.75966 0.15718
1068.47390 0.16059
1067.18813 0.16400
1065.90236 0.16740
1064.61659 0.17083
1063.33082 0.17429
1062.04505 0.17776
1060.75928 0.18118
1059.47351 0.18454
1058.18774 0.18789
1056.90198 0.19124
1055.61621 0.19452
1054.33044 0.19767
1053.04467 0.20071
1051.75890 0.20373
1050.47313 0.20684
1049.18736 0.21005
1047.90159 0.21331
1046.61583 0.21662
1045.33006 0.22003
1044.04429 0.22353
1042.75852 0.22701
1041.47275 0.23040
1040.18698 0.23369
1038.90121 0.23699
1037.61544 0.24038
1036.32967 0.24384
1035.04391 0.24731
1033.75814 0.25071
1032.47237 0.25397
1031.18660 0.25703
1029.90083 0.25983
1028.61506 0.26238
1027.32929 0.26472
1026.04352 0.26688
1024.75775 0.26881
1023.47199 0.27042
1022.18622 0.27166
1020.90045 0.27249
1019.61468 0.27295
1018.32891 0.27308
1017.04314 0.27289
1015.75737 0.27235
1014.47160 0.27136
1013.18584 0.26989
1011.90007 0.26797
1010.61430 0.26563
1009.32853 0.26286
1008.04276 0.25965
1006.75699 0.25604
1005.47122 0.25212
1004.18545 0.24792
1002.89968 0.24346
1001.61392 0.23875
1000.32815 0.23380
999.04238 0.22857
997.75661 0.22303
996.47084 0.21722
995.18507 0.21126
993.89930 0.20523
992.61353 0.19911
991.32777 0.19284
990.04200 0.18647
988.75623 0.18009
987.47046 0.17384
986.18469 0.16781
984.89892 0.16200
983.61315 0.15639
982.32738 0.15096
981.04161 0.14570
979.75585 0.14069
978.47008 0.13603
977.18431 0.13179
975.89854 0.12798
974.61277 0.12461
973.32700 0.12168
972.04123 0.11924
970.75546 0.11737
969.46970 0.11614
968.18393 0.11558
966.89816 0.11566
965.61239 0.11619
964.32662 0.11692
963.04085 0.11760
961.75508 0.11800
960.46931 0.11790
959.18354 0.11712
957.89778 0.11567
956.61201 0.11371
955.32624 0.11146
954.04047 0.10904
952.75470 0.10648
951.46893 0.10380
950.18316 0.10112
948.89739 0.09849
947.61163 0.09596
946.32586 0.09350
945.04009 0.09113
943.75432 0.08885
942.46855 0.08663
941.18278 0.08447
939.89701 0.08242
938.61124 0.08049
937.32547 0.07868
936.03971 0.07692
934.75394 0.07523
933.46817 0.07365
932.18240 0.07223
930.89663 0.07090
929.61086 0.06955
928.32509 0.06818
927.03932 0.06689
925.75356 0.06574
924.46779 0.06473
923.18202 0.06383
921.89625 0.06300
920.61048 0.06218
919.32471 0.06135
918.03894 0.06052
916.75317 0.05976
915.46740 0.05907
914.18164 0.05843
912.89587 0.05781
911.61010 0.05717
910.32433 0.05649
909.03856 0.05576
907.75279 0.05505
906.46702 0.05442
905.18125 0.05387
903.89549 0.05332
902.60972 0.05272
901.32395 0.05210
900.03818 0.05152
898.75241 0.05101
897.46664 0.05058
896.18087 0.05019
894.89510 0.04981
893.60933 0.04945
892.32357 0.04912
891.03780 0.04887
889.75203 0.04875
888.46626 0.04885
887.18049 0.04924
885.89472 0.05006
884.60895 0.05154
883.32318 0.05380
882.03742 0.05672
880.75165 0.05980
879.46588 0.06249
878.18011 0.06459
876.89434 0.06636
875.60857 0.06817
874.32280 0.07009
873.03703 0.07183
871.75126 0.07299
870.46550 0.07335
869.17973 0.07290
867.89396 0.07174
866.60819 0.06996
865.32242 0.06768
864.03665 0.06511
862.75088 0.06246
861.46511 0.05992
860.17935 0.05759
858.89358 0.05554
857.60781 0.05380
856.32204 0.05236
855.03627 0.05118
853.75050 0.05019
852.46473 0.04935
851.17896 0.04864
849.89319 0.04807
848.60743 0.04759
847.32166 0.04712
846.03589 0.04663
844.75012 0.04618
843.46435 0.04580
842.17858 0.04549
840.89281 0.04524
839.60704 0.04498
838.32128 0.04472
837.03551 0.04445
835.74974 0.04416
834.46397 0.04386
833.17820 0.04357
831.89243 0.04331
830.60666 0.04307
829.32089 0.04280
828.03512 0.04250
826.74936 0.04221
825.46359 0.04200
824.17782 0.04188
822.89205 0.04181
821.60628 0.04172
820.32051 0.04163
819.03474 0.04156
817.74897 0.04154
816.46321 0.04153
815.17744 0.04150
813.89167 0.04148
812.60590 0.04145
811.32013 0.04138
810.03436 0.04122
808.74859 0.04100
807.46282 0.04078
806.17705 0.04058
804.89129 0.04044
803.60552 0.04036
802.31975 0.04034
801.03398 0.04034
799.74821 0.04029
798.46244 0.04018
797.17667 0.04003
795.89090 0.03992
794.60513 0.03986
793.31937 0.03985
792.03360 0.03988
790.74783 0.03991
789.46206 0.03987
788.17629 0.03976
786.89052 0.03963
785.60475 0.03956
784.31898 0.03955
783.03322 0.03951
781.74745 0.03938
780.46168 0.03920
779.17591 0.03910
777.89014 0.03913
776.60437 0.03924
775.31860 0.03930
774.03283 0.03929
772.74706 0.03924
771.46130 0.03919
770.17553 0.03913
768.88976 0.03905
767.60399 0.03899
766.31822 0.03903
765.03245 0.03915
763.74668 0.03924
762.46091 0.03923
761.17515 0.03914
759.88938 0.03912
758.60361 0.03924
757.31784 0.03943
756.03207 0.03957
754.74630 0.03959
753.46053 0.03950
752.17476 0.03934
750.88899 0.03916
749.60323 0.03899
748.31746 0.03886
747.03169 0.03877
745.74592 0.03874
744.46015 0.03878
743.17438 0.03885
741.88861 0.03887
740.60284 0.03877
739.31708 0.03857
738.03131 0.03836
736.74554 0.03826
735.45977 0.03827
734.17400 0.03833
732.88823 0.03837
731.60246 0.03839
730.31669 0.03836
729.03092 0.03830
727.74516 0.03822
726.45939 0.03818
725.17362 0.03821
723.88785 0.03817
722.60208 0.03816
721.31631 0.03811
720.03054 0.03809
718.74477 0.03818
717.45901 0.03838
716.17324 0.03859
714.88747 0.03872
713.60170 0.03874
712.31593 0.03868
711.03016 0.03858
709.74439 0.03849
708.45862 0.03842
707.17285 0.03839
705.88709 0.03836
704.60132 0.03833
703.31555 0.03828
702.02978 0.03822
700.74401 0.03816
699.45824 0.03812
698.17247 0.03809
696.88670 0.03809
695.60094 0.03814
694.31517 0.03819
693.02940 0.03818
691.74363 0.03811
690.45786 0.03807
689.17209 0.03811
687.88632 0.03816
686.60055 0.03812
685.31478 0.03795
684.02902 0.03772
682.74325 0.03757
681.45748 0.03746
680.17171 0.03735
678.88594 0.03724
677.60017 0.03714
676.31440 0.03714
675.02863 0.03722
673.74287 0.03735
672.45710 0.03757
671.17133 0.03788
669.88556 0.03825
668.59979 0.03840
667.31402 0.03823
666.02825 0.03809
664.74248 0.03781
663.45671 0.03757
662.17095 0.03737
660.88518 0.03715
659.59941 0.03692
658.31364 0.03673
657.02787 0.03658
655.74210 0.03639
654.45633 0.03616
653.17056 0.03591
651.88480 0.03572
650.59903 0.03558
649.31326 0.03547
648.02749 0.03534
646.74172 0.03524
645.45595 0.03519
644.17018 0.03518
642.88441 0.03516
641.59864 0.03508
640.31288 0.03494
639.02711 0.03477
637.74134 0.03463
636.45557 0.03458
635.16980 0.03464
633.88403 0.03479
632.59826 0.03499
631.31249 0.03534
630.02673 0.03618
628.74096 0.03738
627.45519 0.03761
626.16942 0.03950
624.88365 0.04268
623.59788 0.04601
622.31211 0.04897
621.02634 0.05152
619.74057 0.05381
618.45481 0.05589
617.16904 0.05779
615.88327 0.05954
614.59750 0.06120
613.31173 0.06327
612.02596 0.06683
610.74019 0.07277
609.45442 0.08050
608.16866 0.08821
606.88289 0.09470
605.59712 0.10012
604.31135 0.10494
603.02558 0.10880
601.73981 0.11076
600.45404 0.11045
599.16827 0.10839
597.88250 0.10535
596.59674 0.10193
595.31097 0.09848
594.02520 0.09533
592.73943 0.09275
591.45366 0.09085
590.16789 0.08960
588.88212 0.08899
587.59635 0.08907
586.31059 0.08990
585.02482 0.09144
583.73905 0.09355
582.45328 0.09598
581.16751 0.09856
579.88174 0.10127
578.59597 0.10415
577.31020 0.10713
576.02443 0.11000
574.73867 0.11263
573.45290 0.11510
572.16713 0.11759
570.88136 0.12032
569.59559 0.12341
568.30982 0.12694
567.02405 0.13086
565.73828 0.13489
564.45251 0.13852
563.16675 0.14119
561.88098 0.14246
560.59521 0.14218
559.30944 0.14038
558.02367 0.13716
556.73790 0.13272
555.45213 0.12736
554.16636 0.12149
552.88060 0.11549
551.59483 0.10962
550.30906 0.10404
549.02329 0.09883
547.73752 0.09402
546.45175 0.08958
545.16598 0.08556
543.88021 0.08204
542.59444 0.07903
541.30868 0.07636
540.02291 0.07390
538.73714 0.07157
537.45137 0.06939
536.16560 0.06737
534.87983 0.06546
533.59406 0.06366
532.30829 0.06202
531.02253 0.06054
529.73676 0.05918
528.45099 0.05791
527.16522 0.05674
525.87945 0.05566
524.59368 0.05459
523.30791 0.05347
522.02214 0.05233
520.73637 0.05124
519.45061 0.05030
518.16484 0.04948
516.87907 0.04869
515.59330 0.04786
514.30753 0.04704
513.02176 0.04626
511.73599 0.04558
510.45022 0.04496
509.16446 0.04434
507.87869 0.04367
506.59292 0.04294
505.30715 0.04224
504.02138 0.04163
502.73561 0.04114
501.44984 0.04068
500.16407 0.04019
498.87830 0.03962
497.59254 0.03902
496.30677 0.03846
495.02100 0.03800
493.73523 0.03767
492.44946 0.03738
491.16369 0.03708
489.87792 0.03674
488.59215 0.03642
487.30639 0.03616
486.02062 0.03597
484.73485 0.03582
483.44908 0.03572
482.16331 0.03567
480.87754 0.03567
479.59177 0.03568
478.30600 0.03567
477.02023 0.03568
475.73447 0.03576
474.44870 0.03591
473.16293 0.03607
471.87716 0.03616
470.59139 0.03612
469.30562 0.03596
468.01985 0.03568
466.73408 0.03536
465.44832 0.03503
464.16255 0.03472
462.87678 0.03440
461.59101 0.03400
460.30524 0.03349
459.01947 0.03292
457.73370 0.03236
456.44793 0.03189
455.16216 0.03152
453.87640 0.03121
452.59063 0.03089
451.30486 0.03056
450.01909 0.03025
448.73332 0.02994
447.44755 0.02962
446.16178 0.02930
444.87601 0.02902
443.59025 0.02876
442.30448 0.02850
441.01871 0.02818
439.73294 0.02785
438.44717 0.02760
437.16140 0.02744
435.87563 0.02735
434.58986 0.02729
433.30409 0.02723
432.01833 0.02717
430.73256 0.02711
429.44679 0.02700
428.16102 0.02682
426.87525 0.02656
425.58948 0.02628
424.30371 0.02601
423.01794 0.02580
421.73218 0.02564
420.44641 0.02554
419.16064 0.02548
417.87487 0.02540
416.58910 0.02526
415.30333 0.02508
414.01756 0.02492
412.73179 0.02482
411.44602 0.02476
410.16026 0.02470
408.87449 0.02463
407.58872 0.02456
406.30295 0.02453
405.01718 0.02460
403.73141 0.02472
402.44564 0.02485
401.15987 0.02496
399.87411 0.02504
