3997.45528 0.04936
3996.16951 0.04856
3994.88374 0.04798
3993.59798 0.04735
3992.31221 0.04673
3991.02644 0.04639
3989.74067 0.04651
3988.45490 0.04712
3987.16913 0.04811
3985.88336 0.04930
3984.59759 0.05030
3983.31183 0.05072
3982.02606 0.05054
3980.74029 0.05017
3979.45452 0.04994
3978.16875 0.04978
3976.88298 0.04936
3975.59721 0.04861
3974.31144 0.04780
3973.02567 0.04732
3971.73991 0.04735
3970.45414 0.04776
3969.16837 0.04812
3967.88260 0.04798
3966.59683 0.04719
3965.31106 0.04613
3964.02529 0.04555
3962.73952 0.04594
3961.45376 0.04710
3960.16799 0.04836
3958.88222 0.04923
3957.59645 0.04961
3956.31068 0.04958
3955.02491 0.04913
3953.73914 0.04836
3952.45337 0.04756
3951.16760 0.04695
3949.88184 0.04648
3948.59607 0.04616
3947.31030 0.04618
3946.02453 0.04672
3944.73876 0.04766
3943.45299 0.04867
3942.16722 0.04931
3940.88145 0.04921
3939.59569 0.04833
3938.30992 0.04711
3937.02415 0.04617
3935.73838 0.04577
3934.45261 0.04571
3933.16684 0.04582
3931.88107 0.04612
3930.59530 0.04657
3929.30953 0.04692
3928.02377 0.04680
3926.73800 0.04607
3925.45223 0.04507
3924.16646 0.04443
3922.88069 0.04457
3921.59492 0.04555
3920.30915 0.04706
3919.02338 0.04855
3917.73762 0.04941
3916.45185 0.04933
3915.16608 0.04856
3913.88031 0.04770
3912.59454 0.04724
3911.30877 0.04730
3910.02300 0.04766
3908.73723 0.04807
3907.45146 0.04839
3906.16570 0.04858
3904.87993 0.04865
3903.59416 0.04849
3902.30839 0.04792
3901.02262 0.04702
3899.73685 0.04629
3898.45108 0.04620
3897.16531 0.04661
3895.87955 0.04691
3894.59378 0.04677
3893.30801 0.04638
3892.02224 0.04615
3890.73647 0.04622
3889.45070 0.04622
3888.16493 0.04578
3886.87916 0.04512
3885.59339 0.04480
3884.30763 0.04478
3883.02186 0.04453
3881.73609 0.04387
3880.45032 0.04338
3879.16455 0.04357
3877.87878 0.04424
3876.59301 0.04491
3875.30724 0.04536
3874.02148 0.04553
3872.73571 0.04525
3871.44994 0.04445
3870.16417 0.04369
3868.87840 0.04366
3867.59263 0.04434
3866.30686 0.04525
3865.02109 0.04598
3863.73532 0.04625
3862.44956 0.04583
3861.16379 0.04489
3859.87802 0.04404
3858.59225 0.04385
3857.30648 0.04433
3856.02071 0.04495
3854.73494 0.04524
3853.44917 0.04527
3852.16341 0.04532
3850.87764 0.04547
3849.59187 0.04558
3848.30610 0.04551
3847.02033 0.04526
3845.73456 0.04499
3844.44879 0.04484
3843.16302 0.04475
3841.87725 0.04446
3840.59149 0.04381
3839.30572 0.04306
3838.01995 0.04277
3836.73418 0.04329
3835.44841 0.04423
3834.16264 0.04487
3832.87687 0.04484
3831.59110 0.04432
3830.30534 0.04368
3829.01957 0.04321
3827.73380 0.04302
3826.44803 0.04319
3825.16226 0.04366
3823.87649 0.04408
3822.59072 0.04428
3821.30495 0.04446
3820.01918 0.04485
3818.73342 0.04509
3817.44765 0.04475
3816.16188 0.04402
3814.87611 0.04340
3813.59034 0.04304
3812.30457 0.04293
3811.01880 0.04309
3809.73303 0.04330
3808.44726 0.04325
3807.16150 0.04310
3805.87573 0.04320
3804.58996 0.04351
3803.30419 0.04379
3802.01842 0.04415
3800.73265 0.04481
3799.44688 0.04541
3798.16111 0.04542
3796.87535 0.04492
3795.58958 0.04439
3794.30381 0.04396
3793.01804 0.04356
3791.73227 0.04318
3790.44650 0.04300
3789.16073 0.04313
3787.87496 0.04358
3786.58919 0.04413
3785.30343 0.04440
3784.01766 0.04408
3782.73189 0.04323
3781.44612 0.04230
3780.16035 0.04178
3778.87458 0.04183
3777.58881 0.04220
3776.30304 0.04257
3775.01728 0.04276
3773.73151 0.04274
3772.44574 0.04258
3771.15997 0.04247
3769.87420 0.04258
3768.58843 0.04271
3767.30266 0.04258
3766.01689 0.04233
3764.73112 0.04238
3763.44536 0.04267
3762.15959 0.04260
3760.87382 0.04177
3759.58805 0.04056
3758.30228 0.03982
3757.01651 0.04020
3755.73074 0.04155
3754.44497 0.04301
3753.15921 0.04372
3751.87344 0.04343
3750.58767 0.04252
3749.30190 0.04187
3748.01613 0.04198
3746.73036 0.04237
3745.44459 0.04245
3744.15882 0.04251
3742.87305 0.04302
3741.58729 0.04376
3740.30152 0.04425
3739.01575 0.04419
3737.72998 0.04357
3736.44421 0.04271
3735.15844 0.04201
3733.87267 0.04152
3732.58690 0.04120
3731.30114 0.04116
3730.01537 0.04129
3728.72960 0.04118
3727.44383 0.04068
3726.15806 0.04009
3724.87229 0.03972
3723.58652 0.03958
3722.30075 0.03961
3721.01498 0.03990
3719.72922 0.04046
3718.44345 0.04120
3717.15768 0.04194
3715.87191 0.04254
3714.58614 0.04278
3713.30037 0.04257
3712.01460 0.04214
3710.72883 0.04193
3709.44307 0.04209
3708.15730 0.04231
3706.87153 0.04224
3705.58576 0.04182
3704.29999 0.04137
3703.01422 0.04123
3701.72845 0.04151
3700.44268 0.04187
3699.15691 0.04172
3697.87115 0.04088
3696.58538 0.03991
3695.29961 0.03949
3694.01384 0.03971
3692.72807 0.03998
3691.44230 0.03962
3690.15653 0.03831
3688.87076 0.03646
3687.58500 0.03497
3686.29923 0.03459
3685.01346 0.03551
3683.72769 0.03734
3682.44192 0.03930
3681.15615 0.04079
3679.87038 0.04171
3678.58461 0.04212
3677.29884 0.04190
3676.01308 0.04121
3674.72731 0.04050
3673.44154 0.03994
3672.15577 0.03946
3670.87000 0.03931
3669.58423 0.03977
3668.29846 0.04050
3667.01269 0.04091
3665.72693 0.04087
3664.44116 0.04065
3663.15539 0.04058
3661.86962 0.04080
3660.58385 0.04126
3659.29808 0.04157
3658.01231 0.04136
3656.72654 0.04076
3655.44077 0.04034
3654.15501 0.04045
3652.86924 0.04079
3651.58347 0.04085
3650.29770 0.04052
3649.01193 0.04026
3647.72616 0.04058
3646.44039 0.04144
3645.15462 0.04221
3643.86886 0.04231
3642.58309 0.04173
3641.29732 0.04093
3640.01155 0.04037
3638.72578 0.04028
3637.44001 0.04054
3636.15424 0.04076
3634.86847 0.04059
3633.58270 0.04024
3632.29694 0.04022
3631.01117 0.04082
3629.72540 0.04185
3628.43963 0.04280
3627.15386 0.04314
3625.86809 0.04276
3624.58232 0.04224
3623.29655 0.04211
3622.01079 0.04227
3620.72502 0.04233
3619.43925 0.04231
3618.15348 0.04261
3616.86771 0.04348
3615.58194 0.04473
3614.29617 0.04584
3613.01040 0.04637
3611.72463 0.04622
3610.43887 0.04569
3609.15310 0.04542
3607.86733 0.04592
3606.58156 0.04712
3605.29579 0.04841
3604.01002 0.04914
3602.72425 0.04915
3601.43848 0.04880
3600.15272 0.04860
3598.86695 0.04869
3597.58118 0.04892
3596.29541 0.04899
3595.00964 0.04871
3593.72387 0.04811
3592.43810 0.04751
3591.15233 0.04742
3589.86656 0.04815
3588.58080 0.04954
3587.29503 0.05091
3586.00926 0.05156
3584.72349 0.05129
3583.43772 0.05052
3582.15195 0.04981
3580.86618 0.04941
3579.58041 0.04932
3578.29464 0.04956
3577.00888 0.05014
3575.72311 0.05093
3574.43734 0.05175
3573.15157 0.05245
3571.86580 0.05303
3570.58003 0.05339
3569.29426 0.05355
3568.00849 0.05372
3566.72273 0.05415
3565.43696 0.05471
3564.15119 0.05489
3562.86542 0.05433
3561.57965 0.05326
3560.29388 0.05238
3559.00811 0.05234
3557.72234 0.05327
3556.43657 0.05473
3555.15081 0.05604
3553.86504 0.05666
3552.57927 0.05645
3551.29350 0.05575
3550.00773 0.05511
3548.72196 0.05503
3547.43619 0.05561
3546.15042 0.05664
3544.86466 0.05779
3543.57889 0.05882
3542.29312 0.05955
3541.00735 0.05978
3539.72158 0.05934
3538.43581 0.05830
3537.15004 0.05706
3535.86427 0.05617
3534.57850 0.05604
3533.29274 0.05668
3532.00697 0.05772
3530.72120 0.05882
3529.43543 0.05979
3528.14966 0.06050
3526.86389 0.06086
3525.57812 0.06093
3524.29235 0.06101
3523.00659 0.06131
3521.72082 0.06166
3520.43505 0.06169
3519.14928 0.06134
3517.86351 0.06100
3516.57774 0.06109
3515.29197 0.06175
3514.00620 0.06276
3512.72043 0.06371
3511.43467 0.06420
3510.14890 0.06400
3508.86313 0.06329
3507.57736 0.06257
3506.29159 0.06223
3505.00582 0.06225
3503.72005 0.06240
3502.43428 0.06258
3501.14852 0.06292
3499.86275 0.06344
3498.57698 0.06395
3497.29121 0.06422
3496.00544 0.06427
3494.71967 0.06429
3493.43390 0.06441
3492.14813 0.06464
3490.86236 0.06507
3489.57660 0.06573
3488.29083 0.06655
3487.00506 0.06736
3485.71929 0.06809
3484.43352 0.06864
3483.14775 0.06887
3481.86198 0.06867
3480.57621 0.06821
3479.29045 0.06783
3478.00468 0.06765
3476.71891 0.06753
3475.43314 0.06729
3474.14737 0.06696
3472.86160 0.06680
3471.57583 0.06696
3470.29006 0.06731
3469.00429 0.06754
3467.71853 0.06752
3466.43276 0.06741
3465.14699 0.06742
3463.86122 0.06761
3462.57545 0.06781
3461.28968 0.06787
3460.00391 0.06781
3458.71814 0.06785
3457.43238 0.06816
3456.14661 0.06864
3454.86084 0.06898
3453.57507 0.06901
3452.28930 0.06878
3451.00353 0.06851
3449.71776 0.06840
3448.43199 0.06853
3447.14622 0.06883
3445.86046 0.06916
3444.57469 0.06953
3443.28892 0.07004
3442.00315 0.07072
3440.71738 0.07132
3439.43161 0.07163
3438.14584 0.07174
3436.86007 0.07186
3435.57431 0.07201
3434.28854 0.07202
3433.00277 0.07187
3431.71700 0.07190
3430.43123 0.07247
3429.14546 0.07349
3427.85969 0.07438
3426.57392 0.07452
3425.28815 0.07383
3424.00239 0.07288
3422.71662 0.07234
3421.43085 0.07252
3420.14508 0.07317
3418.85931 0.07384
3417.57354 0.07429
3416.28777 0.07465
3415.00200 0.07511
3413.71624 0.07562
3412.43047 0.07588
3411.14470 0.07562
3409.85893 0.07494
3408.57316 0.07427
3407.28739 0.07406
3406.00162 0.07445
3404.71585 0.07516
3403.43008 0.07573
3402.14432 0.07600
3400.85855 0.07610
3399.57278 0.07578
3398.28701 0.07532
3397.00124 0.07541
3395.71547 0.07581
3394.42970 0.07608
3393.14393 0.07606
3391.85817 0.07596
3390.57240 0.07605
3389.28663 0.07637
3388.00086 0.07681
3386.71509 0.07734
3385.42932 0.07804
3384.14355 0.07881
3382.85778 0.07938
3381.57201 0.07961
3380.28625 0.07965
3379.00048 0.07971
3377.71471 0.07980
3376.42894 0.07981
3375.14317 0.07965
3373.85740 0.07930
3372.57163 0.07885
3371.28586 0.07846
3370.00010 0.07824
3368.71433 0.07818
3367.42856 0.07824
3366.14279 0.07847
3364.85702 0.07881
3363.57125 0.07907
3362.28548 0.07907
3360.99971 0.07882
3359.71394 0.07853
3358.42818 0.07846
3357.14241 0.07876
3355.85664 0.07937
3354.57087 0.08007
3353.28510 0.08067
3351.99933 0.08114
3350.71356 0.08152
3349.42779 0.08176
3348.14202 0.08172
3346.85626 0.08141
3345.57049 0.08114
3344.28472 0.08132
3342.99895 0.08202
3341.71318 0.08281
3340.42741 0.08318
3339.14164 0.08303
3337.85587 0.08261
3336.57011 0.08221
3335.28434 0.08198
3333.99857 0.08197
3332.71280 0.08218
3331.42703 0.08250
3330.14126 0.08278
3328.85549 0.08288
3327.56972 0.08281
3326.28395 0.08271
3324.99819 0.08272
3323.71242 0.08290
3322.42665 0.08318
3321.14088 0.08355
3319.85511 0.08405
3318.56934 0.08457
3317.28357 0.08488
3315.99780 0.08494
3314.71204 0.08500
3313.42627 0.08534
3312.14050 0.08588
3310.85473 0.08633
3309.56896 0.08650
3308.28319 0.08646
3306.99742 0.08633
3305.71165 0.08608
3304.42588 0.08572
3303.14012 0.08544
3301.85435 0.08546
3300.56858 0.08577
3299.28281 0.08612
3297.99704 0.08621
3296.71127 0.08596
3295.42550 0.08561
3294.13973 0.08547
3292.85397 0.08569
3291.56820 0.08610
3290.28243 0.08639
3288.99666 0.08648
3287.71089 0.08652
3286.42512 0.08662
3285.13935 0.08670
3283.85358 0.08668
3282.56781 0.08661
3281.28205 0.08657
3279.99628 0.08656
3278.71051 0.08656
3277.42474 0.08653
3276.13897 0.08635
3274.85320 0.08600
3273.56743 0.08566
3272.28166 0.08565
3270.99590 0.08600
3269.71013 0.08637
3268.42436 0.08647
3267.13859 0.08635
3265.85282 0.08625
3264.56705 0.08625
3263.28128 0.08628
3261.99551 0.08633
3260.70974 0.08644
3259.42398 0.08646
3258.13821 0.08618
3256.85244 0.08557
3255.56667 0.08487
3254.28090 0.08431
3252.99513 0.08393
3251.70936 0.08369
3250.42359 0.08359
3249.13783 0.08366
3247.85206 0.08380
3246.56629 0.08381
3245.28052 0.08359
3243.99475 0.08327
3242.70898 0.08310
3241.42321 0.08328
3240.13744 0.08382
3238.85167 0.08452
3237.56591 0.08500
3236.28014 0.08493
3234.99437 0.08426
3233.70860 0.08324
3232.42283 0.08225
3231.13706 0.08162
3229.85129 0.08149
3228.56552 0.08168
3227.27976 0.08185
3225.99399 0.08176
3224.70822 0.08144
3223.42245 0.08110
3222.13668 0.08090
3220.85091 0.08083
3219.56514 0.08082
3218.27937 0.08088
3216.99360 0.08102
3215.70784 0.08120
3214.42207 0.08129
3213.13630 0.08121
3211.85053 0.08090
3210.56476 0.08043
3209.27899 0.07998
3207.99322 0.07980
3206.70745 0.07997
3205.42169 0.08034
3204.13592 0.08064
3202.85015 0.08068
3201.56438 0.08041
3200.27861 0.07993
3198.99284 0.07947
3197.70707 0.07930
3196.42130 0.07956
3195.13553 0.08005
3193.84977 0.08043
3192.56400 0.08051
3191.27823 0.08036
3189.99246 0.08011
3188.70669 0.07977
3187.42092 0.07925
3186.13515 0.07856
3184.84938 0.07792
3183.56362 0.07761
3182.27785 0.07783
3180.99208 0.07853
3179.70631 0.07931
3178.42054 0.07964
3177.13477 0.07920
3175.84900 0.07818
3174.56323 0.07704
3173.27746 0.07616
3171.99170 0.07564
3170.70593 0.07539
3169.42016 0.07532
3168.13439 0.07536
3166.84862 0.07545
3165.56285 0.07549
3164.27708 0.07539
3162.99131 0.07524
3161.70555 0.07515
3160.41978 0.07510
3159.13401 0.07491
3157.84824 0.07442
3156.56247 0.07371
3155.27670 0.07303
3153.99093 0.07262
3152.70516 0.07253
3151.41939 0.07263
3150.13363 0.07275
3148.84786 0.07283
3147.56209 0.07293
3146.27632 0.07315
3144.99055 0.07345
3143.70478 0.07375
3142.41901 0.07394
3141.13324 0.07394
3139.84748 0.07378
3138.56171 0.07363
3137.27594 0.07363
3135.99017 0.07376
3134.70440 0.07380
3133.41863 0.07361
3132.13286 0.07325
3130.84709 0.07284
3129.56132 0.07237
3128.27556 0.07180
3126.98979 0.07116
3125.70402 0.07051
3124.41825 0.06992
3123.13248 0.06948
3121.84671 0.06932
3120.56094 0.06950
3119.27517 0.06988
3117.98940 0.07023
3116.70364 0.07037
3115.41787 0.07034
3114.13210 0.07025
3112.84633 0.07019
3111.56056 0.07014
3110.27479 0.07001
3108.98902 0.06977
3107.70325 0.06950
3106.41749 0.06930
3105.13172 0.06918
3103.84595 0.06912
3102.56018 0.06917
3101.27441 0.06941
3099.98864 0.06978
3098.70287 0.07013
3097.41710 0.07034
3096.13133 0.07041
3094.84557 0.07041
3093.55980 0.07040
3092.27403 0.07039
3090.98826 0.07031
3089.70249 0.07012
3088.41672 0.06983
3087.13095 0.06957
3085.84518 0.06947
3084.55942 0.06959
3083.27365 0.06989
3081.98788 0.07023
3080.70211 0.07043
3079.41634 0.07038
3078.13057 0.07018
3076.84480 0.07003
3075.55903 0.07002
3074.27326 0.07004
3072.98750 0.06996
3071.70173 0.06983
3070.41596 0.06979
3069.13019 0.06988
3067.84442 0.06990
3066.55865 0.06969
3065.27288 0.06926
3063.98711 0.06883
3062.70135 0.06859
3061.41558 0.06853
3060.12981 0.06852
3058.84404 0.06842
3057.55827 0.06819
3056.27250 0.06789
3054.98673 0.06761
3053.70096 0.06747
3052.41519 0.06748
3051.12943 0.06752
3049.84366 0.06742
3048.55789 0.06709
3047.27212 0.06663
3045.98635 0.06622
3044.70058 0.06591
3043.41481 0.06573
3042.12904 0.06565
3040.84328 0.06567
3039.55751 0.06571
3038.27174 0.06568
3036.98597 0.06554
3035.70020 0.06540
3034.41443 0.06535
3033.12866 0.06537
3031.84289 0.06532
3030.55712 0.06513
3029.27136 0.06494
3027.98559 0.06485
3026.69982 0.06483
3025.41405 0.06471
3024.12828 0.06448
3022.84251 0.06427
3021.55674 0.06415
3020.27097 0.06403
3018.98521 0.06388
3017.69944 0.06379
3016.41367 0.06386
3015.12790 0.06408
3013.84213 0.06423
3012.55636 0.06412
3011.27059 0.06369
3009.98482 0.06311
3008.69905 0.06257
3007.41329 0.06219
3006.12752 0.06198
3004.84175 0.06189
3003.55598 0.06195
3002.27021 0.06225
3000.98444 0.06261
2999.69867 0.06245
2998.41290 0.06262
2997.12714 0.06287
2995.84137 0.06317
2994.55560 0.06350
2993.26983 0.06377
2991.98406 0.06390
2990.69829 0.06384
2989.41252 0.06354
2988.12675 0.06306
2986.84098 0.06259
2985.55522 0.06237
2984.26945 0.06251
2982.98368 0.06282
2981.69791 0.06300
2980.41214 0.06301
2979.12637 0.06307
2977.84060 0.06334
2976.55483 0.06365
2975.26907 0.06374
2973.98330 0.06365
2972.69753 0.06369
2971.41176 0.06411
2970.12599 0.06474
2968.84022 0.06526
2967.55445 0.06547
2966.26868 0.06552
2964.98291 0.06565
2963.69715 0.06592
2962.41138 0.06621
2961.12561 0.06633
2959.83984 0.06628
2958.55407 0.06625
2957.26830 0.06639
2955.98253 0.06672
2954.69676 0.06712
2953.41100 0.06746
2952.12523 0.06769
2950.83946 0.06788
2949.55369 0.06809
2948.26792 0.06826
2946.98215 0.06821
2945.69638 0.06779
2944.41061 0.06714
2943.12484 0.06656
2941.83908 0.06629
2940.55331 0.06632
2939.26754 0.06647
2937.98177 0.06664
2936.69600 0.06684
2935.41023 0.06707
2934.12446 0.06728
2932.83869 0.06745
2931.55293 0.06752
2930.26716 0.06750
2928.98139 0.06753
2927.69562 0.06784
2926.40985 0.06843
2925.12408 0.06895
2923.83831 0.06896
2922.55254 0.06846
2921.26677 0.06781
2919.98101 0.06739
2918.69524 0.06727
2917.40947 0.06730
2916.12370 0.06728
2914.83793 0.06707
2913.55216 0.06660
2912.26639 0.06603
2910.98062 0.06560
2909.69486 0.06543
2908.40909 0.06536
2907.12332 0.06516
2905.83755 0.06477
2904.55178 0.06431
2903.26601 0.06390
2901.98024 0.06356
2900.69447 0.06331
2899.40870 0.06322
2898.12294 0.06322
2896.83717 0.06313
2895.55140 0.06281
2894.26563 0.06231
2892.97986 0.06182
2891.69409 0.06146
2890.40832 0.06127
2889.12255 0.06115
2887.83678 0.06097
2886.55102 0.06066
2885.26525 0.06033
2883.97948 0.06012
2882.69371 0.06013
2881.40794 0.06032
2880.12217 0.06052
2878.83640 0.06060
2877.55063 0.06061
2876.26487 0.06073
2874.97910 0.06102
2873.69333 0.06125
2872.40756 0.06119
2871.12179 0.06090
2869.83602 0.06060
2868.55025 0.06043
2867.26448 0.06034
2865.97871 0.06019
2864.69295 0.05992
2863.40718 0.05957
2862.12141 0.05923
2860.83564 0.05892
2859.54987 0.05857
2858.26410 0.05816
2856.97833 0.05777
2855.69256 0.05755
2854.40680 0.05751
2853.12103 0.05752
2851.83526 0.05740
2850.54949 0.05710
2849.26372 0.05675
2847.97795 0.05659
2846.69218 0.05668
2845.40641 0.05692
2844.12064 0.05706
2842.83488 0.05696
2841.54911 0.05655
2840.26334 0.05588
2838.97757 0.05505
2837.69180 0.05422
2836.40603 0.05359
2835.12026 0.05327
2833.83449 0.05324
2832.54873 0.05344
2831.26296 0.05373
2829.97719 0.05394
2828.69142 0.05382
2827.40565 0.05330
2826.11988 0.05255
2824.83411 0.05188
2823.54834 0.05151
2822.26257 0.05142
2820.97681 0.05150
2819.69104 0.05160
2818.40527 0.05161
2817.11950 0.05155
2815.83373 0.05148
2814.54796 0.05145
2813.26219 0.05147
2811.97642 0.05152
2810.69066 0.05153
2809.40489 0.05142
2808.11912 0.05121
2806.83335 0.05095
2805.54758 0.05070
2804.26181 0.05044
2802.97604 0.05025
2801.69027 0.05019
2800.40450 0.05026
2799.11874 0.05029
2797.83297 0.05021
2796.54720 0.05006
2795.26143 0.05000
2793.97566 0.05003
2792.68989 0.05003
2791.40412 0.04990
2790.11835 0.04968
2788.83259 0.04947
2787.54682 0.04923
2786.26105 0.04893
2784.97528 0.04858
2783.68951 0.04831
2782.40374 0.04819
2781.11797 0.04818
2779.83220 0.04825
2778.54643 0.04837
2777.26067 0.04850
2775.97490 0.04862
2774.68913 0.04866
2773.40336 0.04861
2772.11759 0.04846
2770.83182 0.04831
2769.54605 0.04825
2768.26028 0.04828
2766.97452 0.04832
2765.68875 0.04831
2764.40298 0.04827
2763.11721 0.04822
2761.83144 0.04813
2760.54567 0.04794
2759.25990 0.04763
2757.97413 0.04724
2756.68836 0.04686
2755.40260 0.04667
2754.11683 0.04673
2752.83106 0.04692
2751.54529 0.04699
2750.25952 0.04687
2748.97375 0.04667
2747.68798 0.04653
2746.40221 0.04643
2745.11645 0.04628
2743.83068 0.04606
2742.54491 0.04588
2741.25914 0.04583
2739.97337 0.04588
2738.68760 0.04599
2737.40183 0.04611
2736.11606 0.04624
2734.83029 0.04629
2733.54453 0.04615
2732.25876 0.04585
2730.97299 0.04553
2729.68722 0.04540
2728.40145 0.04550
2727.11568 0.04571
2725.82991 0.04583
2724.54414 0.04574
2723.25838 0.04546
2721.97261 0.04519
2720.68684 0.04505
2719.40107 0.04504
2718.11530 0.04503
2716.82953 0.04492
2715.54376 0.04467
2714.25799 0.04439
2712.97222 0.04421
2711.68646 0.04413
2710.40069 0.04412
2709.11492 0.04414
2707.82915 0.04419
2706.54338 0.04426
2705.25761 0.04426
2703.97184 0.04415
2702.68607 0.04399
2701.40031 0.04382
2700.11454 0.04367
2698.82877 0.04355
2697.54300 0.04344
2696.25723 0.04334
2694.97146 0.04328
2693.68569 0.04324
2692.39992 0.04316
2691.11415 0.04297
2689.82839 0.04279
2688.54262 0.04273
2687.25685 0.04280
2685.97108 0.04284
2684.68531 0.04274
2683.39954 0.04256
2682.11377 0.04245
2680.82800 0.04247
2679.54224 0.04253
2678.25647 0.04251
2676.97070 0.04235
2675.68493 0.04210
2674.39916 0.04181
2673.11339 0.04161
2671.82762 0.04154
2670.54185 0.04164
2669.25608 0.04185
2667.97032 0.04204
2666.68455 0.04204
2665.39878 0.04185
2664.11301 0.04166
2662.82724 0.04172
2661.54147 0.04204
2660.25570 0.04244
2658.96993 0.04277
2657.68417 0.04304
2656.39840 0.04327
2655.11263 0.04349
2653.82686 0.04364
2652.54109 0.04365
2651.25532 0.04342
2649.96955 0.04293
2648.68378 0.04230
2647.39801 0.04173
2646.11225 0.04135
2644.82648 0.04120
2643.54071 0.04119
2642.25494 0.04119
2640.96917 0.04113
2639.68340 0.04101
2638.39763 0.04089
2637.11186 0.04078
2635.82609 0.04064
2634.54033 0.04042
2633.25456 0.04021
2631.96879 0.04016
2630.68302 0.04029
2629.39725 0.04050
2628.11148 0.04061
2626.82571 0.04051
2625.53994 0.04021
2624.25418 0.03983
2622.96841 0.03956
2621.68264 0.03947
2620.39687 0.03943
2619.11110 0.03923
2617.82533 0.03877
2616.53956 0.03822
2615.25379 0.03785
2613.96802 0.03779
2612.68226 0.03782
2611.39649 0.03770
2610.11072 0.03741
2608.82495 0.03722
2607.53918 0.03730
2606.25341 0.03758
2604.96764 0.03786
2603.68187 0.03798
2602.39611 0.03788
2601.11034 0.03755
2599.82457 0.03714
2598.53880 0.03671
2597.25303 0.03630
2595.96726 0.03590
2594.68149 0.03557
2593.39572 0.03531
2592.10995 0.03513
2590.82419 0.03515
2589.53842 0.03550
2588.25265 0.03610
2586.96688 0.03664
2585.68111 0.03685
2584.39534 0.03672
2583.10957 0.03640
2581.82380 0.03603
2580.53804 0.03565
2579.25227 0.03535
2577.96650 0.03518
2576.68073 0.03514
2575.39496 0.03507
2574.10919 0.03485
2572.82342 0.03457
2571.53765 0.03435
2570.25188 0.03422
2568.96612 0.03415
2567.68035 0.03425
2566.39458 0.03468
2565.10881 0.03527
2563.82304 0.03561
2562.53727 0.03541
2561.25150 0.03482
2559.96573 0.03419
2558.67997 0.03371
2557.39420 0.03332
2556.10843 0.03295
2554.82266 0.03269
2553.53689 0.03262
2552.25112 0.03271
2550.96535 0.03275
2549.67958 0.03255
2548.39381 0.03215
2547.10805 0.03174
2545.82228 0.03153
2544.53651 0.03156
2543.25074 0.03172
2541.96497 0.03191
2540.67920 0.03210
2539.39343 0.03222
2538.10766 0.03220
2536.82190 0.03201
2535.53613 0.03178
2534.25036 0.03169
2532.96459 0.03178
2531.67882 0.03194
2530.39305 0.03193
2529.10728 0.03161
2527.82151 0.03115
2526.53574 0.03095
2525.24998 0.03130
2523.96421 0.03213
2522.67844 0.03304
2521.39267 0.03360
2520.10690 0.03357
2518.82113 0.03305
2517.53536 0.03235
2516.24959 0.03178
2514.96383 0.03138
2513.67806 0.03108
2512.39229 0.03087
2511.10652 0.03092
2509.82075 0.03121
2508.53498 0.03138
2507.24921 0.03104
2505.96344 0.03030
2504.67767 0.02972
2503.39191 0.02973
2502.10614 0.03017
2500.82037 0.03057
2499.53460 0.03076
2498.24883 0.03088
2496.96306 0.03098
2495.67729 0.03094
2494.39152 0.03075
2493.10576 0.03060
2491.81999 0.03063
2490.53422 0.03071
2489.24845 0.03063
2487.96268 0.03042
2486.67691 0.03033
2485.39114 0.03053
2484.10537 0.03090
2482.81960 0.03121
2481.53384 0.03132
2480.24807 0.03124
2478.96230 0.03104
2477.67653 0.03092
2476.39076 0.03107
2475.10499 0.03141
2473.81922 0.03160
2472.53345 0.03136
2471.24769 0.03074
2469.96192 0.03003
2468.67615 0.02942
2467.39038 0.02905
2466.10461 0.02904
2464.81884 0.02942
2463.53307 0.03000
2462.24730 0.03047
2460.96153 0.03069
2459.67577 0.03075
2458.39000 0.03078
2457.10423 0.03083
2455.81846 0.03086
2454.53269 0.03085
2453.24692 0.03081
2451.96115 0.03078
2450.67538 0.03082
2449.38962 0.03095
2448.10385 0.03108
2446.81808 0.03102
2445.53231 0.03073
2444.24654 0.03039
2442.96077 0.03015
2441.67500 0.02997
2440.38923 0.02974
2439.10346 0.02953
2437.81770 0.02951
2436.53193 0.02966
2435.24616 0.02975
2433.96039 0.02970
2432.67462 0.02970
2431.38885 0.02996
2430.10308 0.03041
2428.81731 0.03071
2427.53155 0.03056
2426.24578 0.02995
2424.96001 0.02911
2423.67424 0.02839
2422.38847 0.02797
2421.10270 0.02787
2419.81693 0.02799
2418.53116 0.02823
2417.24539 0.02843
2415.95963 0.02856
2414.67386 0.02869
2413.38809 0.02890
2412.10232 0.02905
2410.81655 0.02901
2409.53078 0.02881
2408.24501 0.02860
2406.95924 0.02840
2405.67347 0.02811
2404.38771 0.02780
2403.10194 0.02769
2401.81617 0.02783
2400.53040 0.02811
2399.24463 0.02923
2397.95886 0.02875
2396.67309 0.02837
2395.38732 0.02844
2394.10156 0.02861
2392.81579 0.02868
2391.53002 0.02857
2390.24425 0.02826
2388.95848 0.02786
2387.67271 0.02758
2386.38694 0.02753
2385.10117 0.02769
2383.81540 0.02792
2382.52964 0.02809
2381.24387 0.02812
2379.95810 0.02806
2378.67233 0.02798
2377.38656 0.02795
2376.10079 0.02798
2374.81502 0.02806
2373.52925 0.02817
2372.24349 0.02828
2370.95772 0.02833
2369.67195 0.02834
2368.38618 0.02838
2367.10041 0.02845
2365.81464 0.02853
2364.52887 0.02855
2363.24310 0.02852
2361.95733 0.02852
2360.67157 0.02856
2359.38580 0.02860
2358.10003 0.02862
2356.81426 0.02871
2355.52849 0.02892
2354.24272 0.02921
2352.95695 0.02946
2351.67118 0.02965
2350.38542 0.02977
2349.09965 0.02983
2347.81388 0.02981
2346.52811 0.02977
2345.24234 0.02972
2343.95657 0.02966
2342.67080 0.02965
2341.38503 0.02972
2340.09926 0.02981
2338.81350 0.02974
2337.52773 0.02951
2336.24196 0.02932
2334.95619 0.02918
2333.67042 0.02896
2332.38465 0.02875
2331.09888 0.02876
2329.81311 0.02893
2328.52735 0.02929
2327.24158 0.03018
2325.95581 0.03140
2324.67004 0.03240
2323.38427 0.03291
2322.09850 0.03291
2320.81273 0.03247
2319.52696 0.03193
2318.24119 0.03140
2316.95543 0.03082
2315.66966 0.03026
2314.38389 0.02976
2313.09812 0.02932
2311.81235 0.02897
2310.52658 0.02869
2309.24081 0.02849
2307.95504 0.02839
2306.66928 0.02830
2305.38351 0.02817
2304.09774 0.02801
2302.81197 0.02793
2301.52620 0.02802
2300.24043 0.02820
2298.95466 0.02838
2297.66889 0.02849
2296.38312 0.02863
2295.09736 0.02888
2293.81159 0.02915
2292.52582 0.02925
2291.24005 0.02913
2289.95428 0.02893
2288.66851 0.02884
2287.38274 0.02879
2286.09697 0.02859
2284.81121 0.02814
2283.52544 0.02763
2282.23967 0.02731
2280.95390 0.02724
2279.66813 0.02716
2278.38236 0.02674
2277.09659 0.02596
2275.81082 0.02516
2274.52505 0.02473
2273.23929 0.02472
2271.95352 0.02487
2270.66775 0.02482
2269.38198 0.02444
2268.09621 0.02390
2266.81044 0.02362
2265.52467 0.02390
2264.23890 0.02463
2262.95314 0.02537
2261.66737 0.02567
2260.38160 0.02540
2259.09583 0.02473
2257.81006 0.02389
2256.52429 0.02301
2255.23852 0.02219
2253.95275 0.02160
2252.66698 0.02130
2251.38122 0.02096
2250.09545 0.02071
2248.80968 0.02175
2247.52391 0.02162
2246.23814 0.02137
2244.95237 0.02120
2243.66660 0.02106
2242.38083 0.02084
2241.09507 0.02057
2239.80930 0.02036
2238.52353 0.02027
2237.23776 0.02038
2235.95199 0.02083
2234.66622 0.02167
2233.38045 0.02261
2232.09468 0.02318
2230.80891 0.02308
2229.52315 0.02240
2228.23738 0.02143
2226.95161 0.02054
2225.66584 0.01996
2224.38007 0.01968
2223.09430 0.01944
2221.80853 0.01906
2220.52276 0.01876
2219.23700 0.01899
2217.95123 0.01991
2216.66546 0.02108
2215.37969 0.02174
2214.09392 0.02157
2212.80815 0.02083
2211.52238 0.01997
2210.23661 0.01923
2208.95084 0.01870
2207.66508 0.01843
2206.37931 0.01840
2205.09354 0.01848
2203.80777 0.01858
2202.52200 0.01862
2201.23623 0.01840
2199.95046 0.01774
2198.66469 0.01680
2197.37893 0.01597
2196.09316 0.01553
2194.80739 0.01554
2193.52162 0.01586
2192.23585 0.01623
2190.95008 0.01646
2189.66431 0.01662
2188.37854 0.01680
2187.09277 0.01677
2185.80701 0.01616
2184.52124 0.01513
2183.23547 0.01437
2181.94970 0.01434
2180.66393 0.01498
2179.37816 0.01585
2178.09239 0.01651
2176.80662 0.01662
2175.52085 0.01624
2174.23509 0.01578
2172.94932 0.01558
2171.66355 0.01576
2170.37778 0.01631
2169.09201 0.01728
2167.80624 0.01832
2166.52047 0.01854
2165.23470 0.01722
2163.94894 0.01467
2162.66317 0.01207
2161.37740 0.01016
2160.09163 0.00886
2158.80586 0.00790
2157.52009 0.00740
2156.23432 0.00737
2154.94855 0.00732
2153.66278 0.00683
2152.37702 0.00620
2151.09125 0.00615
2149.80548 0.00697
2148.51971 0.00832
2147.23394 0.00967
2145.94817 0.01075
2144.66240 0.01146
2143.37663 0.01168
2142.09087 0.01152
2140.80510 0.01142
2139.51933 0.01164
2138.23356 0.01198
2136.94779 0.01203
2135.66202 0.01173
2134.37625 0.01141
2133.09048 0.01137
2131.80471 0.01167
2130.51895 0.01221
2129.23318 0.01285
2127.94741 0.01348
2126.66164 0.01402
2125.37587 0.01444
2124.09010 0.01469
2122.80433 0.01469
2121.51856 0.01457
2120.23280 0.01459
2118.94703 0.01503
2117.66126 0.01587
2116.37549 0.01679
2115.08972 0.01732
2113.80395 0.01729
2112.51818 0.01697
2111.23241 0.01684
2109.94664 0.01714
2108.66088 0.01759
2107.37511 0.01779
2106.08934 0.01757
2104.80357 0.01705
2103.51780 0.01642
2102.23203 0.01586
2100.94626 0.01562
2099.66049 0.01683
2098.37473 0.01783
2097.08896 0.01767
2095.80319 0.01674
2094.51742 0.01572
2093.23165 0.01522
2091.94588 0.01537
2090.66011 0.01579
2089.37434 0.01591
2088.08857 0.01554
2086.80281 0.01488
2085.51704 0.01432
2084.23127 0.01412
2082.94550 0.01429
2081.65973 0.01472
2080.37396 0.01523
2079.08819 0.01564
2077.80242 0.01584
2076.51666 0.01587
2075.23089 0.01587
2073.94512 0.01598
2072.65935 0.01615
2071.37358 0.01619
2070.08781 0.01597
2068.80204 0.01561
2067.51627 0.01534
2066.23050 0.01523
2064.94474 0.01510
2063.65897 0.01482
2062.37320 0.01445
2061.08743 0.01421
2059.80166 0.01423
2058.51589 0.01442
2057.23012 0.01453
2055.94435 0.01434
2054.65859 0.01391
2053.37282 0.01363
2052.08705 0.01372
2050.80128 0.01389
2049.51551 0.01358
2048.22974 0.01262
2046.94397 0.01136
2045.65820 0.01032
2044.37243 0.00966
2043.08667 0.00937
2041.80090 0.00948
2040.51513 0.01009
2039.22936 0.01102
2037.94359 0.01183
2036.65782 0.01210
2035.37205 0.01184
2034.08628 0.01134
2032.80052 0.01087
2031.51475 0.01036
2030.22898 0.00963
2028.94321 0.00882
2027.65744 0.00837
2026.37167 0.00851
2025.08590 0.00905
2023.80013 0.00963
2022.51436 0.01012
2021.22860 0.01051
2019.94283 0.01070
2018.65706 0.01073
2017.37129 0.01087
2016.08552 0.01136
2014.79975 0.01211
2013.51398 0.01282
2012.22821 0.01327
2010.94245 0.01328
2009.65668 0.01262
2008.37091 0.01139
2007.08514 0.01009
2005.79937 0.00915
2004.51360 0.00858
2003.22783 0.00830
2001.94206 0.00859
2000.65629 0.00972
1999.37053 0.01129
1998.08476 0.01236
1996.79899 0.01235
1995.51322 0.01169
1994.22745 0.01126
1992.94168 0.01144
1991.65591 0.01186
1990.37014 0.01199
1989.08438 0.01165
1987.79861 0.01108
1986.51284 0.01066
1985.22707 0.01075
1983.94130 0.01153
1982.65553 0.01282
1981.36976 0.01412
1980.08399 0.01493
1978.79822 0.01512
1977.51246 0.01494
1976.22669 0.01473
1974.94092 0.01463
1973.65515 0.01454
1972.36938 0.01435
1971.08361 0.01412
1969.79784 0.01399
1968.51207 0.01394
1967.22631 0.01370
1965.94054 0.01312
1964.65477 0.01240
1963.36900 0.01198
1962.08323 0.01195
1960.79746 0.01202
1959.51169 0.01193
1958.22592 0.01181
1956.94015 0.01185
1955.65439 0.01198
1954.36862 0.01207
1953.08285 0.01223
1951.79708 0.01269
1950.51131 0.01346
1949.22554 0.01418
1947.93977 0.01452
1946.65400 0.01450
1945.36823 0.01439
1944.08247 0.01438
1942.79670 0.01444
1941.51093 0.01448
1940.22516 0.01456
1938.93939 0.01478
1937.65362 0.01503
1936.36785 0.01500
1935.08208 0.01458
1933.79632 0.01411
1932.51055 0.01398
1931.22478 0.01425
1929.93901 0.01468
1928.65324 0.01507
1927.36747 0.01530
1926.08170 0.01532
1924.79593 0.01513
1923.51016 0.01499
1922.22440 0.01523
1920.93863 0.01589
1919.65286 0.01661
1918.36709 0.01696
1917.08132 0.01680
1915.79555 0.01634
1914.50978 0.01598
1913.22401 0.01597
1911.93825 0.01625
1910.65248 0.01649
1909.36671 0.01645
1908.08094 0.01615
1906.79517 0.01578
1905.50940 0.01548
1904.22363 0.01532
1902.93786 0.01536
1901.65209 0.01557
1900.36633 0.01586
1899.08056 0.01612
1897.79479 0.01632
1896.50902 0.01646
1895.22325 0.01652
1893.93748 0.01651
1892.65171 0.01643
1891.36594 0.01628
1890.08018 0.01605
1888.79441 0.01580
1887.50864 0.01560
1886.22287 0.01553
1884.93710 0.01558
1883.65133 0.01569
1882.36556 0.01577
1881.07979 0.01579
1879.79402 0.01579
1878.50826 0.01582
1877.22249 0.01586
1875.93672 0.01585
1874.65095 0.01580
1873.36518 0.01579
1872.07941 0.01592
1870.79364 0.01612
1869.50787 0.01617
1868.22211 0.01598
1866.93634 0.01558
1865.65057 0.01518
1864.36480 0.01495
1863.07903 0.01497
1861.79326 0.01515
1860.50749 0.01532
1859.22172 0.01539
1857.93595 0.01537
1856.65019 0.01535
1855.36442 0.01542
1854.07865 0.01560
1852.79288 0.01582
1851.50711 0.01596
1850.22134 0.01597
1848.93557 0.01589
1847.64980 0.01584
1846.36404 0.01583
1845.07827 0.01583
1843.79250 0.01585
1842.50673 0.01590
1841.22096 0.01596
1839.93519 0.01599
1838.64942 0.01602
1837.36365 0.01605
1836.07788 0.01611
1834.79212 0.01624
1833.50635 0.01641
1832.22058 0.01652
1830.93481 0.01655
1829.64904 0.01655
1828.36327 0.01659
1827.07750 0.01666
1825.79173 0.01677
1824.50597 0.01699
1823.22020 0.01727
1821.93443 0.01750
1820.64866 0.01750
1819.36289 0.01719
1818.07712 0.01663
1816.79135 0.01599
1815.50558 0.01548
1814.21981 0.01517
1812.93405 0.01499
1811.64828 0.01486
1810.36251 0.01479
1809.07674 0.01480
1807.79097 0.01496
1806.50520 0.01530
1805.21943 0.01575
1803.93366 0.01615
1802.64790 0.01633
1801.36213 0.01628
1800.07636 0.01615
1798.79059 0.01605
1797.50482 0.01607
1796.21905 0.01617
1794.93328 0.01628
1793.64751 0.01634
1792.36174 0.01641
1791.07598 0.01651
1789.79021 0.01659
1788.50444 0.01659
1787.21867 0.01651
1785.93290 0.01644
1784.64713 0.01646
1783.36136 0.01655
1782.07559 0.01662
1780.78983 0.01663
1779.50406 0.01658
1778.21829 0.01652
1776.93252 0.01651
1775.64675 0.01651
1774.36098 0.01640
1773.07521 0.01615
1771.78944 0.01591
1770.50367 0.01577
1769.21791 0.01573
1767.93214 0.01579
1766.64637 0.01595
1765.36060 0.01620
1764.07483 0.01644
1762.78906 0.01664
1761.50329 0.01674
1760.21752 0.01669
1758.93176 0.01646
1757.64599 0.01620
1756.36022 0.01611
1755.07445 0.01621
1753.78868 0.01628
1752.50291 0.01620
1751.21714 0.01606
1749.93137 0.01598
1748.64560 0.01594
1747.35984 0.01590
1746.07407 0.01585
1744.78830 0.01587
1743.50253 0.01595
1742.21676 0.01603
1740.93099 0.01605
1739.64522 0.01611
1738.35945 0.01630
1737.07369 0.01650
1735.78792 0.01653
1734.50215 0.01641
1733.21638 0.01633
1731.93061 0.01631
1730.64484 0.01627
1729.35907 0.01622
1728.07330 0.01625
1726.78753 0.01632
1725.50177 0.01638
1724.21600 0.01647
1722.93023 0.01671
1721.64446 0.01713
1720.35869 0.01756
1719.07292 0.01784
1717.78715 0.01800
1716.50138 0.01815
1715.21561 0.01834
1713.92985 0.01857
1712.64408 0.01893
1711.35831 0.01947
1710.07254 0.02016
1708.78677 0.02091
1707.50100 0.02167
1706.21523 0.02249
1704.92946 0.02349
1703.64370 0.02463
1702.35793 0.02568
1701.07216 0.02664
1699.78639 0.02778
1698.50062 0.02908
1697.21485 0.03033
1695.92908 0.03153
1694.64331 0.03287
1693.35754 0.03426
1692.07178 0.03550
1690.78601 0.03669
1689.50024 0.03807
1688.21447 0.03960
1686.92870 0.04102
1685.64293 0.04220
1684.35716 0.04336
1683.07139 0.04469
1681.78563 0.04611
1680.49986 0.04752
1679.21409 0.04894
1677.92832 0.05037
1676.64255 0.05171
1675.35678 0.05302
1674.07101 0.05440
1672.78524 0.05578
1671.49947 0.05707
1670.21371 0.05831
1668.92794 0.05962
1667.64217 0.06102
1666.35640 0.06242
1665.07063 0.06375
1663.78486 0.06502
1662.49909 0.06629
1661.21332 0.06751
1659.92756 0.06866
1658.64179 0.06983
1657.35602 0.07113
1656.07025 0.07245
1654.78448 0.07351
1653.49871 0.07435
1652.21294 0.07524
1650.92717 0.07617
1649.64140 0.07685
1648.35564 0.07717
1647.06987 0.07737
1645.78410 0.07766
1644.49833 0.07802
1643.21256 0.07828
1641.92679 0.07838
1640.64102 0.07838
1639.35525 0.07831
1638.06949 0.07812
1636.78372 0.07777
1635.49795 0.07735
1634.21218 0.07687
1632.92641 0.07626
1631.64064 0.07543
1630.35487 0.07448
1629.06910 0.07350
1627.78333 0.07250
1626.49757 0.07141
1625.21180 0.07013
1623.92603 0.06870
1622.64026 0.06730
1621.35449 0.06604
1620.06872 0.06483
1618.78295 0.06350
1617.49718 0.06205
1616.21142 0.06065
1614.92565 0.05937
1613.63988 0.05811
1612.35411 0.05681
1611.06834 0.05554
1609.78257 0.05439
1608.49680 0.05338
1607.21103 0.05251
1605.92526 0.05176
1604.63950 0.05108
1603.35373 0.05046
1602.06796 0.04991
1600.78219 0.04944
1599.49642 0.04902
1598.21065 0.04866
1596.92488 0.04836
1595.63911 0.04816
1594.35335 0.04808
1593.06758 0.04807
1591.78181 0.04807
1590.49604 0.04807
1589.21027 0.04807
1587.92450 0.04810
1586.63873 0.04817
1585.35296 0.04827
1584.06719 0.04844
1582.78143 0.04872
1581.49566 0.04917
1580.20989 0.04980
1578.92412 0.05047
1577.63835 0.05104
1576.35258 0.05155
1575.06681 0.05215
1573.78104 0.05282
1572.49528 0.05342
1571.20951 0.05394
1569.92374 0.05449
1568.63797 0.05513
1567.35220 0.05581
1566.06643 0.05646
1564.78066 0.05714
1563.49489 0.05791
1562.20912 0.05864
1560.92336 0.05917
1559.63759 0.05958
1558.35182 0.06007
1557.06605 0.06065
1555.78028 0.06115
1554.49451 0.06153
1553.20874 0.06190
1551.92297 0.06228
1550.63721 0.06261
1549.35144 0.06296
1548.06567 0.06337
1546.77990 0.06383
1545.49413 0.06431
1544.20836 0.06476
1542.92259 0.06510
1541.63682 0.06520
1540.35105 0.06509
1539.06529 0.06498
1537.77952 0.06497
1536.49375 0.06494
1535.20798 0.06481
1533.92221 0.06469
1532.63644 0.06472
1531.35067 0.06488
1530.06490 0.06510
1528.77914 0.06534
1527.49337 0.06561
1526.20760 0.06593
1524.92183 0.06627
1523.63606 0.06653
1522.35029 0.06666
1521.06452 0.06681
1519.77875 0.06704
1518.49298 0.06726
1517.20722 0.06744
1515.92145 0.06768
1514.63568 0.06805
1513.34991 0.06853
1512.06414 0.06912
1510.77837 0.06980
1509.49260 0.07042
1508.20683 0.07084
1506.92107 0.07111
1505.63530 0.07143
1504.34953 0.07181
1503.06376 0.07214
1501.77799 0.07239
1500.49222 0.07263
1499.20645 0.07284
1497.92068 0.07297
1496.63491 0.07302
1495.34915 0.07312
1494.06338 0.07330
1492.77761 0.07349
1491.49184 0.07366
1490.20607 0.07387
1488.92030 0.07417
1487.63453 0.07455
1486.34876 0.07499
1485.06299 0.07549
1483.77723 0.07602
1482.49146 0.07660
1481.20569 0.07726
1479.91992 0.07804
1478.63415 0.07894
1477.34838 0.07996
1476.06261 0.08102
1474.77684 0.08199
1473.49108 0.08280
1472.20531 0.08351
1470.91954 0.08417
1469.63377 0.08475
1468.34800 0.08521
1467.06223 0.08556
1465.77646 0.08588
1464.49069 0.08627
1463.20492 0.08680
1461.91916 0.08748
1460.63339 0.08828
1459.34762 0.08907
1458.06185 0.08978
1456.77608 0.09047
1455.49031 0.09118
1454.20454 0.09180
1452.91877 0.09226
1451.63301 0.09261
1450.34724 0.09293
1449.06147 0.09317
1447.77570 0.09332
1446.48993 0.09337
1445.20416 0.09335
1443.91839 0.09329
1442.63262 0.09325
1441.34685 0.09322
1440.06109 0.09315
1438.77532 0.09294
1437.48955 0.09265
1436.20378 0.09245
1434.91801 0.09245
1433.63224 0.09259
1432.34647 0.09279
1431.06070 0.09307
1429.77494 0.09346
1428.48917 0.09400
1427.20340 0.09471
1425.91763 0.09557
1424.63186 0.09659
1423.34609 0.09772
1422.06032 0.09881
1420.77455 0.09977
1419.48878 0.10062
1418.20302 0.10145
1416.91725 0.10224
1415.63148 0.10292
1414.34571 0.10350
1413.05994 0.10400
1411.77417 0.10442
1410.48840 0.10471
1409.20263 0.10484
1407.91687 0.10480
1406.63110 0.10457
1405.34533 0.10417
1404.05956 0.10366
1402.77379 0.10304
1401.48802 0.10229
1400.20225 0.10138
1398.91648 0.10034
1397.63071 0.09921
1396.34495 0.09802
1395.05918 0.09677
1393.77341 0.09550
1392.48764 0.09420
1391.20187 0.09284
1389.91610 0.09140
1388.63033 0.08990
1387.34456 0.08837
1386.05880 0.08681
1384.77303 0.08519
1383.48726 0.08349
1382.20149 0.08175
1380.91572 0.08001
1379.62995 0.07830
1378.34418 0.07660
1377.05841 0.07486
1375.77264 0.07306
1374.48688 0.07125
1373.20111 0.06949
1371.91534 0.06779
1370.62957 0.06609
1369.34380 0.06437
1368.05803 0.06269
1366.77226 0.06111
1365.48649 0.05963
1364.20073 0.05822
1362.91496 0.05683
1361.62919 0.05548
1360.34342 0.05421
1359.05765 0.05305
1357.77188 0.05203
1356.48611 0.05112
1355.20034 0.05026
1353.91457 0.04943
1352.62881 0.04866
1351.34304 0.04799
1350.05727 0.04745
1348.77150 0.04699
1347.48573 0.04656
1346.19996 0.04612
1344.91419 0.04569
1343.62842 0.04530
1342.34266 0.04493
1341.05689 0.04458
1339.77112 0.04422
1338.48535 0.04390
1337.19958 0.04362
1335.91381 0.04336
1334.62804 0.04305
1333.34227 0.04269
1332.05650 0.04230
1330.77074 0.04192
1329.48497 0.04152
1328.19920 0.04108
1326.91343 0.04061
1325.62766 0.04015
1324.34189 0.03975
1323.05612 0.03940
1321.77035 0.03907
1320.48459 0.03874
1319.19882 0.03840
1317.91305 0.03805
1316.62728 0.03770
1315.34151 0.03738
1314.05574 0.03707
1312.76997 0.03675
1311.48420 0.03643
1310.19843 0.03610
1308.91267 0.03577
1307.62690 0.03540
1306.34113 0.03500
1305.05536 0.03459
1303.76959 0.03421
1302.48382 0.03389
1301.19805 0.03363
1299.91228 0.03338
1298.62652 0.03309
1297.34075 0.03275
1296.05498 0.03238
1294.76921 0.03207
1293.48344 0.03186
1292.19767 0.03176
1290.91190 0.03173
1289.62613 0.03172
1288.34036 0.03166
1287.05460 0.03154
1285.76883 0.03139
1284.48306 0.03126
1283.19729 0.03119
1281.91152 0.03120
1280.62575 0.03124
1279.33998 0.03125
1278.05421 0.03115
1276.76845 0.03097
1275.48268 0.03074
1274.19691 0.03053
1272.91114 0.03038
1271.62537 0.03030
1270.33960 0.03026
1269.05383 0.03026
1267.76806 0.03032
1266.48229 0.03039
1265.19653 0.03043
1263.91076 0.03038
1262.62499 0.03028
1261.33922 0.03018
1260.05345 0.03010
1258.76768 0.03008
1257.48191 0.03013
1256.19614 0.03021
1254.91037 0.03031
1253.62461 0.03038
1252.33884 0.03044
1251.05307 0.03048
1249.76730 0.03048
1248.48153 0.03045
1247.19576 0.03040
1245.90999 0.03039
1244.62422 0.03043
1243.33846 0.03048
1242.05269 0.03049
1240.76692 0.03046
1239.48115 0.03035
1238.19538 0.03019
1236.90961 0.02999
1235.62384 0.02977
1234.33807 0.02953
1233.05230 0.02931
1231.76654 0.02909
1230.48077 0.02884
1229.19500 0.02852
1227.90923 0.02815
1226.62346 0.02777
1225.33769 0.02741
1224.05192 0.02705
1222.76615 0.02668
1221.48039 0.02624
1220.19462 0.02575
1218.90885 0.02525
1217.62308 0.02480
1216.33731 0.02444
1215.05154 0.02416
1213.76577 0.02397
1212.48000 0.02388
1211.19423 0.02385
1209.90847 0.02383
1208.62270 0.02381
1207.33693 0.02380
1206.05116 0.02379
1204.76539 0.02376
1203.47962 0.02369
1202.19385 0.02350
1200.90808 0.02316
1199.62232 0.02297
1198.33655 0.02279
1197.05078 0.02257
1195.76501 0.02233
1194.47924 0.02208
1193.19347 0.02182
1191.90770 0.02154
1190.62193 0.02126
1189.33616 0.02103
1188.05040 0.02084
1186.76463 0.02066
1185.47886 0.02044
1184.19309 0.02018
1182.90732 0.01989
1181.62155 0.01965
1180.33578 0.01949
1179.05001 0.01941
1177.76425 0.01939
1176.47848 0.01941
1175.19271 0.01943
1173.90694 0.01945
1172.62117 0.01947
1171.33540 0.01950
1170.04963 0.01953
1168.76386 0.01955
1167.47809 0.01955
1166.19233 0.01955
1164.90656 0.01956
1163.62079 0.01957
1162.33502 0.01957
1161.04925 0.01957
1159.76348 0.01959
1158.47771 0.01963
1157.19194 0.01970
1155.90618 0.01979
1154.62041 0.01990
1153.33464 0.02002
1152.04887 0.02013
1150.76310 0.02022
1149.47733 0.02030
1148.19156 0.02042
1146.90579 0.02061
1145.62002 0.02092
1144.33426 0.02136
1143.04849 0.02186
1141.76272 0.02238
1140.47695 0.02291
1139.19118 0.02348
1137.90541 0.02418
1136.61964 0.02504
1135.33387 0.02607
1134.04811 0.02722
1132.76234 0.02840
1131.47657 0.02964
1130.19080 0.03101
1128.90503 0.03263
1127.61926 0.03454
1126.33349 0.03668
1125.04772 0.03897
1123.76195 0.04131
1122.47619 0.04370
1121.19042 0.04618
1119.90465 0.04873
1118.61888 0.05131
1117.33311 0.05392
1116.04734 0.05657
1114.76157 0.05925
1113.47580 0.06192
1112.19004 0.06452
1110.90427 0.06703
1109.61850 0.06944
1108.33273 0.07179
1107.04696 0.07410
1105.76119 0.07635
1104.47542 0.07856
1103.18965 0.08070
1101.90388 0.08272
1100.61812 0.08459
1099.33235 0.08636
1098.04658 0.08814
1096.76081 0.08999
1095.47504 0.09186
1094.18927 0.09365
1092.90350 0.09529
1091.61773 0.09678
1090.33197 0.09816
1089.04620 0.09947
1087.76043 0.10077
1086.47466 0.10203
1085.18889 0.10326
1083.90312 0.10450
1082.61735 0.10581
1081.33158 0.10721
1080.04581 0.10875
1078.76005 0.11044
1077.47428 0.11228
1076.18851 0.11424
1074.90274 0.11626
1073.61697 0.11831
1072.33120 0.12042
1071.04543 0.12264
1069.75966 0.12497
1068.47390 0.12737
1067.18813 0.12981
1065.90236 0.13226
1064.61659 0.13468
1063.33082 0.13709
1062.04505 0.13955
1060.75928 0.14212
1059.47351 0.14474
1058.18774 0.14732
1056.90198 0.14975
1055.61621 0.15207
1054.33044 0.15435
1053.04467 0.15663
1051.75890 0.15892
1050.47313 0.16122
1049.18736 0.16357
1047.90159 0.16597
1046.61583 0.16841
1045.33006 0.17091
1044.04429 0.17349
1042.75852 0.17616
1041.47275 0.17889
1040.18698 0.18164
1038.90121 0.18439
1037.61544 0.18712
1036.32967 0.18981
1035.04391 0.19245
1033.75814 0.19506
1032.47237 0.19760
1031.18660 0.20002
1029.90083 0.20223
1028.61506 0.20422
1027.32929 0.20605
1026.04352 0.20778
1024.75775 0.20939
1023.47199 0.21080
1022.18622 0.21193
1020.90045 0.21274
1019.61468 0.21325
1018.32891 0.21347
1017.04314 0.21343
1015.75737 0.21316
1014.47160 0.21267
1013.18584 0.21191
1011.90007 0.21082
1010.61430 0.20938
1009.32853 0.20761
1008.04276 0.20555
1006.75699 0.20320
1005.47122 0.20055
1004.18545 0.19758
1002.89968 0.19432
1001.61392 0.19083
1000.32815 0.18716
999.04238 0.18334
997.75661 0.17944
996.47084 0.17548
995.18507 0.17145
993.89930 0.16733
992.61353 0.16307
991.32777 0.15869
990.04200 0.15426
988.75623 0.14989
987.47046 0.14564
986.18469 0.14156
984.89892 0.13763
983.61315 0.13382
982.32738 0.13009
981.04161 0.12645
979.75585 0.12290
978.47008 0.11945
977.18431 0.11615
975.89854 0.11307
974.61277 0.11029
973.32700 0.10786
972.04123 0.10581
970.75546 0.10414
969.46970 0.10288
968.18393 0.10212
966.89816 0.10188
965.61239 0.10206
964.32662 0.10244
963.04085 0.10277
961.75508 0.10286
960.46931 0.10264
959.18354 0.10208
957.89778 0.10116
956.61201 0.09989
955.32624 0.09835
954.04047 0.09669
952.75470 0.09503
951.46893 0.09334
950.18316 0.09151
948.89739 0.08949
947.61163 0.08735
946.32586 0.08524
945.04009 0.08328
943.75432 0.08151
942.46855 0.07988
941.18278 0.07828
939.89701 0.07663
938.61124 0.07495
937.32547 0.07331
936.03971 0.07178
934.75394 0.07037
933.46817 0.06902
932.18240 0.06773
930.89663 0.06655
929.61086 0.06551
928.32509 0.06457
927.03932 0.06367
925.75356 0.06275
924.46779 0.06182
923.18202 0.06095
921.89625 0.06014
920.61048 0.05937
919.32471 0.05857
918.03894 0.05775
916.75317 0.05701
915.46740 0.05644
914.18164 0.05603
912.89587 0.05564
911.61010 0.05512
910.32433 0.05443
909.03856 0.05363
907.75279 0.05283
906.46702 0.05213
905.18125 0.05154
903.89549 0.05101
902.60972 0.05050
901.32395 0.04999
900.03818 0.04946
898.75241 0.04893
897.46664 0.04840
896.18087 0.04794
894.89510 0.04759
893.60933 0.04735
892.32357 0.04718
891.03780 0.04702
889.75203 0.04687
888.46626 0.04684
887.18049 0.04706
885.89472 0.04769
884.60895 0.04889
883.32318 0.05075
882.03742 0.05314
880.75165 0.05571
879.46588 0.05800
878.18011 0.05973
876.89434 0.06097
875.60857 0.06206
874.32280 0.06325
873.03703 0.06453
871.75126 0.06563
870.46550 0.06622
869.17973 0.06612
867.89396 0.06532
866.60819 0.06396
865.32242 0.06223
864.03665 0.06036
862.75088 0.05848
861.46511 0.05664
860.17935 0.05489
858.89358 0.05331
857.60781 0.05199
856.32204 0.05091
855.03627 0.04996
853.75050 0.04908
852.46473 0.04827
851.17896 0.04758
849.89319 0.04698
848.60743 0.04643
847.32166 0.04591
846.03589 0.04544
844.75012 0.04502
843.46435 0.04463
842.17858 0.04426
840.89281 0.04393
839.60704 0.04365
838.32128 0.04341
837.03551 0.04315
835.74974 0.04280
834.46397 0.04240
833.17820 0.04202
831.89243 0.04172
830.60666 0.04151
829.32089 0.04138
828.03512 0.04130
826.74936 0.04127
825.46359 0.04123
824.17782 0.04115
822.89205 0.04104
821.60628 0.04096
820.32051 0.04092
819.03474 0.04088
817.74897 0.04073
816.46321 0.04045
815.17744 0.04014
813.89167 0.03989
812.60590 0.03970
811.32013 0.03955
810.03436 0.03940
808.74859 0.03925
807.46282 0.03911
806.17705 0.03898
804.89129 0.03889
803.60552 0.03884
802.31975 0.03887
801.03398 0.03897
799.74821 0.03909
798.46244 0.03918
797.17667 0.03923
795.89090 0.03925
794.60513 0.03919
793.31937 0.03906
792.03360 0.03890
790.74783 0.03880
789.46206 0.03879
788.17629 0.03881
786.89052 0.03881
785.60475 0.03879
784.31898 0.03879
783.03322 0.03878
781.74745 0.03876
780.46168 0.03874
779.17591 0.03875
777.89014 0.03877
776.60437 0.03878
775.31860 0.03873
774.03283 0.03867
772.74706 0.03863
771.46130 0.03867
770.17553 0.03875
768.88976 0.03881
767.60399 0.03879
766.31822 0.03871
765.03245 0.03867
763.74668 0.03870
762.46091 0.03879
761.17515 0.03886
759.88938 0.03889
758.60361 0.03892
757.31784 0.03898
756.03207 0.03911
754.74630 0.03929
753.46053 0.03948
752.17476 0.03959
750.88899 0.03952
749.60323 0.03929
748.31746 0.03904
747.03169 0.03895
745.74592 0.03906
744.46015 0.03927
743.17438 0.03942
741.88861 0.03942
740.60284 0.03930
739.31708 0.03914
738.03131 0.03902
736.74554 0.03891
735.45977 0.03876
734.17400 0.03863
732.88823 0.03863
731.60246 0.03876
730.31669 0.03895
729.03092 0.03912
727.74516 0.03927
726.45939 0.03939
725.17362 0.03947
723.88785 0.03977
722.60208 0.03969
721.31631 0.03972
720.03054 0.03983
718.74477 0.03987
717.45901 0.03979
716.17324 0.03965
714.88747 0.03951
713.60170 0.03944
712.31593 0.03948
711.03016 0.03959
709.74439 0.03970
708.45862 0.03976
707.17285 0.03975
705.88709 0.03972
704.60132 0.03974
703.31555 0.03982
702.02978 0.03993
700.74401 0.04000
699.45824 0.04001
698.17247 0.03998
696.88670 0.03996
695.60094 0.03995
694.31517 0.03996
693.02940 0.03997
691.74363 0.03999
690.45786 0.04002
689.17209 0.04003
687.88632 0.04000
686.60055 0.03994
685.31478 0.03983
684.02902 0.03964
682.74325 0.03940
681.45748 0.03916
680.17171 0.03897
678.88594 0.03890
677.60017 0.03892
676.31440 0.03902
675.02863 0.03915
673.74287 0.03926
672.45710 0.03933
671.17133 0.03935
669.88556 0.03933
668.59979 0.03928
667.31402 0.03919
666.02825 0.03905
664.74248 0.03887
663.45671 0.03869
662.17095 0.03852
660.88518 0.03839
659.59941 0.03829
658.31364 0.03819
657.02787 0.03802
655.74210 0.03777
654.45633 0.03746
653.17056 0.03718
651.88480 0.03699
650.59903 0.03691
649.31326 0.03687
648.02749 0.03677
646.74172 0.03657
645.45595 0.03632
644.17018 0.03613
642.88441 0.03604
641.59864 0.03600
640.31288 0.03591
639.02711 0.03577
637.74134 0.03565
636.45557 0.03563
635.16980 0.03577
633.88403 0.03606
632.59826 0.03636
631.31249 0.03611
630.02673 0.03570
628.74096 0.03766
627.45519 0.03949
626.16942 0.04301
624.88365 0.04747
623.59788 0.05149
622.31211 0.05472
621.02634 0.05731
619.74057 0.05922
618.45481 0.06012
617.16904 0.05992
615.88327 0.05904
614.59750 0.05857
613.31173 0.05979
612.02596 0.06331
610.74019 0.06841
609.45442 0.07388
608.16866 0.07926
606.88289 0.08469
605.59712 0.08981
604.31135 0.09368
603.02558 0.09563
601.73981 0.09574
600.45404 0.09457
599.16827 0.09276
597.88250 0.09076
596.59674 0.08877
595.31097 0.08682
594.02520 0.08489
592.73943 0.08303
591.45366 0.08138
590.16789 0.08011
588.88212 0.07939
587.59635 0.07926
586.31059 0.07966
585.02482 0.08052
583.73905 0.08177
582.45328 0.08335
581.16751 0.08514
579.88174 0.08698
578.59597 0.08881
577.31020 0.09065
576.02443 0.09262
574.73867 0.09475
573.45290 0.09701
572.16713 0.09936
570.88136 0.10182
569.59559 0.10446
568.30982 0.10727
567.02405 0.11014
565.73828 0.11293
564.45251 0.11557
563.16675 0.11794
561.88098 0.11975
560.59521 0.12057
559.30944 0.12013
558.02367 0.11843
556.73790 0.11569
555.45213 0.11222
554.16636 0.10839
552.88060 0.10447
551.59483 0.10065
550.30906 0.09697
549.02329 0.09345
547.73752 0.09014
546.45175 0.08708
545.16598 0.08429
543.88021 0.08177
542.59444 0.07945
541.30868 0.07730
540.02291 0.07531
538.73714 0.07342
537.45137 0.07155
536.16560 0.06969
534.87983 0.06793
533.59406 0.06640
532.30829 0.06513
531.02253 0.06404
529.73676 0.06296
528.45099 0.06173
527.16522 0.06036
525.87945 0.05899
524.59368 0.05782
523.30791 0.05694
522.02214 0.05622
520.73637 0.05549
519.45061 0.05463
518.16484 0.05369
516.87907 0.05276
515.59330 0.05189
514.30753 0.05108
513.02176 0.05035
511.73599 0.04969
510.45022 0.04904
509.16446 0.04839
507.87869 0.04774
506.59292 0.04712
505.30715 0.04656
504.02138 0.04603
502.73561 0.04552
501.44984 0.04502
500.16407 0.04451
498.87830 0.04398
497.59254 0.04340
496.30677 0.04278
495.02100 0.04214
493.73523 0.04155
492.44946 0.04111
491.16369 0.04085
489.87792 0.04071
488.59215 0.04053
487.30639 0.04021
486.02062 0.03980
484.73485 0.03939
483.44908 0.03907
482.16331 0.03882
480.87754 0.03862
479.59177 0.03842
478.30600 0.03820
477.02023 0.03800
475.73447 0.03787
474.44870 0.03784
473.16293 0.03788
471.87716 0.03797
470.59139 0.03804
469.30562 0.03804
468.01985 0.03798
466.73408 0.03782
465.44832 0.03755
464.16255 0.03713
462.87678 0.03658
461.59101 0.03598
460.30524 0.03544
459.01947 0.03501
457.73370 0.03464
456.44793 0.03428
455.16216 0.03386
453.87640 0.03342
452.59063 0.03301
451.30486 0.03266
450.01909 0.03233
448.73332 0.03196
447.44755 0.03153
446.16178 0.03112
444.87601 0.03079
443.59025 0.03053
442.30448 0.03029
441.01871 0.03006
439.73294 0.02983
438.44717 0.02961
437.16140 0.02938
435.87563 0.02915
434.58986 0.02894
433.30409 0.02875
432.01833 0.02857
430.73256 0.02837
429.44679 0.02813
428.16102 0.02786
426.87525 0.02760
425.58948 0.02738
424.30371 0.02719
423.01794 0.02706
421.73218 0.02696
420.44641 0.02685
419.16064 0.02668
417.87487 0.02643
416.58910 0.02610
415.30333 0.02575
414.01756 0.02547
412.73179 0.02529
411.44602 0.02514
410.16026 0.02496
408.87449 0.02473
407.58872 0.02451
406.30295 0.02438
405.01718 0.02434
403.73141 0.02436
402.44564 0.02439
401.15987 0.02440
399.87411 0.02439
