3997.45528 0.05267
3996.16951 0.05377
3994.88374 0.05457
3993.59798 0.05471
3992.31221 0.05428
3991.02644 0.05372
3989.74067 0.05325
3988.45490 0.05283
3987.16913 0.05247
3985.88336 0.05230
3984.59759 0.05227
3983.31183 0.05200
3982.02606 0.05129
3980.74029 0.05050
3979.45452 0.05025
3978.16875 0.05075
3976.88298 0.05164
3975.59721 0.05246
3974.31144 0.05312
3973.02567 0.05360
3971.73991 0.05372
3970.45414 0.05330
3969.16837 0.05264
3967.88260 0.05230
3966.59683 0.05253
3965.31106 0.05308
3964.02529 0.05339
3962.73952 0.05308
3961.45376 0.05219
3960.16799 0.05132
3958.88222 0.05116
3957.59645 0.05187
3956.31068 0.05284
3955.02491 0.05333
3953.73914 0.05307
3952.45337 0.05240
3951.16760 0.05169
3949.88184 0.05108
3948.59607 0.05055
3947.31030 0.05022
3946.02453 0.05025
3944.73876 0.05063
3943.45299 0.05108
3942.16722 0.05124
3940.88145 0.05086
3939.59569 0.05001
3938.30992 0.04896
3937.02415 0.04809
3935.73838 0.04776
3934.45261 0.04815
3933.16684 0.04917
3931.88107 0.05044
3930.59530 0.05152
3929.30953 0.05216
3928.02377 0.05243
3926.73800 0.05261
3925.45223 0.05298
3924.16646 0.05351
3922.88069 0.05384
3921.59492 0.05373
3920.30915 0.05326
3919.02338 0.05263
3917.73762 0.05186
3916.45185 0.05101
3915.16608 0.05029
3913.88031 0.04990
3912.59454 0.04985
3911.30877 0.05014
3910.02300 0.05071
3908.73723 0.05123
3907.45146 0.05102
3906.16570 0.04977
3904.87993 0.04807
3903.59416 0.04702
3902.30839 0.04731
3901.02262 0.04858
3899.73685 0.04989
3898.45108 0.05049
3897.16531 0.05032
3895.87955 0.04993
3894.59378 0.05001
3893.30801 0.05083
3892.02224 0.05212
3890.73647 0.05332
3889.45070 0.05394
3888.16493 0.05370
3886.87916 0.05268
3885.59339 0.05140
3884.30763 0.05046
3883.02186 0.05011
3881.73609 0.05023
3880.45032 0.05061
3879.16455 0.05105
3877.87878 0.05124
3876.59301 0.05088
3875.30724 0.05001
3874.02148 0.04917
3872.73571 0.04908
3871.44994 0.04994
3870.16417 0.05116
3868.87840 0.05174
3867.59263 0.05108
3866.30686 0.04960
3865.02109 0.04823
3863.73532 0.04749
3862.44956 0.04735
3861.16379 0.04766
3859.87802 0.04847
3858.59225 0.04959
3857.30648 0.05050
3856.02071 0.05070
3854.73494 0.05032
3853.44917 0.04993
3852.16341 0.04996
3850.87764 0.05023
3849.59187 0.05030
3848.30610 0.05005
3847.02033 0.04979
3845.73456 0.04990
3844.44879 0.05045
3843.16302 0.05107
3841.87725 0.05115
3840.59149 0.05034
3839.30572 0.04885
3838.01995 0.04737
3836.73418 0.04659
3835.44841 0.04678
3834.16264 0.04774
3832.87687 0.04881
3831.59110 0.04932
3830.30534 0.04905
3829.01957 0.04846
3827.73380 0.04805
3826.44803 0.04792
3825.16226 0.04787
3823.87649 0.04785
3822.59072 0.04802
3821.30495 0.04846
3820.01918 0.04898
3818.73342 0.04935
3817.44765 0.04950
3816.16188 0.04952
3814.87611 0.04944
3813.59034 0.04916
3812.30457 0.04864
3811.01880 0.04805
3809.73303 0.04758
3808.44726 0.04725
3807.16150 0.04694
3805.87573 0.04652
3804.58996 0.04607
3803.30419 0.04592
3802.01842 0.04639
3800.73265 0.04742
3799.44688 0.04858
3798.16111 0.04948
3796.87535 0.04994
3795.58958 0.04980
3794.30381 0.04890
3793.01804 0.04739
3791.73227 0.04579
3790.44650 0.04471
3789.16073 0.04442
3787.87496 0.04481
3786.58919 0.04553
3785.30343 0.04629
3784.01766 0.04688
3782.73189 0.04712
3781.44612 0.04696
3780.16035 0.04658
3778.87458 0.04616
3777.58881 0.04577
3776.30304 0.04543
3775.01728 0.04543
3773.73151 0.04599
3772.44574 0.04689
3771.15997 0.04760
3769.87420 0.04782
3768.58843 0.04778
3767.30266 0.04795
3766.01689 0.04842
3764.73112 0.04882
3763.44536 0.04869
3762.15959 0.04805
3760.87382 0.04746
3759.58805 0.04742
3758.30228 0.04797
3757.01651 0.04872
3755.73074 0.04921
3754.44497 0.04923
3753.15921 0.04894
3751.87344 0.04859
3750.58767 0.04821
3749.30190 0.04769
3748.01613 0.04713
3746.73036 0.04676
3745.44459 0.04677
3744.15882 0.04711
3742.87305 0.04756
3741.58729 0.04793
3740.30152 0.04829
3739.01575 0.04869
3737.72998 0.04896
3736.44421 0.04885
3735.15844 0.04841
3733.87267 0.04792
3732.58690 0.04759
3731.30114 0.04728
3730.01537 0.04669
3728.72960 0.04564
3727.44383 0.04436
3726.15806 0.04340
3724.87229 0.04322
3723.58652 0.04384
3722.30075 0.04487
3721.01498 0.04578
3719.72922 0.04632
3718.44345 0.04650
3717.15768 0.04630
3715.87191 0.04563
3714.58614 0.04473
3713.30037 0.04429
3712.01460 0.04467
3710.72883 0.04551
3709.44307 0.04624
3708.15730 0.04675
3706.87153 0.04720
3705.58576 0.04736
3704.29999 0.04681
3703.01422 0.04545
3701.72845 0.04391
3700.44268 0.04308
3699.15691 0.04342
3697.87115 0.04443
3696.58538 0.04513
3695.29961 0.04512
3694.01384 0.04458
3692.72807 0.04398
3691.44230 0.04382
3690.15653 0.04425
3688.87076 0.04483
3687.58500 0.04503
3686.29923 0.04500
3685.01346 0.04511
3683.72769 0.04538
3682.44192 0.04533
3681.15615 0.04452
3679.87038 0.04331
3678.58461 0.04257
3677.29884 0.04276
3676.01308 0.04371
3674.72731 0.04496
3673.44154 0.04611
3672.15577 0.04691
3670.87000 0.04738
3669.58423 0.04776
3668.29846 0.04826
3667.01269 0.04879
3665.72693 0.04903
3664.44116 0.04864
3663.15539 0.04781
3661.86962 0.04722
3660.58385 0.04741
3659.29808 0.04821
3658.01231 0.04905
3656.72654 0.04950
3655.44077 0.04955
3654.15501 0.04929
3652.86924 0.04880
3651.58347 0.04823
3650.29770 0.04772
3649.01193 0.04735
3647.72616 0.04710
3646.44039 0.04695
3645.15462 0.04685
3643.86886 0.04684
3642.58309 0.04706
3641.29732 0.04761
3640.01155 0.04833
3638.72578 0.04899
3637.44001 0.04951
3636.15424 0.04990
3634.86847 0.05007
3633.58270 0.04997
3632.29694 0.04974
3631.01117 0.04970
3629.72540 0.05009
3628.43963 0.05071
3627.15386 0.05090
3625.86809 0.05021
3624.58232 0.04893
3623.29655 0.04789
3622.01079 0.04765
3620.72502 0.04813
3619.43925 0.04885
3618.15348 0.04937
3616.86771 0.04945
3615.58194 0.04927
3614.29617 0.04940
3613.01040 0.05036
3611.72463 0.05203
3610.43887 0.05371
3609.15310 0.05485
3607.86733 0.05546
3606.58156 0.05574
3605.29579 0.05567
3604.01002 0.05521
3602.72425 0.05440
3601.43848 0.05348
3600.15272 0.05272
3598.86695 0.05256
3597.58118 0.05312
3596.29541 0.05406
3595.00964 0.05475
3593.72387 0.05499
3592.43810 0.05494
3591.15233 0.05488
3589.86656 0.05498
3588.58080 0.05514
3587.29503 0.05524
3586.00926 0.05537
3584.72349 0.05573
3583.43772 0.05624
3582.15195 0.05661
3580.86618 0.05672
3579.58041 0.05675
3578.29464 0.05701
3577.00888 0.05766
3575.72311 0.05848
3574.43734 0.05895
3573.15157 0.05869
3571.86580 0.05785
3570.58003 0.05714
3569.29426 0.05713
3568.00849 0.05788
3566.72273 0.05904
3565.43696 0.06031
3564.15119 0.06144
3562.86542 0.06214
3561.57965 0.06215
3560.29388 0.06161
3559.00811 0.06093
3557.72234 0.06042
3556.43657 0.06017
3555.15081 0.06014
3553.86504 0.06036
3552.57927 0.06087
3551.29350 0.06163
3550.00773 0.06236
3548.72196 0.06267
3547.43619 0.06242
3546.15042 0.06198
3544.86466 0.06185
3543.57889 0.06218
3542.29312 0.06270
3541.00735 0.06310
3539.72158 0.06328
3538.43581 0.06328
3537.15004 0.06320
3535.86427 0.06316
3534.57850 0.06336
3533.29274 0.06392
3532.00697 0.06474
3530.72120 0.06553
3529.43543 0.06601
3528.14966 0.06608
3526.86389 0.06590
3525.57812 0.06572
3524.29235 0.06571
3523.00659 0.06583
3521.72082 0.06598
3520.43505 0.06603
3519.14928 0.06591
3517.86351 0.06563
3516.57774 0.06543
3515.29197 0.06562
3514.00620 0.06624
3512.72043 0.06690
3511.43467 0.06715
3510.14890 0.06692
3508.86313 0.06656
3507.57736 0.06640
3506.29159 0.06660
3505.00582 0.06712
3503.72005 0.06783
3502.43428 0.06847
3501.14852 0.06884
3499.86275 0.06900
3498.57698 0.06914
3497.29121 0.06936
3496.00544 0.06953
3494.71967 0.06967
3493.43390 0.06994
3492.14813 0.07048
3490.86236 0.07113
3489.57660 0.07148
3488.29083 0.07143
3487.00506 0.07128
3485.71929 0.07150
3484.43352 0.07215
3483.14775 0.07279
3481.86198 0.07293
3480.57621 0.07249
3479.29045 0.07190
3478.00468 0.07156
3476.71891 0.07148
3475.43314 0.07152
3474.14737 0.07175
3472.86160 0.07230
3471.57583 0.07304
3470.29006 0.07360
3469.00429 0.07375
3467.71853 0.07362
3466.43276 0.07345
3465.14699 0.07333
3463.86122 0.07324
3462.57545 0.07315
3461.28968 0.07302
3460.00391 0.07291
3458.71814 0.07292
3457.43238 0.07314
3456.14661 0.07357
3454.86084 0.07406
3453.57507 0.07439
3452.28930 0.07440
3451.00353 0.07412
3449.71776 0.07380
3448.43199 0.07369
3447.14622 0.07389
3445.86046 0.07429
3444.57469 0.07472
3443.28892 0.07506
3442.00315 0.07521
3440.71738 0.07514
3439.43161 0.07487
3438.14584 0.07444
3436.86007 0.07403
3435.57431 0.07390
3434.28854 0.07419
3433.00277 0.07478
3431.71700 0.07538
3430.43123 0.07579
3429.14546 0.07593
3427.85969 0.07583
3426.57392 0.07563
3425.28815 0.07552
3424.00239 0.07558
3422.71662 0.07565
3421.43085 0.07554
3420.14508 0.07539
3418.85931 0.07558
3417.57354 0.07630
3416.28777 0.07735
3415.00200 0.07829
3413.71624 0.07884
3412.43047 0.07897
3411.14470 0.07875
3409.85893 0.07826
3408.57316 0.07768
3407.28739 0.07732
3406.00162 0.07750
3404.71585 0.07813
3403.43008 0.07878
3402.14432 0.07917
3400.85855 0.07947
3399.57278 0.07989
3398.28701 0.08027
3397.00124 0.08026
3395.71547 0.07966
3394.42970 0.07877
3393.14393 0.07817
3391.85817 0.07818
3390.57240 0.07864
3389.28663 0.07916
3388.00086 0.07949
3386.71509 0.07963
3385.42932 0.07967
3384.14355 0.07963
3382.85778 0.07958
3381.57201 0.07966
3380.28625 0.07996
3379.00048 0.08033
3377.71471 0.08050
3376.42894 0.08024
3375.14317 0.07964
3373.85740 0.07916
3372.57163 0.07934
3371.28586 0.08033
3370.00010 0.08166
3368.71433 0.08258
3367.42856 0.08265
3366.14279 0.08205
3364.85702 0.08131
3363.57125 0.08085
3362.28548 0.08075
3360.99971 0.08097
3359.71394 0.08142
3358.42818 0.08198
3357.14241 0.08239
3355.85664 0.08248
3354.57087 0.08232
3353.28510 0.08207
3351.99933 0.08178
3350.71356 0.08138
3349.42779 0.08089
3348.14202 0.08049
3346.85626 0.08041
3345.57049 0.08070
3344.28472 0.08113
3342.99895 0.08138
3341.71318 0.08127
3340.42741 0.08094
3339.14164 0.08064
3337.85587 0.08047
3336.57011 0.08042
3335.28434 0.08047
3333.99857 0.08065
3332.71280 0.08095
3331.42703 0.08126
3330.14126 0.08148
3328.85549 0.08149
3327.56972 0.08123
3326.28395 0.08091
3324.99819 0.08084
3323.71242 0.08112
3322.42665 0.08145
3321.14088 0.08141
3319.85511 0.08087
3318.56934 0.08008
3317.28357 0.07941
3315.99780 0.07908
3314.71204 0.07915
3313.42627 0.07955
3312.14050 0.08011
3310.85473 0.08061
3309.56896 0.08085
3308.28319 0.08080
3306.99742 0.08059
3305.71165 0.08042
3304.42588 0.08034
3303.14012 0.08030
3301.85435 0.08020
3300.56858 0.07997
3299.28281 0.07963
3297.99704 0.07925
3296.71127 0.07888
3295.42550 0.07850
3294.13973 0.07815
3292.85397 0.07801
3291.56820 0.07826
3290.28243 0.07886
3288.99666 0.07944
3287.71089 0.07969
3286.42512 0.07959
3285.13935 0.07938
3283.85358 0.07918
3282.56781 0.07901
3281.28205 0.07897
3279.99628 0.07920
3278.71051 0.07973
3277.42474 0.08030
3276.13897 0.08065
3274.85320 0.08074
3273.56743 0.08070
3272.28166 0.08067
3270.99590 0.08069
3269.71013 0.08069
3268.42436 0.08050
3267.13859 0.08005
3265.85282 0.07952
3264.56705 0.07912
3263.28128 0.07886
3261.99551 0.07859
3260.70974 0.07840
3259.42398 0.07848
3258.13821 0.07883
3256.85244 0.07910
3255.56667 0.07891
3254.28090 0.07835
3252.99513 0.07788
3251.70936 0.07789
3250.42359 0.07829
3249.13783 0.07869
3247.85206 0.07871
3246.56629 0.07835
3245.28052 0.07786
3243.99475 0.07753
3242.70898 0.07744
3241.42321 0.07749
3240.13744 0.07756
3238.85167 0.07755
3237.56591 0.07750
3236.28014 0.07748
3234.99437 0.07758
3233.70860 0.07774
3232.42283 0.07781
3231.13706 0.07776
3229.85129 0.07769
3228.56552 0.07773
3227.27976 0.07783
3225.99399 0.07789
3224.70822 0.07789
3223.42245 0.07788
3222.13668 0.07783
3220.85091 0.07763
3219.56514 0.07723
3218.27937 0.07672
3216.99360 0.07630
3215.70784 0.07622
3214.42207 0.07654
3213.13630 0.07700
3211.85053 0.07728
3210.56476 0.07723
3209.27899 0.07703
3207.99322 0.07689
3206.70745 0.07684
3205.42169 0.07671
3204.13592 0.07640
3202.85015 0.07597
3201.56438 0.07564
3200.27861 0.07560
3198.99284 0.07588
3197.70707 0.07628
3196.42130 0.07648
3195.13553 0.07631
3193.84977 0.07592
3192.56400 0.07562
3191.27823 0.07554
3189.99246 0.07549
3188.70669 0.07525
3187.42092 0.07481
3186.13515 0.07446
3184.84938 0.07444
3183.56362 0.07482
3182.27785 0.07540
3180.99208 0.07577
3179.70631 0.07562
3178.42054 0.07496
3177.13477 0.07411
3175.84900 0.07338
3174.56323 0.07286
3173.27746 0.07251
3171.99170 0.07230
3170.70593 0.07222
3169.42016 0.07221
3168.13439 0.07227
3166.84862 0.07241
3165.56285 0.07262
3164.27708 0.07283
3162.99131 0.07292
3161.70555 0.07279
3160.41978 0.07245
3159.13401 0.07197
3157.84824 0.07149
3156.56247 0.07123
3155.27670 0.07128
3153.99093 0.07160
3152.70516 0.07194
3151.41939 0.07209
3150.13363 0.07199
3148.84786 0.07176
3147.56209 0.07156
3146.27632 0.07149
3144.99055 0.07160
3143.70478 0.07190
3142.41901 0.07230
3141.13324 0.07258
3139.84748 0.07254
3138.56171 0.07220
3137.27594 0.07176
3135.99017 0.07140
3134.70440 0.07117
3133.41863 0.07102
3132.13286 0.07088
3130.84709 0.07070
3129.56132 0.07053
3128.27556 0.07043
3126.98979 0.07043
3125.70402 0.07047
3124.41825 0.07043
3123.13248 0.07018
3121.84671 0.06960
3120.56094 0.06875
3119.27517 0.06788
3117.98940 0.06731
3116.70364 0.06714
3115.41787 0.06725
3114.13210 0.06745
3112.84633 0.06771
3111.56056 0.06807
3110.27479 0.06840
3108.98902 0.06851
3107.70325 0.06832
3106.41749 0.06795
3105.13172 0.06761
3103.84595 0.06746
3102.56018 0.06745
3101.27441 0.06748
3099.98864 0.06749
3098.70287 0.06753
3097.41710 0.06767
3096.13133 0.06789
3094.84557 0.06807
3093.55980 0.06803
3092.27403 0.06765
3090.98826 0.06694
3089.70249 0.06617
3088.41672 0.06582
3087.13095 0.06622
3085.84518 0.06714
3084.55942 0.06789
3083.27365 0.06789
3081.98788 0.06715
3080.70211 0.06623
3079.41634 0.06569
3078.13057 0.06563
3076.84480 0.06580
3075.55903 0.06599
3074.27326 0.06624
3072.98750 0.06665
3071.70173 0.06710
3070.41596 0.06736
3069.13019 0.06734
3067.84442 0.06718
3066.55865 0.06699
3065.27288 0.06667
3063.98711 0.06615
3062.70135 0.06555
3061.41558 0.06522
3060.12981 0.06538
3058.84404 0.06582
3057.55827 0.06604
3056.27250 0.06572
3054.98673 0.06500
3053.70096 0.06433
3052.41519 0.06410
3051.12943 0.06432
3049.84366 0.06477
3048.55789 0.06517
3047.27212 0.06534
3045.98635 0.06520
3044.70058 0.06480
3043.41481 0.06425
3042.12904 0.06372
3040.84328 0.06334
3039.55751 0.06314
3038.27174 0.06306
3036.98597 0.06306
3035.70020 0.06317
3034.41443 0.06344
3033.12866 0.06379
3031.84289 0.06400
3030.55712 0.06393
3029.27136 0.06364
3027.98559 0.06334
3026.69982 0.06314
3025.41405 0.06296
3024.12828 0.06270
3022.84251 0.06242
3021.55674 0.06232
3020.27097 0.06251
3018.98521 0.06290
3017.69944 0.06327
3016.41367 0.06342
3015.12790 0.06322
3013.84213 0.06268
3012.55636 0.06198
3011.27059 0.06135
3009.98482 0.06090
3008.69905 0.06068
3007.41329 0.06067
3006.12752 0.06080
3004.84175 0.06095
3003.55598 0.06103
3002.27021 0.06106
3000.98444 0.06114
2999.69867 0.06123
2998.41290 0.06123
2997.12714 0.06106
2995.84137 0.06081
2994.55560 0.06065
2993.26983 0.06057
2991.98406 0.06044
2990.69829 0.06029
2989.41252 0.06029
2988.12675 0.06059
2986.84098 0.06110
2985.55522 0.06161
2984.26945 0.06202
2982.98368 0.06230
2981.69791 0.06250
2980.41214 0.06269
2979.12637 0.06299
2977.84060 0.06356
2976.55483 0.06445
2975.26907 0.06555
2973.98330 0.06662
2972.69753 0.06754
2971.41176 0.06838
2970.12599 0.06923
2968.84022 0.07008
2967.55445 0.07089
2966.26868 0.07174
2964.98291 0.07284
2963.69715 0.07431
2962.41138 0.07604
2961.12561 0.07779
2959.83984 0.07936
2958.55407 0.08067
2957.26830 0.08170
2955.98253 0.08245
2954.69676 0.08285
2953.41100 0.08282
2952.12523 0.08243
2950.83946 0.08191
2949.55369 0.08162
2948.26792 0.08177
2946.98215 0.08234
2945.69638 0.08312
2944.41061 0.08378
2943.12484 0.08400
2941.83908 0.08375
2940.55331 0.08340
2939.26754 0.08345
2937.98177 0.08405
2936.69600 0.08496
2935.41023 0.08596
2934.12446 0.08703
2932.83869 0.08823
2931.55293 0.08948
2930.26716 0.09053
2928.98139 0.09117
2927.69562 0.09146
2926.40985 0.09167
2925.12408 0.09205
2923.83831 0.09254
2922.55254 0.09286
2921.26677 0.09277
2919.98101 0.09226
2918.69524 0.09148
2917.40947 0.09056
2916.12370 0.08957
2914.83793 0.08860
2913.55216 0.08771
2912.26639 0.08690
2910.98062 0.08610
2909.69486 0.08530
2908.40909 0.08455
2907.12332 0.08390
2905.83755 0.08332
2904.55178 0.08272
2903.26601 0.08199
2901.98024 0.08112
2900.69447 0.08022
2899.40870 0.07947
2898.12294 0.07893
2896.83717 0.07850
2895.55140 0.07795
2894.26563 0.07716
2892.97986 0.07624
2891.69409 0.07536
2890.40832 0.07460
2889.12255 0.07396
2887.83678 0.07341
2886.55102 0.07299
2885.26525 0.07263
2883.97948 0.07226
2882.69371 0.07191
2881.40794 0.07169
2880.12217 0.07165
2878.83640 0.07176
2877.55063 0.07204
2876.26487 0.07253
2874.97910 0.07321
2873.69333 0.07393
2872.40756 0.07452
2871.12179 0.07491
2869.83602 0.07512
2868.55025 0.07522
2867.26448 0.07527
2865.97871 0.07528
2864.69295 0.07523
2863.40718 0.07513
2862.12141 0.07500
2860.83564 0.07494
2859.54987 0.07501
2858.26410 0.07517
2856.97833 0.07528
2855.69256 0.07522
2854.40680 0.07496
2853.12103 0.07448
2851.83526 0.07380
2850.54949 0.07294
2849.26372 0.07191
2847.97795 0.07071
2846.69218 0.06945
2845.40641 0.06836
2844.12064 0.06754
2842.83488 0.06683
2841.54911 0.06602
2840.26334 0.06508
2838.97757 0.06415
2837.69180 0.06334
2836.40603 0.06266
2835.12026 0.06200
2833.83449 0.06121
2832.54873 0.06025
2831.26296 0.05927
2829.97719 0.05855
2828.69142 0.05820
2827.40565 0.05805
2826.11988 0.05778
2824.83411 0.05716
2823.54834 0.05628
2822.26257 0.05546
2820.97681 0.05499
2819.69104 0.05494
2818.40527 0.05509
2817.11950 0.05516
2815.83373 0.05494
2814.54796 0.05451
2813.26219 0.05408
2811.97642 0.05376
2810.69066 0.05348
2809.40489 0.05318
2808.11912 0.05289
2806.83335 0.05270
2805.54758 0.05257
2804.26181 0.05240
2802.97604 0.05213
2801.69027 0.05183
2800.40450 0.05160
2799.11874 0.05146
2797.83297 0.05133
2796.54720 0.05121
2795.26143 0.05117
2793.97566 0.05128
2792.68989 0.05141
2791.40412 0.05138
2790.11835 0.05105
2788.83259 0.05051
2787.54682 0.04997
2786.26105 0.04962
2784.97528 0.04951
2783.68951 0.04956
2782.40374 0.04969
2781.11797 0.04979
2779.83220 0.04975
2778.54643 0.04961
2777.26067 0.04949
2775.97490 0.04951
2774.68913 0.04958
2773.40336 0.04954
2772.11759 0.04933
2770.83182 0.04904
2769.54605 0.04880
2768.26028 0.04864
2766.97452 0.04855
2765.68875 0.04850
2764.40298 0.04848
2763.11721 0.04851
2761.83144 0.04852
2760.54567 0.04849
2759.25990 0.04841
2757.97413 0.04834
2756.68836 0.04832
2755.40260 0.04831
2754.11683 0.04822
2752.83106 0.04802
2751.54529 0.04781
2750.25952 0.04776
2748.97375 0.04792
2747.68798 0.04818
2746.40221 0.04834
2745.11645 0.04826
2743.83068 0.04794
2742.54491 0.04752
2741.25914 0.04716
2739.97337 0.04689
2738.68760 0.04668
2737.40183 0.04657
2736.11606 0.04656
2734.83029 0.04661
2733.54453 0.04661
2732.25876 0.04657
2730.97299 0.04652
2729.68722 0.04644
2728.40145 0.04630
2727.11568 0.04614
2725.82991 0.04604
2724.54414 0.04601
2723.25838 0.04594
2721.97261 0.04579
2720.68684 0.04562
2719.40107 0.04552
2718.11530 0.04554
2716.82953 0.04567
2715.54376 0.04576
2714.25799 0.04567
2712.97222 0.04538
2711.68646 0.04503
2710.40069 0.04481
2709.11492 0.04476
2707.82915 0.04482
2706.54338 0.04487
2705.25761 0.04487
2703.97184 0.04486
2702.68607 0.04486
2701.40031 0.04484
2700.11454 0.04472
2698.82877 0.04450
2697.54300 0.04425
2696.25723 0.04405
2694.97146 0.04392
2693.68569 0.04382
2692.39992 0.04374
2691.11415 0.04367
2689.82839 0.04354
2688.54262 0.04336
2687.25685 0.04318
2685.97108 0.04306
2684.68531 0.04303
2683.39954 0.04303
2682.11377 0.04302
2680.82800 0.04300
2679.54224 0.04297
2678.25647 0.04299
2676.97070 0.04314
2675.68493 0.04343
2674.39916 0.04373
2673.11339 0.04382
2671.82762 0.04362
2670.54185 0.04323
2669.25608 0.04285
2667.97032 0.04268
2666.68455 0.04276
2665.39878 0.04297
2664.11301 0.04310
2662.82724 0.04305
2661.54147 0.04284
2660.25570 0.04256
2658.96993 0.04223
2657.68417 0.04189
2656.39840 0.04162
2655.11263 0.04149
2653.82686 0.04149
2652.54109 0.04153
2651.25532 0.04151
2649.96955 0.04142
2648.68378 0.04128
2647.39801 0.04110
2646.11225 0.04090
2644.82648 0.04074
2643.54071 0.04072
2642.25494 0.04090
2640.96917 0.04115
2639.68340 0.04125
2638.39763 0.04100
2637.11186 0.04042
2635.82609 0.03972
2634.54033 0.03913
2633.25456 0.03881
2631.96879 0.03879
2630.68302 0.03905
2629.39725 0.03943
2628.11148 0.03965
2626.82571 0.03956
2625.53994 0.03922
2624.25418 0.03884
2622.96841 0.03856
2621.68264 0.03845
2620.39687 0.03846
2619.11110 0.03839
2617.82533 0.03810
2616.53956 0.03766
2615.25379 0.03737
2613.96802 0.03732
2612.68226 0.03743
2611.39649 0.03760
2610.11072 0.03785
2608.82495 0.03816
2607.53918 0.03829
2606.25341 0.03805
2604.96764 0.03748
2603.68187 0.03687
2602.39611 0.03651
2601.11034 0.03651
2599.82457 0.03673
2598.53880 0.03690
2597.25303 0.03681
2595.96726 0.03648
2594.68149 0.03609
2593.39572 0.03581
2592.10995 0.03566
2590.82419 0.03552
2589.53842 0.03531
2588.25265 0.03511
2586.96688 0.03498
2585.68111 0.03497
2584.39534 0.03502
2583.10957 0.03505
2581.82380 0.03502
2580.53804 0.03491
2579.25227 0.03475
2577.96650 0.03460
2576.68073 0.03448
2575.39496 0.03437
2574.10919 0.03426
2572.82342 0.03423
2571.53765 0.03437
2570.25188 0.03450
2568.96612 0.03435
2567.68035 0.03387
2566.39458 0.03349
2565.10881 0.03357
2563.82304 0.03409
2562.53727 0.03472
2561.25150 0.03524
2559.96573 0.03554
2558.67997 0.03549
2557.39420 0.03504
2556.10843 0.03441
2554.82266 0.03404
2553.53689 0.03413
2552.25112 0.03440
2550.96535 0.03438
2549.67958 0.03392
2548.39381 0.03334
2547.10805 0.03308
2545.82228 0.03326
2544.53651 0.03357
2543.25074 0.03361
2541.96497 0.03326
2540.67920 0.03275
2539.39343 0.03242
2538.10766 0.03248
2536.82190 0.03283
2535.53613 0.03327
2534.25036 0.03361
2532.96459 0.03375
2531.67882 0.03365
2530.39305 0.03347
2529.10728 0.03337
2527.82151 0.03336
2526.53574 0.03331
2525.24998 0.03317
2523.96421 0.03308
2522.67844 0.03316
2521.39267 0.03329
2520.10690 0.03320
2518.82113 0.03280
2517.53536 0.03226
2516.24959 0.03188
2514.96383 0.03180
2513.67806 0.03190
2512.39229 0.03200
2511.10652 0.03208
2509.82075 0.03222
2508.53498 0.03247
2507.24921 0.03271
2505.96344 0.03283
2504.67767 0.03284
2503.39191 0.03276
2502.10614 0.03247
2500.82037 0.03197
2499.53460 0.03149
2498.24883 0.03137
2496.96306 0.03164
2495.67729 0.03207
2494.39152 0.03239
2493.10576 0.03256
2491.81999 0.03266
2490.53422 0.03280
2489.24845 0.03292
2487.96268 0.03285
2486.67691 0.03249
2485.39114 0.03203
2484.10537 0.03181
2482.81960 0.03196
2481.53384 0.03225
2480.24807 0.03235
2478.96230 0.03219
2477.67653 0.03197
2476.39076 0.03184
2475.10499 0.03175
2473.81922 0.03158
2472.53345 0.03135
2471.24769 0.03124
2469.96192 0.03140
2468.67615 0.03179
2467.39038 0.03217
2466.10461 0.03220
2464.81884 0.03180
2463.53307 0.03127
2462.24730 0.03105
2460.96153 0.03132
2459.67577 0.03188
2458.39000 0.03233
2457.10423 0.03234
2455.81846 0.03194
2454.53269 0.03141
2453.24692 0.03102
2451.96115 0.03089
2450.67538 0.03095
2449.38962 0.03111
2448.10385 0.03129
2446.81808 0.03138
2445.53231 0.03124
2444.24654 0.03088
2442.96077 0.03048
2441.67500 0.03030
2440.38923 0.03047
2439.10346 0.03079
2437.81770 0.03096
2436.53193 0.03088
2435.24616 0.03075
2433.96039 0.03079
2432.67462 0.03099
2431.38885 0.03115
2430.10308 0.03109
2428.81731 0.03078
2427.53155 0.03034
2426.24578 0.02992
2424.96001 0.02958
2423.67424 0.02934
2422.38847 0.02924
2421.10270 0.02932
2419.81693 0.02952
2418.53116 0.02975
2417.24539 0.02990
2415.95963 0.02982
2414.67386 0.02944
2413.38809 0.02894
2412.10232 0.02863
2410.81655 0.02859
2409.53078 0.02869
2408.24501 0.02882
2406.95924 0.02903
2405.67347 0.02927
2404.38771 0.02937
2403.10194 0.02924
2401.81617 0.02905
2400.53040 0.02894
2399.24463 0.02906
2397.95886 0.02918
2396.67309 0.02932
2395.38732 0.02933
2394.10156 0.02911
2392.81579 0.02871
2391.53002 0.02839
2390.24425 0.02830
2388.95848 0.02838
2387.67271 0.02847
2386.38694 0.02854
2385.10117 0.02867
2383.81540 0.02895
2382.52964 0.02938
2381.24387 0.02982
2379.95810 0.03017
2378.67233 0.03015
2377.38656 0.03009
2376.10079 0.03041
2374.81502 0.03089
2373.52925 0.03042
2372.24349 0.02915
2370.95772 0.02812
2369.67195 0.02795
2368.38618 0.02840
2367.10041 0.02883
2365.81464 0.02912
2364.52887 0.02928
2363.24310 0.02931
2361.95733 0.02901
2360.67157 0.02814
2359.38580 0.02741
2358.10003 0.02732
2356.81426 0.02795
2355.52849 0.02916
2354.24272 0.03065
2352.95695 0.03162
2351.67118 0.03093
2350.38542 0.02962
2349.09965 0.02928
2347.81388 0.02963
2346.52811 0.02937
2345.24234 0.02916
2343.95657 0.03038
2342.67080 0.03276
2341.38503 0.03221
2340.09926 0.02936
2338.81350 0.02917
2337.52773 0.03138
2336.24196 0.03056
2334.95619 0.02829
2333.67042 0.02920
2332.38465 0.03197
2331.09888 0.03043
2329.81311 0.02941
2328.52735 0.03118
2327.24158 0.03083
2325.95581 0.02967
2324.67004 0.03033
2323.38427 0.03085
2322.09850 0.02952
2320.81273 0.02936
2319.52696 0.02912
2318.24119 0.02879
2316.95543 0.02932
2315.66966 0.02936
2314.38389 0.02927
2313.09812 0.02937
2311.81235 0.02887
2310.52658 0.02855
2309.24081 0.02840
2307.95504 0.02809
2306.66928 0.02813
2305.38351 0.02816
2304.09774 0.02812
2302.81197 0.02788
2301.52620 0.02731
2300.24043 0.02684
2298.95466 0.02657
2297.66889 0.02652
2296.38312 0.02645
2295.09736 0.02613
2293.81159 0.02566
2292.52582 0.02519
2291.24005 0.02493
2289.95428 0.02479
2288.66851 0.02463
2287.38274 0.02441
2286.09697 0.02422
2284.81121 0.02422
2283.52544 0.02446
2282.23967 0.02491
2280.95390 0.02533
2279.66813 0.02546
2278.38236 0.02520
2277.09659 0.02465
2275.81082 0.02399
2274.52505 0.02340
2273.23929 0.02297
2271.95352 0.02263
2270.66775 0.02224
2269.38198 0.02181
2268.09621 0.02146
2266.81044 0.02125
2265.52467 0.02112
2264.23890 0.02105
2262.95314 0.02110
2261.66737 0.02138
2260.38160 0.02189
2259.09583 0.02236
2257.81006 0.02240
2256.52429 0.02187
2255.23852 0.02095
2253.95275 0.02003
2252.66698 0.01944
2251.38122 0.01931
2250.09545 0.01950
2248.80968 0.01987
2247.52391 0.02017
2246.23814 0.02034
2244.95237 0.02054
2243.66660 0.02098
2242.38083 0.02170
2241.09507 0.02248
2239.80930 0.02289
2238.52353 0.02268
2237.23776 0.02197
2235.95199 0.02121
2234.66622 0.02078
2233.38045 0.02071
2232.09468 0.02072
2230.80891 0.02040
2229.52315 0.01964
2228.23738 0.01871
2226.95161 0.01804
2225.66584 0.01777
2224.38007 0.01760
2223.09430 0.01722
2221.80853 0.01670
2220.52276 0.01643
2219.23700 0.01668
2217.95123 0.01724
2216.66546 0.01764
2215.37969 0.01753
2214.09392 0.01689
2212.80815 0.01587
2211.52238 0.01473
2210.23661 0.01388
2208.95084 0.01376
2207.66508 0.01450
2206.37931 0.01566
2205.09354 0.01655
2203.80777 0.01679
2202.52200 0.01664
2201.23623 0.01666
2199.95046 0.01702
2198.66469 0.01737
2197.37893 0.01736
2196.09316 0.01712
2194.80739 0.01704
2193.52162 0.01708
2192.23585 0.01678
2190.95008 0.01595
2189.66431 0.01516
2188.37854 0.01524
2187.09277 0.01630
2185.80701 0.01742
2184.52124 0.01761
2183.23547 0.01660
2181.94970 0.01502
2180.66393 0.01373
2179.37816 0.01333
2178.09239 0.01372
2176.80662 0.01408
2175.52085 0.01356
2174.23509 0.01235
2172.94932 0.01150
2171.66355 0.01161
2170.37778 0.01209
2169.09201 0.01203
2167.80624 0.01123
2166.52047 0.01035
2165.23470 0.01002
2163.94894 0.01012
2162.66317 0.00993
2161.37740 0.00884
2160.09163 0.00722
2158.80586 0.00623
2157.52009 0.00664
2156.23432 0.00802
2154.94855 0.00931
2153.66278 0.00980
2152.37702 0.00957
2151.09125 0.00919
2149.80548 0.00926
2148.51971 0.00996
2147.23394 0.01104
2145.94817 0.01216
2144.66240 0.01309
2143.37663 0.01368
2142.09087 0.01389
2140.80510 0.01381
2139.51933 0.01370
2138.23356 0.01375
2136.94779 0.01386
2135.66202 0.01377
2134.37625 0.01341
2133.09048 0.01306
2131.80471 0.01308
2130.51895 0.01364
2129.23318 0.01470
2127.94741 0.01597
2126.66164 0.01697
2125.37587 0.01729
2124.09010 0.01693
2122.80433 0.01636
2121.51856 0.01608
2120.23280 0.01624
2118.94703 0.01666
2117.66126 0.01710
2116.37549 0.01751
2115.08972 0.01788
2113.80395 0.01811
2112.51818 0.01801
2111.23241 0.01751
2109.94664 0.01674
2108.66088 0.01597
2107.37511 0.01551
2106.08934 0.01551
2104.80357 0.01575
2103.51780 0.01579
2102.23203 0.01533
2100.94626 0.01463
2099.66049 0.01533
2098.37473 0.01590
2097.08896 0.01612
2095.80319 0.01608
2094.51742 0.01578
2093.23165 0.01531
2091.94588 0.01486
2090.66011 0.01452
2089.37434 0.01435
2088.08857 0.01446
2086.80281 0.01497
2085.51704 0.01577
2084.23127 0.01647
2082.94550 0.01665
2081.65973 0.01624
2080.37396 0.01551
2079.08819 0.01477
2077.80242 0.01418
2076.51666 0.01379
2075.23089 0.01369
2073.94512 0.01388
2072.65935 0.01415
2071.37358 0.01415
2070.08781 0.01376
2068.80204 0.01325
2067.51627 0.01307
2066.23050 0.01332
2064.94474 0.01362
2063.65897 0.01356
2062.37320 0.01307
2061.08743 0.01235
2059.80166 0.01161
2058.51589 0.01093
2057.23012 0.01035
2055.94435 0.00998
2054.65859 0.00988
2053.37282 0.00997
2052.08705 0.01010
2050.80128 0.01022
2049.51551 0.01041
2048.22974 0.01066
2046.94397 0.01061
2045.65820 0.00989
2044.37243 0.00864
2043.08667 0.00748
2041.80090 0.00692
2040.51513 0.00691
2039.22936 0.00712
2037.94359 0.00731
2036.65782 0.00738
2035.37205 0.00730
2034.08628 0.00716
2032.80052 0.00719
2031.51475 0.00749
2030.22898 0.00797
2028.94321 0.00848
2027.65744 0.00890
2026.37167 0.00915
2025.08590 0.00909
2023.80013 0.00867
2022.51436 0.00789
2021.22860 0.00691
2019.94283 0.00609
2018.65706 0.00577
2017.37129 0.00597
2016.08552 0.00641
2014.79975 0.00688
2013.51398 0.00745
2012.22821 0.00824
2010.94245 0.00921
2009.65668 0.01012
2008.37091 0.01072
2007.08514 0.01076
2005.79937 0.01027
2004.51360 0.00966
2003.22783 0.00959
2001.94206 0.01038
2000.65629 0.01166
1999.37053 0.01266
1998.08476 0.01289
1996.79899 0.01243
1995.51322 0.01173
1994.22745 0.01110
1992.94168 0.01067
1991.65591 0.01056
1990.37014 0.01084
1989.08438 0.01134
1987.79861 0.01169
1986.51284 0.01175
1985.22707 0.01172
1983.94130 0.01188
1982.65553 0.01231
1981.36976 0.01294
1980.08399 0.01368
1978.79822 0.01442
1977.51246 0.01486
1976.22669 0.01476
1974.94092 0.01423
1973.65515 0.01364
1972.36938 0.01329
1971.08361 0.01308
1969.79784 0.01288
1968.51207 0.01275
1967.22631 0.01286
1965.94054 0.01316
1964.65477 0.01334
1963.36900 0.01322
1962.08323 0.01289
1960.79746 0.01266
1959.51169 0.01278
1958.22592 0.01322
1956.94015 0.01373
1955.65439 0.01409
1954.36862 0.01429
1953.08285 0.01450
1951.79708 0.01478
1950.51131 0.01502
1949.22554 0.01508
1947.93977 0.01495
1946.65400 0.01469
1945.36823 0.01442
1944.08247 0.01432
1942.79670 0.01453
1941.51093 0.01503
1940.22516 0.01564
1938.93939 0.01615
1937.65362 0.01641
1936.36785 0.01638
1935.08208 0.01614
1933.79632 0.01591
1932.51055 0.01593
1931.22478 0.01625
1929.93901 0.01666
1928.65324 0.01689
1927.36747 0.01681
1926.08170 0.01655
1924.79593 0.01628
1923.51016 0.01606
1922.22440 0.01591
1920.93863 0.01582
1919.65286 0.01578
1918.36709 0.01579
1917.08132 0.01592
1915.79555 0.01620
1914.50978 0.01650
1913.22401 0.01659
1911.93825 0.01638
1910.65248 0.01600
1909.36671 0.01563
1908.08094 0.01534
1906.79517 0.01515
1905.50940 0.01516
1904.22363 0.01551
1902.93786 0.01613
1901.65209 0.01673
1900.36633 0.01697
1899.08056 0.01676
1897.79479 0.01634
1896.50902 0.01599
1895.22325 0.01590
1893.93748 0.01615
1892.65171 0.01670
1891.36594 0.01733
1890.08018 0.01773
1888.79441 0.01772
1887.50864 0.01739
1886.22287 0.01701
1884.93710 0.01677
1883.65133 0.01673
1882.36556 0.01684
1881.07979 0.01701
1879.79402 0.01715
1878.50826 0.01724
1877.22249 0.01727
1875.93672 0.01730
1874.65095 0.01732
1873.36518 0.01730
1872.07941 0.01723
1870.79364 0.01713
1869.50787 0.01708
1868.22211 0.01714
1866.93634 0.01725
1865.65057 0.01726
1864.36480 0.01707
1863.07903 0.01681
1861.79326 0.01668
1860.50749 0.01678
1859.22172 0.01703
1857.93595 0.01729
1856.65019 0.01743
1855.36442 0.01741
1854.07865 0.01719
1852.79288 0.01686
1851.50711 0.01661
1850.22134 0.01660
1848.93557 0.01681
1847.64980 0.01708
1846.36404 0.01723
1845.07827 0.01722
1843.79250 0.01713
1842.50673 0.01703
1841.22096 0.01691
1839.93519 0.01678
1838.64942 0.01669
1837.36365 0.01669
1836.07788 0.01679
1834.79212 0.01698
1833.50635 0.01725
1832.22058 0.01754
1830.93481 0.01775
1829.64904 0.01781
1828.36327 0.01776
1827.07750 0.01768
1825.79173 0.01764
1824.50597 0.01766
1823.22020 0.01768
1821.93443 0.01771
1820.64866 0.01778
1819.36289 0.01791
1818.07712 0.01802
1816.79135 0.01797
1815.50558 0.01773
1814.21981 0.01741
1812.93405 0.01718
1811.64828 0.01709
1810.36251 0.01711
1809.07674 0.01721
1807.79097 0.01736
1806.50520 0.01752
1805.21943 0.01767
1803.93366 0.01776
1802.64790 0.01777
1801.36213 0.01776
1800.07636 0.01777
1798.79059 0.01779
1797.50482 0.01771
1796.21905 0.01755
1794.93328 0.01745
1793.64751 0.01755
1792.36174 0.01782
1791.07598 0.01810
1789.79021 0.01827
1788.50444 0.01835
1787.21867 0.01842
1785.93290 0.01846
1784.64713 0.01846
1783.36136 0.01841
1782.07559 0.01840
1780.78983 0.01843
1779.50406 0.01848
1778.21829 0.01847
1776.93252 0.01841
1775.64675 0.01835
1774.36098 0.01834
1773.07521 0.01840
1771.78944 0.01847
1770.50367 0.01849
1769.21791 0.01846
1767.93214 0.01843
1766.64637 0.01847
1765.36060 0.01855
1764.07483 0.01862
1762.78906 0.01867
1761.50329 0.01874
1760.21752 0.01879
1758.93176 0.01880
1757.64599 0.01877
1756.36022 0.01877
1755.07445 0.01883
1753.78868 0.01893
1752.50291 0.01902
1751.21714 0.01906
1749.93137 0.01905
1748.64560 0.01897
1747.35984 0.01888
1746.07407 0.01887
1744.78830 0.01899
1743.50253 0.01919
1742.21676 0.01935
1740.93099 0.01940
1739.64522 0.01937
1738.35945 0.01934
1737.07369 0.01937
1735.78792 0.01945
1734.50215 0.01956
1733.21638 0.01968
1731.93061 0.01974
1730.64484 0.01972
1729.35907 0.01968
1728.07330 0.01971
1726.78753 0.01984
1725.50177 0.02003
1724.21600 0.02026
1722.93023 0.02048
1721.64446 0.02069
1720.35869 0.02088
1719.07292 0.02106
1717.78715 0.02130
1716.50138 0.02160
1715.21561 0.02194
1713.92985 0.02225
1712.64408 0.02253
1711.35831 0.02281
1710.07254 0.02310
1708.78677 0.02339
1707.50100 0.02370
1706.21523 0.02408
1704.92946 0.02458
1703.64370 0.02520
1702.35793 0.02584
1701.07216 0.02645
1699.78639 0.02703
1698.50062 0.02752
1697.21485 0.02787
1695.92908 0.02811
1694.64331 0.02836
1693.35754 0.02860
1692.07178 0.02882
1690.78601 0.02909
1689.50024 0.02949
1688.21447 0.03003
1686.92870 0.03063
1685.64293 0.03123
1684.35716 0.03180
1683.07139 0.03229
1681.78563 0.03263
1680.49986 0.03287
1679.21409 0.03316
1677.92832 0.03360
1676.64255 0.03414
1675.35678 0.03473
1674.07101 0.03530
1672.78524 0.03578
1671.49947 0.03613
1670.21371 0.03637
1668.92794 0.03662
1667.64217 0.03696
1666.35640 0.03746
1665.07063 0.03805
1663.78486 0.03862
1662.49909 0.03908
1661.21332 0.03943
1659.92756 0.03972
1658.64179 0.04001
1657.35602 0.04036
1656.07025 0.04080
1654.78448 0.04128
1653.49871 0.04174
1652.21294 0.04212
1650.92717 0.04230
1649.64140 0.04226
1648.35564 0.04209
1647.06987 0.04195
1645.78410 0.04187
1644.49833 0.04182
1643.21256 0.04177
1641.92679 0.04173
1640.64102 0.04173
1639.35525 0.04179
1638.06949 0.04185
1636.78372 0.04189
1635.49795 0.04187
1634.21218 0.04172
1632.92641 0.04142
1631.64064 0.04102
1630.35487 0.04067
1629.06910 0.04046
1627.78333 0.04037
1626.49757 0.04030
1625.21180 0.04013
1623.92603 0.03984
1622.64026 0.03948
1621.35449 0.03918
1620.06872 0.03900
1618.78295 0.03893
1617.49718 0.03889
1616.21142 0.03882
1614.92565 0.03868
1613.63988 0.03851
1612.35411 0.03839
1611.06834 0.03834
1609.78257 0.03833
1608.49680 0.03832
1607.21103 0.03831
1605.92526 0.03835
1604.63950 0.03844
1603.35373 0.03855
1602.06796 0.03869
1600.78219 0.03886
1599.49642 0.03906
1598.21065 0.03927
1596.92488 0.03947
1595.63911 0.03964
1594.35335 0.03980
1593.06758 0.03998
1591.78181 0.04018
1590.49604 0.04043
1589.21027 0.04069
1587.92450 0.04095
1586.63873 0.04125
1585.35296 0.04162
1584.06719 0.04208
1582.78143 0.04260
1581.49566 0.04315
1580.20989 0.04374
1578.92412 0.04433
1577.63835 0.04490
1576.35258 0.04542
1575.06681 0.04587
1573.78104 0.04629
1572.49528 0.04669
1571.20951 0.04716
1569.92374 0.04770
1568.63797 0.04826
1567.35220 0.04878
1566.06643 0.04926
1564.78066 0.04978
1563.49489 0.05040
1562.20912 0.05111
1560.92336 0.05184
1559.63759 0.05255
1558.35182 0.05313
1557.06605 0.05352
1555.78028 0.05375
1554.49451 0.05394
1553.20874 0.05421
1551.92297 0.05452
1550.63721 0.05478
1549.35144 0.05501
1548.06567 0.05523
1546.77990 0.05546
1545.49413 0.05567
1544.20836 0.05585
1542.92259 0.05599
1541.63682 0.05602
1540.35105 0.05593
1539.06529 0.05573
1537.77952 0.05545
1536.49375 0.05516
1535.20798 0.05492
1533.92221 0.05483
1532.63644 0.05490
1531.35067 0.05507
1530.06490 0.05531
1528.77914 0.05566
1527.49337 0.05616
1526.20760 0.05681
1524.92183 0.05755
1523.63606 0.05831
1522.35029 0.05908
1521.06452 0.05990
1519.77875 0.06080
1518.49298 0.06175
1517.20722 0.06274
1515.92145 0.06378
1514.63568 0.06487
1513.34991 0.06602
1512.06414 0.06728
1510.77837 0.06865
1509.49260 0.07007
1508.20683 0.07149
1506.92107 0.07287
1505.63530 0.07419
1504.34953 0.07539
1503.06376 0.07646
1501.77799 0.07746
1500.49222 0.07848
1499.20645 0.07953
1497.92068 0.08055
1496.63491 0.08150
1495.34915 0.08233
1494.06338 0.08305
1492.77761 0.08372
1491.49184 0.08444
1490.20607 0.08526
1488.92030 0.08618
1487.63453 0.08715
1486.34876 0.08815
1485.06299 0.08920
1483.77723 0.09031
1482.49146 0.09148
1481.20569 0.09270
1479.91992 0.09399
1478.63415 0.09529
1477.34838 0.09657
1476.06261 0.09777
1474.77684 0.09888
1473.49108 0.09989
1472.20531 0.10080
1470.91954 0.10161
1469.63377 0.10236
1468.34800 0.10305
1467.06223 0.10372
1465.77646 0.10433
1464.49069 0.10488
1463.20492 0.10539
1461.91916 0.10592
1460.63339 0.10654
1459.34762 0.10731
1458.06185 0.10817
1456.77608 0.10905
1455.49031 0.10986
1454.20454 0.11053
1452.91877 0.11106
1451.63301 0.11151
1450.34724 0.11190
1449.06147 0.11223
1447.77570 0.11246
1446.48993 0.11261
1445.20416 0.11268
1443.91839 0.11266
1442.63262 0.11255
1441.34685 0.11236
1440.06109 0.11210
1438.77532 0.11182
1437.48955 0.11159
1436.20378 0.11150
1434.91801 0.11161
1433.63224 0.11193
1432.34647 0.11249
1431.06070 0.11328
1429.77494 0.11428
1428.48917 0.11547
1427.20340 0.11681
1425.91763 0.11828
1424.63186 0.11981
1423.34609 0.12138
1422.06032 0.12292
1420.77455 0.12438
1419.48878 0.12573
1418.20302 0.12697
1416.91725 0.12806
1415.63148 0.12899
1414.34571 0.12972
1413.05994 0.13026
1411.77417 0.13057
1410.48840 0.13062
1409.20263 0.13039
1407.91687 0.12992
1406.63110 0.12922
1405.34533 0.12831
1404.05956 0.12719
1402.77379 0.12586
1401.48802 0.12428
1400.20225 0.12246
1398.91648 0.12044
1397.63071 0.11827
1396.34495 0.11598
1395.05918 0.11361
1393.77341 0.11118
1392.48764 0.10874
1391.20187 0.10633
1389.91610 0.10398
1388.63033 0.10171
1387.34456 0.09950
1386.05880 0.09729
1384.77303 0.09505
1383.48726 0.09281
1382.20149 0.09064
1380.91572 0.08858
1379.62995 0.08657
1378.34418 0.08450
1377.05841 0.08228
1375.77264 0.07990
1374.48688 0.07737
1373.20111 0.07478
1371.91534 0.07218
1370.62957 0.06962
1369.34380 0.06718
1368.05803 0.06490
1366.77226 0.06279
1365.48649 0.06081
1364.20073 0.05892
1362.91496 0.05713
1361.62919 0.05540
1360.34342 0.05373
1359.05765 0.05210
1357.77188 0.05054
1356.48611 0.04909
1355.20034 0.04781
1353.91457 0.04667
1352.62881 0.04566
1351.34304 0.04474
1350.05727 0.04388
1348.77150 0.04303
1347.48573 0.04219
1346.19996 0.04137
1344.91419 0.04060
1343.62842 0.03990
1342.34266 0.03930
1341.05689 0.03874
1339.77112 0.03821
1338.48535 0.03768
1337.19958 0.03716
1335.91381 0.03669
1334.62804 0.03623
1333.34227 0.03575
1332.05650 0.03523
1330.77074 0.03473
1329.48497 0.03429
1328.19920 0.03395
1326.91343 0.03370
1325.62766 0.03349
1324.34189 0.03326
1323.05612 0.03299
1321.77035 0.03266
1320.48459 0.03229
1319.19882 0.03193
1317.91305 0.03158
1316.62728 0.03129
1315.34151 0.03105
1314.05574 0.03086
1312.76997 0.03068
1311.48420 0.03047
1310.19843 0.03021
1308.91267 0.02992
1307.62690 0.02966
1306.34113 0.02944
1305.05536 0.02922
1303.76959 0.02899
1302.48382 0.02875
1301.19805 0.02855
1299.91228 0.02838
1298.62652 0.02820
1297.34075 0.02798
1296.05498 0.02774
1294.76921 0.02752
1293.48344 0.02732
1292.19767 0.02713
1290.91190 0.02693
1289.62613 0.02673
1288.34036 0.02655
1287.05460 0.02639
1285.76883 0.02626
1284.48306 0.02616
1283.19729 0.02607
1281.91152 0.02596
1280.62575 0.02579
1279.33998 0.02560
1278.05421 0.02539
1276.76845 0.02519
1275.48268 0.02501
1274.19691 0.02483
1272.91114 0.02469
1271.62537 0.02457
1270.33960 0.02445
1269.05383 0.02431
1267.76806 0.02416
1266.48229 0.02402
1265.19653 0.02391
1263.91076 0.02380
1262.62499 0.02371
1261.33922 0.02361
1260.05345 0.02350
1258.76768 0.02338
1257.48191 0.02323
1256.19614 0.02309
1254.91037 0.02298
1253.62461 0.02292
1252.33884 0.02287
1251.05307 0.02281
1249.76730 0.02273
1248.48153 0.02265
1247.19576 0.02257
1245.90999 0.02252
1244.62422 0.02246
1243.33846 0.02239
1242.05269 0.02230
1240.76692 0.02220
1239.48115 0.02210
1238.19538 0.02199
1236.90961 0.02188
1235.62384 0.02177
1234.33807 0.02169
1233.05230 0.02162
1231.76654 0.02152
1230.48077 0.02139
1229.19500 0.02121
1227.90923 0.02104
1226.62346 0.02092
1225.33769 0.02085
1224.05192 0.02082
1222.76615 0.02079
1221.48039 0.02074
1220.19462 0.02067
1218.90885 0.02060
1217.62308 0.02054
1216.33731 0.02048
1215.05154 0.02040
1213.76577 0.02029
1212.48000 0.02020
1211.19423 0.02015
1209.90847 0.02012
1208.62270 0.02007
1207.33693 0.02001
1206.05116 0.01996
1204.76539 0.01997
1203.47962 0.02002
1202.19385 0.02007
1200.90808 0.02003
1199.62232 0.01989
1198.33655 0.01989
1197.05078 0.01987
1195.76501 0.01981
1194.47924 0.01973
1193.19347 0.01968
1191.90770 0.01966
1190.62193 0.01964
1189.33616 0.01960
1188.05040 0.01957
1186.76463 0.01958
1185.47886 0.01964
1184.19309 0.01972
1182.90732 0.01975
1181.62155 0.01971
1180.33578 0.01962
1179.05001 0.01954
1177.76425 0.01953
1176.47848 0.01960
1175.19271 0.01971
1173.90694 0.01982
1172.62117 0.01993
1171.33540 0.02010
1170.04963 0.02030
1168.76386 0.02049
1167.47809 0.02062
1166.19233 0.02071
1164.90656 0.02083
1163.62079 0.02099
1162.33502 0.02118
1161.04925 0.02135
1159.76348 0.02152
1158.47771 0.02173
1157.19194 0.02203
1155.90618 0.02234
1154.62041 0.02262
1153.33464 0.02284
1152.04887 0.02307
1150.76310 0.02337
1149.47733 0.02375
1148.19156 0.02419
1146.90579 0.02468
1145.62002 0.02522
1144.33426 0.02584
1143.04849 0.02656
1141.76272 0.02737
1140.47695 0.02826
1139.19118 0.02921
1137.90541 0.03020
1136.61964 0.03125
1135.33387 0.03241
1134.04811 0.03379
1132.76234 0.03548
1131.47657 0.03749
1130.19080 0.03974
1128.90503 0.04211
1127.61926 0.04457
1126.33349 0.04715
1125.04772 0.04991
1123.76195 0.05290
1122.47619 0.05609
1121.19042 0.05940
1119.90465 0.06282
1118.61888 0.06628
1117.33311 0.06973
1116.04734 0.07314
1114.76157 0.07652
1113.47580 0.07990
1112.19004 0.08331
1110.90427 0.08672
1109.61850 0.09009
1108.33273 0.09337
1107.04696 0.09654
1105.76119 0.09959
1104.47542 0.10257
1103.18965 0.10551
1101.90388 0.10844
1100.61812 0.11135
1099.33235 0.11417
1098.04658 0.11681
1096.76081 0.11923
1095.47504 0.12147
1094.18927 0.12358
1092.90350 0.12563
1091.61773 0.12760
1090.33197 0.12950
1089.04620 0.13134
1087.76043 0.13312
1086.47466 0.13484
1085.18889 0.13653
1083.90312 0.13821
1082.61735 0.13994
1081.33158 0.14180
1080.04581 0.14390
1078.76005 0.14626
1077.47428 0.14880
1076.18851 0.15141
1074.90274 0.15405
1073.61697 0.15677
1072.33120 0.15965
1071.04543 0.16269
1069.75966 0.16583
1068.47390 0.16899
1067.18813 0.17220
1065.90236 0.17552
1064.61659 0.17895
1063.33082 0.18245
1062.04505 0.18595
1060.75928 0.18939
1059.47351 0.19272
1058.18774 0.19594
1056.90198 0.19912
1055.61621 0.20234
1054.33044 0.20562
1053.04467 0.20889
1051.75890 0.21214
1050.47313 0.21539
1049.18736 0.21868
1047.90159 0.22206
1046.61583 0.22555
1045.33006 0.22919
1044.04429 0.23292
1042.75852 0.23671
1041.47275 0.24050
1040.18698 0.24431
1038.90121 0.24814
1037.61544 0.25201
1036.32967 0.25588
1035.04391 0.25968
1033.75814 0.26336
1032.47237 0.26687
1031.18660 0.27018
1029.90083 0.27325
1028.61506 0.27609
1027.32929 0.27872
1026.04352 0.28115
1024.75775 0.28335
1023.47199 0.28523
1022.18622 0.28670
1020.90045 0.28772
1019.61468 0.28830
1018.32891 0.28848
1017.04314 0.28828
1015.75737 0.28770
1014.47160 0.28669
1013.18584 0.28516
1011.90007 0.28301
1010.61430 0.28019
1009.32853 0.27680
1008.04276 0.27292
1006.75699 0.26862
1005.47122 0.26388
1004.18545 0.25864
1002.89968 0.25288
1001.61392 0.24665
1000.32815 0.24002
999.04238 0.23310
997.75661 0.22594
996.47084 0.21866
995.18507 0.21133
993.89930 0.20403
992.61353 0.19683
991.32777 0.18979
990.04200 0.18295
988.75623 0.17633
987.47046 0.16991
986.18469 0.16364
984.89892 0.15751
983.61315 0.15158
982.32738 0.14595
981.04161 0.14073
979.75585 0.13597
978.47008 0.13165
977.18431 0.12771
975.89854 0.12415
974.61277 0.12103
973.32700 0.11839
972.04123 0.11629
970.75546 0.11476
969.46970 0.11382
968.18393 0.11349
966.89816 0.11378
965.61239 0.11461
964.32662 0.11573
963.04085 0.11679
961.75508 0.11752
960.46931 0.11771
959.18354 0.11720
957.89778 0.11590
956.61201 0.11390
955.32624 0.11146
954.04047 0.10878
952.75470 0.10598
951.46893 0.10310
950.18316 0.10024
948.89739 0.09750
947.61163 0.09492
946.32586 0.09245
945.04009 0.09004
943.75432 0.08769
942.46855 0.08545
941.18278 0.08328
939.89701 0.08117
938.61124 0.07910
937.32547 0.07713
936.03971 0.07527
934.75394 0.07358
933.46817 0.07205
932.18240 0.07070
930.89663 0.06947
929.61086 0.06826
928.32509 0.06702
927.03932 0.06576
925.75356 0.06453
924.46779 0.06340
923.18202 0.06240
921.89625 0.06153
920.61048 0.06078
919.32471 0.06005
918.03894 0.05928
916.75317 0.05845
915.46740 0.05765
914.18164 0.05697
912.89587 0.05641
911.61010 0.05591
910.32433 0.05538
909.03856 0.05479
907.75279 0.05425
906.46702 0.05384
905.18125 0.05354
903.89549 0.05318
902.60972 0.05264
901.32395 0.05196
900.03818 0.05129
898.75241 0.05073
897.46664 0.05028
896.18087 0.04994
894.89510 0.04971
893.60933 0.04958
892.32357 0.04950
891.03780 0.04950
889.75203 0.04963
888.46626 0.05001
887.18049 0.05075
885.89472 0.05200
884.60895 0.05393
883.32318 0.05665
882.03742 0.06000
880.75165 0.06352
879.46588 0.06662
878.18011 0.06898
876.89434 0.07081
875.60857 0.07257
874.32280 0.07449
873.03703 0.07630
871.75126 0.07751
870.46550 0.07779
869.17973 0.07707
867.89396 0.07546
866.60819 0.07312
865.32242 0.07030
864.03665 0.06729
862.75088 0.06434
861.46511 0.06159
860.17935 0.05909
858.89358 0.05686
857.60781 0.05494
856.32204 0.05335
855.03627 0.05204
853.75050 0.05093
852.46473 0.04998
851.17896 0.04917
849.89319 0.04846
848.60743 0.04782
847.32166 0.04722
846.03589 0.04669
844.75012 0.04624
843.46435 0.04585
842.17858 0.04543
840.89281 0.04494
839.60704 0.04442
838.32128 0.04396
837.03551 0.04362
835.74974 0.04337
834.46397 0.04317
833.17820 0.04298
831.89243 0.04274
830.60666 0.04242
829.32089 0.04205
828.03512 0.04172
826.74936 0.04144
825.46359 0.04117
824.17782 0.04088
822.89205 0.04058
821.60628 0.04038
820.32051 0.04028
819.03474 0.04024
817.74897 0.04019
816.46321 0.04015
815.17744 0.04013
813.89167 0.04012
812.60590 0.04005
811.32013 0.03992
810.03436 0.03974
808.74859 0.03956
807.46282 0.03943
806.17705 0.03939
804.89129 0.03942
803.60552 0.03944
802.31975 0.03936
801.03398 0.03917
799.74821 0.03895
798.46244 0.03882
797.17667 0.03879
795.89090 0.03879
794.60513 0.03875
793.31937 0.03868
792.03360 0.03861
790.74783 0.03849
789.46206 0.03825
788.17629 0.03789
786.89052 0.03756
785.60475 0.03739
784.31898 0.03735
783.03322 0.03732
781.74745 0.03720
780.46168 0.03708
779.17591 0.03707
777.89014 0.03723
776.60437 0.03743
775.31860 0.03754
774.03283 0.03752
772.74706 0.03740
771.46130 0.03726
770.17553 0.03714
768.88976 0.03705
767.60399 0.03699
766.31822 0.03695
765.03245 0.03693
763.74668 0.03695
762.46091 0.03698
761.17515 0.03703
759.88938 0.03712
758.60361 0.03723
757.31784 0.03730
756.03207 0.03726
754.74630 0.03715
753.46053 0.03705
752.17476 0.03701
750.88899 0.03702
749.60323 0.03704
748.31746 0.03701
747.03169 0.03689
745.74592 0.03672
744.46015 0.03658
743.17438 0.03653
741.88861 0.03658
740.60284 0.03667
739.31708 0.03670
738.03131 0.03660
736.74554 0.03638
735.45977 0.03614
734.17400 0.03596
732.88823 0.03585
731.60246 0.03581
730.31669 0.03584
729.03092 0.03598
727.74516 0.03621
726.45939 0.03643
725.17362 0.03654
723.88785 0.03653
722.60208 0.03640
721.31631 0.03630
720.03054 0.03627
718.74477 0.03627
717.45901 0.03623
716.17324 0.03613
714.88747 0.03598
713.60170 0.03582
712.31593 0.03568
711.03016 0.03558
709.74439 0.03552
708.45862 0.03547
707.17285 0.03546
705.88709 0.03548
704.60132 0.03553
703.31555 0.03555
702.02978 0.03549
700.74401 0.03536
699.45824 0.03525
698.17247 0.03519
696.88670 0.03517
695.60094 0.03513
694.31517 0.03505
693.02940 0.03495
691.74363 0.03485
690.45786 0.03477
689.17209 0.03469
687.88632 0.03464
686.60055 0.03462
685.31478 0.03460
684.02902 0.03449
682.74325 0.03425
681.45748 0.03398
680.17171 0.03378
678.88594 0.03369
677.60017 0.03368
676.31440 0.03366
675.02863 0.03370
673.74287 0.03385
672.45710 0.03404
671.17133 0.03418
669.88556 0.03419
668.59979 0.03425
667.31402 0.03433
666.02825 0.03408
664.74248 0.03377
663.45671 0.03338
662.17095 0.03297
660.88518 0.03266
659.59941 0.03245
658.31364 0.03229
657.02787 0.03220
655.74210 0.03222
654.45633 0.03230
653.17056 0.03238
651.88480 0.03238
650.59903 0.03227
649.31326 0.03212
648.02749 0.03205
646.74172 0.03207
645.45595 0.03216
644.17018 0.03227
642.88441 0.03239
641.59864 0.03254
640.31288 0.03272
639.02711 0.03291
637.74134 0.03307
636.45557 0.03322
635.16980 0.03336
633.88403 0.03351
632.59826 0.03363
631.31249 0.03383
630.02673 0.03477
628.74096 0.03636
627.45519 0.03616
626.16942 0.03840
624.88365 0.04244
623.59788 0.04673
622.31211 0.05083
621.02634 0.05439
619.74057 0.05672
618.45481 0.05740
617.16904 0.05700
615.88327 0.05688
614.59750 0.05848
613.31173 0.06267
612.02596 0.06934
610.74019 0.07747
609.45442 0.08576
608.16866 0.09362
606.88289 0.10083
605.59712 0.10665
604.31135 0.11001
603.02558 0.11076
601.73981 0.10989
600.45404 0.10842
599.16827 0.10653
597.88250 0.10392
596.59674 0.10060
595.31097 0.09702
594.02520 0.09379
592.73943 0.09122
591.45366 0.08933
590.16789 0.08806
588.88212 0.08744
587.59635 0.08753
586.31059 0.08836
585.02482 0.08980
583.73905 0.09163
582.45328 0.09362
581.16751 0.09574
579.88174 0.09810
578.59597 0.10076
577.31020 0.10363
576.02443 0.10649
574.73867 0.10916
573.45290 0.11158
572.16713 0.11397
570.88136 0.11672
569.59559 0.12021
568.30982 0.12450
567.02405 0.12920
565.73828 0.13363
564.45251 0.13728
563.16675 0.13986
561.88098 0.14116
560.59521 0.14087
559.30944 0.13875
558.02367 0.13483
556.73790 0.12947
555.45213 0.12325
554.16636 0.11674
552.88060 0.11033
551.59483 0.10424
550.30906 0.09854
549.02329 0.09329
547.73752 0.08853
546.45175 0.08424
545.16598 0.08033
543.88021 0.07674
542.59444 0.07343
541.30868 0.07044
540.02291 0.06784
538.73714 0.06563
537.45137 0.06367
536.16560 0.06182
534.87983 0.05995
533.59406 0.05810
532.30829 0.05635
531.02253 0.05478
529.73676 0.05339
528.45099 0.05214
527.16522 0.05095
525.87945 0.04982
524.59368 0.04879
523.30791 0.04788
522.02214 0.04702
520.73637 0.04614
519.45061 0.04523
518.16484 0.04433
516.87907 0.04348
515.59330 0.04267
514.30753 0.04186
513.02176 0.04109
511.73599 0.04040
510.45022 0.03985
509.16446 0.03936
507.87869 0.03880
506.59292 0.03813
505.30715 0.03741
504.02138 0.03673
502.73561 0.03616
501.44984 0.03567
500.16407 0.03527
498.87830 0.03490
497.59254 0.03456
496.30677 0.03426
495.02100 0.03401
493.73523 0.03378
492.44946 0.03350
491.16369 0.03314
489.87792 0.03271
488.59215 0.03229
487.30639 0.03198
486.02062 0.03182
484.73485 0.03181
483.44908 0.03192
482.16331 0.03206
480.87754 0.03218
479.59177 0.03225
478.30600 0.03235
477.02023 0.03252
475.73447 0.03274
474.44870 0.03296
473.16293 0.03314
471.87716 0.03333
470.59139 0.03351
469.30562 0.03357
468.01985 0.03344
466.73408 0.03316
465.44832 0.03287
464.16255 0.03262
462.87678 0.03240
461.59101 0.03213
460.30524 0.03175
459.01947 0.03131
457.73370 0.03084
456.44793 0.03039
455.16216 0.02999
453.87640 0.02963
452.59063 0.02933
451.30486 0.02909
450.01909 0.02884
448.73332 0.02852
447.44755 0.02811
446.16178 0.02768
444.87601 0.02733
443.59025 0.02708
442.30448 0.02688
441.01871 0.02668
439.73294 0.02648
438.44717 0.02631
437.16140 0.02617
435.87563 0.02605
434.58986 0.02595
433.30409 0.02585
432.01833 0.02574
430.73256 0.02561
429.44679 0.02545
428.16102 0.02529
426.87525 0.02516
425.58948 0.02504
424.30371 0.02490
423.01794 0.02469
421.73218 0.02441
420.44641 0.02411
419.16064 0.02385
417.87487 0.02365
416.58910 0.02353
415.30333 0.02351
414.01756 0.02354
412.73179 0.02353
411.44602 0.02340
410.16026 0.02320
408.87449 0.02301
407.58872 0.02292
406.30295 0.02296
405.01718 0.02307
403.73141 0.02322
402.44564 0.02334
401.15987 0.02344
399.87411 0.02353
