3997.45528 0.05422
3996.16951 0.05437
3994.88374 0.05440
3993.59798 0.05397
3992.31221 0.05319
3991.02644 0.05241
3989.74067 0.05204
3988.45490 0.05233
3987.16913 0.05303
3985.88336 0.05350
3984.59759 0.05317
3983.31183 0.05220
3982.02606 0.05123
3980.74029 0.05075
3979.45452 0.05069
3978.16875 0.05063
3976.88298 0.05035
3975.59721 0.05001
3974.31144 0.04997
3973.02567 0.05035
3971.73991 0.05097
3970.45414 0.05156
3969.16837 0.05193
3967.88260 0.05190
3966.59683 0.05138
3965.31106 0.05055
3964.02529 0.04988
3962.73952 0.04974
3961.45376 0.05013
3960.16799 0.05078
3958.88222 0.05153
3957.59645 0.05228
3956.31068 0.05271
3955.02491 0.05231
3953.73914 0.05106
3952.45337 0.04970
3951.16760 0.04923
3949.88184 0.05003
3948.59607 0.05172
3947.31030 0.05366
3946.02453 0.05527
3944.73876 0.05597
3943.45299 0.05545
3942.16722 0.05396
3940.88145 0.05222
3939.59569 0.05093
3938.30992 0.05041
3937.02415 0.05050
3935.73838 0.05079
3934.45261 0.05094
3933.16684 0.05089
3931.88107 0.05068
3930.59530 0.05026
3929.30953 0.04965
3928.02377 0.04907
3926.73800 0.04877
3925.45223 0.04884
3924.16646 0.04914
3922.88069 0.04955
3921.59492 0.05012
3920.30915 0.05101
3919.02338 0.05209
3917.73762 0.05292
3916.45185 0.05308
3915.16608 0.05266
3913.88031 0.05213
3912.59454 0.05191
3911.30877 0.05216
3910.02300 0.05287
3908.73723 0.05385
3907.45146 0.05475
3906.16570 0.05520
3904.87993 0.05507
3903.59416 0.05439
3902.30839 0.05321
3901.02262 0.05176
3899.73685 0.05059
3898.45108 0.05013
3897.16531 0.05022
3895.87955 0.05035
3894.59378 0.05028
3893.30801 0.05018
3892.02224 0.05022
3890.73647 0.05036
3889.45070 0.05027
3888.16493 0.04976
3886.87916 0.04915
3885.59339 0.04890
3884.30763 0.04901
3883.02186 0.04915
3881.73609 0.04932
3880.45032 0.04984
3879.16455 0.05079
3877.87878 0.05183
3876.59301 0.05261
3875.30724 0.05292
3874.02148 0.05252
3872.73571 0.05132
3871.44994 0.04977
3870.16417 0.04886
3868.87840 0.04897
3867.59263 0.04932
3866.30686 0.04904
3865.02109 0.04822
3863.73532 0.04753
3862.44956 0.04736
3861.16379 0.04769
3859.87802 0.04839
3858.59225 0.04938
3857.30648 0.05041
3856.02071 0.05110
3854.73494 0.05130
3853.44917 0.05137
3852.16341 0.05162
3850.87764 0.05181
3849.59187 0.05159
3848.30610 0.05099
3847.02033 0.05039
3845.73456 0.05000
3844.44879 0.04971
3843.16302 0.04934
3841.87725 0.04903
3840.59149 0.04897
3839.30572 0.04916
3838.01995 0.04938
3836.73418 0.04937
3835.44841 0.04898
3834.16264 0.04830
3832.87687 0.04762
3831.59110 0.04717
3830.30534 0.04696
3829.01957 0.04688
3827.73380 0.04689
3826.44803 0.04704
3825.16226 0.04734
3823.87649 0.04762
3822.59072 0.04788
3821.30495 0.04838
3820.01918 0.04919
3818.73342 0.04984
3817.44765 0.04996
3816.16188 0.04976
3814.87611 0.04951
3813.59034 0.04894
3812.30457 0.04796
3811.01880 0.04696
3809.73303 0.04626
3808.44726 0.04569
3807.16150 0.04521
3805.87573 0.04502
3804.58996 0.04524
3803.30419 0.04581
3802.01842 0.04678
3800.73265 0.04806
3799.44688 0.04910
3798.16111 0.04939
3796.87535 0.04912
3795.58958 0.04867
3794.30381 0.04807
3793.01804 0.04730
3791.73227 0.04667
3790.44650 0.04659
3789.16073 0.04716
3787.87496 0.04812
3786.58919 0.04893
3785.30343 0.04909
3784.01766 0.04846
3782.73189 0.04741
3781.44612 0.04654
3780.16035 0.04626
3778.87458 0.04660
3777.58881 0.04723
3776.30304 0.04785
3775.01728 0.04834
3773.73151 0.04865
3772.44574 0.04855
3771.15997 0.04789
3769.87420 0.04680
3768.58843 0.04564
3767.30266 0.04486
3766.01689 0.04485
3764.73112 0.04577
3763.44536 0.04715
3762.15959 0.04815
3760.87382 0.04822
3759.58805 0.04740
3758.30228 0.04617
3757.01651 0.04521
3755.73074 0.04496
3754.44497 0.04540
3753.15921 0.04621
3751.87344 0.04708
3750.58767 0.04774
3749.30190 0.04813
3748.01613 0.04827
3746.73036 0.04802
3745.44459 0.04760
3744.15882 0.04750
3742.87305 0.04761
3741.58729 0.04727
3740.30152 0.04649
3739.01575 0.04591
3737.72998 0.04578
3736.44421 0.04576
3735.15844 0.04551
3733.87267 0.04500
3732.58690 0.04458
3731.30114 0.04460
3730.01537 0.04494
3728.72960 0.04529
3727.44383 0.04578
3726.15806 0.04670
3724.87229 0.04777
3723.58652 0.04829
3722.30075 0.04793
3721.01498 0.04695
3719.72922 0.04579
3718.44345 0.04472
3717.15768 0.04390
3715.87191 0.04346
3714.58614 0.04343
3713.30037 0.04366
3712.01460 0.04394
3710.72883 0.04406
3709.44307 0.04396
3708.15730 0.04382
3706.87153 0.04390
3705.58576 0.04436
3704.29999 0.04524
3703.01422 0.04638
3701.72845 0.04737
3700.44268 0.04765
3699.15691 0.04678
3697.87115 0.04485
3696.58538 0.04263
3695.29961 0.04109
3694.01384 0.04077
3692.72807 0.04154
3691.44230 0.04268
3690.15653 0.04328
3688.87076 0.04286
3687.58500 0.04183
3686.29923 0.04091
3685.01346 0.04036
3683.72769 0.03998
3682.44192 0.03941
3681.15615 0.03876
3679.87038 0.03881
3678.58461 0.04013
3677.29884 0.04234
3676.01308 0.04451
3674.72731 0.04583
3673.44154 0.04597
3672.15577 0.04518
3670.87000 0.04426
3669.58423 0.04387
3668.29846 0.04392
3667.01269 0.04401
3665.72693 0.04404
3664.44116 0.04409
3663.15539 0.04414
3661.86962 0.04417
3660.58385 0.04432
3659.29808 0.04464
3658.01231 0.04502
3656.72654 0.04532
3655.44077 0.04564
3654.15501 0.04613
3652.86924 0.04671
3651.58347 0.04708
3650.29770 0.04707
3649.01193 0.04677
3647.72616 0.04653
3646.44039 0.04658
3645.15462 0.04683
3643.86886 0.04706
3642.58309 0.04721
3641.29732 0.04741
3640.01155 0.04776
3638.72578 0.04822
3637.44001 0.04860
3636.15424 0.04863
3634.86847 0.04823
3633.58270 0.04773
3632.29694 0.04757
3631.01117 0.04787
3629.72540 0.04834
3628.43963 0.04856
3627.15386 0.04820
3625.86809 0.04736
3624.58232 0.04661
3623.29655 0.04637
3622.01079 0.04642
3620.72502 0.04642
3619.43925 0.04657
3618.15348 0.04734
3616.86771 0.04861
3615.58194 0.04960
3614.29617 0.04973
3613.01040 0.04931
3611.72463 0.04919
3610.43887 0.04981
3609.15310 0.05089
3607.86733 0.05195
3606.58156 0.05270
3605.29579 0.05310
3604.01002 0.05313
3602.72425 0.05287
3601.43848 0.05256
3600.15272 0.05268
3598.86695 0.05339
3597.58118 0.05436
3596.29541 0.05506
3595.00964 0.05530
3593.72387 0.05528
3592.43810 0.05524
3591.15233 0.05534
3589.86656 0.05568
3588.58080 0.05620
3587.29503 0.05656
3586.00926 0.05639
3584.72349 0.05571
3583.43772 0.05497
3582.15195 0.05462
3580.86618 0.05481
3579.58041 0.05539
3578.29464 0.05606
3577.00888 0.05663
3575.72311 0.05704
3574.43734 0.05737
3573.15157 0.05767
3571.86580 0.05781
3570.58003 0.05766
3569.29426 0.05737
3568.00849 0.05748
3566.72273 0.05830
3565.43696 0.05944
3564.15119 0.06016
3562.86542 0.06018
3561.57965 0.05990
3560.29388 0.05988
3559.00811 0.06040
3557.72234 0.06147
3556.43657 0.06290
3555.15081 0.06427
3553.86504 0.06498
3552.57927 0.06472
3551.29350 0.06379
3550.00773 0.06291
3548.72196 0.06252
3547.43619 0.06248
3546.15042 0.06243
3544.86466 0.06232
3543.57889 0.06247
3542.29312 0.06316
3541.00735 0.06423
3539.72158 0.06520
3538.43581 0.06568
3537.15004 0.06560
3535.86427 0.06514
3534.57850 0.06458
3533.29274 0.06419
3532.00697 0.06423
3530.72120 0.06487
3529.43543 0.06596
3528.14966 0.06697
3526.86389 0.06748
3525.57812 0.06756
3524.29235 0.06755
3523.00659 0.06759
3521.72082 0.06754
3520.43505 0.06737
3519.14928 0.06739
3517.86351 0.06789
3516.57774 0.06876
3515.29197 0.06962
3514.00620 0.07013
3512.72043 0.07024
3511.43467 0.07004
3510.14890 0.06969
3508.86313 0.06938
3507.57736 0.06923
3506.29159 0.06921
3505.00582 0.06921
3503.72005 0.06915
3502.43428 0.06901
3501.14852 0.06890
3499.86275 0.06897
3498.57698 0.06938
3497.29121 0.07008
3496.00544 0.07085
3494.71967 0.07135
3493.43390 0.07143
3492.14813 0.07117
3490.86236 0.07084
3489.57660 0.07069
3488.29083 0.07083
3487.00506 0.07123
3485.71929 0.07185
3484.43352 0.07252
3483.14775 0.07305
3481.86198 0.07333
3480.57621 0.07344
3479.29045 0.07354
3478.00468 0.07364
3476.71891 0.07356
3475.43314 0.07311
3474.14737 0.07237
3472.86160 0.07167
3471.57583 0.07139
3470.29006 0.07168
3469.00429 0.07230
3467.71853 0.07291
3466.43276 0.07323
3465.14699 0.07322
3463.86122 0.07308
3462.57545 0.07312
3461.28968 0.07348
3460.00391 0.07395
3458.71814 0.07415
3457.43238 0.07395
3456.14661 0.07361
3454.86084 0.07338
3453.57507 0.07329
3452.28930 0.07327
3451.00353 0.07333
3449.71776 0.07357
3448.43199 0.07399
3447.14622 0.07446
3445.86046 0.07489
3444.57469 0.07527
3443.28892 0.07574
3442.00315 0.07642
3440.71738 0.07735
3439.43161 0.07834
3438.14584 0.07898
3436.86007 0.07892
3435.57431 0.07815
3434.28854 0.07710
3433.00277 0.07642
3431.71700 0.07654
3430.43123 0.07737
3429.14546 0.07841
3427.85969 0.07909
3426.57392 0.07916
3425.28815 0.07882
3424.00239 0.07848
3422.71662 0.07846
3421.43085 0.07883
3420.14508 0.07941
3418.85931 0.08001
3417.57354 0.08056
3416.28777 0.08115
3415.00200 0.08175
3413.71624 0.08208
3412.43047 0.08186
3411.14470 0.08111
3409.85893 0.08019
3408.57316 0.07959
3407.28739 0.07961
3406.00162 0.08017
3404.71585 0.08089
3403.43008 0.08133
3402.14432 0.08149
3400.85855 0.08172
3399.57278 0.08188
3398.28701 0.08197
3397.00124 0.08230
3395.71547 0.08250
3394.42970 0.08231
3393.14393 0.08184
3391.85817 0.08144
3390.57240 0.08139
3389.28663 0.08171
3388.00086 0.08227
3386.71509 0.08298
3385.42932 0.08387
3384.14355 0.08488
3382.85778 0.08570
3381.57201 0.08598
3380.28625 0.08568
3379.00048 0.08503
3377.71471 0.08437
3376.42894 0.08394
3375.14317 0.08388
3373.85740 0.08420
3372.57163 0.08479
3371.28586 0.08544
3370.00010 0.08599
3368.71433 0.08638
3367.42856 0.08665
3366.14279 0.08684
3364.85702 0.08685
3363.57125 0.08658
3362.28548 0.08610
3360.99971 0.08571
3359.71394 0.08570
3358.42818 0.08606
3357.14241 0.08651
3355.85664 0.08672
3354.57087 0.08655
3353.28510 0.08608
3351.99933 0.08546
3350.71356 0.08488
3349.42779 0.08453
3348.14202 0.08458
3346.85626 0.08503
3345.57049 0.08577
3344.28472 0.08665
3342.99895 0.08748
3341.71318 0.08800
3340.42741 0.08801
3339.14164 0.08763
3337.85587 0.08726
3336.57011 0.08729
3335.28434 0.08771
3333.99857 0.08824
3332.71280 0.08861
3331.42703 0.08878
3330.14126 0.08872
3328.85549 0.08833
3327.56972 0.08764
3326.28395 0.08699
3324.99819 0.08683
3323.71242 0.08721
3322.42665 0.08786
3321.14088 0.08848
3319.85511 0.08897
3318.56934 0.08934
3317.28357 0.08962
3315.99780 0.08981
3314.71204 0.08993
3313.42627 0.08993
3312.14050 0.08978
3310.85473 0.08958
3309.56896 0.08955
3308.28319 0.08977
3306.99742 0.09008
3305.71165 0.09015
3304.42588 0.08986
3303.14012 0.08944
3301.85435 0.08927
3300.56858 0.08948
3299.28281 0.08978
3297.99704 0.08977
3296.71127 0.08935
3295.42550 0.08888
3294.13973 0.08888
3292.85397 0.08948
3291.56820 0.09031
3290.28243 0.09086
3288.99666 0.09097
3287.71089 0.09080
3286.42512 0.09059
3285.13935 0.09043
3283.85358 0.09038
3282.56781 0.09047
3281.28205 0.09059
3279.99628 0.09054
3278.71051 0.09024
3277.42474 0.08985
3276.13897 0.08958
3274.85320 0.08950
3273.56743 0.08949
3272.28166 0.08939
3270.99590 0.08913
3269.71013 0.08880
3268.42436 0.08864
3267.13859 0.08891
3265.85282 0.08956
3264.56705 0.09019
3263.28128 0.09039
3261.99551 0.09005
3260.70974 0.08945
3259.42398 0.08902
3258.13821 0.08897
3256.85244 0.08925
3255.56667 0.08966
3254.28090 0.08997
3252.99513 0.08996
3251.70936 0.08953
3250.42359 0.08881
3249.13783 0.08813
3247.85206 0.08765
3246.56629 0.08733
3245.28052 0.08704
3243.99475 0.08676
3242.70898 0.08657
3241.42321 0.08656
3240.13744 0.08671
3238.85167 0.08684
3237.56591 0.08673
3236.28014 0.08633
3234.99437 0.08584
3233.70860 0.08546
3232.42283 0.08527
3231.13706 0.08533
3229.85129 0.08565
3228.56552 0.08613
3227.27976 0.08653
3225.99399 0.08665
3224.70822 0.08651
3223.42245 0.08628
3222.13668 0.08614
3220.85091 0.08606
3219.56514 0.08592
3218.27937 0.08561
3216.99360 0.08512
3215.70784 0.08467
3214.42207 0.08449
3213.13630 0.08459
3211.85053 0.08465
3210.56476 0.08444
3209.27899 0.08406
3207.99322 0.08388
3206.70745 0.08403
3205.42169 0.08431
3204.13592 0.08450
3202.85015 0.08455
3201.56438 0.08450
3200.27861 0.08429
3198.99284 0.08390
3197.70707 0.08348
3196.42130 0.08331
3195.13553 0.08346
3193.84977 0.08372
3192.56400 0.08386
3191.27823 0.08385
3189.99246 0.08376
3188.70669 0.08359
3187.42092 0.08332
3186.13515 0.08292
3184.84938 0.08243
3183.56362 0.08197
3182.27785 0.08172
3180.99208 0.08175
3179.70631 0.08194
3178.42054 0.08209
3177.13477 0.08208
3175.84900 0.08193
3174.56323 0.08164
3173.27746 0.08114
3171.99170 0.08037
3170.70593 0.07946
3169.42016 0.07875
3168.13439 0.07851
3166.84862 0.07873
3165.56285 0.07902
3164.27708 0.07898
3162.99131 0.07856
3161.70555 0.07804
3160.41978 0.07769
3159.13401 0.07755
3157.84824 0.07746
3156.56247 0.07729
3155.27670 0.07708
3153.99093 0.07684
3152.70516 0.07663
3151.41939 0.07643
3150.13363 0.07630
3148.84786 0.07626
3147.56209 0.07630
3146.27632 0.07634
3144.99055 0.07630
3143.70478 0.07617
3142.41901 0.07602
3141.13324 0.07594
3139.84748 0.07596
3138.56171 0.07601
3137.27594 0.07608
3135.99017 0.07615
3134.70440 0.07624
3133.41863 0.07638
3132.13286 0.07657
3130.84709 0.07672
3129.56132 0.07657
3128.27556 0.07599
3126.98979 0.07513
3125.70402 0.07435
3124.41825 0.07383
3123.13248 0.07353
3121.84671 0.07334
3120.56094 0.07320
3119.27517 0.07310
3117.98940 0.07309
3116.70364 0.07319
3115.41787 0.07341
3114.13210 0.07366
3112.84633 0.07378
3111.56056 0.07371
3110.27479 0.07356
3108.98902 0.07347
3107.70325 0.07337
3106.41749 0.07312
3105.13172 0.07268
3103.84595 0.07221
3102.56018 0.07196
3101.27441 0.07205
3099.98864 0.07244
3098.70287 0.07293
3097.41710 0.07334
3096.13133 0.07358
3094.84557 0.07371
3093.55980 0.07382
3092.27403 0.07396
3090.98826 0.07411
3089.70249 0.07415
3088.41672 0.07395
3087.13095 0.07350
3085.84518 0.07301
3084.55942 0.07279
3083.27365 0.07296
3081.98788 0.07328
3080.70211 0.07344
3079.41634 0.07328
3078.13057 0.07294
3076.84480 0.07267
3075.55903 0.07264
3074.27326 0.07280
3072.98750 0.07298
3071.70173 0.07307
3070.41596 0.07313
3069.13019 0.07323
3067.84442 0.07333
3066.55865 0.07323
3065.27288 0.07290
3063.98711 0.07246
3062.70135 0.07204
3061.41558 0.07170
3060.12981 0.07144
3058.84404 0.07124
3057.55827 0.07105
3056.27250 0.07079
3054.98673 0.07040
3053.70096 0.06998
3052.41519 0.06968
3051.12943 0.06959
3049.84366 0.06968
3048.55789 0.06983
3047.27212 0.06988
3045.98635 0.06972
3044.70058 0.06936
3043.41481 0.06900
3042.12904 0.06887
3040.84328 0.06901
3039.55751 0.06922
3038.27174 0.06926
3036.98597 0.06902
3035.70020 0.06863
3034.41443 0.06824
3033.12866 0.06795
3031.84289 0.06775
3030.55712 0.06757
3029.27136 0.06739
3027.98559 0.06720
3026.69982 0.06704
3025.41405 0.06699
3024.12828 0.06700
3022.84251 0.06701
3021.55674 0.06695
3020.27097 0.06681
3018.98521 0.06669
3017.69944 0.06666
3016.41367 0.06675
3015.12790 0.06683
3013.84213 0.06678
3012.55636 0.06656
3011.27059 0.06625
3009.98482 0.06595
3008.69905 0.06566
3007.41329 0.06538
3006.12752 0.06514
3004.84175 0.06502
3003.55598 0.06512
3002.27021 0.06549
3000.98444 0.06591
2999.69867 0.06573
2998.41290 0.06572
2997.12714 0.06569
2995.84137 0.06566
2994.55560 0.06563
2993.26983 0.06557
2991.98406 0.06557
2990.69829 0.06573
2989.41252 0.06600
2988.12675 0.06615
2986.84098 0.06598
2985.55522 0.06565
2984.26945 0.06555
2982.98368 0.06597
2981.69791 0.06671
2980.41214 0.06743
2979.12637 0.06790
2977.84060 0.06814
2976.55483 0.06819
2975.26907 0.06811
2973.98330 0.06808
2972.69753 0.06835
2971.41176 0.06905
2970.12599 0.07005
2968.84022 0.07113
2967.55445 0.07215
2966.26868 0.07309
2964.98291 0.07393
2963.69715 0.07464
2962.41138 0.07530
2961.12561 0.07600
2959.83984 0.07674
2958.55407 0.07745
2957.26830 0.07811
2955.98253 0.07877
2954.69676 0.07944
2953.41100 0.07996
2952.12523 0.08023
2950.83946 0.08027
2949.55369 0.08019
2948.26792 0.08002
2946.98215 0.07968
2945.69638 0.07924
2944.41061 0.07885
2943.12484 0.07861
2941.83908 0.07852
2940.55331 0.07862
2939.26754 0.07902
2937.98177 0.07969
2936.69600 0.08039
2935.41023 0.08091
2934.12446 0.08134
2932.83869 0.08188
2931.55293 0.08251
2930.26716 0.08309
2928.98139 0.08358
2927.69562 0.08404
2926.40985 0.08447
2925.12408 0.08475
2923.83831 0.08476
2922.55254 0.08454
2921.26677 0.08420
2919.98101 0.08377
2918.69524 0.08323
2917.40947 0.08257
2916.12370 0.08190
2914.83793 0.08131
2913.55216 0.08078
2912.26639 0.08024
2910.98062 0.07970
2909.69486 0.07922
2908.40909 0.07883
2907.12332 0.07840
2905.83755 0.07786
2904.55178 0.07731
2903.26601 0.07690
2901.98024 0.07664
2900.69447 0.07635
2899.40870 0.07582
2898.12294 0.07506
2896.83717 0.07424
2895.55140 0.07347
2894.26563 0.07275
2892.97986 0.07205
2891.69409 0.07139
2890.40832 0.07083
2889.12255 0.07040
2887.83678 0.07007
2886.55102 0.06976
2885.26525 0.06940
2883.97948 0.06901
2882.69371 0.06870
2881.40794 0.06858
2880.12217 0.06862
2878.83640 0.06872
2877.55063 0.06890
2876.26487 0.06931
2874.97910 0.06993
2873.69333 0.07047
2872.40756 0.07072
2871.12179 0.07078
2869.83602 0.07096
2868.55025 0.07133
2867.26448 0.07165
2865.97871 0.07163
2864.69295 0.07123
2863.40718 0.07069
2862.12141 0.07030
2860.83564 0.07013
2859.54987 0.07001
2858.26410 0.06976
2856.97833 0.06939
2855.69256 0.06909
2854.40680 0.06898
2853.12103 0.06896
2851.83526 0.06878
2850.54949 0.06829
2849.26372 0.06761
2847.97795 0.06693
2846.69218 0.06637
2845.40641 0.06591
2844.12064 0.06548
2842.83488 0.06493
2841.54911 0.06415
2840.26334 0.06322
2838.97757 0.06234
2837.69180 0.06165
2836.40603 0.06115
2835.12026 0.06072
2833.83449 0.06031
2832.54873 0.05994
2831.26296 0.05955
2829.97719 0.05912
2828.69142 0.05867
2827.40565 0.05828
2826.11988 0.05796
2824.83411 0.05766
2823.54834 0.05737
2822.26257 0.05714
2820.97681 0.05699
2819.69104 0.05681
2818.40527 0.05652
2817.11950 0.05618
2815.83373 0.05592
2814.54796 0.05575
2813.26219 0.05554
2811.97642 0.05522
2810.69066 0.05478
2809.40489 0.05440
2808.11912 0.05423
2806.83335 0.05430
2805.54758 0.05442
2804.26181 0.05437
2802.97604 0.05414
2801.69027 0.05389
2800.40450 0.05376
2799.11874 0.05377
2797.83297 0.05388
2796.54720 0.05403
2795.26143 0.05414
2793.97566 0.05410
2792.68989 0.05392
2791.40412 0.05368
2790.11835 0.05350
2788.83259 0.05338
2787.54682 0.05321
2786.26105 0.05290
2784.97528 0.05256
2783.68951 0.05238
2782.40374 0.05237
2781.11797 0.05238
2779.83220 0.05226
2778.54643 0.05210
2777.26067 0.05202
2775.97490 0.05202
2774.68913 0.05198
2773.40336 0.05179
2772.11759 0.05149
2770.83182 0.05126
2769.54605 0.05124
2768.26028 0.05139
2766.97452 0.05152
2765.68875 0.05151
2764.40298 0.05137
2763.11721 0.05116
2761.83144 0.05091
2760.54567 0.05065
2759.25990 0.05041
2757.97413 0.05017
2756.68836 0.04989
2755.40260 0.04962
2754.11683 0.04953
2752.83106 0.04972
2751.54529 0.05008
2750.25952 0.05035
2748.97375 0.05039
2747.68798 0.05025
2746.40221 0.04995
2745.11645 0.04956
2743.83068 0.04924
2742.54491 0.04919
2741.25914 0.04941
2739.97337 0.04969
2738.68760 0.04982
2737.40183 0.04977
2736.11606 0.04965
2734.83029 0.04950
2733.54453 0.04929
2732.25876 0.04906
2730.97299 0.04888
2729.68722 0.04879
2728.40145 0.04872
2727.11568 0.04857
2725.82991 0.04830
2724.54414 0.04798
2723.25838 0.04769
2721.97261 0.04748
2720.68684 0.04740
2719.40107 0.04744
2718.11530 0.04760
2716.82953 0.04782
2715.54376 0.04805
2714.25799 0.04826
2712.97222 0.04838
2711.68646 0.04835
2710.40069 0.04810
2709.11492 0.04765
2707.82915 0.04714
2706.54338 0.04676
2705.25761 0.04660
2703.97184 0.04661
2702.68607 0.04668
2701.40031 0.04673
2700.11454 0.04672
2698.82877 0.04661
2697.54300 0.04641
2696.25723 0.04618
2694.97146 0.04608
2693.68569 0.04612
2692.39992 0.04621
2691.11415 0.04624
2689.82839 0.04619
2688.54262 0.04615
2687.25685 0.04614
2685.97108 0.04609
2684.68531 0.04591
2683.39954 0.04564
2682.11377 0.04539
2680.82800 0.04523
2679.54224 0.04518
2678.25647 0.04521
2676.97070 0.04523
2675.68493 0.04516
2674.39916 0.04503
2673.11339 0.04494
2671.82762 0.04497
2670.54185 0.04510
2669.25608 0.04524
2667.97032 0.04526
2666.68455 0.04506
2665.39878 0.04471
2664.11301 0.04443
2662.82724 0.04445
2661.54147 0.04471
2660.25570 0.04502
2658.96993 0.04525
2657.68417 0.04538
2656.39840 0.04546
2655.11263 0.04550
2653.82686 0.04550
2652.54109 0.04534
2651.25532 0.04493
2649.96955 0.04428
2648.68378 0.04362
2647.39801 0.04322
2646.11225 0.04312
2644.82648 0.04318
2643.54071 0.04328
2642.25494 0.04334
2640.96917 0.04333
2639.68340 0.04320
2638.39763 0.04298
2637.11186 0.04277
2635.82609 0.04263
2634.54033 0.04254
2633.25456 0.04244
2631.96879 0.04238
2630.68302 0.04242
2629.39725 0.04263
2628.11148 0.04290
2626.82571 0.04300
2625.53994 0.04277
2624.25418 0.04230
2622.96841 0.04177
2621.68264 0.04128
2620.39687 0.04087
2619.11110 0.04056
2617.82533 0.04035
2616.53956 0.04028
2615.25379 0.04044
2613.96802 0.04084
2612.68226 0.04126
2611.39649 0.04132
2610.11072 0.04088
2608.82495 0.04026
2607.53918 0.03992
2606.25341 0.04009
2604.96764 0.04057
2603.68187 0.04090
2602.39611 0.04075
2601.11034 0.04022
2599.82457 0.03962
2598.53880 0.03910
2597.25303 0.03860
2595.96726 0.03807
2594.68149 0.03761
2593.39572 0.03738
2592.10995 0.03742
2590.82419 0.03760
2589.53842 0.03779
2588.25265 0.03792
2586.96688 0.03800
2585.68111 0.03802
2584.39534 0.03798
2583.10957 0.03794
2581.82380 0.03793
2580.53804 0.03786
2579.25227 0.03766
2577.96650 0.03743
2576.68073 0.03737
2575.39496 0.03752
2574.10919 0.03775
2572.82342 0.03791
2571.53765 0.03794
2570.25188 0.03785
2568.96612 0.03777
2567.68035 0.03786
2566.39458 0.03803
2565.10881 0.03797
2563.82304 0.03744
2562.53727 0.03657
2561.25150 0.03584
2559.96573 0.03552
2558.67997 0.03544
2557.39420 0.03529
2556.10843 0.03504
2554.82266 0.03492
2553.53689 0.03501
2552.25112 0.03515
2550.96535 0.03519
2549.67958 0.03523
2548.39381 0.03533
2547.10805 0.03538
2545.82228 0.03525
2544.53651 0.03499
2543.25074 0.03481
2541.96497 0.03488
2540.67920 0.03515
2539.39343 0.03540
2538.10766 0.03544
2536.82190 0.03524
2535.53613 0.03492
2534.25036 0.03465
2532.96459 0.03462
2531.67882 0.03478
2530.39305 0.03487
2529.10728 0.03466
2527.82151 0.03431
2526.53574 0.03421
2525.24998 0.03457
2523.96421 0.03520
2522.67844 0.03574
2521.39267 0.03595
2520.10690 0.03583
2518.82113 0.03558
2517.53536 0.03536
2516.24959 0.03519
2514.96383 0.03492
2513.67806 0.03446
2512.39229 0.03394
2511.10652 0.03367
2509.82075 0.03383
2508.53498 0.03428
2507.24921 0.03463
2505.96344 0.03467
2504.67767 0.03444
2503.39191 0.03408
2502.10614 0.03361
2500.82037 0.03311
2499.53460 0.03284
2498.24883 0.03307
2496.96306 0.03372
2495.67729 0.03442
2494.39152 0.03486
2493.10576 0.03500
2491.81999 0.03494
2490.53422 0.03473
2489.24845 0.03440
2487.96268 0.03404
2486.67691 0.03376
2485.39114 0.03359
2484.10537 0.03353
2482.81960 0.03362
2481.53384 0.03381
2480.24807 0.03396
2478.96230 0.03392
2477.67653 0.03373
2476.39076 0.03350
2475.10499 0.03323
2473.81922 0.03294
2472.53345 0.03277
2471.24769 0.03291
2469.96192 0.03330
2468.67615 0.03363
2467.39038 0.03365
2466.10461 0.03342
2464.81884 0.03324
2463.53307 0.03328
2462.24730 0.03346
2460.96153 0.03358
2459.67577 0.03357
2458.39000 0.03354
2457.10423 0.03351
2455.81846 0.03336
2454.53269 0.03297
2453.24692 0.03253
2451.96115 0.03237
2450.67538 0.03265
2449.38962 0.03314
2448.10385 0.03348
2446.81808 0.03346
2445.53231 0.03320
2444.24654 0.03292
2442.96077 0.03276
2441.67500 0.03273
2440.38923 0.03280
2439.10346 0.03299
2437.81770 0.03325
2436.53193 0.03327
2435.24616 0.03285
2433.96039 0.03218
2432.67462 0.03184
2431.38885 0.03215
2430.10308 0.03288
2428.81731 0.03343
2427.53155 0.03344
2426.24578 0.03304
2424.96001 0.03261
2423.67424 0.03236
2422.38847 0.03221
2421.10270 0.03206
2419.81693 0.03196
2418.53116 0.03200
2417.24539 0.03214
2415.95963 0.03217
2414.67386 0.03203
2413.38809 0.03189
2412.10232 0.03193
2410.81655 0.03215
2409.53078 0.03236
2408.24501 0.03232
2406.95924 0.03192
2405.67347 0.03129
2404.38771 0.03077
2403.10194 0.03064
2401.81617 0.03090
2400.53040 0.03135
2399.24463 0.03247
2397.95886 0.03216
2396.67309 0.03185
2395.38732 0.03189
2394.10156 0.03198
2392.81579 0.03199
2391.53002 0.03186
2390.24425 0.03157
2388.95848 0.03121
2387.67271 0.03090
2386.38694 0.03074
2385.10117 0.03071
2383.81540 0.03076
2382.52964 0.03081
2381.24387 0.03083
2379.95810 0.03083
2378.67233 0.03080
2377.38656 0.03082
2376.10079 0.03097
2374.81502 0.03120
2373.52925 0.03132
2372.24349 0.03130
2370.95772 0.03132
2369.67195 0.03152
2368.38618 0.03181
2367.10041 0.03203
2365.81464 0.03223
2364.52887 0.03238
2363.24310 0.03243
2361.95733 0.03227
2360.67157 0.03182
2359.38580 0.03137
2358.10003 0.03126
2356.81426 0.03155
2355.52849 0.03205
2354.24272 0.03252
2352.95695 0.03277
2351.67118 0.03264
2350.38542 0.03236
2349.09965 0.03227
2347.81388 0.03227
2346.52811 0.03202
2345.24234 0.03177
2343.95657 0.03204
2342.67080 0.03267
2341.38503 0.03271
2340.09926 0.03222
2338.81350 0.03245
2337.52773 0.03328
2336.24196 0.03315
2334.95619 0.03233
2333.67042 0.03230
2332.38465 0.03280
2331.09888 0.03243
2329.81311 0.03223
2328.52735 0.03287
2327.24158 0.03309
2325.95581 0.03312
2324.67004 0.03366
2323.38427 0.03399
2322.09850 0.03369
2320.81273 0.03356
2319.52696 0.03329
2318.24119 0.03287
2316.95543 0.03255
2315.66966 0.03211
2314.38389 0.03177
2313.09812 0.03166
2311.81235 0.03140
2310.52658 0.03096
2309.24081 0.03032
2307.95504 0.02962
2306.66928 0.02924
2305.38351 0.02916
2304.09774 0.02926
2302.81197 0.02937
2301.52620 0.02935
2300.24043 0.02924
2298.95466 0.02906
2297.66889 0.02896
2296.38312 0.02904
2295.09736 0.02931
2293.81159 0.02965
2292.52582 0.02984
2291.24005 0.02984
2289.95428 0.02970
2288.66851 0.02952
2287.38274 0.02934
2286.09697 0.02909
2284.81121 0.02873
2283.52544 0.02843
2282.23967 0.02837
2280.95390 0.02857
2279.66813 0.02877
2278.38236 0.02859
2277.09659 0.02795
2275.81082 0.02709
2274.52505 0.02638
2273.23929 0.02606
2271.95352 0.02606
2270.66775 0.02606
2269.38198 0.02573
2268.09621 0.02507
2266.81044 0.02445
2265.52467 0.02424
2264.23890 0.02447
2262.95314 0.02469
2261.66737 0.02449
2260.38160 0.02388
2259.09583 0.02317
2257.81006 0.02258
2256.52429 0.02214
2255.23852 0.02191
2253.95275 0.02199
2252.66698 0.02233
2251.38122 0.02256
2250.09545 0.02276
2248.80968 0.02400
2247.52391 0.02401
2246.23814 0.02378
2244.95237 0.02356
2243.66660 0.02341
2242.38083 0.02321
2241.09507 0.02288
2239.80930 0.02257
2238.52353 0.02253
2237.23776 0.02287
2235.95199 0.02342
2234.66622 0.02388
2233.38045 0.02400
2232.09468 0.02382
2230.80891 0.02347
2229.52315 0.02302
2228.23738 0.02242
2226.95161 0.02164
2225.66584 0.02067
2224.38007 0.01955
2223.09430 0.01847
2221.80853 0.01785
2220.52276 0.01793
2219.23700 0.01853
2217.95123 0.01930
2216.66546 0.01999
2215.37969 0.02046
2214.09392 0.02058
2212.80815 0.02044
2211.52238 0.02037
2210.23661 0.02068
2208.95084 0.02120
2207.66508 0.02140
2206.37931 0.02085
2205.09354 0.01966
2203.80777 0.01849
2202.52200 0.01789
2201.23623 0.01795
2199.95046 0.01831
2198.66469 0.01860
2197.37893 0.01854
2196.09316 0.01802
2194.80739 0.01725
2193.52162 0.01674
2192.23585 0.01689
2190.95008 0.01753
2189.66431 0.01811
2188.37854 0.01801
2187.09277 0.01695
2185.80701 0.01513
2184.52124 0.01335
2183.23547 0.01250
2181.94970 0.01289
2180.66393 0.01405
2179.37816 0.01519
2178.09239 0.01570
2176.80662 0.01535
2175.52085 0.01444
2174.23509 0.01364
2172.94932 0.01348
2171.66355 0.01398
2170.37778 0.01480
2169.09201 0.01570
2167.80624 0.01650
2166.52047 0.01691
2165.23470 0.01656
2163.94894 0.01533
2162.66317 0.01345
2161.37740 0.01139
2160.09163 0.00964
2158.80586 0.00861
2157.52009 0.00827
2156.23432 0.00813
2154.94855 0.00765
2153.66278 0.00695
2152.37702 0.00661
2151.09125 0.00709
2149.80548 0.00827
2148.51971 0.00985
2147.23394 0.01158
2145.94817 0.01321
2144.66240 0.01433
2143.37663 0.01461
2142.09087 0.01417
2140.80510 0.01344
2139.51933 0.01288
2138.23356 0.01276
2136.94779 0.01316
2135.66202 0.01392
2134.37625 0.01471
2133.09048 0.01521
2131.80471 0.01540
2130.51895 0.01553
2129.23318 0.01581
2127.94741 0.01612
2126.66164 0.01631
2125.37587 0.01650
2124.09010 0.01687
2122.80433 0.01733
2121.51856 0.01753
2120.23280 0.01742
2118.94703 0.01739
2117.66126 0.01775
2116.37549 0.01831
2115.08972 0.01862
2113.80395 0.01851
2112.51818 0.01829
2111.23241 0.01838
2109.94664 0.01880
2108.66088 0.01922
2107.37511 0.01934
2106.08934 0.01911
2104.80357 0.01872
2103.51780 0.01838
2102.23203 0.01813
2100.94626 0.01796
2099.66049 0.01886
2098.37473 0.01938
2097.08896 0.01899
2095.80319 0.01810
2094.51742 0.01706
2093.23165 0.01633
2091.94588 0.01627
2090.66011 0.01675
2089.37434 0.01725
2088.08857 0.01732
2086.80281 0.01694
2085.51704 0.01640
2084.23127 0.01603
2082.94550 0.01604
2081.65973 0.01644
2080.37396 0.01699
2079.08819 0.01740
2077.80242 0.01756
2076.51666 0.01759
2075.23089 0.01757
2073.94512 0.01750
2072.65935 0.01736
2071.37358 0.01721
2070.08781 0.01710
2068.80204 0.01702
2067.51627 0.01685
2066.23050 0.01646
2064.94474 0.01583
2063.65897 0.01509
2062.37320 0.01441
2061.08743 0.01388
2059.80166 0.01354
2058.51589 0.01348
2057.23012 0.01368
2055.94435 0.01392
2054.65859 0.01389
2053.37282 0.01358
2052.08705 0.01335
2050.80128 0.01351
2049.51551 0.01397
2048.22974 0.01430
2046.94397 0.01414
2045.65820 0.01339
2044.37243 0.01215
2043.08667 0.01072
2041.80090 0.00960
2040.51513 0.00934
2039.22936 0.01018
2037.94359 0.01177
2036.65782 0.01330
2035.37205 0.01411
2034.08628 0.01406
2032.80052 0.01351
2031.51475 0.01274
2030.22898 0.01173
2028.94321 0.01054
2027.65744 0.00961
2026.37167 0.00934
2025.08590 0.00963
2023.80013 0.01006
2022.51436 0.01029
2021.22860 0.01031
2019.94283 0.01013
2018.65706 0.00986
2017.37129 0.00978
2016.08552 0.01020
2014.79975 0.01106
2013.51398 0.01194
2012.22821 0.01247
2010.94245 0.01266
2009.65668 0.01276
2008.37091 0.01294
2007.08514 0.01305
2005.79937 0.01282
2004.51360 0.01217
2003.22783 0.01133
2001.94206 0.01065
2000.65629 0.01034
1999.37053 0.01034
1998.08476 0.01047
1996.79899 0.01058
1995.51322 0.01073
1994.22745 0.01108
1992.94168 0.01167
1991.65591 0.01227
1990.37014 0.01248
1989.08438 0.01222
1987.79861 0.01189
1986.51284 0.01203
1985.22707 0.01283
1983.94130 0.01402
1982.65553 0.01517
1981.36976 0.01615
1980.08399 0.01705
1978.79822 0.01778
1977.51246 0.01790
1976.22669 0.01705
1974.94092 0.01561
1973.65515 0.01449
1972.36938 0.01434
1971.08361 0.01510
1969.79784 0.01617
1968.51207 0.01688
1967.22631 0.01686
1965.94054 0.01626
1964.65477 0.01563
1963.36900 0.01535
1962.08323 0.01529
1960.79746 0.01508
1959.51169 0.01465
1958.22592 0.01422
1956.94015 0.01384
1955.65439 0.01332
1954.36862 0.01265
1953.08285 0.01217
1951.79708 0.01224
1950.51131 0.01291
1949.22554 0.01390
1947.93977 0.01485
1946.65400 0.01549
1945.36823 0.01573
1944.08247 0.01566
1942.79670 0.01551
1941.51093 0.01551
1940.22516 0.01576
1938.93939 0.01618
1937.65362 0.01659
1936.36785 0.01689
1935.08208 0.01707
1933.79632 0.01718
1932.51055 0.01719
1931.22478 0.01711
1929.93901 0.01705
1928.65324 0.01718
1927.36747 0.01750
1926.08170 0.01779
1924.79593 0.01784
1923.51016 0.01779
1922.22440 0.01796
1920.93863 0.01848
1919.65286 0.01907
1918.36709 0.01942
1917.08132 0.01937
1915.79555 0.01899
1914.50978 0.01850
1913.22401 0.01819
1911.93825 0.01815
1910.65248 0.01819
1909.36671 0.01801
1908.08094 0.01751
1906.79517 0.01688
1905.50940 0.01643
1904.22363 0.01636
1902.93786 0.01666
1901.65209 0.01713
1900.36633 0.01756
1899.08056 0.01783
1897.79479 0.01794
1896.50902 0.01797
1895.22325 0.01802
1893.93748 0.01816
1892.65171 0.01832
1891.36594 0.01839
1890.08018 0.01827
1888.79441 0.01799
1887.50864 0.01768
1886.22287 0.01748
1884.93710 0.01749
1883.65133 0.01766
1882.36556 0.01785
1881.07979 0.01796
1879.79402 0.01796
1878.50826 0.01785
1877.22249 0.01763
1875.93672 0.01740
1874.65095 0.01728
1873.36518 0.01736
1872.07941 0.01756
1870.79364 0.01770
1869.50787 0.01769
1868.22211 0.01757
1866.93634 0.01748
1865.65057 0.01749
1864.36480 0.01752
1863.07903 0.01750
1861.79326 0.01744
1860.50749 0.01743
1859.22172 0.01752
1857.93595 0.01758
1856.65019 0.01753
1855.36442 0.01739
1854.07865 0.01731
1852.79288 0.01741
1851.50711 0.01765
1850.22134 0.01786
1848.93557 0.01793
1847.64980 0.01786
1846.36404 0.01775
1845.07827 0.01771
1843.79250 0.01778
1842.50673 0.01785
1841.22096 0.01781
1839.93519 0.01771
1838.64942 0.01768
1837.36365 0.01774
1836.07788 0.01780
1834.79212 0.01780
1833.50635 0.01780
1832.22058 0.01789
1830.93481 0.01807
1829.64904 0.01828
1828.36327 0.01843
1827.07750 0.01848
1825.79173 0.01853
1824.50597 0.01874
1823.22020 0.01905
1821.93443 0.01927
1820.64866 0.01925
1819.36289 0.01899
1818.07712 0.01861
1816.79135 0.01826
1815.50558 0.01797
1814.21981 0.01774
1812.93405 0.01757
1811.64828 0.01750
1810.36251 0.01751
1809.07674 0.01755
1807.79097 0.01755
1806.50520 0.01756
1805.21943 0.01765
1803.93366 0.01785
1802.64790 0.01810
1801.36213 0.01832
1800.07636 0.01850
1798.79059 0.01861
1797.50482 0.01863
1796.21905 0.01859
1794.93328 0.01851
1793.64751 0.01842
1792.36174 0.01839
1791.07598 0.01849
1789.79021 0.01863
1788.50444 0.01869
1787.21867 0.01863
1785.93290 0.01851
1784.64713 0.01844
1783.36136 0.01844
1782.07559 0.01850
1780.78983 0.01856
1779.50406 0.01862
1778.21829 0.01863
1776.93252 0.01861
1775.64675 0.01856
1774.36098 0.01847
1773.07521 0.01838
1771.78944 0.01838
1770.50367 0.01845
1769.21791 0.01848
1767.93214 0.01844
1766.64637 0.01844
1765.36060 0.01849
1764.07483 0.01858
1762.78906 0.01869
1761.50329 0.01884
1760.21752 0.01896
1758.93176 0.01894
1757.64599 0.01879
1756.36022 0.01864
1755.07445 0.01858
1753.78868 0.01854
1752.50291 0.01849
1751.21714 0.01846
1749.93137 0.01850
1748.64560 0.01853
1747.35984 0.01851
1746.07407 0.01847
1744.78830 0.01846
1743.50253 0.01849
1742.21676 0.01850
1740.93099 0.01848
1739.64522 0.01854
1738.35945 0.01874
1737.07369 0.01898
1735.78792 0.01908
1734.50215 0.01910
1733.21638 0.01918
1731.93061 0.01925
1730.64484 0.01919
1729.35907 0.01904
1728.07330 0.01895
1726.78753 0.01896
1725.50177 0.01903
1724.21600 0.01919
1722.93023 0.01951
1721.64446 0.01999
1720.35869 0.02046
1719.07292 0.02078
1717.78715 0.02100
1716.50138 0.02123
1715.21561 0.02149
1713.92985 0.02176
1712.64408 0.02212
1711.35831 0.02263
1710.07254 0.02331
1708.78677 0.02412
1707.50100 0.02502
1706.21523 0.02601
1704.92946 0.02712
1703.64370 0.02827
1702.35793 0.02927
1701.07216 0.03021
1699.78639 0.03138
1698.50062 0.03273
1697.21485 0.03400
1695.92908 0.03519
1694.64331 0.03650
1693.35754 0.03781
1692.07178 0.03895
1690.78601 0.04005
1689.50024 0.04135
1688.21447 0.04282
1686.92870 0.04421
1685.64293 0.04541
1684.35716 0.04660
1683.07139 0.04790
1681.78563 0.04918
1680.49986 0.05036
1679.21409 0.05154
1677.92832 0.05277
1676.64255 0.05400
1675.35678 0.05528
1674.07101 0.05668
1672.78524 0.05807
1671.49947 0.05931
1670.21371 0.06042
1668.92794 0.06155
1667.64217 0.06277
1666.35640 0.06405
1665.07063 0.06529
1663.78486 0.06649
1662.49909 0.06765
1661.21332 0.06876
1659.92756 0.06980
1658.64179 0.07085
1657.35602 0.07203
1656.07025 0.07322
1654.78448 0.07425
1653.49871 0.07515
1652.21294 0.07605
1650.92717 0.07684
1649.64140 0.07725
1648.35564 0.07733
1647.06987 0.07742
1645.78410 0.07767
1644.49833 0.07796
1643.21256 0.07807
1641.92679 0.07796
1640.64102 0.07772
1639.35525 0.07746
1638.06949 0.07711
1636.78372 0.07664
1635.49795 0.07610
1634.21218 0.07548
1632.92641 0.07471
1631.64064 0.07373
1630.35487 0.07267
1629.06910 0.07165
1627.78333 0.07069
1626.49757 0.06968
1625.21180 0.06854
1623.92603 0.06729
1622.64026 0.06605
1621.35449 0.06494
1620.06872 0.06390
1618.78295 0.06282
1617.49718 0.06169
1616.21142 0.06066
1614.92565 0.05972
1613.63988 0.05878
1612.35411 0.05778
1611.06834 0.05682
1609.78257 0.05597
1608.49680 0.05522
1607.21103 0.05457
1605.92526 0.05401
1604.63950 0.05356
1603.35373 0.05320
1602.06796 0.05292
1600.78219 0.05272
1599.49642 0.05256
1598.21065 0.05245
1596.92488 0.05240
1595.63911 0.05242
1594.35335 0.05252
1593.06758 0.05265
1591.78181 0.05274
1590.49604 0.05282
1589.21027 0.05294
1587.92450 0.05316
1586.63873 0.05345
1585.35296 0.05376
1584.06719 0.05410
1582.78143 0.05451
1581.49566 0.05507
1580.20989 0.05578
1578.92412 0.05651
1577.63835 0.05713
1576.35258 0.05770
1575.06681 0.05836
1573.78104 0.05909
1572.49528 0.05973
1571.20951 0.06028
1569.92374 0.06083
1568.63797 0.06142
1567.35220 0.06201
1566.06643 0.06258
1564.78066 0.06321
1563.49489 0.06396
1562.20912 0.06467
1560.92336 0.06520
1559.63759 0.06563
1558.35182 0.06616
1557.06605 0.06673
1555.78028 0.06716
1554.49451 0.06745
1553.20874 0.06771
1551.92297 0.06795
1550.63721 0.06809
1549.35144 0.06820
1548.06567 0.06837
1546.77990 0.06858
1545.49413 0.06881
1544.20836 0.06909
1542.92259 0.06933
1541.63682 0.06942
1540.35105 0.06932
1539.06529 0.06918
1537.77952 0.06906
1536.49375 0.06885
1535.20798 0.06856
1533.92221 0.06838
1532.63644 0.06846
1531.35067 0.06872
1530.06490 0.06901
1528.77914 0.06927
1527.49337 0.06955
1526.20760 0.06993
1524.92183 0.07039
1523.63606 0.07082
1522.35029 0.07119
1521.06452 0.07160
1519.77875 0.07210
1518.49298 0.07260
1517.20722 0.07307
1515.92145 0.07361
1514.63568 0.07426
1513.34991 0.07500
1512.06414 0.07587
1510.77837 0.07687
1509.49260 0.07789
1508.20683 0.07878
1506.92107 0.07956
1505.63530 0.08033
1504.34953 0.08107
1503.06376 0.08170
1501.77799 0.08223
1500.49222 0.08276
1499.20645 0.08329
1497.92068 0.08370
1496.63491 0.08403
1495.34915 0.08436
1494.06338 0.08474
1492.77761 0.08511
1491.49184 0.08552
1490.20607 0.08605
1488.92030 0.08671
1487.63453 0.08745
1486.34876 0.08820
1485.06299 0.08900
1483.77723 0.08988
1482.49146 0.09087
1481.20569 0.09199
1479.91992 0.09321
1478.63415 0.09451
1477.34838 0.09587
1476.06261 0.09724
1474.77684 0.09851
1473.49108 0.09961
1472.20531 0.10057
1470.91954 0.10145
1469.63377 0.10223
1468.34800 0.10286
1467.06223 0.10337
1465.77646 0.10382
1464.49069 0.10429
1463.20492 0.10486
1461.91916 0.10553
1460.63339 0.10629
1459.34762 0.10707
1458.06185 0.10785
1456.77608 0.10870
1455.49031 0.10958
1454.20454 0.11033
1452.91877 0.11086
1451.63301 0.11125
1450.34724 0.11162
1449.06147 0.11196
1447.77570 0.11226
1446.48993 0.11246
1445.20416 0.11253
1443.91839 0.11246
1442.63262 0.11227
1441.34685 0.11202
1440.06109 0.11171
1438.77532 0.11133
1437.48955 0.11094
1436.20378 0.11069
1434.91801 0.11064
1433.63224 0.11071
1432.34647 0.11090
1431.06070 0.11128
1429.77494 0.11193
1428.48917 0.11285
1427.20340 0.11397
1425.91763 0.11522
1424.63186 0.11659
1423.34609 0.11806
1422.06032 0.11951
1420.77455 0.12083
1419.48878 0.12207
1418.20302 0.12326
1416.91725 0.12438
1415.63148 0.12535
1414.34571 0.12614
1413.05994 0.12675
1411.77417 0.12717
1410.48840 0.12739
1409.20263 0.12743
1407.91687 0.12727
1406.63110 0.12687
1405.34533 0.12620
1404.05956 0.12527
1402.77379 0.12410
1401.48802 0.12273
1400.20225 0.12122
1398.91648 0.11964
1397.63071 0.11800
1396.34495 0.11623
1395.05918 0.11431
1393.77341 0.11229
1392.48764 0.11022
1391.20187 0.10812
1389.91610 0.10602
1388.63033 0.10396
1387.34456 0.10198
1386.05880 0.10003
1384.77303 0.09803
1383.48726 0.09591
1382.20149 0.09373
1380.91572 0.09156
1379.62995 0.08943
1378.34418 0.08732
1377.05841 0.08518
1375.77264 0.08295
1374.48688 0.08059
1373.20111 0.07815
1371.91534 0.07569
1370.62957 0.07326
1369.34380 0.07093
1368.05803 0.06875
1366.77226 0.06673
1365.48649 0.06485
1364.20073 0.06307
1362.91496 0.06137
1361.62919 0.05974
1360.34342 0.05817
1359.05765 0.05668
1357.77188 0.05532
1356.48611 0.05411
1355.20034 0.05303
1353.91457 0.05208
1352.62881 0.05126
1351.34304 0.05055
1350.05727 0.04990
1348.77150 0.04928
1347.48573 0.04866
1346.19996 0.04805
1344.91419 0.04750
1343.62842 0.04700
1342.34266 0.04653
1341.05689 0.04604
1339.77112 0.04552
1338.48535 0.04503
1337.19958 0.04456
1335.91381 0.04410
1334.62804 0.04365
1333.34227 0.04320
1332.05650 0.04279
1330.77074 0.04241
1329.48497 0.04202
1328.19920 0.04158
1326.91343 0.04110
1325.62766 0.04059
1324.34189 0.04011
1323.05612 0.03968
1321.77035 0.03932
1320.48459 0.03899
1319.19882 0.03866
1317.91305 0.03832
1316.62728 0.03797
1315.34151 0.03763
1314.05574 0.03728
1312.76997 0.03692
1311.48420 0.03656
1310.19843 0.03623
1308.91267 0.03591
1307.62690 0.03558
1306.34113 0.03521
1305.05536 0.03485
1303.76959 0.03453
1302.48382 0.03424
1301.19805 0.03399
1299.91228 0.03372
1298.62652 0.03344
1297.34075 0.03312
1296.05498 0.03280
1294.76921 0.03251
1293.48344 0.03226
1292.19767 0.03210
1290.91190 0.03200
1289.62613 0.03194
1288.34036 0.03189
1287.05460 0.03182
1285.76883 0.03173
1284.48306 0.03161
1283.19729 0.03150
1281.91152 0.03142
1280.62575 0.03136
1279.33998 0.03129
1278.05421 0.03118
1276.76845 0.03101
1275.48268 0.03082
1274.19691 0.03065
1272.91114 0.03050
1271.62537 0.03038
1270.33960 0.03027
1269.05383 0.03018
1267.76806 0.03013
1266.48229 0.03013
1265.19653 0.03015
1263.91076 0.03016
1262.62499 0.03014
1261.33922 0.03009
1260.05345 0.03003
1258.76768 0.03000
1257.48191 0.03000
1256.19614 0.03001
1254.91037 0.03002
1253.62461 0.02998
1252.33884 0.02992
1251.05307 0.02986
1249.76730 0.02984
1248.48153 0.02986
1247.19576 0.02989
1245.90999 0.02991
1244.62422 0.02990
1243.33846 0.02985
1242.05269 0.02975
1240.76692 0.02963
1239.48115 0.02950
1238.19538 0.02941
1236.90961 0.02934
1235.62384 0.02927
1234.33807 0.02916
1233.05230 0.02901
1231.76654 0.02883
1230.48077 0.02860
1229.19500 0.02831
1227.90923 0.02798
1226.62346 0.02765
1225.33769 0.02735
1224.05192 0.02707
1222.76615 0.02678
1221.48039 0.02645
1220.19462 0.02607
1218.90885 0.02567
1217.62308 0.02530
1216.33731 0.02497
1215.05154 0.02467
1213.76577 0.02441
1212.48000 0.02423
1211.19423 0.02414
1209.90847 0.02413
1208.62270 0.02417
1207.33693 0.02423
1206.05116 0.02430
1204.76539 0.02435
1203.47962 0.02436
1202.19385 0.02425
1200.90808 0.02397
1199.62232 0.02379
1198.33655 0.02364
1197.05078 0.02344
1195.76501 0.02320
1194.47924 0.02292
1193.19347 0.02265
1191.90770 0.02239
1190.62193 0.02216
1189.33616 0.02197
1188.05040 0.02181
1186.76463 0.02169
1185.47886 0.02157
1184.19309 0.02141
1182.90732 0.02125
1181.62155 0.02113
1180.33578 0.02107
1179.05001 0.02105
1177.76425 0.02102
1176.47848 0.02099
1175.19271 0.02099
1173.90694 0.02103
1172.62117 0.02113
1171.33540 0.02125
1170.04963 0.02137
1168.76386 0.02147
1167.47809 0.02158
1166.19233 0.02169
1164.90656 0.02177
1163.62079 0.02179
1162.33502 0.02177
1161.04925 0.02173
1159.76348 0.02169
1158.47771 0.02170
1157.19194 0.02183
1155.90618 0.02206
1154.62041 0.02232
1153.33464 0.02255
1152.04887 0.02272
1150.76310 0.02285
1149.47733 0.02299
1148.19156 0.02319
1146.90579 0.02350
1145.62002 0.02394
1144.33426 0.02448
1143.04849 0.02508
1141.76272 0.02574
1140.47695 0.02649
1139.19118 0.02738
1137.90541 0.02841
1136.61964 0.02959
1135.33387 0.03092
1134.04811 0.03234
1132.76234 0.03384
1131.47657 0.03548
1130.19080 0.03737
1128.90503 0.03955
1127.61926 0.04202
1126.33349 0.04469
1125.04772 0.04748
1123.76195 0.05039
1122.47619 0.05342
1121.19042 0.05657
1119.90465 0.05979
1118.61888 0.06306
1117.33311 0.06639
1116.04734 0.06978
1114.76157 0.07319
1113.47580 0.07654
1112.19004 0.07980
1110.90427 0.08297
1109.61850 0.08605
1108.33273 0.08909
1107.04696 0.09211
1105.76119 0.09512
1104.47542 0.09811
1103.18965 0.10101
1101.90388 0.10372
1100.61812 0.10624
1099.33235 0.10862
1098.04658 0.11096
1096.76081 0.11331
1095.47504 0.11563
1094.18927 0.11784
1092.90350 0.11990
1091.61773 0.12182
1090.33197 0.12364
1089.04620 0.12540
1087.76043 0.12712
1086.47466 0.12878
1085.18889 0.13042
1083.90312 0.13208
1082.61735 0.13381
1081.33158 0.13565
1080.04581 0.13762
1078.76005 0.13974
1077.47428 0.14205
1076.18851 0.14452
1074.90274 0.14708
1073.61697 0.14970
1072.33120 0.15241
1071.04543 0.15526
1069.75966 0.15824
1068.47390 0.16132
1067.18813 0.16445
1065.90236 0.16758
1064.61659 0.17068
1063.33082 0.17378
1062.04505 0.17697
1060.75928 0.18027
1059.47351 0.18365
1058.18774 0.18698
1056.90198 0.19013
1055.61621 0.19307
1054.33044 0.19588
1053.04467 0.19872
1051.75890 0.20173
1050.47313 0.20494
1049.18736 0.20827
1047.90159 0.21159
1046.61583 0.21486
1045.33006 0.21816
1044.04429 0.22155
1042.75852 0.22503
1041.47275 0.22857
1040.18698 0.23214
1038.90121 0.23578
1037.61544 0.23947
1036.32967 0.24319
1035.04391 0.24690
1033.75814 0.25053
1032.47237 0.25404
1031.18660 0.25734
1029.90083 0.26040
1028.61506 0.26315
1027.32929 0.26561
1026.04352 0.26782
1024.75775 0.26987
1023.47199 0.27173
1022.18622 0.27333
1020.90045 0.27462
1019.61468 0.27559
1018.32891 0.27622
1017.04314 0.27649
1015.75737 0.27637
1014.47160 0.27586
1013.18584 0.27498
1011.90007 0.27373
1010.61430 0.27212
1009.32853 0.27011
1008.04276 0.26766
1006.75699 0.26475
1005.47122 0.26143
1004.18545 0.25771
1002.89968 0.25355
1001.61392 0.24891
1000.32815 0.24381
999.04238 0.23832
997.75661 0.23252
996.47084 0.22642
995.18507 0.22007
993.89930 0.21355
992.61353 0.20691
991.32777 0.20017
990.04200 0.19337
988.75623 0.18658
987.47046 0.17992
986.18469 0.17346
984.89892 0.16723
983.61315 0.16121
982.32738 0.15541
981.04161 0.14983
979.75585 0.14449
978.47008 0.13948
977.18431 0.13484
975.89854 0.13062
974.61277 0.12683
973.32700 0.12355
972.04123 0.12089
970.75546 0.11893
969.46970 0.11772
968.18393 0.11725
966.89816 0.11743
965.61239 0.11809
964.32662 0.11899
963.04085 0.11992
961.75508 0.12065
960.46931 0.12090
959.18354 0.12044
957.89778 0.11916
956.61201 0.11718
955.32624 0.11475
954.04047 0.11210
952.75470 0.10933
951.46893 0.10650
950.18316 0.10361
948.89739 0.10069
947.61163 0.09780
946.32586 0.09503
945.04009 0.09241
943.75432 0.08991
942.46855 0.08748
941.18278 0.08512
939.89701 0.08283
938.61124 0.08065
937.32547 0.07856
936.03971 0.07659
934.75394 0.07476
933.46817 0.07310
932.18240 0.07160
930.89663 0.07019
929.61086 0.06885
928.32509 0.06757
927.03932 0.06637
925.75356 0.06528
924.46779 0.06427
923.18202 0.06330
921.89625 0.06235
920.61048 0.06140
919.32471 0.06045
918.03894 0.05948
916.75317 0.05853
915.46740 0.05768
914.18164 0.05698
912.89587 0.05642
911.61010 0.05589
910.32433 0.05528
909.03856 0.05461
907.75279 0.05395
906.46702 0.05338
905.18125 0.05288
903.89549 0.05242
902.60972 0.05195
901.32395 0.05143
900.03818 0.05089
898.75241 0.05034
897.46664 0.04979
896.18087 0.04927
894.89510 0.04882
893.60933 0.04849
892.32357 0.04832
891.03780 0.04834
889.75203 0.04854
888.46626 0.04892
887.18049 0.04954
885.89472 0.05058
884.60895 0.05232
883.32318 0.05497
882.03742 0.05842
880.75165 0.06208
879.46588 0.06525
878.18011 0.06756
876.89434 0.06924
875.60857 0.07084
874.32280 0.07263
873.03703 0.07439
871.75126 0.07559
870.46550 0.07587
869.17973 0.07520
867.89396 0.07373
866.60819 0.07161
865.32242 0.06896
864.03665 0.06596
862.75088 0.06286
861.46511 0.05997
860.17935 0.05750
858.89358 0.05552
857.60781 0.05393
856.32204 0.05257
855.03627 0.05130
853.75050 0.05016
852.46473 0.04920
851.17896 0.04848
849.89319 0.04799
848.60743 0.04760
847.32166 0.04720
846.03589 0.04676
844.75012 0.04629
843.46435 0.04580
842.17858 0.04531
840.89281 0.04487
839.60704 0.04453
838.32128 0.04428
837.03551 0.04404
835.74974 0.04372
834.46397 0.04330
833.17820 0.04286
831.89243 0.04247
830.60666 0.04216
829.32089 0.04193
828.03512 0.04179
826.74936 0.04172
825.46359 0.04169
824.17782 0.04166
822.89205 0.04158
821.60628 0.04144
820.32051 0.04126
819.03474 0.04108
817.74897 0.04092
816.46321 0.04077
815.17744 0.04062
813.89167 0.04048
812.60590 0.04037
811.32013 0.04027
810.03436 0.04015
808.74859 0.04002
807.46282 0.03992
806.17705 0.03985
804.89129 0.03980
803.60552 0.03976
802.31975 0.03973
801.03398 0.03972
799.74821 0.03971
798.46244 0.03966
797.17667 0.03960
795.89090 0.03954
794.60513 0.03948
793.31937 0.03940
792.03360 0.03934
790.74783 0.03931
789.46206 0.03932
788.17629 0.03934
786.89052 0.03936
785.60475 0.03937
784.31898 0.03935
783.03322 0.03926
781.74745 0.03911
780.46168 0.03896
779.17591 0.03889
777.89014 0.03891
776.60437 0.03895
775.31860 0.03896
774.03283 0.03892
772.74706 0.03887
771.46130 0.03883
770.17553 0.03883
768.88976 0.03888
767.60399 0.03896
766.31822 0.03905
765.03245 0.03915
763.74668 0.03929
762.46091 0.03943
761.17515 0.03952
759.88938 0.03952
758.60361 0.03947
757.31784 0.03945
756.03207 0.03949
754.74630 0.03960
753.46053 0.03977
752.17476 0.03993
750.88899 0.03998
749.60323 0.03991
748.31746 0.03980
747.03169 0.03977
745.74592 0.03979
744.46015 0.03980
743.17438 0.03974
741.88861 0.03960
740.60284 0.03943
739.31708 0.03931
738.03131 0.03924
736.74554 0.03915
735.45977 0.03901
734.17400 0.03887
732.88823 0.03884
731.60246 0.03893
730.31669 0.03911
729.03092 0.03931
727.74516 0.03949
726.45939 0.03957
725.17362 0.03953
723.88785 0.03966
722.60208 0.03958
721.31631 0.03971
720.03054 0.03997
718.74477 0.04013
717.45901 0.04014
716.17324 0.04004
714.88747 0.03991
713.60170 0.03979
712.31593 0.03970
711.03016 0.03964
709.74439 0.03960
708.45862 0.03957
707.17285 0.03955
705.88709 0.03957
704.60132 0.03966
703.31555 0.03978
702.02978 0.03985
700.74401 0.03981
699.45824 0.03969
698.17247 0.03957
696.88670 0.03950
695.60094 0.03953
694.31517 0.03962
693.02940 0.03975
691.74363 0.03987
690.45786 0.03994
689.17209 0.03993
687.88632 0.03986
686.60055 0.03977
685.31478 0.03967
684.02902 0.03954
682.74325 0.03938
681.45748 0.03919
680.17171 0.03902
678.88594 0.03890
677.60017 0.03882
676.31440 0.03878
675.02863 0.03880
673.74287 0.03892
672.45710 0.03910
671.17133 0.03931
669.88556 0.03949
668.59979 0.03963
667.31402 0.03970
666.02825 0.03962
664.74248 0.03943
663.45671 0.03918
662.17095 0.03894
660.88518 0.03876
659.59941 0.03863
658.31364 0.03852
657.02787 0.03839
655.74210 0.03823
654.45633 0.03804
653.17056 0.03783
651.88480 0.03762
650.59903 0.03744
649.31326 0.03732
648.02749 0.03726
646.74172 0.03722
645.45595 0.03718
644.17018 0.03715
642.88441 0.03714
641.59864 0.03711
640.31288 0.03708
639.02711 0.03708
637.74134 0.03714
636.45557 0.03725
635.16980 0.03743
633.88403 0.03770
632.59826 0.03796
631.31249 0.03780
630.02673 0.03763
628.74096 0.03956
627.45519 0.04094
626.16942 0.04414
624.88365 0.04852
623.59788 0.05271
622.31211 0.05607
621.02634 0.05834
619.74057 0.05949
618.45481 0.05989
617.16904 0.06012
615.88327 0.06097
614.59750 0.06343
613.31173 0.06823
612.02596 0.07518
610.74019 0.08298
609.45442 0.09026
608.16866 0.09664
606.88289 0.10254
605.59712 0.10798
604.31135 0.11225
603.02558 0.11454
601.73981 0.11471
600.45404 0.11336
599.16827 0.11126
597.88250 0.10878
596.59674 0.10596
595.31097 0.10283
594.02520 0.09960
592.73943 0.09667
591.45366 0.09439
590.16789 0.09288
588.88212 0.09210
587.59635 0.09193
586.31059 0.09235
585.02482 0.09342
583.73905 0.09516
582.45328 0.09746
581.16751 0.10014
579.88174 0.10297
578.59597 0.10576
577.31020 0.10843
576.02443 0.11100
574.73867 0.11349
573.45290 0.11598
572.16713 0.11857
570.88136 0.12146
569.59559 0.12482
568.30982 0.12868
567.02405 0.13286
565.73828 0.13709
564.45251 0.14105
563.16675 0.14437
561.88098 0.14662
560.59521 0.14741
559.30944 0.14645
558.02367 0.14368
556.73790 0.13928
555.45213 0.13370
554.16636 0.12751
552.88060 0.12119
551.59483 0.11504
550.30906 0.10914
549.02329 0.10354
547.73752 0.09835
546.45175 0.09369
545.16598 0.08963
543.88021 0.08612
542.59444 0.08306
541.30868 0.08034
540.02291 0.07782
538.73714 0.07539
537.45137 0.07306
536.16560 0.07090
534.87983 0.06897
533.59406 0.06726
532.30829 0.06568
531.02253 0.06413
529.73676 0.06255
528.45099 0.06090
527.16522 0.05926
525.87945 0.05773
524.59368 0.05643
523.30791 0.05541
522.02214 0.05458
520.73637 0.05374
519.45061 0.05275
518.16484 0.05159
516.87907 0.05039
515.59330 0.04927
514.30753 0.04830
513.02176 0.04748
511.73599 0.04679
510.45022 0.04622
509.16446 0.04572
507.87869 0.04521
506.59292 0.04459
505.30715 0.04387
504.02138 0.04311
502.73561 0.04242
501.44984 0.04184
500.16407 0.04134
498.87830 0.04085
497.59254 0.04030
496.30677 0.03969
495.02100 0.03909
493.73523 0.03860
492.44946 0.03826
491.16369 0.03803
489.87792 0.03780
488.59215 0.03753
487.30639 0.03723
486.02062 0.03701
484.73485 0.03688
483.44908 0.03679
482.16331 0.03666
480.87754 0.03649
479.59177 0.03635
478.30600 0.03634
477.02023 0.03648
475.73447 0.03671
474.44870 0.03693
473.16293 0.03709
471.87716 0.03719
470.59139 0.03723
469.30562 0.03716
468.01985 0.03696
466.73408 0.03664
465.44832 0.03625
464.16255 0.03580
462.87678 0.03531
461.59101 0.03481
460.30524 0.03434
459.01947 0.03393
457.73370 0.03358
456.44793 0.03322
455.16216 0.03278
453.87640 0.03221
452.59063 0.03161
451.30486 0.03110
450.01909 0.03074
448.73332 0.03048
447.44755 0.03026
446.16178 0.03003
444.87601 0.02976
443.59025 0.02948
442.30448 0.02920
441.01871 0.02897
439.73294 0.02879
438.44717 0.02865
437.16140 0.02851
435.87563 0.02836
434.58986 0.02824
433.30409 0.02815
432.01833 0.02804
430.73256 0.02784
429.44679 0.02756
428.16102 0.02724
426.87525 0.02693
425.58948 0.02665
424.30371 0.02640
423.01794 0.02622
421.73218 0.02608
420.44641 0.02596
419.16064 0.02585
417.87487 0.02571
416.58910 0.02553
415.30333 0.02527
414.01756 0.02497
412.73179 0.02469
411.44602 0.02450
410.16026 0.02440
408.87449 0.02437
407.58872 0.02438
406.30295 0.02440
405.01718 0.02444
403.73141 0.02449
402.44564 0.02454
401.15987 0.02458
399.87411 0.02461
