3997.45528 0.02514
3996.16951 0.02518
3994.88374 0.02556
3993.59798 0.02623
3992.31221 0.02677
3991.02644 0.02695
3989.74067 0.02692
3988.45490 0.02712
3987.16913 0.02776
3985.88336 0.02854
3984.59759 0.02899
3983.31183 0.02901
3982.02606 0.02897
3980.74029 0.02923
3979.45452 0.02974
3978.16875 0.03011
3976.88298 0.03012
3975.59721 0.02996
3974.31144 0.03001
3973.02567 0.03041
3971.73991 0.03090
3970.45414 0.03104
3969.16837 0.03049
3967.88260 0.02930
3966.59683 0.02789
3965.31106 0.02688
3964.02529 0.02664
3962.73952 0.02698
3961.45376 0.02734
3960.16799 0.02737
3958.88222 0.02721
3957.59645 0.02718
3956.31068 0.02730
3955.02491 0.02734
3953.73914 0.02717
3952.45337 0.02701
3951.16760 0.02722
3949.88184 0.02789
3948.59607 0.02870
3947.31030 0.02921
3946.02453 0.02933
3944.73876 0.02940
3943.45299 0.02974
3942.16722 0.03011
3940.88145 0.02995
3939.59569 0.02916
3938.30992 0.02833
3937.02415 0.02814
3935.73838 0.02867
3934.45261 0.02953
3933.16684 0.03026
3931.88107 0.03051
3930.59530 0.02992
3929.30953 0.02851
3928.02377 0.02684
3926.73800 0.02564
3925.45223 0.02515
3924.16646 0.02503
3922.88069 0.02497
3921.59492 0.02499
3920.30915 0.02521
3919.02338 0.02558
3917.73762 0.02584
3916.45185 0.02578
3915.16608 0.02539
3913.88031 0.02498
3912.59454 0.02488
3911.30877 0.02518
3910.02300 0.02575
3908.73723 0.02652
3907.45146 0.02748
3906.16570 0.02838
3904.87993 0.02876
3903.59416 0.02827
3902.30839 0.02726
3901.02262 0.02658
3899.73685 0.02696
3898.45108 0.02828
3897.16531 0.02975
3895.87955 0.03064
3894.59378 0.03073
3893.30801 0.03025
3892.02224 0.02958
3890.73647 0.02914
3889.45070 0.02919
3888.16493 0.02957
3886.87916 0.02977
3885.59339 0.02947
3884.30763 0.02880
3883.02186 0.02810
3881.73609 0.02759
3880.45032 0.02726
3879.16455 0.02702
3877.87878 0.02683
3876.59301 0.02673
3875.30724 0.02669
3874.02148 0.02654
3872.73571 0.02625
3871.44994 0.02603
3870.16417 0.02618
3868.87840 0.02667
3867.59263 0.02723
3866.30686 0.02747
3865.02109 0.02721
3863.73532 0.02646
3862.44956 0.02558
3861.16379 0.02502
3859.87802 0.02504
3858.59225 0.02551
3857.30648 0.02612
3856.02071 0.02670
3854.73494 0.02712
3853.44917 0.02721
3852.16341 0.02690
3850.87764 0.02646
3849.59187 0.02630
3848.30610 0.02653
3847.02033 0.02680
3845.73456 0.02678
3844.44879 0.02654
3843.16302 0.02644
3841.87725 0.02657
3840.59149 0.02660
3839.30572 0.02620
3838.01995 0.02547
3836.73418 0.02492
3835.44841 0.02496
3834.16264 0.02550
3832.87687 0.02613
3831.59110 0.02655
3830.30534 0.02668
3829.01957 0.02653
3827.73380 0.02611
3826.44803 0.02556
3825.16226 0.02506
3823.87649 0.02467
3822.59072 0.02434
3821.30495 0.02399
3820.01918 0.02369
3818.73342 0.02364
3817.44765 0.02395
3816.16188 0.02446
3814.87611 0.02490
3813.59034 0.02520
3812.30457 0.02569
3811.01880 0.02654
3809.73303 0.02739
3808.44726 0.02756
3807.16150 0.02666
3805.87573 0.02503
3804.58996 0.02346
3803.30419 0.02273
3802.01842 0.02318
3800.73265 0.02463
3799.44688 0.02638
3798.16111 0.02757
3796.87535 0.02758
3795.58958 0.02653
3794.30381 0.02512
3793.01804 0.02414
3791.73227 0.02390
3790.44650 0.02423
3789.16073 0.02471
3787.87496 0.02494
3786.58919 0.02475
3785.30343 0.02431
3784.01766 0.02391
3782.73189 0.02372
3781.44612 0.02373
3780.16035 0.02391
3778.87458 0.02423
3777.58881 0.02459
3776.30304 0.02483
3775.01728 0.02499
3773.73151 0.02528
3772.44574 0.02585
3771.15997 0.02649
3769.87420 0.02687
3768.58843 0.02670
3767.30266 0.02596
3766.01689 0.02484
3764.73112 0.02377
3763.44536 0.02322
3762.15959 0.02347
3760.87382 0.02426
3759.58805 0.02494
3758.30228 0.02495
3757.01651 0.02430
3755.73074 0.02353
3754.44497 0.02322
3753.15921 0.02353
3751.87344 0.02417
3750.58767 0.02471
3749.30190 0.02499
3748.01613 0.02516
3746.73036 0.02545
3745.44459 0.02587
3744.15882 0.02625
3742.87305 0.02652
3741.58729 0.02673
3740.30152 0.02677
3739.01575 0.02635
3737.72998 0.02544
3736.44421 0.02465
3735.15844 0.02481
3733.87267 0.02615
3732.58690 0.02795
3731.30114 0.02908
3730.01537 0.02886
3728.72960 0.02743
3727.44383 0.02541
3726.15806 0.02349
3724.87229 0.02217
3723.58652 0.02161
3722.30075 0.02161
3721.01498 0.02193
3719.72922 0.02254
3718.44345 0.02347
3717.15768 0.02442
3715.87191 0.02487
3714.58614 0.02461
3713.30037 0.02407
3712.01460 0.02375
3710.72883 0.02379
3709.44307 0.02400
3708.15730 0.02424
3706.87153 0.02439
3705.58576 0.02425
3704.29999 0.02380
3703.01422 0.02335
3701.72845 0.02324
3700.44268 0.02340
3699.15691 0.02346
3697.87115 0.02329
3696.58538 0.02315
3695.29961 0.02341
3694.01384 0.02421
3692.72807 0.02536
3691.44230 0.02636
3690.15653 0.02663
3688.87076 0.02605
3687.58500 0.02515
3686.29923 0.02456
3685.01346 0.02440
3683.72769 0.02438
3682.44192 0.02434
3681.15615 0.02447
3679.87038 0.02492
3678.58461 0.02563
3677.29884 0.02647
3676.01308 0.02742
3674.72731 0.02835
3673.44154 0.02901
3672.15577 0.02926
3670.87000 0.02908
3669.58423 0.02847
3668.29846 0.02734
3667.01269 0.02577
3665.72693 0.02428
3664.44116 0.02361
3663.15539 0.02417
3661.86962 0.02561
3660.58385 0.02708
3659.29808 0.02790
3658.01231 0.02803
3656.72654 0.02783
3655.44077 0.02758
3654.15501 0.02731
3652.86924 0.02707
3651.58347 0.02699
3650.29770 0.02709
3649.01193 0.02724
3647.72616 0.02747
3646.44039 0.02793
3645.15462 0.02852
3643.86886 0.02868
3642.58309 0.02803
3641.29732 0.02696
3640.01155 0.02636
3638.72578 0.02669
3637.44001 0.02743
3636.15424 0.02780
3634.86847 0.02769
3633.58270 0.02783
3632.29694 0.02886
3631.01117 0.03055
3629.72540 0.03200
3628.43963 0.03252
3627.15386 0.03216
3625.86809 0.03146
3624.58232 0.03085
3623.29655 0.03049
3622.01079 0.03041
3620.72502 0.03061
3619.43925 0.03098
3618.15348 0.03126
3616.86771 0.03119
3615.58194 0.03082
3614.29617 0.03052
3613.01040 0.03061
3611.72463 0.03115
3610.43887 0.03196
3609.15310 0.03285
3607.86733 0.03360
3606.58156 0.03398
3605.29579 0.03384
3604.01002 0.03326
3602.72425 0.03259
3601.43848 0.03216
3600.15272 0.03216
3598.86695 0.03260
3597.58118 0.03338
3596.29541 0.03428
3595.00964 0.03499
3593.72387 0.03536
3592.43810 0.03561
3591.15233 0.03605
3589.86656 0.03663
3588.58080 0.03692
3587.29503 0.03661
3586.00926 0.03589
3584.72349 0.03518
3583.43772 0.03482
3582.15195 0.03482
3580.86618 0.03507
3579.58041 0.03545
3578.29464 0.03595
3577.00888 0.03666
3575.72311 0.03755
3574.43734 0.03838
3573.15157 0.03887
3571.86580 0.03897
3570.58003 0.03899
3569.29426 0.03924
3568.00849 0.03964
3566.72273 0.03983
3565.43696 0.03960
3564.15119 0.03916
3562.86542 0.03888
3561.57965 0.03896
3560.29388 0.03926
3559.00811 0.03962
3557.72234 0.04013
3556.43657 0.04101
3555.15081 0.04221
3553.86504 0.04316
3552.57927 0.04312
3551.29350 0.04195
3550.00773 0.04038
3548.72196 0.03945
3547.43619 0.03973
3546.15042 0.04094
3544.86466 0.04243
3543.57889 0.04373
3542.29312 0.04462
3541.00735 0.04499
3539.72158 0.04485
3538.43581 0.04441
3537.15004 0.04405
3535.86427 0.04400
3534.57850 0.04434
3533.29274 0.04507
3532.00697 0.04614
3530.72120 0.04732
3529.43543 0.04817
3528.14966 0.04837
3526.86389 0.04795
3525.57812 0.04717
3524.29235 0.04635
3523.00659 0.04572
3521.72082 0.04546
3520.43505 0.04570
3519.14928 0.04648
3517.86351 0.04763
3516.57774 0.04879
3515.29197 0.04947
3514.00620 0.04933
3512.72043 0.04849
3511.43467 0.04751
3510.14890 0.04695
3508.86313 0.04691
3507.57736 0.04709
3506.29159 0.04721
3505.00582 0.04736
3503.72005 0.04787
3502.43428 0.04884
3501.14852 0.04996
3499.86275 0.05079
3498.57698 0.05131
3497.29121 0.05185
3496.00544 0.05263
3494.71967 0.05338
3493.43390 0.05365
3492.14813 0.05333
3490.86236 0.05266
3489.57660 0.05199
3488.29083 0.05161
3487.00506 0.05163
3485.71929 0.05198
3484.43352 0.05228
3483.14775 0.05215
3481.86198 0.05152
3480.57621 0.05081
3479.29045 0.05061
3478.00468 0.05123
3476.71891 0.05243
3475.43314 0.05362
3474.14737 0.05433
3472.86160 0.05455
3471.57583 0.05450
3470.29006 0.05425
3469.00429 0.05376
3467.71853 0.05322
3466.43276 0.05301
3465.14699 0.05339
3463.86122 0.05411
3462.57545 0.05471
3461.28968 0.05492
3460.00391 0.05486
3458.71814 0.05488
3457.43238 0.05522
3456.14661 0.05587
3454.86084 0.05653
3453.57507 0.05689
3452.28930 0.05683
3451.00353 0.05641
3449.71776 0.05578
3448.43199 0.05512
3447.14622 0.05463
3445.86046 0.05438
3444.57469 0.05426
3443.28892 0.05412
3442.00315 0.05394
3440.71738 0.05386
3439.43161 0.05405
3438.14584 0.05463
3436.86007 0.05562
3435.57431 0.05686
3434.28854 0.05800
3433.00277 0.05869
3431.71700 0.05884
3430.43123 0.05865
3429.14546 0.05839
3427.85969 0.05825
3426.57392 0.05835
3425.28815 0.05879
3424.00239 0.05953
3422.71662 0.06022
3421.43085 0.06039
3420.14508 0.05989
3418.85931 0.05905
3417.57354 0.05843
3416.28777 0.05838
3415.00200 0.05878
3413.71624 0.05931
3412.43047 0.05986
3411.14470 0.06048
3409.85893 0.06109
3408.57316 0.06140
3407.28739 0.06123
3406.00162 0.06072
3404.71585 0.06023
3403.43008 0.06004
3402.14432 0.06024
3400.85855 0.06070
3399.57278 0.06118
3398.28701 0.06160
3397.00124 0.06185
3395.71547 0.06192
3394.42970 0.06178
3393.14393 0.06145
3391.85817 0.06109
3390.57240 0.06093
3389.28663 0.06106
3388.00086 0.06134
3386.71509 0.06161
3385.42932 0.06185
3384.14355 0.06212
3382.85778 0.06236
3381.57201 0.06248
3380.28625 0.06250
3379.00048 0.06252
3377.71471 0.06260
3376.42894 0.06269
3375.14317 0.06281
3373.85740 0.06311
3372.57163 0.06366
3371.28586 0.06429
3370.00010 0.06469
3368.71433 0.06475
3367.42856 0.06455
3366.14279 0.06424
3364.85702 0.06387
3363.57125 0.06343
3362.28548 0.06301
3360.99971 0.06275
3359.71394 0.06277
3358.42818 0.06305
3357.14241 0.06348
3355.85664 0.06382
3354.57087 0.06383
3353.28510 0.06340
3351.99933 0.06268
3350.71356 0.06202
3349.42779 0.06174
3348.14202 0.06191
3346.85626 0.06242
3345.57049 0.06306
3344.28472 0.06369
3342.99895 0.06415
3341.71318 0.06424
3340.42741 0.06390
3339.14164 0.06337
3337.85587 0.06311
3336.57011 0.06329
3335.28434 0.06367
3333.99857 0.06390
3332.71280 0.06395
3331.42703 0.06392
3330.14126 0.06385
3328.85549 0.06365
3327.56972 0.06345
3326.28395 0.06356
3324.99819 0.06410
3323.71242 0.06486
3322.42665 0.06552
3321.14088 0.06592
3319.85511 0.06606
3318.56934 0.06595
3317.28357 0.06560
3315.99780 0.06511
3314.71204 0.06470
3313.42627 0.06457
3312.14050 0.06474
3310.85473 0.06504
3309.56896 0.06520
3308.28319 0.06506
3306.99742 0.06475
3305.71165 0.06459
3304.42588 0.06479
3303.14012 0.06521
3301.85435 0.06549
3300.56858 0.06545
3299.28281 0.06526
3297.99704 0.06517
3296.71127 0.06524
3295.42550 0.06537
3294.13973 0.06545
3292.85397 0.06546
3291.56820 0.06552
3290.28243 0.06566
3288.99666 0.06581
3287.71089 0.06580
3286.42512 0.06560
3285.13935 0.06528
3283.85358 0.06485
3282.56781 0.06433
3281.28205 0.06394
3279.99628 0.06392
3278.71051 0.06417
3277.42474 0.06430
3276.13897 0.06408
3274.85320 0.06377
3273.56743 0.06384
3272.28166 0.06432
3270.99590 0.06468
3269.71013 0.06438
3268.42436 0.06341
3267.13859 0.06234
3265.85282 0.06184
3264.56705 0.06210
3263.28128 0.06281
3261.99551 0.06346
3260.70974 0.06374
3259.42398 0.06368
3258.13821 0.06355
3256.85244 0.06352
3255.56667 0.06355
3254.28090 0.06345
3252.99513 0.06311
3251.70936 0.06262
3250.42359 0.06223
3249.13783 0.06218
3247.85206 0.06254
3246.56629 0.06315
3245.28052 0.06370
3243.99475 0.06388
3242.70898 0.06358
3241.42321 0.06289
3240.13744 0.06213
3238.85167 0.06162
3237.56591 0.06145
3236.28014 0.06146
3234.99437 0.06138
3233.70860 0.06108
3232.42283 0.06058
3231.13706 0.06005
3229.85129 0.05968
3228.56552 0.05954
3227.27976 0.05954
3225.99399 0.05946
3224.70822 0.05915
3223.42245 0.05863
3222.13668 0.05808
3220.85091 0.05772
3219.56514 0.05776
3218.27937 0.05825
3216.99360 0.05899
3215.70784 0.05952
3214.42207 0.05944
3213.13630 0.05883
3211.85053 0.05826
3210.56476 0.05821
3209.27899 0.05862
3207.99322 0.05900
3206.70745 0.05897
3205.42169 0.05867
3204.13592 0.05843
3202.85015 0.05831
3201.56438 0.05810
3200.27861 0.05774
3198.99284 0.05742
3197.70707 0.05734
3196.42130 0.05744
3195.13553 0.05755
3193.84977 0.05751
3192.56400 0.05728
3191.27823 0.05690
3189.99246 0.05646
3188.70669 0.05618
3187.42092 0.05624
3186.13515 0.05660
3184.84938 0.05699
3183.56362 0.05715
3182.27785 0.05704
3180.99208 0.05681
3179.70631 0.05662
3178.42054 0.05648
3177.13477 0.05633
3175.84900 0.05614
3174.56323 0.05588
3173.27746 0.05558
3171.99170 0.05541
3170.70593 0.05552
3169.42016 0.05589
3168.13439 0.05621
3166.84862 0.05617
3165.56285 0.05583
3164.27708 0.05541
3162.99131 0.05499
3161.70555 0.05448
3160.41978 0.05390
3159.13401 0.05343
3157.84824 0.05327
3156.56247 0.05339
3155.27670 0.05358
3153.99093 0.05369
3152.70516 0.05368
3151.41939 0.05362
3150.13363 0.05348
3148.84786 0.05316
3147.56209 0.05263
3146.27632 0.05202
3144.99055 0.05156
3143.70478 0.05148
3142.41901 0.05190
3141.13324 0.05268
3139.84748 0.05346
3138.56171 0.05381
3137.27594 0.05361
3135.99017 0.05308
3134.70440 0.05255
3133.41863 0.05215
3132.13286 0.05176
3130.84709 0.05129
3129.56132 0.05082
3128.27556 0.05052
3126.98979 0.05045
3125.70402 0.05056
3124.41825 0.05074
3123.13248 0.05095
3121.84671 0.05120
3120.56094 0.05146
3119.27517 0.05159
3117.98940 0.05142
3116.70364 0.05093
3115.41787 0.05042
3114.13210 0.05020
3112.84633 0.05029
3111.56056 0.05039
3110.27479 0.05022
3108.98902 0.04976
3107.70325 0.04923
3106.41749 0.04886
3105.13172 0.04869
3103.84595 0.04865
3102.56018 0.04872
3101.27441 0.04898
3099.98864 0.04942
3098.70287 0.04985
3097.41710 0.04998
3096.13133 0.04970
3094.84557 0.04915
3093.55980 0.04860
3092.27403 0.04827
3090.98826 0.04826
3089.70249 0.04848
3088.41672 0.04874
3087.13095 0.04883
3085.84518 0.04869
3084.55942 0.04847
3083.27365 0.04834
3081.98788 0.04834
3080.70211 0.04838
3079.41634 0.04839
3078.13057 0.04829
3076.84480 0.04801
3075.55903 0.04755
3074.27326 0.04709
3072.98750 0.04687
3071.70173 0.04698
3070.41596 0.04731
3069.13019 0.04771
3067.84442 0.04805
3066.55865 0.04824
3065.27288 0.04820
3063.98711 0.04797
3062.70135 0.04769
3061.41558 0.04750
3060.12981 0.04742
3058.84404 0.04734
3057.55827 0.04711
3056.27250 0.04663
3054.98673 0.04603
3053.70096 0.04557
3052.41519 0.04550
3051.12943 0.04579
3049.84366 0.04626
3048.55789 0.04668
3047.27212 0.04690
3045.98635 0.04691
3044.70058 0.04677
3043.41481 0.04656
3042.12904 0.04625
3040.84328 0.04579
3039.55751 0.04524
3038.27174 0.04486
3036.98597 0.04483
3035.70020 0.04508
3034.41443 0.04537
3033.12866 0.04548
3031.84289 0.04533
3030.55712 0.04493
3029.27136 0.04440
3027.98559 0.04394
3026.69982 0.04375
3025.41405 0.04384
3024.12828 0.04404
3022.84251 0.04418
3021.55674 0.04417
3020.27097 0.04404
3018.98521 0.04389
3017.69944 0.04384
3016.41367 0.04393
3015.12790 0.04409
3013.84213 0.04411
3012.55636 0.04388
3011.27059 0.04345
3009.98482 0.04305
3008.69905 0.04280
3007.41329 0.04271
3006.12752 0.04271
3004.84175 0.04272
3003.55598 0.04268
3002.27021 0.04257
3000.98444 0.04241
2999.69867 0.04224
2998.41290 0.04219
2997.12714 0.04217
2995.84137 0.04212
2994.55560 0.04211
2993.26983 0.04224
2991.98406 0.04249
2990.69829 0.04256
2989.41252 0.04232
2988.12675 0.04197
2986.84098 0.04185
2985.55522 0.04204
2984.26945 0.04234
2982.98368 0.04255
2981.69791 0.04267
2980.41214 0.04285
2979.12637 0.04320
2977.84060 0.04368
2976.55483 0.04414
2975.26907 0.04452
2973.98330 0.04493
2972.69753 0.04548
2971.41176 0.04604
2970.12599 0.04632
2968.84022 0.04624
2967.55445 0.04602
2966.26868 0.04593
2964.98291 0.04608
2963.69715 0.04642
2962.41138 0.04681
2961.12561 0.04704
2959.83984 0.04700
2958.55407 0.04682
2957.26830 0.04681
2955.98253 0.04718
2954.69676 0.04784
2953.41100 0.04858
2952.12523 0.04926
2950.83946 0.04983
2949.55369 0.05024
2948.26792 0.05041
2946.98215 0.05034
2945.69638 0.05016
2944.41061 0.05003
2943.12484 0.05000
2941.83908 0.04994
2940.55331 0.04968
2939.26754 0.04917
2937.98177 0.04849
2936.69600 0.04775
2935.41023 0.04691
2934.12446 0.04601
2932.83869 0.04523
2931.55293 0.04479
2930.26716 0.04457
2928.98139 0.04410
2927.69562 0.04292
2926.40985 0.04099
2925.12408 0.03849
2923.83831 0.03549
2922.55254 0.03183
2921.26677 0.02741
2919.98101 0.02255
2918.69524 0.01815
2917.40947 0.01536
2916.12370 0.01503
2914.83793 0.01731
2913.55216 0.02149
2912.26639 0.02642
2910.98062 0.03101
2909.69486 0.03467
2908.40909 0.03730
2907.12332 0.03904
2905.83755 0.04012
2904.55178 0.04077
2903.26601 0.04114
2901.98024 0.04127
2900.69447 0.04117
2899.40870 0.04095
2898.12294 0.04082
2896.83717 0.04090
2895.55140 0.04117
2894.26563 0.04148
2892.97986 0.04171
2891.69409 0.04179
2890.40832 0.04166
2889.12255 0.04131
2887.83678 0.04088
2886.55102 0.04065
2885.26525 0.04079
2883.97948 0.04121
2882.69371 0.04170
2881.40794 0.04212
2880.12217 0.04244
2878.83640 0.04265
2877.55063 0.04272
2876.26487 0.04275
2874.97910 0.04286
2873.69333 0.04307
2872.40756 0.04330
2871.12179 0.04346
2869.83602 0.04353
2868.55025 0.04347
2867.26448 0.04323
2865.97871 0.04279
2864.69295 0.04215
2863.40718 0.04133
2862.12141 0.04035
2860.83564 0.03935
2859.54987 0.03845
2858.26410 0.03764
2856.97833 0.03661
2855.69256 0.03487
2854.40680 0.03206
2853.12103 0.02818
2851.83526 0.02387
2850.54949 0.02034
2849.26372 0.01888
2847.97795 0.02004
2846.69218 0.02320
2845.40641 0.02703
2844.12064 0.03031
2842.83488 0.03254
2841.54911 0.03383
2840.26334 0.03462
2838.97757 0.03530
2837.69180 0.03599
2836.40603 0.03660
2835.12026 0.03696
2833.83449 0.03706
2832.54873 0.03694
2831.26296 0.03666
2829.97719 0.03627
2828.69142 0.03591
2827.40565 0.03577
2826.11988 0.03587
2824.83411 0.03599
2823.54834 0.03584
2822.26257 0.03537
2820.97681 0.03478
2819.69104 0.03429
2818.40527 0.03397
2817.11950 0.03377
2815.83373 0.03368
2814.54796 0.03369
2813.26219 0.03376
2811.97642 0.03382
2810.69066 0.03377
2809.40489 0.03359
2808.11912 0.03337
2806.83335 0.03323
2805.54758 0.03326
2804.26181 0.03342
2802.97604 0.03363
2801.69027 0.03377
2800.40450 0.03373
2799.11874 0.03346
2797.83297 0.03311
2796.54720 0.03287
2795.26143 0.03279
2793.97566 0.03280
2792.68989 0.03273
2791.40412 0.03251
2790.11835 0.03219
2788.83259 0.03187
2787.54682 0.03164
2786.26105 0.03157
2784.97528 0.03168
2783.68951 0.03192
2782.40374 0.03220
2781.11797 0.03242
2779.83220 0.03254
2778.54643 0.03256
2777.26067 0.03246
2775.97490 0.03225
2774.68913 0.03195
2773.40336 0.03164
2772.11759 0.03142
2770.83182 0.03131
2769.54605 0.03125
2768.26028 0.03117
2766.97452 0.03105
2765.68875 0.03098
2764.40298 0.03105
2763.11721 0.03117
2761.83144 0.03115
2760.54567 0.03096
2759.25990 0.03068
2757.97413 0.03040
2756.68836 0.03014
2755.40260 0.02996
2754.11683 0.02991
2752.83106 0.02998
2751.54529 0.03009
2750.25952 0.03022
2748.97375 0.03041
2747.68798 0.03063
2746.40221 0.03074
2745.11645 0.03060
2743.83068 0.03029
2742.54491 0.03003
2741.25914 0.02997
2739.97337 0.03004
2738.68760 0.03007
2737.40183 0.02998
2736.11606 0.02980
2734.83029 0.02965
2733.54453 0.02963
2732.25876 0.02973
2730.97299 0.02984
2729.68722 0.02986
2728.40145 0.02981
2727.11568 0.02972
2725.82991 0.02957
2724.54414 0.02938
2723.25838 0.02924
2721.97261 0.02920
2720.68684 0.02925
2719.40107 0.02931
2718.11530 0.02940
2716.82953 0.02951
2715.54376 0.02958
2714.25799 0.02952
2712.97222 0.02929
2711.68646 0.02895
2710.40069 0.02867
2709.11492 0.02857
2707.82915 0.02866
2706.54338 0.02878
2705.25761 0.02876
2703.97184 0.02852
2702.68607 0.02818
2701.40031 0.02796
2700.11454 0.02797
2698.82877 0.02809
2697.54300 0.02816
2696.25723 0.02815
2694.97146 0.02820
2693.68569 0.02837
2692.39992 0.02856
2691.11415 0.02863
2689.82839 0.02854
2688.54262 0.02838
2687.25685 0.02822
2685.97108 0.02806
2684.68531 0.02786
2683.39954 0.02763
2682.11377 0.02748
2680.82800 0.02743
2679.54224 0.02741
2678.25647 0.02735
2676.97070 0.02728
2675.68493 0.02720
2674.39916 0.02709
2673.11339 0.02693
2671.82762 0.02679
2670.54185 0.02672
2669.25608 0.02673
2667.97032 0.02684
2666.68455 0.02707
2665.39878 0.02737
2664.11301 0.02759
2662.82724 0.02763
2661.54147 0.02755
2660.25570 0.02748
2658.96993 0.02746
2657.68417 0.02743
2656.39840 0.02732
2655.11263 0.02713
2653.82686 0.02692
2652.54109 0.02675
2651.25532 0.02663
2649.96955 0.02656
2648.68378 0.02655
2647.39801 0.02657
2646.11225 0.02657
2644.82648 0.02650
2643.54071 0.02635
2642.25494 0.02614
2640.96917 0.02595
2639.68340 0.02588
2638.39763 0.02594
2637.11186 0.02598
2635.82609 0.02582
2634.54033 0.02547
2633.25456 0.02506
2631.96879 0.02475
2630.68302 0.02465
2629.39725 0.02480
2628.11148 0.02512
2626.82571 0.02537
2625.53994 0.02539
2624.25418 0.02521
2622.96841 0.02494
2621.68264 0.02464
2620.39687 0.02435
2619.11110 0.02414
2617.82533 0.02395
2616.53956 0.02363
2615.25379 0.02316
2613.96802 0.02273
2612.68226 0.02250
2611.39649 0.02248
2610.11072 0.02258
2608.82495 0.02274
2607.53918 0.02298
2606.25341 0.02328
2604.96764 0.02353
2603.68187 0.02361
2602.39611 0.02340
2601.11034 0.02299
2599.82457 0.02264
2598.53880 0.02258
2597.25303 0.02276
2595.96726 0.02295
2594.68149 0.02300
2593.39572 0.02300
2592.10995 0.02310
2590.82419 0.02326
2589.53842 0.02325
2588.25265 0.02282
2586.96688 0.02201
2585.68111 0.02125
2584.39534 0.02095
2583.10957 0.02117
2581.82380 0.02149
2580.53804 0.02149
2579.25227 0.02112
2577.96650 0.02074
2576.68073 0.02067
2575.39496 0.02092
2574.10919 0.02125
2572.82342 0.02142
2571.53765 0.02139
2570.25188 0.02131
2568.96612 0.02137
2567.68035 0.02168
2566.39458 0.02212
2565.10881 0.02239
2563.82304 0.02228
2562.53727 0.02182
2561.25150 0.02129
2559.96573 0.02088
2558.67997 0.02062
2557.39420 0.02049
2556.10843 0.02046
2554.82266 0.02062
2553.53689 0.02101
2552.25112 0.02153
2550.96535 0.02194
2549.67958 0.02202
2548.39381 0.02182
2547.10805 0.02154
2545.82228 0.02129
2544.53651 0.02112
2543.25074 0.02109
2541.96497 0.02132
2540.67920 0.02175
2539.39343 0.02207
2538.10766 0.02200
2536.82190 0.02156
2535.53613 0.02100
2534.25036 0.02054
2532.96459 0.02028
2531.67882 0.02034
2530.39305 0.02076
2529.10728 0.02135
2527.82151 0.02181
2526.53574 0.02198
2525.24998 0.02194
2523.96421 0.02186
2522.67844 0.02174
2521.39267 0.02145
2520.10690 0.02094
2518.82113 0.02039
2517.53536 0.02009
2516.24959 0.02006
2514.96383 0.02006
2513.67806 0.01981
2512.39229 0.01938
2511.10652 0.01915
2509.82075 0.01941
2508.53498 0.02010
2507.24921 0.02075
2505.96344 0.02090
2504.67767 0.02051
2503.39191 0.02008
2502.10614 0.02011
2500.82037 0.02061
2499.53460 0.02113
2498.24883 0.02124
2496.96306 0.02086
2495.67729 0.02025
2494.39152 0.01969
2493.10576 0.01933
2491.81999 0.01923
2490.53422 0.01933
2489.24845 0.01949
2487.96268 0.01956
2486.67691 0.01948
2485.39114 0.01934
2484.10537 0.01922
2482.81960 0.01912
2481.53384 0.01903
2480.24807 0.01904
2478.96230 0.01927
2477.67653 0.01966
2476.39076 0.01997
2475.10499 0.01999
2473.81922 0.01974
2472.53345 0.01945
2471.24769 0.01929
2469.96192 0.01926
2468.67615 0.01931
2467.39038 0.01944
2466.10461 0.01969
2464.81884 0.02002
2463.53307 0.02032
2462.24730 0.02040
2460.96153 0.02010
2459.67577 0.01950
2458.39000 0.01884
2457.10423 0.01842
2455.81846 0.01835
2454.53269 0.01858
2453.24692 0.01890
2451.96115 0.01913
2450.67538 0.01911
2449.38962 0.01889
2448.10385 0.01860
2446.81808 0.01832
2445.53231 0.01808
2444.24654 0.01793
2442.96077 0.01792
2441.67500 0.01800
2440.38923 0.01802
2439.10346 0.01790
2437.81770 0.01781
2436.53193 0.01798
2435.24616 0.01838
2433.96039 0.01871
2432.67462 0.01872
2431.38885 0.01848
2430.10308 0.01821
2428.81731 0.01811
2427.53155 0.01816
2426.24578 0.01814
2424.96001 0.01785
2423.67424 0.01738
2422.38847 0.01709
2421.10270 0.01732
2419.81693 0.01798
2418.53116 0.01873
2417.24539 0.01919
2415.95963 0.01924
2414.67386 0.01903
2413.38809 0.01888
2412.10232 0.01889
2410.81655 0.01893
2409.53078 0.01885
2408.24501 0.01868
2406.95924 0.01853
2405.67347 0.01834
2404.38771 0.01799
2403.10194 0.01748
2401.81617 0.01699
2400.53040 0.01666
2399.24463 0.01643
2397.95886 0.01642
2396.67309 0.01662
2395.38732 0.01703
2394.10156 0.01757
2392.81579 0.01804
2391.53002 0.01825
2390.24425 0.01816
2388.95848 0.01791
2387.67271 0.01765
2386.38694 0.01747
2385.10117 0.01733
2383.81540 0.01722
2382.52964 0.01716
2381.24387 0.01716
2379.95810 0.01715
2378.67233 0.01711
2377.38656 0.01706
2376.10079 0.01703
2374.81502 0.01701
2373.52925 0.01701
2372.24349 0.01706
2370.95772 0.01717
2369.67195 0.01728
2368.38618 0.01734
2367.10041 0.01739
2365.81464 0.01753
2364.52887 0.01775
2363.24310 0.01797
2361.95733 0.01812
2360.67157 0.01827
2359.38580 0.01851
2358.10003 0.01882
2356.81426 0.01910
2355.52849 0.01918
2354.24272 0.01902
2352.95695 0.01871
2351.67118 0.01843
2350.38542 0.01831
2349.09965 0.01837
2347.81388 0.01849
2346.52811 0.01857
2345.24234 0.01861
2343.95657 0.01866
2342.67080 0.01875
2341.38503 0.01881
2340.09926 0.01878
2338.81350 0.01866
2337.52773 0.01850
2336.24196 0.01836
2334.95619 0.01832
2333.67042 0.01840
2332.38465 0.01855
2331.09888 0.01865
2329.81311 0.01867
2328.52735 0.01873
2327.24158 0.01903
2325.95581 0.01953
2324.67004 0.01996
2323.38427 0.02006
2322.09850 0.01983
2320.81273 0.01945
2319.52696 0.01905
2318.24119 0.01864
2316.95543 0.01822
2315.66966 0.01793
2314.38389 0.01789
2313.09812 0.01807
2311.81235 0.01832
2310.52658 0.01858
2309.24081 0.01885
2307.95504 0.01912
2306.66928 0.01923
2305.38351 0.01901
2304.09774 0.01844
2302.81197 0.01772
2301.52620 0.01716
2300.24043 0.01692
2298.95466 0.01696
2297.66889 0.01706
2296.38312 0.01704
2295.09736 0.01688
2293.81159 0.01670
2292.52582 0.01667
2291.24005 0.01686
2289.95428 0.01709
2288.66851 0.01706
2287.38274 0.01653
2286.09697 0.01559
2284.81121 0.01464
2283.52544 0.01420
2282.23967 0.01449
2280.95390 0.01530
2279.66813 0.01620
2278.38236 0.01679
2277.09659 0.01682
2275.81082 0.01630
2274.52505 0.01555
2273.23929 0.01492
2271.95352 0.01461
2270.66775 0.01456
2269.38198 0.01466
2268.09621 0.01478
2266.81044 0.01481
2265.52467 0.01472
2264.23890 0.01466
2262.95314 0.01473
2261.66737 0.01476
2260.38160 0.01437
2259.09583 0.01341
2257.81006 0.01226
2256.52429 0.01159
2255.23852 0.01177
2253.95275 0.01240
2252.66698 0.01268
2251.38122 0.01223
2250.09545 0.01150
2248.80968 0.01127
2247.52391 0.01169
2246.23814 0.01256
2244.95237 0.01317
2243.66660 0.01309
2242.38083 0.01254
2241.09507 0.01206
2239.80930 0.01191
2238.52353 0.01198
2237.23776 0.01216
2235.95199 0.01251
2234.66622 0.01305
2233.38045 0.01347
2232.09468 0.01341
2230.80891 0.01286
2229.52315 0.01224
2228.23738 0.01212
2226.95161 0.01284
2225.66584 0.01413
2224.38007 0.01521
2223.09430 0.01536
2221.80853 0.01456
2220.52276 0.01349
2219.23700 0.01281
2217.95123 0.01267
2216.66546 0.01282
2215.37969 0.01299
2214.09392 0.01291
2212.80815 0.01228
2211.52238 0.01110
2210.23661 0.00984
2208.95084 0.00918
2207.66508 0.00942
2206.37931 0.01017
2205.09354 0.01063
2203.80777 0.01028
2202.52200 0.00933
2201.23623 0.00843
2199.95046 0.00793
2198.66469 0.00780
2197.37893 0.00805
2196.09316 0.00879
2194.80739 0.00978
2193.52162 0.01044
2192.23585 0.01043
2190.95008 0.00997
2189.66431 0.00952
2188.37854 0.00937
2187.09277 0.00954
2185.80701 0.00991
2184.52124 0.01031
2183.23547 0.01047
2181.94970 0.01015
2180.66393 0.00944
2179.37816 0.00886
2178.09239 0.00886
2176.80662 0.00921
2175.52085 0.00925
2174.23509 0.00870
2172.94932 0.00795
2171.66355 0.00755
2170.37778 0.00765
2169.09201 0.00806
2167.80624 0.00838
2166.52047 0.00831
2165.23470 0.00795
2163.94894 0.00772
2162.66317 0.00779
2161.37740 0.00766
2160.09163 0.00670
2158.80586 0.00497
2157.52009 0.00323
2156.23432 0.00214
2154.94855 0.00184
2153.66278 0.00243
2152.37702 0.00402
2151.09125 0.00630
2149.80548 0.00827
2148.51971 0.00894
2147.23394 0.00836
2145.94817 0.00751
2144.66240 0.00723
2143.37663 0.00741
2142.09087 0.00754
2140.80510 0.00749
2139.51933 0.00753
2138.23356 0.00775
2136.94779 0.00782
2135.66202 0.00761
2134.37625 0.00747
2133.09048 0.00786
2131.80471 0.00867
2130.51895 0.00931
2129.23318 0.00936
2127.94741 0.00908
2126.66164 0.00903
2125.37587 0.00939
2124.09010 0.00985
2122.80433 0.00998
2121.51856 0.00976
2120.23280 0.00954
2118.94703 0.00963
2117.66126 0.01007
2116.37549 0.01069
2115.08972 0.01129
2113.80395 0.01169
2112.51818 0.01170
2111.23241 0.01125
2109.94664 0.01051
2108.66088 0.00981
2107.37511 0.00937
2106.08934 0.00919
2104.80357 0.00911
2103.51780 0.00894
2102.23203 0.00860
2100.94626 0.00825
2099.66049 0.00926
2098.37473 0.00981
2097.08896 0.00985
2095.80319 0.00974
2094.51742 0.00956
2093.23165 0.00936
2091.94588 0.00924
2090.66011 0.00925
2089.37434 0.00935
2088.08857 0.00947
2086.80281 0.00964
2085.51704 0.00990
2084.23127 0.01019
2082.94550 0.01038
2081.65973 0.01046
2080.37396 0.01058
2079.08819 0.01083
2077.80242 0.01113
2076.51666 0.01130
2075.23089 0.01128
2073.94512 0.01113
2072.65935 0.01101
2071.37358 0.01109
2070.08781 0.01138
2068.80204 0.01171
2067.51627 0.01185
2066.23050 0.01173
2064.94474 0.01156
2063.65897 0.01145
2062.37320 0.01124
2061.08743 0.01080
2059.80166 0.01025
2058.51589 0.00982
2057.23012 0.00955
2055.94435 0.00926
2054.65859 0.00879
2053.37282 0.00830
2052.08705 0.00817
2050.80128 0.00870
2049.51551 0.00988
2048.22974 0.01128
2046.94397 0.01231
2045.65820 0.01254
2044.37243 0.01196
2043.08667 0.01093
2041.80090 0.00985
2040.51513 0.00887
2039.22936 0.00792
2037.94359 0.00696
2036.65782 0.00607
2035.37205 0.00545
2034.08628 0.00529
2032.80052 0.00565
2031.51475 0.00636
2030.22898 0.00705
2028.94321 0.00739
2027.65744 0.00738
2026.37167 0.00733
2025.08590 0.00747
2023.80013 0.00762
2022.51436 0.00745
2021.22860 0.00700
2019.94283 0.00672
2018.65706 0.00694
2017.37129 0.00757
2016.08552 0.00826
2014.79975 0.00879
2013.51398 0.00918
2012.22821 0.00953
2010.94245 0.00985
2009.65668 0.00994
2008.37091 0.00955
2007.08514 0.00870
2005.79937 0.00775
2004.51360 0.00706
2003.22783 0.00673
2001.94206 0.00660
2000.65629 0.00652
1999.37053 0.00655
1998.08476 0.00682
1996.79899 0.00736
1995.51322 0.00788
1994.22745 0.00800
1992.94168 0.00766
1991.65591 0.00724
1990.37014 0.00717
1989.08438 0.00745
1987.79861 0.00764
1986.51284 0.00746
1985.22707 0.00717
1983.94130 0.00737
1982.65553 0.00836
1981.36976 0.00990
1980.08399 0.01146
1978.79822 0.01240
1977.51246 0.01236
1976.22669 0.01156
1974.94092 0.01081
1973.65515 0.01089
1972.36938 0.01181
1971.08361 0.01294
1969.79784 0.01356
1968.51207 0.01334
1967.22631 0.01248
1965.94054 0.01144
1964.65477 0.01062
1963.36900 0.01001
1962.08323 0.00934
1960.79746 0.00844
1959.51169 0.00754
1958.22592 0.00700
1956.94015 0.00698
1955.65439 0.00728
1954.36862 0.00765
1953.08285 0.00804
1951.79708 0.00860
1950.51131 0.00928
1949.22554 0.00971
1947.93977 0.00971
1946.65400 0.00957
1945.36823 0.00971
1944.08247 0.01021
1942.79670 0.01066
1941.51093 0.01068
1940.22516 0.01024
1938.93939 0.00961
1937.65362 0.00913
1936.36785 0.00897
1935.08208 0.00914
1933.79632 0.00947
1932.51055 0.00973
1931.22478 0.00982
1929.93901 0.00982
1928.65324 0.00985
1927.36747 0.01000
1926.08170 0.01023
1924.79593 0.01045
1923.51016 0.01053
1922.22440 0.01040
1920.93863 0.01013
1919.65286 0.00983
1918.36709 0.00952
1917.08132 0.00916
1915.79555 0.00885
1914.50978 0.00885
1913.22401 0.00930
1911.93825 0.01000
1910.65248 0.01058
1909.36671 0.01077
1908.08094 0.01064
1906.79517 0.01046
1905.50940 0.01041
1904.22363 0.01050
1902.93786 0.01069
1901.65209 0.01090
1900.36633 0.01106
1899.08056 0.01103
1897.79479 0.01075
1896.50902 0.01033
1895.22325 0.01000
1893.93748 0.00995
1892.65171 0.01012
1891.36594 0.01030
1890.08018 0.01029
1888.79441 0.01010
1887.50864 0.00989
1886.22287 0.00990
1884.93710 0.01018
1883.65133 0.01064
1882.36556 0.01098
1881.07979 0.01088
1879.79402 0.01030
1878.50826 0.00949
1877.22249 0.00890
1875.93672 0.00877
1874.65095 0.00901
1873.36518 0.00936
1872.07941 0.00961
1870.79364 0.00974
1869.50787 0.00980
1868.22211 0.00982
1866.93634 0.00990
1865.65057 0.01011
1864.36480 0.01045
1863.07903 0.01073
1861.79326 0.01079
1860.50749 0.01059
1859.22172 0.01027
1857.93595 0.01001
1856.65019 0.00993
1855.36442 0.01003
1854.07865 0.01026
1852.79288 0.01057
1851.50711 0.01082
1850.22134 0.01090
1848.93557 0.01076
1847.64980 0.01050
1846.36404 0.01028
1845.07827 0.01015
1843.79250 0.01011
1842.50673 0.01013
1841.22096 0.01026
1839.93519 0.01049
1838.64942 0.01072
1837.36365 0.01076
1836.07788 0.01052
1834.79212 0.01010
1833.50635 0.00969
1832.22058 0.00947
1830.93481 0.00948
1829.64904 0.00970
1828.36327 0.01010
1827.07750 0.01058
1825.79173 0.01101
1824.50597 0.01126
1823.22020 0.01132
1821.93443 0.01131
1820.64866 0.01131
1819.36289 0.01128
1818.07712 0.01108
1816.79135 0.01070
1815.50558 0.01027
1814.21981 0.00997
1812.93405 0.00983
1811.64828 0.00984
1810.36251 0.00993
1809.07674 0.01007
1807.79097 0.01023
1806.50520 0.01036
1805.21943 0.01042
1803.93366 0.01038
1802.64790 0.01030
1801.36213 0.01023
1800.07636 0.01020
1798.79059 0.01025
1797.50482 0.01035
1796.21905 0.01048
1794.93328 0.01059
1793.64751 0.01064
1792.36174 0.01063
1791.07598 0.01060
1789.79021 0.01061
1788.50444 0.01068
1787.21867 0.01079
1785.93290 0.01092
1784.64713 0.01103
1783.36136 0.01110
1782.07559 0.01111
1780.78983 0.01111
1779.50406 0.01111
1778.21829 0.01110
1776.93252 0.01108
1775.64675 0.01106
1774.36098 0.01106
1773.07521 0.01107
1771.78944 0.01104
1770.50367 0.01101
1769.21791 0.01103
1767.93214 0.01114
1766.64637 0.01129
1765.36060 0.01142
1764.07483 0.01147
1762.78906 0.01146
1761.50329 0.01143
1760.21752 0.01143
1758.93176 0.01148
1757.64599 0.01156
1756.36022 0.01164
1755.07445 0.01173
1753.78868 0.01180
1752.50291 0.01184
1751.21714 0.01183
1749.93137 0.01180
1748.64560 0.01179
1747.35984 0.01184
1746.07407 0.01193
1744.78830 0.01202
1743.50253 0.01206
1742.21676 0.01208
1740.93099 0.01209
1739.64522 0.01213
1738.35945 0.01223
1737.07369 0.01244
1735.78792 0.01273
1734.50215 0.01297
1733.21638 0.01306
1731.93061 0.01304
1730.64484 0.01303
1729.35907 0.01314
1728.07330 0.01336
1726.78753 0.01358
1725.50177 0.01375
1724.21600 0.01388
1722.93023 0.01406
1721.64446 0.01432
1720.35869 0.01464
1719.07292 0.01493
1717.78715 0.01514
1716.50138 0.01527
1715.21561 0.01538
1713.92985 0.01556
1712.64408 0.01589
1711.35831 0.01636
1710.07254 0.01691
1708.78677 0.01747
1707.50100 0.01799
1706.21523 0.01849
1704.92946 0.01903
1703.64370 0.01971
1702.35793 0.02055
1701.07216 0.02145
1699.78639 0.02227
1698.50062 0.02295
1697.21485 0.02356
1695.92908 0.02411
1694.64331 0.02463
1693.35754 0.02514
1692.07178 0.02573
1690.78601 0.02644
1689.50024 0.02726
1688.21447 0.02815
1686.92870 0.02908
1685.64293 0.03001
1684.35716 0.03085
1683.07139 0.03154
1681.78563 0.03212
1680.49986 0.03267
1679.21409 0.03325
1677.92832 0.03392
1676.64255 0.03465
1675.35678 0.03539
1674.07101 0.03614
1672.78524 0.03691
1671.49947 0.03771
1670.21371 0.03849
1668.92794 0.03920
1667.64217 0.03982
1666.35640 0.04040
1665.07063 0.04099
1663.78486 0.04161
1662.49909 0.04225
1661.21332 0.04287
1659.92756 0.04344
1658.64179 0.04399
1657.35602 0.04458
1656.07025 0.04524
1654.78448 0.04592
1653.49871 0.04645
1652.21294 0.04676
1650.92717 0.04691
1649.64140 0.04704
1648.35564 0.04724
1647.06987 0.04745
1645.78410 0.04758
1644.49833 0.04759
1643.21256 0.04755
1641.92679 0.04753
1640.64102 0.04752
1639.35525 0.04749
1638.06949 0.04742
1636.78372 0.04726
1635.49795 0.04697
1634.21218 0.04656
1632.92641 0.04607
1631.64064 0.04559
1630.35487 0.04514
1629.06910 0.04474
1627.78333 0.04434
1626.49757 0.04397
1625.21180 0.04361
1623.92603 0.04324
1622.64026 0.04286
1621.35449 0.04250
1620.06872 0.04222
1618.78295 0.04203
1617.49718 0.04185
1616.21142 0.04163
1614.92565 0.04134
1613.63988 0.04105
1612.35411 0.04082
1611.06834 0.04070
1609.78257 0.04067
1608.49680 0.04066
1607.21103 0.04063
1605.92526 0.04057
1604.63950 0.04053
1603.35373 0.04053
1602.06796 0.04059
1600.78219 0.04069
1599.49642 0.04082
1598.21065 0.04096
1596.92488 0.04105
1595.63911 0.04108
1594.35335 0.04106
1593.06758 0.04103
1591.78181 0.04103
1590.49604 0.04105
1589.21027 0.04107
1587.92450 0.04111
1586.63873 0.04116
1585.35296 0.04121
1584.06719 0.04123
1582.78143 0.04124
1581.49566 0.04132
1580.20989 0.04151
1578.92412 0.04184
1577.63835 0.04228
1576.35258 0.04275
1575.06681 0.04318
1573.78104 0.04356
1572.49528 0.04394
1571.20951 0.04437
1569.92374 0.04481
1568.63797 0.04522
1567.35220 0.04557
1566.06643 0.04587
1564.78066 0.04617
1563.49489 0.04650
1562.20912 0.04687
1560.92336 0.04725
1559.63759 0.04755
1558.35182 0.04771
1557.06605 0.04772
1555.78028 0.04764
1554.49451 0.04752
1553.20874 0.04738
1551.92297 0.04719
1550.63721 0.04696
1549.35144 0.04666
1548.06567 0.04630
1546.77990 0.04589
1545.49413 0.04547
1544.20836 0.04506
1542.92259 0.04469
1541.63682 0.04437
1540.35105 0.04410
1539.06529 0.04386
1537.77952 0.04364
1536.49375 0.04351
1535.20798 0.04349
1533.92221 0.04353
1532.63644 0.04356
1531.35067 0.04353
1530.06490 0.04349
1528.77914 0.04348
1527.49337 0.04354
1526.20760 0.04364
1524.92183 0.04378
1523.63606 0.04394
1522.35029 0.04413
1521.06452 0.04433
1519.77875 0.04451
1518.49298 0.04470
1517.20722 0.04493
1515.92145 0.04521
1514.63568 0.04554
1513.34991 0.04591
1512.06414 0.04634
1510.77837 0.04688
1509.49260 0.04752
1508.20683 0.04822
1506.92107 0.04884
1505.63530 0.04928
1504.34953 0.04957
1503.06376 0.04984
1501.77799 0.05018
1500.49222 0.05057
1499.20645 0.05095
1497.92068 0.05127
1496.63491 0.05151
1495.34915 0.05169
1494.06338 0.05184
1492.77761 0.05200
1491.49184 0.05222
1490.20607 0.05252
1488.92030 0.05288
1487.63453 0.05328
1486.34876 0.05371
1485.06299 0.05422
1483.77723 0.05480
1482.49146 0.05545
1481.20569 0.05613
1479.91992 0.05678
1478.63415 0.05737
1477.34838 0.05784
1476.06261 0.05819
1474.77684 0.05848
1473.49108 0.05881
1472.20531 0.05925
1470.91954 0.05983
1469.63377 0.06048
1468.34800 0.06112
1467.06223 0.06168
1465.77646 0.06216
1464.49069 0.06266
1463.20492 0.06330
1461.91916 0.06416
1460.63339 0.06520
1459.34762 0.06629
1458.06185 0.06727
1456.77608 0.06805
1455.49031 0.06862
1454.20454 0.06902
1452.91877 0.06936
1451.63301 0.06972
1450.34724 0.07012
1449.06147 0.07048
1447.77570 0.07071
1446.48993 0.07076
1445.20416 0.07064
1443.91839 0.07044
1442.63262 0.07016
1441.34685 0.06984
1440.06109 0.06951
1438.77532 0.06925
1437.48955 0.06908
1436.20378 0.06897
1434.91801 0.06893
1433.63224 0.06898
1432.34647 0.06916
1431.06070 0.06951
1429.77494 0.07004
1428.48917 0.07072
1427.20340 0.07147
1425.91763 0.07222
1424.63186 0.07296
1423.34609 0.07372
1422.06032 0.07451
1420.77455 0.07533
1419.48878 0.07612
1418.20302 0.07683
1416.91725 0.07744
1415.63148 0.07794
1414.34571 0.07831
1413.05994 0.07855
1411.77417 0.07869
1410.48840 0.07872
1409.20263 0.07865
1407.91687 0.07845
1406.63110 0.07812
1405.34533 0.07761
1404.05956 0.07692
1402.77379 0.07608
1401.48802 0.07515
1400.20225 0.07415
1398.91648 0.07306
1397.63071 0.07184
1396.34495 0.07049
1395.05918 0.06905
1393.77341 0.06760
1392.48764 0.06620
1391.20187 0.06487
1389.91610 0.06360
1388.63033 0.06234
1387.34456 0.06107
1386.05880 0.05977
1384.77303 0.05844
1383.48726 0.05710
1382.20149 0.05575
1380.91572 0.05445
1379.62995 0.05320
1378.34418 0.05200
1377.05841 0.05079
1375.77264 0.04953
1374.48688 0.04819
1373.20111 0.04681
1371.91534 0.04542
1370.62957 0.04406
1369.34380 0.04279
1368.05803 0.04162
1366.77226 0.04056
1365.48649 0.03959
1364.20073 0.03867
1362.91496 0.03779
1361.62919 0.03694
1360.34342 0.03614
1359.05765 0.03541
1357.77188 0.03475
1356.48611 0.03416
1355.20034 0.03362
1353.91457 0.03311
1352.62881 0.03262
1351.34304 0.03217
1350.05727 0.03173
1348.77150 0.03132
1347.48573 0.03092
1346.19996 0.03056
1344.91419 0.03023
1343.62842 0.02992
1342.34266 0.02960
1341.05689 0.02926
1339.77112 0.02890
1338.48535 0.02854
1337.19958 0.02824
1335.91381 0.02799
1334.62804 0.02775
1333.34227 0.02743
1332.05650 0.02705
1330.77074 0.02665
1329.48497 0.02631
1328.19920 0.02603
1326.91343 0.02577
1325.62766 0.02552
1324.34189 0.02528
1323.05612 0.02508
1321.77035 0.02490
1320.48459 0.02469
1319.19882 0.02445
1317.91305 0.02419
1316.62728 0.02394
1315.34151 0.02370
1314.05574 0.02345
1312.76997 0.02318
1311.48420 0.02290
1310.19843 0.02266
1308.91267 0.02246
1307.62690 0.02229
1306.34113 0.02214
1305.05536 0.02199
1303.76959 0.02185
1302.48382 0.02169
1301.19805 0.02151
1299.91228 0.02134
1298.62652 0.02120
1297.34075 0.02109
1296.05498 0.02100
1294.76921 0.02092
1293.48344 0.02085
1292.19767 0.02077
1290.91190 0.02068
1289.62613 0.02056
1288.34036 0.02043
1287.05460 0.02032
1285.76883 0.02028
1284.48306 0.02027
1283.19729 0.02027
1281.91152 0.02022
1280.62575 0.02011
1279.33998 0.01997
1278.05421 0.01983
1276.76845 0.01973
1275.48268 0.01966
1274.19691 0.01959
1272.91114 0.01949
1271.62537 0.01936
1270.33960 0.01927
1269.05383 0.01923
1267.76806 0.01923
1266.48229 0.01922
1265.19653 0.01920
1263.91076 0.01918
1262.62499 0.01920
1261.33922 0.01921
1260.05345 0.01919
1258.76768 0.01912
1257.48191 0.01904
1256.19614 0.01897
1254.91037 0.01894
1253.62461 0.01895
1252.33884 0.01898
1251.05307 0.01901
1249.76730 0.01902
1248.48153 0.01900
1247.19576 0.01893
1245.90999 0.01886
1244.62422 0.01880
1243.33846 0.01877
1242.05269 0.01876
1240.76692 0.01870
1239.48115 0.01859
1238.19538 0.01843
1236.90961 0.01825
1235.62384 0.01811
1234.33807 0.01803
1233.05230 0.01802
1231.76654 0.01805
1230.48077 0.01804
1229.19500 0.01796
1227.90923 0.01780
1226.62346 0.01759
1225.33769 0.01736
1224.05192 0.01715
1222.76615 0.01697
1221.48039 0.01683
1220.19462 0.01670
1218.90885 0.01657
1217.62308 0.01643
1216.33731 0.01632
1215.05154 0.01626
1213.76577 0.01624
1212.48000 0.01620
1211.19423 0.01613
1209.90847 0.01607
1208.62270 0.01604
1207.33693 0.01607
1206.05116 0.01611
1204.76539 0.01612
1203.47962 0.01612
1202.19385 0.01612
1200.90808 0.01604
1199.62232 0.01585
1198.33655 0.01586
1197.05078 0.01588
1195.76501 0.01590
1194.47924 0.01590
1193.19347 0.01580
1191.90770 0.01560
1190.62193 0.01537
1189.33616 0.01519
1188.05040 0.01511
1186.76463 0.01506
1185.47886 0.01500
1184.19309 0.01491
1182.90732 0.01485
1181.62155 0.01486
1180.33578 0.01495
1179.05001 0.01505
1177.76425 0.01512
1176.47848 0.01516
1175.19271 0.01521
1173.90694 0.01529
1172.62117 0.01537
1171.33540 0.01541
1170.04963 0.01543
1168.76386 0.01545
1167.47809 0.01550
1166.19233 0.01558
1164.90656 0.01571
1163.62079 0.01586
1162.33502 0.01603
1161.04925 0.01622
1159.76348 0.01638
1158.47771 0.01648
1157.19194 0.01652
1155.90618 0.01656
1154.62041 0.01664
1153.33464 0.01679
1152.04887 0.01696
1150.76310 0.01714
1149.47733 0.01734
1148.19156 0.01760
1146.90579 0.01793
1145.62002 0.01832
1144.33426 0.01872
1143.04849 0.01913
1141.76272 0.01961
1140.47695 0.02017
1139.19118 0.02078
1137.90541 0.02138
1136.61964 0.02200
1135.33387 0.02272
1134.04811 0.02358
1132.76234 0.02454
1131.47657 0.02558
1130.19080 0.02670
1128.90503 0.02796
1127.61926 0.02942
1126.33349 0.03105
1125.04772 0.03277
1123.76195 0.03449
1122.47619 0.03623
1121.19042 0.03803
1119.90465 0.03996
1118.61888 0.04197
1117.33311 0.04398
1116.04734 0.04592
1114.76157 0.04780
1113.47580 0.04965
1112.19004 0.05148
1110.90427 0.05331
1109.61850 0.05514
1108.33273 0.05696
1107.04696 0.05873
1105.76119 0.06044
1104.47542 0.06210
1103.18965 0.06374
1101.90388 0.06534
1100.61812 0.06688
1099.33235 0.06835
1098.04658 0.06976
1096.76081 0.07110
1095.47504 0.07234
1094.18927 0.07346
1092.90350 0.07447
1091.61773 0.07544
1090.33197 0.07640
1089.04620 0.07733
1087.76043 0.07820
1086.47466 0.07902
1085.18889 0.07981
1083.90312 0.08064
1082.61735 0.08154
1081.33158 0.08252
1080.04581 0.08353
1078.76005 0.08456
1077.47428 0.08564
1076.18851 0.08679
1074.90274 0.08805
1073.61697 0.08941
1072.33120 0.09085
1071.04543 0.09234
1069.75966 0.09390
1068.47390 0.09549
1067.18813 0.09711
1065.90236 0.09873
1064.61659 0.10036
1063.33082 0.10204
1062.04505 0.10376
1060.75928 0.10545
1059.47351 0.10709
1058.18774 0.10870
1056.90198 0.11029
1055.61621 0.11188
1054.33044 0.11342
1053.04467 0.11492
1051.75890 0.11642
1050.47313 0.11797
1049.18736 0.11958
1047.90159 0.12125
1046.61583 0.12294
1045.33006 0.12463
1044.04429 0.12630
1042.75852 0.12794
1041.47275 0.12956
1040.18698 0.13119
1038.90121 0.13285
1037.61544 0.13452
1036.32967 0.13617
1035.04391 0.13781
1033.75814 0.13947
1032.47237 0.14110
1031.18660 0.14263
1029.90083 0.14402
1028.61506 0.14529
1027.32929 0.14648
1026.04352 0.14758
1024.75775 0.14853
1023.47199 0.14933
1022.18622 0.14996
1020.90045 0.15044
1019.61468 0.15077
1018.32891 0.15095
1017.04314 0.15099
1015.75737 0.15087
1014.47160 0.15057
1013.18584 0.15004
1011.90007 0.14930
1010.61430 0.14837
1009.32853 0.14728
1008.04276 0.14603
1006.75699 0.14462
1005.47122 0.14307
1004.18545 0.14137
1002.89968 0.13949
1001.61392 0.13740
1000.32815 0.13509
999.04238 0.13259
997.75661 0.12996
996.47084 0.12725
995.18507 0.12448
993.89930 0.12162
992.61353 0.11864
991.32777 0.11557
990.04200 0.11246
988.75623 0.10935
987.47046 0.10627
986.18469 0.10325
984.89892 0.10028
983.61315 0.09733
982.32738 0.09438
981.04161 0.09146
979.75585 0.08867
978.47008 0.08609
977.18431 0.08377
975.89854 0.08170
974.61277 0.07984
973.32700 0.07820
972.04123 0.07685
970.75546 0.07589
969.46970 0.07534
968.18393 0.07517
966.89816 0.07530
965.61239 0.07564
964.32662 0.07606
963.04085 0.07644
961.75508 0.07666
960.46931 0.07661
959.18354 0.07621
957.89778 0.07541
956.61201 0.07429
955.32624 0.07296
954.04047 0.07151
952.75470 0.06999
951.46893 0.06840
950.18316 0.06679
948.89739 0.06517
947.61163 0.06359
946.32586 0.06204
945.04009 0.06051
943.75432 0.05900
942.46855 0.05752
941.18278 0.05612
939.89701 0.05480
938.61124 0.05356
937.32547 0.05237
936.03971 0.05122
934.75394 0.05013
933.46817 0.04913
932.18240 0.04819
930.89663 0.04726
929.61086 0.04632
928.32509 0.04542
927.03932 0.04459
925.75356 0.04386
924.46779 0.04318
923.18202 0.04255
921.89625 0.04194
920.61048 0.04138
919.32471 0.04085
918.03894 0.04034
916.75317 0.03984
915.46740 0.03933
914.18164 0.03883
912.89587 0.03838
911.61010 0.03802
910.32433 0.03770
909.03856 0.03731
907.75279 0.03681
906.46702 0.03626
905.18125 0.03580
903.89549 0.03550
902.60972 0.03527
901.32395 0.03501
900.03818 0.03465
898.75241 0.03419
897.46664 0.03367
896.18087 0.03317
894.89510 0.03276
893.60933 0.03248
892.32357 0.03230
891.03780 0.03216
889.75203 0.03207
888.46626 0.03213
887.18049 0.03248
885.89472 0.03314
884.60895 0.03416
883.32318 0.03558
882.03742 0.03738
880.75165 0.03931
879.46588 0.04102
878.18011 0.04231
876.89434 0.04332
875.60857 0.04431
874.32280 0.04538
873.03703 0.04634
871.75126 0.04694
870.46550 0.04699
869.17973 0.04643
867.89396 0.04536
866.60819 0.04394
865.32242 0.04232
864.03665 0.04061
862.75088 0.03890
861.46511 0.03730
860.17935 0.03592
858.89358 0.03477
857.60781 0.03378
856.32204 0.03291
855.03627 0.03219
853.75050 0.03166
852.46473 0.03130
851.17896 0.03102
849.89319 0.03071
848.60743 0.03031
847.32166 0.02983
846.03589 0.02933
844.75012 0.02894
843.46435 0.02868
842.17858 0.02852
840.89281 0.02837
839.60704 0.02820
838.32128 0.02801
837.03551 0.02783
835.74974 0.02770
834.46397 0.02759
833.17820 0.02748
831.89243 0.02734
830.60666 0.02718
829.32089 0.02703
828.03512 0.02685
826.74936 0.02668
825.46359 0.02657
824.17782 0.02658
822.89205 0.02664
821.60628 0.02664
820.32051 0.02655
819.03474 0.02641
817.74897 0.02627
816.46321 0.02616
815.17744 0.02610
813.89167 0.02612
812.60590 0.02617
811.32013 0.02618
810.03436 0.02610
808.74859 0.02599
807.46282 0.02598
806.17705 0.02608
804.89129 0.02622
803.60552 0.02624
802.31975 0.02611
801.03398 0.02589
799.74821 0.02571
798.46244 0.02561
797.17667 0.02559
795.89090 0.02562
794.60513 0.02565
793.31937 0.02569
792.03360 0.02575
790.74783 0.02583
789.46206 0.02588
788.17629 0.02583
786.89052 0.02571
785.60475 0.02562
784.31898 0.02559
783.03322 0.02556
781.74745 0.02545
780.46168 0.02531
779.17591 0.02524
777.89014 0.02532
776.60437 0.02548
775.31860 0.02560
774.03283 0.02561
772.74706 0.02556
771.46130 0.02550
770.17553 0.02550
768.88976 0.02556
767.60399 0.02566
766.31822 0.02574
765.03245 0.02574
763.74668 0.02560
762.46091 0.02535
761.17515 0.02512
759.88938 0.02501
758.60361 0.02508
757.31784 0.02528
756.03207 0.02549
754.74630 0.02562
753.46053 0.02563
752.17476 0.02557
750.88899 0.02546
749.60323 0.02534
748.31746 0.02523
747.03169 0.02512
745.74592 0.02505
744.46015 0.02502
743.17438 0.02499
741.88861 0.02494
740.60284 0.02486
739.31708 0.02477
738.03131 0.02473
736.74554 0.02475
735.45977 0.02479
734.17400 0.02478
732.88823 0.02470
731.60246 0.02457
730.31669 0.02445
729.03092 0.02441
727.74516 0.02451
726.45939 0.02469
725.17362 0.02479
723.88785 0.02463
722.60208 0.02447
721.31631 0.02439
720.03054 0.02444
718.74477 0.02460
717.45901 0.02479
716.17324 0.02493
714.88747 0.02498
713.60170 0.02492
712.31593 0.02479
711.03016 0.02465
709.74439 0.02454
708.45862 0.02447
707.17285 0.02443
705.88709 0.02440
704.60132 0.02437
703.31555 0.02435
702.02978 0.02434
700.74401 0.02436
699.45824 0.02440
698.17247 0.02446
696.88670 0.02450
695.60094 0.02452
694.31517 0.02452
693.02940 0.02449
691.74363 0.02446
690.45786 0.02444
689.17209 0.02445
687.88632 0.02446
686.60055 0.02445
685.31478 0.02441
684.02902 0.02433
682.74325 0.02423
681.45748 0.02411
680.17171 0.02399
678.88594 0.02391
677.60017 0.02389
676.31440 0.02394
675.02863 0.02404
673.74287 0.02421
672.45710 0.02442
671.17133 0.02467
669.88556 0.02490
668.59979 0.02505
667.31402 0.02509
666.02825 0.02499
664.74248 0.02479
663.45671 0.02455
662.17095 0.02434
660.88518 0.02417
659.59941 0.02407
658.31364 0.02401
657.02787 0.02396
655.74210 0.02389
654.45633 0.02379
653.17056 0.02372
651.88480 0.02370
650.59903 0.02372
649.31326 0.02372
648.02749 0.02369
646.74172 0.02364
645.45595 0.02362
644.17018 0.02361
642.88441 0.02357
641.59864 0.02348
640.31288 0.02334
639.02711 0.02321
637.74134 0.02313
636.45557 0.02315
635.16980 0.02328
633.88403 0.02346
632.59826 0.02361
631.31249 0.02387
630.02673 0.02502
628.74096 0.02688
627.45519 0.02670
626.16942 0.02950
624.88365 0.03420
623.59788 0.03835
622.31211 0.04081
621.02634 0.04148
619.74057 0.04079
618.45481 0.03932
617.16904 0.03766
615.88327 0.03648
614.59750 0.03622
613.31173 0.03718
612.02596 0.03968
610.74019 0.04372
609.45442 0.04843
608.16866 0.05268
606.88289 0.05619
605.59712 0.05948
604.31135 0.06269
603.02558 0.06516
601.73981 0.06618
600.45404 0.06573
599.16827 0.06431
597.88250 0.06245
596.59674 0.06043
595.31097 0.05846
594.02520 0.05670
592.73943 0.05526
591.45366 0.05415
590.16789 0.05330
588.88212 0.05276
587.59635 0.05262
586.31059 0.05295
585.02482 0.05367
583.73905 0.05460
582.45328 0.05557
581.16751 0.05654
579.88174 0.05754
578.59597 0.05866
577.31020 0.05996
576.02443 0.06136
574.73867 0.06276
573.45290 0.06411
572.16713 0.06548
570.88136 0.06698
569.59559 0.06865
568.30982 0.07047
567.02405 0.07235
565.73828 0.07418
564.45251 0.07579
563.16675 0.07698
561.88098 0.07762
560.59521 0.07767
559.30944 0.07714
558.02367 0.07608
556.73790 0.07453
555.45213 0.07259
554.16636 0.07031
552.88060 0.06779
551.59483 0.06514
550.30906 0.06250
549.02329 0.05997
547.73752 0.05761
546.45175 0.05542
545.16598 0.05340
543.88021 0.05156
542.59444 0.04990
541.30868 0.04837
540.02291 0.04694
538.73714 0.04556
537.45137 0.04421
536.16560 0.04295
534.87983 0.04181
533.59406 0.04083
532.30829 0.03997
531.02253 0.03918
529.73676 0.03843
528.45099 0.03773
527.16522 0.03708
525.87945 0.03646
524.59368 0.03582
523.30791 0.03519
522.02214 0.03460
520.73637 0.03406
519.45061 0.03353
518.16484 0.03295
516.87907 0.03230
515.59330 0.03167
514.30753 0.03112
513.02176 0.03069
511.73599 0.03030
510.45022 0.02989
509.16446 0.02943
507.87869 0.02895
506.59292 0.02851
505.30715 0.02814
504.02138 0.02780
502.73561 0.02747
501.44984 0.02716
500.16407 0.02685
498.87830 0.02654
497.59254 0.02621
496.30677 0.02587
495.02100 0.02555
493.73523 0.02525
492.44946 0.02499
491.16369 0.02476
489.87792 0.02459
488.59215 0.02445
487.30639 0.02431
486.02062 0.02412
484.73485 0.02388
483.44908 0.02366
482.16331 0.02349
480.87754 0.02341
479.59177 0.02339
478.30600 0.02343
477.02023 0.02350
475.73447 0.02361
474.44870 0.02372
473.16293 0.02379
471.87716 0.02380
470.59139 0.02379
469.30562 0.02376
468.01985 0.02369
466.73408 0.02356
465.44832 0.02339
464.16255 0.02322
462.87678 0.02306
461.59101 0.02290
460.30524 0.02266
459.01947 0.02233
457.73370 0.02194
456.44793 0.02158
455.16216 0.02132
453.87640 0.02113
452.59063 0.02094
451.30486 0.02071
450.01909 0.02044
448.73332 0.02013
447.44755 0.01985
446.16178 0.01960
444.87601 0.01941
443.59025 0.01925
442.30448 0.01909
441.01871 0.01891
439.73294 0.01872
438.44717 0.01857
437.16140 0.01846
435.87563 0.01835
434.58986 0.01825
433.30409 0.01818
432.01833 0.01817
430.73256 0.01817
429.44679 0.01809
428.16102 0.01788
426.87525 0.01759
425.58948 0.01731
424.30371 0.01711
423.01794 0.01704
421.73218 0.01705
420.44641 0.01708
419.16064 0.01706
417.87487 0.01695
416.58910 0.01676
415.30333 0.01656
414.01756 0.01641
412.73179 0.01632
411.44602 0.01626
410.16026 0.01618
408.87449 0.01606
407.58872 0.01595
406.30295 0.01590
405.01718 0.01590
403.73141 0.01592
402.44564 0.01589
401.15987 0.01585
399.87411 0.01583
