3997.45528 0.05646
3996.16951 0.05669
3994.88374 0.05724
3993.59798 0.05791
3992.31221 0.05857
3991.02644 0.05913
3989.74067 0.05942
3988.45490 0.05919
3987.16913 0.05852
3985.88336 0.05777
3984.59759 0.05733
3983.31183 0.05717
3982.02606 0.05704
3980.74029 0.05680
3979.45452 0.05670
3978.16875 0.05707
3976.88298 0.05792
3975.59721 0.05894
3974.31144 0.05966
3973.02567 0.05970
3971.73991 0.05892
3970.45414 0.05759
3969.16837 0.05643
3967.88260 0.05614
3966.59683 0.05694
3965.31106 0.05838
3964.02529 0.05967
3962.73952 0.06011
3961.45376 0.05953
3960.16799 0.05835
3958.88222 0.05728
3957.59645 0.05672
3956.31068 0.05641
3955.02491 0.05588
3953.73914 0.05521
3952.45337 0.05504
3951.16760 0.05572
3949.88184 0.05670
3948.59607 0.05703
3947.31030 0.05653
3946.02453 0.05582
3944.73876 0.05559
3943.45299 0.05587
3942.16722 0.05634
3940.88145 0.05680
3939.59569 0.05721
3938.30992 0.05744
3937.02415 0.05739
3935.73838 0.05713
3934.45261 0.05678
3933.16684 0.05635
3931.88107 0.05579
3930.59530 0.05516
3929.30953 0.05470
3928.02377 0.05475
3926.73800 0.05550
3925.45223 0.05687
3924.16646 0.05832
3922.88069 0.05917
3921.59492 0.05916
3920.30915 0.05869
3919.02338 0.05825
3917.73762 0.05785
3916.45185 0.05720
3915.16608 0.05623
3913.88031 0.05509
3912.59454 0.05401
3911.30877 0.05319
3910.02300 0.05288
3908.73723 0.05315
3907.45146 0.05367
3906.16570 0.05393
3904.87993 0.05387
3903.59416 0.05394
3902.30839 0.05460
3901.02262 0.05578
3899.73685 0.05693
3898.45108 0.05756
3897.16531 0.05761
3895.87955 0.05746
3894.59378 0.05742
3893.30801 0.05753
3892.02224 0.05760
3890.73647 0.05744
3889.45070 0.05683
3888.16493 0.05569
3886.87916 0.05436
3885.59339 0.05357
3884.30763 0.05378
3883.02186 0.05477
3881.73609 0.05591
3880.45032 0.05669
3879.16455 0.05686
3877.87878 0.05630
3876.59301 0.05501
3875.30724 0.05348
3874.02148 0.05266
3872.73571 0.05341
3871.44994 0.05558
3870.16417 0.05793
3868.87840 0.05892
3867.59263 0.05798
3866.30686 0.05596
3865.02109 0.05430
3863.73532 0.05365
3862.44956 0.05363
3861.16379 0.05373
3859.87802 0.05395
3858.59225 0.05444
3857.30648 0.05511
3856.02071 0.05569
3854.73494 0.05609
3853.44917 0.05638
3852.16341 0.05651
3850.87764 0.05633
3849.59187 0.05593
3848.30610 0.05560
3847.02033 0.05550
3845.73456 0.05557
3844.44879 0.05570
3843.16302 0.05581
3841.87725 0.05580
3840.59149 0.05548
3839.30572 0.05478
3838.01995 0.05388
3836.73418 0.05313
3835.44841 0.05294
3834.16264 0.05353
3832.87687 0.05463
3831.59110 0.05545
3830.30534 0.05525
3829.01957 0.05412
3827.73380 0.05276
3826.44803 0.05181
3825.16226 0.05139
3823.87649 0.05134
3822.59072 0.05159
3821.30495 0.05212
3820.01918 0.05266
3818.73342 0.05278
3817.44765 0.05233
3816.16188 0.05180
3814.87611 0.05188
3813.59034 0.05268
3812.30457 0.05368
3811.01880 0.05428
3809.73303 0.05426
3808.44726 0.05380
3807.16150 0.05314
3805.87573 0.05244
3804.58996 0.05179
3803.30419 0.05134
3802.01842 0.05126
3800.73265 0.05158
3799.44688 0.05219
3798.16111 0.05299
3796.87535 0.05389
3795.58958 0.05446
3794.30381 0.05408
3793.01804 0.05265
3791.73227 0.05087
3790.44650 0.04975
3789.16073 0.04985
3787.87496 0.05095
3786.58919 0.05237
3785.30343 0.05332
3784.01766 0.05338
3782.73189 0.05261
3781.44612 0.05139
3780.16035 0.05013
3778.87458 0.04915
3777.58881 0.04865
3776.30304 0.04876
3775.01728 0.04940
3773.73151 0.05021
3772.44574 0.05082
3771.15997 0.05119
3769.87420 0.05153
3768.58843 0.05195
3767.30266 0.05215
3766.01689 0.05179
3764.73112 0.05095
3763.44536 0.05011
3762.15959 0.04963
3760.87382 0.04950
3759.58805 0.04948
3758.30228 0.04955
3757.01651 0.04997
3755.73074 0.05073
3754.44497 0.05131
3753.15921 0.05125
3751.87344 0.05063
3750.58767 0.05001
3749.30190 0.04998
3748.01613 0.05075
3746.73036 0.05189
3745.44459 0.05267
3744.15882 0.05265
3742.87305 0.05187
3741.58729 0.05085
3740.30152 0.05026
3739.01575 0.05031
3737.72998 0.05062
3736.44421 0.05076
3735.15844 0.05057
3733.87267 0.05009
3732.58690 0.04948
3731.30114 0.04889
3730.01537 0.04833
3728.72960 0.04780
3727.44383 0.04749
3726.15806 0.04773
3724.87229 0.04863
3723.58652 0.04980
3722.30075 0.05062
3721.01498 0.05072
3719.72922 0.05033
3718.44345 0.05009
3717.15768 0.05036
3715.87191 0.05084
3714.58614 0.05083
3713.30037 0.05007
3712.01460 0.04899
3710.72883 0.04822
3709.44307 0.04794
3708.15730 0.04786
3706.87153 0.04771
3705.58576 0.04746
3704.29999 0.04716
3703.01422 0.04683
3701.72845 0.04637
3700.44268 0.04580
3699.15691 0.04541
3697.87115 0.04559
3696.58538 0.04634
3695.29961 0.04718
3694.01384 0.04764
3692.72807 0.04770
3691.44230 0.04757
3690.15653 0.04725
3688.87076 0.04667
3687.58500 0.04617
3686.29923 0.04626
3685.01346 0.04692
3683.72769 0.04755
3682.44192 0.04767
3681.15615 0.04738
3679.87038 0.04725
3678.58461 0.04748
3677.29884 0.04763
3676.01308 0.04748
3674.72731 0.04758
3673.44154 0.04861
3672.15577 0.05048
3670.87000 0.05229
3669.58423 0.05323
3668.29846 0.05324
3667.01269 0.05280
3665.72693 0.05215
3664.44116 0.05114
3663.15539 0.04975
3661.86962 0.04855
3660.58385 0.04821
3659.29808 0.04882
3658.01231 0.04983
3656.72654 0.05063
3655.44077 0.05097
3654.15501 0.05089
3652.86924 0.05061
3651.58347 0.05035
3650.29770 0.05022
3649.01193 0.05017
3647.72616 0.05019
3646.44039 0.05033
3645.15462 0.05057
3643.86886 0.05079
3642.58309 0.05097
3641.29732 0.05117
3640.01155 0.05144
3638.72578 0.05186
3637.44001 0.05243
3636.15424 0.05306
3634.86847 0.05354
3633.58270 0.05376
3632.29694 0.05378
3631.01117 0.05376
3629.72540 0.05385
3628.43963 0.05407
3627.15386 0.05420
3625.86809 0.05396
3624.58232 0.05346
3623.29655 0.05304
3622.01079 0.05280
3620.72502 0.05257
3619.43925 0.05228
3618.15348 0.05212
3616.86771 0.05231
3615.58194 0.05291
3614.29617 0.05396
3613.01040 0.05521
3611.72463 0.05616
3610.43887 0.05643
3609.15310 0.05636
3607.86733 0.05663
3606.58156 0.05742
3605.29579 0.05832
3604.01002 0.05889
3602.72425 0.05904
3601.43848 0.05895
3600.15272 0.05891
3598.86695 0.05917
3597.58118 0.05969
3596.29541 0.05997
3595.00964 0.05961
3593.72387 0.05887
3592.43810 0.05850
3591.15233 0.05894
3589.86656 0.05987
3588.58080 0.06064
3587.29503 0.06086
3586.00926 0.06079
3584.72349 0.06098
3583.43772 0.06154
3582.15195 0.06204
3580.86618 0.06202
3579.58041 0.06159
3578.29464 0.06145
3577.00888 0.06215
3575.72311 0.06343
3574.43734 0.06445
3573.15157 0.06459
3571.86580 0.06405
3570.58003 0.06351
3569.29426 0.06341
3568.00849 0.06364
3566.72273 0.06393
3565.43696 0.06437
3564.15119 0.06513
3562.86542 0.06613
3561.57965 0.06700
3560.29388 0.06754
3559.00811 0.06789
3557.72234 0.06835
3556.43657 0.06901
3555.15081 0.06975
3553.86504 0.07049
3552.57927 0.07117
3551.29350 0.07166
3550.00773 0.07171
3548.72196 0.07128
3547.43619 0.07076
3546.15042 0.07061
3544.86466 0.07090
3543.57889 0.07133
3542.29312 0.07165
3541.00735 0.07196
3539.72158 0.07239
3538.43581 0.07281
3537.15004 0.07300
3535.86427 0.07287
3534.57850 0.07253
3533.29274 0.07234
3532.00697 0.07268
3530.72120 0.07358
3529.43543 0.07452
3528.14966 0.07491
3526.86389 0.07471
3525.57812 0.07436
3524.29235 0.07428
3523.00659 0.07453
3521.72082 0.07491
3520.43505 0.07527
3519.14928 0.07548
3517.86351 0.07548
3516.57774 0.07536
3515.29197 0.07528
3514.00620 0.07533
3512.72043 0.07535
3511.43467 0.07515
3510.14890 0.07482
3508.86313 0.07464
3507.57736 0.07484
3506.29159 0.07546
3505.00582 0.07645
3503.72005 0.07762
3502.43428 0.07857
3501.14852 0.07891
3499.86275 0.07871
3498.57698 0.07841
3497.29121 0.07846
3496.00544 0.07890
3494.71967 0.07947
3493.43390 0.07984
3492.14813 0.07981
3490.86236 0.07946
3489.57660 0.07908
3488.29083 0.07894
3487.00506 0.07917
3485.71929 0.07973
3484.43352 0.08055
3483.14775 0.08140
3481.86198 0.08199
3480.57621 0.08213
3479.29045 0.08202
3478.00468 0.08205
3476.71891 0.08243
3475.43314 0.08296
3474.14737 0.08333
3472.86160 0.08348
3471.57583 0.08366
3470.29006 0.08410
3469.00429 0.08472
3467.71853 0.08520
3466.43276 0.08523
3465.14699 0.08482
3463.86122 0.08428
3462.57545 0.08396
3461.28968 0.08401
3460.00391 0.08439
3458.71814 0.08489
3457.43238 0.08523
3456.14661 0.08526
3454.86084 0.08514
3453.57507 0.08516
3452.28930 0.08539
3451.00353 0.08554
3449.71776 0.08538
3448.43199 0.08499
3447.14622 0.08465
3445.86046 0.08458
3444.57469 0.08480
3443.28892 0.08517
3442.00315 0.08551
3440.71738 0.08571
3439.43161 0.08582
3438.14584 0.08599
3436.86007 0.08636
3435.57431 0.08695
3434.28854 0.08767
3433.00277 0.08832
3431.71700 0.08872
3430.43123 0.08873
3429.14546 0.08835
3427.85969 0.08763
3426.57392 0.08677
3425.28815 0.08608
3424.00239 0.08587
3422.71662 0.08617
3421.43085 0.08676
3420.14508 0.08742
3418.85931 0.08803
3417.57354 0.08849
3416.28777 0.08876
3415.00200 0.08891
3413.71624 0.08913
3412.43047 0.08948
3411.14470 0.08985
3409.85893 0.09010
3408.57316 0.09017
3407.28739 0.09015
3406.00162 0.09024
3404.71585 0.09062
3403.43008 0.09132
3402.14432 0.09214
3400.85855 0.09286
3399.57278 0.09332
3398.28701 0.09336
3397.00124 0.09298
3395.71547 0.09235
3394.42970 0.09183
3393.14393 0.09181
3391.85817 0.09232
3390.57240 0.09305
3389.28663 0.09369
3388.00086 0.09410
3386.71509 0.09421
3385.42932 0.09394
3384.14355 0.09337
3382.85778 0.09287
3381.57201 0.09281
3380.28625 0.09320
3379.00048 0.09366
3377.71471 0.09373
3376.42894 0.09328
3375.14317 0.09250
3373.85740 0.09189
3372.57163 0.09187
3371.28586 0.09248
3370.00010 0.09324
3368.71433 0.09354
3367.42856 0.09318
3366.14279 0.09252
3364.85702 0.09208
3363.57125 0.09206
3362.28548 0.09233
3360.99971 0.09271
3359.71394 0.09316
3358.42818 0.09363
3357.14241 0.09398
3355.85664 0.09407
3354.57087 0.09393
3353.28510 0.09373
3351.99933 0.09358
3350.71356 0.09347
3349.42779 0.09331
3348.14202 0.09307
3346.85626 0.09286
3345.57049 0.09285
3344.28472 0.09310
3342.99895 0.09346
3341.71318 0.09367
3340.42741 0.09363
3339.14164 0.09349
3337.85587 0.09342
3336.57011 0.09340
3335.28434 0.09331
3333.99857 0.09310
3332.71280 0.09293
3331.42703 0.09296
3330.14126 0.09321
3328.85549 0.09344
3327.56972 0.09337
3326.28395 0.09295
3324.99819 0.09244
3323.71242 0.09219
3322.42665 0.09227
3321.14088 0.09255
3319.85511 0.09278
3318.56934 0.09280
3317.28357 0.09252
3315.99780 0.09200
3314.71204 0.09148
3313.42627 0.09131
3312.14050 0.09163
3310.85473 0.09222
3309.56896 0.09274
3308.28319 0.09305
3306.99742 0.09329
3305.71165 0.09366
3304.42588 0.09411
3303.14012 0.09439
3301.85435 0.09426
3300.56858 0.09385
3299.28281 0.09346
3297.99704 0.09334
3296.71127 0.09339
3295.42550 0.09341
3294.13973 0.09335
3292.85397 0.09345
3291.56820 0.09392
3290.28243 0.09460
3288.99666 0.09496
3287.71089 0.09456
3286.42512 0.09343
3285.13935 0.09197
3283.85358 0.09061
3282.56781 0.08969
3281.28205 0.08949
3279.99628 0.09007
3278.71051 0.09109
3277.42474 0.09193
3276.13897 0.09220
3274.85320 0.09199
3273.56743 0.09175
3272.28166 0.09189
3270.99590 0.09256
3269.71013 0.09347
3268.42436 0.09402
3267.13859 0.09381
3265.85282 0.09304
3264.56705 0.09230
3263.28128 0.09201
3261.99551 0.09217
3260.70974 0.09242
3259.42398 0.09235
3258.13821 0.09169
3256.85244 0.09050
3255.56667 0.08918
3254.28090 0.08825
3252.99513 0.08805
3251.70936 0.08857
3250.42359 0.08947
3249.13783 0.09022
3247.85206 0.09042
3246.56629 0.09008
3245.28052 0.08958
3243.99475 0.08928
3242.70898 0.08929
3241.42321 0.08948
3240.13744 0.08965
3238.85167 0.08964
3237.56591 0.08941
3236.28014 0.08907
3234.99437 0.08877
3233.70860 0.08861
3232.42283 0.08859
3231.13706 0.08873
3229.85129 0.08910
3228.56552 0.08965
3227.27976 0.09009
3225.99399 0.09006
3224.70822 0.08950
3223.42245 0.08870
3222.13668 0.08796
3220.85091 0.08738
3219.56514 0.08695
3218.27937 0.08669
3216.99360 0.08667
3215.70784 0.08689
3214.42207 0.08725
3213.13630 0.08762
3211.85053 0.08788
3210.56476 0.08799
3209.27899 0.08796
3207.99322 0.08780
3206.70745 0.08744
3205.42169 0.08685
3204.13592 0.08619
3202.85015 0.08573
3201.56438 0.08563
3200.27861 0.08578
3198.99284 0.08595
3197.70707 0.08606
3196.42130 0.08613
3195.13553 0.08613
3193.84977 0.08595
3192.56400 0.08558
3191.27823 0.08513
3189.99246 0.08471
3188.70669 0.08432
3187.42092 0.08401
3186.13515 0.08398
3184.84938 0.08435
3183.56362 0.08499
3182.27785 0.08550
3180.99208 0.08556
3179.70631 0.08519
3178.42054 0.08467
3177.13477 0.08421
3175.84900 0.08383
3174.56323 0.08352
3173.27746 0.08328
3171.99170 0.08310
3170.70593 0.08284
3169.42016 0.08235
3168.13439 0.08175
3166.84862 0.08140
3165.56285 0.08159
3164.27708 0.08216
3162.99131 0.08270
3161.70555 0.08282
3160.41978 0.08248
3159.13401 0.08182
3157.84824 0.08107
3156.56247 0.08044
3155.27670 0.08017
3153.99093 0.08032
3152.70516 0.08071
3151.41939 0.08099
3150.13363 0.08095
3148.84786 0.08068
3147.56209 0.08043
3146.27632 0.08032
3144.99055 0.08025
3143.70478 0.08009
3142.41901 0.07983
3141.13324 0.07957
3139.84748 0.07933
3138.56171 0.07913
3137.27594 0.07898
3135.99017 0.07900
3134.70440 0.07923
3133.41863 0.07954
3132.13286 0.07968
3130.84709 0.07961
3129.56132 0.07951
3128.27556 0.07954
3126.98979 0.07956
3125.70402 0.07941
3124.41825 0.07906
3123.13248 0.07857
3121.84671 0.07789
3120.56094 0.07698
3119.27517 0.07601
3117.98940 0.07530
3116.70364 0.07504
3115.41787 0.07508
3114.13210 0.07515
3112.84633 0.07515
3111.56056 0.07516
3110.27479 0.07525
3108.98902 0.07542
3107.70325 0.07566
3106.41749 0.07595
3105.13172 0.07628
3103.84595 0.07656
3102.56018 0.07659
3101.27441 0.07630
3099.98864 0.07584
3098.70287 0.07555
3097.41710 0.07562
3096.13133 0.07593
3094.84557 0.07618
3093.55980 0.07620
3092.27403 0.07598
3090.98826 0.07560
3089.70249 0.07507
3088.41672 0.07450
3087.13095 0.07411
3085.84518 0.07400
3084.55942 0.07405
3083.27365 0.07399
3081.98788 0.07371
3080.70211 0.07336
3079.41634 0.07312
3078.13057 0.07299
3076.84480 0.07284
3075.55903 0.07268
3074.27326 0.07274
3072.98750 0.07315
3071.70173 0.07369
3070.41596 0.07399
3069.13019 0.07387
3067.84442 0.07351
3066.55865 0.07320
3065.27288 0.07304
3063.98711 0.07292
3062.70135 0.07271
3061.41558 0.07248
3060.12981 0.07241
3058.84404 0.07259
3057.55827 0.07282
3056.27250 0.07285
3054.98673 0.07258
3053.70096 0.07216
3052.41519 0.07181
3051.12943 0.07159
3049.84366 0.07143
3048.55789 0.07124
3047.27212 0.07093
3045.98635 0.07049
3044.70058 0.07000
3043.41481 0.06968
3042.12904 0.06973
3040.84328 0.07016
3039.55751 0.07069
3038.27174 0.07097
3036.98597 0.07082
3035.70020 0.07033
3034.41443 0.06977
3033.12866 0.06937
3031.84289 0.06917
3030.55712 0.06912
3029.27136 0.06914
3027.98559 0.06921
3026.69982 0.06922
3025.41405 0.06898
3024.12828 0.06848
3022.84251 0.06790
3021.55674 0.06753
3020.27097 0.06751
3018.98521 0.06773
3017.69944 0.06798
3016.41367 0.06809
3015.12790 0.06799
3013.84213 0.06777
3012.55636 0.06753
3011.27059 0.06732
3009.98482 0.06710
3008.69905 0.06686
3007.41329 0.06667
3006.12752 0.06663
3004.84175 0.06674
3003.55598 0.06690
3002.27021 0.06699
3000.98444 0.06696
2999.69867 0.06684
2998.41290 0.06660
2997.12714 0.06630
2995.84137 0.06602
2994.55560 0.06586
2993.26983 0.06588
2991.98406 0.06605
2990.69829 0.06627
2989.41252 0.06648
2988.12675 0.06667
2986.84098 0.06685
2985.55522 0.06702
2984.26945 0.06714
2982.98368 0.06713
2981.69791 0.06707
2980.41214 0.06716
2979.12637 0.06748
2977.84060 0.06791
2976.55483 0.06828
2975.26907 0.06859
2973.98330 0.06889
2972.69753 0.06919
2971.41176 0.06941
2970.12599 0.06958
2968.84022 0.06990
2967.55445 0.07058
2966.26868 0.07165
2964.98291 0.07293
2963.69715 0.07420
2962.41138 0.07533
2961.12561 0.07622
2959.83984 0.07684
2958.55407 0.07722
2957.26830 0.07746
2955.98253 0.07758
2954.69676 0.07752
2953.41100 0.07725
2952.12523 0.07686
2950.83946 0.07642
2949.55369 0.07594
2948.26792 0.07552
2946.98215 0.07538
2945.69638 0.07563
2944.41061 0.07605
2943.12484 0.07626
2941.83908 0.07617
2940.55331 0.07606
2939.26754 0.07628
2937.98177 0.07687
2936.69600 0.07758
2935.41023 0.07814
2934.12446 0.07849
2932.83869 0.07871
2931.55293 0.07894
2930.26716 0.07921
2928.98139 0.07945
2927.69562 0.07959
2926.40985 0.07971
2925.12408 0.07992
2923.83831 0.08019
2922.55254 0.08029
2921.26677 0.07994
2919.98101 0.07918
2918.69524 0.07828
2917.40947 0.07756
2916.12370 0.07703
2914.83793 0.07655
2913.55216 0.07603
2912.26639 0.07555
2910.98062 0.07509
2909.69486 0.07456
2908.40909 0.07397
2907.12332 0.07348
2905.83755 0.07319
2904.55178 0.07302
2903.26601 0.07271
2901.98024 0.07213
2900.69447 0.07135
2899.40870 0.07058
2898.12294 0.07000
2896.83717 0.06971
2895.55140 0.06972
2894.26563 0.06988
2892.97986 0.06993
2891.69409 0.06968
2890.40832 0.06914
2889.12255 0.06846
2887.83678 0.06787
2886.55102 0.06755
2885.26525 0.06745
2883.97948 0.06741
2882.69371 0.06728
2881.40794 0.06707
2880.12217 0.06684
2878.83640 0.06665
2877.55063 0.06660
2876.26487 0.06667
2874.97910 0.06680
2873.69333 0.06696
2872.40756 0.06721
2871.12179 0.06752
2869.83602 0.06770
2868.55025 0.06751
2867.26448 0.06700
2865.97871 0.06646
2864.69295 0.06619
2863.40718 0.06626
2862.12141 0.06641
2860.83564 0.06632
2859.54987 0.06588
2858.26410 0.06524
2856.97833 0.06463
2855.69256 0.06424
2854.40680 0.06409
2853.12103 0.06407
2851.83526 0.06405
2850.54949 0.06387
2849.26372 0.06346
2847.97795 0.06280
2846.69218 0.06207
2845.40641 0.06151
2844.12064 0.06118
2842.83488 0.06088
2841.54911 0.06036
2840.26334 0.05957
2838.97757 0.05874
2837.69180 0.05814
2836.40603 0.05784
2835.12026 0.05771
2833.83449 0.05750
2832.54873 0.05708
2831.26296 0.05647
2829.97719 0.05588
2828.69142 0.05552
2827.40565 0.05538
2826.11988 0.05525
2824.83411 0.05494
2823.54834 0.05448
2822.26257 0.05408
2820.97681 0.05390
2819.69104 0.05390
2818.40527 0.05390
2817.11950 0.05374
2815.83373 0.05340
2814.54796 0.05304
2813.26219 0.05273
2811.97642 0.05243
2810.69066 0.05205
2809.40489 0.05168
2808.11912 0.05146
2806.83335 0.05143
2805.54758 0.05146
2804.26181 0.05145
2802.97604 0.05139
2801.69027 0.05132
2800.40450 0.05120
2799.11874 0.05100
2797.83297 0.05073
2796.54720 0.05050
2795.26143 0.05043
2793.97566 0.05050
2792.68989 0.05057
2791.40412 0.05044
2790.11835 0.05005
2788.83259 0.04950
2787.54682 0.04902
2786.26105 0.04880
2784.97528 0.04885
2783.68951 0.04908
2782.40374 0.04931
2781.11797 0.04938
2779.83220 0.04925
2778.54643 0.04909
2777.26067 0.04914
2775.97490 0.04943
2774.68913 0.04975
2773.40336 0.04980
2772.11759 0.04956
2770.83182 0.04918
2769.54605 0.04880
2768.26028 0.04841
2766.97452 0.04798
2765.68875 0.04764
2764.40298 0.04758
2763.11721 0.04780
2761.83144 0.04813
2760.54567 0.04839
2759.25990 0.04852
2757.97413 0.04853
2756.68836 0.04839
2755.40260 0.04806
2754.11683 0.04757
2752.83106 0.04705
2751.54529 0.04671
2750.25952 0.04670
2748.97375 0.04699
2747.68798 0.04738
2746.40221 0.04759
2745.11645 0.04752
2743.83068 0.04730
2742.54491 0.04709
2741.25914 0.04693
2739.97337 0.04677
2738.68760 0.04662
2737.40183 0.04651
2736.11606 0.04646
2734.83029 0.04640
2733.54453 0.04631
2732.25876 0.04622
2730.97299 0.04616
2729.68722 0.04609
2728.40145 0.04595
2727.11568 0.04579
2725.82991 0.04565
2724.54414 0.04555
2723.25838 0.04545
2721.97261 0.04534
2720.68684 0.04527
2719.40107 0.04527
2718.11530 0.04526
2716.82953 0.04515
2715.54376 0.04489
2714.25799 0.04457
2712.97222 0.04434
2711.68646 0.04427
2710.40069 0.04435
2709.11492 0.04442
2707.82915 0.04439
2706.54338 0.04430
2705.25761 0.04425
2703.97184 0.04429
2702.68607 0.04438
2701.40031 0.04446
2700.11454 0.04446
2698.82877 0.04433
2697.54300 0.04411
2696.25723 0.04391
2694.97146 0.04378
2693.68569 0.04374
2692.39992 0.04370
2691.11415 0.04357
2689.82839 0.04331
2688.54262 0.04303
2687.25685 0.04283
2685.97108 0.04274
2684.68531 0.04264
2683.39954 0.04242
2682.11377 0.04212
2680.82800 0.04191
2679.54224 0.04188
2678.25647 0.04209
2676.97070 0.04250
2675.68493 0.04299
2674.39916 0.04336
2673.11339 0.04342
2671.82762 0.04313
2670.54185 0.04270
2669.25608 0.04241
2667.97032 0.04239
2666.68455 0.04259
2665.39878 0.04288
2664.11301 0.04312
2662.82724 0.04325
2661.54147 0.04319
2660.25570 0.04289
2658.96993 0.04241
2657.68417 0.04188
2656.39840 0.04148
2655.11263 0.04123
2653.82686 0.04106
2652.54109 0.04091
2651.25532 0.04080
2649.96955 0.04083
2648.68378 0.04098
2647.39801 0.04116
2646.11225 0.04126
2644.82648 0.04126
2643.54071 0.04125
2642.25494 0.04127
2640.96917 0.04131
2639.68340 0.04125
2638.39763 0.04091
2637.11186 0.04028
2635.82609 0.03959
2634.54033 0.03911
2633.25456 0.03893
2631.96879 0.03892
2630.68302 0.03895
2629.39725 0.03896
2628.11148 0.03889
2626.82571 0.03877
2625.53994 0.03867
2624.25418 0.03863
2622.96841 0.03859
2621.68264 0.03849
2620.39687 0.03833
2619.11110 0.03812
2617.82533 0.03783
2616.53956 0.03742
2615.25379 0.03691
2613.96802 0.03641
2612.68226 0.03609
2611.39649 0.03603
2610.11072 0.03620
2608.82495 0.03646
2607.53918 0.03670
2606.25341 0.03679
2604.96764 0.03662
2603.68187 0.03621
2602.39611 0.03577
2601.11034 0.03554
2599.82457 0.03554
2598.53880 0.03558
2597.25303 0.03557
2595.96726 0.03557
2594.68149 0.03565
2593.39572 0.03570
2592.10995 0.03556
2590.82419 0.03517
2589.53842 0.03464
2588.25265 0.03415
2586.96688 0.03387
2585.68111 0.03385
2584.39534 0.03405
2583.10957 0.03431
2581.82380 0.03450
2580.53804 0.03454
2579.25227 0.03450
2577.96650 0.03441
2576.68073 0.03429
2575.39496 0.03409
2574.10919 0.03378
2572.82342 0.03343
2571.53765 0.03323
2570.25188 0.03318
2568.96612 0.03308
2567.68035 0.03282
2566.39458 0.03253
2565.10881 0.03247
2563.82304 0.03270
2562.53727 0.03313
2561.25150 0.03357
2559.96573 0.03371
2558.67997 0.03335
2557.39420 0.03267
2556.10843 0.03220
2554.82266 0.03230
2553.53689 0.03273
2552.25112 0.03291
2550.96535 0.03250
2549.67958 0.03166
2548.39381 0.03085
2547.10805 0.03047
2545.82228 0.03063
2544.53651 0.03116
2543.25074 0.03173
2541.96497 0.03196
2540.67920 0.03171
2539.39343 0.03112
2538.10766 0.03062
2536.82190 0.03056
2535.53613 0.03095
2534.25036 0.03150
2532.96459 0.03190
2531.67882 0.03206
2530.39305 0.03201
2529.10728 0.03176
2527.82151 0.03136
2526.53574 0.03098
2525.24998 0.03082
2523.96421 0.03098
2522.67844 0.03130
2521.39267 0.03150
2520.10690 0.03139
2518.82113 0.03099
2517.53536 0.03059
2516.24959 0.03043
2514.96383 0.03052
2513.67806 0.03067
2512.39229 0.03070
2511.10652 0.03061
2509.82075 0.03050
2508.53498 0.03045
2507.24921 0.03050
2505.96344 0.03065
2504.67767 0.03083
2503.39191 0.03088
2502.10614 0.03073
2500.82037 0.03042
2499.53460 0.03019
2498.24883 0.03019
2496.96306 0.03037
2495.67729 0.03053
2494.39152 0.03058
2493.10576 0.03060
2491.81999 0.03071
2490.53422 0.03096
2489.24845 0.03124
2487.96268 0.03134
2486.67691 0.03117
2485.39114 0.03088
2484.10537 0.03076
2482.81960 0.03085
2481.53384 0.03085
2480.24807 0.03049
2478.96230 0.02983
2477.67653 0.02924
2476.39076 0.02905
2475.10499 0.02920
2473.81922 0.02940
2472.53345 0.02940
2471.24769 0.02917
2469.96192 0.02891
2468.67615 0.02884
2467.39038 0.02902
2466.10461 0.02924
2464.81884 0.02922
2463.53307 0.02888
2462.24730 0.02851
2460.96153 0.02847
2459.67577 0.02889
2458.39000 0.02946
2457.10423 0.02979
2455.81846 0.02982
2454.53269 0.02979
2453.24692 0.02989
2451.96115 0.03005
2450.67538 0.03007
2449.38962 0.02994
2448.10385 0.02983
2446.81808 0.02984
2445.53231 0.02981
2444.24654 0.02955
2442.96077 0.02912
2441.67500 0.02888
2440.38923 0.02906
2439.10346 0.02940
2437.81770 0.02943
2436.53193 0.02903
2435.24616 0.02851
2433.96039 0.02824
2432.67462 0.02828
2431.38885 0.02844
2430.10308 0.02857
2428.81731 0.02862
2427.53155 0.02859
2426.24578 0.02846
2424.96001 0.02832
2423.67424 0.02825
2422.38847 0.02822
2421.10270 0.02809
2419.81693 0.02783
2418.53116 0.02754
2417.24539 0.02732
2415.95963 0.02713
2414.67386 0.02692
2413.38809 0.02677
2412.10232 0.02675
2410.81655 0.02675
2409.53078 0.02663
2408.24501 0.02642
2406.95924 0.02632
2405.67347 0.02639
2404.38771 0.02651
2403.10194 0.02661
2401.81617 0.02672
2400.53040 0.02692
2399.24463 0.02715
2397.95886 0.02733
2396.67309 0.02742
2395.38732 0.02742
2394.10156 0.02733
2392.81579 0.02717
2391.53002 0.02700
2390.24425 0.02683
2388.95848 0.02662
2387.67271 0.02638
2386.38694 0.02619
2385.10117 0.02618
2383.81540 0.02637
2382.52964 0.02666
2381.24387 0.02694
2379.95810 0.02713
2378.67233 0.02724
2377.38656 0.02730
2376.10079 0.02734
2374.81502 0.02739
2373.52925 0.02741
2372.24349 0.02738
2370.95772 0.02727
2369.67195 0.02712
2368.38618 0.02696
2367.10041 0.02687
2365.81464 0.02694
2364.52887 0.02722
2363.24310 0.02755
2361.95733 0.02766
2360.67157 0.02735
2359.38580 0.02685
2358.10003 0.02655
2356.81426 0.02668
2355.52849 0.02722
2354.24272 0.02788
2352.95695 0.02826
2351.67118 0.02814
2350.38542 0.02777
2349.09965 0.02759
2347.81388 0.02767
2346.52811 0.02767
2345.24234 0.02760
2343.95657 0.02778
2342.67080 0.02808
2341.38503 0.02787
2340.09926 0.02725
2338.81350 0.02724
2337.52773 0.02785
2336.24196 0.02785
2334.95619 0.02735
2333.67042 0.02749
2332.38465 0.02784
2331.09888 0.02730
2329.81311 0.02690
2328.52735 0.02767
2327.24158 0.02843
2325.95581 0.02905
2324.67004 0.02995
2323.38427 0.03012
2322.09850 0.02944
2320.81273 0.02900
2319.52696 0.02853
2318.24119 0.02810
2316.95543 0.02810
2315.66966 0.02800
2314.38389 0.02776
2313.09812 0.02755
2311.81235 0.02717
2310.52658 0.02690
2309.24081 0.02680
2307.95504 0.02674
2306.66928 0.02678
2305.38351 0.02675
2304.09774 0.02667
2302.81197 0.02654
2301.52620 0.02635
2300.24043 0.02613
2298.95466 0.02585
2297.66889 0.02549
2296.38312 0.02509
2295.09736 0.02479
2293.81159 0.02469
2292.52582 0.02473
2291.24005 0.02479
2289.95428 0.02482
2288.66851 0.02486
2287.38274 0.02495
2286.09697 0.02504
2284.81121 0.02511
2283.52544 0.02512
2282.23967 0.02507
2280.95390 0.02490
2279.66813 0.02455
2278.38236 0.02400
2277.09659 0.02338
2275.81082 0.02285
2274.52505 0.02254
2273.23929 0.02236
2271.95352 0.02210
2270.66775 0.02161
2269.38198 0.02098
2268.09621 0.02046
2266.81044 0.02022
2265.52467 0.02029
2264.23890 0.02065
2262.95314 0.02128
2261.66737 0.02210
2260.38160 0.02298
2259.09583 0.02368
2257.81006 0.02390
2256.52429 0.02354
2255.23852 0.02284
2253.95275 0.02220
2252.66698 0.02171
2251.38122 0.02115
2250.09545 0.02037
2248.80968 0.01956
2247.52391 0.01905
2246.23814 0.01885
2244.95237 0.01878
2243.66660 0.01884
2242.38083 0.01917
2241.09507 0.01980
2239.80930 0.02048
2238.52353 0.02079
2237.23776 0.02044
2235.95199 0.01962
2234.66622 0.01884
2233.38045 0.01853
2232.09468 0.01862
2230.80891 0.01865
2229.52315 0.01833
2228.23738 0.01782
2226.95161 0.01757
2225.66584 0.01771
2224.38007 0.01799
2223.09430 0.01813
2221.80853 0.01805
2220.52276 0.01771
2219.23700 0.01707
2217.95123 0.01628
2216.66546 0.01571
2215.37969 0.01549
2214.09392 0.01532
2212.80815 0.01476
2211.52238 0.01382
2210.23661 0.01307
2208.95084 0.01323
2207.66508 0.01452
2206.37931 0.01646
2205.09354 0.01811
2203.80777 0.01878
2202.52200 0.01837
2201.23623 0.01722
2199.95046 0.01587
2198.66469 0.01493
2197.37893 0.01480
2196.09316 0.01534
2194.80739 0.01574
2193.52162 0.01527
2192.23585 0.01403
2190.95008 0.01291
2189.66431 0.01275
2188.37854 0.01359
2187.09277 0.01471
2185.80701 0.01534
2184.52124 0.01508
2183.23547 0.01393
2181.94970 0.01230
2180.66393 0.01101
2179.37816 0.01085
2178.09239 0.01180
2176.80662 0.01278
2175.52085 0.01277
2174.23509 0.01193
2172.94932 0.01117
2171.66355 0.01093
2170.37778 0.01095
2169.09201 0.01100
2167.80624 0.01121
2166.52047 0.01162
2165.23470 0.01196
2163.94894 0.01204
2162.66317 0.01178
2161.37740 0.01105
2160.09163 0.00991
2158.80586 0.00886
2157.52009 0.00841
2156.23432 0.00839
2154.94855 0.00818
2153.66278 0.00751
2152.37702 0.00670
2151.09125 0.00640
2149.80548 0.00705
2148.51971 0.00843
2147.23394 0.00983
2145.94817 0.01055
2144.66240 0.01041
2143.37663 0.00979
2142.09087 0.00927
2140.80510 0.00927
2139.51933 0.00981
2138.23356 0.01058
2136.94779 0.01119
2135.66202 0.01148
2134.37625 0.01161
2133.09048 0.01183
2131.80471 0.01229
2130.51895 0.01307
2129.23318 0.01410
2127.94741 0.01514
2126.66164 0.01576
2125.37587 0.01569
2124.09010 0.01503
2122.80433 0.01416
2121.51856 0.01343
2120.23280 0.01306
2118.94703 0.01321
2117.66126 0.01398
2116.37549 0.01522
2115.08972 0.01649
2113.80395 0.01723
2112.51818 0.01714
2111.23241 0.01638
2109.94664 0.01551
2108.66088 0.01506
2107.37511 0.01512
2106.08934 0.01536
2104.80357 0.01531
2103.51780 0.01478
2102.23203 0.01392
2100.94626 0.01316
2099.66049 0.01412
2098.37473 0.01477
2097.08896 0.01496
2095.80319 0.01496
2094.51742 0.01480
2093.23165 0.01456
2091.94588 0.01441
2090.66011 0.01441
2089.37434 0.01450
2088.08857 0.01459
2086.80281 0.01467
2085.51704 0.01482
2084.23127 0.01502
2082.94550 0.01511
2081.65973 0.01495
2080.37396 0.01452
2079.08819 0.01402
2077.80242 0.01369
2076.51666 0.01370
2075.23089 0.01400
2073.94512 0.01437
2072.65935 0.01451
2071.37358 0.01416
2070.08781 0.01335
2068.80204 0.01236
2067.51627 0.01157
2066.23050 0.01121
2064.94474 0.01130
2063.65897 0.01161
2062.37320 0.01181
2061.08743 0.01173
2059.80166 0.01143
2058.51589 0.01114
2057.23012 0.01100
2055.94435 0.01104
2054.65859 0.01131
2053.37282 0.01185
2052.08705 0.01250
2050.80128 0.01287
2049.51551 0.01265
2048.22974 0.01194
2046.94397 0.01104
2045.65820 0.01018
2044.37243 0.00944
2043.08667 0.00882
2041.80090 0.00833
2040.51513 0.00797
2039.22936 0.00788
2037.94359 0.00813
2036.65782 0.00843
2035.37205 0.00821
2034.08628 0.00729
2032.80052 0.00626
2031.51475 0.00595
2030.22898 0.00665
2028.94321 0.00790
2027.65744 0.00890
2026.37167 0.00925
2025.08590 0.00909
2023.80013 0.00881
2022.51436 0.00853
2021.22860 0.00810
2019.94283 0.00735
2018.65706 0.00640
2017.37129 0.00547
2016.08552 0.00489
2014.79975 0.00505
2013.51398 0.00616
2012.22821 0.00800
2010.94245 0.00990
2009.65668 0.01118
2008.37091 0.01158
2007.08514 0.01124
2005.79937 0.01052
2004.51360 0.00980
2003.22783 0.00936
2001.94206 0.00933
2000.65629 0.00958
1999.37053 0.00985
1998.08476 0.00999
1996.79899 0.01006
1995.51322 0.01022
1994.22745 0.01039
1992.94168 0.01042
1991.65591 0.01032
1990.37014 0.01018
1989.08438 0.01007
1987.79861 0.00998
1986.51284 0.01006
1985.22707 0.01053
1983.94130 0.01145
1982.65553 0.01260
1981.36976 0.01359
1980.08399 0.01409
1978.79822 0.01388
1977.51246 0.01304
1976.22669 0.01185
1974.94092 0.01067
1973.65515 0.00979
1972.36938 0.00942
1971.08361 0.00966
1969.79784 0.01041
1968.51207 0.01133
1967.22631 0.01200
1965.94054 0.01218
1964.65477 0.01188
1963.36900 0.01129
1962.08323 0.01071
1960.79746 0.01047
1959.51169 0.01074
1958.22592 0.01139
1956.94015 0.01196
1955.65439 0.01214
1954.36862 0.01198
1953.08285 0.01183
1951.79708 0.01192
1950.51131 0.01225
1949.22554 0.01269
1947.93977 0.01314
1946.65400 0.01353
1945.36823 0.01386
1944.08247 0.01417
1942.79670 0.01443
1941.51093 0.01458
1940.22516 0.01461
1938.93939 0.01467
1937.65362 0.01483
1936.36785 0.01496
1935.08208 0.01481
1933.79632 0.01434
1932.51055 0.01380
1931.22478 0.01352
1929.93901 0.01366
1928.65324 0.01405
1927.36747 0.01445
1926.08170 0.01470
1924.79593 0.01480
1923.51016 0.01479
1922.22440 0.01468
1920.93863 0.01447
1919.65286 0.01418
1918.36709 0.01395
1917.08132 0.01397
1915.79555 0.01432
1914.50978 0.01474
1913.22401 0.01484
1911.93825 0.01443
1910.65248 0.01370
1909.36671 0.01311
1908.08094 0.01292
1906.79517 0.01304
1905.50940 0.01321
1904.22363 0.01329
1902.93786 0.01331
1901.65209 0.01332
1900.36633 0.01335
1899.08056 0.01339
1897.79479 0.01339
1896.50902 0.01336
1895.22325 0.01336
1893.93748 0.01353
1892.65171 0.01395
1891.36594 0.01444
1890.08018 0.01464
1888.79441 0.01441
1887.50864 0.01390
1886.22287 0.01346
1884.93710 0.01335
1883.65133 0.01361
1882.36556 0.01409
1881.07979 0.01458
1879.79402 0.01490
1878.50826 0.01502
1877.22249 0.01503
1875.93672 0.01498
1874.65095 0.01489
1873.36518 0.01478
1872.07941 0.01471
1870.79364 0.01473
1869.50787 0.01486
1868.22211 0.01500
1866.93634 0.01498
1865.65057 0.01468
1864.36480 0.01422
1863.07903 0.01383
1861.79326 0.01369
1860.50749 0.01378
1859.22172 0.01396
1857.93595 0.01413
1856.65019 0.01430
1855.36442 0.01453
1854.07865 0.01481
1852.79288 0.01508
1851.50711 0.01529
1850.22134 0.01541
1848.93557 0.01549
1847.64980 0.01552
1846.36404 0.01545
1845.07827 0.01522
1843.79250 0.01492
1842.50673 0.01464
1841.22096 0.01443
1839.93519 0.01422
1838.64942 0.01399
1837.36365 0.01381
1836.07788 0.01380
1834.79212 0.01403
1833.50635 0.01443
1832.22058 0.01483
1830.93481 0.01511
1829.64904 0.01524
1828.36327 0.01531
1827.07750 0.01540
1825.79173 0.01549
1824.50597 0.01556
1823.22020 0.01556
1821.93443 0.01550
1820.64866 0.01547
1819.36289 0.01549
1818.07712 0.01549
1816.79135 0.01535
1815.50558 0.01509
1814.21981 0.01482
1812.93405 0.01465
1811.64828 0.01460
1810.36251 0.01464
1809.07674 0.01471
1807.79097 0.01479
1806.50520 0.01488
1805.21943 0.01497
1803.93366 0.01505
1802.64790 0.01510
1801.36213 0.01512
1800.07636 0.01512
1798.79059 0.01512
1797.50482 0.01509
1796.21905 0.01501
1794.93328 0.01496
1793.64751 0.01501
1792.36174 0.01518
1791.07598 0.01541
1789.79021 0.01561
1788.50444 0.01575
1787.21867 0.01588
1785.93290 0.01602
1784.64713 0.01620
1783.36136 0.01638
1782.07559 0.01649
1780.78983 0.01648
1779.50406 0.01636
1778.21829 0.01622
1776.93252 0.01615
1775.64675 0.01616
1774.36098 0.01621
1773.07521 0.01628
1771.78944 0.01636
1770.50367 0.01643
1769.21791 0.01642
1767.93214 0.01639
1766.64637 0.01641
1765.36060 0.01651
1764.07483 0.01668
1762.78906 0.01688
1761.50329 0.01706
1760.21752 0.01717
1758.93176 0.01718
1757.64599 0.01715
1756.36022 0.01719
1755.07445 0.01733
1753.78868 0.01752
1752.50291 0.01764
1751.21714 0.01766
1749.93137 0.01762
1748.64560 0.01759
1747.35984 0.01757
1746.07407 0.01756
1744.78830 0.01754
1743.50253 0.01755
1742.21676 0.01763
1740.93099 0.01776
1739.64522 0.01791
1738.35945 0.01807
1737.07369 0.01824
1735.78792 0.01843
1734.50215 0.01863
1733.21638 0.01882
1731.93061 0.01894
1730.64484 0.01898
1729.35907 0.01899
1728.07330 0.01904
1726.78753 0.01912
1725.50177 0.01919
1724.21600 0.01927
1722.93023 0.01943
1721.64446 0.01971
1720.35869 0.02008
1719.07292 0.02048
1717.78715 0.02089
1716.50138 0.02131
1715.21561 0.02171
1713.92985 0.02206
1712.64408 0.02240
1711.35831 0.02280
1710.07254 0.02325
1708.78677 0.02375
1707.50100 0.02426
1706.21523 0.02482
1704.92946 0.02547
1703.64370 0.02621
1702.35793 0.02694
1701.07216 0.02763
1699.78639 0.02832
1698.50062 0.02902
1697.21485 0.02963
1695.92908 0.03017
1694.64331 0.03070
1693.35754 0.03121
1692.07178 0.03169
1690.78601 0.03222
1689.50024 0.03289
1688.21447 0.03369
1686.92870 0.03454
1685.64293 0.03532
1684.35716 0.03601
1683.07139 0.03665
1681.78563 0.03722
1680.49986 0.03779
1679.21409 0.03844
1677.92832 0.03913
1676.64255 0.03980
1675.35678 0.04044
1674.07101 0.04107
1672.78524 0.04170
1671.49947 0.04230
1670.21371 0.04284
1668.92794 0.04335
1667.64217 0.04387
1666.35640 0.04444
1665.07063 0.04508
1663.78486 0.04577
1662.49909 0.04646
1661.21332 0.04709
1659.92756 0.04764
1658.64179 0.04814
1657.35602 0.04865
1656.07025 0.04919
1654.78448 0.04970
1653.49871 0.05014
1652.21294 0.05051
1650.92717 0.05078
1649.64140 0.05089
1648.35564 0.05087
1647.06987 0.05082
1645.78410 0.05078
1644.49833 0.05076
1643.21256 0.05077
1641.92679 0.05081
1640.64102 0.05089
1639.35525 0.05099
1638.06949 0.05109
1636.78372 0.05113
1635.49795 0.05109
1634.21218 0.05095
1632.92641 0.05072
1631.64064 0.05046
1630.35487 0.05025
1629.06910 0.05012
1627.78333 0.05004
1626.49757 0.04999
1625.21180 0.04991
1623.92603 0.04979
1622.64026 0.04963
1621.35449 0.04949
1620.06872 0.04941
1618.78295 0.04938
1617.49718 0.04940
1616.21142 0.04943
1614.92565 0.04944
1613.63988 0.04941
1612.35411 0.04939
1611.06834 0.04942
1609.78257 0.04952
1608.49680 0.04963
1607.21103 0.04978
1605.92526 0.04996
1604.63950 0.05019
1603.35373 0.05043
1602.06796 0.05068
1600.78219 0.05095
1599.49642 0.05123
1598.21065 0.05152
1596.92488 0.05178
1595.63911 0.05198
1594.35335 0.05215
1593.06758 0.05237
1591.78181 0.05267
1590.49604 0.05305
1589.21027 0.05343
1587.92450 0.05378
1586.63873 0.05409
1585.35296 0.05443
1584.06719 0.05484
1582.78143 0.05533
1581.49566 0.05589
1580.20989 0.05651
1578.92412 0.05712
1577.63835 0.05765
1576.35258 0.05811
1575.06681 0.05856
1573.78104 0.05899
1572.49528 0.05937
1571.20951 0.05971
1569.92374 0.06006
1568.63797 0.06039
1567.35220 0.06067
1566.06643 0.06092
1564.78066 0.06122
1563.49489 0.06162
1562.20912 0.06207
1560.92336 0.06247
1559.63759 0.06279
1558.35182 0.06302
1557.06605 0.06314
1555.78028 0.06312
1554.49451 0.06303
1553.20874 0.06295
1551.92297 0.06287
1550.63721 0.06275
1549.35144 0.06260
1548.06567 0.06245
1546.77990 0.06231
1545.49413 0.06218
1544.20836 0.06205
1542.92259 0.06189
1541.63682 0.06163
1540.35105 0.06123
1539.06529 0.06072
1537.77952 0.06015
1536.49375 0.05959
1535.20798 0.05910
1533.92221 0.05876
1532.63644 0.05861
1531.35067 0.05862
1530.06490 0.05872
1528.77914 0.05887
1527.49337 0.05907
1526.20760 0.05933
1524.92183 0.05967
1523.63606 0.06008
1522.35029 0.06051
1521.06452 0.06099
1519.77875 0.06155
1518.49298 0.06218
1517.20722 0.06285
1515.92145 0.06357
1514.63568 0.06434
1513.34991 0.06517
1512.06414 0.06611
1510.77837 0.06720
1509.49260 0.06837
1508.20683 0.06951
1506.92107 0.07054
1505.63530 0.07144
1504.34953 0.07224
1503.06376 0.07296
1501.77799 0.07368
1500.49222 0.07447
1499.20645 0.07528
1497.92068 0.07603
1496.63491 0.07668
1495.34915 0.07723
1494.06338 0.07776
1492.77761 0.07832
1491.49184 0.07897
1490.20607 0.07974
1488.92030 0.08055
1487.63453 0.08135
1486.34876 0.08215
1485.06299 0.08299
1483.77723 0.08390
1482.49146 0.08490
1481.20569 0.08598
1479.91992 0.08712
1478.63415 0.08828
1477.34838 0.08943
1476.06261 0.09055
1474.77684 0.09160
1473.49108 0.09251
1472.20531 0.09328
1470.91954 0.09396
1469.63377 0.09459
1468.34800 0.09518
1467.06223 0.09576
1465.77646 0.09634
1464.49069 0.09695
1463.20492 0.09764
1461.91916 0.09843
1460.63339 0.09931
1459.34762 0.10020
1458.06185 0.10105
1456.77608 0.10183
1455.49031 0.10254
1454.20454 0.10313
1452.91877 0.10361
1451.63301 0.10400
1450.34724 0.10432
1449.06147 0.10456
1447.77570 0.10471
1446.48993 0.10476
1445.20416 0.10474
1443.91839 0.10465
1442.63262 0.10452
1441.34685 0.10438
1440.06109 0.10426
1438.77532 0.10418
1437.48955 0.10419
1436.20378 0.10431
1434.91801 0.10459
1433.63224 0.10504
1432.34647 0.10570
1431.06070 0.10659
1429.77494 0.10768
1428.48917 0.10889
1427.20340 0.11019
1425.91763 0.11154
1424.63186 0.11294
1423.34609 0.11437
1422.06032 0.11578
1420.77455 0.11709
1419.48878 0.11826
1418.20302 0.11926
1416.91725 0.12010
1415.63148 0.12076
1414.34571 0.12127
1413.05994 0.12159
1411.77417 0.12166
1410.48840 0.12148
1409.20263 0.12105
1407.91687 0.12043
1406.63110 0.11962
1405.34533 0.11863
1404.05956 0.11744
1402.77379 0.11601
1401.48802 0.11437
1400.20225 0.11256
1398.91648 0.11063
1397.63071 0.10860
1396.34495 0.10645
1395.05918 0.10420
1393.77341 0.10192
1392.48764 0.09968
1391.20187 0.09748
1389.91610 0.09531
1388.63033 0.09313
1387.34456 0.09094
1386.05880 0.08874
1384.77303 0.08652
1383.48726 0.08432
1382.20149 0.08218
1380.91572 0.08013
1379.62995 0.07812
1378.34418 0.07608
1377.05841 0.07396
1375.77264 0.07177
1374.48688 0.06953
1373.20111 0.06730
1371.91534 0.06511
1370.62957 0.06299
1369.34380 0.06100
1368.05803 0.05917
1366.77226 0.05748
1365.48649 0.05589
1364.20073 0.05434
1362.91496 0.05284
1361.62919 0.05139
1360.34342 0.05002
1359.05765 0.04876
1357.77188 0.04761
1356.48611 0.04654
1355.20034 0.04555
1353.91457 0.04462
1352.62881 0.04379
1351.34304 0.04304
1350.05727 0.04234
1348.77150 0.04164
1347.48573 0.04093
1346.19996 0.04023
1344.91419 0.03956
1343.62842 0.03895
1342.34266 0.03841
1341.05689 0.03793
1339.77112 0.03749
1338.48535 0.03705
1337.19958 0.03657
1335.91381 0.03607
1334.62804 0.03556
1333.34227 0.03505
1332.05650 0.03456
1330.77074 0.03411
1329.48497 0.03367
1328.19920 0.03325
1326.91343 0.03284
1325.62766 0.03247
1324.34189 0.03211
1323.05612 0.03174
1321.77035 0.03135
1320.48459 0.03096
1319.19882 0.03062
1317.91305 0.03034
1316.62728 0.03010
1315.34151 0.02988
1314.05574 0.02968
1312.76997 0.02947
1311.48420 0.02923
1310.19843 0.02895
1308.91267 0.02866
1307.62690 0.02840
1306.34113 0.02820
1305.05536 0.02800
1303.76959 0.02778
1302.48382 0.02755
1301.19805 0.02734
1299.91228 0.02716
1298.62652 0.02699
1297.34075 0.02678
1296.05498 0.02655
1294.76921 0.02631
1293.48344 0.02610
1292.19767 0.02594
1290.91190 0.02580
1289.62613 0.02566
1288.34036 0.02551
1287.05460 0.02536
1285.76883 0.02522
1284.48306 0.02511
1283.19729 0.02501
1281.91152 0.02488
1280.62575 0.02472
1279.33998 0.02454
1278.05421 0.02439
1276.76845 0.02427
1275.48268 0.02419
1274.19691 0.02414
1272.91114 0.02409
1271.62537 0.02402
1270.33960 0.02392
1269.05383 0.02380
1267.76806 0.02365
1266.48229 0.02349
1265.19653 0.02333
1263.91076 0.02320
1262.62499 0.02313
1261.33922 0.02308
1260.05345 0.02305
1258.76768 0.02300
1257.48191 0.02295
1256.19614 0.02292
1254.91037 0.02291
1253.62461 0.02287
1252.33884 0.02279
1251.05307 0.02267
1249.76730 0.02253
1248.48153 0.02240
1247.19576 0.02227
1245.90999 0.02217
1244.62422 0.02210
1243.33846 0.02206
1242.05269 0.02204
1240.76692 0.02201
1239.48115 0.02195
1238.19538 0.02187
1236.90961 0.02178
1235.62384 0.02170
1234.33807 0.02163
1233.05230 0.02153
1231.76654 0.02140
1230.48077 0.02124
1229.19500 0.02105
1227.90923 0.02087
1226.62346 0.02070
1225.33769 0.02058
1224.05192 0.02051
1222.76615 0.02047
1221.48039 0.02041
1220.19462 0.02031
1218.90885 0.02016
1217.62308 0.01999
1216.33731 0.01983
1215.05154 0.01972
1213.76577 0.01964
1212.48000 0.01959
1211.19423 0.01955
1209.90847 0.01953
1208.62270 0.01951
1207.33693 0.01948
1206.05116 0.01942
1204.76539 0.01936
1203.47962 0.01934
1202.19385 0.01937
1200.90808 0.01934
1199.62232 0.01920
1198.33655 0.01920
1197.05078 0.01918
1195.76501 0.01912
1194.47924 0.01907
1193.19347 0.01903
1191.90770 0.01899
1190.62193 0.01891
1189.33616 0.01876
1188.05040 0.01860
1186.76463 0.01850
1185.47886 0.01849
1184.19309 0.01853
1182.90732 0.01859
1181.62155 0.01863
1180.33578 0.01866
1179.05001 0.01864
1177.76425 0.01857
1176.47848 0.01851
1175.19271 0.01850
1173.90694 0.01857
1172.62117 0.01872
1171.33540 0.01894
1170.04963 0.01920
1168.76386 0.01945
1167.47809 0.01967
1166.19233 0.01983
1164.90656 0.01998
1163.62079 0.02013
1162.33502 0.02030
1161.04925 0.02049
1159.76348 0.02073
1158.47771 0.02101
1157.19194 0.02134
1155.90618 0.02169
1154.62041 0.02203
1153.33464 0.02239
1152.04887 0.02276
1150.76310 0.02317
1149.47733 0.02362
1148.19156 0.02412
1146.90579 0.02467
1145.62002 0.02531
1144.33426 0.02605
1143.04849 0.02687
1141.76272 0.02774
1140.47695 0.02863
1139.19118 0.02955
1137.90541 0.03055
1136.61964 0.03165
1135.33387 0.03283
1134.04811 0.03417
1132.76234 0.03576
1131.47657 0.03765
1130.19080 0.03980
1128.90503 0.04209
1127.61926 0.04449
1126.33349 0.04698
1125.04772 0.04961
1123.76195 0.05240
1122.47619 0.05533
1121.19042 0.05832
1119.90465 0.06135
1118.61888 0.06444
1117.33311 0.06764
1116.04734 0.07091
1114.76157 0.07413
1113.47580 0.07720
1112.19004 0.08013
1110.90427 0.08306
1109.61850 0.08608
1108.33273 0.08921
1107.04696 0.09235
1105.76119 0.09542
1104.47542 0.09833
1103.18965 0.10107
1101.90388 0.10368
1100.61812 0.10625
1099.33235 0.10880
1098.04658 0.11135
1096.76081 0.11384
1095.47504 0.11622
1094.18927 0.11846
1092.90350 0.12052
1091.61773 0.12242
1090.33197 0.12421
1089.04620 0.12600
1087.76043 0.12784
1086.47466 0.12968
1085.18889 0.13150
1083.90312 0.13331
1082.61735 0.13516
1081.33158 0.13709
1080.04581 0.13911
1078.76005 0.14125
1077.47428 0.14352
1076.18851 0.14588
1074.90274 0.14835
1073.61697 0.15095
1072.33120 0.15370
1071.04543 0.15655
1069.75966 0.15939
1068.47390 0.16222
1067.18813 0.16511
1065.90236 0.16813
1064.61659 0.17128
1063.33082 0.17450
1062.04505 0.17772
1060.75928 0.18091
1059.47351 0.18405
1058.18774 0.18712
1056.90198 0.19014
1055.61621 0.19314
1054.33044 0.19612
1053.04467 0.19904
1051.75890 0.20192
1050.47313 0.20486
1049.18736 0.20791
1047.90159 0.21108
1046.61583 0.21428
1045.33006 0.21743
1044.04429 0.22053
1042.75852 0.22363
1041.47275 0.22680
1040.18698 0.23004
1038.90121 0.23332
1037.61544 0.23654
1036.32967 0.23966
1035.04391 0.24272
1033.75814 0.24572
1032.47237 0.24866
1031.18660 0.25141
1029.90083 0.25388
1028.61506 0.25603
1027.32929 0.25794
1026.04352 0.25968
1024.75775 0.26126
1023.47199 0.26257
1022.18622 0.26351
1020.90045 0.26405
1019.61468 0.26422
1018.32891 0.26405
1017.04314 0.26353
1015.75737 0.26265
1014.47160 0.26139
1013.18584 0.25970
1011.90007 0.25756
1010.61430 0.25498
1009.32853 0.25203
1008.04276 0.24878
1006.75699 0.24524
1005.47122 0.24133
1004.18545 0.23705
1002.89968 0.23244
1001.61392 0.22760
1000.32815 0.22257
999.04238 0.21730
997.75661 0.21177
996.47084 0.20605
995.18507 0.20022
993.89930 0.19432
992.61353 0.18837
991.32777 0.18240
990.04200 0.17643
988.75623 0.17053
987.47046 0.16470
986.18469 0.15900
984.89892 0.15347
983.61315 0.14815
982.32738 0.14303
981.04161 0.13809
979.75585 0.13337
978.47008 0.12895
977.18431 0.12492
975.89854 0.12131
974.61277 0.11809
973.32700 0.11530
972.04123 0.11303
970.75546 0.11136
969.46970 0.11030
968.18393 0.10984
966.89816 0.10992
965.61239 0.11041
964.32662 0.11113
963.04085 0.11185
961.75508 0.11234
960.46931 0.11236
959.18354 0.11173
957.89778 0.11043
956.61201 0.10857
955.32624 0.10629
954.04047 0.10375
952.75470 0.10107
951.46893 0.09837
950.18316 0.09575
948.89739 0.09326
947.61163 0.09086
946.32586 0.08847
945.04009 0.08607
943.75432 0.08370
942.46855 0.08141
941.18278 0.07925
939.89701 0.07725
938.61124 0.07538
937.32547 0.07357
936.03971 0.07178
934.75394 0.07005
933.46817 0.06849
932.18240 0.06711
930.89663 0.06581
929.61086 0.06450
928.32509 0.06314
927.03932 0.06180
925.75356 0.06056
924.46779 0.05946
923.18202 0.05848
921.89625 0.05758
920.61048 0.05674
919.32471 0.05594
918.03894 0.05517
916.75317 0.05445
915.46740 0.05375
914.18164 0.05304
912.89587 0.05231
911.61010 0.05157
910.32433 0.05086
909.03856 0.05022
907.75279 0.04967
906.46702 0.04924
905.18125 0.04889
903.89549 0.04854
902.60972 0.04814
901.32395 0.04769
900.03818 0.04728
898.75241 0.04694
897.46664 0.04662
896.18087 0.04629
894.89510 0.04595
893.60933 0.04565
892.32357 0.04546
891.03780 0.04539
889.75203 0.04549
888.46626 0.04581
887.18049 0.04648
885.89472 0.04766
884.60895 0.04950
883.32318 0.05202
882.03742 0.05501
880.75165 0.05811
879.46588 0.06086
878.18011 0.06304
876.89434 0.06477
875.60857 0.06638
874.32280 0.06799
873.03703 0.06936
871.75126 0.07010
870.46550 0.07000
869.17973 0.06910
867.89396 0.06756
866.60819 0.06548
865.32242 0.06301
864.03665 0.06037
862.75088 0.05780
861.46511 0.05547
860.17935 0.05343
858.89358 0.05164
857.60781 0.05005
856.32204 0.04868
855.03627 0.04754
853.75050 0.04663
852.46473 0.04584
851.17896 0.04509
849.89319 0.04439
848.60743 0.04378
847.32166 0.04329
846.03589 0.04285
844.75012 0.04241
843.46435 0.04199
842.17858 0.04164
840.89281 0.04134
839.60704 0.04108
838.32128 0.04082
837.03551 0.04059
835.74974 0.04038
834.46397 0.04016
833.17820 0.03996
831.89243 0.03978
830.60666 0.03957
829.32089 0.03932
828.03512 0.03904
826.74936 0.03880
825.46359 0.03864
824.17782 0.03854
822.89205 0.03844
821.60628 0.03830
820.32051 0.03814
819.03474 0.03800
817.74897 0.03791
816.46321 0.03788
815.17744 0.03791
813.89167 0.03795
812.60590 0.03795
811.32013 0.03783
810.03436 0.03758
808.74859 0.03727
807.46282 0.03704
806.17705 0.03697
804.89129 0.03705
803.60552 0.03717
802.31975 0.03719
801.03398 0.03706
799.74821 0.03684
798.46244 0.03666
797.17667 0.03659
795.89090 0.03659
794.60513 0.03658
793.31937 0.03658
792.03360 0.03659
790.74783 0.03662
789.46206 0.03658
788.17629 0.03645
786.89052 0.03629
785.60475 0.03615
784.31898 0.03601
783.03322 0.03585
781.74745 0.03568
780.46168 0.03561
779.17591 0.03573
777.89014 0.03600
776.60437 0.03627
775.31860 0.03638
774.03283 0.03633
772.74706 0.03617
771.46130 0.03602
770.17553 0.03591
768.88976 0.03582
767.60399 0.03576
766.31822 0.03574
765.03245 0.03581
763.74668 0.03596
762.46091 0.03608
761.17515 0.03612
759.88938 0.03609
758.60361 0.03609
757.31784 0.03614
756.03207 0.03617
754.74630 0.03613
753.46053 0.03601
752.17476 0.03585
750.88899 0.03567
749.60323 0.03550
748.31746 0.03533
747.03169 0.03517
745.74592 0.03507
744.46015 0.03511
743.17438 0.03528
741.88861 0.03551
740.60284 0.03570
739.31708 0.03580
738.03131 0.03577
736.74554 0.03565
735.45977 0.03547
734.17400 0.03529
732.88823 0.03515
731.60246 0.03507
730.31669 0.03506
729.03092 0.03510
727.74516 0.03517
726.45939 0.03525
725.17362 0.03530
723.88785 0.03526
722.60208 0.03519
721.31631 0.03515
720.03054 0.03516
718.74477 0.03520
717.45901 0.03520
716.17324 0.03515
714.88747 0.03506
713.60170 0.03497
712.31593 0.03491
711.03016 0.03487
709.74439 0.03484
708.45862 0.03483
707.17285 0.03483
705.88709 0.03484
704.60132 0.03485
703.31555 0.03483
702.02978 0.03478
700.74401 0.03473
699.45824 0.03470
698.17247 0.03469
696.88670 0.03466
695.60094 0.03462
694.31517 0.03458
693.02940 0.03457
691.74363 0.03457
690.45786 0.03457
689.17209 0.03453
687.88632 0.03445
686.60055 0.03436
685.31478 0.03426
684.02902 0.03416
682.74325 0.03404
681.45748 0.03393
680.17171 0.03384
678.88594 0.03380
677.60017 0.03382
676.31440 0.03389
675.02863 0.03402
673.74287 0.03417
672.45710 0.03435
671.17133 0.03454
669.88556 0.03473
668.59979 0.03491
667.31402 0.03503
666.02825 0.03495
664.74248 0.03471
663.45671 0.03433
662.17095 0.03391
660.88518 0.03354
659.59941 0.03327
658.31364 0.03310
657.02787 0.03299
655.74210 0.03290
654.45633 0.03281
653.17056 0.03269
651.88480 0.03257
650.59903 0.03246
649.31326 0.03238
648.02749 0.03233
646.74172 0.03231
645.45595 0.03231
644.17018 0.03231
642.88441 0.03233
641.59864 0.03238
640.31288 0.03246
639.02711 0.03255
637.74134 0.03265
636.45557 0.03279
635.16980 0.03300
633.88403 0.03328
632.59826 0.03359
631.31249 0.03409
630.02673 0.03550
628.74096 0.03745
627.45519 0.03701
626.16942 0.03945
624.88365 0.04403
623.59788 0.04881
622.31211 0.05286
621.02634 0.05557
619.74057 0.05677
618.45481 0.05694
617.16904 0.05686
615.88327 0.05727
614.59750 0.05886
613.31173 0.06241
612.02596 0.06822
610.74019 0.07553
609.45442 0.08291
608.16866 0.08950
606.88289 0.09534
605.59712 0.10048
604.31135 0.10431
603.02558 0.10616
601.73981 0.10601
600.45404 0.10434
599.16827 0.10172
597.88250 0.09854
596.59674 0.09516
595.31097 0.09198
594.02520 0.08930
592.73943 0.08720
591.45366 0.08569
590.16789 0.08475
588.88212 0.08445
587.59635 0.08484
586.31059 0.08587
585.02482 0.08738
583.73905 0.08918
582.45328 0.09118
581.16751 0.09339
579.88174 0.09578
578.59597 0.09825
577.31020 0.10065
576.02443 0.10286
574.73867 0.10490
573.45290 0.10688
572.16713 0.10902
570.88136 0.11154
569.59559 0.11455
568.30982 0.11800
567.02405 0.12164
565.73828 0.12509
564.45251 0.12796
563.16675 0.12989
561.88098 0.13064
560.59521 0.13009
559.30944 0.12826
558.02367 0.12527
556.73790 0.12134
555.45213 0.11670
554.16636 0.11160
552.88060 0.10636
551.59483 0.10128
550.30906 0.09652
549.02329 0.09215
547.73752 0.08814
546.45175 0.08444
545.16598 0.08104
543.88021 0.07787
542.59444 0.07489
541.30868 0.07205
540.02291 0.06940
538.73714 0.06703
537.45137 0.06497
536.16560 0.06320
534.87983 0.06161
533.59406 0.06009
532.30829 0.05857
531.02253 0.05706
529.73676 0.05560
528.45099 0.05419
527.16522 0.05278
525.87945 0.05140
524.59368 0.05017
523.30791 0.04915
522.02214 0.04825
520.73637 0.04737
519.45061 0.04645
518.16484 0.04552
516.87907 0.04460
515.59330 0.04368
514.30753 0.04274
513.02176 0.04179
511.73599 0.04092
510.45022 0.04018
509.16446 0.03957
507.87869 0.03906
506.59292 0.03858
505.30715 0.03806
504.02138 0.03746
502.73561 0.03678
501.44984 0.03613
500.16407 0.03559
498.87830 0.03514
497.59254 0.03471
496.30677 0.03426
495.02100 0.03383
493.73523 0.03347
492.44946 0.03317
491.16369 0.03288
489.87792 0.03261
488.59215 0.03238
487.30639 0.03219
486.02062 0.03205
484.73485 0.03200
483.44908 0.03207
482.16331 0.03220
480.87754 0.03228
479.59177 0.03225
478.30600 0.03220
477.02023 0.03225
475.73447 0.03244
474.44870 0.03266
473.16293 0.03281
471.87716 0.03283
470.59139 0.03274
469.30562 0.03255
468.01985 0.03232
466.73408 0.03210
465.44832 0.03193
464.16255 0.03176
462.87678 0.03154
461.59101 0.03121
460.30524 0.03079
459.01947 0.03032
457.73370 0.02983
456.44793 0.02936
455.16216 0.02892
453.87640 0.02857
452.59063 0.02831
451.30486 0.02815
450.01909 0.02804
448.73332 0.02790
447.44755 0.02766
446.16178 0.02732
444.87601 0.02697
443.59025 0.02666
442.30448 0.02643
441.01871 0.02627
439.73294 0.02616
438.44717 0.02608
437.16140 0.02602
435.87563 0.02596
434.58986 0.02584
433.30409 0.02566
432.01833 0.02544
430.73256 0.02521
429.44679 0.02502
428.16102 0.02487
426.87525 0.02476
425.58948 0.02467
424.30371 0.02456
423.01794 0.02441
421.73218 0.02425
420.44641 0.02413
419.16064 0.02408
417.87487 0.02407
416.58910 0.02404
415.30333 0.02396
414.01756 0.02386
412.73179 0.02377
411.44602 0.02369
410.16026 0.02359
408.87449 0.02352
407.58872 0.02350
406.30295 0.02356
405.01718 0.02366
403.73141 0.02375
402.44564 0.02378
401.15987 0.02379
399.87411 0.02383
