3997.45528 0.06058
3996.16951 0.06144
3994.88374 0.06271
3993.59798 0.06361
3992.31221 0.06355
3991.02644 0.06287
3989.74067 0.06234
3988.45490 0.06243
3987.16913 0.06290
3985.88336 0.06311
3984.59759 0.06257
3983.31183 0.06136
3982.02606 0.06004
3980.74029 0.05930
3979.45452 0.05944
3978.16875 0.06013
3976.88298 0.06075
3975.59721 0.06090
3974.31144 0.06062
3973.02567 0.06022
3971.73991 0.06000
3970.45414 0.06010
3969.16837 0.06049
3967.88260 0.06095
3966.59683 0.06130
3965.31106 0.06149
3964.02529 0.06145
3962.73952 0.06096
3961.45376 0.05984
3960.16799 0.05839
3958.88222 0.05747
3957.59645 0.05773
3956.31068 0.05893
3955.02491 0.06012
3953.73914 0.06053
3952.45337 0.06025
3951.16760 0.05981
3949.88184 0.05956
3948.59607 0.05956
3947.31030 0.05978
3946.02453 0.06015
3944.73876 0.06049
3943.45299 0.06057
3942.16722 0.06041
3940.88145 0.06022
3939.59569 0.06035
3938.30992 0.06102
3937.02415 0.06202
3935.73838 0.06275
3934.45261 0.06268
3933.16684 0.06186
3931.88107 0.06090
3930.59530 0.06045
3929.30953 0.06069
3928.02377 0.06119
3926.73800 0.06135
3925.45223 0.06100
3924.16646 0.06046
3922.88069 0.06004
3921.59492 0.05988
3920.30915 0.06014
3919.02338 0.06095
3917.73762 0.06197
3916.45185 0.06260
3915.16608 0.06240
3913.88031 0.06160
3912.59454 0.06093
3911.30877 0.06099
3910.02300 0.06182
3908.73723 0.06298
3907.45146 0.06397
3906.16570 0.06458
3904.87993 0.06471
3903.59416 0.06415
3902.30839 0.06276
3901.02262 0.06088
3899.73685 0.05935
3898.45108 0.05874
3897.16531 0.05883
3895.87955 0.05901
3894.59378 0.05899
3893.30801 0.05891
3892.02224 0.05893
3890.73647 0.05911
3889.45070 0.05937
3888.16493 0.05972
3886.87916 0.06034
3885.59339 0.06117
3884.30763 0.06150
3883.02186 0.06072
3881.73609 0.05930
3880.45032 0.05848
3879.16455 0.05883
3877.87878 0.05974
3876.59301 0.06032
3875.30724 0.06030
3874.02148 0.05973
3872.73571 0.05861
3871.44994 0.05719
3870.16417 0.05633
3868.87840 0.05666
3867.59263 0.05784
3866.30686 0.05917
3865.02109 0.06036
3863.73532 0.06125
3862.44956 0.06142
3861.16379 0.06065
3859.87802 0.05935
3858.59225 0.05830
3857.30648 0.05792
3856.02071 0.05804
3854.73494 0.05828
3853.44917 0.05861
3852.16341 0.05905
3850.87764 0.05938
3849.59187 0.05940
3848.30610 0.05921
3847.02033 0.05906
3845.73456 0.05910
3844.44879 0.05922
3843.16302 0.05923
3841.87725 0.05900
3840.59149 0.05854
3839.30572 0.05803
3838.01995 0.05776
3836.73418 0.05778
3835.44841 0.05780
3834.16264 0.05748
3832.87687 0.05684
3831.59110 0.05610
3830.30534 0.05548
3829.01957 0.05507
3827.73380 0.05477
3826.44803 0.05454
3825.16226 0.05441
3823.87649 0.05447
3822.59072 0.05488
3821.30495 0.05577
3820.01918 0.05688
3818.73342 0.05750
3817.44765 0.05732
3816.16188 0.05689
3814.87611 0.05673
3813.59034 0.05656
3812.30457 0.05603
3811.01880 0.05545
3809.73303 0.05526
3808.44726 0.05546
3807.16150 0.05574
3805.87573 0.05563
3804.58996 0.05485
3803.30419 0.05374
3802.01842 0.05326
3800.73265 0.05390
3799.44688 0.05497
3798.16111 0.05556
3796.87535 0.05570
3795.58958 0.05595
3794.30381 0.05644
3793.01804 0.05689
3791.73227 0.05704
3790.44650 0.05687
3789.16073 0.05664
3787.87496 0.05674
3786.58919 0.05732
3785.30343 0.05797
3784.01766 0.05808
3782.73189 0.05738
3781.44612 0.05624
3780.16035 0.05526
3778.87458 0.05475
3777.58881 0.05452
3776.30304 0.05427
3775.01728 0.05387
3773.73151 0.05345
3772.44574 0.05321
3771.15997 0.05326
3769.87420 0.05352
3768.58843 0.05380
3767.30266 0.05409
3766.01689 0.05465
3764.73112 0.05549
3763.44536 0.05592
3762.15959 0.05526
3760.87382 0.05367
3759.58805 0.05203
3758.30228 0.05112
3757.01651 0.05119
3755.73074 0.05187
3754.44497 0.05247
3753.15921 0.05258
3751.87344 0.05232
3750.58767 0.05206
3749.30190 0.05216
3748.01613 0.05265
3746.73036 0.05304
3745.44459 0.05313
3744.15882 0.05340
3742.87305 0.05398
3741.58729 0.05445
3740.30152 0.05474
3739.01575 0.05500
3737.72998 0.05499
3736.44421 0.05445
3735.15844 0.05352
3733.87267 0.05248
3732.58690 0.05167
3731.30114 0.05142
3730.01537 0.05176
3728.72960 0.05238
3727.44383 0.05301
3726.15806 0.05355
3724.87229 0.05375
3723.58652 0.05346
3722.30075 0.05285
3721.01498 0.05219
3719.72922 0.05155
3718.44345 0.05103
3717.15768 0.05093
3715.87191 0.05137
3714.58614 0.05206
3713.30037 0.05265
3712.01460 0.05316
3710.72883 0.05375
3709.44307 0.05439
3708.15730 0.05486
3706.87153 0.05495
3705.58576 0.05457
3704.29999 0.05397
3703.01422 0.05364
3701.72845 0.05382
3700.44268 0.05413
3699.15691 0.05382
3697.87115 0.05259
3696.58538 0.05090
3695.29961 0.04952
3694.01384 0.04896
3692.72807 0.04929
3691.44230 0.05010
3690.15653 0.05063
3688.87076 0.05051
3687.58500 0.04999
3686.29923 0.04951
3685.01346 0.04926
3683.72769 0.04923
3682.44192 0.04927
3681.15615 0.04937
3679.87038 0.04982
3678.58461 0.05076
3677.29884 0.05182
3676.01308 0.05272
3674.72731 0.05350
3673.44154 0.05406
3672.15577 0.05409
3670.87000 0.05380
3669.58423 0.05369
3668.29846 0.05383
3667.01269 0.05389
3665.72693 0.05370
3664.44116 0.05339
3663.15539 0.05331
3661.86962 0.05375
3660.58385 0.05458
3659.29808 0.05531
3658.01231 0.05554
3656.72654 0.05541
3655.44077 0.05542
3654.15501 0.05578
3652.86924 0.05626
3651.58347 0.05653
3650.29770 0.05657
3649.01193 0.05652
3647.72616 0.05658
3646.44039 0.05676
3645.15462 0.05682
3643.86886 0.05652
3642.58309 0.05594
3641.29732 0.05550
3640.01155 0.05551
3638.72578 0.05591
3637.44001 0.05625
3636.15424 0.05616
3634.86847 0.05575
3633.58270 0.05551
3632.29694 0.05572
3631.01117 0.05615
3629.72540 0.05652
3628.43963 0.05677
3627.15386 0.05684
3625.86809 0.05660
3624.58232 0.05619
3623.29655 0.05594
3622.01079 0.05598
3620.72502 0.05627
3619.43925 0.05677
3618.15348 0.05738
3616.86771 0.05786
3615.58194 0.05800
3614.29617 0.05787
3613.01040 0.05778
3611.72463 0.05797
3610.43887 0.05838
3609.15310 0.05878
3607.86733 0.05908
3606.58156 0.05936
3605.29579 0.05975
3604.01002 0.06030
3602.72425 0.06101
3601.43848 0.06191
3600.15272 0.06298
3598.86695 0.06392
3597.58118 0.06431
3596.29541 0.06400
3595.00964 0.06335
3593.72387 0.06289
3592.43810 0.06294
3591.15233 0.06341
3589.86656 0.06399
3588.58080 0.06440
3587.29503 0.06448
3586.00926 0.06414
3584.72349 0.06339
3583.43772 0.06241
3582.15195 0.06164
3580.86618 0.06146
3579.58041 0.06198
3578.29464 0.06296
3577.00888 0.06408
3575.72311 0.06510
3574.43734 0.06603
3573.15157 0.06686
3571.86580 0.06737
3570.58003 0.06719
3569.29426 0.06631
3568.00849 0.06535
3566.72273 0.06512
3565.43696 0.06590
3564.15119 0.06718
3562.86542 0.06820
3561.57965 0.06852
3560.29388 0.06828
3559.00811 0.06803
3557.72234 0.06828
3556.43657 0.06899
3555.15081 0.06963
3553.86504 0.06969
3552.57927 0.06914
3551.29350 0.06838
3550.00773 0.06783
3548.72196 0.06771
3547.43619 0.06799
3546.15042 0.06853
3544.86466 0.06922
3543.57889 0.06997
3542.29312 0.07066
3541.00735 0.07116
3539.72158 0.07142
3538.43581 0.07152
3537.15004 0.07148
3535.86427 0.07125
3534.57850 0.07087
3533.29274 0.07062
3532.00697 0.07085
3530.72120 0.07163
3529.43543 0.07269
3528.14966 0.07360
3526.86389 0.07410
3525.57812 0.07425
3524.29235 0.07436
3523.00659 0.07459
3521.72082 0.07470
3520.43505 0.07430
3519.14928 0.07348
3517.86351 0.07293
3516.57774 0.07323
3515.29197 0.07430
3514.00620 0.07544
3512.72043 0.07605
3511.43467 0.07606
3510.14890 0.07571
3508.86313 0.07531
3507.57736 0.07498
3506.29159 0.07470
3505.00582 0.07446
3503.72005 0.07441
3502.43428 0.07475
3501.14852 0.07553
3499.86275 0.07652
3498.57698 0.07746
3497.29121 0.07832
3496.00544 0.07919
3494.71967 0.07996
3493.43390 0.08028
3492.14813 0.07997
3490.86236 0.07926
3489.57660 0.07862
3488.29083 0.07836
3487.00506 0.07847
3485.71929 0.07873
3484.43352 0.07898
3483.14775 0.07913
3481.86198 0.07921
3480.57621 0.07921
3479.29045 0.07919
3478.00468 0.07930
3476.71891 0.07970
3475.43314 0.08036
3474.14737 0.08103
3472.86160 0.08149
3471.57583 0.08169
3470.29006 0.08169
3469.00429 0.08150
3467.71853 0.08112
3466.43276 0.08060
3465.14699 0.08005
3463.86122 0.07962
3462.57545 0.07939
3461.28968 0.07937
3460.00391 0.07946
3458.71814 0.07949
3457.43238 0.07946
3456.14661 0.07954
3454.86084 0.07998
3453.57507 0.08086
3452.28930 0.08199
3451.00353 0.08297
3449.71776 0.08345
3448.43199 0.08337
3447.14622 0.08292
3445.86046 0.08240
3444.57469 0.08217
3443.28892 0.08254
3442.00315 0.08358
3440.71738 0.08491
3439.43161 0.08603
3438.14584 0.08665
3436.86007 0.08665
3435.57431 0.08597
3434.28854 0.08478
3433.00277 0.08367
3431.71700 0.08343
3430.43123 0.08424
3429.14546 0.08549
3427.85969 0.08629
3426.57392 0.08622
3425.28815 0.08557
3424.00239 0.08498
3422.71662 0.08499
3421.43085 0.08565
3420.14508 0.08652
3418.85931 0.08707
3417.57354 0.08712
3416.28777 0.08697
3415.00200 0.08699
3413.71624 0.08727
3412.43047 0.08754
3411.14470 0.08749
3409.85893 0.08706
3408.57316 0.08646
3407.28739 0.08602
3406.00162 0.08599
3404.71585 0.08638
3403.43008 0.08695
3402.14432 0.08752
3400.85855 0.08808
3399.57278 0.08829
3398.28701 0.08835
3397.00124 0.08878
3395.71547 0.08928
3394.42970 0.08945
3393.14393 0.08921
3391.85817 0.08885
3390.57240 0.08873
3389.28663 0.08896
3388.00086 0.08945
3386.71509 0.09009
3385.42932 0.09085
3384.14355 0.09163
3382.85778 0.09215
3381.57201 0.09214
3380.28625 0.09156
3379.00048 0.09077
3377.71471 0.09022
3376.42894 0.09012
3375.14317 0.09032
3373.85740 0.09054
3372.57163 0.09064
3371.28586 0.09067
3370.00010 0.09064
3368.71433 0.09058
3367.42856 0.09053
3366.14279 0.09051
3364.85702 0.09056
3363.57125 0.09071
3362.28548 0.09095
3360.99971 0.09121
3359.71394 0.09140
3358.42818 0.09154
3357.14241 0.09172
3355.85664 0.09193
3354.57087 0.09213
3353.28510 0.09232
3351.99933 0.09260
3350.71356 0.09299
3349.42779 0.09338
3348.14202 0.09355
3346.85626 0.09335
3345.57049 0.09290
3344.28472 0.09251
3342.99895 0.09250
3341.71318 0.09281
3340.42741 0.09315
3339.14164 0.09323
3337.85587 0.09304
3336.57011 0.09279
3335.28434 0.09266
3333.99857 0.09266
3332.71280 0.09264
3331.42703 0.09249
3330.14126 0.09220
3328.85549 0.09185
3327.56972 0.09155
3326.28395 0.09136
3324.99819 0.09132
3323.71242 0.09141
3322.42665 0.09158
3321.14088 0.09191
3319.85511 0.09242
3318.56934 0.09306
3317.28357 0.09365
3315.99780 0.09409
3314.71204 0.09444
3313.42627 0.09475
3312.14050 0.09492
3310.85473 0.09490
3309.56896 0.09488
3308.28319 0.09516
3306.99742 0.09577
3305.71165 0.09630
3304.42588 0.09630
3303.14012 0.09574
3301.85435 0.09502
3300.56858 0.09445
3299.28281 0.09406
3297.99704 0.09376
3296.71127 0.09362
3295.42550 0.09379
3294.13973 0.09428
3292.85397 0.09490
3291.56820 0.09543
3290.28243 0.09580
3288.99666 0.09597
3287.71089 0.09588
3286.42512 0.09543
3285.13935 0.09472
3283.85358 0.09415
3282.56781 0.09405
3281.28205 0.09445
3279.99628 0.09505
3278.71051 0.09552
3277.42474 0.09565
3276.13897 0.09545
3274.85320 0.09509
3273.56743 0.09484
3272.28166 0.09483
3270.99590 0.09493
3269.71013 0.09490
3268.42436 0.09465
3267.13859 0.09431
3265.85282 0.09406
3264.56705 0.09397
3263.28128 0.09400
3261.99551 0.09411
3260.70974 0.09424
3259.42398 0.09419
3258.13821 0.09380
3256.85244 0.09318
3255.56667 0.09277
3254.28090 0.09287
3252.99513 0.09334
3251.70936 0.09379
3250.42359 0.09403
3249.13783 0.09404
3247.85206 0.09377
3246.56629 0.09316
3245.28052 0.09233
3243.99475 0.09163
3242.70898 0.09131
3241.42321 0.09140
3240.13744 0.09172
3238.85167 0.09199
3237.56591 0.09186
3236.28014 0.09121
3234.99437 0.09025
3233.70860 0.08936
3232.42283 0.08881
3231.13706 0.08866
3229.85129 0.08886
3228.56552 0.08923
3227.27976 0.08955
3225.99399 0.08967
3224.70822 0.08964
3223.42245 0.08961
3222.13668 0.08967
3220.85091 0.08986
3219.56514 0.09014
3218.27937 0.09040
3216.99360 0.09045
3215.70784 0.09015
3214.42207 0.08953
3213.13630 0.08878
3211.85053 0.08814
3210.56476 0.08780
3209.27899 0.08776
3207.99322 0.08785
3206.70745 0.08791
3205.42169 0.08794
3204.13592 0.08813
3202.85015 0.08867
3201.56438 0.08938
3200.27861 0.08979
3198.99284 0.08958
3197.70707 0.08899
3196.42130 0.08853
3195.13553 0.08841
3193.84977 0.08839
3192.56400 0.08811
3191.27823 0.08761
3189.99246 0.08718
3188.70669 0.08711
3187.42092 0.08739
3186.13515 0.08768
3184.84938 0.08758
3183.56362 0.08700
3182.27785 0.08627
3180.99208 0.08589
3179.70631 0.08603
3178.42054 0.08634
3177.13477 0.08633
3175.84900 0.08582
3174.56323 0.08507
3173.27746 0.08451
3171.99170 0.08432
3170.70593 0.08435
3169.42016 0.08440
3168.13439 0.08447
3166.84862 0.08463
3165.56285 0.08480
3164.27708 0.08479
3162.99131 0.08449
3161.70555 0.08402
3160.41978 0.08353
3159.13401 0.08310
3157.84824 0.08276
3156.56247 0.08251
3155.27670 0.08229
3153.99093 0.08203
3152.70516 0.08172
3151.41939 0.08149
3150.13363 0.08145
3148.84786 0.08157
3147.56209 0.08176
3146.27632 0.08200
3144.99055 0.08236
3143.70478 0.08279
3142.41901 0.08312
3141.13324 0.08318
3139.84748 0.08302
3138.56171 0.08287
3137.27594 0.08284
3135.99017 0.08288
3134.70440 0.08282
3133.41863 0.08269
3132.13286 0.08257
3130.84709 0.08242
3129.56132 0.08202
3128.27556 0.08133
3126.98979 0.08057
3125.70402 0.08006
3124.41825 0.07988
3123.13248 0.07995
3121.84671 0.08011
3120.56094 0.08031
3119.27517 0.08048
3117.98940 0.08049
3116.70364 0.08030
3115.41787 0.08000
3114.13210 0.07980
3112.84633 0.07975
3111.56056 0.07976
3110.27479 0.07977
3108.98902 0.07975
3107.70325 0.07963
3106.41749 0.07927
3105.13172 0.07868
3103.84595 0.07813
3102.56018 0.07789
3101.27441 0.07802
3099.98864 0.07832
3098.70287 0.07855
3097.41710 0.07860
3096.13133 0.07846
3094.84557 0.07818
3093.55980 0.07794
3092.27403 0.07790
3090.98826 0.07808
3089.70249 0.07833
3088.41672 0.07849
3087.13095 0.07851
3085.84518 0.07843
3084.55942 0.07828
3083.27365 0.07804
3081.98788 0.07771
3080.70211 0.07733
3079.41634 0.07699
3078.13057 0.07688
3076.84480 0.07716
3075.55903 0.07780
3074.27326 0.07854
3072.98750 0.07906
3071.70173 0.07924
3070.41596 0.07915
3069.13019 0.07888
3067.84442 0.07853
3066.55865 0.07822
3065.27288 0.07802
3063.98711 0.07788
3062.70135 0.07768
3061.41558 0.07740
3060.12981 0.07722
3058.84404 0.07720
3057.55827 0.07717
3056.27250 0.07687
3054.98673 0.07619
3053.70096 0.07539
3052.41519 0.07485
3051.12943 0.07476
3049.84366 0.07492
3048.55789 0.07496
3047.27212 0.07469
3045.98635 0.07424
3044.70058 0.07386
3043.41481 0.07369
3042.12904 0.07372
3040.84328 0.07387
3039.55751 0.07406
3038.27174 0.07421
3036.98597 0.07425
3035.70020 0.07419
3034.41443 0.07411
3033.12866 0.07408
3031.84289 0.07410
3030.55712 0.07416
3029.27136 0.07427
3027.98559 0.07441
3026.69982 0.07444
3025.41405 0.07424
3024.12828 0.07382
3022.84251 0.07334
3021.55674 0.07289
3020.27097 0.07250
3018.98521 0.07222
3017.69944 0.07210
3016.41367 0.07210
3015.12790 0.07206
3013.84213 0.07193
3012.55636 0.07183
3011.27059 0.07186
3009.98482 0.07193
3008.69905 0.07186
3007.41329 0.07160
3006.12752 0.07128
3004.84175 0.07105
3003.55598 0.07100
3002.27021 0.07122
3000.98444 0.07151
2999.69867 0.07132
2998.41290 0.07141
2997.12714 0.07149
2995.84137 0.07160
2994.55560 0.07178
2993.26983 0.07201
2991.98406 0.07215
2990.69829 0.07204
2989.41252 0.07169
2988.12675 0.07132
2986.84098 0.07113
2985.55522 0.07121
2984.26945 0.07150
2982.98368 0.07192
2981.69791 0.07236
2980.41214 0.07282
2979.12637 0.07338
2977.84060 0.07410
2976.55483 0.07487
2975.26907 0.07546
2973.98330 0.07585
2972.69753 0.07626
2971.41176 0.07700
2970.12599 0.07818
2968.84022 0.07962
2967.55445 0.08102
2966.26868 0.08224
2964.98291 0.08335
2963.69715 0.08441
2962.41138 0.08541
2961.12561 0.08632
2959.83984 0.08721
2958.55407 0.08817
2957.26830 0.08915
2955.98253 0.09010
2954.69676 0.09098
2953.41100 0.09175
2952.12523 0.09229
2950.83946 0.09250
2949.55369 0.09243
2948.26792 0.09217
2946.98215 0.09180
2945.69638 0.09138
2944.41061 0.09100
2943.12484 0.09074
2941.83908 0.09068
2940.55331 0.09088
2939.26754 0.09141
2937.98177 0.09216
2936.69600 0.09289
2935.41023 0.09347
2934.12446 0.09402
2932.83869 0.09479
2931.55293 0.09585
2930.26716 0.09699
2928.98139 0.09798
2927.69562 0.09879
2926.40985 0.09946
2925.12408 0.09985
2923.83831 0.09986
2922.55254 0.09956
2921.26677 0.09917
2919.98101 0.09872
2918.69524 0.09812
2917.40947 0.09734
2916.12370 0.09660
2914.83793 0.09601
2913.55216 0.09544
2912.26639 0.09470
2910.98062 0.09383
2909.69486 0.09307
2908.40909 0.09245
2907.12332 0.09178
2905.83755 0.09096
2904.55178 0.09016
2903.26601 0.08959
2901.98024 0.08922
2900.69447 0.08880
2899.40870 0.08811
2898.12294 0.08720
2896.83717 0.08628
2895.55140 0.08552
2894.26563 0.08494
2892.97986 0.08444
2891.69409 0.08390
2890.40832 0.08328
2889.12255 0.08259
2887.83678 0.08185
2886.55102 0.08116
2885.26525 0.08058
2883.97948 0.08022
2882.69371 0.08012
2881.40794 0.08026
2880.12217 0.08043
2878.83640 0.08040
2877.55063 0.08023
2876.26487 0.08029
2874.97910 0.08081
2873.69333 0.08155
2872.40756 0.08213
2871.12179 0.08244
2869.83602 0.08269
2868.55025 0.08300
2867.26448 0.08320
2865.97871 0.08312
2864.69295 0.08275
2863.40718 0.08226
2862.12141 0.08186
2860.83564 0.08169
2859.54987 0.08177
2858.26410 0.08195
2856.97833 0.08201
2855.69256 0.08181
2854.40680 0.08141
2853.12103 0.08092
2851.83526 0.08041
2850.54949 0.07985
2849.26372 0.07925
2847.97795 0.07865
2846.69218 0.07806
2845.40641 0.07744
2844.12064 0.07676
2842.83488 0.07599
2841.54911 0.07505
2840.26334 0.07392
2838.97757 0.07273
2837.69180 0.07168
2836.40603 0.07091
2835.12026 0.07038
2833.83449 0.06995
2832.54873 0.06948
2831.26296 0.06883
2829.97719 0.06795
2828.69142 0.06693
2827.40565 0.06601
2826.11988 0.06534
2824.83411 0.06489
2823.54834 0.06460
2822.26257 0.06446
2820.97681 0.06444
2819.69104 0.06436
2818.40527 0.06409
2817.11950 0.06366
2815.83373 0.06325
2814.54796 0.06297
2813.26219 0.06283
2811.97642 0.06277
2810.69066 0.06270
2809.40489 0.06251
2808.11912 0.06221
2806.83335 0.06194
2805.54758 0.06174
2804.26181 0.06154
2802.97604 0.06124
2801.69027 0.06093
2800.40450 0.06077
2799.11874 0.06081
2797.83297 0.06094
2796.54720 0.06105
2795.26143 0.06109
2793.97566 0.06099
2792.68989 0.06068
2791.40412 0.06025
2790.11835 0.05996
2788.83259 0.05996
2787.54682 0.06013
2786.26105 0.06016
2784.97528 0.05993
2783.68951 0.05957
2782.40374 0.05922
2781.11797 0.05894
2779.83220 0.05877
2778.54643 0.05874
2777.26067 0.05883
2775.97490 0.05889
2774.68913 0.05875
2773.40336 0.05839
2772.11759 0.05799
2770.83182 0.05777
2769.54605 0.05780
2768.26028 0.05801
2766.97452 0.05821
2765.68875 0.05827
2764.40298 0.05820
2763.11721 0.05810
2761.83144 0.05803
2760.54567 0.05790
2759.25990 0.05763
2757.97413 0.05725
2756.68836 0.05693
2755.40260 0.05681
2754.11683 0.05685
2752.83106 0.05694
2751.54529 0.05699
2750.25952 0.05700
2748.97375 0.05700
2747.68798 0.05695
2746.40221 0.05679
2745.11645 0.05655
2743.83068 0.05633
2742.54491 0.05618
2741.25914 0.05602
2739.97337 0.05580
2738.68760 0.05564
2737.40183 0.05566
2736.11606 0.05583
2734.83029 0.05600
2733.54453 0.05608
2732.25876 0.05610
2730.97299 0.05608
2729.68722 0.05601
2728.40145 0.05584
2727.11568 0.05558
2725.82991 0.05526
2724.54414 0.05491
2723.25838 0.05464
2721.97261 0.05454
2720.68684 0.05458
2719.40107 0.05464
2718.11530 0.05461
2716.82953 0.05448
2715.54376 0.05430
2714.25799 0.05414
2712.97222 0.05405
2711.68646 0.05399
2710.40069 0.05391
2709.11492 0.05377
2707.82915 0.05364
2706.54338 0.05360
2705.25761 0.05362
2703.97184 0.05362
2702.68607 0.05355
2701.40031 0.05340
2700.11454 0.05316
2698.82877 0.05284
2697.54300 0.05252
2696.25723 0.05235
2694.97146 0.05242
2693.68569 0.05261
2692.39992 0.05271
2691.11415 0.05262
2689.82839 0.05241
2688.54262 0.05224
2687.25685 0.05219
2685.97108 0.05221
2684.68531 0.05222
2683.39954 0.05218
2682.11377 0.05207
2680.82800 0.05190
2679.54224 0.05173
2678.25647 0.05160
2676.97070 0.05151
2675.68493 0.05142
2674.39916 0.05132
2673.11339 0.05123
2671.82762 0.05117
2670.54185 0.05118
2669.25608 0.05131
2667.97032 0.05148
2666.68455 0.05151
2665.39878 0.05137
2664.11301 0.05119
2662.82724 0.05114
2661.54147 0.05120
2660.25570 0.05122
2658.96993 0.05112
2657.68417 0.05097
2656.39840 0.05084
2655.11263 0.05072
2653.82686 0.05060
2652.54109 0.05048
2651.25532 0.05031
2649.96955 0.05001
2648.68378 0.04960
2647.39801 0.04915
2646.11225 0.04874
2644.82648 0.04847
2643.54071 0.04836
2642.25494 0.04830
2640.96917 0.04816
2639.68340 0.04791
2638.39763 0.04765
2637.11186 0.04751
2635.82609 0.04745
2634.54033 0.04732
2633.25456 0.04709
2631.96879 0.04693
2630.68302 0.04701
2629.39725 0.04737
2628.11148 0.04778
2626.82571 0.04794
2625.53994 0.04768
2624.25418 0.04711
2622.96841 0.04647
2621.68264 0.04594
2620.39687 0.04558
2619.11110 0.04539
2617.82533 0.04529
2616.53956 0.04516
2615.25379 0.04495
2613.96802 0.04476
2612.68226 0.04467
2611.39649 0.04465
2610.11072 0.04462
2608.82495 0.04458
2607.53918 0.04459
2606.25341 0.04462
2604.96764 0.04463
2603.68187 0.04459
2602.39611 0.04456
2601.11034 0.04459
2599.82457 0.04464
2598.53880 0.04454
2597.25303 0.04420
2595.96726 0.04375
2594.68149 0.04342
2593.39572 0.04331
2592.10995 0.04329
2590.82419 0.04320
2589.53842 0.04296
2588.25265 0.04264
2586.96688 0.04235
2585.68111 0.04215
2584.39534 0.04205
2583.10957 0.04203
2581.82380 0.04205
2580.53804 0.04204
2579.25227 0.04200
2577.96650 0.04198
2576.68073 0.04203
2575.39496 0.04211
2574.10919 0.04219
2572.82342 0.04226
2571.53765 0.04227
2570.25188 0.04218
2568.96612 0.04210
2567.68035 0.04215
2566.39458 0.04232
2565.10881 0.04238
2563.82304 0.04211
2562.53727 0.04156
2561.25150 0.04102
2559.96573 0.04073
2558.67997 0.04060
2557.39420 0.04043
2556.10843 0.04021
2554.82266 0.04012
2553.53689 0.04027
2552.25112 0.04053
2550.96535 0.04071
2549.67958 0.04067
2548.39381 0.04034
2547.10805 0.03977
2545.82228 0.03915
2544.53651 0.03871
2543.25074 0.03864
2541.96497 0.03892
2540.67920 0.03946
2539.39343 0.04003
2538.10766 0.04039
2536.82190 0.04041
2535.53613 0.04016
2534.25036 0.03990
2532.96459 0.03988
2531.67882 0.04003
2530.39305 0.04002
2529.10728 0.03961
2527.82151 0.03906
2526.53574 0.03885
2525.24998 0.03915
2523.96421 0.03964
2522.67844 0.03990
2521.39267 0.03981
2520.10690 0.03953
2518.82113 0.03924
2517.53536 0.03903
2516.24959 0.03892
2514.96383 0.03890
2513.67806 0.03891
2512.39229 0.03896
2511.10652 0.03915
2509.82075 0.03949
2508.53498 0.03973
2507.24921 0.03955
2505.96344 0.03897
2504.67767 0.03838
2503.39191 0.03808
2502.10614 0.03806
2500.82037 0.03819
2499.53460 0.03846
2498.24883 0.03887
2496.96306 0.03923
2495.67729 0.03932
2494.39152 0.03911
2493.10576 0.03886
2491.81999 0.03880
2490.53422 0.03890
2489.24845 0.03899
2487.96268 0.03893
2486.67691 0.03874
2485.39114 0.03849
2484.10537 0.03826
2482.81960 0.03818
2481.53384 0.03827
2480.24807 0.03837
2478.96230 0.03830
2477.67653 0.03808
2476.39076 0.03794
2475.10499 0.03799
2473.81922 0.03814
2472.53345 0.03823
2471.24769 0.03821
2469.96192 0.03819
2468.67615 0.03826
2467.39038 0.03845
2466.10461 0.03874
2464.81884 0.03902
2463.53307 0.03916
2462.24730 0.03908
2460.96153 0.03888
2459.67577 0.03878
2458.39000 0.03885
2457.10423 0.03895
2455.81846 0.03888
2454.53269 0.03857
2453.24692 0.03812
2451.96115 0.03770
2450.67538 0.03750
2449.38962 0.03756
2448.10385 0.03782
2446.81808 0.03811
2445.53231 0.03835
2444.24654 0.03849
2442.96077 0.03856
2441.67500 0.03860
2440.38923 0.03861
2439.10346 0.03852
2437.81770 0.03825
2436.53193 0.03780
2435.24616 0.03732
2433.96039 0.03706
2432.67462 0.03720
2431.38885 0.03765
2430.10308 0.03808
2428.81731 0.03821
2427.53155 0.03801
2426.24578 0.03760
2424.96001 0.03715
2423.67424 0.03677
2422.38847 0.03653
2421.10270 0.03639
2419.81693 0.03625
2418.53116 0.03606
2417.24539 0.03592
2415.95963 0.03599
2414.67386 0.03627
2413.38809 0.03662
2412.10232 0.03685
2410.81655 0.03692
2409.53078 0.03683
2408.24501 0.03660
2406.95924 0.03623
2405.67347 0.03581
2404.38771 0.03558
2403.10194 0.03569
2401.81617 0.03601
2400.53040 0.03634
2399.24463 0.03735
2397.95886 0.03702
2396.67309 0.03687
2395.38732 0.03708
2394.10156 0.03717
2392.81579 0.03697
2391.53002 0.03658
2390.24425 0.03615
2388.95848 0.03583
2387.67271 0.03570
2386.38694 0.03576
2385.10117 0.03592
2383.81540 0.03611
2382.52964 0.03624
2381.24387 0.03626
2379.95810 0.03618
2378.67233 0.03609
2377.38656 0.03609
2376.10079 0.03622
2374.81502 0.03640
2373.52925 0.03652
2372.24349 0.03654
2370.95772 0.03655
2369.67195 0.03664
2368.38618 0.03686
2367.10041 0.03708
2365.81464 0.03721
2364.52887 0.03724
2363.24310 0.03730
2361.95733 0.03749
2360.67157 0.03774
2359.38580 0.03782
2358.10003 0.03766
2356.81426 0.03739
2355.52849 0.03723
2354.24272 0.03723
2352.95695 0.03731
2351.67118 0.03739
2350.38542 0.03744
2349.09965 0.03748
2347.81388 0.03748
2346.52811 0.03743
2345.24234 0.03730
2343.95657 0.03712
2342.67080 0.03699
2341.38503 0.03698
2340.09926 0.03707
2338.81350 0.03716
2337.52773 0.03717
2336.24196 0.03715
2334.95619 0.03714
2333.67042 0.03714
2332.38465 0.03710
2331.09888 0.03703
2329.81311 0.03693
2328.52735 0.03685
2327.24158 0.03693
2325.95581 0.03710
2324.67004 0.03722
2323.38427 0.03729
2322.09850 0.03735
2320.81273 0.03738
2319.52696 0.03728
2318.24119 0.03690
2316.95543 0.03623
2315.66966 0.03552
2314.38389 0.03499
2313.09812 0.03468
2311.81235 0.03446
2310.52658 0.03417
2309.24081 0.03382
2307.95504 0.03357
2306.66928 0.03348
2305.38351 0.03352
2304.09774 0.03355
2302.81197 0.03347
2301.52620 0.03328
2300.24043 0.03300
2298.95466 0.03271
2297.66889 0.03244
2296.38312 0.03228
2295.09736 0.03229
2293.81159 0.03243
2292.52582 0.03252
2291.24005 0.03246
2289.95428 0.03232
2288.66851 0.03224
2287.38274 0.03224
2286.09697 0.03216
2284.81121 0.03192
2283.52544 0.03162
2282.23967 0.03140
2280.95390 0.03130
2279.66813 0.03121
2278.38236 0.03105
2277.09659 0.03089
2275.81082 0.03088
2274.52505 0.03106
2273.23929 0.03121
2271.95352 0.03100
2270.66775 0.03026
2269.38198 0.02929
2268.09621 0.02861
2266.81044 0.02855
2265.52467 0.02905
2264.23890 0.02967
2262.95314 0.02990
2261.66737 0.02936
2260.38160 0.02817
2259.09583 0.02687
2257.81006 0.02595
2256.52429 0.02552
2255.23852 0.02539
2253.95275 0.02550
2252.66698 0.02591
2251.38122 0.02633
2250.09545 0.02670
2248.80968 0.02786
2247.52391 0.02745
2246.23814 0.02676
2244.95237 0.02625
2243.66660 0.02600
2242.38083 0.02580
2241.09507 0.02551
2239.80930 0.02514
2238.52353 0.02486
2237.23776 0.02485
2235.95199 0.02518
2234.66622 0.02562
2233.38045 0.02587
2232.09468 0.02583
2230.80891 0.02561
2229.52315 0.02529
2228.23738 0.02490
2226.95161 0.02450
2225.66584 0.02419
2224.38007 0.02396
2223.09430 0.02379
2221.80853 0.02380
2220.52276 0.02408
2219.23700 0.02457
2217.95123 0.02490
2216.66546 0.02473
2215.37969 0.02400
2214.09392 0.02309
2212.80815 0.02253
2211.52238 0.02253
2210.23661 0.02290
2208.95084 0.02332
2207.66508 0.02350
2206.37931 0.02322
2205.09354 0.02239
2203.80777 0.02127
2202.52200 0.02030
2201.23623 0.01983
2199.95046 0.01984
2198.66469 0.02019
2197.37893 0.02068
2196.09316 0.02108
2194.80739 0.02124
2193.52162 0.02109
2192.23585 0.02063
2190.95008 0.01999
2189.66431 0.01931
2188.37854 0.01873
2187.09277 0.01833
2185.80701 0.01816
2184.52124 0.01828
2183.23547 0.01862
2181.94970 0.01889
2180.66393 0.01871
2179.37816 0.01788
2178.09239 0.01660
2176.80662 0.01548
2175.52085 0.01521
2174.23509 0.01590
2172.94932 0.01688
2171.66355 0.01737
2170.37778 0.01737
2169.09201 0.01747
2167.80624 0.01789
2166.52047 0.01791
2165.23470 0.01660
2163.94894 0.01393
2162.66317 0.01086
2161.37740 0.00842
2160.09163 0.00700
2158.80586 0.00662
2157.52009 0.00745
2156.23432 0.00940
2154.94855 0.01163
2153.66278 0.01294
2152.37702 0.01290
2151.09125 0.01219
2149.80548 0.01187
2148.51971 0.01240
2147.23394 0.01358
2145.94817 0.01503
2144.66240 0.01637
2143.37663 0.01726
2142.09087 0.01751
2140.80510 0.01720
2139.51933 0.01656
2138.23356 0.01584
2136.94779 0.01533
2135.66202 0.01545
2134.37625 0.01629
2133.09048 0.01743
2131.80471 0.01829
2130.51895 0.01869
2129.23318 0.01893
2127.94741 0.01920
2126.66164 0.01942
2125.37587 0.01939
2124.09010 0.01921
2122.80433 0.01909
2121.51856 0.01912
2120.23280 0.01933
2118.94703 0.01981
2117.66126 0.02057
2116.37549 0.02131
2115.08972 0.02159
2113.80395 0.02130
2112.51818 0.02084
2111.23241 0.02068
2109.94664 0.02090
2108.66088 0.02110
2107.37511 0.02096
2106.08934 0.02051
2104.80357 0.02010
2103.51780 0.01999
2102.23203 0.02007
2100.94626 0.02008
2099.66049 0.02023
2098.37473 0.02036
2097.08896 0.02015
2095.80319 0.01984
2094.51742 0.01964
2093.23165 0.01954
2091.94588 0.01941
2090.66011 0.01907
2089.37434 0.01843
2088.08857 0.01759
2086.80281 0.01679
2085.51704 0.01629
2084.23127 0.01625
2082.94550 0.01664
2081.65973 0.01713
2080.37396 0.01732
2079.08819 0.01707
2077.80242 0.01662
2076.51666 0.01630
2075.23089 0.01621
2073.94512 0.01625
2072.65935 0.01629
2071.37358 0.01633
2070.08781 0.01640
2068.80204 0.01650
2067.51627 0.01645
2066.23050 0.01607
2064.94474 0.01535
2063.65897 0.01459
2062.37320 0.01415
2061.08743 0.01415
2059.80166 0.01438
2058.51589 0.01459
2057.23012 0.01476
2055.94435 0.01492
2054.65859 0.01509
2053.37282 0.01526
2052.08705 0.01544
2050.80128 0.01556
2049.51551 0.01537
2048.22974 0.01468
2046.94397 0.01357
2045.65820 0.01240
2044.37243 0.01156
2043.08667 0.01124
2041.80090 0.01139
2040.51513 0.01187
2039.22936 0.01254
2037.94359 0.01315
2036.65782 0.01330
2035.37205 0.01274
2034.08628 0.01165
2032.80052 0.01048
2031.51475 0.00954
2030.22898 0.00872
2028.94321 0.00791
2027.65744 0.00742
2026.37167 0.00775
2025.08590 0.00912
2023.80013 0.01112
2022.51436 0.01299
2021.22860 0.01405
2019.94283 0.01400
2018.65706 0.01310
2017.37129 0.01194
2016.08552 0.01111
2014.79975 0.01072
2013.51398 0.01067
2012.22821 0.01091
2010.94245 0.01148
2009.65668 0.01216
2008.37091 0.01248
2007.08514 0.01220
2005.79937 0.01159
2004.51360 0.01111
2003.22783 0.01099
2001.94206 0.01129
2000.65629 0.01198
1999.37053 0.01292
1998.08476 0.01363
1996.79899 0.01373
1995.51322 0.01340
1994.22745 0.01332
1992.94168 0.01382
1991.65591 0.01447
1990.37014 0.01466
1989.08438 0.01441
1987.79861 0.01430
1986.51284 0.01467
1985.22707 0.01523
1983.94130 0.01550
1982.65553 0.01526
1981.36976 0.01458
1980.08399 0.01375
1978.79822 0.01324
1977.51246 0.01344
1976.22669 0.01423
1974.94092 0.01505
1973.65515 0.01545
1972.36938 0.01547
1971.08361 0.01542
1969.79784 0.01554
1968.51207 0.01570
1967.22631 0.01557
1965.94054 0.01501
1964.65477 0.01430
1963.36900 0.01388
1962.08323 0.01385
1960.79746 0.01401
1959.51169 0.01433
1958.22592 0.01491
1956.94015 0.01563
1955.65439 0.01606
1954.36862 0.01605
1953.08285 0.01600
1951.79708 0.01637
1950.51131 0.01719
1949.22554 0.01806
1947.93977 0.01861
1946.65400 0.01875
1945.36823 0.01858
1944.08247 0.01820
1942.79670 0.01788
1941.51093 0.01792
1940.22516 0.01850
1938.93939 0.01942
1937.65362 0.02017
1936.36785 0.02038
1935.08208 0.02017
1933.79632 0.01996
1932.51055 0.02007
1931.22478 0.02043
1929.93901 0.02077
1928.65324 0.02089
1927.36747 0.02080
1926.08170 0.02059
1924.79593 0.02039
1923.51016 0.02039
1922.22440 0.02072
1920.93863 0.02120
1919.65286 0.02145
1918.36709 0.02127
1917.08132 0.02077
1915.79555 0.02025
1914.50978 0.01996
1913.22401 0.01999
1911.93825 0.02021
1910.65248 0.02041
1909.36671 0.02051
1908.08094 0.02050
1906.79517 0.02040
1905.50940 0.02020
1904.22363 0.01994
1902.93786 0.01980
1901.65209 0.01987
1900.36633 0.02012
1899.08056 0.02039
1897.79479 0.02061
1896.50902 0.02079
1895.22325 0.02100
1893.93748 0.02121
1892.65171 0.02135
1891.36594 0.02131
1890.08018 0.02109
1888.79441 0.02083
1887.50864 0.02074
1886.22287 0.02087
1884.93710 0.02110
1883.65133 0.02121
1882.36556 0.02111
1881.07979 0.02088
1879.79402 0.02062
1878.50826 0.02042
1877.22249 0.02031
1875.93672 0.02033
1874.65095 0.02046
1873.36518 0.02061
1872.07941 0.02072
1870.79364 0.02075
1869.50787 0.02072
1868.22211 0.02063
1866.93634 0.02047
1865.65057 0.02034
1864.36480 0.02034
1863.07903 0.02049
1861.79326 0.02071
1860.50749 0.02084
1859.22172 0.02082
1857.93595 0.02064
1856.65019 0.02042
1855.36442 0.02029
1854.07865 0.02036
1852.79288 0.02058
1851.50711 0.02085
1850.22134 0.02106
1848.93557 0.02119
1847.64980 0.02127
1846.36404 0.02132
1845.07827 0.02134
1843.79250 0.02139
1842.50673 0.02145
1841.22096 0.02144
1839.93519 0.02135
1838.64942 0.02126
1837.36365 0.02125
1836.07788 0.02130
1834.79212 0.02142
1833.50635 0.02155
1832.22058 0.02160
1830.93481 0.02156
1829.64904 0.02153
1828.36327 0.02158
1827.07750 0.02167
1825.79173 0.02176
1824.50597 0.02182
1823.22020 0.02180
1821.93443 0.02169
1820.64866 0.02154
1819.36289 0.02145
1818.07712 0.02142
1816.79135 0.02140
1815.50558 0.02134
1814.21981 0.02124
1812.93405 0.02112
1811.64828 0.02104
1810.36251 0.02104
1809.07674 0.02109
1807.79097 0.02116
1806.50520 0.02127
1805.21943 0.02144
1803.93366 0.02161
1802.64790 0.02169
1801.36213 0.02164
1800.07636 0.02154
1798.79059 0.02148
1797.50482 0.02155
1796.21905 0.02171
1794.93328 0.02186
1793.64751 0.02189
1792.36174 0.02188
1791.07598 0.02193
1789.79021 0.02206
1788.50444 0.02217
1787.21867 0.02220
1785.93290 0.02221
1784.64713 0.02230
1783.36136 0.02248
1782.07559 0.02263
1780.78983 0.02267
1779.50406 0.02263
1778.21829 0.02255
1776.93252 0.02246
1775.64675 0.02236
1774.36098 0.02219
1773.07521 0.02204
1771.78944 0.02201
1770.50367 0.02207
1769.21791 0.02209
1767.93214 0.02209
1766.64637 0.02218
1765.36060 0.02237
1764.07483 0.02258
1762.78906 0.02278
1761.50329 0.02295
1760.21752 0.02304
1758.93176 0.02296
1757.64599 0.02277
1756.36022 0.02262
1755.07445 0.02253
1753.78868 0.02239
1752.50291 0.02221
1751.21714 0.02218
1749.93137 0.02237
1748.64560 0.02261
1747.35984 0.02274
1746.07407 0.02276
1744.78830 0.02275
1743.50253 0.02280
1742.21676 0.02288
1740.93099 0.02297
1739.64522 0.02310
1738.35945 0.02327
1737.07369 0.02335
1735.78792 0.02328
1734.50215 0.02323
1733.21638 0.02340
1731.93061 0.02367
1730.64484 0.02380
1729.35907 0.02379
1728.07330 0.02382
1726.78753 0.02394
1725.50177 0.02410
1724.21600 0.02428
1722.93023 0.02455
1721.64446 0.02489
1720.35869 0.02520
1719.07292 0.02540
1717.78715 0.02562
1716.50138 0.02598
1715.21561 0.02642
1713.92985 0.02685
1712.64408 0.02731
1711.35831 0.02786
1710.07254 0.02850
1708.78677 0.02919
1707.50100 0.02988
1706.21523 0.03062
1704.92946 0.03147
1703.64370 0.03238
1702.35793 0.03316
1701.07216 0.03393
1699.78639 0.03495
1698.50062 0.03613
1697.21485 0.03719
1695.92908 0.03815
1694.64331 0.03924
1693.35754 0.04036
1692.07178 0.04127
1690.78601 0.04209
1689.50024 0.04307
1688.21447 0.04415
1686.92870 0.04510
1685.64293 0.04590
1684.35716 0.04679
1683.07139 0.04788
1681.78563 0.04896
1680.49986 0.04988
1679.21409 0.05079
1677.92832 0.05175
1676.64255 0.05271
1675.35678 0.05368
1674.07101 0.05472
1672.78524 0.05574
1671.49947 0.05666
1670.21371 0.05757
1668.92794 0.05859
1667.64217 0.05968
1666.35640 0.06070
1665.07063 0.06159
1663.78486 0.06244
1662.49909 0.06336
1661.21332 0.06429
1659.92756 0.06514
1658.64179 0.06595
1657.35602 0.06679
1656.07025 0.06757
1654.78448 0.06815
1653.49871 0.06873
1652.21294 0.06954
1650.92717 0.07040
1649.64140 0.07088
1648.35564 0.07093
1647.06987 0.07093
1645.78410 0.07110
1644.49833 0.07131
1643.21256 0.07137
1641.92679 0.07121
1640.64102 0.07097
1639.35525 0.07075
1638.06949 0.07049
1636.78372 0.07014
1635.49795 0.06977
1634.21218 0.06940
1632.92641 0.06888
1631.64064 0.06818
1630.35487 0.06742
1629.06910 0.06673
1627.78333 0.06616
1626.49757 0.06570
1625.21180 0.06524
1623.92603 0.06478
1622.64026 0.06435
1621.35449 0.06398
1620.06872 0.06360
1618.78295 0.06313
1617.49718 0.06268
1616.21142 0.06239
1614.92565 0.06223
1613.63988 0.06202
1612.35411 0.06173
1611.06834 0.06151
1609.78257 0.06141
1608.49680 0.06140
1607.21103 0.06142
1605.92526 0.06148
1604.63950 0.06155
1603.35373 0.06167
1602.06796 0.06183
1600.78219 0.06204
1599.49642 0.06228
1598.21065 0.06254
1596.92488 0.06281
1595.63911 0.06312
1594.35335 0.06350
1593.06758 0.06389
1591.78181 0.06426
1590.49604 0.06457
1589.21027 0.06488
1587.92450 0.06523
1586.63873 0.06566
1585.35296 0.06613
1584.06719 0.06661
1582.78143 0.06710
1581.49566 0.06768
1580.20989 0.06837
1578.92412 0.06912
1577.63835 0.06981
1576.35258 0.07051
1575.06681 0.07132
1573.78104 0.07213
1572.49528 0.07276
1571.20951 0.07326
1569.92374 0.07381
1568.63797 0.07445
1567.35220 0.07508
1566.06643 0.07559
1564.78066 0.07604
1563.49489 0.07650
1562.20912 0.07689
1560.92336 0.07716
1559.63759 0.07745
1558.35182 0.07795
1557.06605 0.07847
1555.78028 0.07869
1554.49451 0.07860
1553.20874 0.07847
1551.92297 0.07840
1550.63721 0.07834
1549.35144 0.07829
1548.06567 0.07821
1546.77990 0.07803
1545.49413 0.07772
1544.20836 0.07734
1542.92259 0.07689
1541.63682 0.07635
1540.35105 0.07579
1539.06529 0.07533
1537.77952 0.07497
1536.49375 0.07452
1535.20798 0.07393
1533.92221 0.07340
1532.63644 0.07314
1531.35067 0.07307
1530.06490 0.07303
1528.77914 0.07298
1527.49337 0.07296
1526.20760 0.07305
1524.92183 0.07326
1523.63606 0.07351
1522.35029 0.07379
1521.06452 0.07423
1519.77875 0.07485
1518.49298 0.07549
1517.20722 0.07606
1515.92145 0.07667
1514.63568 0.07739
1513.34991 0.07820
1512.06414 0.07913
1510.77837 0.08018
1509.49260 0.08124
1508.20683 0.08222
1506.92107 0.08318
1505.63530 0.08425
1504.34953 0.08534
1503.06376 0.08626
1501.77799 0.08699
1500.49222 0.08767
1499.20645 0.08834
1497.92068 0.08893
1496.63491 0.08945
1495.34915 0.08996
1494.06338 0.09046
1492.77761 0.09094
1491.49184 0.09145
1490.20607 0.09206
1488.92030 0.09281
1487.63453 0.09362
1486.34876 0.09447
1485.06299 0.09537
1483.77723 0.09635
1482.49146 0.09743
1481.20569 0.09864
1479.91992 0.09998
1478.63415 0.10141
1477.34838 0.10287
1476.06261 0.10430
1474.77684 0.10563
1473.49108 0.10686
1472.20531 0.10810
1470.91954 0.10934
1469.63377 0.11049
1468.34800 0.11148
1467.06223 0.11233
1465.77646 0.11313
1464.49069 0.11396
1463.20492 0.11485
1461.91916 0.11581
1460.63339 0.11684
1459.34762 0.11790
1458.06185 0.11899
1456.77608 0.12018
1455.49031 0.12146
1454.20454 0.12258
1452.91877 0.12342
1451.63301 0.12402
1450.34724 0.12452
1449.06147 0.12496
1447.77570 0.12533
1446.48993 0.12562
1445.20416 0.12573
1443.91839 0.12566
1442.63262 0.12543
1441.34685 0.12514
1440.06109 0.12478
1438.77532 0.12433
1437.48955 0.12388
1436.20378 0.12360
1434.91801 0.12354
1433.63224 0.12369
1432.34647 0.12403
1431.06070 0.12464
1429.77494 0.12556
1428.48917 0.12676
1427.20340 0.12815
1425.91763 0.12968
1424.63186 0.13129
1423.34609 0.13294
1422.06032 0.13451
1420.77455 0.13596
1419.48878 0.13734
1418.20302 0.13870
1416.91725 0.13992
1415.63148 0.14088
1414.34571 0.14156
1413.05994 0.14199
1411.77417 0.14219
1410.48840 0.14214
1409.20263 0.14186
1407.91687 0.14132
1406.63110 0.14050
1405.34533 0.13938
1404.05956 0.13798
1402.77379 0.13629
1401.48802 0.13431
1400.20225 0.13212
1398.91648 0.12985
1397.63071 0.12757
1396.34495 0.12523
1395.05918 0.12279
1393.77341 0.12027
1392.48764 0.11774
1391.20187 0.11521
1389.91610 0.11271
1388.63033 0.11030
1387.34456 0.10800
1386.05880 0.10578
1384.77303 0.10357
1383.48726 0.10130
1382.20149 0.09902
1380.91572 0.09678
1379.62995 0.09459
1378.34418 0.09238
1377.05841 0.09006
1375.77264 0.08758
1374.48688 0.08498
1373.20111 0.08235
1371.91534 0.07976
1370.62957 0.07727
1369.34380 0.07493
1368.05803 0.07277
1366.77226 0.07079
1365.48649 0.06892
1364.20073 0.06714
1362.91496 0.06543
1361.62919 0.06381
1360.34342 0.06229
1359.05765 0.06088
1357.77188 0.05963
1356.48611 0.05855
1355.20034 0.05759
1353.91457 0.05669
1352.62881 0.05583
1351.34304 0.05502
1350.05727 0.05430
1348.77150 0.05365
1347.48573 0.05300
1346.19996 0.05234
1344.91419 0.05168
1343.62842 0.05108
1342.34266 0.05053
1341.05689 0.04999
1339.77112 0.04940
1338.48535 0.04877
1337.19958 0.04815
1335.91381 0.04757
1334.62804 0.04703
1333.34227 0.04655
1332.05650 0.04610
1330.77074 0.04564
1329.48497 0.04515
1328.19920 0.04462
1326.91343 0.04407
1325.62766 0.04355
1324.34189 0.04307
1323.05612 0.04264
1321.77035 0.04226
1320.48459 0.04191
1319.19882 0.04156
1317.91305 0.04120
1316.62728 0.04083
1315.34151 0.04045
1314.05574 0.04008
1312.76997 0.03973
1311.48420 0.03940
1310.19843 0.03909
1308.91267 0.03875
1307.62690 0.03838
1306.34113 0.03797
1305.05536 0.03756
1303.76959 0.03720
1302.48382 0.03691
1301.19805 0.03667
1299.91228 0.03645
1298.62652 0.03619
1297.34075 0.03588
1296.05498 0.03556
1294.76921 0.03527
1293.48344 0.03503
1292.19767 0.03483
1290.91190 0.03465
1289.62613 0.03450
1288.34036 0.03437
1287.05460 0.03424
1285.76883 0.03408
1284.48306 0.03389
1283.19729 0.03371
1281.91152 0.03358
1280.62575 0.03349
1279.33998 0.03338
1278.05421 0.03322
1276.76845 0.03300
1275.48268 0.03278
1274.19691 0.03260
1272.91114 0.03247
1271.62537 0.03236
1270.33960 0.03223
1269.05383 0.03212
1267.76806 0.03210
1266.48229 0.03215
1265.19653 0.03223
1263.91076 0.03224
1262.62499 0.03217
1261.33922 0.03201
1260.05345 0.03183
1258.76768 0.03169
1257.48191 0.03161
1256.19614 0.03160
1254.91037 0.03165
1253.62461 0.03175
1252.33884 0.03186
1251.05307 0.03194
1249.76730 0.03193
1248.48153 0.03185
1247.19576 0.03172
1245.90999 0.03161
1244.62422 0.03156
1243.33846 0.03156
1242.05269 0.03156
1240.76692 0.03152
1239.48115 0.03144
1238.19538 0.03133
1236.90961 0.03121
1235.62384 0.03111
1234.33807 0.03101
1233.05230 0.03092
1231.76654 0.03082
1230.48077 0.03069
1229.19500 0.03051
1227.90923 0.03029
1226.62346 0.03010
1225.33769 0.02997
1224.05192 0.02988
1222.76615 0.02974
1221.48039 0.02950
1220.19462 0.02917
1218.90885 0.02885
1217.62308 0.02860
1216.33731 0.02841
1215.05154 0.02826
1213.76577 0.02812
1212.48000 0.02801
1211.19423 0.02792
1209.90847 0.02785
1208.62270 0.02780
1207.33693 0.02777
1206.05116 0.02776
1204.76539 0.02776
1203.47962 0.02772
1202.19385 0.02758
1200.90808 0.02736
1199.62232 0.02733
1198.33655 0.02726
1197.05078 0.02718
1195.76501 0.02709
1194.47924 0.02700
1193.19347 0.02688
1191.90770 0.02676
1190.62193 0.02662
1189.33616 0.02650
1188.05040 0.02642
1186.76463 0.02638
1185.47886 0.02637
1184.19309 0.02635
1182.90732 0.02632
1181.62155 0.02632
1180.33578 0.02634
1179.05001 0.02637
1177.76425 0.02641
1176.47848 0.02648
1175.19271 0.02658
1173.90694 0.02671
1172.62117 0.02685
1171.33540 0.02697
1170.04963 0.02708
1168.76386 0.02723
1167.47809 0.02744
1166.19233 0.02769
1164.90656 0.02790
1163.62079 0.02805
1162.33502 0.02813
1161.04925 0.02821
1159.76348 0.02830
1158.47771 0.02844
1157.19194 0.02868
1155.90618 0.02901
1154.62041 0.02941
1153.33464 0.02980
1152.04887 0.03015
1150.76310 0.03045
1149.47733 0.03075
1148.19156 0.03110
1146.90579 0.03158
1145.62002 0.03221
1144.33426 0.03296
1143.04849 0.03378
1141.76272 0.03466
1140.47695 0.03563
1139.19118 0.03669
1137.90541 0.03788
1136.61964 0.03921
1135.33387 0.04073
1134.04811 0.04242
1132.76234 0.04425
1131.47657 0.04621
1130.19080 0.04834
1128.90503 0.05071
1127.61926 0.05333
1126.33349 0.05619
1125.04772 0.05927
1123.76195 0.06259
1122.47619 0.06611
1121.19042 0.06976
1119.90465 0.07341
1118.61888 0.07707
1117.33311 0.08083
1116.04734 0.08476
1114.76157 0.08879
1113.47580 0.09276
1112.19004 0.09658
1110.90427 0.10025
1109.61850 0.10385
1108.33273 0.10740
1107.04696 0.11093
1105.76119 0.11444
1104.47542 0.11793
1103.18965 0.12135
1101.90388 0.12460
1100.61812 0.12762
1099.33235 0.13046
1098.04658 0.13327
1096.76081 0.13615
1095.47504 0.13905
1094.18927 0.14180
1092.90350 0.14429
1091.61773 0.14652
1090.33197 0.14860
1089.04620 0.15065
1087.76043 0.15273
1086.47466 0.15485
1085.18889 0.15695
1083.90312 0.15898
1082.61735 0.16097
1081.33158 0.16306
1080.04581 0.16537
1078.76005 0.16793
1077.47428 0.17074
1076.18851 0.17376
1074.90274 0.17690
1073.61697 0.18008
1072.33120 0.18329
1071.04543 0.18661
1069.75966 0.19012
1068.47390 0.19382
1067.18813 0.19764
1065.90236 0.20149
1064.61659 0.20535
1063.33082 0.20925
1062.04505 0.21322
1060.75928 0.21727
1059.47351 0.22139
1058.18774 0.22545
1056.90198 0.22932
1055.61621 0.23295
1054.33044 0.23647
1053.04467 0.24003
1051.75890 0.24377
1050.47313 0.24765
1049.18736 0.25159
1047.90159 0.25558
1046.61583 0.25964
1045.33006 0.26382
1044.04429 0.26810
1042.75852 0.27249
1041.47275 0.27696
1040.18698 0.28152
1038.90121 0.28615
1037.61544 0.29083
1036.32967 0.29554
1035.04391 0.30026
1033.75814 0.30492
1032.47237 0.30941
1031.18660 0.31361
1029.90083 0.31746
1028.61506 0.32098
1027.32929 0.32420
1026.04352 0.32712
1024.75775 0.32974
1023.47199 0.33206
1022.18622 0.33411
1020.90045 0.33587
1019.61468 0.33721
1018.32891 0.33804
1017.04314 0.33836
1015.75737 0.33825
1014.47160 0.33769
1013.18584 0.33651
1011.90007 0.33465
1010.61430 0.33217
1009.32853 0.32918
1008.04276 0.32568
1006.75699 0.32159
1005.47122 0.31686
1004.18545 0.31157
1002.89968 0.30586
1001.61392 0.29979
1000.32815 0.29339
999.04238 0.28662
997.75661 0.27946
996.47084 0.27193
995.18507 0.26413
993.89930 0.25617
992.61353 0.24812
991.32777 0.24006
990.04200 0.23205
988.75623 0.22417
987.47046 0.21642
986.18469 0.20880
984.89892 0.20134
983.61315 0.19412
982.32738 0.18719
981.04161 0.18058
979.75585 0.17429
978.47008 0.16837
977.18431 0.16288
975.89854 0.15789
974.61277 0.15347
973.32700 0.14967
972.04123 0.14655
970.75546 0.14416
969.46970 0.14251
968.18393 0.14162
966.89816 0.14147
965.61239 0.14197
964.32662 0.14289
963.04085 0.14390
961.75508 0.14463
960.46931 0.14483
959.18354 0.14431
957.89778 0.14298
956.61201 0.14087
955.32624 0.13817
954.04047 0.13515
952.75470 0.13201
951.46893 0.12882
950.18316 0.12555
948.89739 0.12223
947.61163 0.11893
946.32586 0.11577
945.04009 0.11277
943.75432 0.10986
942.46855 0.10696
941.18278 0.10408
939.89701 0.10136
938.61124 0.09891
937.32547 0.09670
936.03971 0.09461
934.75394 0.09255
933.46817 0.09051
932.18240 0.08857
930.89663 0.08679
929.61086 0.08517
928.32509 0.08369
927.03932 0.08232
925.75356 0.08102
924.46779 0.07977
923.18202 0.07857
921.89625 0.07741
920.61048 0.07626
919.32471 0.07506
918.03894 0.07385
916.75317 0.07268
915.46740 0.07166
914.18164 0.07080
912.89587 0.07009
911.61010 0.06945
910.32433 0.06880
909.03856 0.06808
907.75279 0.06731
906.46702 0.06652
905.18125 0.06576
903.89549 0.06506
902.60972 0.06437
901.32395 0.06367
900.03818 0.06294
898.75241 0.06222
897.46664 0.06157
896.18087 0.06102
894.89510 0.06057
893.60933 0.06017
892.32357 0.05979
891.03780 0.05952
889.75203 0.05949
888.46626 0.05983
887.18049 0.06058
885.89472 0.06181
884.60895 0.06377
883.32318 0.06664
882.03742 0.07029
880.75165 0.07411
879.46588 0.07738
878.18011 0.07971
876.89434 0.08137
875.60857 0.08292
874.32280 0.08466
873.03703 0.08636
871.75126 0.08752
870.46550 0.08771
869.17973 0.08685
867.89396 0.08503
866.60819 0.08241
865.32242 0.07922
864.03665 0.07578
862.75088 0.07243
861.46511 0.06945
860.17935 0.06688
858.89358 0.06467
857.60781 0.06278
856.32204 0.06120
855.03627 0.05991
853.75050 0.05886
852.46473 0.05797
851.17896 0.05717
849.89319 0.05643
848.60743 0.05577
847.32166 0.05517
846.03589 0.05461
844.75012 0.05404
843.46435 0.05347
842.17858 0.05294
840.89281 0.05245
839.60704 0.05198
838.32128 0.05152
837.03551 0.05104
835.74974 0.05055
834.46397 0.05004
833.17820 0.04955
831.89243 0.04917
830.60666 0.04895
829.32089 0.04889
828.03512 0.04889
826.74936 0.04882
825.46359 0.04862
824.17782 0.04835
822.89205 0.04813
821.60628 0.04799
820.32051 0.04788
819.03474 0.04773
817.74897 0.04754
816.46321 0.04733
815.17744 0.04714
813.89167 0.04701
812.60590 0.04696
811.32013 0.04696
810.03436 0.04693
808.74859 0.04683
807.46282 0.04672
806.17705 0.04666
804.89129 0.04662
803.60552 0.04658
802.31975 0.04656
801.03398 0.04659
799.74821 0.04662
798.46244 0.04661
797.17667 0.04657
795.89090 0.04651
794.60513 0.04646
793.31937 0.04640
792.03360 0.04633
790.74783 0.04626
789.46206 0.04619
788.17629 0.04615
786.89052 0.04619
785.60475 0.04629
784.31898 0.04636
783.03322 0.04629
781.74745 0.04609
780.46168 0.04587
779.17591 0.04576
777.89014 0.04576
776.60437 0.04577
775.31860 0.04573
774.03283 0.04566
772.74706 0.04561
771.46130 0.04558
770.17553 0.04554
768.88976 0.04548
767.60399 0.04541
766.31822 0.04535
765.03245 0.04539
763.74668 0.04553
762.46091 0.04571
761.17515 0.04581
759.88938 0.04572
758.60361 0.04549
757.31784 0.04525
756.03207 0.04511
754.74630 0.04514
753.46053 0.04529
752.17476 0.04543
750.88899 0.04544
749.60323 0.04530
748.31746 0.04511
747.03169 0.04497
745.74592 0.04488
744.46015 0.04480
743.17438 0.04466
741.88861 0.04444
740.60284 0.04418
739.31708 0.04397
738.03131 0.04385
736.74554 0.04380
735.45977 0.04381
734.17400 0.04386
732.88823 0.04390
731.60246 0.04391
730.31669 0.04390
729.03092 0.04394
727.74516 0.04401
726.45939 0.04404
725.17362 0.04398
723.88785 0.04406
722.60208 0.04386
721.31631 0.04377
720.03054 0.04382
718.74477 0.04387
717.45901 0.04391
716.17324 0.04393
714.88747 0.04389
713.60170 0.04377
712.31593 0.04361
711.03016 0.04347
709.74439 0.04337
708.45862 0.04330
707.17285 0.04324
705.88709 0.04320
704.60132 0.04319
703.31555 0.04322
702.02978 0.04326
700.74401 0.04325
699.45824 0.04317
698.17247 0.04309
696.88670 0.04305
695.60094 0.04306
694.31517 0.04310
693.02940 0.04315
691.74363 0.04319
690.45786 0.04320
689.17209 0.04318
687.88632 0.04311
686.60055 0.04298
685.31478 0.04279
684.02902 0.04258
682.74325 0.04240
681.45748 0.04228
680.17171 0.04224
678.88594 0.04227
677.60017 0.04238
676.31440 0.04253
675.02863 0.04269
673.74287 0.04284
672.45710 0.04300
671.17133 0.04320
669.88556 0.04345
668.59979 0.04369
667.31402 0.04385
666.02825 0.04387
664.74248 0.04374
663.45671 0.04352
662.17095 0.04324
660.88518 0.04295
659.59941 0.04268
658.31364 0.04243
657.02787 0.04218
655.74210 0.04192
654.45633 0.04168
653.17056 0.04149
651.88480 0.04134
650.59903 0.04119
649.31326 0.04105
648.02749 0.04092
646.74172 0.04080
645.45595 0.04071
644.17018 0.04066
642.88441 0.04063
641.59864 0.04059
640.31288 0.04053
639.02711 0.04046
637.74134 0.04043
636.45557 0.04051
635.16980 0.04075
633.88403 0.04113
632.59826 0.04145
631.31249 0.04111
630.02673 0.04009
628.74096 0.04090
627.45519 0.04290
626.16942 0.04539
624.88365 0.04819
623.59788 0.05123
622.31211 0.05459
621.02634 0.05810
619.74057 0.06111
618.45481 0.06323
617.16904 0.06480
615.88327 0.06655
614.59750 0.06924
613.31173 0.07362
612.02596 0.08005
610.74019 0.08796
609.45442 0.09603
608.16866 0.10331
606.88289 0.10974
605.59712 0.11546
604.31135 0.12018
603.02558 0.12320
601.73981 0.12405
600.45404 0.12297
599.16827 0.12065
597.88250 0.11772
596.59674 0.11453
595.31097 0.11129
594.02520 0.10822
592.73943 0.10559
591.45366 0.10357
590.16789 0.10213
588.88212 0.10121
587.59635 0.10088
586.31059 0.10130
585.02482 0.10259
583.73905 0.10471
582.45328 0.10745
581.16751 0.11055
579.88174 0.11375
578.59597 0.11689
577.31020 0.11997
576.02443 0.12306
574.73867 0.12625
573.45290 0.12958
572.16713 0.13307
570.88136 0.13677
569.59559 0.14077
568.30982 0.14512
567.02405 0.14977
565.73828 0.15449
564.45251 0.15884
563.16675 0.16235
561.88098 0.16456
560.59521 0.16510
559.30944 0.16374
558.02367 0.16046
556.73790 0.15552
555.45213 0.14929
554.16636 0.14229
552.88060 0.13502
551.59483 0.12794
550.30906 0.12126
549.02329 0.11506
547.73752 0.10938
546.45175 0.10426
545.16598 0.09976
543.88021 0.09585
542.59444 0.09241
541.30868 0.08931
540.02291 0.08643
538.73714 0.08366
537.45137 0.08098
536.16560 0.07844
534.87983 0.07615
533.59406 0.07420
532.30829 0.07254
531.02253 0.07102
529.73676 0.06943
528.45099 0.06770
527.16522 0.06590
525.87945 0.06426
524.59368 0.06293
523.30791 0.06189
522.02214 0.06096
520.73637 0.05996
519.45061 0.05884
518.16484 0.05767
516.87907 0.05650
515.59330 0.05534
514.30753 0.05419
513.02176 0.05311
511.73599 0.05219
510.45022 0.05145
509.16446 0.05085
507.87869 0.05031
506.59292 0.04975
505.30715 0.04919
504.02138 0.04866
502.73561 0.04816
501.44984 0.04761
500.16407 0.04696
498.87830 0.04626
497.59254 0.04559
496.30677 0.04502
495.02100 0.04456
493.73523 0.04423
492.44946 0.04400
491.16369 0.04385
489.87792 0.04372
488.59215 0.04354
487.30639 0.04334
486.02062 0.04320
484.73485 0.04318
483.44908 0.04325
482.16331 0.04332
480.87754 0.04338
479.59177 0.04347
478.30600 0.04365
477.02023 0.04392
475.73447 0.04432
474.44870 0.04485
473.16293 0.04545
471.87716 0.04594
470.59139 0.04615
469.30562 0.04606
468.01985 0.04576
466.73408 0.04538
465.44832 0.04494
464.16255 0.04440
462.87678 0.04379
461.59101 0.04314
460.30524 0.04252
459.01947 0.04199
457.73370 0.04157
456.44793 0.04121
455.16216 0.04082
453.87640 0.04032
452.59063 0.03981
451.30486 0.03936
450.01909 0.03899
448.73332 0.03861
447.44755 0.03820
446.16178 0.03778
444.87601 0.03742
443.59025 0.03710
442.30448 0.03682
441.01871 0.03655
439.73294 0.03629
438.44717 0.03605
437.16140 0.03583
435.87563 0.03564
434.58986 0.03549
433.30409 0.03535
432.01833 0.03519
430.73256 0.03499
429.44679 0.03473
428.16102 0.03444
426.87525 0.03418
425.58948 0.03398
424.30371 0.03383
423.01794 0.03371
421.73218 0.03356
420.44641 0.03338
419.16064 0.03319
417.87487 0.03301
416.58910 0.03278
415.30333 0.03247
414.01756 0.03209
412.73179 0.03173
411.44602 0.03144
410.16026 0.03122
408.87449 0.03106
407.58872 0.03094
406.30295 0.03085
405.01718 0.03081
403.73141 0.03084
402.44564 0.03093
401.15987 0.03105
399.87411 0.03117
