3997.45528 0.07600
3996.16951 0.07548
3994.88374 0.07563
3993.59798 0.07594
3992.31221 0.07594
3991.02644 0.07577
3989.74067 0.07596
3988.45490 0.07680
3987.16913 0.07798
3985.88336 0.07877
3984.59759 0.07865
3983.31183 0.07765
3982.02606 0.07626
3980.74029 0.07499
3979.45452 0.07410
3978.16875 0.07355
3976.88298 0.07329
3975.59721 0.07335
3974.31144 0.07376
3973.02567 0.07443
3971.73991 0.07516
3970.45414 0.07573
3969.16837 0.07589
3967.88260 0.07541
3966.59683 0.07433
3965.31106 0.07318
3964.02529 0.07266
3962.73952 0.07316
3961.45376 0.07444
3960.16799 0.07582
3958.88222 0.07665
3957.59645 0.07659
3956.31068 0.07576
3955.02491 0.07460
3953.73914 0.07371
3952.45337 0.07358
3951.16760 0.07422
3949.88184 0.07515
3948.59607 0.07583
3947.31030 0.07614
3946.02453 0.07630
3944.73876 0.07645
3943.45299 0.07647
3942.16722 0.07614
3940.88145 0.07537
3939.59569 0.07427
3938.30992 0.07316
3937.02415 0.07237
3935.73838 0.07207
3934.45261 0.07219
3933.16684 0.07257
3931.88107 0.07305
3930.59530 0.07343
3929.30953 0.07349
3928.02377 0.07306
3926.73800 0.07208
3925.45223 0.07085
3924.16646 0.06995
3922.88069 0.06978
3921.59492 0.07033
3920.30915 0.07143
3919.02338 0.07284
3917.73762 0.07420
3916.45185 0.07505
3915.16608 0.07514
3913.88031 0.07472
3912.59454 0.07427
3911.30877 0.07404
3910.02300 0.07401
3908.73723 0.07413
3907.45146 0.07457
3906.16570 0.07541
3904.87993 0.07639
3903.59416 0.07683
3902.30839 0.07613
3901.02262 0.07452
3899.73685 0.07300
3898.45108 0.07241
3897.16531 0.07267
3895.87955 0.07300
3894.59378 0.07297
3893.30801 0.07286
3892.02224 0.07309
3890.73647 0.07357
3889.45070 0.07376
3888.16493 0.07342
3886.87916 0.07292
3885.59339 0.07275
3884.30763 0.07276
3883.02186 0.07249
3881.73609 0.07198
3880.45032 0.07183
3879.16455 0.07239
3877.87878 0.07331
3876.59301 0.07398
3875.30724 0.07413
3874.02148 0.07380
3872.73571 0.07302
3871.44994 0.07184
3870.16417 0.07060
3868.87840 0.06982
3867.59263 0.06978
3866.30686 0.07029
3865.02109 0.07089
3863.73532 0.07119
3862.44956 0.07112
3861.16379 0.07098
3859.87802 0.07107
3858.59225 0.07132
3857.30648 0.07137
3856.02071 0.07109
3854.73494 0.07078
3853.44917 0.07090
3852.16341 0.07147
3850.87764 0.07193
3849.59187 0.07177
3848.30610 0.07095
3847.02033 0.06982
3845.73456 0.06882
3844.44879 0.06822
3843.16302 0.06798
3841.87725 0.06794
3840.59149 0.06796
3839.30572 0.06805
3838.01995 0.06823
3836.73418 0.06842
3835.44841 0.06841
3834.16264 0.06816
3832.87687 0.06785
3831.59110 0.06769
3830.30534 0.06764
3829.01957 0.06752
3827.73380 0.06723
3826.44803 0.06690
3825.16226 0.06676
3823.87649 0.06696
3822.59072 0.06763
3821.30495 0.06871
3820.01918 0.06977
3818.73342 0.07014
3817.44765 0.06976
3816.16188 0.06941
3814.87611 0.06976
3813.59034 0.07044
3812.30457 0.07056
3811.01880 0.06979
3809.73303 0.06852
3808.44726 0.06739
3807.16150 0.06689
3805.87573 0.06697
3804.58996 0.06712
3803.30419 0.06695
3802.01842 0.06659
3800.73265 0.06643
3799.44688 0.06651
3798.16111 0.06670
3796.87535 0.06696
3795.58958 0.06723
3794.30381 0.06724
3793.01804 0.06679
3791.73227 0.06609
3790.44650 0.06556
3789.16073 0.06550
3787.87496 0.06602
3786.58919 0.06700
3785.30343 0.06809
3784.01766 0.06878
3782.73189 0.06875
3781.44612 0.06815
3780.16035 0.06746
3778.87458 0.06699
3777.58881 0.06666
3776.30304 0.06628
3775.01728 0.06592
3773.73151 0.06587
3772.44574 0.06626
3771.15997 0.06688
3769.87420 0.06730
3768.58843 0.06717
3767.30266 0.06661
3766.01689 0.06617
3764.73112 0.06626
3763.44536 0.06663
3762.15959 0.06666
3760.87382 0.06620
3759.58805 0.06562
3758.30228 0.06526
3757.01651 0.06512
3755.73074 0.06511
3754.44497 0.06527
3753.15921 0.06570
3751.87344 0.06628
3750.58767 0.06676
3749.30190 0.06709
3748.01613 0.06732
3746.73036 0.06717
3745.44459 0.06653
3744.15882 0.06583
3742.87305 0.06542
3741.58729 0.06506
3740.30152 0.06440
3739.01575 0.06354
3737.72998 0.06297
3736.44421 0.06301
3735.15844 0.06344
3733.87267 0.06353
3732.58690 0.06282
3731.30114 0.06159
3730.01537 0.06048
3728.72960 0.05998
3727.44383 0.06024
3726.15806 0.06106
3724.87229 0.06189
3723.58652 0.06223
3722.30075 0.06216
3721.01498 0.06216
3719.72922 0.06259
3718.44345 0.06335
3717.15768 0.06410
3715.87191 0.06447
3714.58614 0.06417
3713.30037 0.06325
3712.01460 0.06220
3710.72883 0.06172
3709.44307 0.06215
3708.15730 0.06319
3706.87153 0.06422
3705.58576 0.06477
3704.29999 0.06479
3703.01422 0.06456
3701.72845 0.06444
3700.44268 0.06457
3699.15691 0.06473
3697.87115 0.06446
3696.58538 0.06361
3695.29961 0.06258
3694.01384 0.06194
3692.72807 0.06194
3691.44230 0.06231
3690.15653 0.06246
3688.87076 0.06198
3687.58500 0.06107
3686.29923 0.06040
3685.01346 0.06040
3683.72769 0.06090
3682.44192 0.06128
3681.15615 0.06106
3679.87038 0.06050
3678.58461 0.06031
3677.29884 0.06078
3676.01308 0.06163
3674.72731 0.06230
3673.44154 0.06236
3672.15577 0.06193
3670.87000 0.06152
3669.58423 0.06152
3668.29846 0.06175
3667.01269 0.06189
3665.72693 0.06190
3664.44116 0.06197
3663.15539 0.06228
3661.86962 0.06296
3660.58385 0.06394
3659.29808 0.06487
3658.01231 0.06539
3656.72654 0.06558
3655.44077 0.06580
3654.15501 0.06614
3652.86924 0.06634
3651.58347 0.06615
3650.29770 0.06561
3649.01193 0.06504
3647.72616 0.06473
3646.44039 0.06467
3645.15462 0.06450
3643.86886 0.06402
3642.58309 0.06352
3641.29732 0.06358
3640.01155 0.06442
3638.72578 0.06568
3637.44001 0.06670
3636.15424 0.06694
3634.86847 0.06639
3633.58270 0.06552
3632.29694 0.06498
3631.01117 0.06518
3629.72540 0.06606
3628.43963 0.06712
3627.15386 0.06768
3625.86809 0.06749
3624.58232 0.06694
3623.29655 0.06653
3622.01079 0.06632
3620.72502 0.06630
3619.43925 0.06672
3618.15348 0.06789
3616.86771 0.06961
3615.58194 0.07121
3614.29617 0.07208
3613.01040 0.07206
3611.72463 0.07151
3610.43887 0.07105
3609.15310 0.07122
3607.86733 0.07213
3606.58156 0.07339
3605.29579 0.07442
3604.01002 0.07494
3602.72425 0.07509
3601.43848 0.07521
3600.15272 0.07559
3598.86695 0.07615
3597.58118 0.07653
3596.29541 0.07642
3595.00964 0.07586
3593.72387 0.07520
3592.43810 0.07485
3591.15233 0.07510
3589.86656 0.07604
3588.58080 0.07732
3587.29503 0.07832
3586.00926 0.07854
3584.72349 0.07805
3583.43772 0.07729
3582.15195 0.07673
3580.86618 0.07669
3579.58041 0.07722
3578.29464 0.07816
3577.00888 0.07917
3575.72311 0.07989
3574.43734 0.08028
3573.15157 0.08063
3571.86580 0.08108
3570.58003 0.08131
3569.29426 0.08093
3568.00849 0.08011
3566.72273 0.07956
3565.43696 0.07978
3564.15119 0.08056
3562.86542 0.08133
3561.57965 0.08181
3560.29388 0.08214
3559.00811 0.08268
3557.72234 0.08356
3556.43657 0.08456
3555.15081 0.08518
3553.86504 0.08509
3552.57927 0.08446
3551.29350 0.08386
3550.00773 0.08371
3548.72196 0.08400
3547.43619 0.08443
3546.15042 0.08495
3544.86466 0.08581
3543.57889 0.08713
3542.29312 0.08854
3541.00735 0.08936
3539.72158 0.08925
3538.43581 0.08848
3537.15004 0.08758
3535.86427 0.08681
3534.57850 0.08626
3533.29274 0.08612
3532.00697 0.08670
3530.72120 0.08801
3529.43543 0.08960
3528.14966 0.09084
3526.86389 0.09150
3525.57812 0.09183
3524.29235 0.09221
3523.00659 0.09267
3521.72082 0.09292
3520.43505 0.09276
3519.14928 0.09239
3517.86351 0.09227
3516.57774 0.09269
3515.29197 0.09348
3514.00620 0.09410
3512.72043 0.09409
3511.43467 0.09338
3510.14890 0.09242
3508.86313 0.09186
3507.57736 0.09208
3506.29159 0.09288
3505.00582 0.09371
3503.72005 0.09414
3502.43428 0.09419
3501.14852 0.09422
3499.86275 0.09457
3498.57698 0.09523
3497.29121 0.09595
3496.00544 0.09643
3494.71967 0.09655
3493.43390 0.09645
3492.14813 0.09642
3490.86236 0.09665
3489.57660 0.09700
3488.29083 0.09722
3487.00506 0.09740
3485.71929 0.09796
3484.43352 0.09904
3483.14775 0.10016
3481.86198 0.10059
3480.57621 0.10013
3479.29045 0.09921
3478.00468 0.09843
3476.71891 0.09809
3475.43314 0.09825
3474.14737 0.09886
3472.86160 0.09978
3471.57583 0.10077
3470.29006 0.10154
3469.00429 0.10192
3467.71853 0.10189
3466.43276 0.10155
3465.14699 0.10112
3463.86122 0.10085
3462.57545 0.10093
3461.28968 0.10129
3460.00391 0.10166
3458.71814 0.10182
3457.43238 0.10182
3456.14661 0.10193
3454.86084 0.10227
3453.57507 0.10266
3452.28930 0.10281
3451.00353 0.10268
3449.71776 0.10253
3448.43199 0.10262
3447.14622 0.10299
3445.86046 0.10345
3444.57469 0.10392
3443.28892 0.10456
3442.00315 0.10546
3440.71738 0.10637
3439.43161 0.10681
3438.14584 0.10659
3436.86007 0.10601
3435.57431 0.10545
3434.28854 0.10498
3433.00277 0.10456
3431.71700 0.10447
3430.43123 0.10515
3429.14546 0.10656
3427.85969 0.10800
3426.57392 0.10881
3425.28815 0.10891
3424.00239 0.10871
3422.71662 0.10859
3421.43085 0.10863
3420.14508 0.10877
3418.85931 0.10898
3417.57354 0.10918
3416.28777 0.10931
3415.00200 0.10940
3413.71624 0.10960
3412.43047 0.10996
3411.14470 0.11027
3409.85893 0.11026
3408.57316 0.10993
3407.28739 0.10967
3406.00162 0.10985
3404.71585 0.11036
3403.43008 0.11075
3402.14432 0.11088
3400.85855 0.11093
3399.57278 0.11068
3398.28701 0.11023
3397.00124 0.11009
3395.71547 0.11016
3394.42970 0.11027
3393.14393 0.11037
3391.85817 0.11053
3390.57240 0.11089
3389.28663 0.11156
3388.00086 0.11249
3386.71509 0.11357
3385.42932 0.11460
3384.14355 0.11535
3382.85778 0.11557
3381.57201 0.11520
3380.28625 0.11445
3379.00048 0.11361
3377.71471 0.11292
3376.42894 0.11250
3375.14317 0.11246
3373.85740 0.11288
3372.57163 0.11364
3371.28586 0.11438
3370.00010 0.11468
3368.71433 0.11442
3367.42856 0.11384
3366.14279 0.11333
3364.85702 0.11309
3363.57125 0.11301
3362.28548 0.11288
3360.99971 0.11266
3359.71394 0.11251
3358.42818 0.11260
3357.14241 0.11292
3355.85664 0.11329
3354.57087 0.11352
3353.28510 0.11358
3351.99933 0.11358
3350.71356 0.11364
3349.42779 0.11371
3348.14202 0.11358
3346.85626 0.11314
3345.57049 0.11266
3344.28472 0.11260
3342.99895 0.11318
3341.71318 0.11407
3340.42741 0.11470
3339.14164 0.11474
3337.85587 0.11439
3336.57011 0.11416
3335.28434 0.11442
3333.99857 0.11509
3332.71280 0.11578
3331.42703 0.11615
3330.14126 0.11616
3328.85549 0.11593
3327.56972 0.11559
3326.28395 0.11515
3324.99819 0.11459
3323.71242 0.11400
3322.42665 0.11359
3321.14088 0.11360
3319.85511 0.11410
3318.56934 0.11484
3317.28357 0.11543
3315.99780 0.11573
3314.71204 0.11594
3313.42627 0.11623
3312.14050 0.11656
3310.85473 0.11674
3309.56896 0.11669
3308.28319 0.11651
3306.99742 0.11629
3305.71165 0.11604
3304.42588 0.11578
3303.14012 0.11562
3301.85435 0.11572
3300.56858 0.11604
3299.28281 0.11631
3297.99704 0.11623
3296.71127 0.11565
3295.42550 0.11469
3294.13973 0.11373
3292.85397 0.11318
3291.56820 0.11326
3290.28243 0.11386
3288.99666 0.11465
3287.71089 0.11533
3286.42512 0.11572
3285.13935 0.11581
3283.85358 0.11561
3282.56781 0.11521
3281.28205 0.11482
3279.99628 0.11459
3278.71051 0.11449
3277.42474 0.11433
3276.13897 0.11403
3274.85320 0.11372
3273.56743 0.11357
3272.28166 0.11358
3270.99590 0.11363
3269.71013 0.11364
3268.42436 0.11378
3267.13859 0.11424
3265.85282 0.11502
3264.56705 0.11582
3263.28128 0.11624
3261.99551 0.11617
3260.70974 0.11575
3259.42398 0.11517
3258.13821 0.11448
3256.85244 0.11368
3255.56667 0.11303
3254.28090 0.11280
3252.99513 0.11306
3251.70936 0.11356
3250.42359 0.11398
3249.13783 0.11411
3247.85206 0.11385
3246.56629 0.11323
3245.28052 0.11248
3243.99475 0.11189
3242.70898 0.11168
3241.42321 0.11185
3240.13744 0.11225
3238.85167 0.11260
3237.56591 0.11265
3236.28014 0.11233
3234.99437 0.11177
3233.70860 0.11118
3232.42283 0.11072
3231.13706 0.11046
3229.85129 0.11037
3228.56552 0.11026
3227.27976 0.10997
3225.99399 0.10956
3224.70822 0.10934
3223.42245 0.10955
3222.13668 0.11013
3220.85091 0.11073
3219.56514 0.11102
3218.27937 0.11093
3216.99360 0.11063
3215.70784 0.11034
3214.42207 0.11017
3213.13630 0.11001
3211.85053 0.10964
3210.56476 0.10906
3209.27899 0.10849
3207.99322 0.10821
3206.70745 0.10821
3205.42169 0.10830
3204.13592 0.10839
3202.85015 0.10853
3201.56438 0.10874
3200.27861 0.10889
3198.99284 0.10879
3197.70707 0.10842
3196.42130 0.10795
3195.13553 0.10767
3193.84977 0.10773
3192.56400 0.10811
3191.27823 0.10868
3189.99246 0.10925
3188.70669 0.10958
3187.42092 0.10951
3186.13515 0.10911
3184.84938 0.10858
3183.56362 0.10812
3182.27785 0.10776
3180.99208 0.10741
3179.70631 0.10696
3178.42054 0.10632
3177.13477 0.10555
3175.84900 0.10482
3174.56323 0.10438
3173.27746 0.10432
3171.99170 0.10451
3170.70593 0.10469
3169.42016 0.10479
3168.13439 0.10486
3166.84862 0.10495
3165.56285 0.10495
3164.27708 0.10481
3162.99131 0.10460
3161.70555 0.10440
3160.41978 0.10415
3159.13401 0.10371
3157.84824 0.10311
3156.56247 0.10251
3155.27670 0.10206
3153.99093 0.10187
3152.70516 0.10198
3151.41939 0.10230
3150.13363 0.10252
3148.84786 0.10242
3147.56209 0.10206
3146.27632 0.10173
3144.99055 0.10166
3143.70478 0.10180
3142.41901 0.10194
3141.13324 0.10190
3139.84748 0.10163
3138.56171 0.10122
3137.27594 0.10088
3135.99017 0.10069
3134.70440 0.10058
3133.41863 0.10051
3132.13286 0.10054
3130.84709 0.10065
3129.56132 0.10066
3128.27556 0.10041
3126.98979 0.09999
3125.70402 0.09962
3124.41825 0.09939
3123.13248 0.09920
3121.84671 0.09890
3120.56094 0.09847
3119.27517 0.09798
3117.98940 0.09763
3116.70364 0.09750
3115.41787 0.09757
3114.13210 0.09769
3112.84633 0.09774
3111.56056 0.09772
3110.27479 0.09767
3108.98902 0.09763
3107.70325 0.09759
3106.41749 0.09751
3105.13172 0.09734
3103.84595 0.09711
3102.56018 0.09690
3101.27441 0.09675
3099.98864 0.09659
3098.70287 0.09626
3097.41710 0.09578
3096.13133 0.09531
3094.84557 0.09507
3093.55980 0.09518
3092.27403 0.09559
3090.98826 0.09612
3089.70249 0.09658
3088.41672 0.09687
3087.13095 0.09694
3085.84518 0.09680
3084.55942 0.09647
3083.27365 0.09600
3081.98788 0.09545
3080.70211 0.09493
3079.41634 0.09457
3078.13057 0.09447
3076.84480 0.09465
3075.55903 0.09499
3074.27326 0.09531
3072.98750 0.09544
3071.70173 0.09540
3070.41596 0.09536
3069.13019 0.09540
3067.84442 0.09540
3066.55865 0.09517
3065.27288 0.09479
3063.98711 0.09448
3062.70135 0.09432
3061.41558 0.09418
3060.12981 0.09400
3058.84404 0.09386
3057.55827 0.09381
3056.27250 0.09371
3054.98673 0.09339
3053.70096 0.09291
3052.41519 0.09252
3051.12943 0.09238
3049.84366 0.09236
3048.55789 0.09217
3047.27212 0.09176
3045.98635 0.09132
3044.70058 0.09109
3043.41481 0.09105
3042.12904 0.09104
3040.84328 0.09091
3039.55751 0.09068
3038.27174 0.09049
3036.98597 0.09042
3035.70020 0.09049
3034.41443 0.09054
3033.12866 0.09042
3031.84289 0.09010
3030.55712 0.08979
3029.27136 0.08974
3027.98559 0.08993
3026.69982 0.09011
3025.41405 0.08998
3024.12828 0.08952
3022.84251 0.08892
3021.55674 0.08843
3020.27097 0.08808
3018.98521 0.08783
3017.69944 0.08760
3016.41367 0.08742
3015.12790 0.08733
3013.84213 0.08727
3012.55636 0.08711
3011.27059 0.08675
3009.98482 0.08626
3008.69905 0.08582
3007.41329 0.08555
3006.12752 0.08544
3004.84175 0.08541
3003.55598 0.08546
3002.27021 0.08578
3000.98444 0.08629
2999.69867 0.08635
2998.41290 0.08660
2997.12714 0.08664
2995.84137 0.08647
2994.55560 0.08623
2993.26983 0.08597
2991.98406 0.08570
2990.69829 0.08547
2989.41252 0.08536
2988.12675 0.08539
2986.84098 0.08550
2985.55522 0.08564
2984.26945 0.08589
2982.98368 0.08633
2981.69791 0.08690
2980.41214 0.08750
2979.12637 0.08805
2977.84060 0.08855
2976.55483 0.08902
2975.26907 0.08951
2973.98330 0.09011
2972.69753 0.09094
2971.41176 0.09207
2970.12599 0.09351
2968.84022 0.09515
2967.55445 0.09675
2966.26868 0.09810
2964.98291 0.09914
2963.69715 0.09994
2962.41138 0.10064
2961.12561 0.10139
2959.83984 0.10228
2958.55407 0.10330
2957.26830 0.10433
2955.98253 0.10525
2954.69676 0.10603
2953.41100 0.10661
2952.12523 0.10693
2950.83946 0.10695
2949.55369 0.10677
2948.26792 0.10648
2946.98215 0.10611
2945.69638 0.10563
2944.41061 0.10514
2943.12484 0.10486
2941.83908 0.10499
2940.55331 0.10554
2939.26754 0.10633
2937.98177 0.10720
2936.69600 0.10801
2935.41023 0.10871
2934.12446 0.10932
2932.83869 0.10994
2931.55293 0.11068
2930.26716 0.11158
2928.98139 0.11259
2927.69562 0.11359
2926.40985 0.11442
2925.12408 0.11500
2923.83831 0.11535
2922.55254 0.11548
2921.26677 0.11536
2919.98101 0.11490
2918.69524 0.11406
2917.40947 0.11297
2916.12370 0.11177
2914.83793 0.11057
2913.55216 0.10941
2912.26639 0.10838
2910.98062 0.10759
2909.69486 0.10701
2908.40909 0.10642
2907.12332 0.10561
2905.83755 0.10459
2904.55178 0.10359
2903.26601 0.10275
2901.98024 0.10207
2900.69447 0.10149
2899.40870 0.10095
2898.12294 0.10036
2896.83717 0.09960
2895.55140 0.09861
2894.26563 0.09755
2892.97986 0.09663
2891.69409 0.09595
2890.40832 0.09541
2889.12255 0.09483
2887.83678 0.09413
2886.55102 0.09339
2885.26525 0.09277
2883.97948 0.09243
2882.69371 0.09240
2881.40794 0.09252
2880.12217 0.09257
2878.83640 0.09242
2877.55063 0.09225
2876.26487 0.09240
2874.97910 0.09304
2873.69333 0.09394
2872.40756 0.09469
2871.12179 0.09515
2869.83602 0.09544
2868.55025 0.09564
2867.26448 0.09568
2865.97871 0.09552
2864.69295 0.09527
2863.40718 0.09504
2862.12141 0.09479
2860.83564 0.09445
2859.54987 0.09405
2858.26410 0.09369
2856.97833 0.09348
2855.69256 0.09340
2854.40680 0.09339
2853.12103 0.09335
2851.83526 0.09311
2850.54949 0.09252
2849.26372 0.09162
2847.97795 0.09072
2846.69218 0.09006
2845.40641 0.08959
2844.12064 0.08905
2842.83488 0.08826
2841.54911 0.08722
2840.26334 0.08600
2838.97757 0.08467
2837.69180 0.08340
2836.40603 0.08230
2835.12026 0.08137
2833.83449 0.08049
2832.54873 0.07965
2831.26296 0.07892
2829.97719 0.07838
2828.69142 0.07794
2827.40565 0.07747
2826.11988 0.07693
2824.83411 0.07640
2823.54834 0.07599
2822.26257 0.07572
2820.97681 0.07550
2819.69104 0.07527
2818.40527 0.07499
2817.11950 0.07464
2815.83373 0.07419
2814.54796 0.07364
2813.26219 0.07311
2811.97642 0.07272
2810.69066 0.07250
2809.40489 0.07239
2808.11912 0.07224
2806.83335 0.07198
2805.54758 0.07164
2804.26181 0.07129
2802.97604 0.07102
2801.69027 0.07090
2800.40450 0.07092
2799.11874 0.07101
2797.83297 0.07108
2796.54720 0.07108
2795.26143 0.07097
2793.97566 0.07074
2792.68989 0.07040
2791.40412 0.07006
2790.11835 0.06976
2788.83259 0.06946
2787.54682 0.06913
2786.26105 0.06880
2784.97528 0.06856
2783.68951 0.06842
2782.40374 0.06834
2781.11797 0.06826
2779.83220 0.06819
2778.54643 0.06816
2777.26067 0.06819
2775.97490 0.06824
2774.68913 0.06832
2773.40336 0.06839
2772.11759 0.06838
2770.83182 0.06831
2769.54605 0.06823
2768.26028 0.06823
2766.97452 0.06831
2765.68875 0.06840
2764.40298 0.06842
2763.11721 0.06833
2761.83144 0.06805
2760.54567 0.06760
2759.25990 0.06708
2757.97413 0.06672
2756.68836 0.06663
2755.40260 0.06673
2754.11683 0.06680
2752.83106 0.06666
2751.54529 0.06629
2750.25952 0.06589
2748.97375 0.06563
2747.68798 0.06555
2746.40221 0.06548
2745.11645 0.06528
2743.83068 0.06501
2742.54491 0.06488
2741.25914 0.06497
2739.97337 0.06521
2738.68760 0.06545
2737.40183 0.06564
2736.11606 0.06571
2734.83029 0.06559
2733.54453 0.06527
2732.25876 0.06489
2730.97299 0.06465
2729.68722 0.06457
2728.40145 0.06451
2727.11568 0.06435
2725.82991 0.06413
2724.54414 0.06395
2723.25838 0.06387
2721.97261 0.06383
2720.68684 0.06372
2719.40107 0.06349
2718.11530 0.06316
2716.82953 0.06283
2715.54376 0.06264
2714.25799 0.06265
2712.97222 0.06285
2711.68646 0.06305
2710.40069 0.06304
2709.11492 0.06277
2707.82915 0.06237
2706.54338 0.06205
2705.25761 0.06189
2703.97184 0.06187
2702.68607 0.06188
2701.40031 0.06183
2700.11454 0.06168
2698.82877 0.06144
2697.54300 0.06118
2696.25723 0.06099
2694.97146 0.06091
2693.68569 0.06088
2692.39992 0.06080
2691.11415 0.06062
2689.82839 0.06047
2688.54262 0.06045
2687.25685 0.06055
2685.97108 0.06062
2684.68531 0.06059
2683.39954 0.06053
2682.11377 0.06052
2680.82800 0.06054
2679.54224 0.06049
2678.25647 0.06029
2676.97070 0.05999
2675.68493 0.05968
2674.39916 0.05947
2673.11339 0.05940
2671.82762 0.05949
2670.54185 0.05970
2669.25608 0.05994
2667.97032 0.06004
2666.68455 0.05985
2665.39878 0.05942
2664.11301 0.05896
2662.82724 0.05875
2661.54147 0.05887
2660.25570 0.05914
2658.96993 0.05937
2657.68417 0.05946
2656.39840 0.05943
2655.11263 0.05936
2653.82686 0.05928
2652.54109 0.05917
2651.25532 0.05894
2649.96955 0.05854
2648.68378 0.05805
2647.39801 0.05769
2646.11225 0.05756
2644.82648 0.05753
2643.54071 0.05744
2642.25494 0.05724
2640.96917 0.05703
2639.68340 0.05692
2638.39763 0.05687
2637.11186 0.05677
2635.82609 0.05647
2634.54033 0.05598
2633.25456 0.05547
2631.96879 0.05518
2630.68302 0.05523
2629.39725 0.05557
2628.11148 0.05601
2626.82571 0.05627
2625.53994 0.05616
2624.25418 0.05567
2622.96841 0.05498
2621.68264 0.05436
2620.39687 0.05395
2619.11110 0.05369
2617.82533 0.05340
2616.53956 0.05304
2615.25379 0.05284
2613.96802 0.05310
2612.68226 0.05374
2611.39649 0.05431
2610.11072 0.05437
2608.82495 0.05392
2607.53918 0.05329
2606.25341 0.05281
2604.96764 0.05259
2603.68187 0.05254
2602.39611 0.05250
2601.11034 0.05239
2599.82457 0.05218
2598.53880 0.05188
2597.25303 0.05149
2595.96726 0.05100
2594.68149 0.05046
2593.39572 0.05001
2592.10995 0.04974
2590.82419 0.04966
2589.53842 0.04965
2588.25265 0.04956
2586.96688 0.04932
2585.68111 0.04901
2584.39534 0.04880
2583.10957 0.04875
2581.82380 0.04884
2580.53804 0.04904
2579.25227 0.04936
2577.96650 0.04972
2576.68073 0.04990
2575.39496 0.04967
2574.10919 0.04910
2572.82342 0.04849
2571.53765 0.04815
2570.25188 0.04816
2568.96612 0.04846
2567.68035 0.04885
2566.39458 0.04909
2565.10881 0.04892
2563.82304 0.04834
2562.53727 0.04763
2561.25150 0.04711
2559.96573 0.04697
2558.67997 0.04708
2557.39420 0.04714
2556.10843 0.04697
2554.82266 0.04658
2553.53689 0.04613
2552.25112 0.04570
2550.96535 0.04532
2549.67958 0.04500
2548.39381 0.04470
2547.10805 0.04446
2545.82228 0.04445
2544.53651 0.04483
2543.25074 0.04550
2541.96497 0.04620
2540.67920 0.04666
2539.39343 0.04676
2538.10766 0.04650
2536.82190 0.04602
2535.53613 0.04554
2534.25036 0.04526
2532.96459 0.04521
2531.67882 0.04525
2530.39305 0.04516
2529.10728 0.04487
2527.82151 0.04457
2526.53574 0.04460
2525.24998 0.04515
2523.96421 0.04607
2522.67844 0.04697
2521.39267 0.04752
2520.10690 0.04757
2518.82113 0.04722
2517.53536 0.04670
2516.24959 0.04620
2514.96383 0.04578
2513.67806 0.04545
2512.39229 0.04522
2511.10652 0.04516
2509.82075 0.04524
2508.53498 0.04520
2507.24921 0.04484
2505.96344 0.04428
2504.67767 0.04382
2503.39191 0.04362
2502.10614 0.04360
2500.82037 0.04369
2499.53460 0.04389
2498.24883 0.04420
2496.96306 0.04450
2495.67729 0.04474
2494.39152 0.04495
2493.10576 0.04516
2491.81999 0.04531
2490.53422 0.04532
2489.24845 0.04520
2487.96268 0.04503
2486.67691 0.04492
2485.39114 0.04490
2484.10537 0.04491
2482.81960 0.04484
2481.53384 0.04457
2480.24807 0.04409
2478.96230 0.04359
2477.67653 0.04338
2476.39076 0.04362
2475.10499 0.04406
2473.81922 0.04428
2472.53345 0.04406
2471.24769 0.04353
2469.96192 0.04300
2468.67615 0.04271
2467.39038 0.04268
2466.10461 0.04280
2464.81884 0.04295
2463.53307 0.04311
2462.24730 0.04331
2460.96153 0.04350
2459.67577 0.04358
2458.39000 0.04342
2457.10423 0.04310
2455.81846 0.04286
2454.53269 0.04291
2453.24692 0.04319
2451.96115 0.04348
2450.67538 0.04361
2449.38962 0.04357
2448.10385 0.04343
2446.81808 0.04328
2445.53231 0.04315
2444.24654 0.04309
2442.96077 0.04308
2441.67500 0.04306
2440.38923 0.04295
2439.10346 0.04275
2437.81770 0.04250
2436.53193 0.04227
2435.24616 0.04212
2433.96039 0.04213
2432.67462 0.04239
2431.38885 0.04282
2430.10308 0.04321
2428.81731 0.04330
2427.53155 0.04304
2426.24578 0.04267
2424.96001 0.04242
2423.67424 0.04224
2422.38847 0.04194
2421.10270 0.04145
2419.81693 0.04101
2418.53116 0.04083
2417.24539 0.04084
2415.95963 0.04088
2414.67386 0.04094
2413.38809 0.04117
2412.10232 0.04156
2410.81655 0.04189
2409.53078 0.04194
2408.24501 0.04163
2406.95924 0.04106
2405.67347 0.04037
2404.38771 0.03981
2403.10194 0.03960
2401.81617 0.03977
2400.53040 0.04017
2399.24463 0.04139
2397.95886 0.04097
2396.67309 0.04049
2395.38732 0.04041
2394.10156 0.04050
2392.81579 0.04065
2391.53002 0.04070
2390.24425 0.04055
2388.95848 0.04025
2387.67271 0.03996
2386.38694 0.03977
2385.10117 0.03971
2383.81540 0.03974
2382.52964 0.03986
2381.24387 0.04000
2379.95810 0.04009
2378.67233 0.04008
2377.38656 0.04014
2376.10079 0.04046
2374.81502 0.04089
2373.52925 0.04093
2372.24349 0.04055
2370.95772 0.04021
2369.67195 0.04020
2368.38618 0.04043
2367.10041 0.04059
2365.81464 0.04074
2364.52887 0.04089
2363.24310 0.04108
2361.95733 0.04120
2360.67157 0.04101
2359.38580 0.04071
2358.10003 0.04066
2356.81426 0.04095
2355.52849 0.04148
2354.24272 0.04209
2352.95695 0.04250
2351.67118 0.04240
2350.38542 0.04215
2349.09965 0.04217
2347.81388 0.04226
2346.52811 0.04192
2345.24234 0.04154
2343.95657 0.04180
2342.67080 0.04260
2341.38503 0.04248
2340.09926 0.04165
2338.81350 0.04199
2337.52773 0.04320
2336.24196 0.04295
2334.95619 0.04182
2333.67042 0.04183
2332.38465 0.04256
2331.09888 0.04176
2329.81311 0.04128
2328.52735 0.04202
2327.24158 0.04224
2325.95581 0.04228
2324.67004 0.04294
2323.38427 0.04347
2322.09850 0.04319
2320.81273 0.04310
2319.52696 0.04281
2318.24119 0.04232
2316.95543 0.04198
2315.66966 0.04151
2314.38389 0.04114
2313.09812 0.04092
2311.81235 0.04049
2310.52658 0.04001
2309.24081 0.03949
2307.95504 0.03887
2306.66928 0.03850
2305.38351 0.03836
2304.09774 0.03840
2302.81197 0.03849
2301.52620 0.03854
2300.24043 0.03864
2298.95466 0.03872
2297.66889 0.03873
2296.38312 0.03867
2295.09736 0.03861
2293.81159 0.03857
2292.52582 0.03843
2291.24005 0.03817
2289.95428 0.03792
2288.66851 0.03783
2287.38274 0.03783
2286.09697 0.03767
2284.81121 0.03722
2283.52544 0.03661
2282.23967 0.03612
2280.95390 0.03595
2279.66813 0.03599
2278.38236 0.03596
2277.09659 0.03563
2275.81082 0.03514
2274.52505 0.03490
2273.23929 0.03517
2271.95352 0.03570
2270.66775 0.03591
2269.38198 0.03541
2268.09621 0.03440
2266.81044 0.03339
2265.52467 0.03281
2264.23890 0.03271
2262.95314 0.03284
2261.66737 0.03285
2260.38160 0.03254
2259.09583 0.03194
2257.81006 0.03124
2256.52429 0.03068
2255.23852 0.03040
2253.95275 0.03043
2252.66698 0.03059
2251.38122 0.03045
2250.09545 0.03015
2248.80968 0.03091
2247.52391 0.03065
2246.23814 0.03033
2244.95237 0.03018
2243.66660 0.03023
2242.38083 0.03033
2241.09507 0.03026
2239.80930 0.03003
2238.52353 0.02996
2237.23776 0.03033
2235.95199 0.03104
2234.66622 0.03166
2233.38045 0.03181
2232.09468 0.03147
2230.80891 0.03083
2229.52315 0.03004
2228.23738 0.02915
2226.95161 0.02834
2225.66584 0.02777
2224.38007 0.02746
2223.09430 0.02736
2221.80853 0.02748
2220.52276 0.02785
2219.23700 0.02835
2217.95123 0.02874
2216.66546 0.02876
2215.37969 0.02826
2214.09392 0.02737
2212.80815 0.02651
2211.52238 0.02605
2210.23661 0.02604
2208.95084 0.02627
2207.66508 0.02646
2206.37931 0.02626
2205.09354 0.02544
2203.80777 0.02428
2202.52200 0.02339
2201.23623 0.02322
2199.95046 0.02361
2198.66469 0.02392
2197.37893 0.02360
2196.09316 0.02258
2194.80739 0.02156
2193.52162 0.02145
2192.23585 0.02256
2190.95008 0.02423
2189.66431 0.02538
2188.37854 0.02537
2187.09277 0.02427
2185.80701 0.02263
2184.52124 0.02116
2183.23547 0.02042
2181.94970 0.02060
2180.66393 0.02138
2179.37816 0.02195
2178.09239 0.02147
2176.80662 0.01985
2175.52085 0.01788
2174.23509 0.01657
2172.94932 0.01627
2171.66355 0.01685
2170.37778 0.01815
2169.09201 0.01998
2167.80624 0.02163
2166.52047 0.02202
2165.23470 0.02064
2163.94894 0.01816
2162.66317 0.01567
2161.37740 0.01362
2160.09163 0.01180
2158.80586 0.01035
2157.52009 0.00997
2156.23432 0.01065
2154.94855 0.01130
2153.66278 0.01099
2152.37702 0.01010
2151.09125 0.00991
2149.80548 0.01118
2148.51971 0.01350
2147.23394 0.01589
2145.94817 0.01763
2144.66240 0.01847
2143.37663 0.01851
2142.09087 0.01802
2140.80510 0.01744
2139.51933 0.01705
2138.23356 0.01682
2136.94779 0.01664
2135.66202 0.01664
2134.37625 0.01710
2133.09048 0.01805
2131.80471 0.01913
2130.51895 0.01999
2129.23318 0.02053
2127.94741 0.02088
2126.66164 0.02125
2125.37587 0.02174
2124.09010 0.02224
2122.80433 0.02251
2121.51856 0.02241
2120.23280 0.02211
2118.94703 0.02205
2117.66126 0.02253
2116.37549 0.02341
2115.08972 0.02411
2113.80395 0.02415
2112.51818 0.02365
2111.23241 0.02327
2109.94664 0.02342
2108.66088 0.02387
2107.37511 0.02402
2106.08934 0.02357
2104.80357 0.02284
2103.51780 0.02237
2102.23203 0.02248
2100.94626 0.02297
2099.66049 0.02365
2098.37473 0.02411
2097.08896 0.02368
2095.80319 0.02257
2094.51742 0.02139
2093.23165 0.02071
2091.94588 0.02081
2090.66011 0.02149
2089.37434 0.02222
2088.08857 0.02253
2086.80281 0.02227
2085.51704 0.02168
2084.23127 0.02117
2082.94550 0.02105
2081.65973 0.02132
2080.37396 0.02174
2079.08819 0.02199
2077.80242 0.02189
2076.51666 0.02150
2075.23089 0.02104
2073.94512 0.02081
2072.65935 0.02096
2071.37358 0.02123
2070.08781 0.02114
2068.80204 0.02048
2067.51627 0.01954
2066.23050 0.01879
2064.94474 0.01840
2063.65897 0.01818
2062.37320 0.01792
2061.08743 0.01762
2059.80166 0.01746
2058.51589 0.01756
2057.23012 0.01782
2055.94435 0.01799
2054.65859 0.01791
2053.37282 0.01764
2052.08705 0.01737
2050.80128 0.01704
2049.51551 0.01642
2048.22974 0.01550
2046.94397 0.01455
2045.65820 0.01383
2044.37243 0.01327
2043.08667 0.01270
2041.80090 0.01228
2040.51513 0.01233
2039.22936 0.01301
2037.94359 0.01399
2036.65782 0.01473
2035.37205 0.01494
2034.08628 0.01468
2032.80052 0.01409
2031.51475 0.01308
2030.22898 0.01155
2028.94321 0.00973
2027.65744 0.00826
2026.37167 0.00762
2025.08590 0.00778
2023.80013 0.00837
2022.51436 0.00909
2021.22860 0.00984
2019.94283 0.01063
2018.65706 0.01149
2017.37129 0.01251
2016.08552 0.01353
2014.79975 0.01421
2013.51398 0.01431
2012.22821 0.01392
2010.94245 0.01326
2009.65668 0.01252
2008.37091 0.01192
2007.08514 0.01173
2005.79937 0.01214
2004.51360 0.01302
2003.22783 0.01408
2001.94206 0.01514
2000.65629 0.01614
1999.37053 0.01692
1998.08476 0.01718
1996.79899 0.01676
1995.51322 0.01600
1994.22745 0.01543
1992.94168 0.01531
1991.65591 0.01530
1990.37014 0.01501
1989.08438 0.01451
1987.79861 0.01443
1986.51284 0.01528
1985.22707 0.01681
1983.94130 0.01812
1982.65553 0.01839
1981.36976 0.01752
1980.08399 0.01610
1978.79822 0.01477
1977.51246 0.01390
1976.22669 0.01359
1974.94092 0.01389
1973.65515 0.01483
1972.36938 0.01623
1971.08361 0.01765
1969.79784 0.01861
1968.51207 0.01879
1967.22631 0.01817
1965.94054 0.01722
1964.65477 0.01670
1963.36900 0.01707
1962.08323 0.01796
1960.79746 0.01860
1959.51169 0.01871
1958.22592 0.01865
1956.94015 0.01879
1955.65439 0.01892
1954.36862 0.01874
1953.08285 0.01834
1951.79708 0.01817
1950.51131 0.01853
1949.22554 0.01921
1947.93977 0.01979
1946.65400 0.02008
1945.36823 0.02014
1944.08247 0.02009
1942.79670 0.02000
1941.51093 0.01995
1940.22516 0.02003
1938.93939 0.02022
1937.65362 0.02038
1936.36785 0.02037
1935.08208 0.02023
1933.79632 0.02014
1932.51055 0.02024
1931.22478 0.02050
1929.93901 0.02086
1928.65324 0.02128
1927.36747 0.02171
1926.08170 0.02198
1924.79593 0.02199
1923.51016 0.02189
1922.22440 0.02192
1920.93863 0.02210
1919.65286 0.02224
1918.36709 0.02227
1917.08132 0.02231
1915.79555 0.02247
1914.50978 0.02269
1913.22401 0.02279
1911.93825 0.02265
1910.65248 0.02233
1909.36671 0.02197
1908.08094 0.02165
1906.79517 0.02138
1905.50940 0.02115
1904.22363 0.02101
1902.93786 0.02102
1901.65209 0.02121
1900.36633 0.02153
1899.08056 0.02184
1897.79479 0.02203
1896.50902 0.02217
1895.22325 0.02250
1893.93748 0.02311
1892.65171 0.02376
1891.36594 0.02405
1890.08018 0.02380
1888.79441 0.02327
1887.50864 0.02281
1886.22287 0.02258
1884.93710 0.02251
1883.65133 0.02245
1882.36556 0.02231
1881.07979 0.02210
1879.79402 0.02190
1878.50826 0.02182
1877.22249 0.02196
1875.93672 0.02229
1874.65095 0.02260
1873.36518 0.02275
1872.07941 0.02265
1870.79364 0.02235
1869.50787 0.02194
1868.22211 0.02154
1866.93634 0.02131
1865.65057 0.02131
1864.36480 0.02148
1863.07903 0.02166
1861.79326 0.02174
1860.50749 0.02171
1859.22172 0.02165
1857.93595 0.02162
1856.65019 0.02165
1855.36442 0.02175
1854.07865 0.02192
1852.79288 0.02210
1851.50711 0.02224
1850.22134 0.02233
1848.93557 0.02244
1847.64980 0.02258
1846.36404 0.02268
1845.07827 0.02272
1843.79250 0.02273
1842.50673 0.02278
1841.22096 0.02290
1839.93519 0.02306
1838.64942 0.02322
1837.36365 0.02332
1836.07788 0.02329
1834.79212 0.02319
1833.50635 0.02309
1832.22058 0.02299
1830.93481 0.02291
1829.64904 0.02289
1828.36327 0.02295
1827.07750 0.02302
1825.79173 0.02307
1824.50597 0.02313
1823.22020 0.02317
1821.93443 0.02312
1820.64866 0.02293
1819.36289 0.02265
1818.07712 0.02239
1816.79135 0.02225
1815.50558 0.02223
1814.21981 0.02228
1812.93405 0.02234
1811.64828 0.02241
1810.36251 0.02250
1809.07674 0.02261
1807.79097 0.02270
1806.50520 0.02283
1805.21943 0.02304
1803.93366 0.02329
1802.64790 0.02347
1801.36213 0.02347
1800.07636 0.02334
1798.79059 0.02324
1797.50482 0.02325
1796.21905 0.02335
1794.93328 0.02343
1793.64751 0.02342
1792.36174 0.02340
1791.07598 0.02347
1789.79021 0.02362
1788.50444 0.02377
1787.21867 0.02382
1785.93290 0.02382
1784.64713 0.02384
1783.36136 0.02389
1782.07559 0.02393
1780.78983 0.02394
1779.50406 0.02396
1778.21829 0.02401
1776.93252 0.02408
1775.64675 0.02411
1774.36098 0.02407
1773.07521 0.02399
1771.78944 0.02394
1770.50367 0.02395
1769.21791 0.02399
1767.93214 0.02406
1766.64637 0.02422
1765.36060 0.02447
1764.07483 0.02474
1762.78906 0.02500
1761.50329 0.02520
1760.21752 0.02528
1758.93176 0.02520
1757.64599 0.02502
1756.36022 0.02487
1755.07445 0.02483
1753.78868 0.02482
1752.50291 0.02477
1751.21714 0.02474
1749.93137 0.02480
1748.64560 0.02497
1747.35984 0.02518
1746.07407 0.02535
1744.78830 0.02546
1743.50253 0.02556
1742.21676 0.02567
1740.93099 0.02576
1739.64522 0.02583
1738.35945 0.02588
1737.07369 0.02589
1735.78792 0.02582
1734.50215 0.02579
1733.21638 0.02588
1731.93061 0.02604
1730.64484 0.02616
1729.35907 0.02626
1728.07330 0.02644
1726.78753 0.02669
1725.50177 0.02691
1724.21600 0.02710
1722.93023 0.02731
1721.64446 0.02760
1720.35869 0.02793
1719.07292 0.02822
1717.78715 0.02854
1716.50138 0.02894
1715.21561 0.02942
1713.92985 0.02995
1712.64408 0.03052
1711.35831 0.03114
1710.07254 0.03178
1708.78677 0.03238
1707.50100 0.03295
1706.21523 0.03353
1704.92946 0.03422
1703.64370 0.03499
1702.35793 0.03571
1701.07216 0.03638
1699.78639 0.03714
1698.50062 0.03797
1697.21485 0.03877
1695.92908 0.03957
1694.64331 0.04047
1693.35754 0.04138
1692.07178 0.04217
1690.78601 0.04290
1689.50024 0.04372
1688.21447 0.04463
1686.92870 0.04550
1685.64293 0.04629
1684.35716 0.04712
1683.07139 0.04806
1681.78563 0.04902
1680.49986 0.04992
1679.21409 0.05081
1677.92832 0.05172
1676.64255 0.05263
1675.35678 0.05357
1674.07101 0.05456
1672.78524 0.05552
1671.49947 0.05640
1670.21371 0.05724
1668.92794 0.05811
1667.64217 0.05902
1666.35640 0.05989
1665.07063 0.06069
1663.78486 0.06145
1662.49909 0.06224
1661.21332 0.06302
1659.92756 0.06373
1658.64179 0.06440
1657.35602 0.06510
1656.07025 0.06580
1654.78448 0.06641
1653.49871 0.06698
1652.21294 0.06759
1650.92717 0.06814
1649.64140 0.06843
1648.35564 0.06845
1647.06987 0.06847
1645.78410 0.06860
1644.49833 0.06877
1643.21256 0.06882
1641.92679 0.06871
1640.64102 0.06852
1639.35525 0.06834
1638.06949 0.06814
1636.78372 0.06791
1635.49795 0.06766
1634.21218 0.06740
1632.92641 0.06710
1631.64064 0.06674
1630.35487 0.06638
1629.06910 0.06605
1627.78333 0.06572
1626.49757 0.06536
1625.21180 0.06494
1623.92603 0.06454
1622.64026 0.06422
1621.35449 0.06402
1620.06872 0.06384
1618.78295 0.06356
1617.49718 0.06322
1616.21142 0.06292
1614.92565 0.06274
1613.63988 0.06261
1612.35411 0.06251
1611.06834 0.06244
1609.78257 0.06242
1608.49680 0.06241
1607.21103 0.06242
1605.92526 0.06244
1604.63950 0.06249
1603.35373 0.06257
1602.06796 0.06268
1600.78219 0.06281
1599.49642 0.06295
1598.21065 0.06313
1596.92488 0.06339
1595.63911 0.06377
1594.35335 0.06422
1593.06758 0.06466
1591.78181 0.06506
1590.49604 0.06542
1589.21027 0.06578
1587.92450 0.06614
1586.63873 0.06652
1585.35296 0.06692
1584.06719 0.06736
1582.78143 0.06786
1581.49566 0.06845
1580.20989 0.06914
1578.92412 0.06987
1577.63835 0.07057
1576.35258 0.07125
1575.06681 0.07195
1573.78104 0.07264
1572.49528 0.07325
1571.20951 0.07381
1569.92374 0.07441
1568.63797 0.07509
1567.35220 0.07575
1566.06643 0.07635
1564.78066 0.07691
1563.49489 0.07746
1562.20912 0.07793
1560.92336 0.07825
1559.63759 0.07852
1558.35182 0.07887
1557.06605 0.07929
1555.78028 0.07961
1554.49451 0.07983
1553.20874 0.08003
1551.92297 0.08023
1550.63721 0.08040
1549.35144 0.08052
1548.06567 0.08061
1546.77990 0.08060
1545.49413 0.08047
1544.20836 0.08023
1542.92259 0.07986
1541.63682 0.07934
1540.35105 0.07873
1539.06529 0.07815
1537.77952 0.07765
1536.49375 0.07716
1535.20798 0.07664
1533.92221 0.07622
1532.63644 0.07600
1531.35067 0.07595
1530.06490 0.07595
1528.77914 0.07594
1527.49337 0.07596
1526.20760 0.07608
1524.92183 0.07636
1523.63606 0.07674
1522.35029 0.07717
1521.06452 0.07769
1519.77875 0.07832
1518.49298 0.07900
1517.20722 0.07975
1515.92145 0.08065
1514.63568 0.08172
1513.34991 0.08292
1512.06414 0.08423
1510.77837 0.08562
1509.49260 0.08698
1508.20683 0.08825
1506.92107 0.08946
1505.63530 0.09074
1504.34953 0.09206
1503.06376 0.09328
1501.77799 0.09434
1500.49222 0.09527
1499.20645 0.09609
1497.92068 0.09681
1496.63491 0.09748
1495.34915 0.09818
1494.06338 0.09893
1492.77761 0.09969
1491.49184 0.10049
1490.20607 0.10139
1488.92030 0.10242
1487.63453 0.10357
1486.34876 0.10480
1485.06299 0.10612
1483.77723 0.10750
1482.49146 0.10894
1481.20569 0.11045
1479.91992 0.11202
1478.63415 0.11363
1477.34838 0.11527
1476.06261 0.11691
1474.77684 0.11848
1473.49108 0.11989
1472.20531 0.12117
1470.91954 0.12231
1469.63377 0.12332
1468.34800 0.12421
1467.06223 0.12500
1465.77646 0.12577
1464.49069 0.12656
1463.20492 0.12743
1461.91916 0.12838
1460.63339 0.12939
1459.34762 0.13041
1458.06185 0.13141
1456.77608 0.13241
1455.49031 0.13339
1454.20454 0.13425
1452.91877 0.13489
1451.63301 0.13536
1450.34724 0.13574
1449.06147 0.13603
1447.77570 0.13620
1446.48993 0.13622
1445.20416 0.13608
1443.91839 0.13579
1442.63262 0.13542
1441.34685 0.13501
1440.06109 0.13455
1438.77532 0.13406
1437.48955 0.13363
1436.20378 0.13343
1434.91801 0.13353
1433.63224 0.13395
1432.34647 0.13468
1431.06070 0.13576
1429.77494 0.13719
1428.48917 0.13889
1427.20340 0.14077
1425.91763 0.14281
1424.63186 0.14496
1423.34609 0.14714
1422.06032 0.14926
1420.77455 0.15122
1419.48878 0.15304
1418.20302 0.15472
1416.91725 0.15622
1415.63148 0.15747
1414.34571 0.15846
1413.05994 0.15917
1411.77417 0.15955
1410.48840 0.15958
1409.20263 0.15924
1407.91687 0.15854
1406.63110 0.15751
1405.34533 0.15621
1404.05956 0.15468
1402.77379 0.15292
1401.48802 0.15087
1400.20225 0.14854
1398.91648 0.14599
1397.63071 0.14328
1396.34495 0.14045
1395.05918 0.13755
1393.77341 0.13464
1392.48764 0.13177
1391.20187 0.12892
1389.91610 0.12606
1388.63033 0.12322
1387.34456 0.12043
1386.05880 0.11772
1384.77303 0.11504
1383.48726 0.11233
1382.20149 0.10958
1380.91572 0.10683
1379.62995 0.10412
1378.34418 0.10145
1377.05841 0.09874
1375.77264 0.09596
1374.48688 0.09309
1373.20111 0.09022
1371.91534 0.08738
1370.62957 0.08459
1369.34380 0.08186
1368.05803 0.07926
1366.77226 0.07683
1365.48649 0.07457
1364.20073 0.07246
1362.91496 0.07049
1361.62919 0.06861
1360.34342 0.06681
1359.05765 0.06513
1357.77188 0.06359
1356.48611 0.06220
1355.20034 0.06093
1353.91457 0.05975
1352.62881 0.05867
1351.34304 0.05769
1350.05727 0.05678
1348.77150 0.05591
1347.48573 0.05505
1346.19996 0.05423
1344.91419 0.05347
1343.62842 0.05279
1342.34266 0.05213
1341.05689 0.05148
1339.77112 0.05082
1338.48535 0.05016
1337.19958 0.04951
1335.91381 0.04888
1334.62804 0.04827
1333.34227 0.04772
1332.05650 0.04722
1330.77074 0.04672
1329.48497 0.04619
1328.19920 0.04566
1326.91343 0.04518
1325.62766 0.04477
1324.34189 0.04439
1323.05612 0.04399
1321.77035 0.04356
1320.48459 0.04311
1319.19882 0.04265
1317.91305 0.04219
1316.62728 0.04175
1315.34151 0.04135
1314.05574 0.04103
1312.76997 0.04078
1311.48420 0.04056
1310.19843 0.04032
1308.91267 0.04001
1307.62690 0.03966
1306.34113 0.03931
1305.05536 0.03897
1303.76959 0.03866
1302.48382 0.03839
1301.19805 0.03812
1299.91228 0.03781
1298.62652 0.03745
1297.34075 0.03704
1296.05498 0.03665
1294.76921 0.03632
1293.48344 0.03609
1292.19767 0.03597
1290.91190 0.03591
1289.62613 0.03584
1288.34036 0.03569
1287.05460 0.03546
1285.76883 0.03521
1284.48306 0.03501
1283.19729 0.03488
1281.91152 0.03477
1280.62575 0.03462
1279.33998 0.03441
1278.05421 0.03415
1276.76845 0.03390
1275.48268 0.03368
1274.19691 0.03350
1272.91114 0.03333
1271.62537 0.03316
1270.33960 0.03300
1269.05383 0.03289
1267.76806 0.03285
1266.48229 0.03284
1265.19653 0.03279
1263.91076 0.03265
1262.62499 0.03245
1261.33922 0.03225
1260.05345 0.03208
1258.76768 0.03194
1257.48191 0.03182
1256.19614 0.03171
1254.91037 0.03160
1253.62461 0.03151
1252.33884 0.03145
1251.05307 0.03142
1249.76730 0.03136
1248.48153 0.03124
1247.19576 0.03106
1245.90999 0.03091
1244.62422 0.03082
1243.33846 0.03080
1242.05269 0.03079
1240.76692 0.03073
1239.48115 0.03061
1238.19538 0.03045
1236.90961 0.03027
1235.62384 0.03010
1234.33807 0.02994
1233.05230 0.02983
1231.76654 0.02975
1230.48077 0.02966
1229.19500 0.02952
1227.90923 0.02932
1226.62346 0.02912
1225.33769 0.02895
1224.05192 0.02883
1222.76615 0.02868
1221.48039 0.02849
1220.19462 0.02826
1218.90885 0.02802
1217.62308 0.02780
1216.33731 0.02762
1215.05154 0.02751
1213.76577 0.02747
1212.48000 0.02747
1211.19423 0.02749
1209.90847 0.02750
1208.62270 0.02748
1207.33693 0.02745
1206.05116 0.02743
1204.76539 0.02743
1203.47962 0.02742
1202.19385 0.02732
1200.90808 0.02718
1199.62232 0.02730
1198.33655 0.02739
1197.05078 0.02747
1195.76501 0.02747
1194.47924 0.02735
1193.19347 0.02714
1191.90770 0.02689
1190.62193 0.02669
1189.33616 0.02659
1188.05040 0.02659
1186.76463 0.02665
1185.47886 0.02667
1184.19309 0.02662
1182.90732 0.02654
1181.62155 0.02649
1180.33578 0.02648
1179.05001 0.02649
1177.76425 0.02649
1176.47848 0.02653
1175.19271 0.02663
1173.90694 0.02675
1172.62117 0.02686
1171.33540 0.02695
1170.04963 0.02706
1168.76386 0.02722
1167.47809 0.02743
1166.19233 0.02769
1164.90656 0.02795
1163.62079 0.02819
1162.33502 0.02837
1161.04925 0.02849
1159.76348 0.02857
1158.47771 0.02870
1157.19194 0.02898
1155.90618 0.02944
1154.62041 0.02996
1153.33464 0.03044
1152.04887 0.03083
1150.76310 0.03116
1149.47733 0.03152
1148.19156 0.03194
1146.90579 0.03246
1145.62002 0.03313
1144.33426 0.03395
1143.04849 0.03487
1141.76272 0.03587
1140.47695 0.03695
1139.19118 0.03811
1137.90541 0.03939
1136.61964 0.04081
1135.33387 0.04242
1134.04811 0.04424
1132.76234 0.04625
1131.47657 0.04844
1130.19080 0.05084
1128.90503 0.05348
1127.61926 0.05638
1126.33349 0.05957
1125.04772 0.06305
1123.76195 0.06677
1122.47619 0.07064
1121.19042 0.07461
1119.90465 0.07862
1118.61888 0.08270
1117.33311 0.08686
1116.04734 0.09111
1114.76157 0.09542
1113.47580 0.09970
1112.19004 0.10391
1110.90427 0.10801
1109.61850 0.11204
1108.33273 0.11605
1107.04696 0.12004
1105.76119 0.12398
1104.47542 0.12786
1103.18965 0.13165
1101.90388 0.13530
1100.61812 0.13878
1099.33235 0.14213
1098.04658 0.14543
1096.76081 0.14872
1095.47504 0.15197
1094.18927 0.15511
1092.90350 0.15802
1091.61773 0.16067
1090.33197 0.16309
1089.04620 0.16540
1087.76043 0.16768
1086.47466 0.16993
1085.18889 0.17219
1083.90312 0.17448
1082.61735 0.17687
1081.33158 0.17939
1080.04581 0.18208
1078.76005 0.18499
1077.47428 0.18814
1076.18851 0.19154
1074.90274 0.19512
1073.61697 0.19879
1072.33120 0.20254
1071.04543 0.20638
1069.75966 0.21039
1068.47390 0.21457
1067.18813 0.21889
1065.90236 0.22330
1064.61659 0.22780
1063.33082 0.23238
1062.04505 0.23703
1060.75928 0.24173
1059.47351 0.24638
1058.18774 0.25091
1056.90198 0.25530
1055.61621 0.25962
1054.33044 0.26397
1053.04467 0.26841
1051.75890 0.27293
1050.47313 0.27753
1049.18736 0.28219
1047.90159 0.28691
1046.61583 0.29170
1045.33006 0.29660
1044.04429 0.30166
1042.75852 0.30687
1041.47275 0.31217
1040.18698 0.31752
1038.90121 0.32292
1037.61544 0.32837
1036.32967 0.33386
1035.04391 0.33939
1033.75814 0.34487
1032.47237 0.35018
1031.18660 0.35520
1029.90083 0.35990
1028.61506 0.36437
1027.32929 0.36869
1026.04352 0.37279
1024.75775 0.37650
1023.47199 0.37970
1022.18622 0.38239
1020.90045 0.38461
1019.61468 0.38634
1018.32891 0.38745
1017.04314 0.38791
1015.75737 0.38777
1014.47160 0.38712
1013.18584 0.38596
1011.90007 0.38425
1010.61430 0.38189
1009.32853 0.37877
1008.04276 0.37484
1006.75699 0.37010
1005.47122 0.36462
1004.18545 0.35850
1002.89968 0.35176
1001.61392 0.34440
1000.32815 0.33647
999.04238 0.32811
997.75661 0.31941
996.47084 0.31039
995.18507 0.30105
993.89930 0.29143
992.61353 0.28165
991.32777 0.27186
990.04200 0.26218
988.75623 0.25273
987.47046 0.24359
986.18469 0.23477
984.89892 0.22622
983.61315 0.21790
982.32738 0.20982
981.04161 0.20206
979.75585 0.19474
978.47008 0.18798
977.18431 0.18180
975.89854 0.17616
974.61277 0.17109
973.32700 0.16669
972.04123 0.16313
970.75546 0.16054
969.46970 0.15893
968.18393 0.15825
966.89816 0.15841
965.61239 0.15929
964.32662 0.16064
963.04085 0.16201
961.75508 0.16293
960.46931 0.16300
959.18354 0.16205
957.89778 0.16005
956.61201 0.15716
955.32624 0.15371
954.04047 0.15000
952.75470 0.14619
951.46893 0.14231
950.18316 0.13834
948.89739 0.13436
947.61163 0.13045
946.32586 0.12674
945.04009 0.12327
943.75432 0.11997
942.46855 0.11674
941.18278 0.11355
939.89701 0.11046
938.61124 0.10755
937.32547 0.10485
936.03971 0.10231
934.75394 0.09988
933.46817 0.09757
932.18240 0.09541
930.89663 0.09342
929.61086 0.09160
928.32509 0.08994
927.03932 0.08836
925.75356 0.08681
924.46779 0.08530
923.18202 0.08391
921.89625 0.08265
920.61048 0.08145
919.32471 0.08023
918.03894 0.07901
916.75317 0.07788
915.46740 0.07692
914.18164 0.07611
912.89587 0.07536
911.61010 0.07456
910.32433 0.07363
909.03856 0.07260
907.75279 0.07158
906.46702 0.07068
905.18125 0.06995
903.89549 0.06935
902.60972 0.06880
901.32395 0.06820
900.03818 0.06752
898.75241 0.06676
897.46664 0.06599
896.18087 0.06530
894.89510 0.06473
893.60933 0.06429
892.32357 0.06397
891.03780 0.06376
889.75203 0.06371
888.46626 0.06391
887.18049 0.06454
885.89472 0.06586
884.60895 0.06819
883.32318 0.07170
882.03742 0.07609
880.75165 0.08051
879.46588 0.08411
878.18011 0.08664
876.89434 0.08858
875.60857 0.09061
874.32280 0.09289
873.03703 0.09496
871.75126 0.09612
870.46550 0.09605
869.17973 0.09488
867.89396 0.09289
866.60819 0.09026
865.32242 0.08710
864.03665 0.08362
862.75088 0.08016
861.46511 0.07700
860.17935 0.07423
858.89358 0.07181
857.60781 0.06970
856.32204 0.06790
855.03627 0.06641
853.75050 0.06516
852.46473 0.06408
851.17896 0.06316
849.89319 0.06239
848.60743 0.06175
847.32166 0.06121
846.03589 0.06068
844.75012 0.06012
843.46435 0.05951
842.17858 0.05892
840.89281 0.05842
839.60704 0.05804
838.32128 0.05770
837.03551 0.05729
835.74974 0.05678
834.46397 0.05624
833.17820 0.05574
831.89243 0.05535
830.60666 0.05509
829.32089 0.05495
828.03512 0.05490
826.74936 0.05486
825.46359 0.05475
824.17782 0.05457
822.89205 0.05439
821.60628 0.05423
820.32051 0.05408
819.03474 0.05391
817.74897 0.05370
816.46321 0.05347
815.17744 0.05325
813.89167 0.05310
812.60590 0.05300
811.32013 0.05287
810.03436 0.05264
808.74859 0.05230
807.46282 0.05192
806.17705 0.05158
804.89129 0.05137
803.60552 0.05130
802.31975 0.05134
801.03398 0.05143
799.74821 0.05147
798.46244 0.05139
797.17667 0.05120
795.89090 0.05097
794.60513 0.05078
793.31937 0.05065
792.03360 0.05055
790.74783 0.05050
789.46206 0.05047
788.17629 0.05041
786.89052 0.05033
785.60475 0.05021
784.31898 0.05007
783.03322 0.04988
781.74745 0.04969
780.46168 0.04957
779.17591 0.04955
777.89014 0.04956
776.60437 0.04954
775.31860 0.04950
774.03283 0.04950
772.74706 0.04956
771.46130 0.04960
770.17553 0.04958
768.88976 0.04948
767.60399 0.04935
766.31822 0.04924
765.03245 0.04922
763.74668 0.04935
762.46091 0.04955
761.17515 0.04969
759.88938 0.04971
758.60361 0.04965
757.31784 0.04961
756.03207 0.04964
754.74630 0.04975
753.46053 0.04994
752.17476 0.05013
750.88899 0.05021
749.60323 0.05010
748.31746 0.04985
747.03169 0.04954
745.74592 0.04928
744.46015 0.04907
743.17438 0.04887
741.88861 0.04866
740.60284 0.04849
739.31708 0.04838
738.03131 0.04831
736.74554 0.04825
735.45977 0.04819
734.17400 0.04813
732.88823 0.04811
731.60246 0.04812
730.31669 0.04811
729.03092 0.04807
727.74516 0.04800
726.45939 0.04796
725.17362 0.04798
723.88785 0.04828
722.60208 0.04821
721.31631 0.04813
720.03054 0.04805
718.74477 0.04788
717.45901 0.04768
716.17324 0.04756
714.88747 0.04755
713.60170 0.04758
712.31593 0.04760
711.03016 0.04757
709.74439 0.04751
708.45862 0.04744
707.17285 0.04735
705.88709 0.04727
704.60132 0.04721
703.31555 0.04717
702.02978 0.04712
700.74401 0.04705
699.45824 0.04695
698.17247 0.04687
696.88670 0.04680
695.60094 0.04673
694.31517 0.04663
693.02940 0.04654
691.74363 0.04647
690.45786 0.04643
689.17209 0.04640
687.88632 0.04637
686.60055 0.04632
685.31478 0.04619
684.02902 0.04597
682.74325 0.04568
681.45748 0.04539
680.17171 0.04517
678.88594 0.04503
677.60017 0.04500
676.31440 0.04504
675.02863 0.04516
673.74287 0.04532
672.45710 0.04549
671.17133 0.04567
669.88556 0.04583
668.59979 0.04597
667.31402 0.04608
666.02825 0.04600
664.74248 0.04581
663.45671 0.04555
662.17095 0.04528
660.88518 0.04504
659.59941 0.04483
658.31364 0.04462
657.02787 0.04437
655.74210 0.04409
654.45633 0.04380
653.17056 0.04358
651.88480 0.04342
650.59903 0.04330
649.31326 0.04321
648.02749 0.04316
646.74172 0.04315
645.45595 0.04319
644.17018 0.04323
642.88441 0.04325
641.59864 0.04321
640.31288 0.04318
639.02711 0.04322
637.74134 0.04338
636.45557 0.04362
635.16980 0.04395
633.88403 0.04439
632.59826 0.04486
631.31249 0.04477
630.02673 0.04401
628.74096 0.04525
627.45519 0.04804
626.16942 0.05108
624.88365 0.05399
623.59788 0.05651
622.31211 0.05877
621.02634 0.06165
619.74057 0.06568
618.45481 0.06994
617.16904 0.07308
615.88327 0.07505
614.59750 0.07750
613.31173 0.08213
612.02596 0.08900
610.74019 0.09663
609.45442 0.10378
608.16866 0.11076
606.88289 0.11847
605.59712 0.12676
604.31135 0.13423
603.02558 0.13925
601.73981 0.14108
600.45404 0.14025
599.16827 0.13779
597.88250 0.13454
596.59674 0.13088
595.31097 0.12700
594.02520 0.12312
592.73943 0.11953
591.45366 0.11653
590.16789 0.11435
588.88212 0.11315
587.59635 0.11305
586.31059 0.11410
585.02482 0.11617
583.73905 0.11902
582.45328 0.12232
581.16751 0.12587
579.88174 0.12953
578.59597 0.13325
577.31020 0.13699
576.02443 0.14068
574.73867 0.14425
573.45290 0.14768
572.16713 0.15112
570.88136 0.15485
569.59559 0.15919
568.30982 0.16425
567.02405 0.16987
565.73828 0.17564
564.45251 0.18105
563.16675 0.18548
561.88098 0.18834
560.59521 0.18906
559.30944 0.18738
558.02367 0.18333
556.73790 0.17726
555.45213 0.16969
554.16636 0.16131
552.88060 0.15272
551.59483 0.14437
550.30906 0.13647
549.02329 0.12910
547.73752 0.12233
546.45175 0.11627
545.16598 0.11096
543.88021 0.10634
542.59444 0.10227
541.30868 0.09855
540.02291 0.09501
538.73714 0.09158
537.45137 0.08832
536.16560 0.08536
534.87983 0.08277
533.59406 0.08048
532.30829 0.07837
531.02253 0.07636
529.73676 0.07441
528.45099 0.07249
527.16522 0.07058
525.87945 0.06873
524.59368 0.06700
523.30791 0.06547
522.02214 0.06410
520.73637 0.06279
519.45061 0.06146
518.16484 0.06010
516.87907 0.05876
515.59330 0.05749
514.30753 0.05635
513.02176 0.05537
511.73599 0.05454
510.45022 0.05381
509.16446 0.05307
507.87869 0.05225
506.59292 0.05139
505.30715 0.05058
504.02138 0.04992
502.73561 0.04937
501.44984 0.04882
500.16407 0.04817
498.87830 0.04741
497.59254 0.04660
496.30677 0.04578
495.02100 0.04501
493.73523 0.04438
492.44946 0.04394
491.16369 0.04369
489.87792 0.04353
488.59215 0.04333
487.30639 0.04304
486.02062 0.04273
484.73485 0.04246
483.44908 0.04230
482.16331 0.04225
480.87754 0.04233
479.59177 0.04250
478.30600 0.04272
477.02023 0.04292
475.73447 0.04308
474.44870 0.04322
473.16293 0.04335
471.87716 0.04345
470.59139 0.04346
469.30562 0.04334
468.01985 0.04312
466.73408 0.04283
465.44832 0.04245
464.16255 0.04194
462.87678 0.04130
461.59101 0.04062
460.30524 0.04001
459.01947 0.03953
457.73370 0.03919
456.44793 0.03890
455.16216 0.03854
453.87640 0.03806
452.59063 0.03753
451.30486 0.03702
450.01909 0.03655
448.73332 0.03609
447.44755 0.03566
446.16178 0.03529
444.87601 0.03501
443.59025 0.03483
442.30448 0.03471
441.01871 0.03463
439.73294 0.03456
438.44717 0.03447
437.16140 0.03434
435.87563 0.03418
434.58986 0.03398
433.30409 0.03374
432.01833 0.03347
430.73256 0.03318
429.44679 0.03291
428.16102 0.03268
426.87525 0.03250
425.58948 0.03231
424.30371 0.03211
423.01794 0.03189
421.73218 0.03170
420.44641 0.03156
419.16064 0.03144
417.87487 0.03130
416.58910 0.03111
415.30333 0.03088
414.01756 0.03064
412.73179 0.03046
411.44602 0.03037
410.16026 0.03034
408.87449 0.03034
407.58872 0.03035
406.30295 0.03039
405.01718 0.03048
403.73141 0.03061
402.44564 0.03074
401.15987 0.03081
399.87411 0.03083
