3997.45528 0.04589
3996.16951 0.04564
3994.88374 0.04553
3993.59798 0.04513
3992.31221 0.04463
3991.02644 0.04464
3989.74067 0.04566
3988.45490 0.04758
3987.16913 0.04973
3985.88336 0.05117
3984.59759 0.05135
3983.31183 0.05048
3982.02606 0.04926
3980.74029 0.04817
3979.45452 0.04724
3978.16875 0.04641
3976.88298 0.04596
3975.59721 0.04620
3974.31144 0.04701
3973.02567 0.04786
3971.73991 0.04834
3970.45414 0.04850
3969.16837 0.04852
3967.88260 0.04846
3966.59683 0.04829
3965.31106 0.04800
3964.02529 0.04764
3962.73952 0.04710
3961.45376 0.04636
3960.16799 0.04580
3958.88222 0.04597
3957.59645 0.04693
3956.31068 0.04798
3955.02491 0.04830
3953.73914 0.04776
3952.45337 0.04694
3951.16760 0.04641
3949.88184 0.04629
3948.59607 0.04650
3947.31030 0.04691
3946.02453 0.04734
3944.73876 0.04756
3943.45299 0.04746
3942.16722 0.04718
3940.88145 0.04688
3939.59569 0.04661
3938.30992 0.04638
3937.02415 0.04630
3935.73838 0.04643
3934.45261 0.04669
3933.16684 0.04696
3931.88107 0.04724
3930.59530 0.04755
3929.30953 0.04780
3928.02377 0.04777
3926.73800 0.04737
3925.45223 0.04679
3924.16646 0.04632
3922.88069 0.04616
3921.59492 0.04652
3920.30915 0.04754
3919.02338 0.04902
3917.73762 0.05017
3916.45185 0.05019
3915.16608 0.04904
3913.88031 0.04759
3912.59454 0.04695
3911.30877 0.04759
3910.02300 0.04915
3908.73723 0.05091
3907.45146 0.05230
3906.16570 0.05298
3904.87993 0.05270
3903.59416 0.05139
3902.30839 0.04932
3901.02262 0.04708
3899.73685 0.04542
3898.45108 0.04468
3897.16531 0.04473
3895.87955 0.04510
3894.59378 0.04548
3893.30801 0.04570
3892.02224 0.04572
3890.73647 0.04553
3889.45070 0.04521
3888.16493 0.04503
3886.87916 0.04535
3885.59339 0.04624
3884.30763 0.04704
3883.02186 0.04699
3881.73609 0.04612
3880.45032 0.04539
3879.16455 0.04558
3877.87878 0.04660
3876.59301 0.04781
3875.30724 0.04858
3874.02148 0.04867
3872.73571 0.04809
3871.44994 0.04713
3870.16417 0.04631
3868.87840 0.04594
3867.59263 0.04588
3866.30686 0.04591
3865.02109 0.04603
3863.73532 0.04624
3862.44956 0.04626
3861.16379 0.04584
3859.87802 0.04504
3858.59225 0.04428
3857.30648 0.04397
3856.02071 0.04414
3854.73494 0.04451
3853.44917 0.04485
3852.16341 0.04519
3850.87764 0.04555
3849.59187 0.04597
3848.30610 0.04641
3847.02033 0.04675
3845.73456 0.04689
3844.44879 0.04674
3843.16302 0.04628
3841.87725 0.04558
3840.59149 0.04475
3839.30572 0.04404
3838.01995 0.04380
3836.73418 0.04416
3835.44841 0.04476
3834.16264 0.04500
3832.87687 0.04465
3831.59110 0.04387
3830.30534 0.04298
3829.01957 0.04224
3827.73380 0.04192
3826.44803 0.04234
3825.16226 0.04354
3823.87649 0.04510
3822.59072 0.04651
3821.30495 0.04758
3820.01918 0.04829
3818.73342 0.04853
3817.44765 0.04823
3816.16188 0.04755
3814.87611 0.04661
3813.59034 0.04542
3812.30457 0.04431
3811.01880 0.04378
3809.73303 0.04382
3808.44726 0.04391
3807.16150 0.04380
3805.87573 0.04381
3804.58996 0.04419
3803.30419 0.04478
3802.01842 0.04526
3800.73265 0.04532
3799.44688 0.04474
3798.16111 0.04370
3796.87535 0.04293
3795.58958 0.04309
3794.30381 0.04400
3793.01804 0.04491
3791.73227 0.04518
3790.44650 0.04474
3789.16073 0.04396
3787.87496 0.04330
3786.58919 0.04297
3785.30343 0.04282
3784.01766 0.04263
3782.73189 0.04238
3781.44612 0.04224
3780.16035 0.04232
3778.87458 0.04249
3777.58881 0.04249
3776.30304 0.04225
3775.01728 0.04199
3773.73151 0.04192
3772.44574 0.04206
3771.15997 0.04219
3769.87420 0.04216
3768.58843 0.04197
3767.30266 0.04182
3766.01689 0.04211
3764.73112 0.04304
3763.44536 0.04419
3762.15959 0.04470
3760.87382 0.04400
3759.58805 0.04245
3758.30228 0.04113
3757.01651 0.04101
3755.73074 0.04214
3754.44497 0.04358
3753.15921 0.04444
3751.87344 0.04456
3750.58767 0.04440
3749.30190 0.04445
3748.01613 0.04468
3746.73036 0.04452
3745.44459 0.04381
3744.15882 0.04319
3742.87305 0.04326
3741.58729 0.04389
3740.30152 0.04453
3739.01575 0.04473
3737.72998 0.04427
3736.44421 0.04334
3735.15844 0.04224
3733.87267 0.04118
3732.58690 0.04033
3731.30114 0.03993
3730.01537 0.04002
3728.72960 0.04038
3727.44383 0.04083
3726.15806 0.04123
3724.87229 0.04141
3723.58652 0.04118
3722.30075 0.04050
3721.01498 0.03954
3719.72922 0.03863
3718.44345 0.03821
3717.15768 0.03854
3715.87191 0.03929
3714.58614 0.03977
3713.30037 0.03964
3712.01460 0.03929
3710.72883 0.03940
3709.44307 0.04013
3708.15730 0.04113
3706.87153 0.04196
3705.58576 0.04248
3704.29999 0.04280
3703.01422 0.04310
3701.72845 0.04336
3700.44268 0.04323
3699.15691 0.04225
3697.87115 0.04051
3696.58538 0.03886
3695.29961 0.03808
3694.01384 0.03830
3692.72807 0.03908
3691.44230 0.03991
3690.15653 0.04024
3688.87076 0.03964
3687.58500 0.03819
3686.29923 0.03649
3685.01346 0.03534
3683.72769 0.03518
3682.44192 0.03581
3681.15615 0.03687
3679.87038 0.03820
3678.58461 0.03973
3677.29884 0.04106
3676.01308 0.04178
3674.72731 0.04177
3673.44154 0.04114
3672.15577 0.04018
3670.87000 0.03945
3669.58423 0.03939
3668.29846 0.03987
3667.01269 0.04041
3665.72693 0.04074
3664.44116 0.04093
3663.15539 0.04118
3661.86962 0.04159
3660.58385 0.04210
3659.29808 0.04253
3658.01231 0.04275
3656.72654 0.04286
3655.44077 0.04312
3654.15501 0.04354
3652.86924 0.04390
3651.58347 0.04392
3650.29770 0.04354
3649.01193 0.04273
3647.72616 0.04164
3646.44039 0.04066
3645.15462 0.04029
3643.86886 0.04085
3642.58309 0.04221
3641.29732 0.04385
3640.01155 0.04518
3638.72578 0.04578
3637.44001 0.04549
3636.15424 0.04444
3634.86847 0.04318
3633.58270 0.04235
3632.29694 0.04220
3631.01117 0.04238
3629.72540 0.04241
3628.43963 0.04213
3627.15386 0.04156
3625.86809 0.04084
3624.58232 0.04041
3623.29655 0.04069
3622.01079 0.04160
3620.72502 0.04260
3619.43925 0.04326
3618.15348 0.04365
3616.86771 0.04402
3615.58194 0.04442
3614.29617 0.04471
3613.01040 0.04483
3611.72463 0.04494
3610.43887 0.04523
3609.15310 0.04586
3607.86733 0.04680
3606.58156 0.04779
3605.29579 0.04839
3604.01002 0.04823
3602.72425 0.04737
3601.43848 0.04634
3600.15272 0.04582
3598.86695 0.04611
3597.58118 0.04697
3596.29541 0.04770
3595.00964 0.04773
3593.72387 0.04710
3592.43810 0.04643
3591.15233 0.04640
3589.86656 0.04718
3588.58080 0.04828
3587.29503 0.04894
3586.00926 0.04869
3584.72349 0.04765
3583.43772 0.04647
3582.15195 0.04591
3580.86618 0.04629
3579.58041 0.04731
3578.29464 0.04840
3577.00888 0.04912
3575.72311 0.04942
3574.43734 0.04949
3573.15157 0.04957
3571.86580 0.04980
3570.58003 0.05016
3569.29426 0.05054
3568.00849 0.05092
3566.72273 0.05137
3565.43696 0.05191
3564.15119 0.05239
3562.86542 0.05259
3561.57965 0.05243
3560.29388 0.05203
3559.00811 0.05176
3557.72234 0.05195
3556.43657 0.05268
3555.15081 0.05353
3553.86504 0.05395
3552.57927 0.05377
3551.29350 0.05332
3550.00773 0.05311
3548.72196 0.05333
3547.43619 0.05384
3546.15042 0.05438
3544.86466 0.05478
3543.57889 0.05499
3542.29312 0.05495
3541.00735 0.05461
3539.72158 0.05408
3538.43581 0.05368
3537.15004 0.05366
3535.86427 0.05396
3534.57850 0.05422
3533.29274 0.05417
3532.00697 0.05391
3530.72120 0.05375
3529.43543 0.05388
3528.14966 0.05417
3526.86389 0.05446
3525.57812 0.05484
3524.29235 0.05544
3523.00659 0.05618
3521.72082 0.05684
3520.43505 0.05736
3519.14928 0.05796
3517.86351 0.05878
3516.57774 0.05962
3515.29197 0.06013
3514.00620 0.06021
3512.72043 0.06008
3511.43467 0.05995
3510.14890 0.05982
3508.86313 0.05957
3507.57736 0.05920
3506.29159 0.05884
3505.00582 0.05862
3503.72005 0.05864
3502.43428 0.05897
3501.14852 0.05956
3499.86275 0.06016
3498.57698 0.06061
3497.29121 0.06091
3496.00544 0.06115
3494.71967 0.06129
3493.43390 0.06118
3492.14813 0.06087
3490.86236 0.06059
3489.57660 0.06050
3488.29083 0.06059
3487.00506 0.06078
3485.71929 0.06114
3484.43352 0.06169
3483.14775 0.06232
3481.86198 0.06278
3480.57621 0.06298
3479.29045 0.06305
3478.00468 0.06322
3476.71891 0.06356
3475.43314 0.06388
3474.14737 0.06404
3472.86160 0.06411
3471.57583 0.06423
3470.29006 0.06431
3469.00429 0.06407
3467.71853 0.06340
3466.43276 0.06259
3465.14699 0.06205
3463.86122 0.06202
3462.57545 0.06242
3461.28968 0.06306
3460.00391 0.06362
3458.71814 0.06390
3457.43238 0.06394
3456.14661 0.06397
3454.86084 0.06405
3453.57507 0.06394
3452.28930 0.06344
3451.00353 0.06276
3449.71776 0.06240
3448.43199 0.06268
3447.14622 0.06346
3445.86046 0.06433
3444.57469 0.06497
3443.28892 0.06541
3442.00315 0.06587
3440.71738 0.06646
3439.43161 0.06703
3438.14584 0.06731
3436.86007 0.06715
3435.57431 0.06654
3434.28854 0.06554
3433.00277 0.06446
3431.71700 0.06386
3430.43123 0.06417
3429.14546 0.06521
3427.85969 0.06626
3426.57392 0.06672
3425.28815 0.06659
3424.00239 0.06629
3422.71662 0.06620
3421.43085 0.06635
3420.14508 0.06662
3418.85931 0.06689
3417.57354 0.06719
3416.28777 0.06770
3415.00200 0.06848
3413.71624 0.06929
3412.43047 0.06969
3411.14470 0.06936
3409.85893 0.06852
3408.57316 0.06782
3407.28739 0.06776
3406.00162 0.06819
3404.71585 0.06852
3403.43008 0.06837
3402.14432 0.06802
3400.85855 0.06800
3399.57278 0.06805
3398.28701 0.06806
3397.00124 0.06837
3395.71547 0.06873
3394.42970 0.06894
3393.14393 0.06907
3391.85817 0.06928
3390.57240 0.06962
3389.28663 0.07003
3388.00086 0.07043
3386.71509 0.07083
3385.42932 0.07141
3384.14355 0.07227
3382.85778 0.07330
3381.57201 0.07417
3380.28625 0.07454
3379.00048 0.07432
3377.71471 0.07359
3376.42894 0.07258
3375.14317 0.07166
3373.85740 0.07123
3372.57163 0.07147
3371.28586 0.07211
3370.00010 0.07258
3368.71433 0.07249
3367.42856 0.07198
3366.14279 0.07157
3364.85702 0.07165
3363.57125 0.07208
3362.28548 0.07239
3360.99971 0.07228
3359.71394 0.07193
3358.42818 0.07179
3357.14241 0.07211
3355.85664 0.07269
3354.57087 0.07315
3353.28510 0.07331
3351.99933 0.07335
3350.71356 0.07348
3349.42779 0.07363
3348.14202 0.07343
3346.85626 0.07266
3345.57049 0.07168
3344.28472 0.07127
3342.99895 0.07188
3341.71318 0.07316
3340.42741 0.07426
3339.14164 0.07462
3337.85587 0.07438
3336.57011 0.07398
3335.28434 0.07381
3333.99857 0.07403
3332.71280 0.07459
3331.42703 0.07524
3330.14126 0.07564
3328.85549 0.07560
3327.56972 0.07526
3326.28395 0.07483
3324.99819 0.07447
3323.71242 0.07422
3322.42665 0.07416
3321.14088 0.07431
3319.85511 0.07462
3318.56934 0.07494
3317.28357 0.07519
3315.99780 0.07554
3314.71204 0.07618
3313.42627 0.07700
3312.14050 0.07752
3310.85473 0.07736
3309.56896 0.07673
3308.28319 0.07624
3306.99742 0.07632
3305.71165 0.07674
3304.42588 0.07700
3303.14012 0.07686
3301.85435 0.07653
3300.56858 0.07631
3299.28281 0.07626
3297.99704 0.07624
3296.71127 0.07616
3295.42550 0.07608
3294.13973 0.07610
3292.85397 0.07630
3291.56820 0.07664
3290.28243 0.07706
3288.99666 0.07741
3287.71089 0.07750
3286.42512 0.07720
3285.13935 0.07660
3283.85358 0.07606
3282.56781 0.07601
3281.28205 0.07654
3279.99628 0.07722
3278.71051 0.07745
3277.42474 0.07695
3276.13897 0.07593
3274.85320 0.07491
3273.56743 0.07434
3272.28166 0.07435
3270.99590 0.07470
3269.71013 0.07509
3268.42436 0.07539
3267.13859 0.07570
3265.85282 0.07613
3264.56705 0.07653
3263.28128 0.07670
3261.99551 0.07666
3260.70974 0.07663
3259.42398 0.07666
3258.13821 0.07653
3256.85244 0.07610
3255.56667 0.07560
3254.28090 0.07538
3252.99513 0.07552
3251.70936 0.07573
3250.42359 0.07576
3249.13783 0.07562
3247.85206 0.07546
3246.56629 0.07525
3245.28052 0.07483
3243.99475 0.07415
3242.70898 0.07341
3241.42321 0.07298
3240.13744 0.07304
3238.85167 0.07339
3237.56591 0.07363
3236.28014 0.07346
3234.99437 0.07293
3233.70860 0.07227
3232.42283 0.07171
3231.13706 0.07149
3229.85129 0.07167
3228.56552 0.07205
3227.27976 0.07230
3225.99399 0.07230
3224.70822 0.07228
3223.42245 0.07247
3222.13668 0.07282
3220.85091 0.07302
3219.56514 0.07290
3218.27937 0.07255
3216.99360 0.07225
3215.70784 0.07226
3214.42207 0.07261
3213.13630 0.07302
3211.85053 0.07311
3210.56476 0.07276
3209.27899 0.07221
3207.99322 0.07187
3206.70745 0.07187
3205.42169 0.07197
3204.13592 0.07188
3202.85015 0.07158
3201.56438 0.07127
3200.27861 0.07107
3198.99284 0.07090
3197.70707 0.07072
3196.42130 0.07068
3195.13553 0.07092
3193.84977 0.07137
3192.56400 0.07174
3191.27823 0.07181
3189.99246 0.07165
3188.70669 0.07144
3187.42092 0.07129
3186.13515 0.07118
3184.84938 0.07098
3183.56362 0.07062
3182.27785 0.07019
3180.99208 0.06982
3179.70631 0.06953
3178.42054 0.06920
3177.13477 0.06882
3175.84900 0.06861
3174.56323 0.06868
3173.27746 0.06884
3171.99170 0.06864
3170.70593 0.06798
3169.42016 0.06726
3168.13439 0.06699
3166.84862 0.06720
3165.56285 0.06747
3164.27708 0.06745
3162.99131 0.06725
3161.70555 0.06714
3160.41978 0.06717
3159.13401 0.06713
3157.84824 0.06686
3156.56247 0.06637
3155.27670 0.06579
3153.99093 0.06521
3152.70516 0.06482
3151.41939 0.06474
3150.13363 0.06496
3148.84786 0.06527
3147.56209 0.06557
3146.27632 0.06593
3144.99055 0.06639
3143.70478 0.06683
3142.41901 0.06703
3141.13324 0.06688
3139.84748 0.06645
3138.56171 0.06592
3137.27594 0.06543
3135.99017 0.06506
3134.70440 0.06492
3133.41863 0.06509
3132.13286 0.06552
3130.84709 0.06589
3129.56132 0.06577
3128.27556 0.06506
3126.98979 0.06410
3125.70402 0.06338
3124.41825 0.06312
3123.13248 0.06320
3121.84671 0.06337
3120.56094 0.06354
3119.27517 0.06373
3117.98940 0.06394
3116.70364 0.06409
3115.41787 0.06407
3114.13210 0.06385
3112.84633 0.06353
3111.56056 0.06321
3110.27479 0.06301
3108.98902 0.06291
3107.70325 0.06286
3106.41749 0.06281
3105.13172 0.06284
3103.84595 0.06309
3102.56018 0.06360
3101.27441 0.06419
3099.98864 0.06450
3098.70287 0.06426
3097.41710 0.06359
3096.13133 0.06287
3094.84557 0.06247
3093.55980 0.06244
3092.27403 0.06262
3090.98826 0.06277
3089.70249 0.06281
3088.41672 0.06271
3087.13095 0.06251
3085.84518 0.06226
3084.55942 0.06210
3083.27365 0.06216
3081.98788 0.06236
3080.70211 0.06251
3079.41634 0.06254
3078.13057 0.06257
3076.84480 0.06276
3075.55903 0.06308
3074.27326 0.06338
3072.98750 0.06351
3071.70173 0.06341
3070.41596 0.06315
3069.13019 0.06286
3067.84442 0.06260
3066.55865 0.06237
3065.27288 0.06223
3063.98711 0.06226
3062.70135 0.06242
3061.41558 0.06257
3060.12981 0.06261
3058.84404 0.06256
3057.55827 0.06240
3056.27250 0.06206
3054.98673 0.06157
3053.70096 0.06109
3052.41519 0.06083
3051.12943 0.06084
3049.84366 0.06098
3048.55789 0.06103
3047.27212 0.06088
3045.98635 0.06054
3044.70058 0.06008
3043.41481 0.05961
3042.12904 0.05925
3040.84328 0.05915
3039.55751 0.05937
3038.27174 0.05985
3036.98597 0.06040
3035.70020 0.06074
3034.41443 0.06069
3033.12866 0.06025
3031.84289 0.05961
3030.55712 0.05901
3029.27136 0.05857
3027.98559 0.05826
3026.69982 0.05803
3025.41405 0.05788
3024.12828 0.05782
3022.84251 0.05785
3021.55674 0.05794
3020.27097 0.05813
3018.98521 0.05842
3017.69944 0.05866
3016.41367 0.05860
3015.12790 0.05818
3013.84213 0.05770
3012.55636 0.05754
3011.27059 0.05774
3009.98482 0.05798
3008.69905 0.05796
3007.41329 0.05770
3006.12752 0.05744
3004.84175 0.05734
3003.55598 0.05735
3002.27021 0.05741
3000.98444 0.05729
2999.69867 0.05648
2998.41290 0.05606
2997.12714 0.05592
2995.84137 0.05603
2994.55560 0.05630
2993.26983 0.05663
2991.98406 0.05698
2990.69829 0.05725
2989.41252 0.05734
2988.12675 0.05726
2986.84098 0.05713
2985.55522 0.05718
2984.26945 0.05752
2982.98368 0.05808
2981.69791 0.05863
2980.41214 0.05901
2979.12637 0.05924
2977.84060 0.05944
2976.55483 0.05968
2975.26907 0.05998
2973.98330 0.06043
2972.69753 0.06113
2971.41176 0.06213
2970.12599 0.06330
2968.84022 0.06442
2967.55445 0.06539
2966.26868 0.06622
2964.98291 0.06700
2963.69715 0.06775
2962.41138 0.06843
2961.12561 0.06902
2959.83984 0.06953
2958.55407 0.07002
2957.26830 0.07062
2955.98253 0.07138
2954.69676 0.07217
2953.41100 0.07277
2952.12523 0.07311
2950.83946 0.07337
2949.55369 0.07375
2948.26792 0.07413
2946.98215 0.07422
2945.69638 0.07387
2944.41061 0.07329
2943.12484 0.07286
2941.83908 0.07284
2940.55331 0.07327
2939.26754 0.07401
2937.98177 0.07482
2936.69600 0.07552
2935.41023 0.07600
2934.12446 0.07638
2932.83869 0.07684
2931.55293 0.07747
2930.26716 0.07816
2928.98139 0.07883
2927.69562 0.07943
2926.40985 0.07992
2925.12408 0.08012
2923.83831 0.07990
2922.55254 0.07939
2921.26677 0.07890
2919.98101 0.07867
2918.69524 0.07863
2917.40947 0.07855
2916.12370 0.07824
2914.83793 0.07764
2913.55216 0.07683
2912.26639 0.07595
2910.98062 0.07516
2909.69486 0.07461
2908.40909 0.07427
2907.12332 0.07394
2905.83755 0.07339
2904.55178 0.07268
2903.26601 0.07211
2901.98024 0.07191
2900.69447 0.07193
2899.40870 0.07181
2898.12294 0.07128
2896.83717 0.07036
2895.55140 0.06928
2894.26563 0.06827
2892.97986 0.06749
2891.69409 0.06701
2890.40832 0.06676
2889.12255 0.06658
2887.83678 0.06630
2886.55102 0.06589
2885.26525 0.06543
2883.97948 0.06502
2882.69371 0.06472
2881.40794 0.06461
2880.12217 0.06472
2878.83640 0.06500
2877.55063 0.06533
2876.26487 0.06567
2874.97910 0.06605
2873.69333 0.06646
2872.40756 0.06681
2871.12179 0.06706
2869.83602 0.06730
2868.55025 0.06754
2867.26448 0.06764
2865.97871 0.06749
2864.69295 0.06717
2863.40718 0.06690
2862.12141 0.06677
2860.83564 0.06676
2859.54987 0.06679
2858.26410 0.06681
2856.97833 0.06670
2855.69256 0.06643
2854.40680 0.06610
2853.12103 0.06587
2851.83526 0.06572
2850.54949 0.06547
2849.26372 0.06494
2847.97795 0.06419
2846.69218 0.06338
2845.40641 0.06268
2844.12064 0.06212
2842.83488 0.06158
2841.54911 0.06095
2840.26334 0.06019
2838.97757 0.05936
2837.69180 0.05857
2836.40603 0.05792
2835.12026 0.05740
2833.83449 0.05691
2832.54873 0.05639
2831.26296 0.05584
2829.97719 0.05529
2828.69142 0.05479
2827.40565 0.05441
2826.11988 0.05421
2824.83411 0.05416
2823.54834 0.05417
2822.26257 0.05407
2820.97681 0.05375
2819.69104 0.05322
2818.40527 0.05263
2817.11950 0.05216
2815.83373 0.05190
2814.54796 0.05176
2813.26219 0.05164
2811.97642 0.05149
2810.69066 0.05134
2809.40489 0.05119
2808.11912 0.05104
2806.83335 0.05092
2805.54758 0.05083
2804.26181 0.05070
2802.97604 0.05050
2801.69027 0.05027
2800.40450 0.05014
2799.11874 0.05011
2797.83297 0.05013
2796.54720 0.05008
2795.26143 0.04995
2793.97566 0.04976
2792.68989 0.04956
2791.40412 0.04941
2790.11835 0.04938
2788.83259 0.04945
2787.54682 0.04951
2786.26105 0.04946
2784.97528 0.04931
2783.68951 0.04910
2782.40374 0.04885
2781.11797 0.04855
2779.83220 0.04831
2778.54643 0.04821
2777.26067 0.04821
2775.97490 0.04817
2774.68913 0.04804
2773.40336 0.04784
2772.11759 0.04765
2770.83182 0.04754
2769.54605 0.04760
2768.26028 0.04787
2766.97452 0.04818
2765.68875 0.04822
2764.40298 0.04790
2763.11721 0.04741
2761.83144 0.04704
2760.54567 0.04687
2759.25990 0.04676
2757.97413 0.04657
2756.68836 0.04632
2755.40260 0.04618
2754.11683 0.04625
2752.83106 0.04644
2751.54529 0.04656
2750.25952 0.04657
2748.97375 0.04658
2747.68798 0.04662
2746.40221 0.04659
2745.11645 0.04634
2743.83068 0.04596
2742.54491 0.04568
2741.25914 0.04568
2739.97337 0.04589
2738.68760 0.04614
2737.40183 0.04630
2736.11606 0.04632
2734.83029 0.04622
2733.54453 0.04603
2732.25876 0.04585
2730.97299 0.04569
2729.68722 0.04548
2728.40145 0.04520
2727.11568 0.04489
2725.82991 0.04465
2724.54414 0.04448
2723.25838 0.04439
2721.97261 0.04440
2720.68684 0.04451
2719.40107 0.04467
2718.11530 0.04482
2716.82953 0.04490
2715.54376 0.04490
2714.25799 0.04488
2712.97222 0.04491
2711.68646 0.04490
2710.40069 0.04470
2709.11492 0.04430
2707.82915 0.04389
2706.54338 0.04366
2705.25761 0.04363
2703.97184 0.04370
2702.68607 0.04375
2701.40031 0.04371
2700.11454 0.04352
2698.82877 0.04319
2697.54300 0.04286
2696.25723 0.04273
2694.97146 0.04282
2693.68569 0.04297
2692.39992 0.04296
2691.11415 0.04279
2689.82839 0.04267
2688.54262 0.04276
2687.25685 0.04295
2685.97108 0.04305
2684.68531 0.04298
2683.39954 0.04286
2682.11377 0.04281
2680.82800 0.04284
2679.54224 0.04288
2678.25647 0.04290
2676.97070 0.04290
2675.68493 0.04287
2674.39916 0.04280
2673.11339 0.04266
2671.82762 0.04247
2670.54185 0.04228
2669.25608 0.04217
2667.97032 0.04216
2666.68455 0.04215
2665.39878 0.04208
2664.11301 0.04203
2662.82724 0.04211
2661.54147 0.04232
2660.25570 0.04252
2658.96993 0.04258
2657.68417 0.04256
2656.39840 0.04259
2655.11263 0.04272
2653.82686 0.04289
2652.54109 0.04297
2651.25532 0.04280
2649.96955 0.04237
2648.68378 0.04182
2647.39801 0.04135
2646.11225 0.04112
2644.82648 0.04117
2643.54071 0.04141
2642.25494 0.04162
2640.96917 0.04164
2639.68340 0.04150
2638.39763 0.04127
2637.11186 0.04097
2635.82609 0.04057
2634.54033 0.04021
2633.25456 0.04002
2631.96879 0.04007
2630.68302 0.04028
2629.39725 0.04062
2628.11148 0.04100
2626.82571 0.04124
2625.53994 0.04117
2624.25418 0.04082
2622.96841 0.04031
2621.68264 0.03979
2620.39687 0.03934
2619.11110 0.03895
2617.82533 0.03857
2616.53956 0.03824
2615.25379 0.03809
2613.96802 0.03825
2612.68226 0.03859
2611.39649 0.03880
2610.11072 0.03872
2608.82495 0.03845
2607.53918 0.03824
2606.25341 0.03822
2604.96764 0.03830
2603.68187 0.03830
2602.39611 0.03807
2601.11034 0.03763
2599.82457 0.03706
2598.53880 0.03644
2597.25303 0.03585
2595.96726 0.03543
2594.68149 0.03528
2593.39572 0.03536
2592.10995 0.03554
2590.82419 0.03571
2589.53842 0.03586
2588.25265 0.03599
2586.96688 0.03609
2585.68111 0.03612
2584.39534 0.03606
2583.10957 0.03592
2581.82380 0.03570
2580.53804 0.03537
2579.25227 0.03498
2577.96650 0.03470
2576.68073 0.03470
2575.39496 0.03500
2574.10919 0.03537
2572.82342 0.03548
2571.53765 0.03526
2570.25188 0.03498
2568.96612 0.03495
2567.68035 0.03520
2566.39458 0.03551
2565.10881 0.03563
2563.82304 0.03550
2562.53727 0.03515
2561.25150 0.03470
2559.96573 0.03430
2558.67997 0.03395
2557.39420 0.03349
2556.10843 0.03288
2554.82266 0.03233
2553.53689 0.03211
2552.25112 0.03232
2550.96535 0.03282
2549.67958 0.03329
2548.39381 0.03347
2547.10805 0.03331
2545.82228 0.03303
2544.53651 0.03291
2543.25074 0.03304
2541.96497 0.03333
2540.67920 0.03363
2539.39343 0.03374
2538.10766 0.03356
2536.82190 0.03324
2535.53613 0.03299
2534.25036 0.03300
2532.96459 0.03323
2531.67882 0.03348
2530.39305 0.03351
2529.10728 0.03317
2527.82151 0.03262
2526.53574 0.03230
2525.24998 0.03252
2523.96421 0.03323
2522.67844 0.03407
2521.39267 0.03465
2520.10690 0.03475
2518.82113 0.03439
2517.53536 0.03379
2516.24959 0.03320
2514.96383 0.03280
2513.67806 0.03264
2512.39229 0.03264
2511.10652 0.03276
2509.82075 0.03292
2508.53498 0.03295
2507.24921 0.03270
2505.96344 0.03221
2504.67767 0.03177
2503.39191 0.03160
2502.10614 0.03168
2500.82037 0.03182
2499.53460 0.03192
2498.24883 0.03206
2496.96306 0.03232
2495.67729 0.03257
2494.39152 0.03259
2493.10576 0.03234
2491.81999 0.03196
2490.53422 0.03157
2489.24845 0.03123
2487.96268 0.03105
2486.67691 0.03113
2485.39114 0.03144
2484.10537 0.03175
2482.81960 0.03190
2481.53384 0.03190
2480.24807 0.03186
2478.96230 0.03178
2477.67653 0.03164
2476.39076 0.03147
2475.10499 0.03131
2473.81922 0.03116
2472.53345 0.03106
2471.24769 0.03109
2469.96192 0.03127
2468.67615 0.03145
2467.39038 0.03139
2466.10461 0.03109
2464.81884 0.03087
2463.53307 0.03101
2462.24730 0.03142
2460.96153 0.03176
2459.67577 0.03179
2458.39000 0.03157
2457.10423 0.03127
2455.81846 0.03101
2454.53269 0.03084
2453.24692 0.03077
2451.96115 0.03081
2450.67538 0.03095
2449.38962 0.03115
2448.10385 0.03137
2446.81808 0.03149
2445.53231 0.03144
2444.24654 0.03124
2442.96077 0.03096
2441.67500 0.03069
2440.38923 0.03054
2439.10346 0.03059
2437.81770 0.03079
2436.53193 0.03101
2435.24616 0.03112
2433.96039 0.03115
2432.67462 0.03121
2431.38885 0.03133
2430.10308 0.03141
2428.81731 0.03134
2427.53155 0.03115
2426.24578 0.03090
2424.96001 0.03059
2423.67424 0.03018
2422.38847 0.02970
2421.10270 0.02932
2419.81693 0.02917
2418.53116 0.02930
2417.24539 0.02960
2415.95963 0.02994
2414.67386 0.03026
2413.38809 0.03059
2412.10232 0.03088
2410.81655 0.03099
2409.53078 0.03083
2408.24501 0.03041
2406.95924 0.02982
2405.67347 0.02914
2404.38771 0.02855
2403.10194 0.02829
2401.81617 0.02843
2400.53040 0.02885
2399.24463 0.03010
2397.95886 0.02971
2396.67309 0.02936
2395.38732 0.02954
2394.10156 0.02998
2392.81579 0.03044
2391.53002 0.03065
2390.24425 0.03043
2388.95848 0.02991
2387.67271 0.02942
2386.38694 0.02921
2385.10117 0.02925
2383.81540 0.02933
2382.52964 0.02932
2381.24387 0.02926
2379.95810 0.02924
2378.67233 0.02931
2377.38656 0.02941
2376.10079 0.02948
2374.81502 0.02954
2373.52925 0.02965
2372.24349 0.02980
2370.95772 0.02991
2369.67195 0.02991
2368.38618 0.02982
2367.10041 0.02973
2365.81464 0.02971
2364.52887 0.02977
2363.24310 0.02990
2361.95733 0.03002
2360.67157 0.03009
2359.38580 0.03012
2358.10003 0.03016
2356.81426 0.03023
2355.52849 0.03034
2354.24272 0.03047
2352.95695 0.03061
2351.67118 0.03077
2350.38542 0.03092
2349.09965 0.03102
2347.81388 0.03108
2346.52811 0.03107
2345.24234 0.03099
2343.95657 0.03090
2342.67080 0.03089
2341.38503 0.03100
2340.09926 0.03116
2338.81350 0.03129
2337.52773 0.03132
2336.24196 0.03122
2334.95619 0.03105
2333.67042 0.03086
2332.38465 0.03074
2331.09888 0.03069
2329.81311 0.03078
2328.52735 0.03114
2327.24158 0.03179
2325.95581 0.03259
2324.67004 0.03327
2323.38427 0.03353
2322.09850 0.03340
2320.81273 0.03311
2319.52696 0.03277
2318.24119 0.03243
2316.95543 0.03203
2315.66966 0.03148
2314.38389 0.03087
2313.09812 0.03029
2311.81235 0.02981
2310.52658 0.02945
2309.24081 0.02927
2307.95504 0.02932
2306.66928 0.02954
2305.38351 0.02972
2304.09774 0.02973
2302.81197 0.02960
2301.52620 0.02947
2300.24043 0.02940
2298.95466 0.02935
2297.66889 0.02930
2296.38312 0.02925
2295.09736 0.02923
2293.81159 0.02918
2292.52582 0.02902
2291.24005 0.02883
2289.95428 0.02880
2288.66851 0.02899
2287.38274 0.02922
2286.09697 0.02917
2284.81121 0.02877
2283.52544 0.02824
2282.23967 0.02788
2280.95390 0.02781
2279.66813 0.02786
2278.38236 0.02774
2277.09659 0.02727
2275.81082 0.02657
2274.52505 0.02598
2273.23929 0.02580
2271.95352 0.02595
2270.66775 0.02608
2269.38198 0.02593
2268.09621 0.02558
2266.81044 0.02535
2265.52467 0.02548
2264.23890 0.02582
2262.95314 0.02592
2261.66737 0.02533
2260.38160 0.02410
2259.09583 0.02272
2257.81006 0.02176
2256.52429 0.02140
2255.23852 0.02144
2253.95275 0.02163
2252.66698 0.02177
2251.38122 0.02152
2250.09545 0.02117
2248.80968 0.02206
2247.52391 0.02182
2246.23814 0.02159
2244.95237 0.02162
2243.66660 0.02184
2242.38083 0.02192
2241.09507 0.02160
2239.80930 0.02105
2238.52353 0.02072
2237.23776 0.02093
2235.95199 0.02155
2234.66622 0.02216
2233.38045 0.02242
2232.09468 0.02237
2230.80891 0.02232
2229.52315 0.02240
2228.23738 0.02233
2226.95161 0.02182
2225.66584 0.02090
2224.38007 0.01996
2223.09430 0.01938
2221.80853 0.01927
2220.52276 0.01956
2219.23700 0.02013
2217.95123 0.02088
2216.66546 0.02164
2215.37969 0.02201
2214.09392 0.02163
2212.80815 0.02058
2211.52238 0.01955
2210.23661 0.01925
2208.95084 0.01970
2207.66508 0.02021
2206.37931 0.02010
2205.09354 0.01941
2203.80777 0.01871
2202.52200 0.01839
2201.23623 0.01830
2199.95046 0.01815
2198.66469 0.01803
2197.37893 0.01816
2196.09316 0.01840
2194.80739 0.01837
2193.52162 0.01801
2192.23585 0.01769
2190.95008 0.01780
2189.66431 0.01834
2188.37854 0.01888
2187.09277 0.01873
2185.80701 0.01751
2184.52124 0.01576
2183.23547 0.01470
2181.94970 0.01502
2180.66393 0.01622
2179.37816 0.01702
2178.09239 0.01657
2176.80662 0.01506
2175.52085 0.01359
2174.23509 0.01318
2172.94932 0.01385
2171.66355 0.01477
2170.37778 0.01529
2169.09201 0.01540
2167.80624 0.01527
2166.52047 0.01482
2165.23470 0.01411
2163.94894 0.01353
2162.66317 0.01312
2161.37740 0.01217
2160.09163 0.01017
2158.80586 0.00783
2157.52009 0.00647
2156.23432 0.00643
2154.94855 0.00689
2153.66278 0.00710
2152.37702 0.00718
2151.09125 0.00769
2149.80548 0.00889
2148.51971 0.01052
2147.23394 0.01214
2145.94817 0.01331
2144.66240 0.01367
2143.37663 0.01319
2142.09087 0.01240
2140.80510 0.01195
2139.51933 0.01197
2138.23356 0.01209
2136.94779 0.01200
2135.66202 0.01181
2134.37625 0.01178
2133.09048 0.01200
2131.80471 0.01241
2130.51895 0.01302
2129.23318 0.01382
2127.94741 0.01476
2126.66164 0.01564
2125.37587 0.01629
2124.09010 0.01663
2122.80433 0.01670
2121.51856 0.01661
2120.23280 0.01651
2118.94703 0.01661
2117.66126 0.01702
2116.37549 0.01758
2115.08972 0.01794
2113.80395 0.01789
2112.51818 0.01762
2111.23241 0.01756
2109.94664 0.01799
2108.66088 0.01871
2107.37511 0.01915
2106.08934 0.01884
2104.80357 0.01796
2103.51780 0.01717
2102.23203 0.01695
2100.94626 0.01721
2099.66049 0.01817
2098.37473 0.01868
2097.08896 0.01827
2095.80319 0.01750
2094.51742 0.01683
2093.23165 0.01646
2091.94588 0.01645
2090.66011 0.01667
2089.37434 0.01681
2088.08857 0.01651
2086.80281 0.01569
2085.51704 0.01470
2084.23127 0.01408
2082.94550 0.01420
2081.65973 0.01493
2080.37396 0.01583
2079.08819 0.01656
2077.80242 0.01703
2076.51666 0.01732
2075.23089 0.01747
2073.94512 0.01752
2072.65935 0.01754
2071.37358 0.01761
2070.08781 0.01765
2068.80204 0.01744
2067.51627 0.01686
2066.23050 0.01588
2064.94474 0.01468
2063.65897 0.01345
2062.37320 0.01238
2061.08743 0.01161
2059.80166 0.01133
2058.51589 0.01161
2057.23012 0.01225
2055.94435 0.01281
2054.65859 0.01314
2053.37282 0.01354
2052.08705 0.01426
2050.80128 0.01495
2049.51551 0.01498
2048.22974 0.01416
2046.94397 0.01291
2045.65820 0.01181
2044.37243 0.01111
2043.08667 0.01092
2041.80090 0.01125
2040.51513 0.01198
2039.22936 0.01281
2037.94359 0.01340
2036.65782 0.01355
2035.37205 0.01325
2034.08628 0.01275
2032.80052 0.01230
2031.51475 0.01185
2030.22898 0.01112
2028.94321 0.01015
2027.65744 0.00953
2026.37167 0.00972
2025.08590 0.01048
2023.80013 0.01108
2022.51436 0.01111
2021.22860 0.01069
2019.94283 0.01016
2018.65706 0.00982
2017.37129 0.00991
2016.08552 0.01055
2014.79975 0.01159
2013.51398 0.01271
2012.22821 0.01353
2010.94245 0.01379
2009.65668 0.01338
2008.37091 0.01234
2007.08514 0.01093
2005.79937 0.00961
2004.51360 0.00881
2003.22783 0.00869
2001.94206 0.00922
2000.65629 0.01025
1999.37053 0.01143
1998.08476 0.01220
1996.79899 0.01218
1995.51322 0.01160
1994.22745 0.01119
1992.94168 0.01154
1991.65591 0.01242
1990.37014 0.01309
1989.08438 0.01308
1987.79861 0.01267
1986.51284 0.01244
1985.22707 0.01271
1983.94130 0.01337
1982.65553 0.01416
1981.36976 0.01482
1980.08399 0.01520
1978.79822 0.01524
1977.51246 0.01504
1976.22669 0.01480
1974.94092 0.01468
1973.65515 0.01462
1972.36938 0.01444
1971.08361 0.01413
1969.79784 0.01392
1968.51207 0.01398
1967.22631 0.01418
1965.94054 0.01425
1964.65477 0.01415
1963.36900 0.01397
1962.08323 0.01366
1960.79746 0.01320
1959.51169 0.01276
1958.22592 0.01256
1956.94015 0.01248
1955.65439 0.01224
1954.36862 0.01185
1953.08285 0.01170
1951.79708 0.01208
1950.51131 0.01287
1949.22554 0.01370
1947.93977 0.01428
1946.65400 0.01458
1945.36823 0.01471
1944.08247 0.01477
1942.79670 0.01481
1941.51093 0.01490
1940.22516 0.01516
1938.93939 0.01558
1937.65362 0.01604
1936.36785 0.01633
1935.08208 0.01643
1933.79632 0.01648
1932.51055 0.01651
1931.22478 0.01647
1929.93901 0.01633
1928.65324 0.01630
1927.36747 0.01652
1926.08170 0.01686
1924.79593 0.01703
1923.51016 0.01697
1922.22440 0.01687
1920.93863 0.01688
1919.65286 0.01693
1918.36709 0.01691
1917.08132 0.01688
1915.79555 0.01700
1914.50978 0.01735
1913.22401 0.01786
1911.93825 0.01834
1910.65248 0.01861
1909.36671 0.01858
1908.08094 0.01829
1906.79517 0.01781
1905.50940 0.01729
1904.22363 0.01684
1902.93786 0.01656
1901.65209 0.01650
1900.36633 0.01669
1899.08056 0.01704
1897.79479 0.01739
1896.50902 0.01758
1895.22325 0.01760
1893.93748 0.01754
1892.65171 0.01746
1891.36594 0.01736
1890.08018 0.01722
1888.79441 0.01707
1887.50864 0.01695
1886.22287 0.01688
1884.93710 0.01685
1883.65133 0.01688
1882.36556 0.01695
1881.07979 0.01699
1879.79402 0.01697
1878.50826 0.01697
1877.22249 0.01708
1875.93672 0.01728
1874.65095 0.01747
1873.36518 0.01754
1872.07941 0.01752
1870.79364 0.01746
1869.50787 0.01737
1868.22211 0.01720
1866.93634 0.01694
1865.65057 0.01668
1864.36480 0.01652
1863.07903 0.01649
1861.79326 0.01656
1860.50749 0.01666
1859.22172 0.01673
1857.93595 0.01677
1856.65019 0.01677
1855.36442 0.01676
1854.07865 0.01678
1852.79288 0.01680
1851.50711 0.01684
1850.22134 0.01693
1848.93557 0.01709
1847.64980 0.01729
1846.36404 0.01743
1845.07827 0.01750
1843.79250 0.01754
1842.50673 0.01764
1841.22096 0.01778
1839.93519 0.01789
1838.64942 0.01787
1837.36365 0.01772
1836.07788 0.01755
1834.79212 0.01747
1833.50635 0.01747
1832.22058 0.01749
1830.93481 0.01750
1829.64904 0.01757
1828.36327 0.01773
1827.07750 0.01796
1825.79173 0.01818
1824.50597 0.01837
1823.22020 0.01849
1821.93443 0.01850
1820.64866 0.01832
1819.36289 0.01794
1818.07712 0.01746
1816.79135 0.01704
1815.50558 0.01678
1814.21981 0.01668
1812.93405 0.01661
1811.64828 0.01656
1810.36251 0.01654
1809.07674 0.01660
1807.79097 0.01674
1806.50520 0.01694
1805.21943 0.01716
1803.93366 0.01735
1802.64790 0.01747
1801.36213 0.01751
1800.07636 0.01751
1798.79059 0.01753
1797.50482 0.01760
1796.21905 0.01768
1794.93328 0.01771
1793.64751 0.01768
1792.36174 0.01767
1791.07598 0.01776
1789.79021 0.01796
1788.50444 0.01815
1787.21867 0.01822
1785.93290 0.01814
1784.64713 0.01797
1783.36136 0.01778
1782.07559 0.01763
1780.78983 0.01756
1779.50406 0.01759
1778.21829 0.01772
1776.93252 0.01791
1775.64675 0.01810
1774.36098 0.01819
1773.07521 0.01814
1771.78944 0.01803
1770.50367 0.01789
1769.21791 0.01773
1767.93214 0.01760
1766.64637 0.01756
1765.36060 0.01762
1764.07483 0.01774
1762.78906 0.01792
1761.50329 0.01815
1760.21752 0.01834
1758.93176 0.01838
1757.64599 0.01823
1756.36022 0.01802
1755.07445 0.01786
1753.78868 0.01774
1752.50291 0.01766
1751.21714 0.01763
1749.93137 0.01766
1748.64560 0.01769
1747.35984 0.01771
1746.07407 0.01774
1744.78830 0.01780
1743.50253 0.01788
1742.21676 0.01792
1740.93099 0.01790
1739.64522 0.01790
1738.35945 0.01803
1737.07369 0.01823
1735.78792 0.01835
1734.50215 0.01838
1733.21638 0.01842
1731.93061 0.01846
1730.64484 0.01845
1729.35907 0.01840
1728.07330 0.01841
1726.78753 0.01849
1725.50177 0.01861
1724.21600 0.01877
1722.93023 0.01905
1721.64446 0.01950
1720.35869 0.02001
1719.07292 0.02041
1717.78715 0.02061
1716.50138 0.02068
1715.21561 0.02074
1713.92985 0.02091
1712.64408 0.02127
1711.35831 0.02180
1710.07254 0.02244
1708.78677 0.02314
1707.50100 0.02388
1706.21523 0.02468
1704.92946 0.02559
1703.64370 0.02657
1702.35793 0.02750
1701.07216 0.02839
1699.78639 0.02938
1698.50062 0.03046
1697.21485 0.03144
1695.92908 0.03231
1694.64331 0.03320
1693.35754 0.03410
1692.07178 0.03496
1690.78601 0.03588
1689.50024 0.03695
1688.21447 0.03808
1686.92870 0.03910
1685.64293 0.03996
1684.35716 0.04082
1683.07139 0.04182
1681.78563 0.04288
1680.49986 0.04390
1679.21409 0.04495
1677.92832 0.04602
1676.64255 0.04707
1675.35678 0.04812
1674.07101 0.04922
1672.78524 0.05030
1671.49947 0.05129
1670.21371 0.05221
1668.92794 0.05315
1667.64217 0.05411
1666.35640 0.05509
1665.07063 0.05604
1663.78486 0.05699
1662.49909 0.05797
1661.21332 0.05892
1659.92756 0.05984
1658.64179 0.06078
1657.35602 0.06181
1656.07025 0.06284
1654.78448 0.06368
1653.49871 0.06435
1652.21294 0.06497
1650.92717 0.06555
1649.64140 0.06593
1648.35564 0.06611
1647.06987 0.06624
1645.78410 0.06640
1644.49833 0.06655
1643.21256 0.06660
1641.92679 0.06654
1640.64102 0.06646
1639.35525 0.06637
1638.06949 0.06621
1636.78372 0.06588
1635.49795 0.06542
1634.21218 0.06485
1632.92641 0.06419
1631.64064 0.06345
1630.35487 0.06269
1629.06910 0.06199
1627.78333 0.06133
1626.49757 0.06065
1625.21180 0.05991
1623.92603 0.05910
1622.64026 0.05832
1621.35449 0.05764
1620.06872 0.05704
1618.78295 0.05643
1617.49718 0.05578
1616.21142 0.05517
1614.92565 0.05460
1613.63988 0.05407
1612.35411 0.05356
1611.06834 0.05315
1609.78257 0.05284
1608.49680 0.05261
1607.21103 0.05243
1605.92526 0.05230
1604.63950 0.05220
1603.35373 0.05212
1602.06796 0.05206
1600.78219 0.05201
1599.49642 0.05198
1598.21065 0.05196
1596.92488 0.05200
1595.63911 0.05209
1594.35335 0.05226
1593.06758 0.05248
1591.78181 0.05275
1590.49604 0.05304
1589.21027 0.05333
1587.92450 0.05360
1586.63873 0.05385
1585.35296 0.05410
1584.06719 0.05435
1582.78143 0.05466
1581.49566 0.05509
1580.20989 0.05568
1578.92412 0.05634
1577.63835 0.05693
1576.35258 0.05745
1575.06681 0.05800
1573.78104 0.05861
1572.49528 0.05922
1571.20951 0.05978
1569.92374 0.06032
1568.63797 0.06088
1567.35220 0.06144
1566.06643 0.06198
1564.78066 0.06254
1563.49489 0.06315
1562.20912 0.06373
1560.92336 0.06419
1559.63759 0.06455
1558.35182 0.06494
1557.06605 0.06531
1555.78028 0.06555
1554.49451 0.06567
1553.20874 0.06577
1551.92297 0.06588
1550.63721 0.06593
1549.35144 0.06594
1548.06567 0.06591
1546.77990 0.06586
1545.49413 0.06579
1544.20836 0.06572
1542.92259 0.06560
1541.63682 0.06534
1540.35105 0.06493
1539.06529 0.06449
1537.77952 0.06406
1536.49375 0.06360
1535.20798 0.06308
1533.92221 0.06261
1532.63644 0.06231
1531.35067 0.06218
1530.06490 0.06214
1528.77914 0.06212
1527.49337 0.06212
1526.20760 0.06216
1524.92183 0.06227
1523.63606 0.06242
1522.35029 0.06261
1521.06452 0.06286
1519.77875 0.06316
1518.49298 0.06343
1517.20722 0.06364
1515.92145 0.06392
1514.63568 0.06433
1513.34991 0.06492
1512.06414 0.06567
1510.77837 0.06657
1509.49260 0.06745
1508.20683 0.06817
1506.92107 0.06872
1505.63530 0.06922
1504.34953 0.06972
1503.06376 0.07016
1501.77799 0.07055
1500.49222 0.07092
1499.20645 0.07128
1497.92068 0.07159
1496.63491 0.07187
1495.34915 0.07217
1494.06338 0.07250
1492.77761 0.07281
1491.49184 0.07311
1490.20607 0.07349
1488.92030 0.07398
1487.63453 0.07455
1486.34876 0.07516
1485.06299 0.07580
1483.77723 0.07647
1482.49146 0.07720
1481.20569 0.07801
1479.91992 0.07891
1478.63415 0.07990
1477.34838 0.08093
1476.06261 0.08197
1474.77684 0.08297
1473.49108 0.08390
1472.20531 0.08482
1470.91954 0.08576
1469.63377 0.08665
1468.34800 0.08746
1467.06223 0.08818
1465.77646 0.08886
1464.49069 0.08958
1463.20492 0.09036
1461.91916 0.09124
1460.63339 0.09220
1459.34762 0.09319
1458.06185 0.09417
1456.77608 0.09515
1455.49031 0.09611
1454.20454 0.09694
1452.91877 0.09758
1451.63301 0.09808
1450.34724 0.09847
1449.06147 0.09874
1447.77570 0.09888
1446.48993 0.09893
1445.20416 0.09888
1443.91839 0.09876
1442.63262 0.09863
1441.34685 0.09855
1440.06109 0.09849
1438.77532 0.09840
1437.48955 0.09827
1436.20378 0.09822
1434.91801 0.09830
1433.63224 0.09852
1432.34647 0.09888
1431.06070 0.09939
1429.77494 0.10006
1428.48917 0.10086
1427.20340 0.10178
1425.91763 0.10279
1424.63186 0.10391
1423.34609 0.10508
1422.06032 0.10622
1420.77455 0.10723
1419.48878 0.10816
1418.20302 0.10904
1416.91725 0.10980
1415.63148 0.11038
1414.34571 0.11078
1413.05994 0.11105
1411.77417 0.11123
1410.48840 0.11130
1409.20263 0.11123
1407.91687 0.11095
1406.63110 0.11045
1405.34533 0.10975
1404.05956 0.10888
1402.77379 0.10786
1401.48802 0.10667
1400.20225 0.10535
1398.91648 0.10396
1397.63071 0.10250
1396.34495 0.10096
1395.05918 0.09933
1393.77341 0.09762
1392.48764 0.09588
1391.20187 0.09413
1389.91610 0.09241
1388.63033 0.09072
1387.34456 0.08906
1386.05880 0.08743
1384.77303 0.08578
1383.48726 0.08412
1382.20149 0.08247
1380.91572 0.08088
1379.62995 0.07934
1378.34418 0.07782
1377.05841 0.07622
1375.77264 0.07450
1374.48688 0.07268
1373.20111 0.07082
1371.91534 0.06899
1370.62957 0.06720
1369.34380 0.06547
1368.05803 0.06382
1366.77226 0.06229
1365.48649 0.06085
1364.20073 0.05948
1362.91496 0.05813
1361.62919 0.05680
1360.34342 0.05552
1359.05765 0.05439
1357.77188 0.05344
1356.48611 0.05266
1355.20034 0.05194
1353.91457 0.05124
1352.62881 0.05056
1351.34304 0.04996
1350.05727 0.04944
1348.77150 0.04896
1347.48573 0.04847
1346.19996 0.04796
1344.91419 0.04747
1343.62842 0.04703
1342.34266 0.04663
1341.05689 0.04623
1339.77112 0.04579
1338.48535 0.04535
1337.19958 0.04493
1335.91381 0.04454
1334.62804 0.04416
1333.34227 0.04377
1332.05650 0.04335
1330.77074 0.04292
1329.48497 0.04248
1328.19920 0.04204
1326.91343 0.04160
1325.62766 0.04119
1324.34189 0.04081
1323.05612 0.04046
1321.77035 0.04011
1320.48459 0.03972
1319.19882 0.03932
1317.91305 0.03894
1316.62728 0.03858
1315.34151 0.03826
1314.05574 0.03797
1312.76997 0.03769
1311.48420 0.03740
1310.19843 0.03710
1308.91267 0.03679
1307.62690 0.03647
1306.34113 0.03614
1305.05536 0.03582
1303.76959 0.03551
1302.48382 0.03524
1301.19805 0.03497
1299.91228 0.03470
1298.62652 0.03440
1297.34075 0.03408
1296.05498 0.03374
1294.76921 0.03339
1293.48344 0.03306
1292.19767 0.03279
1290.91190 0.03260
1289.62613 0.03246
1288.34036 0.03233
1287.05460 0.03221
1285.76883 0.03210
1284.48306 0.03198
1283.19729 0.03186
1281.91152 0.03175
1280.62575 0.03164
1279.33998 0.03153
1278.05421 0.03141
1276.76845 0.03125
1275.48268 0.03108
1274.19691 0.03090
1272.91114 0.03074
1271.62537 0.03059
1270.33960 0.03044
1269.05383 0.03034
1267.76806 0.03030
1266.48229 0.03033
1265.19653 0.03035
1263.91076 0.03033
1262.62499 0.03025
1261.33922 0.03014
1260.05345 0.03004
1258.76768 0.02999
1257.48191 0.02999
1256.19614 0.03002
1254.91037 0.03006
1253.62461 0.03006
1252.33884 0.03003
1251.05307 0.02997
1249.76730 0.02989
1248.48153 0.02984
1247.19576 0.02980
1245.90999 0.02978
1244.62422 0.02980
1243.33846 0.02983
1242.05269 0.02988
1240.76692 0.02991
1239.48115 0.02987
1238.19538 0.02977
1236.90961 0.02962
1235.62384 0.02947
1234.33807 0.02933
1233.05230 0.02921
1231.76654 0.02909
1230.48077 0.02894
1229.19500 0.02873
1227.90923 0.02843
1226.62346 0.02809
1225.33769 0.02776
1224.05192 0.02751
1222.76615 0.02731
1221.48039 0.02712
1220.19462 0.02689
1218.90885 0.02661
1217.62308 0.02630
1216.33731 0.02599
1215.05154 0.02574
1213.76577 0.02557
1212.48000 0.02549
1211.19423 0.02546
1209.90847 0.02548
1208.62270 0.02551
1207.33693 0.02552
1206.05116 0.02550
1204.76539 0.02543
1203.47962 0.02534
1202.19385 0.02520
1200.90808 0.02499
1199.62232 0.02495
1198.33655 0.02484
1197.05078 0.02467
1195.76501 0.02447
1194.47924 0.02430
1193.19347 0.02415
1191.90770 0.02401
1190.62193 0.02386
1189.33616 0.02370
1188.05040 0.02355
1186.76463 0.02338
1185.47886 0.02318
1184.19309 0.02298
1182.90732 0.02278
1181.62155 0.02261
1180.33578 0.02247
1179.05001 0.02239
1177.76425 0.02239
1176.47848 0.02246
1175.19271 0.02255
1173.90694 0.02259
1172.62117 0.02258
1171.33540 0.02255
1170.04963 0.02254
1168.76386 0.02255
1167.47809 0.02257
1166.19233 0.02261
1164.90656 0.02264
1163.62079 0.02263
1162.33502 0.02259
1161.04925 0.02253
1159.76348 0.02247
1158.47771 0.02248
1157.19194 0.02257
1155.90618 0.02273
1154.62041 0.02290
1153.33464 0.02303
1152.04887 0.02314
1150.76310 0.02324
1149.47733 0.02333
1148.19156 0.02341
1146.90579 0.02353
1145.62002 0.02375
1144.33426 0.02410
1143.04849 0.02458
1141.76272 0.02517
1140.47695 0.02583
1139.19118 0.02655
1137.90541 0.02736
1136.61964 0.02830
1135.33387 0.02941
1134.04811 0.03065
1132.76234 0.03199
1131.47657 0.03347
1130.19080 0.03512
1128.90503 0.03704
1127.61926 0.03922
1126.33349 0.04165
1125.04772 0.04427
1123.76195 0.04703
1122.47619 0.04993
1121.19042 0.05292
1119.90465 0.05593
1118.61888 0.05889
1117.33311 0.06182
1116.04734 0.06474
1114.76157 0.06762
1113.47580 0.07039
1112.19004 0.07297
1110.90427 0.07533
1109.61850 0.07759
1108.33273 0.07986
1107.04696 0.08217
1105.76119 0.08445
1104.47542 0.08664
1103.18965 0.08870
1101.90388 0.09063
1100.61812 0.09247
1099.33235 0.09429
1098.04658 0.09612
1096.76081 0.09795
1095.47504 0.09970
1094.18927 0.10127
1092.90350 0.10259
1091.61773 0.10370
1090.33197 0.10469
1089.04620 0.10566
1087.76043 0.10668
1086.47466 0.10778
1085.18889 0.10896
1083.90312 0.11018
1082.61735 0.11145
1081.33158 0.11278
1080.04581 0.11419
1078.76005 0.11575
1077.47428 0.11748
1076.18851 0.11939
1074.90274 0.12142
1073.61697 0.12349
1072.33120 0.12555
1071.04543 0.12763
1069.75966 0.12978
1068.47390 0.13204
1067.18813 0.13442
1065.90236 0.13688
1064.61659 0.13938
1063.33082 0.14187
1062.04505 0.14436
1060.75928 0.14688
1059.47351 0.14942
1058.18774 0.15193
1056.90198 0.15435
1055.61621 0.15675
1054.33044 0.15921
1053.04467 0.16175
1051.75890 0.16433
1050.47313 0.16691
1049.18736 0.16950
1047.90159 0.17213
1046.61583 0.17482
1045.33006 0.17760
1044.04429 0.18045
1042.75852 0.18333
1041.47275 0.18618
1040.18698 0.18905
1038.90121 0.19204
1037.61544 0.19517
1036.32967 0.19837
1035.04391 0.20153
1033.75814 0.20456
1032.47237 0.20738
1031.18660 0.20994
1029.90083 0.21225
1028.61506 0.21436
1027.32929 0.21629
1026.04352 0.21802
1024.75775 0.21951
1023.47199 0.22077
1022.18622 0.22182
1020.90045 0.22266
1019.61468 0.22321
1018.32891 0.22336
1017.04314 0.22306
1015.75737 0.22240
1014.47160 0.22151
1013.18584 0.22038
1011.90007 0.21887
1010.61430 0.21691
1009.32853 0.21455
1008.04276 0.21190
1006.75699 0.20899
1005.47122 0.20579
1004.18545 0.20235
1002.89968 0.19870
1001.61392 0.19486
1000.32815 0.19086
999.04238 0.18671
997.75661 0.18244
996.47084 0.17806
995.18507 0.17358
993.89930 0.16901
992.61353 0.16439
991.32777 0.15974
990.04200 0.15507
988.75623 0.15043
987.47046 0.14592
986.18469 0.14164
984.89892 0.13759
983.61315 0.13370
982.32738 0.12989
981.04161 0.12614
979.75585 0.12249
978.47008 0.11901
977.18431 0.11578
975.89854 0.11286
974.61277 0.11026
973.32700 0.10798
972.04123 0.10605
970.75546 0.10454
969.46970 0.10352
968.18393 0.10300
966.89816 0.10299
965.61239 0.10342
964.32662 0.10408
963.04085 0.10471
961.75508 0.10506
960.46931 0.10502
959.18354 0.10450
957.89778 0.10352
956.61201 0.10211
955.32624 0.10040
954.04047 0.09850
952.75470 0.09647
951.46893 0.09433
950.18316 0.09213
948.89739 0.08996
947.61163 0.08792
946.32586 0.08602
945.04009 0.08421
943.75432 0.08240
942.46855 0.08060
941.18278 0.07883
939.89701 0.07715
938.61124 0.07560
937.32547 0.07416
936.03971 0.07281
934.75394 0.07155
933.46817 0.07035
932.18240 0.06918
930.89663 0.06803
929.61086 0.06694
928.32509 0.06594
927.03932 0.06501
925.75356 0.06410
924.46779 0.06322
923.18202 0.06238
921.89625 0.06159
920.61048 0.06080
919.32471 0.05996
918.03894 0.05908
916.75317 0.05824
915.46740 0.05755
914.18164 0.05702
912.89587 0.05656
911.61010 0.05604
910.32433 0.05540
909.03856 0.05467
907.75279 0.05393
906.46702 0.05330
905.18125 0.05279
903.89549 0.05235
902.60972 0.05191
901.32395 0.05139
900.03818 0.05078
898.75241 0.05014
897.46664 0.04955
896.18087 0.04903
894.89510 0.04856
893.60933 0.04817
892.32357 0.04793
891.03780 0.04790
889.75203 0.04802
888.46626 0.04827
887.18049 0.04872
885.89472 0.04950
884.60895 0.05081
883.32318 0.05277
882.03742 0.05524
880.75165 0.05784
879.46588 0.06008
878.18011 0.06178
876.89434 0.06311
875.60857 0.06441
874.32280 0.06579
873.03703 0.06708
871.75126 0.06796
870.46550 0.06821
869.17973 0.06775
867.89396 0.06666
866.60819 0.06503
865.32242 0.06300
864.03665 0.06074
862.75088 0.05846
861.46511 0.05634
860.17935 0.05445
858.89358 0.05284
857.60781 0.05147
856.32204 0.05033
855.03627 0.04934
853.75050 0.04846
852.46473 0.04771
851.17896 0.04709
849.89319 0.04659
848.60743 0.04611
847.32166 0.04563
846.03589 0.04514
844.75012 0.04465
843.46435 0.04419
842.17858 0.04380
840.89281 0.04351
839.60704 0.04334
838.32128 0.04319
837.03551 0.04296
835.74974 0.04258
834.46397 0.04213
833.17820 0.04175
831.89243 0.04151
830.60666 0.04139
829.32089 0.04128
828.03512 0.04114
826.74936 0.04096
825.46359 0.04078
824.17782 0.04062
822.89205 0.04049
821.60628 0.04041
820.32051 0.04036
819.03474 0.04032
817.74897 0.04022
816.46321 0.04005
815.17744 0.03982
813.89167 0.03960
812.60590 0.03942
811.32013 0.03931
810.03436 0.03923
808.74859 0.03912
807.46282 0.03896
806.17705 0.03880
804.89129 0.03866
803.60552 0.03859
802.31975 0.03861
801.03398 0.03870
799.74821 0.03876
798.46244 0.03873
797.17667 0.03859
795.89090 0.03840
794.60513 0.03825
793.31937 0.03817
792.03360 0.03815
790.74783 0.03814
789.46206 0.03816
788.17629 0.03823
786.89052 0.03830
785.60475 0.03835
784.31898 0.03831
783.03322 0.03817
781.74745 0.03797
780.46168 0.03779
779.17591 0.03769
777.89014 0.03766
776.60437 0.03763
775.31860 0.03759
774.03283 0.03757
772.74706 0.03761
771.46130 0.03766
770.17553 0.03770
768.88976 0.03769
767.60399 0.03766
766.31822 0.03761
765.03245 0.03758
763.74668 0.03760
762.46091 0.03765
761.17515 0.03769
759.88938 0.03770
758.60361 0.03770
757.31784 0.03767
756.03207 0.03762
754.74630 0.03759
753.46053 0.03762
752.17476 0.03767
750.88899 0.03765
749.60323 0.03752
748.31746 0.03738
747.03169 0.03733
745.74592 0.03737
744.46015 0.03740
743.17438 0.03735
741.88861 0.03720
740.60284 0.03703
739.31708 0.03694
738.03131 0.03695
736.74554 0.03695
735.45977 0.03689
734.17400 0.03678
732.88823 0.03672
731.60246 0.03672
730.31669 0.03674
729.03092 0.03672
727.74516 0.03667
726.45939 0.03659
725.17362 0.03651
723.88785 0.03669
722.60208 0.03657
721.31631 0.03656
720.03054 0.03669
718.74477 0.03681
717.45901 0.03688
716.17324 0.03688
714.88747 0.03679
713.60170 0.03663
712.31593 0.03645
711.03016 0.03632
709.74439 0.03625
708.45862 0.03622
707.17285 0.03619
705.88709 0.03618
704.60132 0.03622
703.31555 0.03629
702.02978 0.03636
700.74401 0.03636
699.45824 0.03630
698.17247 0.03622
696.88670 0.03614
695.60094 0.03609
694.31517 0.03606
693.02940 0.03602
691.74363 0.03598
690.45786 0.03594
689.17209 0.03591
687.88632 0.03589
686.60055 0.03586
685.31478 0.03580
684.02902 0.03568
682.74325 0.03551
681.45748 0.03533
680.17171 0.03515
678.88594 0.03501
677.60017 0.03494
676.31440 0.03495
675.02863 0.03505
673.74287 0.03524
672.45710 0.03548
671.17133 0.03571
669.88556 0.03587
668.59979 0.03596
667.31402 0.03594
666.02825 0.03583
664.74248 0.03574
663.45671 0.03565
662.17095 0.03557
660.88518 0.03547
659.59941 0.03531
658.31364 0.03506
657.02787 0.03472
655.74210 0.03436
654.45633 0.03404
653.17056 0.03380
651.88480 0.03365
650.59903 0.03355
649.31326 0.03349
648.02749 0.03346
646.74172 0.03344
645.45595 0.03340
644.17018 0.03330
642.88441 0.03313
641.59864 0.03293
640.31288 0.03275
639.02711 0.03263
637.74134 0.03258
636.45557 0.03258
635.16980 0.03268
633.88403 0.03290
632.59826 0.03317
631.31249 0.03295
630.02673 0.03243
628.74096 0.03412
627.45519 0.03617
626.16942 0.03943
624.88365 0.04337
623.59788 0.04684
622.31211 0.04907
621.02634 0.05018
619.74057 0.05108
618.45481 0.05244
617.16904 0.05386
615.88327 0.05481
614.59750 0.05582
613.31173 0.05846
612.02596 0.06371
610.74019 0.07056
609.45442 0.07686
608.16866 0.08165
606.88289 0.08576
605.59712 0.09000
604.31135 0.09396
603.02558 0.09657
601.73981 0.09714
600.45404 0.09577
599.16827 0.09324
597.88250 0.09037
596.59674 0.08764
595.31097 0.08503
594.02520 0.08241
592.73943 0.07985
591.45366 0.07766
590.16789 0.07611
588.88212 0.07528
587.59635 0.07511
586.31059 0.07556
585.02482 0.07659
583.73905 0.07819
582.45328 0.08028
581.16751 0.08272
579.88174 0.08527
578.59597 0.08765
577.31020 0.08965
576.02443 0.09129
574.73867 0.09278
573.45290 0.09440
572.16713 0.09637
570.88136 0.09881
569.59559 0.10167
568.30982 0.10482
567.02405 0.10809
565.73828 0.11137
564.45251 0.11447
563.16675 0.11706
561.88098 0.11875
560.59521 0.11925
559.30944 0.11850
558.02367 0.11651
556.73790 0.11340
555.45213 0.10938
554.16636 0.10478
552.88060 0.09999
551.59483 0.09527
550.30906 0.09078
549.02329 0.08660
547.73752 0.08280
546.45175 0.07940
545.16598 0.07636
543.88021 0.07366
542.59444 0.07129
541.30868 0.06918
540.02291 0.06722
538.73714 0.06531
537.45137 0.06349
536.16560 0.06187
534.87983 0.06053
533.59406 0.05941
532.30829 0.05841
531.02253 0.05741
529.73676 0.05632
528.45099 0.05507
527.16522 0.05371
525.87945 0.05242
524.59368 0.05140
523.30791 0.05068
522.02214 0.05012
520.73637 0.04948
519.45061 0.04866
518.16484 0.04770
516.87907 0.04672
515.59330 0.04578
514.30753 0.04492
513.02176 0.04419
511.73599 0.04359
510.45022 0.04310
509.16446 0.04262
507.87869 0.04214
506.59292 0.04166
505.30715 0.04121
504.02138 0.04075
502.73561 0.04027
501.44984 0.03974
500.16407 0.03917
498.87830 0.03857
497.59254 0.03795
496.30677 0.03736
495.02100 0.03685
493.73523 0.03646
492.44946 0.03620
491.16369 0.03605
489.87792 0.03596
488.59215 0.03585
487.30639 0.03568
486.02062 0.03543
484.73485 0.03512
483.44908 0.03480
482.16331 0.03454
480.87754 0.03436
479.59177 0.03428
478.30600 0.03426
477.02023 0.03431
475.73447 0.03443
474.44870 0.03459
473.16293 0.03475
471.87716 0.03484
470.59139 0.03483
469.30562 0.03474
468.01985 0.03462
466.73408 0.03447
465.44832 0.03426
464.16255 0.03392
462.87678 0.03345
461.59101 0.03291
460.30524 0.03238
459.01947 0.03188
457.73370 0.03143
456.44793 0.03099
455.16216 0.03055
453.87640 0.03013
452.59063 0.02979
451.30486 0.02952
450.01909 0.02927
448.73332 0.02896
447.44755 0.02860
446.16178 0.02825
444.87601 0.02792
443.59025 0.02763
442.30448 0.02738
441.01871 0.02717
439.73294 0.02700
438.44717 0.02683
437.16140 0.02664
435.87563 0.02644
434.58986 0.02627
433.30409 0.02613
432.01833 0.02601
430.73256 0.02589
429.44679 0.02571
428.16102 0.02550
426.87525 0.02530
425.58948 0.02514
424.30371 0.02503
423.01794 0.02494
421.73218 0.02482
420.44641 0.02465
419.16064 0.02446
417.87487 0.02425
416.58910 0.02403
415.30333 0.02379
414.01756 0.02358
412.73179 0.02343
411.44602 0.02335
410.16026 0.02330
408.87449 0.02325
407.58872 0.02321
406.30295 0.02319
405.01718 0.02319
403.73141 0.02321
402.44564 0.02321
401.15987 0.02321
399.87411 0.02323
