3997.45528 0.02483
3996.16951 0.02439
3994.88374 0.02431
3993.59798 0.02412
3992.31221 0.02361
3991.02644 0.02314
3989.74067 0.02334
3988.45490 0.02442
3987.16913 0.02589
3985.88336 0.02694
3984.59759 0.02706
3983.31183 0.02644
3982.02606 0.02567
3980.74029 0.02521
3979.45452 0.02515
3978.16875 0.02530
3976.88298 0.02545
3975.59721 0.02545
3974.31144 0.02526
3973.02567 0.02486
3971.73991 0.02436
3970.45414 0.02392
3969.16837 0.02379
3967.88260 0.02408
3966.59683 0.02467
3965.31106 0.02515
3964.02529 0.02516
3962.73952 0.02473
3961.45376 0.02438
3960.16799 0.02465
3958.88222 0.02564
3957.59645 0.02682
3956.31068 0.02745
3955.02491 0.02708
3953.73914 0.02589
3952.45337 0.02443
3951.16760 0.02328
3949.88184 0.02282
3948.59607 0.02315
3947.31030 0.02398
3946.02453 0.02474
3944.73876 0.02499
3943.45299 0.02468
3942.16722 0.02405
3940.88145 0.02327
3939.59569 0.02246
3938.30992 0.02180
3937.02415 0.02147
3935.73838 0.02146
3934.45261 0.02171
3933.16684 0.02234
3931.88107 0.02350
3930.59530 0.02486
3929.30953 0.02574
3928.02377 0.02572
3926.73800 0.02515
3925.45223 0.02478
3924.16646 0.02502
3922.88069 0.02554
3921.59492 0.02585
3920.30915 0.02589
3919.02338 0.02597
3917.73762 0.02618
3916.45185 0.02641
3915.16608 0.02670
3913.88031 0.02726
3912.59454 0.02804
3911.30877 0.02866
3910.02300 0.02884
3908.73723 0.02877
3907.45146 0.02877
3906.16570 0.02876
3904.87993 0.02826
3903.59416 0.02691
3902.30839 0.02496
3901.02262 0.02318
3899.73685 0.02230
3898.45108 0.02251
3897.16531 0.02328
3895.87955 0.02391
3894.59378 0.02417
3893.30801 0.02433
3892.02224 0.02455
3890.73647 0.02459
3889.45070 0.02420
3888.16493 0.02366
3886.87916 0.02343
3885.59339 0.02347
3884.30763 0.02334
3883.02186 0.02279
3881.73609 0.02216
3880.45032 0.02196
3879.16455 0.02241
3877.87878 0.02331
3876.59301 0.02430
3875.30724 0.02498
3874.02148 0.02504
3872.73571 0.02443
3871.44994 0.02356
3870.16417 0.02311
3868.87840 0.02358
3867.59263 0.02470
3866.30686 0.02555
3865.02109 0.02528
3863.73532 0.02385
3862.44956 0.02198
3861.16379 0.02042
3859.87802 0.01960
3858.59225 0.01961
3857.30648 0.02034
3856.02071 0.02142
3854.73494 0.02225
3853.44917 0.02264
3852.16341 0.02301
3850.87764 0.02380
3849.59187 0.02471
3848.30610 0.02499
3847.02033 0.02422
3845.73456 0.02288
3844.44879 0.02179
3843.16302 0.02145
3841.87725 0.02181
3840.59149 0.02258
3839.30572 0.02351
3838.01995 0.02437
3836.73418 0.02495
3835.44841 0.02499
3834.16264 0.02434
3832.87687 0.02315
3831.59110 0.02191
3830.30534 0.02114
3829.01957 0.02101
3827.73380 0.02132
3826.44803 0.02190
3825.16226 0.02277
3823.87649 0.02397
3822.59072 0.02525
3821.30495 0.02626
3820.01918 0.02682
3818.73342 0.02710
3817.44765 0.02721
3816.16188 0.02700
3814.87611 0.02618
3813.59034 0.02478
3812.30457 0.02335
3811.01880 0.02271
3809.73303 0.02326
3808.44726 0.02438
3807.16150 0.02496
3805.87573 0.02445
3804.58996 0.02337
3803.30419 0.02265
3802.01842 0.02263
3800.73265 0.02288
3799.44688 0.02291
3798.16111 0.02273
3796.87535 0.02271
3795.58958 0.02307
3794.30381 0.02361
3793.01804 0.02402
3791.73227 0.02427
3790.44650 0.02456
3789.16073 0.02500
3787.87496 0.02541
3786.58919 0.02553
3785.30343 0.02518
3784.01766 0.02446
3782.73189 0.02370
3781.44612 0.02336
3780.16035 0.02360
3778.87458 0.02419
3777.58881 0.02472
3776.30304 0.02497
3775.01728 0.02499
3773.73151 0.02503
3772.44574 0.02530
3771.15997 0.02567
3769.87420 0.02568
3768.58843 0.02513
3767.30266 0.02448
3766.01689 0.02442
3764.73112 0.02507
3763.44536 0.02577
3762.15959 0.02570
3760.87382 0.02467
3759.58805 0.02323
3758.30228 0.02207
3757.01651 0.02157
3755.73074 0.02172
3754.44497 0.02233
3753.15921 0.02306
3751.87344 0.02344
3750.58767 0.02316
3749.30190 0.02243
3748.01613 0.02185
3746.73036 0.02172
3745.44459 0.02188
3744.15882 0.02216
3742.87305 0.02272
3741.58729 0.02362
3740.30152 0.02455
3739.01575 0.02498
3737.72998 0.02478
3736.44421 0.02421
3735.15844 0.02347
3733.87267 0.02257
3732.58690 0.02161
3731.30114 0.02094
3730.01537 0.02083
3728.72960 0.02132
3727.44383 0.02229
3726.15806 0.02351
3724.87229 0.02455
3723.58652 0.02482
3722.30075 0.02400
3721.01498 0.02244
3719.72922 0.02096
3718.44345 0.02019
3717.15768 0.02023
3715.87191 0.02070
3714.58614 0.02112
3713.30037 0.02127
3712.01460 0.02129
3710.72883 0.02151
3709.44307 0.02219
3708.15730 0.02330
3706.87153 0.02449
3705.58576 0.02530
3704.29999 0.02547
3703.01422 0.02531
3701.72845 0.02537
3700.44268 0.02571
3699.15691 0.02579
3697.87115 0.02519
3696.58538 0.02404
3695.29961 0.02263
3694.01384 0.02129
3692.72807 0.02036
3691.44230 0.02012
3690.15653 0.02038
3688.87076 0.02058
3687.58500 0.02027
3686.29923 0.01951
3685.01346 0.01897
3683.72769 0.01921
3682.44192 0.02010
3681.15615 0.02115
3679.87038 0.02203
3678.58461 0.02262
3677.29884 0.02276
3676.01308 0.02225
3674.72731 0.02126
3673.44154 0.02040
3672.15577 0.02015
3670.87000 0.02038
3669.58423 0.02066
3668.29846 0.02076
3667.01269 0.02085
3665.72693 0.02109
3664.44116 0.02134
3663.15539 0.02133
3661.86962 0.02108
3660.58385 0.02091
3659.29808 0.02115
3658.01231 0.02178
3656.72654 0.02253
3655.44077 0.02319
3654.15501 0.02374
3652.86924 0.02419
3651.58347 0.02437
3650.29770 0.02390
3649.01193 0.02264
3647.72616 0.02091
3646.44039 0.01940
3645.15462 0.01868
3643.86886 0.01884
3642.58309 0.01954
3641.29732 0.02035
3640.01155 0.02117
3638.72578 0.02208
3637.44001 0.02293
3636.15424 0.02318
3634.86847 0.02238
3633.58270 0.02098
3632.29694 0.02012
3631.01117 0.02055
3629.72540 0.02174
3628.43963 0.02240
3627.15386 0.02182
3625.86809 0.02050
3624.58232 0.01951
3623.29655 0.01944
3622.01079 0.02022
3620.72502 0.02147
3619.43925 0.02285
3618.15348 0.02400
3616.86771 0.02464
3615.58194 0.02472
3614.29617 0.02442
3613.01040 0.02404
3611.72463 0.02386
3610.43887 0.02402
3609.15310 0.02445
3607.86733 0.02492
3606.58156 0.02519
3605.29579 0.02522
3604.01002 0.02505
3602.72425 0.02480
3601.43848 0.02461
3600.15272 0.02468
3598.86695 0.02511
3597.58118 0.02589
3596.29541 0.02672
3595.00964 0.02712
3593.72387 0.02677
3592.43810 0.02605
3591.15233 0.02570
3589.86656 0.02604
3588.58080 0.02662
3587.29503 0.02669
3586.00926 0.02592
3584.72349 0.02456
3583.43772 0.02329
3582.15195 0.02268
3580.86618 0.02281
3579.58041 0.02339
3578.29464 0.02401
3577.00888 0.02446
3575.72311 0.02480
3574.43734 0.02514
3573.15157 0.02541
3571.86580 0.02544
3570.58003 0.02511
3569.29426 0.02453
3568.00849 0.02401
3566.72273 0.02385
3565.43696 0.02425
3564.15119 0.02510
3562.86542 0.02606
3561.57965 0.02673
3560.29388 0.02700
3559.00811 0.02712
3557.72234 0.02742
3556.43657 0.02785
3555.15081 0.02805
3553.86504 0.02776
3552.57927 0.02717
3551.29350 0.02674
3550.00773 0.02676
3548.72196 0.02713
3547.43619 0.02755
3546.15042 0.02785
3544.86466 0.02819
3543.57889 0.02880
3542.29312 0.02969
3541.00735 0.03046
3539.72158 0.03061
3538.43581 0.02998
3537.15004 0.02887
3535.86427 0.02781
3534.57850 0.02712
3533.29274 0.02680
3532.00697 0.02680
3530.72120 0.02712
3529.43543 0.02765
3528.14966 0.02809
3526.86389 0.02815
3525.57812 0.02796
3524.29235 0.02793
3523.00659 0.02829
3521.72082 0.02880
3520.43505 0.02920
3519.14928 0.02950
3517.86351 0.02995
3516.57774 0.03060
3515.29197 0.03121
3514.00620 0.03148
3512.72043 0.03134
3511.43467 0.03094
3510.14890 0.03047
3508.86313 0.03006
3507.57736 0.02984
3506.29159 0.02988
3505.00582 0.03006
3503.72005 0.03010
3502.43428 0.02987
3501.14852 0.02956
3499.86275 0.02951
3498.57698 0.02985
3497.29121 0.03040
3496.00544 0.03083
3494.71967 0.03098
3493.43390 0.03090
3492.14813 0.03084
3490.86236 0.03092
3489.57660 0.03105
3488.29083 0.03102
3487.00506 0.03084
3485.71929 0.03082
3484.43352 0.03125
3483.14775 0.03204
3481.86198 0.03282
3480.57621 0.03328
3479.29045 0.03334
3478.00468 0.03308
3476.71891 0.03267
3475.43314 0.03234
3474.14737 0.03237
3472.86160 0.03281
3471.57583 0.03337
3470.29006 0.03362
3469.00429 0.03340
3467.71853 0.03284
3466.43276 0.03215
3465.14699 0.03147
3463.86122 0.03096
3462.57545 0.03079
3461.28968 0.03098
3460.00391 0.03132
3458.71814 0.03163
3457.43238 0.03191
3456.14661 0.03227
3454.86084 0.03261
3453.57507 0.03274
3452.28930 0.03250
3451.00353 0.03194
3449.71776 0.03129
3448.43199 0.03091
3447.14622 0.03098
3445.86046 0.03142
3444.57469 0.03190
3443.28892 0.03222
3442.00315 0.03245
3440.71738 0.03275
3439.43161 0.03321
3438.14584 0.03374
3436.86007 0.03407
3435.57431 0.03389
3434.28854 0.03317
3433.00277 0.03239
3431.71700 0.03230
3430.43123 0.03313
3429.14546 0.03441
3427.85969 0.03530
3426.57392 0.03527
3425.28815 0.03437
3424.00239 0.03312
3422.71662 0.03223
3421.43085 0.03213
3420.14508 0.03273
3418.85931 0.03349
3417.57354 0.03400
3416.28777 0.03422
3415.00200 0.03437
3413.71624 0.03455
3412.43047 0.03468
3411.14470 0.03468
3409.85893 0.03454
3408.57316 0.03441
3407.28739 0.03455
3406.00162 0.03510
3404.71585 0.03587
3403.43008 0.03641
3402.14432 0.03655
3400.85855 0.03647
3399.57278 0.03605
3398.28701 0.03553
3397.00124 0.03542
3395.71547 0.03540
3394.42970 0.03509
3393.14393 0.03445
3391.85817 0.03389
3390.57240 0.03394
3389.28663 0.03473
3388.00086 0.03589
3386.71509 0.03690
3385.42932 0.03759
3384.14355 0.03796
3382.85778 0.03798
3381.57201 0.03763
3380.28625 0.03720
3379.00048 0.03712
3377.71471 0.03750
3376.42894 0.03806
3375.14317 0.03842
3373.85740 0.03846
3372.57163 0.03835
3371.28586 0.03836
3370.00010 0.03861
3368.71433 0.03900
3367.42856 0.03923
3366.14279 0.03908
3364.85702 0.03859
3363.57125 0.03802
3362.28548 0.03756
3360.99971 0.03724
3359.71394 0.03706
3358.42818 0.03710
3357.14241 0.03742
3355.85664 0.03788
3354.57087 0.03822
3353.28510 0.03830
3351.99933 0.03816
3350.71356 0.03789
3349.42779 0.03750
3348.14202 0.03706
3346.85626 0.03677
3345.57049 0.03684
3344.28472 0.03728
3342.99895 0.03781
3341.71318 0.03807
3340.42741 0.03784
3339.14164 0.03726
3337.85587 0.03671
3336.57011 0.03658
3335.28434 0.03706
3333.99857 0.03797
3332.71280 0.03894
3331.42703 0.03957
3330.14126 0.03962
3328.85549 0.03913
3327.56972 0.03835
3326.28395 0.03753
3324.99819 0.03689
3323.71242 0.03659
3322.42665 0.03673
3321.14088 0.03728
3319.85511 0.03797
3318.56934 0.03851
3317.28357 0.03886
3315.99780 0.03926
3314.71204 0.03999
3313.42627 0.04095
3312.14050 0.04176
3310.85473 0.04214
3309.56896 0.04217
3308.28319 0.04208
3306.99742 0.04194
3305.71165 0.04169
3304.42588 0.04136
3303.14012 0.04108
3301.85435 0.04093
3300.56858 0.04088
3299.28281 0.04089
3297.99704 0.04087
3296.71127 0.04067
3295.42550 0.04025
3294.13973 0.03987
3292.85397 0.03985
3291.56820 0.04026
3290.28243 0.04085
3288.99666 0.04135
3287.71089 0.04165
3286.42512 0.04175
3285.13935 0.04168
3283.85358 0.04156
3282.56781 0.04155
3281.28205 0.04163
3279.99628 0.04152
3278.71051 0.04100
3277.42474 0.04025
3276.13897 0.03968
3274.85320 0.03950
3273.56743 0.03960
3272.28166 0.03979
3270.99590 0.04005
3269.71013 0.04045
3268.42436 0.04100
3267.13859 0.04159
3265.85282 0.04208
3264.56705 0.04236
3263.28128 0.04246
3261.99551 0.04246
3260.70974 0.04243
3259.42398 0.04229
3258.13821 0.04190
3256.85244 0.04124
3255.56667 0.04054
3254.28090 0.04014
3252.99513 0.04023
3251.70936 0.04055
3250.42359 0.04071
3249.13783 0.04052
3247.85206 0.04006
3246.56629 0.03953
3245.28052 0.03913
3243.99475 0.03894
3242.70898 0.03898
3241.42321 0.03925
3240.13744 0.03972
3238.85167 0.04023
3237.56591 0.04053
3236.28014 0.04048
3234.99437 0.04017
3233.70860 0.03984
3232.42283 0.03960
3231.13706 0.03949
3229.85129 0.03951
3228.56552 0.03969
3227.27976 0.03994
3225.99399 0.04015
3224.70822 0.04022
3223.42245 0.04010
3222.13668 0.03982
3220.85091 0.03939
3219.56514 0.03889
3218.27937 0.03841
3216.99360 0.03809
3215.70784 0.03809
3214.42207 0.03837
3213.13630 0.03876
3211.85053 0.03902
3210.56476 0.03904
3209.27899 0.03887
3207.99322 0.03858
3206.70745 0.03828
3205.42169 0.03808
3204.13592 0.03809
3202.85015 0.03831
3201.56438 0.03873
3200.27861 0.03922
3198.99284 0.03961
3197.70707 0.03969
3196.42130 0.03946
3195.13553 0.03912
3193.84977 0.03899
3192.56400 0.03921
3191.27823 0.03964
3189.99246 0.03998
3188.70669 0.04000
3187.42092 0.03970
3186.13515 0.03933
3184.84938 0.03909
3183.56362 0.03906
3182.27785 0.03919
3180.99208 0.03941
3179.70631 0.03956
3178.42054 0.03936
3177.13477 0.03875
3175.84900 0.03798
3174.56323 0.03748
3173.27746 0.03738
3171.99170 0.03741
3170.70593 0.03730
3169.42016 0.03705
3168.13439 0.03696
3166.84862 0.03724
3165.56285 0.03772
3164.27708 0.03805
3162.99131 0.03802
3161.70555 0.03771
3160.41978 0.03730
3159.13401 0.03687
3157.84824 0.03641
3156.56247 0.03597
3155.27670 0.03567
3153.99093 0.03565
3152.70516 0.03594
3151.41939 0.03643
3150.13363 0.03685
3148.84786 0.03700
3147.56209 0.03689
3146.27632 0.03675
3144.99055 0.03676
3143.70478 0.03691
3142.41901 0.03703
3141.13324 0.03705
3139.84748 0.03705
3138.56171 0.03715
3137.27594 0.03733
3135.99017 0.03744
3134.70440 0.03741
3133.41863 0.03725
3132.13286 0.03711
3130.84709 0.03701
3129.56132 0.03687
3128.27556 0.03654
3126.98979 0.03605
3125.70402 0.03558
3124.41825 0.03527
3123.13248 0.03515
3121.84671 0.03515
3120.56094 0.03525
3119.27517 0.03543
3117.98940 0.03565
3116.70364 0.03587
3115.41787 0.03606
3114.13210 0.03616
3112.84633 0.03614
3111.56056 0.03601
3110.27479 0.03587
3108.98902 0.03580
3107.70325 0.03573
3106.41749 0.03560
3105.13172 0.03541
3103.84595 0.03523
3102.56018 0.03515
3101.27441 0.03524
3099.98864 0.03542
3098.70287 0.03556
3097.41710 0.03558
3096.13133 0.03555
3094.84557 0.03559
3093.55980 0.03571
3092.27403 0.03578
3090.98826 0.03571
3089.70249 0.03548
3088.41672 0.03523
3087.13095 0.03509
3085.84518 0.03514
3084.55942 0.03530
3083.27365 0.03540
3081.98788 0.03534
3080.70211 0.03519
3079.41634 0.03518
3078.13057 0.03545
3076.84480 0.03589
3075.55903 0.03627
3074.27326 0.03642
3072.98750 0.03646
3071.70173 0.03664
3070.41596 0.03703
3069.13019 0.03735
3067.84442 0.03720
3066.55865 0.03658
3065.27288 0.03597
3063.98711 0.03579
3062.70135 0.03597
3061.41558 0.03606
3060.12981 0.03577
3058.84404 0.03522
3057.55827 0.03468
3056.27250 0.03432
3054.98673 0.03422
3053.70096 0.03437
3052.41519 0.03467
3051.12943 0.03494
3049.84366 0.03498
3048.55789 0.03472
3047.27212 0.03428
3045.98635 0.03393
3044.70058 0.03389
3043.41481 0.03415
3042.12904 0.03447
3040.84328 0.03465
3039.55751 0.03465
3038.27174 0.03453
3036.98597 0.03439
3035.70020 0.03430
3034.41443 0.03425
3033.12866 0.03421
3031.84289 0.03407
3030.55712 0.03380
3029.27136 0.03348
3027.98559 0.03322
3026.69982 0.03306
3025.41405 0.03297
3024.12828 0.03298
3022.84251 0.03315
3021.55674 0.03348
3020.27097 0.03387
3018.98521 0.03422
3017.69944 0.03443
3016.41367 0.03439
3015.12790 0.03407
3013.84213 0.03365
3012.55636 0.03339
3011.27059 0.03342
3009.98482 0.03359
3008.69905 0.03373
3007.41329 0.03373
3006.12752 0.03361
3004.84175 0.03336
3003.55598 0.03307
3002.27021 0.03287
3000.98444 0.03275
2999.69867 0.03227
2998.41290 0.03235
2997.12714 0.03268
2995.84137 0.03305
2994.55560 0.03321
2993.26983 0.03306
2991.98406 0.03279
2990.69829 0.03266
2989.41252 0.03277
2988.12675 0.03294
2986.84098 0.03292
2985.55522 0.03273
2984.26945 0.03267
2982.98368 0.03292
2981.69791 0.03332
2980.41214 0.03361
2979.12637 0.03373
2977.84060 0.03380
2976.55483 0.03380
2975.26907 0.03370
2973.98330 0.03360
2972.69753 0.03376
2971.41176 0.03424
2970.12599 0.03483
2968.84022 0.03528
2967.55445 0.03558
2966.26868 0.03593
2964.98291 0.03650
2963.69715 0.03722
2962.41138 0.03783
2961.12561 0.03815
2959.83984 0.03825
2958.55407 0.03833
2957.26830 0.03856
2955.98253 0.03893
2954.69676 0.03934
2953.41100 0.03959
2952.12523 0.03965
2950.83946 0.03970
2949.55369 0.03991
2948.26792 0.04015
2946.98215 0.04007
2945.69638 0.03956
2944.41061 0.03887
2943.12484 0.03840
2941.83908 0.03837
2940.55331 0.03869
2939.26754 0.03919
2937.98177 0.03960
2936.69600 0.03981
2935.41023 0.03987
2934.12446 0.04001
2932.83869 0.04036
2931.55293 0.04083
2930.26716 0.04125
2928.98139 0.04160
2927.69562 0.04200
2926.40985 0.04240
2925.12408 0.04262
2923.83831 0.04249
2922.55254 0.04219
2921.26677 0.04203
2919.98101 0.04213
2918.69524 0.04223
2917.40947 0.04204
2916.12370 0.04155
2914.83793 0.04098
2913.55216 0.04047
2912.26639 0.04005
2910.98062 0.03978
2909.69486 0.03973
2908.40909 0.03984
2907.12332 0.03985
2905.83755 0.03951
2904.55178 0.03895
2903.26601 0.03854
2901.98024 0.03857
2900.69447 0.03894
2899.40870 0.03924
2898.12294 0.03915
2896.83717 0.03865
2895.55140 0.03796
2894.26563 0.03732
2892.97986 0.03694
2891.69409 0.03681
2890.40832 0.03677
2889.12255 0.03662
2887.83678 0.03631
2886.55102 0.03588
2885.26525 0.03542
2883.97948 0.03502
2882.69371 0.03482
2881.40794 0.03490
2880.12217 0.03514
2878.83640 0.03535
2877.55063 0.03544
2876.26487 0.03555
2874.97910 0.03590
2873.69333 0.03646
2872.40756 0.03697
2871.12179 0.03720
2869.83602 0.03719
2868.55025 0.03710
2867.26448 0.03700
2865.97871 0.03679
2864.69295 0.03644
2863.40718 0.03611
2862.12141 0.03591
2860.83564 0.03575
2859.54987 0.03548
2858.26410 0.03517
2856.97833 0.03507
2855.69256 0.03530
2854.40680 0.03566
2853.12103 0.03591
2851.83526 0.03593
2850.54949 0.03577
2849.26372 0.03547
2847.97795 0.03507
2846.69218 0.03467
2845.40641 0.03443
2844.12064 0.03443
2842.83488 0.03452
2841.54911 0.03443
2840.26334 0.03404
2838.97757 0.03348
2837.69180 0.03293
2836.40603 0.03249
2835.12026 0.03211
2833.83449 0.03179
2832.54873 0.03157
2831.26296 0.03145
2829.97719 0.03135
2828.69142 0.03112
2827.40565 0.03076
2826.11988 0.03041
2824.83411 0.03025
2823.54834 0.03032
2822.26257 0.03051
2820.97681 0.03065
2819.69104 0.03066
2818.40527 0.03048
2817.11950 0.03017
2815.83373 0.02981
2814.54796 0.02952
2813.26219 0.02937
2811.97642 0.02937
2810.69066 0.02944
2809.40489 0.02946
2808.11912 0.02937
2806.83335 0.02918
2805.54758 0.02892
2804.26181 0.02864
2802.97604 0.02845
2801.69027 0.02849
2800.40450 0.02877
2799.11874 0.02908
2797.83297 0.02920
2796.54720 0.02909
2795.26143 0.02887
2793.97566 0.02871
2792.68989 0.02866
2791.40412 0.02873
2790.11835 0.02886
2788.83259 0.02894
2787.54682 0.02888
2786.26105 0.02869
2784.97528 0.02843
2783.68951 0.02819
2782.40374 0.02801
2781.11797 0.02792
2779.83220 0.02791
2778.54643 0.02794
2777.26067 0.02800
2775.97490 0.02809
2774.68913 0.02815
2773.40336 0.02807
2772.11759 0.02790
2770.83182 0.02782
2769.54605 0.02800
2768.26028 0.02833
2766.97452 0.02853
2765.68875 0.02844
2764.40298 0.02817
2763.11721 0.02796
2761.83144 0.02784
2760.54567 0.02770
2759.25990 0.02749
2757.97413 0.02727
2756.68836 0.02716
2755.40260 0.02726
2754.11683 0.02753
2752.83106 0.02782
2751.54529 0.02792
2750.25952 0.02781
2748.97375 0.02760
2747.68798 0.02739
2746.40221 0.02714
2745.11645 0.02678
2743.83068 0.02641
2742.54491 0.02627
2741.25914 0.02645
2739.97337 0.02688
2738.68760 0.02738
2737.40183 0.02771
2736.11606 0.02772
2734.83029 0.02739
2733.54453 0.02694
2732.25876 0.02662
2730.97299 0.02652
2729.68722 0.02648
2728.40145 0.02630
2727.11568 0.02599
2725.82991 0.02574
2724.54414 0.02569
2723.25838 0.02583
2721.97261 0.02602
2720.68684 0.02619
2719.40107 0.02631
2718.11530 0.02636
2716.82953 0.02632
2715.54376 0.02619
2714.25799 0.02608
2712.97222 0.02607
2711.68646 0.02618
2710.40069 0.02628
2709.11492 0.02623
2707.82915 0.02605
2706.54338 0.02583
2705.25761 0.02568
2703.97184 0.02567
2702.68607 0.02575
2701.40031 0.02585
2700.11454 0.02590
2698.82877 0.02588
2697.54300 0.02586
2696.25723 0.02584
2694.97146 0.02581
2693.68569 0.02575
2692.39992 0.02561
2691.11415 0.02539
2689.82839 0.02519
2688.54262 0.02514
2687.25685 0.02525
2685.97108 0.02540
2684.68531 0.02545
2683.39954 0.02540
2682.11377 0.02532
2680.82800 0.02524
2679.54224 0.02516
2678.25647 0.02513
2676.97070 0.02516
2675.68493 0.02523
2674.39916 0.02529
2673.11339 0.02530
2671.82762 0.02527
2670.54185 0.02520
2669.25608 0.02510
2667.97032 0.02490
2666.68455 0.02458
2665.39878 0.02423
2664.11301 0.02409
2662.82724 0.02428
2661.54147 0.02468
2660.25570 0.02502
2658.96993 0.02517
2657.68417 0.02516
2656.39840 0.02510
2655.11263 0.02507
2653.82686 0.02512
2652.54109 0.02519
2651.25532 0.02516
2649.96955 0.02497
2648.68378 0.02465
2647.39801 0.02433
2646.11225 0.02413
2644.82648 0.02409
2643.54071 0.02422
2642.25494 0.02442
2640.96917 0.02457
2639.68340 0.02460
2638.39763 0.02451
2637.11186 0.02430
2635.82609 0.02395
2634.54033 0.02352
2633.25456 0.02316
2631.96879 0.02305
2630.68302 0.02333
2629.39725 0.02396
2628.11148 0.02467
2626.82571 0.02511
2625.53994 0.02508
2624.25418 0.02466
2622.96841 0.02410
2621.68264 0.02358
2620.39687 0.02318
2619.11110 0.02291
2617.82533 0.02274
2616.53956 0.02258
2615.25379 0.02246
2613.96802 0.02249
2612.68226 0.02270
2611.39649 0.02292
2610.11072 0.02299
2608.82495 0.02290
2607.53918 0.02281
2606.25341 0.02279
2604.96764 0.02279
2603.68187 0.02267
2602.39611 0.02233
2601.11034 0.02184
2599.82457 0.02133
2598.53880 0.02092
2597.25303 0.02062
2595.96726 0.02042
2594.68149 0.02025
2593.39572 0.02010
2592.10995 0.02005
2590.82419 0.02021
2589.53842 0.02060
2588.25265 0.02100
2586.96688 0.02118
2585.68111 0.02104
2584.39534 0.02070
2583.10957 0.02043
2581.82380 0.02036
2580.53804 0.02044
2579.25227 0.02053
2577.96650 0.02058
2576.68073 0.02065
2575.39496 0.02080
2574.10919 0.02102
2572.82342 0.02118
2571.53765 0.02122
2570.25188 0.02117
2568.96612 0.02120
2567.68035 0.02142
2566.39458 0.02170
2565.10881 0.02176
2563.82304 0.02138
2562.53727 0.02070
2561.25150 0.02007
2559.96573 0.01973
2558.67997 0.01957
2557.39420 0.01930
2556.10843 0.01896
2554.82266 0.01885
2553.53689 0.01916
2552.25112 0.01969
2550.96535 0.02008
2549.67958 0.02014
2548.39381 0.01991
2547.10805 0.01951
2545.82228 0.01915
2544.53651 0.01898
2543.25074 0.01908
2541.96497 0.01940
2540.67920 0.01978
2539.39343 0.02000
2538.10766 0.01992
2536.82190 0.01960
2535.53613 0.01932
2534.25036 0.01928
2532.96459 0.01946
2531.67882 0.01965
2530.39305 0.01964
2529.10728 0.01941
2527.82151 0.01916
2526.53574 0.01910
2525.24998 0.01930
2523.96421 0.01963
2522.67844 0.01989
2521.39267 0.01999
2520.10690 0.01990
2518.82113 0.01963
2517.53536 0.01927
2516.24959 0.01893
2514.96383 0.01863
2513.67806 0.01842
2512.39229 0.01840
2511.10652 0.01870
2509.82075 0.01922
2508.53498 0.01959
2507.24921 0.01947
2505.96344 0.01891
2504.67767 0.01829
2503.39191 0.01794
2502.10614 0.01787
2500.82037 0.01796
2499.53460 0.01816
2498.24883 0.01851
2496.96306 0.01897
2495.67729 0.01943
2494.39152 0.01975
2493.10576 0.01982
2491.81999 0.01957
2490.53422 0.01906
2489.24845 0.01853
2487.96268 0.01836
2486.67691 0.01866
2485.39114 0.01920
2484.10537 0.01961
2482.81960 0.01974
2481.53384 0.01963
2480.24807 0.01927
2478.96230 0.01866
2477.67653 0.01796
2476.39076 0.01747
2475.10499 0.01736
2473.81922 0.01750
2472.53345 0.01766
2471.24769 0.01765
2469.96192 0.01745
2468.67615 0.01711
2467.39038 0.01682
2466.10461 0.01678
2464.81884 0.01707
2463.53307 0.01756
2462.24730 0.01812
2460.96153 0.01867
2459.67577 0.01911
2458.39000 0.01923
2457.10423 0.01895
2455.81846 0.01844
2454.53269 0.01803
2453.24692 0.01786
2451.96115 0.01787
2450.67538 0.01791
2449.38962 0.01798
2448.10385 0.01810
2446.81808 0.01827
2445.53231 0.01843
2444.24654 0.01847
2442.96077 0.01838
2441.67500 0.01825
2440.38923 0.01821
2439.10346 0.01833
2437.81770 0.01856
2436.53193 0.01872
2435.24616 0.01866
2433.96039 0.01848
2432.67462 0.01843
2431.38885 0.01863
2430.10308 0.01882
2428.81731 0.01874
2427.53155 0.01838
2426.24578 0.01796
2424.96001 0.01767
2423.67424 0.01748
2422.38847 0.01729
2421.10270 0.01713
2419.81693 0.01707
2418.53116 0.01717
2417.24539 0.01737
2415.95963 0.01755
2414.67386 0.01772
2413.38809 0.01792
2412.10232 0.01818
2410.81655 0.01840
2409.53078 0.01846
2408.24501 0.01827
2406.95924 0.01780
2405.67347 0.01722
2404.38771 0.01681
2403.10194 0.01681
2401.81617 0.01715
2400.53040 0.01760
2399.24463 0.01875
2397.95886 0.01827
2396.67309 0.01783
2395.38732 0.01778
2394.10156 0.01781
2392.81579 0.01781
2391.53002 0.01778
2390.24425 0.01774
2388.95848 0.01763
2387.67271 0.01747
2386.38694 0.01729
2385.10117 0.01713
2383.81540 0.01700
2382.52964 0.01684
2381.24387 0.01672
2379.95810 0.01666
2378.67233 0.01691
2377.38656 0.01721
2376.10079 0.01718
2374.81502 0.01698
2373.52925 0.01748
2372.24349 0.01852
2370.95772 0.01927
2369.67195 0.01953
2368.38618 0.01952
2367.10041 0.01961
2365.81464 0.01962
2364.52887 0.01960
2363.24310 0.01959
2361.95733 0.01974
2360.67157 0.02015
2359.38580 0.02039
2358.10003 0.02022
2356.81426 0.01970
2355.52849 0.01899
2354.24272 0.01818
2352.95695 0.01757
2351.67118 0.01779
2350.38542 0.01822
2349.09965 0.01824
2347.81388 0.01835
2346.52811 0.01904
2345.24234 0.01949
2343.95657 0.01894
2342.67080 0.01758
2341.38503 0.01811
2340.09926 0.02000
2338.81350 0.02019
2337.52773 0.01888
2336.24196 0.01913
2334.95619 0.01994
2333.67042 0.01927
2332.38465 0.01784
2331.09888 0.01901
2329.81311 0.01952
2328.52735 0.01875
2327.24158 0.01913
2325.95581 0.01986
2324.67004 0.02011
2323.38427 0.01999
2322.09850 0.02055
2320.81273 0.02059
2319.52696 0.02034
2318.24119 0.01998
2316.95543 0.01950
2315.66966 0.01917
2314.38389 0.01871
2313.09812 0.01823
2311.81235 0.01792
2310.52658 0.01744
2309.24081 0.01693
2307.95504 0.01680
2306.66928 0.01690
2305.38351 0.01711
2304.09774 0.01714
2302.81197 0.01701
2301.52620 0.01692
2300.24043 0.01688
2298.95466 0.01689
2297.66889 0.01689
2296.38312 0.01694
2295.09736 0.01711
2293.81159 0.01726
2292.52582 0.01724
2291.24005 0.01701
2289.95428 0.01680
2288.66851 0.01687
2287.38274 0.01722
2286.09697 0.01755
2284.81121 0.01758
2283.52544 0.01730
2282.23967 0.01692
2280.95390 0.01661
2279.66813 0.01628
2278.38236 0.01577
2277.09659 0.01519
2275.81082 0.01493
2274.52505 0.01519
2273.23929 0.01584
2271.95352 0.01650
2270.66775 0.01690
2269.38198 0.01693
2268.09621 0.01664
2266.81044 0.01617
2265.52467 0.01571
2264.23890 0.01534
2262.95314 0.01510
2261.66737 0.01488
2260.38160 0.01450
2259.09583 0.01387
2257.81006 0.01313
2256.52429 0.01248
2255.23852 0.01211
2253.95275 0.01218
2252.66698 0.01258
2251.38122 0.01280
2250.09545 0.01276
2248.80968 0.01355
2247.52391 0.01312
2246.23814 0.01260
2244.95237 0.01234
2243.66660 0.01244
2242.38083 0.01279
2241.09507 0.01319
2239.80930 0.01334
2238.52353 0.01307
2237.23776 0.01253
2235.95199 0.01215
2234.66622 0.01228
2233.38045 0.01294
2232.09468 0.01381
2230.80891 0.01451
2229.52315 0.01481
2228.23738 0.01460
2226.95161 0.01395
2225.66584 0.01305
2224.38007 0.01218
2223.09430 0.01165
2221.80853 0.01173
2220.52276 0.01246
2219.23700 0.01354
2217.95123 0.01440
2216.66546 0.01447
2215.37969 0.01368
2214.09392 0.01261
2212.80815 0.01200
2211.52238 0.01204
2210.23661 0.01238
2208.95084 0.01260
2207.66508 0.01249
2206.37931 0.01194
2205.09354 0.01111
2203.80777 0.01049
2202.52200 0.01040
2201.23623 0.01067
2199.95046 0.01095
2198.66469 0.01118
2197.37893 0.01144
2196.09316 0.01145
2194.80739 0.01092
2193.52162 0.01010
2192.23585 0.00970
2190.95008 0.01022
2189.66431 0.01142
2188.37854 0.01237
2187.09277 0.01222
2185.80701 0.01092
2184.52124 0.00939
2183.23547 0.00868
2181.94970 0.00913
2180.66393 0.01023
2179.37816 0.01111
2178.09239 0.01114
2176.80662 0.01027
2175.52085 0.00904
2174.23509 0.00803
2172.94932 0.00743
2171.66355 0.00717
2170.37778 0.00745
2169.09201 0.00857
2167.80624 0.01030
2166.52047 0.01170
2165.23470 0.01182
2163.94894 0.01049
2162.66317 0.00832
2161.37740 0.00608
2160.09163 0.00413
2158.80586 0.00267
2157.52009 0.00203
2156.23432 0.00246
2154.94855 0.00351
2153.66278 0.00425
2152.37702 0.00420
2151.09125 0.00377
2149.80548 0.00372
2148.51971 0.00430
2147.23394 0.00521
2145.94817 0.00600
2144.66240 0.00644
2143.37663 0.00649
2142.09087 0.00633
2140.80510 0.00617
2139.51933 0.00609
2138.23356 0.00604
2136.94779 0.00604
2135.66202 0.00618
2134.37625 0.00650
2133.09048 0.00700
2131.80471 0.00766
2130.51895 0.00839
2129.23318 0.00900
2127.94741 0.00931
2126.66164 0.00936
2125.37587 0.00938
2124.09010 0.00951
2122.80433 0.00972
2121.51856 0.00985
2120.23280 0.00986
2118.94703 0.00993
2117.66126 0.01031
2116.37549 0.01091
2115.08972 0.01127
2113.80395 0.01098
2112.51818 0.01022
2111.23241 0.00966
2109.94664 0.00987
2108.66088 0.01072
2107.37511 0.01154
2106.08934 0.01172
2104.80357 0.01127
2103.51780 0.01076
2102.23203 0.01068
2100.94626 0.01104
2099.66049 0.01167
2098.37473 0.01206
2097.08896 0.01150
2095.80319 0.01031
2094.51742 0.00912
2093.23165 0.00845
2091.94588 0.00838
2090.66011 0.00860
2089.37434 0.00873
2088.08857 0.00857
2086.80281 0.00817
2085.51704 0.00769
2084.23127 0.00735
2082.94550 0.00731
2081.65973 0.00768
2080.37396 0.00840
2079.08819 0.00919
2077.80242 0.00970
2076.51666 0.00970
2075.23089 0.00930
2073.94512 0.00883
2072.65935 0.00855
2071.37358 0.00843
2070.08781 0.00837
2068.80204 0.00843
2067.51627 0.00875
2066.23050 0.00919
2064.94474 0.00935
2063.65897 0.00896
2062.37320 0.00813
2061.08743 0.00728
2059.80166 0.00678
2058.51589 0.00671
2057.23012 0.00690
2055.94435 0.00711
2054.65859 0.00725
2053.37282 0.00745
2052.08705 0.00784
2050.80128 0.00839
2049.51551 0.00884
2048.22974 0.00888
2046.94397 0.00837
2045.65820 0.00742
2044.37243 0.00634
2043.08667 0.00545
2041.80090 0.00512
2040.51513 0.00566
2039.22936 0.00699
2037.94359 0.00835
2036.65782 0.00876
2035.37205 0.00796
2034.08628 0.00668
2032.80052 0.00587
2031.51475 0.00568
2030.22898 0.00555
2028.94321 0.00502
2027.65744 0.00421
2026.37167 0.00354
2025.08590 0.00327
2023.80013 0.00337
2022.51436 0.00361
2021.22860 0.00370
2019.94283 0.00344
2018.65706 0.00304
2017.37129 0.00304
2016.08552 0.00375
2014.79975 0.00491
2013.51398 0.00588
2012.22821 0.00614
2010.94245 0.00556
2009.65668 0.00442
2008.37091 0.00333
2007.08514 0.00291
2005.79937 0.00336
2004.51360 0.00439
2003.22783 0.00558
2001.94206 0.00670
2000.65629 0.00759
1999.37053 0.00802
1998.08476 0.00779
1996.79899 0.00703
1995.51322 0.00624
1994.22745 0.00600
1992.94168 0.00649
1991.65591 0.00735
1990.37014 0.00800
1989.08438 0.00814
1987.79861 0.00789
1986.51284 0.00757
1985.22707 0.00747
1983.94130 0.00770
1982.65553 0.00812
1981.36976 0.00838
1980.08399 0.00814
1978.79822 0.00748
1977.51246 0.00685
1976.22669 0.00661
1974.94092 0.00668
1973.65515 0.00678
1972.36938 0.00691
1971.08361 0.00733
1969.79784 0.00814
1968.51207 0.00898
1967.22631 0.00923
1965.94054 0.00871
1964.65477 0.00787
1963.36900 0.00729
1962.08323 0.00710
1960.79746 0.00708
1959.51169 0.00713
1958.22592 0.00733
1956.94015 0.00758
1955.65439 0.00760
1954.36862 0.00731
1953.08285 0.00704
1951.79708 0.00717
1950.51131 0.00769
1949.22554 0.00832
1947.93977 0.00880
1946.65400 0.00912
1945.36823 0.00942
1944.08247 0.00970
1942.79670 0.00981
1941.51093 0.00967
1940.22516 0.00948
1938.93939 0.00953
1937.65362 0.00988
1936.36785 0.01027
1935.08208 0.01045
1933.79632 0.01038
1932.51055 0.01023
1931.22478 0.01015
1929.93901 0.01016
1928.65324 0.01028
1927.36747 0.01047
1926.08170 0.01062
1924.79593 0.01062
1923.51016 0.01059
1922.22440 0.01070
1920.93863 0.01094
1919.65286 0.01109
1918.36709 0.01100
1917.08132 0.01070
1915.79555 0.01044
1914.50978 0.01036
1913.22401 0.01044
1911.93825 0.01049
1910.65248 0.01033
1909.36671 0.01000
1908.08094 0.00967
1906.79517 0.00952
1905.50940 0.00952
1904.22363 0.00952
1902.93786 0.00944
1901.65209 0.00935
1900.36633 0.00943
1899.08056 0.00975
1897.79479 0.01016
1896.50902 0.01050
1895.22325 0.01071
1893.93748 0.01085
1892.65171 0.01095
1891.36594 0.01091
1890.08018 0.01064
1888.79441 0.01016
1887.50864 0.00962
1886.22287 0.00915
1884.93710 0.00888
1883.65133 0.00885
1882.36556 0.00908
1881.07979 0.00944
1879.79402 0.00975
1878.50826 0.00995
1877.22249 0.01010
1875.93672 0.01021
1874.65095 0.01024
1873.36518 0.01018
1872.07941 0.01010
1870.79364 0.01007
1869.50787 0.01004
1868.22211 0.00992
1866.93634 0.00972
1865.65057 0.00958
1864.36480 0.00957
1863.07903 0.00962
1861.79326 0.00964
1860.50749 0.00957
1859.22172 0.00944
1857.93595 0.00933
1856.65019 0.00932
1855.36442 0.00945
1854.07865 0.00968
1852.79288 0.00990
1851.50711 0.01001
1850.22134 0.00997
1848.93557 0.00983
1847.64980 0.00969
1846.36404 0.00964
1845.07827 0.00969
1843.79250 0.00981
1842.50673 0.00997
1841.22096 0.01014
1839.93519 0.01029
1838.64942 0.01037
1837.36365 0.01035
1836.07788 0.01027
1834.79212 0.01021
1833.50635 0.01024
1832.22058 0.01034
1830.93481 0.01044
1829.64904 0.01050
1828.36327 0.01056
1827.07750 0.01063
1825.79173 0.01074
1824.50597 0.01088
1823.22020 0.01095
1821.93443 0.01090
1820.64866 0.01069
1819.36289 0.01039
1818.07712 0.01014
1816.79135 0.00997
1815.50558 0.00988
1814.21981 0.00983
1812.93405 0.00984
1811.64828 0.00991
1810.36251 0.01002
1809.07674 0.01010
1807.79097 0.01014
1806.50520 0.01023
1805.21943 0.01042
1803.93366 0.01067
1802.64790 0.01085
1801.36213 0.01086
1800.07636 0.01074
1798.79059 0.01060
1797.50482 0.01054
1796.21905 0.01056
1794.93328 0.01065
1793.64751 0.01075
1792.36174 0.01085
1791.07598 0.01099
1789.79021 0.01113
1788.50444 0.01123
1787.21867 0.01124
1785.93290 0.01116
1784.64713 0.01106
1783.36136 0.01099
1782.07559 0.01097
1780.78983 0.01095
1779.50406 0.01091
1778.21829 0.01084
1776.93252 0.01077
1775.64675 0.01076
1774.36098 0.01078
1773.07521 0.01076
1771.78944 0.01068
1770.50367 0.01056
1769.21791 0.01048
1767.93214 0.01048
1766.64637 0.01057
1765.36060 0.01074
1764.07483 0.01096
1762.78906 0.01116
1761.50329 0.01127
1760.21752 0.01124
1758.93176 0.01111
1757.64599 0.01093
1756.36022 0.01077
1755.07445 0.01069
1753.78868 0.01065
1752.50291 0.01061
1751.21714 0.01055
1749.93137 0.01050
1748.64560 0.01050
1747.35984 0.01055
1746.07407 0.01065
1744.78830 0.01077
1743.50253 0.01090
1742.21676 0.01104
1740.93099 0.01116
1739.64522 0.01122
1738.35945 0.01122
1737.07369 0.01123
1735.78792 0.01127
1734.50215 0.01132
1733.21638 0.01131
1731.93061 0.01118
1730.64484 0.01102
1729.35907 0.01092
1728.07330 0.01092
1726.78753 0.01098
1725.50177 0.01107
1724.21600 0.01115
1722.93023 0.01125
1721.64446 0.01138
1720.35869 0.01157
1719.07292 0.01178
1717.78715 0.01196
1716.50138 0.01209
1715.21561 0.01223
1713.92985 0.01245
1712.64408 0.01282
1711.35831 0.01329
1710.07254 0.01379
1708.78677 0.01424
1707.50100 0.01464
1706.21523 0.01502
1704.92946 0.01545
1703.64370 0.01596
1702.35793 0.01656
1701.07216 0.01717
1699.78639 0.01775
1698.50062 0.01833
1697.21485 0.01895
1695.92908 0.01960
1694.64331 0.02021
1693.35754 0.02077
1692.07178 0.02135
1690.78601 0.02202
1689.50024 0.02274
1688.21447 0.02346
1686.92870 0.02417
1685.64293 0.02484
1684.35716 0.02548
1683.07139 0.02609
1681.78563 0.02675
1680.49986 0.02748
1679.21409 0.02825
1677.92832 0.02900
1676.64255 0.02969
1675.35678 0.03035
1674.07101 0.03104
1672.78524 0.03177
1671.49947 0.03256
1670.21371 0.03338
1668.92794 0.03413
1667.64217 0.03481
1666.35640 0.03546
1665.07063 0.03616
1663.78486 0.03691
1662.49909 0.03766
1661.21332 0.03836
1659.92756 0.03900
1658.64179 0.03960
1657.35602 0.04020
1656.07025 0.04082
1654.78448 0.04144
1653.49871 0.04200
1652.21294 0.04242
1650.92717 0.04269
1649.64140 0.04287
1648.35564 0.04302
1647.06987 0.04314
1645.78410 0.04324
1644.49833 0.04328
1643.21256 0.04328
1641.92679 0.04322
1640.64102 0.04311
1639.35525 0.04298
1638.06949 0.04286
1636.78372 0.04274
1635.49795 0.04251
1634.21218 0.04213
1632.92641 0.04162
1631.64064 0.04107
1630.35487 0.04058
1629.06910 0.04014
1627.78333 0.03971
1626.49757 0.03924
1625.21180 0.03868
1623.92603 0.03807
1622.64026 0.03743
1621.35449 0.03683
1620.06872 0.03630
1618.78295 0.03584
1617.49718 0.03543
1616.21142 0.03502
1614.92565 0.03458
1613.63988 0.03415
1612.35411 0.03375
1611.06834 0.03344
1609.78257 0.03324
1608.49680 0.03310
1607.21103 0.03301
1605.92526 0.03292
1604.63950 0.03284
1603.35373 0.03280
1602.06796 0.03279
1600.78219 0.03279
1599.49642 0.03281
1598.21065 0.03287
1596.92488 0.03299
1595.63911 0.03318
1594.35335 0.03340
1593.06758 0.03360
1591.78181 0.03375
1590.49604 0.03389
1589.21027 0.03403
1587.92450 0.03421
1586.63873 0.03439
1585.35296 0.03457
1584.06719 0.03476
1582.78143 0.03502
1581.49566 0.03539
1580.20989 0.03589
1578.92412 0.03650
1577.63835 0.03711
1576.35258 0.03764
1575.06681 0.03803
1573.78104 0.03833
1572.49528 0.03867
1571.20951 0.03909
1569.92374 0.03956
1568.63797 0.04002
1567.35220 0.04048
1566.06643 0.04091
1564.78066 0.04131
1563.49489 0.04168
1562.20912 0.04207
1560.92336 0.04250
1559.63759 0.04293
1558.35182 0.04331
1557.06605 0.04360
1555.78028 0.04380
1554.49451 0.04391
1553.20874 0.04394
1551.92297 0.04393
1550.63721 0.04392
1549.35144 0.04393
1548.06567 0.04395
1546.77990 0.04396
1545.49413 0.04393
1544.20836 0.04386
1542.92259 0.04374
1541.63682 0.04355
1540.35105 0.04328
1539.06529 0.04292
1537.77952 0.04252
1536.49375 0.04217
1535.20798 0.04194
1533.92221 0.04182
1532.63644 0.04176
1531.35067 0.04172
1530.06490 0.04170
1528.77914 0.04169
1527.49337 0.04170
1526.20760 0.04173
1524.92183 0.04180
1523.63606 0.04190
1522.35029 0.04202
1521.06452 0.04213
1519.77875 0.04222
1518.49298 0.04234
1517.20722 0.04249
1515.92145 0.04270
1514.63568 0.04303
1513.34991 0.04348
1512.06414 0.04406
1510.77837 0.04471
1509.49260 0.04534
1508.20683 0.04590
1506.92107 0.04631
1505.63530 0.04659
1504.34953 0.04681
1503.06376 0.04705
1501.77799 0.04736
1500.49222 0.04774
1499.20645 0.04812
1497.92068 0.04843
1496.63491 0.04864
1495.34915 0.04877
1494.06338 0.04887
1492.77761 0.04901
1491.49184 0.04923
1490.20607 0.04952
1488.92030 0.04988
1487.63453 0.05029
1486.34876 0.05075
1485.06299 0.05122
1483.77723 0.05168
1482.49146 0.05214
1481.20569 0.05261
1479.91992 0.05313
1478.63415 0.05371
1477.34838 0.05436
1476.06261 0.05504
1474.77684 0.05571
1473.49108 0.05632
1472.20531 0.05686
1470.91954 0.05734
1469.63377 0.05778
1468.34800 0.05819
1467.06223 0.05858
1465.77646 0.05894
1464.49069 0.05931
1463.20492 0.05973
1461.91916 0.06024
1460.63339 0.06085
1459.34762 0.06152
1458.06185 0.06219
1456.77608 0.06280
1455.49031 0.06334
1454.20454 0.06379
1452.91877 0.06419
1451.63301 0.06455
1450.34724 0.06487
1449.06147 0.06513
1447.77570 0.06532
1446.48993 0.06544
1445.20416 0.06550
1443.91839 0.06550
1442.63262 0.06546
1441.34685 0.06540
1440.06109 0.06534
1438.77532 0.06529
1437.48955 0.06523
1436.20378 0.06516
1434.91801 0.06511
1433.63224 0.06517
1432.34647 0.06539
1431.06070 0.06579
1429.77494 0.06629
1428.48917 0.06686
1427.20340 0.06747
1425.91763 0.06816
1424.63186 0.06896
1423.34609 0.06982
1422.06032 0.07068
1420.77455 0.07144
1419.48878 0.07209
1418.20302 0.07266
1416.91725 0.07319
1415.63148 0.07369
1414.34571 0.07414
1413.05994 0.07449
1411.77417 0.07469
1410.48840 0.07474
1409.20263 0.07466
1407.91687 0.07443
1406.63110 0.07407
1405.34533 0.07360
1404.05956 0.07304
1402.77379 0.07241
1401.48802 0.07170
1400.20225 0.07087
1398.91648 0.06993
1397.63071 0.06890
1396.34495 0.06783
1395.05918 0.06673
1393.77341 0.06558
1392.48764 0.06439
1391.20187 0.06318
1389.91610 0.06199
1388.63033 0.06082
1387.34456 0.05964
1386.05880 0.05845
1384.77303 0.05728
1383.48726 0.05612
1382.20149 0.05497
1380.91572 0.05384
1379.62995 0.05272
1378.34418 0.05160
1377.05841 0.05045
1375.77264 0.04923
1374.48688 0.04793
1373.20111 0.04662
1371.91534 0.04534
1370.62957 0.04412
1369.34380 0.04297
1368.05803 0.04186
1366.77226 0.04079
1365.48649 0.03977
1364.20073 0.03880
1362.91496 0.03789
1361.62919 0.03702
1360.34342 0.03619
1359.05765 0.03544
1357.77188 0.03479
1356.48611 0.03423
1355.20034 0.03374
1353.91457 0.03328
1352.62881 0.03289
1351.34304 0.03255
1350.05727 0.03224
1348.77150 0.03192
1347.48573 0.03158
1346.19996 0.03124
1344.91419 0.03092
1343.62842 0.03065
1342.34266 0.03039
1341.05689 0.03013
1339.77112 0.02984
1338.48535 0.02953
1337.19958 0.02922
1335.91381 0.02891
1334.62804 0.02861
1333.34227 0.02832
1332.05650 0.02804
1330.77074 0.02778
1329.48497 0.02751
1328.19920 0.02724
1326.91343 0.02696
1325.62766 0.02668
1324.34189 0.02639
1323.05612 0.02609
1321.77035 0.02580
1320.48459 0.02556
1319.19882 0.02537
1317.91305 0.02522
1316.62728 0.02506
1315.34151 0.02488
1314.05574 0.02468
1312.76997 0.02445
1311.48420 0.02422
1310.19843 0.02402
1308.91267 0.02383
1307.62690 0.02365
1306.34113 0.02346
1305.05536 0.02325
1303.76959 0.02304
1302.48382 0.02280
1301.19805 0.02255
1299.91228 0.02230
1298.62652 0.02208
1297.34075 0.02188
1296.05498 0.02171
1294.76921 0.02155
1293.48344 0.02140
1292.19767 0.02129
1290.91190 0.02122
1289.62613 0.02117
1288.34036 0.02108
1287.05460 0.02096
1285.76883 0.02082
1284.48306 0.02071
1283.19729 0.02065
1281.91152 0.02063
1280.62575 0.02060
1279.33998 0.02052
1278.05421 0.02039
1276.76845 0.02026
1275.48268 0.02016
1274.19691 0.02007
1272.91114 0.01999
1271.62537 0.01991
1270.33960 0.01985
1269.05383 0.01985
1267.76806 0.01990
1266.48229 0.01996
1265.19653 0.01998
1263.91076 0.01994
1262.62499 0.01986
1261.33922 0.01977
1260.05345 0.01970
1258.76768 0.01965
1257.48191 0.01962
1256.19614 0.01960
1254.91037 0.01960
1253.62461 0.01963
1252.33884 0.01968
1251.05307 0.01973
1249.76730 0.01975
1248.48153 0.01974
1247.19576 0.01970
1245.90999 0.01967
1244.62422 0.01967
1243.33846 0.01969
1242.05269 0.01972
1240.76692 0.01971
1239.48115 0.01968
1238.19538 0.01962
1236.90961 0.01954
1235.62384 0.01945
1234.33807 0.01935
1233.05230 0.01926
1231.76654 0.01916
1230.48077 0.01904
1229.19500 0.01886
1227.90923 0.01863
1226.62346 0.01839
1225.33769 0.01817
1224.05192 0.01796
1222.76615 0.01775
1221.48039 0.01751
1220.19462 0.01725
1218.90885 0.01700
1217.62308 0.01678
1216.33731 0.01662
1215.05154 0.01651
1213.76577 0.01642
1212.48000 0.01632
1211.19423 0.01623
1209.90847 0.01616
1208.62270 0.01610
1207.33693 0.01605
1206.05116 0.01601
1204.76539 0.01599
1203.47962 0.01594
1202.19385 0.01579
1200.90808 0.01555
1199.62232 0.01550
1198.33655 0.01536
1197.05078 0.01523
1195.76501 0.01510
1194.47924 0.01499
1193.19347 0.01490
1191.90770 0.01483
1190.62193 0.01475
1189.33616 0.01466
1188.05040 0.01458
1186.76463 0.01450
1185.47886 0.01438
1184.19309 0.01421
1182.90732 0.01404
1181.62155 0.01390
1180.33578 0.01382
1179.05001 0.01375
1177.76425 0.01368
1176.47848 0.01361
1175.19271 0.01357
1173.90694 0.01358
1172.62117 0.01360
1171.33540 0.01360
1170.04963 0.01361
1168.76386 0.01364
1167.47809 0.01374
1166.19233 0.01385
1164.90656 0.01394
1163.62079 0.01398
1162.33502 0.01398
1161.04925 0.01396
1159.76348 0.01390
1158.47771 0.01385
1157.19194 0.01384
1155.90618 0.01389
1154.62041 0.01396
1153.33464 0.01403
1152.04887 0.01412
1150.76310 0.01425
1149.47733 0.01442
1148.19156 0.01458
1146.90579 0.01473
1145.62002 0.01492
1144.33426 0.01516
1143.04849 0.01546
1141.76272 0.01582
1140.47695 0.01622
1139.19118 0.01668
1137.90541 0.01722
1136.61964 0.01793
1135.33387 0.01881
1134.04811 0.01980
1132.76234 0.02082
1131.47657 0.02186
1130.19080 0.02300
1128.90503 0.02432
1127.61926 0.02586
1126.33349 0.02758
1125.04772 0.02941
1123.76195 0.03135
1122.47619 0.03340
1121.19042 0.03551
1119.90465 0.03761
1118.61888 0.03967
1117.33311 0.04175
1116.04734 0.04385
1114.76157 0.04593
1113.47580 0.04793
1112.19004 0.04979
1110.90427 0.05155
1109.61850 0.05326
1108.33273 0.05495
1107.04696 0.05666
1105.76119 0.05840
1104.47542 0.06012
1103.18965 0.06175
1101.90388 0.06325
1100.61812 0.06461
1099.33235 0.06589
1098.04658 0.06715
1096.76081 0.06844
1095.47504 0.06972
1094.18927 0.07093
1092.90350 0.07196
1091.61773 0.07280
1090.33197 0.07357
1089.04620 0.07438
1087.76043 0.07530
1086.47466 0.07625
1085.18889 0.07715
1083.90312 0.07800
1082.61735 0.07889
1081.33158 0.07991
1080.04581 0.08108
1078.76005 0.08236
1077.47428 0.08371
1076.18851 0.08514
1074.90274 0.08660
1073.61697 0.08808
1072.33120 0.08956
1071.04543 0.09108
1069.75966 0.09264
1068.47390 0.09423
1067.18813 0.09581
1065.90236 0.09742
1064.61659 0.09911
1063.33082 0.10089
1062.04505 0.10273
1060.75928 0.10457
1059.47351 0.10635
1058.18774 0.10802
1056.90198 0.10957
1055.61621 0.11106
1054.33044 0.11258
1053.04467 0.11418
1051.75890 0.11583
1050.47313 0.11751
1049.18736 0.11921
1047.90159 0.12096
1046.61583 0.12275
1045.33006 0.12453
1044.04429 0.12628
1042.75852 0.12798
1041.47275 0.12967
1040.18698 0.13142
1038.90121 0.13329
1037.61544 0.13528
1036.32967 0.13736
1035.04391 0.13941
1033.75814 0.14134
1032.47237 0.14308
1031.18660 0.14459
1029.90083 0.14594
1028.61506 0.14722
1027.32929 0.14845
1026.04352 0.14956
1024.75775 0.15050
1023.47199 0.15129
1022.18622 0.15195
1020.90045 0.15249
1019.61468 0.15289
1018.32891 0.15307
1017.04314 0.15302
1015.75737 0.15279
1014.47160 0.15244
1013.18584 0.15192
1011.90007 0.15110
1010.61430 0.14991
1009.32853 0.14840
1008.04276 0.14663
1006.75699 0.14468
1005.47122 0.14259
1004.18545 0.14037
1002.89968 0.13798
1001.61392 0.13539
1000.32815 0.13262
999.04238 0.12974
997.75661 0.12678
996.47084 0.12371
995.18507 0.12054
993.89930 0.11728
992.61353 0.11393
991.32777 0.11049
990.04200 0.10701
988.75623 0.10362
987.47046 0.10044
986.18469 0.09746
984.89892 0.09458
983.61315 0.09171
982.32738 0.08884
981.04161 0.08602
979.75585 0.08331
978.47008 0.08078
977.18431 0.07845
975.89854 0.07631
974.61277 0.07440
973.32700 0.07277
972.04123 0.07143
970.75546 0.07038
969.46970 0.06964
968.18393 0.06926
966.89816 0.06928
965.61239 0.06962
964.32662 0.07016
963.04085 0.07068
961.75508 0.07101
960.46931 0.07101
959.18354 0.07064
957.89778 0.06993
956.61201 0.06894
955.32624 0.06778
954.04047 0.06653
952.75470 0.06520
951.46893 0.06376
950.18316 0.06221
948.89739 0.06061
947.61163 0.05905
946.32586 0.05760
945.04009 0.05631
943.75432 0.05512
942.46855 0.05394
941.18278 0.05273
939.89701 0.05152
938.61124 0.05036
937.32547 0.04927
936.03971 0.04822
934.75394 0.04721
933.46817 0.04626
932.18240 0.04540
930.89663 0.04460
929.61086 0.04382
928.32509 0.04304
927.03932 0.04229
925.75356 0.04159
924.46779 0.04097
923.18202 0.04040
921.89625 0.03986
920.61048 0.03930
919.32471 0.03871
918.03894 0.03812
916.75317 0.03764
915.46740 0.03730
914.18164 0.03707
912.89587 0.03683
911.61010 0.03649
910.32433 0.03602
909.03856 0.03547
907.75279 0.03488
906.46702 0.03438
905.18125 0.03404
903.89549 0.03386
902.60972 0.03370
901.32395 0.03345
900.03818 0.03308
898.75241 0.03267
897.46664 0.03227
896.18087 0.03190
894.89510 0.03153
893.60933 0.03123
892.32357 0.03105
891.03780 0.03099
889.75203 0.03104
888.46626 0.03122
887.18049 0.03161
885.89472 0.03231
884.60895 0.03341
883.32318 0.03500
882.03742 0.03698
880.75165 0.03900
879.46588 0.04070
878.18011 0.04189
876.89434 0.04273
875.60857 0.04355
874.32280 0.04457
873.03703 0.04565
871.75126 0.04647
870.46550 0.04677
869.17973 0.04651
867.89396 0.04577
866.60819 0.04462
865.32242 0.04314
864.03665 0.04142
862.75088 0.03968
861.46511 0.03808
860.17935 0.03668
858.89358 0.03550
857.60781 0.03450
856.32204 0.03367
855.03627 0.03295
853.75050 0.03234
852.46473 0.03186
851.17896 0.03150
849.89319 0.03122
848.60743 0.03098
847.32166 0.03074
846.03589 0.03052
844.75012 0.03029
843.46435 0.03001
842.17858 0.02965
840.89281 0.02928
839.60704 0.02898
838.32128 0.02879
837.03551 0.02864
835.74974 0.02846
834.46397 0.02821
833.17820 0.02796
831.89243 0.02775
830.60666 0.02763
829.32089 0.02758
828.03512 0.02757
826.74936 0.02750
825.46359 0.02734
824.17782 0.02718
822.89205 0.02712
821.60628 0.02720
820.32051 0.02731
819.03474 0.02732
817.74897 0.02719
816.46321 0.02697
815.17744 0.02677
813.89167 0.02664
812.60590 0.02662
811.32013 0.02668
810.03436 0.02671
808.74859 0.02665
807.46282 0.02649
806.17705 0.02632
804.89129 0.02621
803.60552 0.02619
802.31975 0.02626
801.03398 0.02640
799.74821 0.02655
798.46244 0.02660
797.17667 0.02650
795.89090 0.02629
794.60513 0.02610
793.31937 0.02603
792.03360 0.02608
790.74783 0.02619
789.46206 0.02628
788.17629 0.02631
786.89052 0.02633
785.60475 0.02636
784.31898 0.02644
783.03322 0.02650
781.74745 0.02646
780.46168 0.02633
779.17591 0.02616
777.89014 0.02602
776.60437 0.02593
775.31860 0.02589
774.03283 0.02589
772.74706 0.02590
771.46130 0.02592
770.17553 0.02599
768.88976 0.02614
767.60399 0.02630
766.31822 0.02637
765.03245 0.02635
763.74668 0.02632
762.46091 0.02634
761.17515 0.02639
759.88938 0.02642
758.60361 0.02641
757.31784 0.02636
756.03207 0.02629
754.74630 0.02627
753.46053 0.02637
752.17476 0.02654
750.88899 0.02663
749.60323 0.02652
748.31746 0.02626
747.03169 0.02605
745.74592 0.02596
744.46015 0.02596
743.17438 0.02597
741.88861 0.02595
740.60284 0.02589
739.31708 0.02582
738.03131 0.02577
736.74554 0.02576
735.45977 0.02582
734.17400 0.02596
732.88823 0.02616
731.60246 0.02632
730.31669 0.02642
729.03092 0.02648
727.74516 0.02655
726.45939 0.02657
725.17362 0.02651
723.88785 0.02663
722.60208 0.02635
721.31631 0.02618
720.03054 0.02620
718.74477 0.02627
717.45901 0.02634
716.17324 0.02638
714.88747 0.02639
713.60170 0.02639
712.31593 0.02641
711.03016 0.02644
709.74439 0.02646
708.45862 0.02644
707.17285 0.02641
705.88709 0.02640
704.60132 0.02641
703.31555 0.02644
702.02978 0.02646
700.74401 0.02644
699.45824 0.02637
698.17247 0.02627
696.88670 0.02616
695.60094 0.02610
694.31517 0.02609
693.02940 0.02613
691.74363 0.02617
690.45786 0.02619
689.17209 0.02622
687.88632 0.02623
686.60055 0.02622
685.31478 0.02618
684.02902 0.02608
682.74325 0.02597
681.45748 0.02585
680.17171 0.02572
678.88594 0.02563
677.60017 0.02561
676.31440 0.02573
675.02863 0.02594
673.74287 0.02617
672.45710 0.02637
671.17133 0.02654
669.88556 0.02669
668.59979 0.02678
667.31402 0.02673
666.02825 0.02667
664.74248 0.02661
663.45671 0.02654
662.17095 0.02650
660.88518 0.02647
659.59941 0.02641
658.31364 0.02628
657.02787 0.02603
655.74210 0.02569
654.45633 0.02536
653.17056 0.02513
651.88480 0.02498
650.59903 0.02487
649.31326 0.02479
648.02749 0.02471
646.74172 0.02464
645.45595 0.02458
644.17018 0.02449
642.88441 0.02436
641.59864 0.02421
640.31288 0.02407
639.02711 0.02400
637.74134 0.02402
636.45557 0.02413
635.16980 0.02432
633.88403 0.02461
632.59826 0.02485
631.31249 0.02443
630.02673 0.02327
628.74096 0.02401
627.45519 0.02615
626.16942 0.02845
624.88365 0.03057
623.59788 0.03227
622.31211 0.03353
621.02634 0.03467
619.74057 0.03601
618.45481 0.03756
617.16904 0.03903
615.88327 0.04027
614.59750 0.04152
613.31173 0.04331
612.02596 0.04591
610.74019 0.04908
609.45442 0.05258
608.16866 0.05651
606.88289 0.06078
605.59712 0.06467
604.31135 0.06740
603.02558 0.06877
601.73981 0.06899
600.45404 0.06831
599.16827 0.06699
597.88250 0.06535
596.59674 0.06366
595.31097 0.06200
594.02520 0.06034
592.73943 0.05871
591.45366 0.05728
590.16789 0.05620
588.88212 0.05558
587.59635 0.05542
586.31059 0.05572
585.02482 0.05648
583.73905 0.05766
582.45328 0.05917
581.16751 0.06088
579.88174 0.06265
578.59597 0.06438
577.31020 0.06602
576.02443 0.06758
574.73867 0.06909
573.45290 0.07058
572.16713 0.07208
570.88136 0.07367
569.59559 0.07548
568.30982 0.07757
567.02405 0.07987
565.73828 0.08224
564.45251 0.08450
563.16675 0.08639
561.88098 0.08755
560.59521 0.08771
559.30944 0.08679
558.02367 0.08495
556.73790 0.08247
555.45213 0.07956
554.16636 0.07638
552.88060 0.07303
551.59483 0.06966
550.30906 0.06635
549.02329 0.06317
547.73752 0.06022
546.45175 0.05761
545.16598 0.05541
543.88021 0.05358
542.59444 0.05194
541.30868 0.05036
540.02291 0.04878
538.73714 0.04723
537.45137 0.04576
536.16560 0.04442
534.87983 0.04321
533.59406 0.04217
532.30829 0.04130
531.02253 0.04051
529.73676 0.03971
528.45099 0.03881
527.16522 0.03788
525.87945 0.03706
524.59368 0.03645
523.30791 0.03602
522.02214 0.03563
520.73637 0.03512
519.45061 0.03442
518.16484 0.03361
516.87907 0.03285
515.59330 0.03226
514.30753 0.03181
513.02176 0.03144
511.73599 0.03106
510.45022 0.03069
509.16446 0.03037
507.87869 0.03010
506.59292 0.02980
505.30715 0.02943
504.02138 0.02897
502.73561 0.02849
501.44984 0.02802
500.16407 0.02758
498.87830 0.02714
497.59254 0.02670
496.30677 0.02627
495.02100 0.02592
493.73523 0.02572
492.44946 0.02565
491.16369 0.02560
489.87792 0.02544
488.59215 0.02516
487.30639 0.02485
486.02062 0.02465
484.73485 0.02455
483.44908 0.02449
482.16331 0.02441
480.87754 0.02435
479.59177 0.02438
478.30600 0.02455
477.02023 0.02479
475.73447 0.02503
474.44870 0.02521
473.16293 0.02531
471.87716 0.02532
470.59139 0.02520
469.30562 0.02497
468.01985 0.02468
466.73408 0.02438
465.44832 0.02408
464.16255 0.02381
462.87678 0.02358
461.59101 0.02342
460.30524 0.02329
459.01947 0.02312
457.73370 0.02284
456.44793 0.02245
455.16216 0.02199
453.87640 0.02156
452.59063 0.02125
451.30486 0.02106
450.01909 0.02093
448.73332 0.02076
447.44755 0.02050
446.16178 0.02024
444.87601 0.02004
443.59025 0.01990
442.30448 0.01980
441.01871 0.01971
439.73294 0.01960
438.44717 0.01948
437.16140 0.01932
435.87563 0.01914
434.58986 0.01898
433.30409 0.01886
432.01833 0.01879
430.73256 0.01871
429.44679 0.01859
428.16102 0.01843
426.87525 0.01826
425.58948 0.01808
424.30371 0.01791
423.01794 0.01773
421.73218 0.01759
420.44641 0.01748
419.16064 0.01738
417.87487 0.01725
416.58910 0.01710
415.30333 0.01698
414.01756 0.01692
412.73179 0.01691
411.44602 0.01692
410.16026 0.01691
408.87449 0.01688
407.58872 0.01686
406.30295 0.01684
405.01718 0.01682
403.73141 0.01679
402.44564 0.01676
401.15987 0.01675
399.87411 0.01673
