3997.45528	0.04646
3996.16951	0.04668
3994.88374	0.04706
3993.59798	0.04726
3992.31221	0.04703
3991.02644	0.04640
3989.74067	0.04559
3988.45490	0.04485
3987.16913	0.04457
3985.88336	0.04507
3984.59759	0.04628
3983.31183	0.04766
3982.02606	0.04862
3980.74029	0.04903
3979.45452	0.04915
3978.16875	0.04927
3976.88298	0.04947
3975.59721	0.04967
3974.31144	0.04964
3973.02567	0.04901
3971.73991	0.04771
3970.45414	0.04616
3969.16837	0.04515
3967.88260	0.04518
3966.59683	0.04614
3965.31106	0.04742
3964.02529	0.04839
3962.73952	0.04890
3961.45376	0.04911
3960.16799	0.04900
3958.88222	0.04836
3957.59645	0.04729
3956.31068	0.04638
3955.02491	0.04622
3953.73914	0.04680
3952.45337	0.04762
3951.16760	0.04813
3949.88184	0.04804
3948.59607	0.04729
3947.31030	0.04604
3946.02453	0.04474
3944.73876	0.04399
3943.45299	0.04418
3942.16722	0.04523
3940.88145	0.04667
3939.59569	0.04784
3938.30992	0.04824
3937.02415	0.04779
3935.73838	0.04696
3934.45261	0.04642
3933.16684	0.04649
3931.88107	0.04706
3930.59530	0.04783
3929.30953	0.04865
3928.02377	0.04943
3926.73800	0.04996
3925.45223	0.04995
3924.16646	0.04944
3922.88069	0.04892
3921.59492	0.04886
3920.30915	0.04918
3919.02338	0.04939
3917.73762	0.04927
3916.45185	0.04897
3915.16608	0.04870
3913.88031	0.04839
3912.59454	0.04786
3911.30877	0.04710
3910.02300	0.04628
3908.73723	0.04564
3907.45146	0.04533
3906.16570	0.04528
3904.87993	0.04524
3903.59416	0.04511
3902.30839	0.04505
3901.02262	0.04527
3899.73685	0.04575
3898.45108	0.04629
3897.16531	0.04672
3895.87955	0.04691
3894.59378	0.04666
3893.30801	0.04588
3892.02224	0.04464
3890.73647	0.04320
3889.45070	0.04200
3888.16493	0.04150
3886.87916	0.04183
3885.59339	0.04257
3884.30763	0.04312
3883.02186	0.04321
3881.73609	0.04306
3880.45032	0.04306
3879.16455	0.04344
3877.87878	0.04421
3876.59301	0.04523
3875.30724	0.04629
3874.02148	0.04709
3872.73571	0.04734
3871.44994	0.04682
3870.16417	0.04555
3868.87840	0.04401
3867.59263	0.04286
3866.30686	0.04243
3865.02109	0.04244
3863.73532	0.04255
3862.44956	0.04278
3861.16379	0.04324
3859.87802	0.04389
3858.59225	0.04455
3857.30648	0.04508
3856.02071	0.04540
3854.73494	0.04532
3853.44917	0.04465
3852.16341	0.04366
3850.87764	0.04293
3849.59187	0.04283
3848.30610	0.04312
3847.02033	0.04324
3845.73456	0.04283
3844.44879	0.04213
3843.16302	0.04186
3841.87725	0.04252
3840.59149	0.04386
3839.30572	0.04502
3838.01995	0.04532
3836.73418	0.04480
3835.44841	0.04410
3834.16264	0.04369
3832.87687	0.04348
3831.59110	0.04327
3830.30534	0.04312
3829.01957	0.04317
3827.73380	0.04320
3826.44803	0.04277
3825.16226	0.04179
3823.87649	0.04081
3822.59072	0.04036
3821.30495	0.04050
3820.01918	0.04098
3818.73342	0.04164
3817.44765	0.04235
3816.16188	0.04290
3814.87611	0.04336
3813.59034	0.04401
3812.30457	0.04467
3811.01880	0.04473
3809.73303	0.04387
3808.44726	0.04254
3807.16150	0.04150
3805.87573	0.04126
3804.58996	0.04179
3803.30419	0.04256
3802.01842	0.04278
3800.73265	0.04215
3799.44688	0.04115
3798.16111	0.04048
3796.87535	0.04037
3795.58958	0.04073
3794.30381	0.04137
3793.01804	0.04199
3791.73227	0.04228
3790.44650	0.04216
3789.16073	0.04198
3787.87496	0.04217
3786.58919	0.04290
3785.30343	0.04388
3784.01766	0.04454
3782.73189	0.04453
3781.44612	0.04399
3780.16035	0.04338
3778.87458	0.04304
3777.58881	0.04293
3776.30304	0.04278
3775.01728	0.04236
3773.73151	0.04165
3772.44574	0.04090
3771.15997	0.04044
3769.87420	0.04056
3768.58843	0.04133
3767.30266	0.04245
3766.01689	0.04333
3764.73112	0.04349
3763.44536	0.04296
3762.15959	0.04219
3760.87382	0.04152
3759.58805	0.04100
3758.30228	0.04048
3757.01651	0.03986
3755.73074	0.03932
3754.44497	0.03912
3753.15921	0.03926
3751.87344	0.03949
3750.58767	0.03972
3749.30190	0.04006
3748.01613	0.04064
3746.73036	0.04131
3745.44459	0.04150
3744.15882	0.04072
3742.87305	0.03939
3741.58729	0.03852
3740.30152	0.03844
3739.01575	0.03873
3737.72998	0.03906
3736.44421	0.03958
3735.15844	0.04051
3733.87267	0.04174
3732.58690	0.04283
3731.30114	0.04340
3730.01537	0.04336
3728.72960	0.04288
3727.44383	0.04213
3726.15806	0.04132
3724.87229	0.04073
3723.58652	0.04048
3722.30075	0.04025
3721.01498	0.03968
3719.72922	0.03885
3718.44345	0.03821
3717.15768	0.03805
3715.87191	0.03814
3714.58614	0.03817
3713.30037	0.03810
3712.01460	0.03820
3710.72883	0.03859
3709.44307	0.03919
3708.15730	0.03974
3706.87153	0.04003
3705.58576	0.03991
3704.29999	0.03940
3703.01422	0.03876
3701.72845	0.03834
3700.44268	0.03828
3699.15691	0.03845
3697.87115	0.03866
3696.58538	0.03896
3695.29961	0.03958
3694.01384	0.04047
3692.72807	0.04108
3691.44230	0.04111
3690.15653	0.04074
3688.87076	0.04021
3687.58500	0.03966
3686.29923	0.03929
3685.01346	0.03905
3683.72769	0.03875
3682.44192	0.03836
3681.15615	0.03799
3679.87038	0.03781
3678.58461	0.03786
3677.29884	0.03808
3676.01308	0.03843
3674.72731	0.03893
3673.44154	0.03973
3672.15577	0.04095
3670.87000	0.04213
3669.58423	0.04253
3668.29846	0.04186
3667.01269	0.04049
3665.72693	0.03913
3664.44116	0.03837
3663.15539	0.03836
3661.86962	0.03884
3660.58385	0.03937
3659.29808	0.03967
3658.01231	0.03971
3656.72654	0.03969
3655.44077	0.03988
3654.15501	0.04042
3652.86924	0.04124
3651.58347	0.04209
3650.29770	0.04268
3649.01193	0.04290
3647.72616	0.04273
3646.44039	0.04236
3645.15462	0.04212
3643.86886	0.04234
3642.58309	0.04307
3641.29732	0.04402
3640.01155	0.04469
3638.72578	0.04472
3637.44001	0.04416
3636.15424	0.04352
3634.86847	0.04335
3633.58270	0.04367
3632.29694	0.04396
3631.01117	0.04371
3629.72540	0.04285
3628.43963	0.04187
3627.15386	0.04134
3625.86809	0.04148
3624.58232	0.04195
3623.29655	0.04246
3622.01079	0.04314
3620.72502	0.04427
3619.43925	0.04580
3618.15348	0.04736
3616.86771	0.04848
3615.58194	0.04879
3614.29617	0.04817
3613.01040	0.04697
3611.72463	0.04591
3610.43887	0.04550
3609.15310	0.04568
3607.86733	0.04588
3606.58156	0.04565
3605.29579	0.04506
3604.01002	0.04465
3602.72425	0.04488
3601.43848	0.04570
3600.15272	0.04661
3598.86695	0.04706
3597.58118	0.04688
3596.29541	0.04632
3595.00964	0.04599
3593.72387	0.04636
3592.43810	0.04731
3591.15233	0.04824
3589.86656	0.04867
3588.58080	0.04856
3587.29503	0.04817
3586.00926	0.04795
3584.72349	0.04818
3583.43772	0.04877
3582.15195	0.04932
3580.86618	0.04942
3579.58041	0.04891
3578.29464	0.04804
3577.00888	0.04730
3575.72311	0.04705
3574.43734	0.04742
3573.15157	0.04830
3571.86580	0.04936
3570.58003	0.05023
3569.29426	0.05071
3568.00849	0.05094
3566.72273	0.05130
3565.43696	0.05204
3564.15119	0.05293
3562.86542	0.05350
3561.57965	0.05350
3560.29388	0.05316
3559.00811	0.05287
3557.72234	0.05281
3556.43657	0.05303
3555.15081	0.05346
3553.86504	0.05389
3552.57927	0.05393
3551.29350	0.05342
3550.00773	0.05271
3548.72196	0.05247
3547.43619	0.05304
3546.15042	0.05413
3544.86466	0.05514
3543.57889	0.05567
3542.29312	0.05572
3541.00735	0.05557
3539.72158	0.05551
3538.43581	0.05561
3537.15004	0.05582
3535.86427	0.05606
3534.57850	0.05629
3533.29274	0.05650
3532.00697	0.05663
3530.72120	0.05658
3529.43543	0.05632
3528.14966	0.05610
3526.86389	0.05626
3525.57812	0.05683
3524.29235	0.05743
3523.00659	0.05762
3521.72082	0.05733
3520.43505	0.05687
3519.14928	0.05667
3517.86351	0.05699
3516.57774	0.05773
3515.29197	0.05852
3514.00620	0.05897
3512.72043	0.05905
3511.43467	0.05896
3510.14890	0.05877
3508.86313	0.05841
3507.57736	0.05786
3506.29159	0.05733
3505.00582	0.05707
3503.72005	0.05726
3502.43428	0.05797
3501.14852	0.05908
3499.86275	0.06022
3498.57698	0.06094
3497.29121	0.06106
3496.00544	0.06071
3494.71967	0.06017
3493.43390	0.05968
3492.14813	0.05946
3490.86236	0.05975
3489.57660	0.06057
3488.29083	0.06160
3487.00506	0.06235
3485.71929	0.06258
3484.43352	0.06238
3483.14775	0.06197
3481.86198	0.06147
3480.57621	0.06098
3479.29045	0.06068
3478.00468	0.06077
3476.71891	0.06126
3475.43314	0.06192
3474.14737	0.06237
3472.86160	0.06243
3471.57583	0.06224
3470.29006	0.06220
3469.00429	0.06256
3467.71853	0.06321
3466.43276	0.06389
3465.14699	0.06440
3463.86122	0.06459
3462.57545	0.06437
3461.28968	0.06377
3460.00391	0.06310
3458.71814	0.06265
3457.43238	0.06251
3456.14661	0.06260
3454.86084	0.06291
3453.57507	0.06348
3452.28930	0.06420
3451.00353	0.06488
3449.71776	0.06540
3448.43199	0.06574
3447.14622	0.06584
3445.86046	0.06556
3444.57469	0.06496
3443.28892	0.06432
3442.00315	0.06398
3440.71738	0.06413
3439.43161	0.06467
3438.14584	0.06536
3436.86007	0.06597
3435.57431	0.06645
3434.28854	0.06684
3433.00277	0.06713
3431.71700	0.06726
3430.43123	0.06717
3429.14546	0.06698
3427.85969	0.06686
3426.57392	0.06691
3425.28815	0.06706
3424.00239	0.06713
3422.71662	0.06694
3421.43085	0.06650
3420.14508	0.06598
3418.85931	0.06565
3417.57354	0.06569
3416.28777	0.06600
3415.00200	0.06642
3413.71624	0.06679
3412.43047	0.06702
3411.14470	0.06711
3409.85893	0.06712
3408.57316	0.06720
3407.28739	0.06741
3406.00162	0.06768
3404.71585	0.06790
3403.43008	0.06798
3402.14432	0.06797
3400.85855	0.06796
3399.57278	0.06802
3398.28701	0.06811
3397.00124	0.06815
3395.71547	0.06803
3394.42970	0.06777
3393.14393	0.06752
3391.85817	0.06752
3390.57240	0.06791
3389.28663	0.06853
3388.00086	0.06896
3386.71509	0.06891
3385.42932	0.06861
3384.14355	0.06858
3382.85778	0.06908
3381.57201	0.06981
3380.28625	0.07018
3379.00048	0.06993
3377.71471	0.06925
3376.42894	0.06856
3375.14317	0.06813
3373.85740	0.06794
3372.57163	0.06794
3371.28586	0.06807
3370.00010	0.06831
3368.71433	0.06859
3367.42856	0.06883
3366.14279	0.06910
3364.85702	0.06948
3363.57125	0.06992
3362.28548	0.07021
3360.99971	0.07018
3359.71394	0.06990
3358.42818	0.06960
3357.14241	0.06937
3355.85664	0.06913
3354.57087	0.06881
3353.28510	0.06859
3351.99933	0.06870
3350.71356	0.06918
3349.42779	0.06978
3348.14202	0.07015
3346.85626	0.07007
3345.57049	0.06953
3344.28472	0.06868
3342.99895	0.06780
3341.71318	0.06727
3340.42741	0.06734
3339.14164	0.06789
3337.85587	0.06846
3336.57011	0.06865
3335.28434	0.06846
3333.99857	0.06825
3332.71280	0.06828
3331.42703	0.06841
3330.14126	0.06839
3328.85549	0.06821
3327.56972	0.06809
3326.28395	0.06816
3324.99819	0.06833
3323.71242	0.06853
3322.42665	0.06876
3321.14088	0.06898
3319.85511	0.06903
3318.56934	0.06883
3317.28357	0.06847
3315.99780	0.06813
3314.71204	0.06793
3313.42627	0.06785
3312.14050	0.06779
3310.85473	0.06767
3309.56896	0.06752
3308.28319	0.06749
3306.99742	0.06768
3305.71165	0.06799
3304.42588	0.06820
3303.14012	0.06816
3301.85435	0.06784
3300.56858	0.06734
3299.28281	0.06682
3297.99704	0.06652
3296.71127	0.06655
3295.42550	0.06676
3294.13973	0.06694
3292.85397	0.06704
3291.56820	0.06718
3290.28243	0.06744
3288.99666	0.06776
3287.71089	0.06809
3286.42512	0.06834
3285.13935	0.06839
3283.85358	0.06809
3282.56781	0.06744
3281.28205	0.06664
3279.99628	0.06589
3278.71051	0.06527
3277.42474	0.06483
3276.13897	0.06464
3274.85320	0.06474
3273.56743	0.06506
3272.28166	0.06557
3270.99590	0.06625
3269.71013	0.06699
3268.42436	0.06750
3267.13859	0.06763
3265.85282	0.06755
3264.56705	0.06747
3263.28128	0.06736
3261.99551	0.06701
3260.70974	0.06639
3259.42398	0.06581
3258.13821	0.06568
3256.85244	0.06610
3255.56667	0.06680
3254.28090	0.06734
3252.99513	0.06742
3251.70936	0.06707
3250.42359	0.06662
3249.13783	0.06636
3247.85206	0.06637
3246.56629	0.06639
3245.28052	0.06613
3243.99475	0.06555
3242.70898	0.06491
3241.42321	0.06458
3240.13744	0.06462
3238.85167	0.06480
3237.56591	0.06479
3236.28014	0.06449
3234.99437	0.06416
3233.70860	0.06414
3232.42283	0.06450
3231.13706	0.06497
3229.85129	0.06520
3228.56552	0.06507
3227.27976	0.06477
3225.99399	0.06453
3224.70822	0.06440
3223.42245	0.06434
3222.13668	0.06437
3220.85091	0.06454
3219.56514	0.06472
3218.27937	0.06466
3216.99360	0.06428
3215.70784	0.06390
3214.42207	0.06394
3213.13630	0.06445
3211.85053	0.06511
3210.56476	0.06553
3209.27899	0.06562
3207.99322	0.06551
3206.70745	0.06542
3205.42169	0.06547
3204.13592	0.06560
3202.85015	0.06560
3201.56438	0.06531
3200.27861	0.06475
3198.99284	0.06404
3197.70707	0.06332
3196.42130	0.06275
3195.13553	0.06245
3193.84977	0.06238
3192.56400	0.06239
3191.27823	0.06240
3189.99246	0.06256
3188.70669	0.06302
3187.42092	0.06367
3186.13515	0.06421
3184.84938	0.06436
3183.56362	0.06413
3182.27785	0.06367
3180.99208	0.06310
3179.70631	0.06255
3178.42054	0.06220
3177.13477	0.06213
3175.84900	0.06223
3174.56323	0.06226
3173.27746	0.06221
3171.99170	0.06221
3170.70593	0.06232
3169.42016	0.06240
3168.13439	0.06229
3166.84862	0.06206
3165.56285	0.06191
3164.27708	0.06193
3162.99131	0.06200
3161.70555	0.06197
3160.41978	0.06177
3159.13401	0.06151
3157.84824	0.06132
3156.56247	0.06125
3155.27670	0.06131
3153.99093	0.06144
3152.70516	0.06150
3151.41939	0.06141
3150.13363	0.06125
3148.84786	0.06121
3147.56209	0.06129
3146.27632	0.06130
3144.99055	0.06107
3143.70478	0.06066
3142.41901	0.06025
3141.13324	0.05995
3139.84748	0.05979
3138.56171	0.05979
3137.27594	0.05997
3135.99017	0.06021
3134.70440	0.06031
3133.41863	0.06017
3132.13286	0.05996
3130.84709	0.05994
3129.56132	0.06016
3128.27556	0.06036
3126.98979	0.06026
3125.70402	0.05989
3124.41825	0.05947
3123.13248	0.05921
3121.84671	0.05902
3120.56094	0.05875
3119.27517	0.05836
3117.98940	0.05799
3116.70364	0.05777
3115.41787	0.05770
3114.13210	0.05767
3112.84633	0.05757
3111.56056	0.05745
3110.27479	0.05748
3108.98902	0.05774
3107.70325	0.05805
3106.41749	0.05805
3105.13172	0.05767
3103.84595	0.05712
3102.56018	0.05669
3101.27441	0.05643
3099.98864	0.05629
3098.70287	0.05631
3097.41710	0.05654
3096.13133	0.05689
3094.84557	0.05716
3093.55980	0.05722
3092.27403	0.05708
3090.98826	0.05683
3089.70249	0.05654
3088.41672	0.05624
3087.13095	0.05601
3085.84518	0.05598
3084.55942	0.05618
3083.27365	0.05646
3081.98788	0.05661
3080.70211	0.05654
3079.41634	0.05636
3078.13057	0.05622
3076.84480	0.05623
3075.55903	0.05639
3074.27326	0.05655
3072.98750	0.05655
3071.70173	0.05631
3070.41596	0.05594
3069.13019	0.05561
3067.84442	0.05544
3066.55865	0.05541
3065.27288	0.05549
3063.98711	0.05563
3062.70135	0.05574
3061.41558	0.05570
3060.12981	0.05548
3058.84404	0.05521
3057.55827	0.05494
3056.27250	0.05458
3054.98673	0.05411
3053.70096	0.05368
3052.41519	0.05349
3051.12943	0.05363
3049.84366	0.05406
3048.55789	0.05465
3047.27212	0.05516
3045.98635	0.05540
3044.70058	0.05528
3043.41481	0.05491
3042.12904	0.05444
3040.84328	0.05400
3039.55751	0.05374
3038.27174	0.05376
3036.98597	0.05401
3035.70020	0.05424
3034.41443	0.05423
3033.12866	0.05397
3031.84289	0.05365
3030.55712	0.05340
3029.27136	0.05318
3027.98559	0.05297
3026.69982	0.05282
3025.41405	0.05279
3024.12828	0.05286
3022.84251	0.05295
3021.55674	0.05296
3020.27097	0.05277
3018.98521	0.05227
3017.69944	0.05149
3016.41367	0.05065
3015.12790	0.05001
3013.84213	0.04984
3012.55636	0.05021
3011.27059	0.05095
3009.98482	0.05173
3008.69905	0.05221
3007.41329	0.05229
3006.12752	0.05203
3004.84175	0.05156
3003.55598	0.05101
3002.27021	0.05049
3000.98444	0.05011
2999.69867	0.04989
2998.41290	0.04982
2997.12714	0.04981
2995.84137	0.04990
2994.55560	0.05012
2993.26983	0.05044
2991.98406	0.05072
2990.69829	0.05089
2989.41252	0.05091
2988.12675	0.05074
2986.84098	0.05041
2985.55522	0.05016
2984.26945	0.05025
2982.98368	0.05072
2981.69791	0.05132
2980.41214	0.05174
2979.12637	0.05186
2977.84060	0.05168
2976.55483	0.05135
2975.26907	0.05106
2973.98330	0.05108
2972.69753	0.05161
2971.41176	0.05269
2970.12599	0.05405
2968.84022	0.05514
2967.55445	0.05560
2966.26868	0.05552
2964.98291	0.05535
2963.69715	0.05545
2962.41138	0.05582
2961.12561	0.05633
2959.83984	0.05688
2958.55407	0.05739
2957.26830	0.05778
2955.98253	0.05794
2954.69676	0.05789
2953.41100	0.05771
2952.12523	0.05748
2950.83946	0.05722
2949.55369	0.05700
2948.26792	0.05688
2946.98215	0.05688
2945.69638	0.05691
2944.41061	0.05692
2943.12484	0.05697
2941.83908	0.05708
2940.55331	0.05724
2939.26754	0.05746
2937.98177	0.05780
2936.69600	0.05829
2935.41023	0.05879
2934.12446	0.05916
2932.83869	0.05934
2931.55293	0.05943
2930.26716	0.05955
2928.98139	0.05976
2927.69562	0.06006
2926.40985	0.06030
2925.12408	0.06031
2923.83831	0.06001
2922.55254	0.05954
2921.26677	0.05912
2919.98101	0.05890
2918.69524	0.05884
2917.40947	0.05880
2916.12370	0.05866
2914.83793	0.05843
2913.55216	0.05817
2912.26639	0.05798
2910.98062	0.05781
2909.69486	0.05752
2908.40909	0.05703
2907.12332	0.05640
2905.83755	0.05587
2904.55178	0.05558
2903.26601	0.05552
2901.98024	0.05551
2900.69447	0.05539
2899.40870	0.05507
2898.12294	0.05462
2896.83717	0.05413
2895.55140	0.05364
2894.26563	0.05312
2892.97986	0.05259
2891.69409	0.05215
2890.40832	0.05190
2889.12255	0.05184
2887.83678	0.05179
2886.55102	0.05162
2885.26525	0.05141
2883.97948	0.05134
2882.69371	0.05144
2881.40794	0.05158
2880.12217	0.05161
2878.83640	0.05151
2877.55063	0.05137
2876.26487	0.05128
2874.97910	0.05127
2873.69333	0.05138
2872.40756	0.05160
2871.12179	0.05179
2869.83602	0.05178
2868.55025	0.05155
2867.26448	0.05129
2865.97871	0.05119
2864.69295	0.05124
2863.40718	0.05125
2862.12141	0.05107
2860.83564	0.05076
2859.54987	0.05047
2858.26410	0.05026
2856.97833	0.05009
2855.69256	0.04992
2854.40680	0.04980
2853.12103	0.04976
2851.83526	0.04973
2850.54949	0.04955
2849.26372	0.04919
2847.97795	0.04874
2846.69218	0.04834
2845.40641	0.04808
2844.12064	0.04797
2842.83488	0.04787
2841.54911	0.04759
2840.26334	0.04699
2838.97757	0.04626
2837.69180	0.04572
2836.40603	0.04553
2835.12026	0.04547
2833.83449	0.04520
2832.54873	0.04465
2831.26296	0.04409
2829.97719	0.04380
2828.69142	0.04377
2827.40565	0.04377
2826.11988	0.04361
2824.83411	0.04330
2823.54834	0.04291
2822.26257	0.04252
2820.97681	0.04220
2819.69104	0.04204
2818.40527	0.04201
2817.11950	0.04200
2815.83373	0.04198
2814.54796	0.04203
2813.26219	0.04217
2811.97642	0.04226
2810.69066	0.04210
2809.40489	0.04171
2808.11912	0.04128
2806.83335	0.04103
2805.54758	0.04104
2804.26181	0.04117
2802.97604	0.04123
2801.69027	0.04114
2800.40450	0.04095
2799.11874	0.04078
2797.83297	0.04065
2796.54720	0.04055
2795.26143	0.04047
2793.97566	0.04046
2792.68989	0.04053
2791.40412	0.04058
2790.11835	0.04044
2788.83259	0.04007
2787.54682	0.03963
2786.26105	0.03936
2784.97528	0.03934
2783.68951	0.03945
2782.40374	0.03958
2781.11797	0.03969
2779.83220	0.03977
2778.54643	0.03978
2777.26067	0.03969
2775.97490	0.03955
2774.68913	0.03946
2773.40336	0.03945
2772.11759	0.03952
2770.83182	0.03958
2769.54605	0.03960
2768.26028	0.03955
2766.97452	0.03948
2765.68875	0.03941
2764.40298	0.03932
2763.11721	0.03919
2761.83144	0.03896
2760.54567	0.03868
2759.25990	0.03847
2757.97413	0.03845
2756.68836	0.03860
2755.40260	0.03878
2754.11683	0.03881
2752.83106	0.03862
2751.54529	0.03831
2750.25952	0.03810
2748.97375	0.03815
2747.68798	0.03837
2746.40221	0.03852
2745.11645	0.03845
2743.83068	0.03824
2742.54491	0.03808
2741.25914	0.03809
2739.97337	0.03824
2738.68760	0.03843
2737.40183	0.03856
2736.11606	0.03857
2734.83029	0.03842
2733.54453	0.03809
2732.25876	0.03763
2730.97299	0.03722
2729.68722	0.03707
2728.40145	0.03724
2727.11568	0.03748
2725.82991	0.03747
2724.54414	0.03711
2723.25838	0.03663
2721.97261	0.03633
2720.68684	0.03635
2719.40107	0.03661
2718.11530	0.03692
2716.82953	0.03705
2715.54376	0.03691
2714.25799	0.03656
2712.97222	0.03619
2711.68646	0.03598
2710.40069	0.03599
2709.11492	0.03612
2707.82915	0.03631
2706.54338	0.03647
2705.25761	0.03655
2703.97184	0.03652
2702.68607	0.03639
2701.40031	0.03616
2700.11454	0.03590
2698.82877	0.03568
2697.54300	0.03558
2696.25723	0.03559
2694.97146	0.03566
2693.68569	0.03574
2692.39992	0.03580
2691.11415	0.03584
2689.82839	0.03585
2688.54262	0.03576
2687.25685	0.03557
2685.97108	0.03532
2684.68531	0.03514
2683.39954	0.03514
2682.11377	0.03533
2680.82800	0.03557
2679.54224	0.03566
2678.25647	0.03558
2676.97070	0.03545
2675.68493	0.03538
2674.39916	0.03534
2673.11339	0.03529
2671.82762	0.03521
2670.54185	0.03514
2669.25608	0.03507
2667.97032	0.03504
2666.68455	0.03509
2665.39878	0.03523
2664.11301	0.03543
2662.82724	0.03559
2661.54147	0.03564
2660.25570	0.03556
2658.96993	0.03539
2657.68417	0.03519
2656.39840	0.03506
2655.11263	0.03501
2653.82686	0.03495
2652.54109	0.03476
2651.25532	0.03443
2649.96955	0.03409
2648.68378	0.03388
2647.39801	0.03376
2646.11225	0.03364
2644.82648	0.03349
2643.54071	0.03338
2642.25494	0.03340
2640.96917	0.03351
2639.68340	0.03354
2638.39763	0.03341
2637.11186	0.03316
2635.82609	0.03298
2634.54033	0.03299
2633.25456	0.03306
2631.96879	0.03295
2630.68302	0.03255
2629.39725	0.03204
2628.11148	0.03170
2626.82571	0.03159
2625.53994	0.03163
2624.25418	0.03178
2622.96841	0.03206
2621.68264	0.03233
2620.39687	0.03224
2619.11110	0.03166
2617.82533	0.03087
2616.53956	0.03027
2615.25379	0.02999
2613.96802	0.02991
2612.68226	0.02993
2611.39649	0.03013
2610.11072	0.03044
2608.82495	0.03066
2607.53918	0.03051
2606.25341	0.02998
2604.96764	0.02926
2603.68187	0.02865
2602.39611	0.02836
2601.11034	0.02844
2599.82457	0.02878
2598.53880	0.02925
2597.25303	0.02970
2595.96726	0.02998
2594.68149	0.02998
2593.39572	0.02967
2592.10995	0.02918
2590.82419	0.02867
2589.53842	0.02834
2588.25265	0.02831
2586.96688	0.02848
2585.68111	0.02852
2584.39534	0.02828
2583.10957	0.02796
2581.82380	0.02790
2580.53804	0.02815
2579.25227	0.02841
2577.96650	0.02834
2576.68073	0.02793
2575.39496	0.02752
2574.10919	0.02742
2572.82342	0.02755
2571.53765	0.02755
2570.25188	0.02720
2568.96612	0.02662
2567.68035	0.02619
2566.39458	0.02617
2565.10881	0.02657
2563.82304	0.02710
2562.53727	0.02737
2561.25150	0.02725
2559.96573	0.02691
2558.67997	0.02663
2557.39420	0.02651
2556.10843	0.02655
2554.82266	0.02678
2553.53689	0.02721
2552.25112	0.02775
2550.96535	0.02821
2549.67958	0.02849
2548.39381	0.02857
2547.10805	0.02851
2545.82228	0.02830
2544.53651	0.02791
2543.25074	0.02734
2541.96497	0.02671
2540.67920	0.02615
2539.39343	0.02582
2538.10766	0.02585
2536.82190	0.02626
2535.53613	0.02686
2534.25036	0.02729
2532.96459	0.02725
2531.67882	0.02683
2530.39305	0.02643
2529.10728	0.02637
2527.82151	0.02661
2526.53574	0.02683
2525.24998	0.02677
2523.96421	0.02652
2522.67844	0.02635
2521.39267	0.02645
2520.10690	0.02672
2518.82113	0.02692
2517.53536	0.02684
2516.24959	0.02642
2514.96383	0.02576
2513.67806	0.02503
2512.39229	0.02446
2511.10652	0.02420
2509.82075	0.02432
2508.53498	0.02478
2507.24921	0.02544
2505.96344	0.02609
2504.67767	0.02655
2503.39191	0.02671
2502.10614	0.02664
2500.82037	0.02649
2499.53460	0.02634
2498.24883	0.02621
2496.96306	0.02605
2495.67729	0.02587
2494.39152	0.02568
2493.10576	0.02546
2491.81999	0.02521
2490.53422	0.02499
2489.24845	0.02482
2487.96268	0.02469
2486.67691	0.02451
2485.39114	0.02430
2484.10537	0.02426
2482.81960	0.02457
2481.53384	0.02518
2480.24807	0.02575
2478.96230	0.02592
2477.67653	0.02563
2476.39076	0.02517
2475.10499	0.02494
2473.81922	0.02511
2472.53345	0.02559
2471.24769	0.02612
2469.96192	0.02643
2468.67615	0.02631
2467.39038	0.02580
2466.10461	0.02515
2464.81884	0.02471
2463.53307	0.02467
2462.24730	0.02498
2460.96153	0.02537
2459.67577	0.02555
2458.39000	0.02546
2457.10423	0.02526
2455.81846	0.02520
2454.53269	0.02537
2453.24692	0.02557
2451.96115	0.02553
2450.67538	0.02518
2449.38962	0.02478
2448.10385	0.02465
2446.81808	0.02479
2445.53231	0.02490
2444.24654	0.02476
2442.96077	0.02443
2441.67500	0.02410
2440.38923	0.02388
2439.10346	0.02381
2437.81770	0.02391
2436.53193	0.02415
2435.24616	0.02445
2433.96039	0.02463
2432.67462	0.02450
2431.38885	0.02406
2430.10308	0.02349
2428.81731	0.02299
2427.53155	0.02268
2426.24578	0.02261
2424.96001	0.02289
2423.67424	0.02351
2422.38847	0.02428
2421.10270	0.02488
2419.81693	0.02506
2418.53116	0.02486
2417.24539	0.02453
2415.95963	0.02437
2414.67386	0.02440
2413.38809	0.02450
2412.10232	0.02454
2410.81655	0.02448
2409.53078	0.02424
2408.24501	0.02374
2406.95924	0.02308
2405.67347	0.02253
2404.38771	0.02230
2403.10194	0.02245
2401.81617	0.02290
2400.53040	0.02352
2399.24463	0.02397
2397.95886	0.02415
2396.67309	0.02398
2395.38732	0.02349
2394.10156	0.02292
2392.81579	0.02249
2391.53002	0.02230
2390.24425	0.02235
2388.95848	0.02268
2387.67271	0.02323
2386.38694	0.02386
2385.10117	0.02448
2383.81540	0.02504
2382.52964	0.02550
2381.24387	0.02580
2379.95810	0.02593
2378.67233	0.02597
2377.38656	0.02602
2376.10079	0.02621
2374.81502	0.02667
2373.52925	0.02729
2372.24349	0.02794
2370.95772	0.02837
2369.67195	0.02873
2368.38618	0.02898
2367.10041	0.02899
2365.81464	0.02868
2364.52887	0.02854
2363.24310	0.02863
2361.95733	0.02883
2360.67157	0.02888
2359.38580	0.02906
2358.10003	0.02914
2356.81426	0.02898
2355.52849	0.02861
2354.24272	0.02810
2352.95695	0.02777
2351.67118	0.02756
2350.38542	0.02744
2349.09965	0.02773
2347.81388	0.02852
2346.52811	0.02896
2345.24234	0.02892
2343.95657	0.02894
2342.67080	0.02929
2341.38503	0.02911
2340.09926	0.02817
2338.81350	0.02775
2337.52773	0.02817
2336.24196	0.02822
2334.95619	0.02790
2333.67042	0.02839
2332.38465	0.02951
2331.09888	0.02936
2329.81311	0.02918
2328.52735	0.03071
2327.24158	0.03128
2325.95581	0.03100
2324.67004	0.03147
2323.38427	0.03071
2322.09850	0.02874
2320.81273	0.02802
2319.52696	0.02711
2318.24119	0.02627
2316.95543	0.02654
2315.66966	0.02627
2314.38389	0.02564
2313.09812	0.02534
2311.81235	0.02465
2310.52658	0.02426
2309.24081	0.02393
2307.95504	0.02340
2306.66928	0.02326
2305.38351	0.02310
2304.09774	0.02298
2302.81197	0.02295
2301.52620	0.02287
2300.24043	0.02299
2298.95466	0.02313
2297.66889	0.02326
2296.38312	0.02338
2295.09736	0.02350
2293.81159	0.02371
2292.52582	0.02387
2291.24005	0.02400
2289.95428	0.02403
2288.66851	0.02390
2287.38274	0.02348
2286.09697	0.02271
2284.81121	0.02172
2283.52544	0.02075
2282.23967	0.02013
2280.95390	0.02004
2279.66813	0.02037
2278.38236	0.02077
2277.09659	0.02092
2275.81082	0.02071
2274.52505	0.02029
2273.23929	0.01982
2271.95352	0.01930
2270.66775	0.01867
2269.38198	0.01810
2268.09621	0.01789
2266.81044	0.01820
2265.52467	0.01886
2264.23890	0.01951
2262.95314	0.01988
2261.66737	0.01994
2260.38160	0.01990
2259.09583	0.01991
2257.81006	0.01978
2256.52429	0.01929
2255.23852	0.01853
2253.95275	0.01800
2252.66698	0.01812
2251.38122	0.01878
2250.09545	0.01924
2248.80968	0.01913
2247.52391	0.01932
2246.23814	0.01926
2244.95237	0.01879
2243.66660	0.01805
2242.38083	0.01752
2241.09507	0.01747
2239.80930	0.01760
2238.52353	0.01740
2237.23776	0.01690
2235.95199	0.01658
2234.66622	0.01668
2233.38045	0.01698
2232.09468	0.01728
2230.80891	0.01764
2229.52315	0.01808
2228.23738	0.01829
2226.95161	0.01797
2225.66584	0.01724
2224.38007	0.01659
2223.09430	0.01639
2221.80853	0.01655
2220.52276	0.01658
2219.23700	0.01598
2217.95123	0.01469
2216.66546	0.01316
2215.37969	0.01196
2214.09392	0.01143
2212.80815	0.01154
2211.52238	0.01201
2210.23661	0.01245
2208.95084	0.01250
2207.66508	0.01222
2206.37931	0.01193
2205.09354	0.01185
2203.80777	0.01182
2202.52200	0.01177
2201.23623	0.01204
2199.95046	0.01291
2198.66469	0.01406
2197.37893	0.01470
2196.09316	0.01433
2194.80739	0.01308
2193.52162	0.01161
2192.23585	0.01063
2190.95008	0.01060
2189.66431	0.01137
2188.37854	0.01229
2187.09277	0.01277
2185.80701	0.01263
2184.52124	0.01200
2183.23547	0.01127
2181.94970	0.01088
2180.66393	0.01099
2179.37816	0.01115
2178.09239	0.01080
2176.80662	0.00996
2175.52085	0.00931
2174.23509	0.00961
2172.94932	0.01087
2171.66355	0.01228
2170.37778	0.01281
2169.09201	0.01219
2167.80624	0.01108
2166.52047	0.01045
2165.23470	0.01071
2163.94894	0.01155
2162.66317	0.01209
2161.37740	0.01142
2160.09163	0.00940
2158.80586	0.00715
2157.52009	0.00614
2156.23432	0.00668
2154.94855	0.00790
2153.66278	0.00902
2152.37702	0.00988
2151.09125	0.01058
2149.80548	0.01090
2148.51971	0.01051
2147.23394	0.00951
2145.94817	0.00858
2144.66240	0.00827
2143.37663	0.00850
2142.09087	0.00878
2140.80510	0.00894
2139.51933	0.00913
2138.23356	0.00940
2136.94779	0.00947
2135.66202	0.00913
2134.37625	0.00871
2133.09048	0.00886
2131.80471	0.00989
2130.51895	0.01124
2129.23318	0.01202
2127.94741	0.01187
2126.66164	0.01128
2125.37587	0.01096
2124.09010	0.01110
2122.80433	0.01131
2121.51856	0.01129
2120.23280	0.01124
2118.94703	0.01158
2117.66126	0.01245
2116.37549	0.01357
2115.08972	0.01453
2113.80395	0.01508
2112.51818	0.01513
2111.23241	0.01478
2109.94664	0.01415
2108.66088	0.01340
2107.37511	0.01265
2106.08934	0.01204
2104.80357	0.01170
2103.51780	0.01168
2102.23203	0.01193
2100.94626	0.01227
2099.66049	0.01238
2098.37473	0.01228
2097.08896	0.01200
2095.80319	0.01174
2094.51742	0.01173
2093.23165	0.01196
2091.94588	0.01217
2090.66011	0.01214
2089.37434	0.01188
2088.08857	0.01167
2086.80281	0.01180
2085.51704	0.01225
2084.23127	0.01270
2082.94550	0.01270
2081.65973	0.01212
2080.37396	0.01117
2079.08819	0.01023
2077.80242	0.00960
2076.51666	0.00928
2075.23089	0.00908
2073.94512	0.00881
2072.65935	0.00854
2071.37358	0.00851
2070.08781	0.00887
2068.80204	0.00946
2067.51627	0.00995
2066.23050	0.01015
2064.94474	0.01011
2063.65897	0.00993
2062.37320	0.00957
2061.08743	0.00910
2059.80166	0.00885
2058.51589	0.00907
2057.23012	0.00959
2055.94435	0.00991
2054.65859	0.00975
2053.37282	0.00931
2052.08705	0.00898
2050.80128	0.00891
2049.51551	0.00891
2048.22974	0.00860
2046.94397	0.00779
2045.65820	0.00669
2044.37243	0.00575
2043.08667	0.00523
2041.80090	0.00510
2040.51513	0.00531
2039.22936	0.00604
2037.94359	0.00743
2036.65782	0.00908
2035.37205	0.01001
2034.08628	0.00960
2032.80052	0.00819
2031.51475	0.00676
2030.22898	0.00584
2028.94321	0.00531
2027.65744	0.00495
2026.37167	0.00480
2025.08590	0.00476
2023.80013	0.00434
2022.51436	0.00323
2021.22860	0.00191
2019.94283	0.00129
2018.65706	0.00180
2017.37129	0.00297
2016.08552	0.00405
2014.79975	0.00466
2013.51398	0.00485
2012.22821	0.00480
2010.94245	0.00470
2009.65668	0.00485
2008.37091	0.00556
2007.08514	0.00678
2005.79937	0.00797
2004.51360	0.00845
2003.22783	0.00804
2001.94206	0.00731
2000.65629	0.00699
1999.37053	0.00725
1998.08476	0.00778
1996.79899	0.00829
1995.51322	0.00871
1994.22745	0.00895
1992.94168	0.00889
1991.65591	0.00866
1990.37014	0.00871
1989.08438	0.00928
1987.79861	0.01010
1986.51284	0.01076
1985.22707	0.01110
1983.94130	0.01118
1982.65553	0.01099
1981.36976	0.01044
1980.08399	0.00963
1978.79822	0.00886
1977.51246	0.00836
1976.22669	0.00813
1974.94092	0.00796
1973.65515	0.00763
1972.36938	0.00721
1971.08361	0.00716
1969.79784	0.00789
1968.51207	0.00929
1967.22631	0.01075
1965.94054	0.01171
1964.65477	0.01201
1963.36900	0.01185
1962.08323	0.01149
1960.79746	0.01117
1959.51169	0.01104
1958.22592	0.01115
1956.94015	0.01144
1955.65439	0.01189
1954.36862	0.01239
1953.08285	0.01277
1951.79708	0.01281
1950.51131	0.01253
1949.22554	0.01222
1947.93977	0.01215
1946.65400	0.01223
1945.36823	0.01214
1944.08247	0.01165
1942.79670	0.01087
1941.51093	0.01020
1940.22516	0.00993
1938.93939	0.00999
1937.65362	0.01011
1936.36785	0.01020
1935.08208	0.01042
1933.79632	0.01092
1932.51055	0.01156
1931.22478	0.01198
1929.93901	0.01200
1928.65324	0.01175
1927.36747	0.01153
1926.08170	0.01161
1924.79593	0.01202
1923.51016	0.01261
1922.22440	0.01314
1920.93863	0.01357
1919.65286	0.01392
1918.36709	0.01414
1917.08132	0.01403
1915.79555	0.01354
1914.50978	0.01299
1913.22401	0.01276
1911.93825	0.01300
1910.65248	0.01347
1909.36671	0.01376
1908.08094	0.01366
1906.79517	0.01331
1905.50940	0.01303
1904.22363	0.01293
1902.93786	0.01294
1901.65209	0.01298
1900.36633	0.01308
1899.08056	0.01329
1897.79479	0.01346
1896.50902	0.01338
1895.22325	0.01298
1893.93748	0.01250
1892.65171	0.01220
1891.36594	0.01217
1890.08018	0.01230
1888.79441	0.01244
1887.50864	0.01259
1886.22287	0.01274
1884.93710	0.01285
1883.65133	0.01290
1882.36556	0.01290
1881.07979	0.01286
1879.79402	0.01274
1878.50826	0.01260
1877.22249	0.01254
1875.93672	0.01265
1874.65095	0.01286
1873.36518	0.01305
1872.07941	0.01313
1870.79364	0.01310
1869.50787	0.01306
1868.22211	0.01317
1866.93634	0.01357
1865.65057	0.01420
1864.36480	0.01477
1863.07903	0.01499
1861.79326	0.01480
1860.50749	0.01440
1859.22172	0.01409
1857.93595	0.01402
1856.65019	0.01414
1855.36442	0.01428
1854.07865	0.01432
1852.79288	0.01425
1851.50711	0.01414
1850.22134	0.01405
1848.93557	0.01407
1847.64980	0.01423
1846.36404	0.01442
1845.07827	0.01443
1843.79250	0.01420
1842.50673	0.01395
1841.22096	0.01394
1839.93519	0.01420
1838.64942	0.01450
1837.36365	0.01461
1836.07788	0.01452
1834.79212	0.01434
1833.50635	0.01419
1832.22058	0.01414
1830.93481	0.01414
1829.64904	0.01407
1828.36327	0.01396
1827.07750	0.01392
1825.79173	0.01407
1824.50597	0.01433
1823.22020	0.01456
1821.93443	0.01463
1820.64866	0.01451
1819.36289	0.01422
1818.07712	0.01386
1816.79135	0.01360
1815.50558	0.01356
1814.21981	0.01371
1812.93405	0.01392
1811.64828	0.01409
1810.36251	0.01418
1809.07674	0.01420
1807.79097	0.01415
1806.50520	0.01405
1805.21943	0.01401
1803.93366	0.01412
1802.64790	0.01434
1801.36213	0.01453
1800.07636	0.01460
1798.79059	0.01461
1797.50482	0.01463
1796.21905	0.01466
1794.93328	0.01466
1793.64751	0.01460
1792.36174	0.01452
1791.07598	0.01448
1789.79021	0.01454
1788.50444	0.01470
1787.21867	0.01489
1785.93290	0.01503
1784.64713	0.01505
1783.36136	0.01497
1782.07559	0.01485
1780.78983	0.01473
1779.50406	0.01461
1778.21829	0.01453
1776.93252	0.01455
1775.64675	0.01472
1774.36098	0.01498
1773.07521	0.01516
1771.78944	0.01517
1770.50367	0.01509
1769.21791	0.01509
1767.93214	0.01521
1766.64637	0.01535
1765.36060	0.01544
1764.07483	0.01545
1762.78906	0.01538
1761.50329	0.01527
1760.21752	0.01519
1758.93176	0.01524
1757.64599	0.01538
1756.36022	0.01554
1755.07445	0.01568
1753.78868	0.01584
1752.50291	0.01597
1751.21714	0.01601
1749.93137	0.01593
1748.64560	0.01581
1747.35984	0.01572
1746.07407	0.01570
1744.78830	0.01572
1743.50253	0.01575
1742.21676	0.01578
1740.93099	0.01582
1739.64522	0.01587
1738.35945	0.01595
1737.07369	0.01614
1735.78792	0.01643
1734.50215	0.01666
1733.21638	0.01669
1731.93061	0.01662
1730.64484	0.01661
1729.35907	0.01671
1728.07330	0.01682
1726.78753	0.01688
1725.50177	0.01692
1724.21600	0.01698
1722.93023	0.01707
1721.64446	0.01724
1720.35869	0.01752
1719.07292	0.01786
1717.78715	0.01811
1716.50138	0.01818
1715.21561	0.01816
1713.92985	0.01821
1712.64408	0.01841
1711.35831	0.01873
1710.07254	0.01914
1708.78677	0.01959
1707.50100	0.02005
1706.21523	0.02047
1704.92946	0.02079
1703.64370	0.02105
1702.35793	0.02138
1701.07216	0.02177
1699.78639	0.02207
1698.50062	0.02227
1697.21485	0.02247
1695.92908	0.02263
1694.64331	0.02267
1693.35754	0.02271
1692.07178	0.02291
1690.78601	0.02326
1689.50024	0.02363
1688.21447	0.02398
1686.92870	0.02433
1685.64293	0.02469
1684.35716	0.02493
1683.07139	0.02503
1681.78563	0.02514
1680.49986	0.02536
1679.21409	0.02567
1677.92832	0.02603
1676.64255	0.02642
1675.35678	0.02678
1674.07101	0.02705
1672.78524	0.02729
1671.49947	0.02754
1670.21371	0.02776
1668.92794	0.02791
1667.64217	0.02805
1666.35640	0.02829
1665.07063	0.02863
1663.78486	0.02901
1662.49909	0.02928
1661.21332	0.02944
1659.92756	0.02954
1658.64179	0.02968
1657.35602	0.02990
1656.07025	0.03020
1654.78448	0.03054
1653.49871	0.03077
1652.21294	0.03080
1650.92717	0.03075
1649.64140	0.03083
1648.35564	0.03104
1647.06987	0.03122
1645.78410	0.03126
1644.49833	0.03126
1643.21256	0.03134
1641.92679	0.03151
1640.64102	0.03169
1639.35525	0.03181
1638.06949	0.03187
1636.78372	0.03190
1635.49795	0.03186
1634.21218	0.03177
1632.92641	0.03172
1631.64064	0.03180
1630.35487	0.03196
1629.06910	0.03211
1627.78333	0.03221
1626.49757	0.03229
1625.21180	0.03239
1623.92603	0.03248
1622.64026	0.03255
1621.35449	0.03261
1620.06872	0.03272
1618.78295	0.03289
1617.49718	0.03305
1616.21142	0.03310
1614.92565	0.03310
1613.63988	0.03320
1612.35411	0.03341
1611.06834	0.03364
1609.78257	0.03381
1608.49680	0.03396
1607.21103	0.03414
1605.92526	0.03437
1604.63950	0.03463
1603.35373	0.03486
1602.06796	0.03502
1600.78219	0.03510
1599.49642	0.03513
1598.21065	0.03516
1596.92488	0.03524
1595.63911	0.03539
1594.35335	0.03559
1593.06758	0.03580
1591.78181	0.03601
1590.49604	0.03621
1589.21027	0.03640
1587.92450	0.03657
1586.63873	0.03673
1585.35296	0.03689
1584.06719	0.03709
1582.78143	0.03734
1581.49566	0.03759
1580.20989	0.03779
1578.92412	0.03797
1577.63835	0.03815
1576.35258	0.03831
1575.06681	0.03842
1573.78104	0.03855
1572.49528	0.03880
1571.20951	0.03915
1569.92374	0.03949
1568.63797	0.03973
1567.35220	0.03987
1566.06643	0.03998
1564.78066	0.04007
1563.49489	0.04019
1562.20912	0.04039
1560.92336	0.04069
1559.63759	0.04096
1558.35182	0.04110
1557.06605	0.04114
1555.78028	0.04124
1554.49451	0.04142
1553.20874	0.04165
1551.92297	0.04189
1550.63721	0.04211
1549.35144	0.04226
1548.06567	0.04232
1546.77990	0.04236
1545.49413	0.04244
1544.20836	0.04254
1542.92259	0.04262
1541.63682	0.04264
1540.35105	0.04255
1539.06529	0.04234
1537.77952	0.04213
1536.49375	0.04213
1535.20798	0.04237
1533.92221	0.04271
1532.63644	0.04299
1531.35067	0.04324
1530.06490	0.04358
1528.77914	0.04404
1527.49337	0.04456
1526.20760	0.04505
1524.92183	0.04553
1523.63606	0.04605
1522.35029	0.04666
1521.06452	0.04732
1519.77875	0.04804
1518.49298	0.04890
1517.20722	0.04993
1515.92145	0.05107
1514.63568	0.05225
1513.34991	0.05347
1512.06414	0.05471
1510.77837	0.05597
1509.49260	0.05727
1508.20683	0.05861
1506.92107	0.05991
1505.63530	0.06108
1504.34953	0.06215
1503.06376	0.06319
1501.77799	0.06420
1500.49222	0.06513
1499.20645	0.06600
1497.92068	0.06684
1496.63491	0.06765
1495.34915	0.06839
1494.06338	0.06904
1492.77761	0.06970
1491.49184	0.07043
1490.20607	0.07124
1488.92030	0.07214
1487.63453	0.07312
1486.34876	0.07416
1485.06299	0.07524
1483.77723	0.07639
1482.49146	0.07758
1481.20569	0.07879
1479.91992	0.07993
1478.63415	0.08102
1477.34838	0.08207
1476.06261	0.08308
1474.77684	0.08402
1473.49108	0.08481
1472.20531	0.08539
1470.91954	0.08578
1469.63377	0.08611
1468.34800	0.08646
1467.06223	0.08681
1465.77646	0.08706
1464.49069	0.08715
1463.20492	0.08714
1461.91916	0.08716
1460.63339	0.08734
1459.34762	0.08773
1458.06185	0.08826
1456.77608	0.08877
1455.49031	0.08919
1454.20454	0.08955
1452.91877	0.08993
1451.63301	0.09030
1450.34724	0.09060
1449.06147	0.09081
1447.77570	0.09094
1446.48993	0.09094
1445.20416	0.09084
1443.91839	0.09065
1442.63262	0.09039
1441.34685	0.09008
1440.06109	0.08972
1438.77532	0.08937
1437.48955	0.08910
1436.20378	0.08898
1434.91801	0.08908
1433.63224	0.08950
1432.34647	0.09028
1431.06070	0.09134
1429.77494	0.09256
1428.48917	0.09388
1427.20340	0.09527
1425.91763	0.09674
1424.63186	0.09829
1423.34609	0.09988
1422.06032	0.10144
1420.77455	0.10287
1419.48878	0.10406
1418.20302	0.10496
1416.91725	0.10563
1415.63148	0.10617
1414.34571	0.10660
1413.05994	0.10683
1411.77417	0.10679
1410.48840	0.10644
1409.20263	0.10580
1407.91687	0.10493
1406.63110	0.10386
1405.34533	0.10259
1404.05956	0.10112
1402.77379	0.09949
1401.48802	0.09775
1400.20225	0.09590
1398.91648	0.09390
1397.63071	0.09176
1396.34495	0.08952
1395.05918	0.08727
1393.77341	0.08503
1392.48764	0.08285
1391.20187	0.08074
1389.91610	0.07868
1388.63033	0.07667
1387.34456	0.07469
1386.05880	0.07275
1384.77303	0.07084
1383.48726	0.06892
1382.20149	0.06699
1380.91572	0.06507
1379.62995	0.06315
1378.34418	0.06121
1377.05841	0.05921
1375.77264	0.05714
1374.48688	0.05506
1373.20111	0.05307
1371.91534	0.05119
1370.62957	0.04939
1369.34380	0.04763
1368.05803	0.04592
1366.77226	0.04433
1365.48649	0.04292
1364.20073	0.04166
1362.91496	0.04047
1361.62919	0.03929
1360.34342	0.03812
1359.05765	0.03700
1357.77188	0.03595
1356.48611	0.03499
1355.20034	0.03414
1353.91457	0.03339
1352.62881	0.03273
1351.34304	0.03212
1350.05727	0.03153
1348.77150	0.03098
1347.48573	0.03048
1346.19996	0.03000
1344.91419	0.02952
1343.62842	0.02899
1342.34266	0.02846
1341.05689	0.02797
1339.77112	0.02756
1338.48535	0.02722
1337.19958	0.02693
1335.91381	0.02665
1334.62804	0.02635
1333.34227	0.02602
1332.05650	0.02566
1330.77074	0.02528
1329.48497	0.02493
1328.19920	0.02463
1326.91343	0.02440
1325.62766	0.02423
1324.34189	0.02409
1323.05612	0.02395
1321.77035	0.02378
1320.48459	0.02360
1319.19882	0.02341
1317.91305	0.02321
1316.62728	0.02300
1315.34151	0.02278
1314.05574	0.02255
1312.76997	0.02233
1311.48420	0.02212
1310.19843	0.02193
1308.91267	0.02176
1307.62690	0.02161
1306.34113	0.02148
1305.05536	0.02136
1303.76959	0.02124
1302.48382	0.02113
1301.19805	0.02101
1299.91228	0.02087
1298.62652	0.02070
1297.34075	0.02053
1296.05498	0.02039
1294.76921	0.02034
1293.48344	0.02036
1292.19767	0.02037
1290.91190	0.02031
1289.62613	0.02014
1288.34036	0.01992
1287.05460	0.01970
1285.76883	0.01954
1284.48306	0.01944
1283.19729	0.01936
1281.91152	0.01925
1280.62575	0.01911
1279.33998	0.01899
1278.05421	0.01892
1276.76845	0.01890
1275.48268	0.01888
1274.19691	0.01882
1272.91114	0.01874
1271.62537	0.01864
1270.33960	0.01851
1269.05383	0.01835
1267.76806	0.01817
1266.48229	0.01801
1265.19653	0.01791
1263.91076	0.01787
1262.62499	0.01783
1261.33922	0.01777
1260.05345	0.01769
1258.76768	0.01762
1257.48191	0.01760
1256.19614	0.01761
1254.91037	0.01762
1253.62461	0.01759
1252.33884	0.01750
1251.05307	0.01738
1249.76730	0.01725
1248.48153	0.01714
1247.19576	0.01705
1245.90999	0.01697
1244.62422	0.01687
1243.33846	0.01676
1242.05269	0.01665
1240.76692	0.01657
1239.48115	0.01652
1238.19538	0.01652
1236.90961	0.01652
1235.62384	0.01651
1234.33807	0.01646
1233.05230	0.01640
1231.76654	0.01634
1230.48077	0.01629
1229.19500	0.01622
1227.90923	0.01616
1226.62346	0.01611
1225.33769	0.01606
1224.05192	0.01601
1222.76615	0.01595
1221.48039	0.01591
1220.19462	0.01588
1218.90885	0.01587
1217.62308	0.01588
1216.33731	0.01593
1215.05154	0.01601
1213.76577	0.01605
1212.48000	0.01602
1211.19423	0.01591
1209.90847	0.01578
1208.62270	0.01571
1207.33693	0.01569
1206.05116	0.01570
1204.76539	0.01571
1203.47962	0.01570
1202.19385	0.01569
1200.90808	0.01571
1199.62232	0.01577
1198.33655	0.01583
1197.05078	0.01584
1195.76501	0.01577
1194.47924	0.01562
1193.19347	0.01548
1191.90770	0.01542
1190.62193	0.01544
1189.33616	0.01556
1188.05040	0.01571
1186.76463	0.01584
1185.47886	0.01590
1184.19309	0.01589
1182.90732	0.01587
1181.62155	0.01589
1180.33578	0.01590
1179.05001	0.01589
1177.76425	0.01586
1176.47848	0.01588
1175.19271	0.01596
1173.90694	0.01610
1172.62117	0.01626
1171.33540	0.01641
1170.04963	0.01651
1168.76386	0.01662
1167.47809	0.01678
1166.19233	0.01701
1164.90656	0.01728
1163.62079	0.01754
1162.33502	0.01779
1161.04925	0.01805
1159.76348	0.01834
1158.47771	0.01863
1157.19194	0.01893
1155.90618	0.01923
1154.62041	0.01957
1153.33464	0.01995
1152.04887	0.02040
1150.76310	0.02092
1149.47733	0.02150
1148.19156	0.02212
1146.90579	0.02279
1145.62002	0.02353
1144.33426	0.02431
1143.04849	0.02514
1141.76272	0.02604
1140.47695	0.02710
1139.19118	0.02833
1137.90541	0.02971
1136.61964	0.03120
1135.33387	0.03282
1134.04811	0.03460
1132.76234	0.03658
1131.47657	0.03875
1130.19080	0.04114
1128.90503	0.04376
1127.61926	0.04662
1126.33349	0.04971
1125.04772	0.05304
1123.76195	0.05665
1122.47619	0.06051
1121.19042	0.06450
1119.90465	0.06846
1118.61888	0.07232
1117.33311	0.07609
1116.04734	0.07986
1114.76157	0.08361
1113.47580	0.08728
1112.19004	0.09082
1110.90427	0.09428
1109.61850	0.09769
1108.33273	0.10107
1107.04696	0.10438
1105.76119	0.10763
1104.47542	0.11084
1103.18965	0.11401
1101.90388	0.11710
1100.61812	0.12006
1099.33235	0.12281
1098.04658	0.12538
1096.76081	0.12782
1095.47504	0.13024
1094.18927	0.13266
1092.90350	0.13503
1091.61773	0.13727
1090.33197	0.13935
1089.04620	0.14136
1087.76043	0.14340
1086.47466	0.14551
1085.18889	0.14770
1083.90312	0.14996
1082.61735	0.15229
1081.33158	0.15473
1080.04581	0.15732
1078.76005	0.16007
1077.47428	0.16296
1076.18851	0.16597
1074.90274	0.16915
1073.61697	0.17251
1072.33120	0.17605
1071.04543	0.17969
1069.75966	0.18332
1068.47390	0.18695
1067.18813	0.19069
1065.90236	0.19466
1064.61659	0.19888
1063.33082	0.20324
1062.04505	0.20758
1060.75928	0.21186
1059.47351	0.21609
1058.18774	0.22030
1056.90198	0.22443
1055.61621	0.22844
1054.33044	0.23237
1053.04467	0.23631
1051.75890	0.24035
1050.47313	0.24449
1049.18736	0.24873
1047.90159	0.25311
1046.61583	0.25767
1045.33006	0.26247
1044.04429	0.26749
1042.75852	0.27268
1041.47275	0.27791
1040.18698	0.28311
1038.90121	0.28829
1037.61544	0.29352
1036.32967	0.29884
1035.04391	0.30419
1033.75814	0.30944
1032.47237	0.31445
1031.18660	0.31915
1029.90083	0.32349
1028.61506	0.32740
1027.32929	0.33082
1026.04352	0.33368
1024.75775	0.33595
1023.47199	0.33763
1022.18622	0.33873
1020.90045	0.33922
1019.61468	0.33908
1018.32891	0.33828
1017.04314	0.33682
1015.75737	0.33470
1014.47160	0.33190
1013.18584	0.32831
1011.90007	0.32383
1010.61430	0.31846
1009.32853	0.31222
1008.04276	0.30513
1006.75699	0.29722
1005.47122	0.28860
1004.18545	0.27941
1002.89968	0.26980
1001.61392	0.25977
1000.32815	0.24933
999.04238	0.23852
997.75661	0.22746
996.47084	0.21634
995.18507	0.20533
993.89930	0.19455
992.61353	0.18406
991.32777	0.17398
990.04200	0.16444
988.75623	0.15551
987.47046	0.14716
986.18469	0.13935
984.89892	0.13205
983.61315	0.12532
982.32738	0.11918
981.04161	0.11356
979.75585	0.10837
978.47008	0.10357
977.18431	0.09927
975.89854	0.09564
974.61277	0.09279
973.32700	0.09065
972.04123	0.08913
970.75546	0.08823
969.46970	0.08803
968.18393	0.08850
966.89816	0.08950
965.61239	0.09076
964.32662	0.09210
963.04085	0.09334
961.75508	0.09428
960.46931	0.09461
959.18354	0.09413
957.89778	0.09279
956.61201	0.09071
955.32624	0.08809
954.04047	0.08514
952.75470	0.08204
951.46893	0.07900
950.18316	0.07609
948.89739	0.07332
947.61163	0.07065
946.32586	0.06810
945.04009	0.06575
943.75432	0.06361
942.46855	0.06159
941.18278	0.05964
939.89701	0.05774
938.61124	0.05600
937.32547	0.05444
936.03971	0.05303
934.75394	0.05176
933.46817	0.05063
932.18240	0.04964
930.89663	0.04872
929.61086	0.04783
928.32509	0.04700
927.03932	0.04622
925.75356	0.04547
924.46779	0.04474
923.18202	0.04405
921.89625	0.04347
920.61048	0.04297
919.32471	0.04254
918.03894	0.04211
916.75317	0.04168
915.46740	0.04125
914.18164	0.04080
912.89587	0.04037
911.61010	0.03999
910.32433	0.03968
909.03856	0.03939
907.75279	0.03905
906.46702	0.03867
905.18125	0.03833
903.89549	0.03810
902.60972	0.03797
901.32395	0.03789
900.03818	0.03777
898.75241	0.03764
897.46664	0.03754
896.18087	0.03753
894.89510	0.03760
893.60933	0.03769
892.32357	0.03774
891.03780	0.03779
889.75203	0.03791
888.46626	0.03829
887.18049	0.03912
885.89472	0.04060
884.60895	0.04290
883.32318	0.04596
882.03742	0.04940
880.75165	0.05264
879.46588	0.05517
878.18011	0.05691
876.89434	0.05824
875.60857	0.05967
874.32280	0.06129
873.03703	0.06270
871.75126	0.06332
870.46550	0.06290
869.17973	0.06156
867.89396	0.05956
866.60819	0.05713
865.32242	0.05446
864.03665	0.05177
862.75088	0.04927
861.46511	0.04701
860.17935	0.04497
858.89358	0.04318
857.60781	0.04171
856.32204	0.04064
855.03627	0.03986
853.75050	0.03922
852.46473	0.03859
851.17896	0.03796
849.89319	0.03739
848.60743	0.03690
847.32166	0.03646
846.03589	0.03609
844.75012	0.03580
843.46435	0.03563
842.17858	0.03554
840.89281	0.03543
839.60704	0.03526
838.32128	0.03505
837.03551	0.03484
835.74974	0.03467
834.46397	0.03453
833.17820	0.03445
831.89243	0.03438
830.60666	0.03429
829.32089	0.03415
828.03512	0.03398
826.74936	0.03382
825.46359	0.03368
824.17782	0.03357
822.89205	0.03345
821.60628	0.03333
820.32051	0.03330
819.03474	0.03341
817.74897	0.03362
816.46321	0.03381
815.17744	0.03385
813.89167	0.03374
812.60590	0.03353
811.32013	0.03333
810.03436	0.03317
808.74859	0.03306
807.46282	0.03299
806.17705	0.03296
804.89129	0.03295
803.60552	0.03294
802.31975	0.03289
801.03398	0.03281
799.74821	0.03273
798.46244	0.03266
797.17667	0.03261
795.89090	0.03263
794.60513	0.03273
793.31937	0.03284
792.03360	0.03291
790.74783	0.03288
789.46206	0.03279
788.17629	0.03270
786.89052	0.03264
785.60475	0.03261
784.31898	0.03257
783.03322	0.03251
781.74745	0.03243
780.46168	0.03233
779.17591	0.03223
777.89014	0.03213
776.60437	0.03207
775.31860	0.03208
774.03283	0.03215
772.74706	0.03225
771.46130	0.03234
770.17553	0.03237
768.88976	0.03235
767.60399	0.03234
766.31822	0.03237
765.03245	0.03247
763.74668	0.03262
762.46091	0.03280
761.17515	0.03301
759.88938	0.03324
758.60361	0.03342
757.31784	0.03349
756.03207	0.03343
754.74630	0.03329
753.46053	0.03314
752.17476	0.03302
750.88899	0.03296
749.60323	0.03294
748.31746	0.03295
747.03169	0.03295
745.74592	0.03290
744.46015	0.03279
743.17438	0.03261
741.88861	0.03239
740.60284	0.03219
739.31708	0.03204
738.03131	0.03199
736.74554	0.03203
735.45977	0.03211
734.17400	0.03216
732.88823	0.03213
731.60246	0.03205
730.31669	0.03198
729.03092	0.03195
727.74516	0.03197
726.45939	0.03203
725.17362	0.03213
723.88785	0.03248
722.60208	0.03250
721.31631	0.03238
720.03054	0.03227
718.74477	0.03212
717.45901	0.03197
716.17324	0.03187
714.88747	0.03190
713.60170	0.03205
712.31593	0.03223
711.03016	0.03236
709.74439	0.03240
708.45862	0.03241
707.17285	0.03241
705.88709	0.03243
704.60132	0.03244
703.31555	0.03242
702.02978	0.03234
700.74401	0.03225
699.45824	0.03216
698.17247	0.03209
696.88670	0.03203
695.60094	0.03196
694.31517	0.03191
693.02940	0.03192
691.74363	0.03197
690.45786	0.03205
689.17209	0.03209
687.88632	0.03208
686.60055	0.03202
685.31478	0.03195
684.02902	0.03193
682.74325	0.03197
681.45748	0.03203
680.17171	0.03207
678.88594	0.03206
677.60017	0.03206
676.31440	0.03209
675.02863	0.03220
673.74287	0.03236
672.45710	0.03251
671.17133	0.03256
669.88556	0.03259
668.59979	0.03296
667.31402	0.03309
666.02825	0.03266
664.74248	0.03262
663.45671	0.03254
662.17095	0.03233
660.88518	0.03210
659.59941	0.03189
658.31364	0.03173
657.02787	0.03165
655.74210	0.03165
654.45633	0.03168
653.17056	0.03172
651.88480	0.03174
650.59903	0.03177
649.31326	0.03182
648.02749	0.03187
646.74172	0.03195
645.45595	0.03206
644.17018	0.03222
642.88441	0.03247
641.59864	0.03278
640.31288	0.03315
639.02711	0.03356
637.74134	0.03400
636.45557	0.03449
635.16980	0.03498
633.88403	0.03545
632.59826	0.03588
631.31249	0.03630
630.02673	0.03671
628.74096	0.03731
627.45519	0.03827
626.16942	0.03917
624.88365	0.04028
623.59788	0.04206
622.31211	0.04465
621.02634	0.04788
619.74057	0.05173
618.45481	0.05639
617.16904	0.06158
615.88327	0.06626
614.59750	0.06947
613.31173	0.07118
612.02596	0.07253
610.74019	0.07526
609.45442	0.08048
608.16866	0.08770
606.88289	0.09521
605.59712	0.10149
604.31135	0.10599
603.02558	0.10879
601.73981	0.11016
600.45404	0.11030
599.16827	0.10931
597.88250	0.10726
596.59674	0.10434
595.31097	0.10091
594.02520	0.09746
592.73943	0.09445
591.45366	0.09223
590.16789	0.09102
588.88212	0.09086
587.59635	0.09160
586.31059	0.09299
585.02482	0.09478
583.73905	0.09688
582.45328	0.09930
581.16751	0.10206
579.88174	0.10509
578.59597	0.10833
577.31020	0.11172
576.02443	0.11524
574.73867	0.11881
573.45290	0.12230
572.16713	0.12567
570.88136	0.12910
569.59559	0.13293
568.30982	0.13741
567.02405	0.14252
565.73828	0.14797
564.45251	0.15314
563.16675	0.15721
561.88098	0.15934
560.59521	0.15887
559.30944	0.15555
558.02367	0.14962
556.73790	0.14177
555.45213	0.13284
554.16636	0.12358
552.88060	0.11454
551.59483	0.10605
550.30906	0.09830
549.02329	0.09141
547.73752	0.08538
546.45175	0.08012
545.16598	0.07550
543.88021	0.07144
542.59444	0.06786
541.30868	0.06469
540.02291	0.06187
538.73714	0.05933
537.45137	0.05700
536.16560	0.05486
534.87983	0.05289
533.59406	0.05112
532.30829	0.04954
531.02253	0.04816
529.73676	0.04694
528.45099	0.04582
527.16522	0.04474
525.87945	0.04365
524.59368	0.04261
523.30791	0.04166
522.02214	0.04084
520.73637	0.04008
519.45061	0.03932
518.16484	0.03856
516.87907	0.03780
515.59330	0.03703
514.30753	0.03625
513.02176	0.03547
511.73599	0.03476
510.45022	0.03417
509.16446	0.03370
507.87869	0.03329
506.59292	0.03285
505.30715	0.03238
504.02138	0.03196
502.73561	0.03167
501.44984	0.03152
500.16407	0.03147
498.87830	0.03141
497.59254	0.03122
496.30677	0.03085
495.02100	0.03033
493.73523	0.02981
492.44946	0.02941
491.16369	0.02920
489.87792	0.02912
488.59215	0.02907
487.30639	0.02899
486.02062	0.02889
484.73485	0.02886
483.44908	0.02891
482.16331	0.02900
480.87754	0.02909
479.59177	0.02918
478.30600	0.02929
477.02023	0.02948
475.73447	0.02975
474.44870	0.03010
473.16293	0.03044
471.87716	0.03064
470.59139	0.03067
469.30562	0.03059
468.01985	0.03048
466.73408	0.03036
465.44832	0.03020
464.16255	0.02994
462.87678	0.02962
461.59101	0.02930
460.30524	0.02900
459.01947	0.02869
457.73370	0.02831
456.44793	0.02791
455.16216	0.02753
453.87640	0.02722
452.59063	0.02698
451.30486	0.02682
450.01909	0.02675
448.73332	0.02676
447.44755	0.02677
446.16178	0.02671
444.87601	0.02652
443.59025	0.02627
442.30448	0.02603
441.01871	0.02585
439.73294	0.02575
438.44717	0.02572
437.16140	0.02575
435.87563	0.02580
434.58986	0.02586
433.30409	0.02592
432.01833	0.02597
430.73256	0.02599
429.44679	0.02593
428.16102	0.02582
426.87525	0.02569
425.58948	0.02560
424.30371	0.02553
423.01794	0.02545
421.73218	0.02536
420.44641	0.02526
419.16064	0.02516
417.87487	0.02507
416.58910	0.02498
415.30333	0.02491
414.01756	0.02491
412.73179	0.02496
411.44602	0.02503
410.16026	0.02510
408.87449	0.02520
407.58872	0.02540
406.30295	0.02566
405.01718	0.02589
403.73141	0.02598
402.44564	0.02597
401.15987	0.02597
399.87411	0.02602
