3997.45528 0.05306
3996.16951 0.05293
3994.88374 0.05311
3993.59798 0.05311
3992.31221 0.05293
3991.02644 0.05306
3989.74067 0.05383
3988.45490 0.05511
3987.16913 0.05639
3985.88336 0.05711
3984.59759 0.05708
3983.31183 0.05656
3982.02606 0.05605
3980.74029 0.05583
3979.45452 0.05563
3978.16875 0.05496
3976.88298 0.05365
3975.59721 0.05216
3974.31144 0.05109
3973.02567 0.05068
3971.73991 0.05081
3970.45414 0.05136
3969.16837 0.05227
3967.88260 0.05331
3966.59683 0.05410
3965.31106 0.05439
3964.02529 0.05423
3962.73952 0.05381
3961.45376 0.05338
3960.16799 0.05323
3958.88222 0.05353
3957.59645 0.05402
3956.31068 0.05395
3955.02491 0.05268
3953.73914 0.05037
3952.45337 0.04805
3951.16760 0.04681
3949.88184 0.04706
3948.59607 0.04846
3947.31030 0.05028
3946.02453 0.05178
3944.73876 0.05251
3943.45299 0.05251
3942.16722 0.05217
3940.88145 0.05175
3939.59569 0.05130
3938.30992 0.05092
3937.02415 0.05082
3935.73838 0.05094
3934.45261 0.05090
3933.16684 0.05049
3931.88107 0.05000
3930.59530 0.04989
3929.30953 0.05030
3928.02377 0.05087
3926.73800 0.05116
3925.45223 0.05095
3924.16646 0.05040
3922.88069 0.04987
3921.59492 0.04982
3920.30915 0.05056
3919.02338 0.05194
3917.73762 0.05330
3916.45185 0.05394
3915.16608 0.05378
3913.88031 0.05334
3912.59454 0.05322
3911.30877 0.05364
3910.02300 0.05439
3908.73723 0.05511
3907.45146 0.05557
3906.16570 0.05568
3904.87993 0.05546
3903.59416 0.05481
3902.30839 0.05360
3901.02262 0.05208
3899.73685 0.05089
3898.45108 0.05055
3897.16531 0.05085
3895.87955 0.05118
3894.59378 0.05125
3893.30801 0.05124
3892.02224 0.05132
3890.73647 0.05127
3889.45070 0.05084
3888.16493 0.05016
3886.87916 0.04982
3885.59339 0.05010
3884.30763 0.05057
3883.02186 0.05065
3881.73609 0.05043
3880.45032 0.05061
3879.16455 0.05146
3877.87878 0.05243
3876.59301 0.05292
3875.30724 0.05285
3874.02148 0.05244
3872.73571 0.05173
3871.44994 0.05079
3870.16417 0.05013
3868.87840 0.05031
3867.59263 0.05125
3866.30686 0.05235
3865.02109 0.05308
3863.73532 0.05319
3862.44956 0.05270
3861.16379 0.05189
3859.87802 0.05128
3858.59225 0.05128
3857.30648 0.05164
3856.02071 0.05170
3854.73494 0.05111
3853.44917 0.05045
3852.16341 0.05049
3850.87764 0.05118
3849.59187 0.05164
3848.30610 0.05114
3847.02033 0.04986
3845.73456 0.04861
3844.44879 0.04792
3843.16302 0.04773
3841.87725 0.04782
3840.59149 0.04822
3839.30572 0.04901
3838.01995 0.04996
3836.73418 0.05059
3835.44841 0.05057
3834.16264 0.05002
3832.87687 0.04936
3831.59110 0.04888
3830.30534 0.04856
3829.01957 0.04825
3827.73380 0.04798
3826.44803 0.04794
3825.16226 0.04826
3823.87649 0.04881
3822.59072 0.04935
3821.30495 0.04975
3820.01918 0.04981
3818.73342 0.04933
3817.44765 0.04852
3816.16188 0.04805
3814.87611 0.04828
3813.59034 0.04888
3812.30457 0.04941
3811.01880 0.04979
3809.73303 0.05002
3808.44726 0.04993
3807.16150 0.04948
3805.87573 0.04890
3804.58996 0.04833
3803.30419 0.04779
3802.01842 0.04745
3800.73265 0.04757
3799.44688 0.04799
3798.16111 0.04826
3796.87535 0.04808
3795.58958 0.04766
3794.30381 0.04731
3793.01804 0.04725
3791.73227 0.04743
3790.44650 0.04778
3789.16073 0.04831
3787.87496 0.04909
3786.58919 0.05000
3785.30343 0.05065
3784.01766 0.05067
3782.73189 0.05002
3781.44612 0.04902
3780.16035 0.04815
3778.87458 0.04770
3777.58881 0.04766
3776.30304 0.04784
3775.01728 0.04796
3773.73151 0.04787
3772.44574 0.04763
3771.15997 0.04740
3769.87420 0.04733
3768.58843 0.04731
3767.30266 0.04727
3766.01689 0.04735
3764.73112 0.04778
3763.44536 0.04842
3762.15959 0.04881
3760.87382 0.04866
3759.58805 0.04813
3758.30228 0.04762
3757.01651 0.04749
3755.73074 0.04777
3754.44497 0.04814
3753.15921 0.04828
3751.87344 0.04814
3750.58767 0.04801
3749.30190 0.04823
3748.01613 0.04869
3746.73036 0.04876
3745.44459 0.04817
3744.15882 0.04757
3742.87305 0.04758
3741.58729 0.04795
3740.30152 0.04804
3739.01575 0.04747
3737.72998 0.04634
3736.44421 0.04510
3735.15844 0.04423
3733.87267 0.04392
3732.58690 0.04407
3731.30114 0.04449
3730.01537 0.04494
3728.72960 0.04527
3727.44383 0.04556
3726.15806 0.04592
3724.87229 0.04616
3723.58652 0.04597
3722.30075 0.04534
3721.01498 0.04459
3719.72922 0.04413
3718.44345 0.04418
3717.15768 0.04466
3715.87191 0.04529
3714.58614 0.04570
3713.30037 0.04573
3712.01460 0.04550
3710.72883 0.04528
3709.44307 0.04535
3708.15730 0.04582
3706.87153 0.04656
3705.58576 0.04714
3704.29999 0.04720
3703.01422 0.04688
3701.72845 0.04675
3700.44268 0.04713
3699.15691 0.04756
3697.87115 0.04726
3696.58538 0.04613
3695.29961 0.04479
3694.01384 0.04392
3692.72807 0.04365
3691.44230 0.04354
3690.15653 0.04309
3688.87076 0.04221
3687.58500 0.04133
3686.29923 0.04102
3685.01346 0.04154
3683.72769 0.04267
3682.44192 0.04382
3681.15615 0.04457
3679.87038 0.04503
3678.58461 0.04538
3677.29884 0.04542
3676.01308 0.04490
3674.72731 0.04400
3673.44154 0.04320
3672.15577 0.04288
3670.87000 0.04313
3669.58423 0.04372
3668.29846 0.04419
3667.01269 0.04433
3665.72693 0.04431
3664.44116 0.04444
3663.15539 0.04493
3661.86962 0.04588
3660.58385 0.04709
3659.29808 0.04795
3658.01231 0.04795
3656.72654 0.04724
3655.44077 0.04650
3654.15501 0.04620
3652.86924 0.04620
3651.58347 0.04622
3650.29770 0.04620
3649.01193 0.04628
3647.72616 0.04650
3646.44039 0.04667
3645.15462 0.04663
3643.86886 0.04635
3642.58309 0.04600
3641.29732 0.04582
3640.01155 0.04600
3638.72578 0.04652
3637.44001 0.04705
3636.15424 0.04708
3634.86847 0.04642
3633.58270 0.04554
3632.29694 0.04521
3631.01117 0.04579
3629.72540 0.04690
3628.43963 0.04782
3627.15386 0.04795
3625.86809 0.04728
3624.58232 0.04634
3623.29655 0.04568
3622.01079 0.04550
3620.72502 0.04579
3619.43925 0.04663
3618.15348 0.04799
3616.86771 0.04957
3615.58194 0.05075
3614.29617 0.05103
3613.01040 0.05046
3611.72463 0.04976
3610.43887 0.04970
3609.15310 0.05054
3607.86733 0.05185
3606.58156 0.05295
3605.29579 0.05338
3604.01002 0.05313
3602.72425 0.05250
3601.43848 0.05193
3600.15272 0.05174
3598.86695 0.05194
3597.58118 0.05221
3596.29541 0.05213
3595.00964 0.05159
3593.72387 0.05095
3592.43810 0.05089
3591.15233 0.05175
3589.86656 0.05320
3588.58080 0.05442
3587.29503 0.05472
3586.00926 0.05397
3584.72349 0.05270
3583.43772 0.05165
3582.15195 0.05130
3580.86618 0.05173
3579.58041 0.05279
3578.29464 0.05415
3577.00888 0.05534
3575.72311 0.05595
3574.43734 0.05605
3573.15157 0.05606
3571.86580 0.05629
3570.58003 0.05659
3569.29426 0.05663
3568.00849 0.05638
3566.72273 0.05616
3565.43696 0.05627
3564.15119 0.05662
3562.86542 0.05683
3561.57965 0.05663
3560.29388 0.05629
3559.00811 0.05642
3557.72234 0.05734
3556.43657 0.05867
3555.15081 0.05959
3553.86504 0.05968
3552.57927 0.05920
3551.29350 0.05880
3550.00773 0.05880
3548.72196 0.05905
3547.43619 0.05922
3546.15042 0.05923
3544.86466 0.05934
3543.57889 0.05984
3542.29312 0.06064
3541.00735 0.06124
3539.72158 0.06120
3538.43581 0.06060
3537.15004 0.05991
3535.86427 0.05944
3534.57850 0.05917
3533.29274 0.05904
3532.00697 0.05930
3530.72120 0.06019
3529.43543 0.06151
3528.14966 0.06277
3526.86389 0.06360
3525.57812 0.06394
3524.29235 0.06391
3523.00659 0.06356
3521.72082 0.06291
3520.43505 0.06215
3519.14928 0.06166
3517.86351 0.06180
3516.57774 0.06254
3515.29197 0.06338
3514.00620 0.06375
3512.72043 0.06348
3511.43467 0.06300
3510.14890 0.06290
3508.86313 0.06344
3507.57736 0.06431
3506.29159 0.06501
3505.00582 0.06528
3503.72005 0.06520
3502.43428 0.06501
3501.14852 0.06485
3499.86275 0.06484
3498.57698 0.06504
3497.29121 0.06543
3496.00544 0.06587
3494.71967 0.06620
3493.43390 0.06636
3492.14813 0.06637
3490.86236 0.06636
3489.57660 0.06652
3488.29083 0.06692
3487.00506 0.06754
3485.71929 0.06826
3484.43352 0.06889
3483.14775 0.06911
3481.86198 0.06875
3480.57621 0.06799
3479.29045 0.06731
3478.00468 0.06709
3476.71891 0.06729
3475.43314 0.06761
3474.14737 0.06795
3472.86160 0.06852
3471.57583 0.06953
3470.29006 0.07078
3469.00429 0.07153
3467.71853 0.07114
3466.43276 0.06970
3465.14699 0.06799
3463.86122 0.06693
3462.57545 0.06696
3461.28968 0.06783
3460.00391 0.06888
3458.71814 0.06951
3457.43238 0.06958
3456.14661 0.06937
3454.86084 0.06916
3453.57507 0.06900
3452.28930 0.06882
3451.00353 0.06872
3449.71776 0.06889
3448.43199 0.06944
3447.14622 0.07024
3445.86046 0.07107
3444.57469 0.07175
3443.28892 0.07219
3442.00315 0.07237
3440.71738 0.07232
3439.43161 0.07217
3438.14584 0.07214
3436.86007 0.07232
3435.57431 0.07249
3434.28854 0.07224
3433.00277 0.07156
3431.71700 0.07096
3430.43123 0.07102
3429.14546 0.07175
3427.85969 0.07259
3426.57392 0.07297
3425.28815 0.07277
3424.00239 0.07228
3422.71662 0.07192
3421.43085 0.07196
3420.14508 0.07232
3418.85931 0.07272
3417.57354 0.07294
3416.28777 0.07309
3415.00200 0.07337
3413.71624 0.07380
3412.43047 0.07415
3411.14470 0.07421
3409.85893 0.07403
3408.57316 0.07393
3407.28739 0.07424
3406.00162 0.07500
3404.71585 0.07591
3403.43008 0.07656
3402.14432 0.07687
3400.85855 0.07700
3399.57278 0.07667
3398.28701 0.07615
3397.00124 0.07616
3395.71547 0.07648
3394.42970 0.07655
3393.14393 0.07611
3391.85817 0.07543
3390.57240 0.07503
3389.28663 0.07511
3388.00086 0.07549
3386.71509 0.07603
3385.42932 0.07688
3384.14355 0.07812
3382.85778 0.07936
3381.57201 0.07997
3380.28625 0.07965
3379.00048 0.07869
3377.71471 0.07776
3376.42894 0.07742
3375.14317 0.07783
3373.85740 0.07871
3372.57163 0.07953
3371.28586 0.07979
3370.00010 0.07932
3368.71433 0.07836
3367.42856 0.07744
3366.14279 0.07706
3364.85702 0.07731
3363.57125 0.07786
3362.28548 0.07831
3360.99971 0.07849
3359.71394 0.07847
3358.42818 0.07841
3357.14241 0.07835
3355.85664 0.07830
3354.57087 0.07827
3353.28510 0.07835
3351.99933 0.07852
3350.71356 0.07866
3349.42779 0.07862
3348.14202 0.07837
3346.85626 0.07808
3345.57049 0.07811
3344.28472 0.07879
3342.99895 0.08006
3341.71318 0.08134
3340.42741 0.08197
3339.14164 0.08167
3337.85587 0.08086
3336.57011 0.08023
3335.28434 0.08022
3333.99857 0.08069
3332.71280 0.08118
3331.42703 0.08136
3330.14126 0.08128
3328.85549 0.08113
3327.56972 0.08108
3326.28395 0.08109
3324.99819 0.08105
3323.71242 0.08092
3322.42665 0.08076
3321.14088 0.08071
3319.85511 0.08082
3318.56934 0.08102
3317.28357 0.08120
3315.99780 0.08133
3314.71204 0.08151
3313.42627 0.08184
3312.14050 0.08220
3310.85473 0.08240
3309.56896 0.08247
3308.28319 0.08262
3306.99742 0.08293
3305.71165 0.08316
3304.42588 0.08305
3303.14012 0.08267
3301.85435 0.08240
3300.56858 0.08258
3299.28281 0.08313
3297.99704 0.08357
3296.71127 0.08339
3295.42550 0.08257
3294.13973 0.08163
3292.85397 0.08116
3291.56820 0.08134
3290.28243 0.08184
3288.99666 0.08231
3287.71089 0.08267
3286.42512 0.08295
3285.13935 0.08310
3283.85358 0.08299
3282.56781 0.08261
3281.28205 0.08212
3279.99628 0.08166
3278.71051 0.08128
3277.42474 0.08104
3276.13897 0.08095
3274.85320 0.08095
3273.56743 0.08087
3272.28166 0.08075
3270.99590 0.08081
3269.71013 0.08127
3268.42436 0.08196
3267.13859 0.08252
3265.85282 0.08266
3264.56705 0.08244
3263.28128 0.08215
3261.99551 0.08202
3260.70974 0.08210
3259.42398 0.08221
3258.13821 0.08209
3256.85244 0.08161
3255.56667 0.08097
3254.28090 0.08050
3252.99513 0.08040
3251.70936 0.08056
3250.42359 0.08081
3249.13783 0.08098
3247.85206 0.08096
3246.56629 0.08063
3245.28052 0.07997
3243.99475 0.07909
3242.70898 0.07831
3241.42321 0.07802
3240.13744 0.07833
3238.85167 0.07894
3237.56591 0.07940
3236.28014 0.07948
3234.99437 0.07922
3233.70860 0.07877
3232.42283 0.07830
3231.13706 0.07804
3229.85129 0.07813
3228.56552 0.07834
3227.27976 0.07828
3225.99399 0.07779
3224.70822 0.07711
3223.42245 0.07662
3222.13668 0.07657
3220.85091 0.07690
3219.56514 0.07736
3218.27937 0.07769
3216.99360 0.07783
3215.70784 0.07796
3214.42207 0.07825
3213.13630 0.07860
3211.85053 0.07874
3210.56476 0.07849
3209.27899 0.07798
3207.99322 0.07748
3206.70745 0.07711
3205.42169 0.07683
3204.13592 0.07663
3202.85015 0.07670
3201.56438 0.07716
3200.27861 0.07776
3198.99284 0.07804
3197.70707 0.07778
3196.42130 0.07722
3195.13553 0.07676
3193.84977 0.07657
3192.56400 0.07656
3191.27823 0.07661
3189.99246 0.07668
3188.70669 0.07675
3187.42092 0.07681
3186.13515 0.07688
3184.84938 0.07693
3183.56362 0.07689
3182.27785 0.07669
3180.99208 0.07635
3179.70631 0.07595
3178.42054 0.07544
3177.13477 0.07479
3175.84900 0.07405
3174.56323 0.07341
3173.27746 0.07303
3171.99170 0.07291
3170.70593 0.07289
3169.42016 0.07287
3168.13439 0.07275
3166.84862 0.07257
3165.56285 0.07238
3164.27708 0.07232
3162.99131 0.07249
3161.70555 0.07285
3160.41978 0.07328
3159.13401 0.07351
3157.84824 0.07330
3156.56247 0.07254
3155.27670 0.07147
3153.99093 0.07059
3152.70516 0.07030
3151.41939 0.07063
3150.13363 0.07116
3148.84786 0.07144
3147.56209 0.07131
3146.27632 0.07098
3144.99055 0.07076
3143.70478 0.07083
3142.41901 0.07109
3141.13324 0.07128
3139.84748 0.07122
3138.56171 0.07099
3137.27594 0.07087
3135.99017 0.07099
3134.70440 0.07128
3133.41863 0.07158
3132.13286 0.07182
3130.84709 0.07191
3129.56132 0.07166
3128.27556 0.07104
3126.98979 0.07032
3125.70402 0.06994
3124.41825 0.06996
3123.13248 0.07011
3121.84671 0.07007
3120.56094 0.06980
3119.27517 0.06945
3117.98940 0.06917
3116.70364 0.06903
3115.41787 0.06898
3114.13210 0.06894
3112.84633 0.06885
3111.56056 0.06868
3110.27479 0.06843
3108.98902 0.06811
3107.70325 0.06780
3106.41749 0.06759
3105.13172 0.06748
3103.84595 0.06747
3102.56018 0.06763
3101.27441 0.06799
3099.98864 0.06837
3098.70287 0.06847
3097.41710 0.06819
3096.13133 0.06774
3094.84557 0.06747
3093.55980 0.06750
3092.27403 0.06774
3090.98826 0.06800
3089.70249 0.06812
3088.41672 0.06802
3087.13095 0.06771
3085.84518 0.06743
3084.55942 0.06745
3083.27365 0.06787
3081.98788 0.06849
3080.70211 0.06890
3079.41634 0.06883
3078.13057 0.06834
3076.84480 0.06770
3075.55903 0.06720
3074.27326 0.06698
3072.98750 0.06701
3071.70173 0.06720
3070.41596 0.06752
3069.13019 0.06792
3067.84442 0.06820
3066.55865 0.06819
3065.27288 0.06793
3063.98711 0.06767
3062.70135 0.06755
3061.41558 0.06750
3060.12981 0.06734
3058.84404 0.06705
3057.55827 0.06667
3056.27250 0.06621
3054.98673 0.06568
3053.70096 0.06522
3052.41519 0.06507
3051.12943 0.06535
3049.84366 0.06586
3048.55789 0.06617
3047.27212 0.06600
3045.98635 0.06544
3044.70058 0.06485
3043.41481 0.06457
3042.12904 0.06465
3040.84328 0.06484
3039.55751 0.06488
3038.27174 0.06468
3036.98597 0.06443
3035.70020 0.06432
3034.41443 0.06434
3033.12866 0.06433
3031.84289 0.06418
3030.55712 0.06393
3029.27136 0.06371
3027.98559 0.06355
3026.69982 0.06336
3025.41405 0.06310
3024.12828 0.06282
3022.84251 0.06263
3021.55674 0.06255
3020.27097 0.06258
3018.98521 0.06270
3017.69944 0.06283
3016.41367 0.06285
3015.12790 0.06270
3013.84213 0.06247
3012.55636 0.06227
3011.27059 0.06212
3009.98482 0.06200
3008.69905 0.06195
3007.41329 0.06205
3006.12752 0.06228
3004.84175 0.06243
3003.55598 0.06236
3002.27021 0.06224
3000.98444 0.06215
2999.69867 0.06167
2998.41290 0.06168
2997.12714 0.06182
2995.84137 0.06206
2994.55560 0.06234
2993.26983 0.06257
2991.98406 0.06268
2990.69829 0.06269
2989.41252 0.06264
2988.12675 0.06256
2986.84098 0.06243
2985.55522 0.06231
2984.26945 0.06229
2982.98368 0.06237
2981.69791 0.06247
2980.41214 0.06254
2979.12637 0.06269
2977.84060 0.06305
2976.55483 0.06356
2975.26907 0.06398
2973.98330 0.06421
2972.69753 0.06443
2971.41176 0.06484
2970.12599 0.06546
2968.84022 0.06610
2967.55445 0.06661
2966.26868 0.06700
2964.98291 0.06738
2963.69715 0.06787
2962.41138 0.06847
2961.12561 0.06912
2959.83984 0.06977
2958.55407 0.07045
2957.26830 0.07116
2955.98253 0.07177
2954.69676 0.07214
2953.41100 0.07232
2952.12523 0.07245
2950.83946 0.07253
2949.55369 0.07251
2948.26792 0.07236
2946.98215 0.07210
2945.69638 0.07174
2944.41061 0.07137
2943.12484 0.07122
2941.83908 0.07144
2940.55331 0.07195
2939.26754 0.07245
2937.98177 0.07274
2936.69600 0.07282
2935.41023 0.07288
2934.12446 0.07315
2932.83869 0.07375
2931.55293 0.07451
2930.26716 0.07513
2928.98139 0.07546
2927.69562 0.07567
2926.40985 0.07589
2925.12408 0.07604
2923.83831 0.07592
2922.55254 0.07558
2921.26677 0.07523
2919.98101 0.07495
2918.69524 0.07462
2917.40947 0.07411
2916.12370 0.07349
2914.83793 0.07282
2913.55216 0.07217
2912.26639 0.07159
2910.98062 0.07121
2909.69486 0.07103
2908.40909 0.07088
2907.12332 0.07055
2905.83755 0.07003
2904.55178 0.06952
2903.26601 0.06923
2901.98024 0.06916
2900.69447 0.06912
2899.40870 0.06890
2898.12294 0.06840
2896.83717 0.06767
2895.55140 0.06685
2894.26563 0.06616
2892.97986 0.06572
2891.69409 0.06548
2890.40832 0.06524
2889.12255 0.06478
2887.83678 0.06416
2886.55102 0.06364
2885.26525 0.06346
2883.97948 0.06368
2882.69371 0.06412
2881.40794 0.06455
2880.12217 0.06477
2878.83640 0.06472
2877.55063 0.06456
2876.26487 0.06454
2874.97910 0.06473
2873.69333 0.06494
2872.40756 0.06500
2871.12179 0.06495
2869.83602 0.06496
2868.55025 0.06509
2867.26448 0.06522
2865.97871 0.06519
2864.69295 0.06493
2863.40718 0.06451
2862.12141 0.06412
2860.83564 0.06393
2859.54987 0.06395
2858.26410 0.06399
2856.97833 0.06384
2855.69256 0.06351
2854.40680 0.06315
2853.12103 0.06291
2851.83526 0.06276
2850.54949 0.06259
2849.26372 0.06233
2847.97795 0.06201
2846.69218 0.06167
2845.40641 0.06140
2844.12064 0.06120
2842.83488 0.06089
2841.54911 0.06028
2840.26334 0.05935
2838.97757 0.05837
2837.69180 0.05760
2836.40603 0.05708
2835.12026 0.05668
2833.83449 0.05632
2832.54873 0.05597
2831.26296 0.05564
2829.97719 0.05529
2828.69142 0.05492
2827.40565 0.05461
2826.11988 0.05445
2824.83411 0.05442
2823.54834 0.05448
2822.26257 0.05452
2820.97681 0.05444
2819.69104 0.05421
2818.40527 0.05388
2817.11950 0.05355
2815.83373 0.05332
2814.54796 0.05316
2813.26219 0.05303
2811.97642 0.05292
2810.69066 0.05281
2809.40489 0.05266
2808.11912 0.05249
2806.83335 0.05232
2805.54758 0.05214
2804.26181 0.05191
2802.97604 0.05164
2801.69027 0.05144
2800.40450 0.05144
2799.11874 0.05159
2797.83297 0.05171
2796.54720 0.05164
2795.26143 0.05138
2793.97566 0.05104
2792.68989 0.05072
2791.40412 0.05050
2790.11835 0.05046
2788.83259 0.05055
2787.54682 0.05064
2786.26105 0.05062
2784.97528 0.05054
2783.68951 0.05049
2782.40374 0.05052
2781.11797 0.05060
2779.83220 0.05071
2778.54643 0.05077
2777.26067 0.05077
2775.97490 0.05074
2774.68913 0.05072
2773.40336 0.05065
2772.11759 0.05041
2770.83182 0.05002
2769.54605 0.04967
2768.26028 0.04949
2766.97452 0.04946
2765.68875 0.04942
2764.40298 0.04931
2763.11721 0.04918
2761.83144 0.04908
2760.54567 0.04898
2759.25990 0.04883
2757.97413 0.04862
2756.68836 0.04843
2755.40260 0.04840
2754.11683 0.04861
2752.83106 0.04888
2751.54529 0.04897
2750.25952 0.04881
2748.97375 0.04860
2747.68798 0.04852
2746.40221 0.04846
2745.11645 0.04832
2743.83068 0.04817
2742.54491 0.04819
2741.25914 0.04836
2739.97337 0.04849
2738.68760 0.04848
2737.40183 0.04837
2736.11606 0.04816
2734.83029 0.04780
2733.54453 0.04739
2732.25876 0.04716
2730.97299 0.04722
2729.68722 0.04736
2728.40145 0.04732
2727.11568 0.04709
2725.82991 0.04683
2724.54414 0.04666
2723.25838 0.04661
2721.97261 0.04663
2720.68684 0.04668
2719.40107 0.04667
2718.11530 0.04658
2716.82953 0.04645
2715.54376 0.04635
2714.25799 0.04632
2712.97222 0.04630
2711.68646 0.04627
2710.40069 0.04622
2709.11492 0.04614
2707.82915 0.04607
2706.54338 0.04598
2705.25761 0.04590
2703.97184 0.04585
2702.68607 0.04580
2701.40031 0.04566
2700.11454 0.04541
2698.82877 0.04513
2697.54300 0.04492
2696.25723 0.04484
2694.97146 0.04485
2693.68569 0.04490
2692.39992 0.04488
2691.11415 0.04473
2689.82839 0.04453
2688.54262 0.04442
2687.25685 0.04445
2685.97108 0.04453
2684.68531 0.04458
2683.39954 0.04460
2682.11377 0.04461
2680.82800 0.04464
2679.54224 0.04466
2678.25647 0.04463
2676.97070 0.04449
2675.68493 0.04428
2674.39916 0.04411
2673.11339 0.04407
2671.82762 0.04411
2670.54185 0.04417
2669.25608 0.04421
2667.97032 0.04421
2666.68455 0.04413
2665.39878 0.04400
2664.11301 0.04394
2662.82724 0.04404
2661.54147 0.04429
2660.25570 0.04454
2658.96993 0.04467
2657.68417 0.04465
2656.39840 0.04455
2655.11263 0.04451
2653.82686 0.04458
2652.54109 0.04467
2651.25532 0.04454
2649.96955 0.04407
2648.68378 0.04342
2647.39801 0.04283
2646.11225 0.04245
2644.82648 0.04229
2643.54071 0.04230
2642.25494 0.04245
2640.96917 0.04272
2639.68340 0.04302
2638.39763 0.04322
2637.11186 0.04316
2635.82609 0.04279
2634.54033 0.04222
2633.25456 0.04169
2631.96879 0.04141
2630.68302 0.04146
2629.39725 0.04178
2628.11148 0.04219
2626.82571 0.04248
2625.53994 0.04246
2624.25418 0.04209
2622.96841 0.04148
2621.68264 0.04080
2620.39687 0.04022
2619.11110 0.03985
2617.82533 0.03974
2616.53956 0.03985
2615.25379 0.04009
2613.96802 0.04034
2612.68226 0.04045
2611.39649 0.04031
2610.11072 0.03993
2608.82495 0.03942
2607.53918 0.03891
2606.25341 0.03850
2604.96764 0.03826
2603.68187 0.03817
2602.39611 0.03820
2601.11034 0.03827
2599.82457 0.03830
2598.53880 0.03822
2597.25303 0.03800
2595.96726 0.03771
2594.68149 0.03746
2593.39572 0.03733
2592.10995 0.03732
2590.82419 0.03739
2589.53842 0.03748
2588.25265 0.03751
2586.96688 0.03746
2585.68111 0.03732
2584.39534 0.03711
2583.10957 0.03683
2581.82380 0.03653
2580.53804 0.03629
2579.25227 0.03621
2577.96650 0.03633
2576.68073 0.03653
2575.39496 0.03660
2574.10919 0.03646
2572.82342 0.03614
2571.53765 0.03578
2570.25188 0.03552
2568.96612 0.03546
2567.68035 0.03569
2566.39458 0.03604
2565.10881 0.03617
2563.82304 0.03586
2562.53727 0.03528
2561.25150 0.03472
2559.96573 0.03436
2558.67997 0.03409
2557.39420 0.03379
2556.10843 0.03351
2554.82266 0.03347
2553.53689 0.03378
2552.25112 0.03421
2550.96535 0.03446
2549.67958 0.03447
2548.39381 0.03445
2547.10805 0.03456
2545.82228 0.03472
2544.53651 0.03480
2543.25074 0.03480
2541.96497 0.03478
2540.67920 0.03462
2539.39343 0.03426
2538.10766 0.03381
2536.82190 0.03348
2535.53613 0.03336
2534.25036 0.03339
2532.96459 0.03354
2531.67882 0.03372
2530.39305 0.03374
2529.10728 0.03346
2527.82151 0.03298
2526.53574 0.03260
2525.24998 0.03252
2523.96421 0.03270
2522.67844 0.03301
2521.39267 0.03331
2520.10690 0.03347
2518.82113 0.03342
2517.53536 0.03319
2516.24959 0.03290
2514.96383 0.03271
2513.67806 0.03268
2512.39229 0.03285
2511.10652 0.03316
2509.82075 0.03343
2508.53498 0.03343
2507.24921 0.03303
2505.96344 0.03240
2504.67767 0.03188
2503.39191 0.03167
2502.10614 0.03176
2500.82037 0.03203
2499.53460 0.03237
2498.24883 0.03266
2496.96306 0.03276
2495.67729 0.03264
2494.39152 0.03246
2493.10576 0.03242
2491.81999 0.03255
2490.53422 0.03274
2489.24845 0.03287
2487.96268 0.03293
2486.67691 0.03293
2485.39114 0.03292
2484.10537 0.03291
2482.81960 0.03295
2481.53384 0.03304
2480.24807 0.03303
2478.96230 0.03276
2477.67653 0.03230
2476.39076 0.03193
2475.10499 0.03185
2473.81922 0.03196
2472.53345 0.03193
2471.24769 0.03165
2469.96192 0.03132
2468.67615 0.03119
2467.39038 0.03129
2466.10461 0.03145
2464.81884 0.03166
2463.53307 0.03205
2462.24730 0.03269
2460.96153 0.03338
2459.67577 0.03382
2458.39000 0.03383
2457.10423 0.03352
2455.81846 0.03310
2454.53269 0.03275
2453.24692 0.03258
2451.96115 0.03256
2450.67538 0.03261
2449.38962 0.03263
2448.10385 0.03259
2446.81808 0.03252
2445.53231 0.03242
2444.24654 0.03227
2442.96077 0.03207
2441.67500 0.03188
2440.38923 0.03178
2439.10346 0.03185
2437.81770 0.03204
2436.53193 0.03216
2435.24616 0.03209
2433.96039 0.03187
2432.67462 0.03173
2431.38885 0.03186
2430.10308 0.03218
2428.81731 0.03241
2427.53155 0.03233
2426.24578 0.03198
2424.96001 0.03162
2423.67424 0.03142
2422.38847 0.03130
2421.10270 0.03106
2419.81693 0.03067
2418.53116 0.03028
2417.24539 0.03001
2415.95963 0.02990
2414.67386 0.02998
2413.38809 0.03026
2412.10232 0.03060
2410.81655 0.03082
2409.53078 0.03085
2408.24501 0.03070
2406.95924 0.03036
2405.67347 0.02990
2404.38771 0.02954
2403.10194 0.02948
2401.81617 0.02971
2400.53040 0.03001
2399.24463 0.03096
2397.95886 0.03037
2396.67309 0.02998
2395.38732 0.03012
2394.10156 0.03039
2392.81579 0.03057
2391.53002 0.03056
2390.24425 0.03034
2388.95848 0.02998
2387.67271 0.02964
2386.38694 0.02943
2385.10117 0.02942
2383.81540 0.02955
2382.52964 0.02968
2381.24387 0.02971
2379.95810 0.02959
2378.67233 0.02944
2377.38656 0.02933
2376.10079 0.02932
2374.81502 0.02950
2373.52925 0.02996
2372.24349 0.03061
2370.95772 0.03117
2369.67195 0.03148
2368.38618 0.03158
2367.10041 0.03157
2365.81464 0.03148
2364.52887 0.03138
2363.24310 0.03139
2361.95733 0.03154
2360.67157 0.03180
2359.38580 0.03195
2358.10003 0.03190
2356.81426 0.03172
2355.52849 0.03152
2354.24272 0.03132
2352.95695 0.03118
2351.67118 0.03125
2350.38542 0.03151
2349.09965 0.03183
2347.81388 0.03213
2346.52811 0.03240
2345.24234 0.03252
2343.95657 0.03241
2342.67080 0.03220
2341.38503 0.03234
2340.09926 0.03273
2338.81350 0.03274
2337.52773 0.03235
2336.24196 0.03213
2334.95619 0.03201
2333.67042 0.03166
2332.38465 0.03125
2331.09888 0.03134
2329.81311 0.03140
2328.52735 0.03137
2327.24158 0.03182
2325.95581 0.03266
2324.67004 0.03349
2323.38427 0.03405
2322.09850 0.03435
2320.81273 0.03423
2319.52696 0.03388
2318.24119 0.03342
2316.95543 0.03286
2315.66966 0.03234
2314.38389 0.03188
2313.09812 0.03154
2311.81235 0.03137
2310.52658 0.03121
2309.24081 0.03101
2307.95504 0.03078
2306.66928 0.03047
2305.38351 0.03010
2304.09774 0.02977
2302.81197 0.02963
2301.52620 0.02968
2300.24043 0.02968
2298.95466 0.02943
2297.66889 0.02902
2296.38312 0.02874
2295.09736 0.02877
2293.81159 0.02895
2292.52582 0.02902
2291.24005 0.02894
2289.95428 0.02897
2288.66851 0.02927
2287.38274 0.02968
2286.09697 0.02989
2284.81121 0.02973
2283.52544 0.02939
2282.23967 0.02915
2280.95390 0.02912
2279.66813 0.02908
2278.38236 0.02881
2277.09659 0.02827
2275.81082 0.02768
2274.52505 0.02733
2273.23929 0.02731
2271.95352 0.02744
2270.66775 0.02737
2269.38198 0.02686
2268.09621 0.02604
2266.81044 0.02531
2265.52467 0.02494
2264.23890 0.02475
2262.95314 0.02437
2261.66737 0.02368
2260.38160 0.02294
2259.09583 0.02250
2257.81006 0.02237
2256.52429 0.02221
2255.23852 0.02185
2253.95275 0.02156
2252.66698 0.02170
2251.38122 0.02207
2250.09545 0.02268
2248.80968 0.02442
2247.52391 0.02426
2246.23814 0.02385
2244.95237 0.02365
2243.66660 0.02351
2242.38083 0.02312
2241.09507 0.02247
2239.80930 0.02192
2238.52353 0.02173
2237.23776 0.02195
2235.95199 0.02252
2234.66622 0.02329
2233.38045 0.02391
2232.09468 0.02405
2230.80891 0.02363
2229.52315 0.02275
2228.23738 0.02152
2226.95161 0.02009
2225.66584 0.01879
2224.38007 0.01811
2223.09430 0.01835
2221.80853 0.01935
2220.52276 0.02063
2219.23700 0.02175
2217.95123 0.02245
2216.66546 0.02269
2215.37969 0.02255
2214.09392 0.02224
2212.80815 0.02195
2211.52238 0.02162
2210.23661 0.02109
2208.95084 0.02039
2207.66508 0.01974
2206.37931 0.01927
2205.09354 0.01896
2203.80777 0.01873
2202.52200 0.01846
2201.23623 0.01804
2199.95046 0.01750
2198.66469 0.01707
2197.37893 0.01679
2196.09316 0.01651
2194.80739 0.01622
2193.52162 0.01631
2192.23585 0.01697
2190.95008 0.01778
2189.66431 0.01820
2188.37854 0.01805
2187.09277 0.01749
2185.80701 0.01661
2184.52124 0.01549
2183.23547 0.01459
2181.94970 0.01446
2180.66393 0.01518
2179.37816 0.01609
2178.09239 0.01633
2176.80662 0.01555
2175.52085 0.01425
2174.23509 0.01334
2172.94932 0.01338
2171.66355 0.01425
2170.37778 0.01555
2169.09201 0.01688
2167.80624 0.01776
2166.52047 0.01768
2165.23470 0.01654
2163.94894 0.01477
2162.66317 0.01290
2161.37740 0.01116
2160.09163 0.00965
2158.80586 0.00872
2157.52009 0.00861
2156.23432 0.00906
2154.94855 0.00929
2153.66278 0.00869
2152.37702 0.00748
2151.09125 0.00672
2149.80548 0.00726
2148.51971 0.00893
2147.23394 0.01080
2145.94817 0.01207
2144.66240 0.01248
2143.37663 0.01216
2142.09087 0.01162
2140.80510 0.01148
2139.51933 0.01189
2138.23356 0.01224
2136.94779 0.01198
2135.66202 0.01137
2134.37625 0.01121
2133.09048 0.01175
2131.80471 0.01246
2130.51895 0.01283
2129.23318 0.01295
2127.94741 0.01321
2126.66164 0.01384
2125.37587 0.01476
2124.09010 0.01576
2122.80433 0.01664
2121.51856 0.01725
2120.23280 0.01761
2118.94703 0.01791
2117.66126 0.01832
2116.37549 0.01876
2115.08972 0.01888
2113.80395 0.01850
2112.51818 0.01785
2111.23241 0.01745
2109.94664 0.01752
2108.66088 0.01779
2107.37511 0.01781
2106.08934 0.01749
2104.80357 0.01707
2103.51780 0.01678
2102.23203 0.01659
2100.94626 0.01633
2099.66049 0.01592
2098.37473 0.01578
2097.08896 0.01538
2095.80319 0.01481
2094.51742 0.01445
2093.23165 0.01458
2091.94588 0.01514
2090.66011 0.01576
2089.37434 0.01604
2088.08857 0.01591
2086.80281 0.01566
2085.51704 0.01557
2084.23127 0.01570
2082.94550 0.01590
2081.65973 0.01598
2080.37396 0.01586
2079.08819 0.01559
2077.80242 0.01527
2076.51666 0.01494
2075.23089 0.01462
2073.94512 0.01443
2072.65935 0.01456
2071.37358 0.01499
2070.08781 0.01541
2068.80204 0.01543
2067.51627 0.01488
2066.23050 0.01394
2064.94474 0.01295
2063.65897 0.01219
2062.37320 0.01172
2061.08743 0.01150
2059.80166 0.01156
2058.51589 0.01204
2057.23012 0.01296
2055.94435 0.01408
2054.65859 0.01497
2053.37282 0.01530
2052.08705 0.01504
2050.80128 0.01436
2049.51551 0.01355
2048.22974 0.01285
2046.94397 0.01224
2045.65820 0.01143
2044.37243 0.01026
2043.08667 0.00909
2041.80090 0.00862
2040.51513 0.00921
2039.22936 0.01043
2037.94359 0.01131
2036.65782 0.01126
2035.37205 0.01050
2034.08628 0.00966
2032.80052 0.00901
2031.51475 0.00826
2030.22898 0.00719
2028.94321 0.00617
2027.65744 0.00590
2026.37167 0.00656
2025.08590 0.00750
2023.80013 0.00788
2022.51436 0.00739
2021.22860 0.00654
2019.94283 0.00602
2018.65706 0.00614
2017.37129 0.00667
2016.08552 0.00715
2014.79975 0.00734
2013.51398 0.00745
2012.22821 0.00783
2010.94245 0.00845
2009.65668 0.00878
2008.37091 0.00845
2007.08514 0.00774
2005.79937 0.00720
2004.51360 0.00716
2003.22783 0.00753
2001.94206 0.00829
2000.65629 0.00947
1999.37053 0.01089
1998.08476 0.01203
1996.79899 0.01243
1995.51322 0.01223
1994.22745 0.01206
1992.94168 0.01248
1991.65591 0.01342
1990.37014 0.01427
1989.08438 0.01463
1987.79861 0.01459
1986.51284 0.01448
1985.22707 0.01440
1983.94130 0.01425
1982.65553 0.01390
1981.36976 0.01323
1980.08399 0.01223
1978.79822 0.01108
1977.51246 0.01022
1976.22669 0.01001
1974.94092 0.01036
1973.65515 0.01092
1972.36938 0.01155
1971.08361 0.01231
1969.79784 0.01315
1968.51207 0.01372
1967.22631 0.01363
1965.94054 0.01301
1964.65477 0.01243
1963.36900 0.01237
1962.08323 0.01272
1960.79746 0.01301
1959.51169 0.01305
1958.22592 0.01301
1956.94015 0.01303
1955.65439 0.01296
1954.36862 0.01266
1953.08285 0.01227
1951.79708 0.01217
1950.51131 0.01255
1949.22554 0.01331
1947.93977 0.01414
1946.65400 0.01480
1945.36823 0.01517
1944.08247 0.01529
1942.79670 0.01527
1941.51093 0.01523
1940.22516 0.01523
1938.93939 0.01525
1937.65362 0.01522
1936.36785 0.01506
1935.08208 0.01480
1933.79632 0.01461
1932.51055 0.01464
1931.22478 0.01491
1929.93901 0.01529
1928.65324 0.01570
1927.36747 0.01607
1926.08170 0.01634
1924.79593 0.01649
1923.51016 0.01666
1922.22440 0.01704
1920.93863 0.01755
1919.65286 0.01782
1918.36709 0.01761
1917.08132 0.01709
1915.79555 0.01663
1914.50978 0.01643
1913.22401 0.01640
1911.93825 0.01641
1910.65248 0.01637
1909.36671 0.01627
1908.08094 0.01610
1906.79517 0.01587
1905.50940 0.01563
1904.22363 0.01542
1902.93786 0.01528
1901.65209 0.01525
1900.36633 0.01534
1899.08056 0.01553
1897.79479 0.01576
1896.50902 0.01595
1895.22325 0.01609
1893.93748 0.01617
1892.65171 0.01622
1891.36594 0.01627
1890.08018 0.01631
1888.79441 0.01635
1887.50864 0.01642
1886.22287 0.01652
1884.93710 0.01661
1883.65133 0.01666
1882.36556 0.01670
1881.07979 0.01673
1879.79402 0.01671
1878.50826 0.01662
1877.22249 0.01655
1875.93672 0.01658
1874.65095 0.01673
1873.36518 0.01693
1872.07941 0.01707
1870.79364 0.01704
1869.50787 0.01688
1868.22211 0.01671
1866.93634 0.01665
1865.65057 0.01671
1864.36480 0.01675
1863.07903 0.01665
1861.79326 0.01638
1860.50749 0.01613
1859.22172 0.01609
1857.93595 0.01630
1856.65019 0.01663
1855.36442 0.01685
1854.07865 0.01688
1852.79288 0.01681
1851.50711 0.01676
1850.22134 0.01677
1848.93557 0.01682
1847.64980 0.01686
1846.36404 0.01691
1845.07827 0.01696
1843.79250 0.01702
1842.50673 0.01706
1841.22096 0.01704
1839.93519 0.01701
1838.64942 0.01700
1837.36365 0.01704
1836.07788 0.01709
1834.79212 0.01716
1833.50635 0.01719
1832.22058 0.01719
1830.93481 0.01717
1829.64904 0.01719
1828.36327 0.01724
1827.07750 0.01723
1825.79173 0.01713
1824.50597 0.01703
1823.22020 0.01700
1821.93443 0.01701
1820.64866 0.01695
1819.36289 0.01677
1818.07712 0.01658
1816.79135 0.01648
1815.50558 0.01650
1814.21981 0.01658
1812.93405 0.01664
1811.64828 0.01667
1810.36251 0.01671
1809.07674 0.01679
1807.79097 0.01691
1806.50520 0.01709
1805.21943 0.01731
1803.93366 0.01752
1802.64790 0.01763
1801.36213 0.01760
1800.07636 0.01750
1798.79059 0.01743
1797.50482 0.01747
1796.21905 0.01762
1794.93328 0.01778
1793.64751 0.01786
1792.36174 0.01787
1791.07598 0.01793
1789.79021 0.01804
1788.50444 0.01812
1787.21867 0.01807
1785.93290 0.01795
1784.64713 0.01788
1783.36136 0.01791
1782.07559 0.01796
1780.78983 0.01793
1779.50406 0.01784
1778.21829 0.01777
1776.93252 0.01778
1775.64675 0.01780
1774.36098 0.01775
1773.07521 0.01763
1771.78944 0.01756
1770.50367 0.01757
1769.21791 0.01764
1767.93214 0.01774
1766.64637 0.01790
1765.36060 0.01811
1764.07483 0.01831
1762.78906 0.01844
1761.50329 0.01850
1760.21752 0.01848
1758.93176 0.01837
1757.64599 0.01824
1756.36022 0.01815
1755.07445 0.01812
1753.78868 0.01806
1752.50291 0.01793
1751.21714 0.01782
1749.93137 0.01782
1748.64560 0.01789
1747.35984 0.01798
1746.07407 0.01803
1744.78830 0.01808
1743.50253 0.01812
1742.21676 0.01816
1740.93099 0.01816
1739.64522 0.01817
1738.35945 0.01823
1737.07369 0.01830
1735.78792 0.01832
1734.50215 0.01838
1733.21638 0.01853
1731.93061 0.01872
1730.64484 0.01885
1729.35907 0.01893
1728.07330 0.01900
1726.78753 0.01904
1725.50177 0.01904
1724.21600 0.01906
1722.93023 0.01919
1721.64446 0.01948
1720.35869 0.01979
1719.07292 0.02001
1717.78715 0.02018
1716.50138 0.02039
1715.21561 0.02071
1713.92985 0.02115
1712.64408 0.02169
1711.35831 0.02230
1710.07254 0.02295
1708.78677 0.02361
1707.50100 0.02426
1706.21523 0.02491
1704.92946 0.02563
1703.64370 0.02638
1702.35793 0.02710
1701.07216 0.02783
1699.78639 0.02873
1698.50062 0.02975
1697.21485 0.03070
1695.92908 0.03159
1694.64331 0.03254
1693.35754 0.03354
1692.07178 0.03448
1690.78601 0.03540
1689.50024 0.03646
1688.21447 0.03762
1686.92870 0.03871
1685.64293 0.03964
1684.35716 0.04055
1683.07139 0.04156
1681.78563 0.04260
1680.49986 0.04359
1679.21409 0.04456
1677.92832 0.04551
1676.64255 0.04642
1675.35678 0.04736
1674.07101 0.04839
1672.78524 0.04944
1671.49947 0.05043
1670.21371 0.05138
1668.92794 0.05236
1667.64217 0.05337
1666.35640 0.05433
1665.07063 0.05523
1663.78486 0.05610
1662.49909 0.05698
1661.21332 0.05785
1659.92756 0.05866
1658.64179 0.05943
1657.35602 0.06019
1656.07025 0.06088
1654.78448 0.06140
1653.49871 0.06186
1652.21294 0.06244
1650.92717 0.06306
1649.64140 0.06348
1648.35564 0.06362
1647.06987 0.06366
1645.78410 0.06377
1644.49833 0.06392
1643.21256 0.06401
1641.92679 0.06399
1640.64102 0.06387
1639.35525 0.06369
1638.06949 0.06338
1636.78372 0.06294
1635.49795 0.06246
1634.21218 0.06198
1632.92641 0.06147
1631.64064 0.06086
1630.35487 0.06017
1629.06910 0.05949
1627.78333 0.05884
1626.49757 0.05819
1625.21180 0.05750
1623.92603 0.05678
1622.64026 0.05613
1621.35449 0.05560
1620.06872 0.05511
1618.78295 0.05457
1617.49718 0.05399
1616.21142 0.05350
1614.92565 0.05316
1613.63988 0.05289
1612.35411 0.05261
1611.06834 0.05231
1609.78257 0.05204
1608.49680 0.05184
1607.21103 0.05172
1605.92526 0.05168
1604.63950 0.05171
1603.35373 0.05178
1602.06796 0.05185
1600.78219 0.05193
1599.49642 0.05202
1598.21065 0.05214
1596.92488 0.05232
1595.63911 0.05258
1594.35335 0.05290
1593.06758 0.05324
1591.78181 0.05356
1590.49604 0.05386
1589.21027 0.05417
1587.92450 0.05456
1586.63873 0.05503
1585.35296 0.05553
1584.06719 0.05605
1582.78143 0.05659
1581.49566 0.05722
1580.20989 0.05795
1578.92412 0.05868
1577.63835 0.05930
1576.35258 0.05987
1575.06681 0.06053
1573.78104 0.06126
1572.49528 0.06197
1571.20951 0.06259
1569.92374 0.06317
1568.63797 0.06377
1567.35220 0.06437
1566.06643 0.06494
1564.78066 0.06554
1563.49489 0.06616
1562.20912 0.06669
1560.92336 0.06703
1559.63759 0.06726
1558.35182 0.06755
1557.06605 0.06790
1555.78028 0.06815
1554.49451 0.06826
1553.20874 0.06830
1551.92297 0.06831
1550.63721 0.06828
1549.35144 0.06821
1548.06567 0.06813
1546.77990 0.06799
1545.49413 0.06782
1544.20836 0.06763
1542.92259 0.06738
1541.63682 0.06698
1540.35105 0.06647
1539.06529 0.06602
1537.77952 0.06567
1536.49375 0.06533
1535.20798 0.06494
1533.92221 0.06460
1532.63644 0.06445
1531.35067 0.06444
1530.06490 0.06449
1528.77914 0.06454
1527.49337 0.06459
1526.20760 0.06467
1524.92183 0.06478
1523.63606 0.06491
1522.35029 0.06509
1521.06452 0.06541
1519.77875 0.06590
1518.49298 0.06643
1517.20722 0.06696
1515.92145 0.06754
1514.63568 0.06822
1513.34991 0.06901
1512.06414 0.06991
1510.77837 0.07090
1509.49260 0.07183
1508.20683 0.07259
1506.92107 0.07325
1505.63530 0.07397
1504.34953 0.07478
1503.06376 0.07557
1501.77799 0.07624
1500.49222 0.07684
1499.20645 0.07737
1497.92068 0.07782
1496.63491 0.07821
1495.34915 0.07858
1494.06338 0.07895
1492.77761 0.07932
1491.49184 0.07973
1490.20607 0.08028
1488.92030 0.08101
1487.63453 0.08183
1486.34876 0.08269
1485.06299 0.08356
1483.77723 0.08446
1482.49146 0.08542
1481.20569 0.08645
1479.91992 0.08755
1478.63415 0.08869
1477.34838 0.08985
1476.06261 0.09100
1474.77684 0.09209
1473.49108 0.09312
1472.20531 0.09410
1470.91954 0.09501
1469.63377 0.09576
1468.34800 0.09631
1467.06223 0.09672
1465.77646 0.09713
1464.49069 0.09763
1463.20492 0.09832
1461.91916 0.09917
1460.63339 0.10014
1459.34762 0.10111
1458.06185 0.10204
1456.77608 0.10297
1455.49031 0.10393
1454.20454 0.10479
1452.91877 0.10547
1451.63301 0.10601
1450.34724 0.10646
1449.06147 0.10684
1447.77570 0.10710
1446.48993 0.10722
1445.20416 0.10719
1443.91839 0.10706
1442.63262 0.10690
1441.34685 0.10676
1440.06109 0.10660
1438.77532 0.10638
1437.48955 0.10616
1436.20378 0.10612
1434.91801 0.10635
1433.63224 0.10682
1432.34647 0.10748
1431.06070 0.10829
1429.77494 0.10924
1428.48917 0.11033
1427.20340 0.11154
1425.91763 0.11290
1424.63186 0.11442
1423.34609 0.11602
1422.06032 0.11755
1420.77455 0.11892
1419.48878 0.12016
1418.20302 0.12132
1416.91725 0.12233
1415.63148 0.12310
1414.34571 0.12363
1413.05994 0.12398
1411.77417 0.12414
1410.48840 0.12407
1409.20263 0.12375
1407.91687 0.12316
1406.63110 0.12231
1405.34533 0.12124
1404.05956 0.11996
1402.77379 0.11848
1401.48802 0.11678
1400.20225 0.11489
1398.91648 0.11290
1397.63071 0.11085
1396.34495 0.10872
1395.05918 0.10653
1393.77341 0.10430
1392.48764 0.10207
1391.20187 0.09983
1389.91610 0.09760
1388.63033 0.09539
1387.34456 0.09325
1386.05880 0.09116
1384.77303 0.08907
1383.48726 0.08693
1382.20149 0.08476
1380.91572 0.08260
1379.62995 0.08048
1378.34418 0.07842
1377.05841 0.07638
1375.77264 0.07429
1374.48688 0.07215
1373.20111 0.07001
1371.91534 0.06795
1370.62957 0.06597
1369.34380 0.06408
1368.05803 0.06227
1366.77226 0.06055
1365.48649 0.05895
1364.20073 0.05746
1362.91496 0.05605
1361.62919 0.05470
1360.34342 0.05343
1359.05765 0.05228
1357.77188 0.05127
1356.48611 0.05037
1355.20034 0.04954
1353.91457 0.04874
1352.62881 0.04800
1351.34304 0.04733
1350.05727 0.04675
1348.77150 0.04623
1347.48573 0.04574
1346.19996 0.04524
1344.91419 0.04477
1343.62842 0.04431
1342.34266 0.04388
1341.05689 0.04344
1339.77112 0.04296
1338.48535 0.04245
1337.19958 0.04195
1335.91381 0.04147
1334.62804 0.04103
1333.34227 0.04062
1332.05650 0.04023
1330.77074 0.03985
1329.48497 0.03944
1328.19920 0.03897
1326.91343 0.03846
1325.62766 0.03795
1324.34189 0.03749
1323.05612 0.03710
1321.77035 0.03678
1320.48459 0.03648
1319.19882 0.03617
1317.91305 0.03583
1316.62728 0.03548
1315.34151 0.03513
1314.05574 0.03479
1312.76997 0.03446
1311.48420 0.03416
1310.19843 0.03389
1308.91267 0.03363
1307.62690 0.03338
1306.34113 0.03310
1305.05536 0.03278
1303.76959 0.03244
1302.48382 0.03210
1301.19805 0.03179
1299.91228 0.03148
1298.62652 0.03117
1297.34075 0.03086
1296.05498 0.03057
1294.76921 0.03033
1293.48344 0.03016
1292.19767 0.03003
1290.91190 0.02994
1289.62613 0.02985
1288.34036 0.02975
1287.05460 0.02963
1285.76883 0.02950
1284.48306 0.02938
1283.19729 0.02926
1281.91152 0.02916
1280.62575 0.02908
1279.33998 0.02898
1278.05421 0.02885
1276.76845 0.02869
1275.48268 0.02852
1274.19691 0.02837
1272.91114 0.02825
1271.62537 0.02813
1270.33960 0.02802
1269.05383 0.02792
1267.76806 0.02788
1266.48229 0.02790
1265.19653 0.02791
1263.91076 0.02787
1262.62499 0.02774
1261.33922 0.02758
1260.05345 0.02743
1258.76768 0.02735
1257.48191 0.02733
1256.19614 0.02737
1254.91037 0.02742
1253.62461 0.02745
1252.33884 0.02744
1251.05307 0.02739
1249.76730 0.02733
1248.48153 0.02725
1247.19576 0.02716
1245.90999 0.02709
1244.62422 0.02704
1243.33846 0.02701
1242.05269 0.02699
1240.76692 0.02693
1239.48115 0.02681
1238.19538 0.02667
1236.90961 0.02653
1235.62384 0.02642
1234.33807 0.02631
1233.05230 0.02620
1231.76654 0.02607
1230.48077 0.02590
1229.19500 0.02565
1227.90923 0.02535
1226.62346 0.02503
1225.33769 0.02478
1224.05192 0.02461
1222.76615 0.02445
1221.48039 0.02425
1220.19462 0.02400
1218.90885 0.02371
1217.62308 0.02344
1216.33731 0.02319
1215.05154 0.02296
1213.76577 0.02275
1212.48000 0.02256
1211.19423 0.02244
1209.90847 0.02239
1208.62270 0.02237
1207.33693 0.02234
1206.05116 0.02227
1204.76539 0.02217
1203.47962 0.02208
1202.19385 0.02194
1200.90808 0.02179
1199.62232 0.02188
1198.33655 0.02179
1197.05078 0.02165
1195.76501 0.02151
1194.47924 0.02137
1193.19347 0.02121
1191.90770 0.02104
1190.62193 0.02087
1189.33616 0.02073
1188.05040 0.02063
1186.76463 0.02054
1185.47886 0.02041
1184.19309 0.02023
1182.90732 0.02004
1181.62155 0.01990
1180.33578 0.01987
1179.05001 0.01993
1177.76425 0.02004
1176.47848 0.02015
1175.19271 0.02022
1173.90694 0.02023
1172.62117 0.02018
1171.33540 0.02012
1170.04963 0.02011
1168.76386 0.02022
1167.47809 0.02044
1166.19233 0.02069
1164.90656 0.02087
1163.62079 0.02096
1162.33502 0.02099
1161.04925 0.02099
1159.76348 0.02102
1158.47771 0.02112
1157.19194 0.02132
1155.90618 0.02159
1154.62041 0.02182
1153.33464 0.02200
1152.04887 0.02216
1150.76310 0.02236
1149.47733 0.02265
1148.19156 0.02300
1146.90579 0.02342
1145.62002 0.02391
1144.33426 0.02447
1143.04849 0.02512
1141.76272 0.02590
1140.47695 0.02679
1139.19118 0.02777
1137.90541 0.02883
1136.61964 0.02997
1135.33387 0.03124
1134.04811 0.03265
1132.76234 0.03421
1131.47657 0.03595
1130.19080 0.03791
1128.90503 0.04012
1127.61926 0.04257
1126.33349 0.04524
1125.04772 0.04810
1123.76195 0.05115
1122.47619 0.05434
1121.19042 0.05759
1119.90465 0.06085
1118.61888 0.06415
1117.33311 0.06755
1116.04734 0.07105
1114.76157 0.07458
1113.47580 0.07807
1112.19004 0.08148
1110.90427 0.08481
1109.61850 0.08810
1108.33273 0.09135
1107.04696 0.09456
1105.76119 0.09773
1104.47542 0.10085
1103.18965 0.10389
1101.90388 0.10677
1100.61812 0.10948
1099.33235 0.11208
1098.04658 0.11466
1096.76081 0.11727
1095.47504 0.11984
1094.18927 0.12225
1092.90350 0.12440
1091.61773 0.12632
1090.33197 0.12811
1089.04620 0.12990
1087.76043 0.13175
1086.47466 0.13366
1085.18889 0.13558
1083.90312 0.13748
1082.61735 0.13940
1081.33158 0.14145
1080.04581 0.14371
1078.76005 0.14622
1077.47428 0.14894
1076.18851 0.15181
1074.90274 0.15477
1073.61697 0.15775
1072.33120 0.16072
1071.04543 0.16369
1069.75966 0.16677
1068.47390 0.17003
1067.18813 0.17349
1065.90236 0.17708
1064.61659 0.18070
1063.33082 0.18432
1062.04505 0.18795
1060.75928 0.19157
1059.47351 0.19513
1058.18774 0.19859
1056.90198 0.20194
1055.61621 0.20517
1054.33044 0.20834
1053.04467 0.21153
1051.75890 0.21482
1050.47313 0.21824
1049.18736 0.22177
1047.90159 0.22539
1046.61583 0.22908
1045.33006 0.23283
1044.04429 0.23659
1042.75852 0.24034
1041.47275 0.24411
1040.18698 0.24792
1038.90121 0.25178
1037.61544 0.25565
1036.32967 0.25949
1035.04391 0.26324
1033.75814 0.26687
1032.47237 0.27036
1031.18660 0.27368
1029.90083 0.27676
1028.61506 0.27955
1027.32929 0.28203
1026.04352 0.28420
1024.75775 0.28608
1023.47199 0.28765
1022.18622 0.28885
1020.90045 0.28962
1019.61468 0.28997
1018.32891 0.28990
1017.04314 0.28940
1015.75737 0.28841
1014.47160 0.28689
1013.18584 0.28486
1011.90007 0.28235
1010.61430 0.27938
1009.32853 0.27591
1008.04276 0.27189
1006.75699 0.26730
1005.47122 0.26223
1004.18545 0.25681
1002.89968 0.25112
1001.61392 0.24515
1000.32815 0.23884
999.04238 0.23221
997.75661 0.22535
996.47084 0.21839
995.18507 0.21141
993.89930 0.20445
992.61353 0.19752
991.32777 0.19064
990.04200 0.18383
988.75623 0.17717
987.47046 0.17067
986.18469 0.16435
984.89892 0.15821
983.61315 0.15234
982.32738 0.14680
981.04161 0.14160
979.75585 0.13669
978.47008 0.13204
977.18431 0.12770
975.89854 0.12375
974.61277 0.12029
973.32700 0.11743
972.04123 0.11517
970.75546 0.11350
969.46970 0.11240
968.18393 0.11186
966.89816 0.11187
965.61239 0.11235
964.32662 0.11308
963.04085 0.11376
961.75508 0.11411
960.46931 0.11394
959.18354 0.11311
957.89778 0.11163
956.61201 0.10964
955.32624 0.10734
954.04047 0.10492
952.75470 0.10246
951.46893 0.09996
950.18316 0.09740
948.89739 0.09479
947.61163 0.09222
946.32586 0.08978
945.04009 0.08751
943.75432 0.08539
942.46855 0.08335
941.18278 0.08136
939.89701 0.07942
938.61124 0.07754
937.32547 0.07573
936.03971 0.07396
934.75394 0.07225
933.46817 0.07066
932.18240 0.06925
930.89663 0.06800
929.61086 0.06688
928.32509 0.06583
927.03932 0.06481
925.75356 0.06377
924.46779 0.06271
923.18202 0.06169
921.89625 0.06078
920.61048 0.05995
919.32471 0.05906
918.03894 0.05806
916.75317 0.05704
915.46740 0.05621
914.18164 0.05567
912.89587 0.05530
911.61010 0.05487
910.32433 0.05425
909.03856 0.05352
907.75279 0.05284
906.46702 0.05229
905.18125 0.05184
903.89549 0.05137
902.60972 0.05080
901.32395 0.05019
900.03818 0.04962
898.75241 0.04916
897.46664 0.04874
896.18087 0.04831
894.89510 0.04787
893.60933 0.04749
892.32357 0.04723
891.03780 0.04711
889.75203 0.04716
888.46626 0.04740
887.18049 0.04792
885.89472 0.04890
884.60895 0.05056
883.32318 0.05306
882.03742 0.05622
880.75165 0.05948
879.46588 0.06225
878.18011 0.06432
876.89434 0.06597
875.60857 0.06757
874.32280 0.06928
873.03703 0.07084
871.75126 0.07184
870.46550 0.07197
869.17973 0.07114
867.89396 0.06950
866.60819 0.06725
865.32242 0.06462
864.03665 0.06186
862.75088 0.05917
861.46511 0.05672
860.17935 0.05456
858.89358 0.05272
857.60781 0.05116
856.32204 0.04986
855.03627 0.04878
853.75050 0.04790
852.46473 0.04719
851.17896 0.04660
849.89319 0.04606
848.60743 0.04551
847.32166 0.04498
846.03589 0.04450
844.75012 0.04408
843.46435 0.04372
842.17858 0.04340
840.89281 0.04314
839.60704 0.04295
838.32128 0.04275
837.03551 0.04246
835.74974 0.04202
834.46397 0.04149
833.17820 0.04098
831.89243 0.04059
830.60666 0.04037
829.32089 0.04028
828.03512 0.04027
826.74936 0.04027
825.46359 0.04024
824.17782 0.04015
822.89205 0.04006
821.60628 0.04000
820.32051 0.03995
819.03474 0.03982
817.74897 0.03958
816.46321 0.03926
815.17744 0.03895
813.89167 0.03874
812.60590 0.03865
811.32013 0.03862
810.03436 0.03854
808.74859 0.03837
807.46282 0.03814
806.17705 0.03793
804.89129 0.03781
803.60552 0.03781
802.31975 0.03793
801.03398 0.03812
799.74821 0.03829
798.46244 0.03834
797.17667 0.03826
795.89090 0.03813
794.60513 0.03803
793.31937 0.03798
792.03360 0.03795
790.74783 0.03790
789.46206 0.03783
788.17629 0.03776
786.89052 0.03776
785.60475 0.03781
784.31898 0.03785
783.03322 0.03776
781.74745 0.03755
780.46168 0.03735
779.17591 0.03727
777.89014 0.03732
776.60437 0.03742
775.31860 0.03750
774.03283 0.03754
772.74706 0.03755
771.46130 0.03755
770.17553 0.03757
768.88976 0.03764
767.60399 0.03770
766.31822 0.03771
765.03245 0.03771
763.74668 0.03771
762.46091 0.03774
761.17515 0.03775
759.88938 0.03773
758.60361 0.03771
757.31784 0.03771
756.03207 0.03774
754.74630 0.03783
753.46053 0.03799
752.17476 0.03815
750.88899 0.03821
749.60323 0.03808
748.31746 0.03788
747.03169 0.03774
745.74592 0.03770
744.46015 0.03771
743.17438 0.03769
741.88861 0.03762
740.60284 0.03745
739.31708 0.03715
738.03131 0.03678
736.74554 0.03650
735.45977 0.03645
734.17400 0.03663
732.88823 0.03690
731.60246 0.03714
730.31669 0.03728
729.03092 0.03734
727.74516 0.03732
726.45939 0.03726
725.17362 0.03721
723.88785 0.03734
722.60208 0.03730
721.31631 0.03744
720.03054 0.03766
718.74477 0.03780
717.45901 0.03783
716.17324 0.03777
714.88747 0.03761
713.60170 0.03739
712.31593 0.03718
711.03016 0.03708
709.74439 0.03709
708.45862 0.03715
707.17285 0.03718
705.88709 0.03715
704.60132 0.03711
703.31555 0.03710
702.02978 0.03711
700.74401 0.03711
699.45824 0.03707
698.17247 0.03703
696.88670 0.03702
695.60094 0.03705
694.31517 0.03709
693.02940 0.03714
691.74363 0.03716
690.45786 0.03715
689.17209 0.03709
687.88632 0.03700
686.60055 0.03688
685.31478 0.03675
684.02902 0.03659
682.74325 0.03643
681.45748 0.03630
680.17171 0.03622
678.88594 0.03622
677.60017 0.03630
676.31440 0.03642
675.02863 0.03658
673.74287 0.03677
672.45710 0.03701
671.17133 0.03729
669.88556 0.03756
668.59979 0.03774
667.31402 0.03779
666.02825 0.03773
664.74248 0.03758
663.45671 0.03738
662.17095 0.03716
660.88518 0.03696
659.59941 0.03676
658.31364 0.03656
657.02787 0.03631
655.74210 0.03601
654.45633 0.03573
653.17056 0.03550
651.88480 0.03531
650.59903 0.03516
649.31326 0.03502
648.02749 0.03487
646.74172 0.03470
645.45595 0.03455
644.17018 0.03443
642.88441 0.03435
641.59864 0.03424
640.31288 0.03410
639.02711 0.03398
637.74134 0.03394
636.45557 0.03403
635.16980 0.03426
633.88403 0.03464
632.59826 0.03509
631.31249 0.03498
630.02673 0.03401
628.74096 0.03498
627.45519 0.03810
626.16942 0.04096
624.88365 0.04365
623.59788 0.04650
622.31211 0.04936
621.02634 0.05205
619.74057 0.05452
618.45481 0.05670
617.16904 0.05850
615.88327 0.06015
614.59750 0.06232
613.31173 0.06588
612.02596 0.07116
610.74019 0.07749
609.45442 0.08384
608.16866 0.08990
606.88289 0.09600
605.59712 0.10194
604.31135 0.10666
603.02558 0.10899
601.73981 0.10882
600.45404 0.10700
599.16827 0.10454
597.88250 0.10190
596.59674 0.09916
595.31097 0.09630
594.02520 0.09344
592.73943 0.09086
591.45366 0.08887
590.16789 0.08769
588.88212 0.08735
587.59635 0.08776
586.31059 0.08878
585.02482 0.09035
583.73905 0.09242
582.45328 0.09494
581.16751 0.09784
579.88174 0.10096
578.59597 0.10409
577.31020 0.10703
576.02443 0.10969
574.73867 0.11219
573.45290 0.11469
572.16713 0.11739
570.88136 0.12045
569.59559 0.12403
568.30982 0.12812
567.02405 0.13246
565.73828 0.13660
564.45251 0.14005
563.16675 0.14245
561.88098 0.14357
560.59521 0.14322
559.30944 0.14118
558.02367 0.13737
556.73790 0.13211
555.45213 0.12598
554.16636 0.11956
552.88060 0.11315
551.59483 0.10687
550.30906 0.10080
549.02329 0.09518
547.73752 0.09021
546.45175 0.08597
545.16598 0.08238
543.88021 0.07928
542.59444 0.07649
541.30868 0.07392
540.02291 0.07147
538.73714 0.06912
537.45137 0.06690
536.16560 0.06486
534.87983 0.06303
533.59406 0.06139
532.30829 0.05991
531.02253 0.05852
529.73676 0.05711
528.45099 0.05555
527.16522 0.05387
525.87945 0.05228
524.59368 0.05103
523.30791 0.05018
522.02214 0.04955
520.73637 0.04889
519.45061 0.04806
518.16484 0.04710
516.87907 0.04614
515.59330 0.04527
514.30753 0.04448
513.02176 0.04376
511.73599 0.04309
510.45022 0.04244
509.16446 0.04179
507.87869 0.04112
506.59292 0.04048
505.30715 0.03993
504.02138 0.03947
502.73561 0.03906
501.44984 0.03862
500.16407 0.03815
498.87830 0.03767
497.59254 0.03715
496.30677 0.03662
495.02100 0.03614
493.73523 0.03577
492.44946 0.03551
491.16369 0.03531
489.87792 0.03508
488.59215 0.03483
487.30639 0.03457
486.02062 0.03438
484.73485 0.03429
483.44908 0.03425
482.16331 0.03419
480.87754 0.03411
479.59177 0.03406
478.30600 0.03414
477.02023 0.03436
475.73447 0.03465
474.44870 0.03495
473.16293 0.03521
471.87716 0.03539
470.59139 0.03541
469.30562 0.03528
468.01985 0.03508
466.73408 0.03486
465.44832 0.03458
464.16255 0.03414
462.87678 0.03355
461.59101 0.03288
460.30524 0.03227
459.01947 0.03176
457.73370 0.03136
456.44793 0.03100
455.16216 0.03062
453.87640 0.03019
452.59063 0.02977
451.30486 0.02942
450.01909 0.02914
448.73332 0.02888
447.44755 0.02861
446.16178 0.02836
444.87601 0.02816
443.59025 0.02800
442.30448 0.02785
441.01871 0.02769
439.73294 0.02750
438.44717 0.02731
437.16140 0.02715
435.87563 0.02707
434.58986 0.02703
433.30409 0.02698
432.01833 0.02684
430.73256 0.02661
429.44679 0.02634
428.16102 0.02610
426.87525 0.02590
425.58948 0.02575
424.30371 0.02562
423.01794 0.02549
421.73218 0.02535
420.44641 0.02523
419.16064 0.02515
417.87487 0.02507
416.58910 0.02495
415.30333 0.02473
414.01756 0.02446
412.73179 0.02421
411.44602 0.02402
410.16026 0.02391
408.87449 0.02385
407.58872 0.02385
406.30295 0.02386
405.01718 0.02389
403.73141 0.02391
402.44564 0.02397
401.15987 0.02408
399.87411 0.02423
