3997.45528	0.03721
3996.16951	0.03785
3994.88374	0.03800
3993.59798	0.03768
3992.31221	0.03712
3991.02644	0.03662
3989.74067	0.03626
3988.45490	0.03601
3987.16913	0.03588
3985.88336	0.03591
3984.59759	0.03606
3983.31183	0.03616
3982.02606	0.03612
3980.74029	0.03606
3979.45452	0.03621
3978.16875	0.03676
3976.88298	0.03762
3975.59721	0.03845
3974.31144	0.03883
3973.02567	0.03864
3971.73991	0.03814
3970.45414	0.03767
3969.16837	0.03739
3967.88260	0.03726
3966.59683	0.03728
3965.31106	0.03741
3964.02529	0.03754
3962.73952	0.03736
3961.45376	0.03667
3960.16799	0.03560
3958.88222	0.03474
3957.59645	0.03467
3956.31068	0.03553
3955.02491	0.03680
3953.73914	0.03778
3952.45337	0.03820
3951.16760	0.03836
3949.88184	0.03868
3948.59607	0.03918
3947.31030	0.03952
3946.02453	0.03934
3944.73876	0.03861
3943.45299	0.03765
3942.16722	0.03701
3940.88145	0.03698
3939.59569	0.03748
3938.30992	0.03817
3937.02415	0.03876
3935.73838	0.03917
3934.45261	0.03942
3933.16684	0.03946
3931.88107	0.03924
3930.59530	0.03883
3929.30953	0.03848
3928.02377	0.03830
3926.73800	0.03815
3925.45223	0.03786
3924.16646	0.03749
3922.88069	0.03728
3921.59492	0.03736
3920.30915	0.03764
3919.02338	0.03780
3917.73762	0.03760
3916.45185	0.03713
3915.16608	0.03677
3913.88031	0.03688
3912.59454	0.03751
3911.30877	0.03839
3910.02300	0.03913
3908.73723	0.03951
3907.45146	0.03958
3906.16570	0.03946
3904.87993	0.03916
3903.59416	0.03860
3902.30839	0.03770
3901.02262	0.03667
3899.73685	0.03597
3898.45108	0.03596
3897.16531	0.03658
3895.87955	0.03754
3894.59378	0.03859
3893.30801	0.03957
3892.02224	0.04033
3890.73647	0.04080
3889.45070	0.04090
3888.16493	0.04060
3886.87916	0.04009
3885.59339	0.03957
3884.30763	0.03890
3883.02186	0.03785
3881.73609	0.03671
3880.45032	0.03618
3879.16455	0.03654
3877.87878	0.03737
3876.59301	0.03810
3875.30724	0.03853
3874.02148	0.03870
3872.73571	0.03862
3871.44994	0.03837
3870.16417	0.03826
3868.87840	0.03834
3867.59263	0.03821
3866.30686	0.03765
3865.02109	0.03714
3863.73532	0.03714
3862.44956	0.03757
3861.16379	0.03815
3859.87802	0.03856
3858.59225	0.03865
3857.30648	0.03841
3856.02071	0.03807
3854.73494	0.03801
3853.44917	0.03834
3852.16341	0.03870
3850.87764	0.03863
3849.59187	0.03825
3848.30610	0.03813
3847.02033	0.03858
3845.73456	0.03946
3844.44879	0.04035
3843.16302	0.04077
3841.87725	0.04056
3840.59149	0.03995
3839.30572	0.03940
3838.01995	0.03918
3836.73418	0.03912
3835.44841	0.03894
3834.16264	0.03875
3832.87687	0.03897
3831.59110	0.03966
3830.30534	0.04032
3829.01957	0.04041
3827.73380	0.03994
3826.44803	0.03943
3825.16226	0.03924
3823.87649	0.03917
3822.59072	0.03887
3821.30495	0.03847
3820.01918	0.03828
3818.73342	0.03831
3817.44765	0.03849
3816.16188	0.03899
3814.87611	0.03976
3813.59034	0.04027
3812.30457	0.04031
3811.01880	0.04025
3809.73303	0.04035
3808.44726	0.04041
3807.16150	0.04030
3805.87573	0.04009
3804.58996	0.03978
3803.30419	0.03950
3802.01842	0.03961
3800.73265	0.04025
3799.44688	0.04082
3798.16111	0.04072
3796.87535	0.04008
3795.58958	0.03938
3794.30381	0.03885
3793.01804	0.03856
3791.73227	0.03852
3790.44650	0.03852
3789.16073	0.03816
3787.87496	0.03743
3786.58919	0.03678
3785.30343	0.03674
3784.01766	0.03736
3782.73189	0.03823
3781.44612	0.03891
3780.16035	0.03923
3778.87458	0.03916
3777.58881	0.03851
3776.30304	0.03728
3775.01728	0.03591
3773.73151	0.03506
3772.44574	0.03494
3771.15997	0.03532
3769.87420	0.03586
3768.58843	0.03638
3767.30266	0.03681
3766.01689	0.03723
3764.73112	0.03770
3763.44536	0.03800
3762.15959	0.03781
3760.87382	0.03711
3759.58805	0.03618
3758.30228	0.03535
3757.01651	0.03486
3755.73074	0.03479
3754.44497	0.03497
3753.15921	0.03527
3751.87344	0.03565
3750.58767	0.03608
3749.30190	0.03652
3748.01613	0.03692
3746.73036	0.03691
3745.44459	0.03649
3744.15882	0.03629
3742.87305	0.03654
3741.58729	0.03686
3740.30152	0.03706
3739.01575	0.03721
3737.72998	0.03726
3736.44421	0.03728
3735.15844	0.03746
3733.87267	0.03773
3732.58690	0.03789
3731.30114	0.03787
3730.01537	0.03753
3728.72960	0.03682
3727.44383	0.03608
3726.15806	0.03587
3724.87229	0.03631
3723.58652	0.03707
3722.30075	0.03774
3721.01498	0.03809
3719.72922	0.03810
3718.44345	0.03794
3717.15768	0.03782
3715.87191	0.03782
3714.58614	0.03773
3713.30037	0.03743
3712.01460	0.03701
3710.72883	0.03670
3709.44307	0.03658
3708.15730	0.03662
3706.87153	0.03656
3705.58576	0.03611
3704.29999	0.03528
3703.01422	0.03450
3701.72845	0.03419
3700.44268	0.03437
3699.15691	0.03480
3697.87115	0.03531
3696.58538	0.03583
3695.29961	0.03608
3694.01384	0.03575
3692.72807	0.03497
3691.44230	0.03440
3690.15653	0.03462
3688.87076	0.03571
3687.58500	0.03711
3686.29923	0.03786
3685.01346	0.03739
3683.72769	0.03617
3682.44192	0.03521
3681.15615	0.03502
3679.87038	0.03556
3678.58461	0.03645
3677.29884	0.03728
3676.01308	0.03779
3674.72731	0.03789
3673.44154	0.03744
3672.15577	0.03667
3670.87000	0.03634
3669.58423	0.03680
3668.29846	0.03758
3667.01269	0.03809
3665.72693	0.03824
3664.44116	0.03802
3663.15539	0.03734
3661.86962	0.03642
3660.58385	0.03586
3659.29808	0.03602
3658.01231	0.03667
3656.72654	0.03740
3655.44077	0.03799
3654.15501	0.03834
3652.86924	0.03838
3651.58347	0.03828
3650.29770	0.03830
3649.01193	0.03849
3647.72616	0.03863
3646.44039	0.03853
3645.15462	0.03825
3643.86886	0.03808
3642.58309	0.03827
3641.29732	0.03880
3640.01155	0.03939
3638.72578	0.03971
3637.44001	0.03965
3636.15424	0.03938
3634.86847	0.03908
3633.58270	0.03889
3632.29694	0.03874
3631.01117	0.03863
3629.72540	0.03885
3628.43963	0.03967
3627.15386	0.04085
3625.86809	0.04184
3624.58232	0.04246
3623.29655	0.04285
3622.01079	0.04313
3620.72502	0.04331
3619.43925	0.04340
3618.15348	0.04340
3616.86771	0.04323
3615.58194	0.04294
3614.29617	0.04274
3613.01040	0.04286
3611.72463	0.04329
3610.43887	0.04386
3609.15310	0.04444
3607.86733	0.04496
3606.58156	0.04520
3605.29579	0.04500
3604.01002	0.04462
3602.72425	0.04453
3601.43848	0.04488
3600.15272	0.04541
3598.86695	0.04575
3597.58118	0.04586
3596.29541	0.04590
3595.00964	0.04595
3593.72387	0.04607
3592.43810	0.04630
3591.15233	0.04669
3589.86656	0.04712
3588.58080	0.04749
3587.29503	0.04778
3586.00926	0.04801
3584.72349	0.04823
3583.43772	0.04840
3582.15195	0.04843
3580.86618	0.04818
3579.58041	0.04764
3578.29464	0.04703
3577.00888	0.04671
3575.72311	0.04684
3574.43734	0.04716
3573.15157	0.04727
3571.86580	0.04707
3570.58003	0.04689
3569.29426	0.04715
3568.00849	0.04793
3566.72273	0.04885
3565.43696	0.04949
3564.15119	0.04987
3562.86542	0.05022
3561.57965	0.05064
3560.29388	0.05090
3559.00811	0.05091
3557.72234	0.05085
3556.43657	0.05098
3555.15081	0.05131
3553.86504	0.05160
3552.57927	0.05164
3551.29350	0.05151
3550.00773	0.05147
3548.72196	0.05182
3547.43619	0.05269
3546.15042	0.05390
3544.86466	0.05501
3543.57889	0.05562
3542.29312	0.05563
3541.00735	0.05526
3539.72158	0.05477
3538.43581	0.05438
3537.15004	0.05420
3535.86427	0.05429
3534.57850	0.05453
3533.29274	0.05472
3532.00697	0.05473
3530.72120	0.05463
3529.43543	0.05459
3528.14966	0.05481
3526.86389	0.05537
3525.57812	0.05618
3524.29235	0.05697
3523.00659	0.05750
3521.72082	0.05778
3520.43505	0.05794
3519.14928	0.05814
3517.86351	0.05840
3516.57774	0.05870
3515.29197	0.05904
3514.00620	0.05938
3512.72043	0.05953
3511.43467	0.05926
3510.14890	0.05861
3508.86313	0.05807
3507.57736	0.05818
3506.29159	0.05898
3505.00582	0.06002
3503.72005	0.06076
3502.43428	0.06104
3501.14852	0.06111
3499.86275	0.06126
3498.57698	0.06151
3497.29121	0.06170
3496.00544	0.06171
3494.71967	0.06160
3493.43390	0.06149
3492.14813	0.06145
3490.86236	0.06152
3489.57660	0.06175
3488.29083	0.06211
3487.00506	0.06247
3485.71929	0.06265
3484.43352	0.06268
3483.14775	0.06280
3481.86198	0.06318
3480.57621	0.06380
3479.29045	0.06443
3478.00468	0.06494
3476.71891	0.06529
3475.43314	0.06544
3474.14737	0.06532
3472.86160	0.06496
3471.57583	0.06450
3470.29006	0.06407
3469.00429	0.06380
3467.71853	0.06381
3466.43276	0.06410
3465.14699	0.06451
3463.86122	0.06479
3462.57545	0.06486
3461.28968	0.06486
3460.00391	0.06487
3458.71814	0.06492
3457.43238	0.06501
3456.14661	0.06518
3454.86084	0.06550
3453.57507	0.06598
3452.28930	0.06658
3451.00353	0.06717
3449.71776	0.06755
3448.43199	0.06768
3447.14622	0.06765
3445.86046	0.06758
3444.57469	0.06753
3443.28892	0.06745
3442.00315	0.06735
3440.71738	0.06728
3439.43161	0.06733
3438.14584	0.06758
3436.86007	0.06798
3435.57431	0.06838
3434.28854	0.06860
3433.00277	0.06861
3431.71700	0.06848
3430.43123	0.06835
3429.14546	0.06843
3427.85969	0.06875
3426.57392	0.06918
3425.28815	0.06954
3424.00239	0.06982
3422.71662	0.07017
3421.43085	0.07068
3420.14508	0.07120
3418.85931	0.07149
3417.57354	0.07147
3416.28777	0.07136
3415.00200	0.07134
3413.71624	0.07130
3412.43047	0.07098
3411.14470	0.07039
3409.85893	0.06994
3408.57316	0.07009
3407.28739	0.07086
3406.00162	0.07186
3404.71585	0.07268
3403.43008	0.07316
3402.14432	0.07335
3400.85855	0.07334
3399.57278	0.07329
3398.28701	0.07315
3397.00124	0.07294
3395.71547	0.07293
3394.42970	0.07322
3393.14393	0.07360
3391.85817	0.07375
3390.57240	0.07361
3389.28663	0.07339
3388.00086	0.07334
3386.71509	0.07346
3385.42932	0.07349
3384.14355	0.07327
3382.85778	0.07296
3381.57201	0.07290
3380.28625	0.07328
3379.00048	0.07402
3377.71471	0.07490
3376.42894	0.07564
3375.14317	0.07596
3373.85740	0.07572
3372.57163	0.07510
3371.28586	0.07461
3370.00010	0.07468
3368.71433	0.07537
3367.42856	0.07632
3366.14279	0.07704
3364.85702	0.07724
3363.57125	0.07698
3362.28548	0.07648
3360.99971	0.07597
3359.71394	0.07561
3358.42818	0.07549
3357.14241	0.07566
3355.85664	0.07602
3354.57087	0.07638
3353.28510	0.07652
3351.99933	0.07643
3350.71356	0.07623
3349.42779	0.07605
3348.14202	0.07591
3346.85626	0.07579
3345.57049	0.07565
3344.28472	0.07546
3342.99895	0.07527
3341.71318	0.07526
3340.42741	0.07554
3339.14164	0.07603
3337.85587	0.07645
3336.57011	0.07667
3335.28434	0.07680
3333.99857	0.07697
3332.71280	0.07715
3331.42703	0.07731
3330.14126	0.07751
3328.85549	0.07779
3327.56972	0.07803
3326.28395	0.07803
3324.99819	0.07778
3323.71242	0.07752
3322.42665	0.07741
3321.14088	0.07742
3319.85511	0.07734
3318.56934	0.07715
3317.28357	0.07699
3315.99780	0.07712
3314.71204	0.07763
3313.42627	0.07837
3312.14050	0.07903
3310.85473	0.07934
3309.56896	0.07925
3308.28319	0.07894
3306.99742	0.07863
3305.71165	0.07843
3304.42588	0.07835
3303.14012	0.07834
3301.85435	0.07842
3300.56858	0.07855
3299.28281	0.07864
3297.99704	0.07851
3296.71127	0.07820
3295.42550	0.07791
3294.13973	0.07786
3292.85397	0.07799
3291.56820	0.07799
3290.28243	0.07774
3288.99666	0.07740
3287.71089	0.07723
3286.42512	0.07729
3285.13935	0.07743
3283.85358	0.07755
3282.56781	0.07773
3281.28205	0.07806
3279.99628	0.07847
3278.71051	0.07867
3277.42474	0.07838
3276.13897	0.07759
3274.85320	0.07664
3273.56743	0.07596
3272.28166	0.07581
3270.99590	0.07615
3269.71013	0.07676
3268.42436	0.07728
3267.13859	0.07750
3265.85282	0.07746
3264.56705	0.07746
3263.28128	0.07772
3261.99551	0.07810
3260.70974	0.07822
3259.42398	0.07790
3258.13821	0.07728
3256.85244	0.07666
3255.56667	0.07627
3254.28090	0.07608
3252.99513	0.07595
3251.70936	0.07571
3250.42359	0.07534
3249.13783	0.07495
3247.85206	0.07472
3246.56629	0.07473
3245.28052	0.07489
3243.99475	0.07512
3242.70898	0.07546
3241.42321	0.07589
3240.13744	0.07621
3238.85167	0.07618
3237.56591	0.07577
3236.28014	0.07527
3234.99437	0.07486
3233.70860	0.07450
3232.42283	0.07413
3231.13706	0.07392
3229.85129	0.07409
3228.56552	0.07455
3227.27976	0.07496
3225.99399	0.07509
3224.70822	0.07495
3223.42245	0.07467
3222.13668	0.07437
3220.85091	0.07409
3219.56514	0.07383
3218.27937	0.07356
3216.99360	0.07331
3215.70784	0.07323
3214.42207	0.07339
3213.13630	0.07368
3211.85053	0.07390
3210.56476	0.07390
3209.27899	0.07369
3207.99322	0.07340
3206.70745	0.07315
3205.42169	0.07295
3204.13592	0.07269
3202.85015	0.07229
3201.56438	0.07184
3200.27861	0.07154
3198.99284	0.07154
3197.70707	0.07184
3196.42130	0.07228
3195.13553	0.07259
3193.84977	0.07266
3192.56400	0.07259
3191.27823	0.07244
3189.99246	0.07215
3188.70669	0.07170
3187.42092	0.07132
3186.13515	0.07128
3184.84938	0.07158
3183.56362	0.07185
3182.27785	0.07177
3180.99208	0.07136
3179.70631	0.07096
3178.42054	0.07081
3177.13477	0.07087
3175.84900	0.07098
3174.56323	0.07101
3173.27746	0.07099
3171.99170	0.07098
3170.70593	0.07101
3169.42016	0.07102
3168.13439	0.07087
3166.84862	0.07047
3165.56285	0.06999
3164.27708	0.06979
3162.99131	0.06997
3161.70555	0.07029
3160.41978	0.07043
3159.13401	0.07029
3157.84824	0.07003
3156.56247	0.06975
3155.27670	0.06936
3153.99093	0.06875
3152.70516	0.06795
3151.41939	0.06721
3150.13363	0.06688
3148.84786	0.06709
3147.56209	0.06757
3146.27632	0.06790
3144.99055	0.06786
3143.70478	0.06759
3142.41901	0.06731
3141.13324	0.06709
3139.84748	0.06688
3138.56171	0.06663
3137.27594	0.06636
3135.99017	0.06608
3134.70440	0.06582
3133.41863	0.06569
3132.13286	0.06580
3130.84709	0.06614
3129.56132	0.06648
3128.27556	0.06656
3126.98979	0.06636
3125.70402	0.06604
3124.41825	0.06575
3123.13248	0.06557
3121.84671	0.06544
3120.56094	0.06527
3119.27517	0.06495
3117.98940	0.06451
3116.70364	0.06418
3115.41787	0.06419
3114.13210	0.06456
3112.84633	0.06509
3111.56056	0.06559
3110.27479	0.06599
3108.98902	0.06622
3107.70325	0.06612
3106.41749	0.06566
3105.13172	0.06508
3103.84595	0.06472
3102.56018	0.06471
3101.27441	0.06490
3099.98864	0.06504
3098.70287	0.06502
3097.41710	0.06493
3096.13133	0.06482
3094.84557	0.06469
3093.55980	0.06446
3092.27403	0.06411
3090.98826	0.06376
3089.70249	0.06359
3088.41672	0.06373
3087.13095	0.06416
3085.84518	0.06464
3084.55942	0.06488
3083.27365	0.06479
3081.98788	0.06449
3080.70211	0.06416
3079.41634	0.06388
3078.13057	0.06364
3076.84480	0.06350
3075.55903	0.06359
3074.27326	0.06389
3072.98750	0.06419
3071.70173	0.06425
3070.41596	0.06406
3069.13019	0.06381
3067.84442	0.06370
3066.55865	0.06374
3065.27288	0.06383
3063.98711	0.06388
3062.70135	0.06388
3061.41558	0.06384
3060.12981	0.06373
3058.84404	0.06355
3057.55827	0.06337
3056.27250	0.06329
3054.98673	0.06336
3053.70096	0.06353
3052.41519	0.06365
3051.12943	0.06357
3049.84366	0.06323
3048.55789	0.06276
3047.27212	0.06237
3045.98635	0.06214
3044.70058	0.06194
3043.41481	0.06168
3042.12904	0.06144
3040.84328	0.06139
3039.55751	0.06162
3038.27174	0.06210
3036.98597	0.06269
3035.70020	0.06314
3034.41443	0.06322
3033.12866	0.06284
3031.84289	0.06215
3030.55712	0.06145
3029.27136	0.06094
3027.98559	0.06064
3026.69982	0.06046
3025.41405	0.06037
3024.12828	0.06035
3022.84251	0.06041
3021.55674	0.06049
3020.27097	0.06049
3018.98521	0.06037
3017.69944	0.06013
3016.41367	0.05979
3015.12790	0.05940
3013.84213	0.05898
3012.55636	0.05861
3011.27059	0.05836
3009.98482	0.05827
3008.69905	0.05824
3007.41329	0.05822
3006.12752	0.05826
3004.84175	0.05840
3003.55598	0.05856
3002.27021	0.05861
3000.98444	0.05854
2999.69867	0.05859
2998.41290	0.05865
2997.12714	0.05886
2995.84137	0.05919
2994.55560	0.05949
2993.26983	0.05954
2991.98406	0.05930
2990.69829	0.05897
2989.41252	0.05879
2988.12675	0.05880
2986.84098	0.05888
2985.55522	0.05893
2984.26945	0.05888
2982.98368	0.05876
2981.69791	0.05863
2980.41214	0.05867
2979.12637	0.05894
2977.84060	0.05931
2976.55483	0.05957
2975.26907	0.05962
2973.98330	0.05958
2972.69753	0.05969
2971.41176	0.06022
2970.12599	0.06120
2968.84022	0.06242
2967.55445	0.06352
2966.26868	0.06432
2964.98291	0.06492
2963.69715	0.06542
2962.41138	0.06586
2961.12561	0.06629
2959.83984	0.06682
2958.55407	0.06752
2957.26830	0.06841
2955.98253	0.06945
2954.69676	0.07056
2953.41100	0.07152
2952.12523	0.07209
2950.83946	0.07220
2949.55369	0.07205
2948.26792	0.07184
2946.98215	0.07161
2945.69638	0.07131
2944.41061	0.07098
2943.12484	0.07072
2941.83908	0.07064
2940.55331	0.07075
2939.26754	0.07109
2937.98177	0.07164
2936.69600	0.07221
2935.41023	0.07253
2934.12446	0.07251
2932.83869	0.07224
2931.55293	0.07189
2930.26716	0.07154
2928.98139	0.07119
2927.69562	0.07091
2926.40985	0.07069
2925.12408	0.07039
2923.83831	0.06984
2922.55254	0.06900
2921.26677	0.06797
2919.98101	0.06692
2918.69524	0.06602
2917.40947	0.06553
2916.12370	0.06561
2914.83793	0.06625
2913.55216	0.06721
2912.26639	0.06826
2910.98062	0.06922
2909.69486	0.07001
2908.40909	0.07056
2907.12332	0.07087
2905.83755	0.07096
2904.55178	0.07085
2903.26601	0.07060
2901.98024	0.07036
2900.69447	0.07026
2899.40870	0.07026
2898.12294	0.07026
2896.83717	0.07021
2895.55140	0.07011
2894.26563	0.06996
2892.97986	0.06973
2891.69409	0.06936
2890.40832	0.06883
2889.12255	0.06821
2887.83678	0.06764
2886.55102	0.06724
2885.26525	0.06704
2883.97948	0.06701
2882.69371	0.06707
2881.40794	0.06711
2880.12217	0.06704
2878.83640	0.06694
2877.55063	0.06702
2876.26487	0.06743
2874.97910	0.06813
2873.69333	0.06889
2872.40756	0.06947
2871.12179	0.06965
2869.83602	0.06935
2868.55025	0.06876
2867.26448	0.06825
2865.97871	0.06807
2864.69295	0.06814
2863.40718	0.06813
2862.12141	0.06791
2860.83564	0.06759
2859.54987	0.06726
2858.26410	0.06681
2856.97833	0.06603
2855.69256	0.06487
2854.40680	0.06349
2853.12103	0.06213
2851.83526	0.06098
2850.54949	0.06022
2849.26372	0.06003
2847.97795	0.06049
2846.69218	0.06146
2845.40641	0.06257
2844.12064	0.06340
2842.83488	0.06372
2841.54911	0.06364
2840.26334	0.06341
2838.97757	0.06318
2837.69180	0.06294
2836.40603	0.06258
2835.12026	0.06207
2833.83449	0.06147
2832.54873	0.06080
2831.26296	0.06013
2829.97719	0.05956
2828.69142	0.05918
2827.40565	0.05896
2826.11988	0.05879
2824.83411	0.05859
2823.54834	0.05837
2822.26257	0.05820
2820.97681	0.05810
2819.69104	0.05806
2818.40527	0.05799
2817.11950	0.05787
2815.83373	0.05772
2814.54796	0.05757
2813.26219	0.05738
2811.97642	0.05710
2810.69066	0.05671
2809.40489	0.05626
2808.11912	0.05584
2806.83335	0.05552
2805.54758	0.05529
2804.26181	0.05510
2802.97604	0.05489
2801.69027	0.05473
2800.40450	0.05469
2799.11874	0.05473
2797.83297	0.05470
2796.54720	0.05453
2795.26143	0.05432
2793.97566	0.05425
2792.68989	0.05432
2791.40412	0.05441
2790.11835	0.05444
2788.83259	0.05443
2787.54682	0.05439
2786.26105	0.05425
2784.97528	0.05394
2783.68951	0.05351
2782.40374	0.05309
2781.11797	0.05283
2779.83220	0.05279
2778.54643	0.05296
2777.26067	0.05322
2775.97490	0.05344
2774.68913	0.05353
2773.40336	0.05347
2772.11759	0.05329
2770.83182	0.05300
2769.54605	0.05266
2768.26028	0.05233
2766.97452	0.05211
2765.68875	0.05207
2764.40298	0.05219
2763.11721	0.05235
2761.83144	0.05243
2760.54567	0.05235
2759.25990	0.05213
2757.97413	0.05186
2756.68836	0.05168
2755.40260	0.05169
2754.11683	0.05183
2752.83106	0.05190
2751.54529	0.05171
2750.25952	0.05132
2748.97375	0.05094
2747.68798	0.05078
2746.40221	0.05084
2745.11645	0.05095
2743.83068	0.05104
2742.54491	0.05108
2741.25914	0.05111
2739.97337	0.05109
2738.68760	0.05096
2737.40183	0.05072
2736.11606	0.05044
2734.83029	0.05018
2733.54453	0.05002
2732.25876	0.04994
2730.97299	0.04988
2729.68722	0.04979
2728.40145	0.04972
2727.11568	0.04976
2725.82991	0.04993
2724.54414	0.05012
2723.25838	0.05022
2721.97261	0.05019
2720.68684	0.05010
2719.40107	0.04998
2718.11530	0.04981
2716.82953	0.04958
2715.54376	0.04934
2714.25799	0.04917
2712.97222	0.04908
2711.68646	0.04904
2710.40069	0.04902
2709.11492	0.04905
2707.82915	0.04910
2706.54338	0.04911
2705.25761	0.04904
2703.97184	0.04892
2702.68607	0.04883
2701.40031	0.04878
2700.11454	0.04874
2698.82877	0.04867
2697.54300	0.04856
2696.25723	0.04846
2694.97146	0.04842
2693.68569	0.04843
2692.39992	0.04846
2691.11415	0.04848
2689.82839	0.04853
2688.54262	0.04861
2687.25685	0.04867
2685.97108	0.04858
2684.68531	0.04830
2683.39954	0.04792
2682.11377	0.04760
2680.82800	0.04741
2679.54224	0.04732
2678.25647	0.04730
2676.97070	0.04737
2675.68493	0.04757
2674.39916	0.04785
2673.11339	0.04806
2671.82762	0.04810
2670.54185	0.04796
2669.25608	0.04781
2667.97032	0.04781
2666.68455	0.04801
2665.39878	0.04821
2664.11301	0.04817
2662.82724	0.04783
2661.54147	0.04732
2660.25570	0.04684
2658.96993	0.04649
2657.68417	0.04624
2656.39840	0.04606
2655.11263	0.04595
2653.82686	0.04588
2652.54109	0.04572
2651.25532	0.04537
2649.96955	0.04493
2648.68378	0.04454
2647.39801	0.04426
2646.11225	0.04407
2644.82648	0.04395
2643.54071	0.04387
2642.25494	0.04380
2640.96917	0.04361
2639.68340	0.04332
2638.39763	0.04305
2637.11186	0.04294
2635.82609	0.04298
2634.54033	0.04304
2633.25456	0.04304
2631.96879	0.04292
2630.68302	0.04268
2629.39725	0.04230
2628.11148	0.04179
2626.82571	0.04130
2625.53994	0.04105
2624.25418	0.04111
2622.96841	0.04138
2621.68264	0.04167
2620.39687	0.04182
2619.11110	0.04181
2617.82533	0.04166
2616.53956	0.04146
2615.25379	0.04127
2613.96802	0.04107
2612.68226	0.04081
2611.39649	0.04046
2610.11072	0.04003
2608.82495	0.03962
2607.53918	0.03939
2606.25341	0.03950
2604.96764	0.03994
2603.68187	0.04043
2602.39611	0.04064
2601.11034	0.04044
2599.82457	0.04001
2598.53880	0.03965
2597.25303	0.03948
2595.96726	0.03944
2594.68149	0.03937
2593.39572	0.03919
2592.10995	0.03902
2590.82419	0.03904
2589.53842	0.03921
2588.25265	0.03927
2586.96688	0.03902
2585.68111	0.03860
2584.39534	0.03839
2583.10957	0.03855
2581.82380	0.03886
2580.53804	0.03897
2579.25227	0.03880
2577.96650	0.03856
2576.68073	0.03850
2575.39496	0.03863
2574.10919	0.03885
2572.82342	0.03901
2571.53765	0.03901
2570.25188	0.03877
2568.96612	0.03829
2567.68035	0.03771
2566.39458	0.03725
2565.10881	0.03707
2563.82304	0.03721
2562.53727	0.03756
2561.25150	0.03800
2559.96573	0.03840
2558.67997	0.03864
2557.39420	0.03869
2556.10843	0.03853
2554.82266	0.03820
2553.53689	0.03778
2552.25112	0.03742
2550.96535	0.03721
2549.67958	0.03707
2548.39381	0.03683
2547.10805	0.03652
2545.82228	0.03631
2544.53651	0.03631
2543.25074	0.03641
2541.96497	0.03642
2540.67920	0.03632
2539.39343	0.03620
2538.10766	0.03608
2536.82190	0.03588
2535.53613	0.03563
2534.25036	0.03545
2532.96459	0.03546
2531.67882	0.03562
2530.39305	0.03593
2529.10728	0.03642
2527.82151	0.03707
2526.53574	0.03765
2525.24998	0.03783
2523.96421	0.03752
2522.67844	0.03700
2521.39267	0.03666
2520.10690	0.03663
2518.82113	0.03669
2517.53536	0.03662
2516.24959	0.03645
2514.96383	0.03637
2513.67806	0.03643
2512.39229	0.03653
2511.10652	0.03656
2509.82075	0.03652
2508.53498	0.03652
2507.24921	0.03659
2505.96344	0.03665
2504.67767	0.03653
2503.39191	0.03626
2502.10614	0.03611
2500.82037	0.03628
2499.53460	0.03664
2498.24883	0.03684
2496.96306	0.03674
2495.67729	0.03658
2494.39152	0.03664
2493.10576	0.03684
2491.81999	0.03694
2490.53422	0.03684
2489.24845	0.03671
2487.96268	0.03668
2486.67691	0.03668
2485.39114	0.03653
2484.10537	0.03617
2482.81960	0.03572
2481.53384	0.03539
2480.24807	0.03529
2478.96230	0.03538
2477.67653	0.03558
2476.39076	0.03587
2475.10499	0.03613
2473.81922	0.03622
2472.53345	0.03608
2471.24769	0.03587
2469.96192	0.03581
2468.67615	0.03596
2467.39038	0.03617
2466.10461	0.03621
2464.81884	0.03593
2463.53307	0.03540
2462.24730	0.03493
2460.96153	0.03473
2459.67577	0.03470
2458.39000	0.03458
2457.10423	0.03432
2455.81846	0.03418
2454.53269	0.03437
2453.24692	0.03473
2451.96115	0.03495
2450.67538	0.03488
2449.38962	0.03469
2448.10385	0.03458
2446.81808	0.03452
2445.53231	0.03440
2444.24654	0.03423
2442.96077	0.03417
2441.67500	0.03422
2440.38923	0.03421
2439.10346	0.03405
2437.81770	0.03385
2436.53193	0.03381
2435.24616	0.03395
2433.96039	0.03405
2432.67462	0.03394
2431.38885	0.03367
2430.10308	0.03346
2428.81731	0.03349
2427.53155	0.03369
2426.24578	0.03386
2424.96001	0.03387
2423.67424	0.03381
2422.38847	0.03390
2421.10270	0.03421
2419.81693	0.03460
2418.53116	0.03485
2417.24539	0.03489
2415.95963	0.03484
2414.67386	0.03477
2413.38809	0.03466
2412.10232	0.03445
2410.81655	0.03415
2409.53078	0.03391
2408.24501	0.03389
2406.95924	0.03412
2405.67347	0.03443
2404.38771	0.03460
2403.10194	0.03458
2401.81617	0.03445
2400.53040	0.03436
2399.24463	0.03409
2397.95886	0.03434
2396.67309	0.03463
2395.38732	0.03464
2394.10156	0.03445
2392.81579	0.03425
2391.53002	0.03425
2390.24425	0.03449
2388.95848	0.03480
2387.67271	0.03503
2386.38694	0.03515
2385.10117	0.03525
2383.81540	0.03541
2382.52964	0.03561
2381.24387	0.03580
2379.95810	0.03599
2378.67233	0.03621
2377.38656	0.03650
2376.10079	0.03680
2374.81502	0.03710
2373.52925	0.03739
2372.24349	0.03779
2370.95772	0.03839
2369.67195	0.03934
2368.38618	0.04040
2367.10041	0.04121
2365.81464	0.04156
2364.52887	0.04174
2363.24310	0.04196
2361.95733	0.04227
2360.67157	0.04253
2359.38580	0.04281
2358.10003	0.04304
2356.81426	0.04326
2355.52849	0.04343
2354.24272	0.04333
2352.95695	0.04280
2351.67118	0.04171
2350.38542	0.04026
2349.09965	0.03898
2347.81388	0.03831
2346.52811	0.03806
2345.24234	0.03809
2343.95657	0.03842
2342.67080	0.03910
2341.38503	0.03972
2340.09926	0.04010
2338.81350	0.04050
2337.52773	0.04095
2336.24196	0.04105
2334.95619	0.04089
2333.67042	0.04094
2332.38465	0.04128
2331.09888	0.04128
2329.81311	0.04135
2328.52735	0.04193
2327.24158	0.04173
2325.95581	0.04078
2324.67004	0.03993
2323.38427	0.03875
2322.09850	0.03736
2320.81273	0.03663
2319.52696	0.03582
2318.24119	0.03499
2316.95543	0.03460
2315.66966	0.03405
2314.38389	0.03337
2313.09812	0.03277
2311.81235	0.03207
2310.52658	0.03169
2309.24081	0.03167
2307.95504	0.03183
2306.66928	0.03218
2305.38351	0.03235
2304.09774	0.03233
2302.81197	0.03221
2301.52620	0.03200
2300.24043	0.03179
2298.95466	0.03153
2297.66889	0.03134
2296.38312	0.03132
2295.09736	0.03149
2293.81159	0.03170
2292.52582	0.03176
2291.24005	0.03157
2289.95428	0.03105
2288.66851	0.03023
2287.38274	0.02921
2286.09697	0.02823
2284.81121	0.02755
2283.52544	0.02727
2282.23967	0.02733
2280.95390	0.02753
2279.66813	0.02763
2278.38236	0.02742
2277.09659	0.02683
2275.81082	0.02611
2274.52505	0.02565
2273.23929	0.02565
2271.95352	0.02597
2270.66775	0.02631
2269.38198	0.02652
2268.09621	0.02661
2266.81044	0.02662
2265.52467	0.02664
2264.23890	0.02681
2262.95314	0.02717
2261.66737	0.02746
2260.38160	0.02740
2259.09583	0.02694
2257.81006	0.02628
2256.52429	0.02562
2255.23852	0.02500
2253.95275	0.02441
2252.66698	0.02405
2251.38122	0.02422
2250.09545	0.02460
2248.80968	0.02444
2247.52391	0.02494
2246.23814	0.02472
2244.95237	0.02374
2243.66660	0.02254
2242.38083	0.02165
2241.09507	0.02122
2239.80930	0.02112
2238.52353	0.02124
2237.23776	0.02157
2235.95199	0.02204
2234.66622	0.02249
2233.38045	0.02274
2232.09468	0.02269
2230.80891	0.02223
2229.52315	0.02138
2228.23738	0.02041
2226.95161	0.01973
2225.66584	0.01946
2224.38007	0.01929
2223.09430	0.01894
2221.80853	0.01853
2220.52276	0.01840
2219.23700	0.01858
2217.95123	0.01877
2216.66546	0.01889
2215.37969	0.01920
2214.09392	0.01984
2212.80815	0.02048
2211.52238	0.02073
2210.23661	0.02076
2208.95084	0.02096
2207.66508	0.02122
2206.37931	0.02085
2205.09354	0.01968
2203.80777	0.01853
2202.52200	0.01840
2201.23623	0.01926
2199.95046	0.02013
2198.66469	0.02023
2197.37893	0.01966
2196.09316	0.01899
2194.80739	0.01848
2193.52162	0.01812
2192.23585	0.01795
2190.95008	0.01810
2189.66431	0.01831
2188.37854	0.01810
2187.09277	0.01735
2185.80701	0.01651
2184.52124	0.01601
2183.23547	0.01577
2181.94970	0.01560
2180.66393	0.01550
2179.37816	0.01557
2178.09239	0.01572
2176.80662	0.01582
2175.52085	0.01578
2174.23509	0.01560
2172.94932	0.01527
2171.66355	0.01489
2170.37778	0.01459
2169.09201	0.01434
2167.80624	0.01394
2166.52047	0.01327
2165.23470	0.01245
2163.94894	0.01170
2162.66317	0.01116
2161.37740	0.01084
2160.09163	0.01085
2158.80586	0.01133
2157.52009	0.01212
2156.23432	0.01273
2154.94855	0.01283
2153.66278	0.01269
2152.37702	0.01295
2151.09125	0.01398
2149.80548	0.01565
2148.51971	0.01742
2147.23394	0.01869
2145.94817	0.01918
2144.66240	0.01899
2143.37663	0.01845
2142.09087	0.01788
2140.80510	0.01752
2139.51933	0.01749
2138.23356	0.01770
2136.94779	0.01800
2135.66202	0.01841
2134.37625	0.01905
2133.09048	0.01984
2131.80471	0.02048
2130.51895	0.02081
2129.23318	0.02093
2127.94741	0.02101
2126.66164	0.02109
2125.37587	0.02117
2124.09010	0.02125
2122.80433	0.02125
2121.51856	0.02096
2120.23280	0.02037
2118.94703	0.01978
2117.66126	0.01953
2116.37549	0.01975
2115.08972	0.02026
2113.80395	0.02072
2112.51818	0.02076
2111.23241	0.02029
2109.94664	0.01966
2108.66088	0.01949
2107.37511	0.02001
2106.08934	0.02082
2104.80357	0.02122
2103.51780	0.02088
2102.23203	0.01999
2100.94626	0.01889
2099.66049	0.01858
2098.37473	0.01803
2097.08896	0.01765
2095.80319	0.01779
2094.51742	0.01830
2093.23165	0.01892
2091.94588	0.01942
2090.66011	0.01967
2089.37434	0.01968
2088.08857	0.01956
2086.80281	0.01943
2085.51704	0.01931
2084.23127	0.01907
2082.94550	0.01865
2081.65973	0.01816
2080.37396	0.01780
2079.08819	0.01771
2077.80242	0.01780
2076.51666	0.01791
2075.23089	0.01790
2073.94512	0.01779
2072.65935	0.01765
2071.37358	0.01752
2070.08781	0.01743
2068.80204	0.01739
2067.51627	0.01743
2066.23050	0.01761
2064.94474	0.01791
2063.65897	0.01818
2062.37320	0.01821
2061.08743	0.01791
2059.80166	0.01729
2058.51589	0.01642
2057.23012	0.01536
2055.94435	0.01427
2054.65859	0.01333
2053.37282	0.01263
2052.08705	0.01217
2050.80128	0.01188
2049.51551	0.01167
2048.22974	0.01149
2046.94397	0.01138
2045.65820	0.01138
2044.37243	0.01136
2043.08667	0.01106
2041.80090	0.01029
2040.51513	0.00926
2039.22936	0.00838
2037.94359	0.00792
2036.65782	0.00782
2035.37205	0.00792
2034.08628	0.00810
2032.80052	0.00836
2031.51475	0.00876
2030.22898	0.00950
2028.94321	0.01060
2027.65744	0.01172
2026.37167	0.01228
2025.08590	0.01191
2023.80013	0.01087
2022.51436	0.00980
2021.22860	0.00924
2019.94283	0.00925
2018.65706	0.00948
2017.37129	0.00948
2016.08552	0.00910
2014.79975	0.00867
2013.51398	0.00885
2012.22821	0.01019
2010.94245	0.01246
2009.65668	0.01459
2008.37091	0.01544
2007.08514	0.01479
2005.79937	0.01347
2004.51360	0.01246
2003.22783	0.01215
2001.94206	0.01237
2000.65629	0.01284
1999.37053	0.01338
1998.08476	0.01388
1996.79899	0.01434
1995.51322	0.01495
1994.22745	0.01581
1992.94168	0.01676
1991.65591	0.01745
1990.37014	0.01761
1989.08438	0.01720
1987.79861	0.01636
1986.51284	0.01539
1985.22707	0.01453
1983.94130	0.01397
1982.65553	0.01376
1981.36976	0.01385
1980.08399	0.01424
1978.79822	0.01489
1977.51246	0.01570
1976.22669	0.01645
1974.94092	0.01693
1973.65515	0.01708
1972.36938	0.01686
1971.08361	0.01628
1969.79784	0.01551
1968.51207	0.01490
1967.22631	0.01472
1965.94054	0.01494
1964.65477	0.01521
1963.36900	0.01524
1962.08323	0.01498
1960.79746	0.01473
1959.51169	0.01491
1958.22592	0.01566
1956.94015	0.01668
1955.65439	0.01747
1954.36862	0.01769
1953.08285	0.01743
1951.79708	0.01706
1950.51131	0.01694
1949.22554	0.01718
1947.93977	0.01760
1946.65400	0.01793
1945.36823	0.01807
1944.08247	0.01809
1942.79670	0.01816
1941.51093	0.01838
1940.22516	0.01871
1938.93939	0.01910
1937.65362	0.01954
1936.36785	0.01998
1935.08208	0.02036
1933.79632	0.02062
1932.51055	0.02082
1931.22478	0.02107
1929.93901	0.02138
1928.65324	0.02169
1927.36747	0.02184
1926.08170	0.02171
1924.79593	0.02124
1923.51016	0.02054
1922.22440	0.01989
1920.93863	0.01954
1919.65286	0.01960
1918.36709	0.01996
1917.08132	0.02046
1915.79555	0.02094
1914.50978	0.02132
1913.22401	0.02158
1911.93825	0.02170
1910.65248	0.02165
1909.36671	0.02142
1908.08094	0.02105
1906.79517	0.02065
1905.50940	0.02038
1904.22363	0.02031
1902.93786	0.02036
1901.65209	0.02039
1900.36633	0.02036
1899.08056	0.02035
1897.79479	0.02049
1896.50902	0.02077
1895.22325	0.02107
1893.93748	0.02125
1892.65171	0.02133
1891.36594	0.02135
1890.08018	0.02136
1888.79441	0.02128
1887.50864	0.02096
1886.22287	0.02035
1884.93710	0.01960
1883.65133	0.01907
1882.36556	0.01897
1881.07979	0.01925
1879.79402	0.01964
1878.50826	0.01993
1877.22249	0.02010
1875.93672	0.02025
1874.65095	0.02040
1873.36518	0.02055
1872.07941	0.02073
1870.79364	0.02095
1869.50787	0.02114
1868.22211	0.02121
1866.93634	0.02113
1865.65057	0.02099
1864.36480	0.02093
1863.07903	0.02099
1861.79326	0.02113
1860.50749	0.02123
1859.22172	0.02124
1857.93595	0.02117
1856.65019	0.02109
1855.36442	0.02103
1854.07865	0.02098
1852.79288	0.02095
1851.50711	0.02097
1850.22134	0.02110
1848.93557	0.02133
1847.64980	0.02158
1846.36404	0.02170
1845.07827	0.02166
1843.79250	0.02156
1842.50673	0.02146
1841.22096	0.02135
1839.93519	0.02124
1838.64942	0.02122
1837.36365	0.02126
1836.07788	0.02133
1834.79212	0.02136
1833.50635	0.02137
1832.22058	0.02142
1830.93481	0.02153
1829.64904	0.02168
1828.36327	0.02178
1827.07750	0.02176
1825.79173	0.02167
1824.50597	0.02162
1823.22020	0.02162
1821.93443	0.02165
1820.64866	0.02175
1819.36289	0.02194
1818.07712	0.02216
1816.79135	0.02223
1815.50558	0.02209
1814.21981	0.02178
1812.93405	0.02145
1811.64828	0.02122
1810.36251	0.02112
1809.07674	0.02108
1807.79097	0.02104
1806.50520	0.02102
1805.21943	0.02105
1803.93366	0.02110
1802.64790	0.02114
1801.36213	0.02114
1800.07636	0.02109
1798.79059	0.02099
1797.50482	0.02084
1796.21905	0.02075
1794.93328	0.02078
1793.64751	0.02094
1792.36174	0.02120
1791.07598	0.02144
1789.79021	0.02151
1788.50444	0.02142
1787.21867	0.02125
1785.93290	0.02113
1784.64713	0.02110
1783.36136	0.02113
1782.07559	0.02116
1780.78983	0.02116
1779.50406	0.02116
1778.21829	0.02121
1776.93252	0.02131
1775.64675	0.02140
1774.36098	0.02141
1773.07521	0.02135
1771.78944	0.02130
1770.50367	0.02126
1769.21791	0.02113
1767.93214	0.02093
1766.64637	0.02075
1765.36060	0.02062
1764.07483	0.02051
1762.78906	0.02047
1761.50329	0.02051
1760.21752	0.02053
1758.93176	0.02041
1757.64599	0.02016
1756.36022	0.01992
1755.07445	0.01975
1753.78868	0.01960
1752.50291	0.01941
1751.21714	0.01923
1749.93137	0.01909
1748.64560	0.01885
1747.35984	0.01845
1746.07407	0.01797
1744.78830	0.01754
1743.50253	0.01726
1742.21676	0.01711
1740.93099	0.01705
1739.64522	0.01706
1738.35945	0.01720
1737.07369	0.01741
1735.78792	0.01762
1734.50215	0.01791
1733.21638	0.01831
1731.93061	0.01866
1730.64484	0.01876
1729.35907	0.01866
1728.07330	0.01861
1726.78753	0.01869
1725.50177	0.01889
1724.21600	0.01917
1722.93023	0.01953
1721.64446	0.01991
1720.35869	0.02018
1719.07292	0.02033
1717.78715	0.02052
1716.50138	0.02084
1715.21561	0.02119
1713.92985	0.02146
1712.64408	0.02169
1711.35831	0.02199
1710.07254	0.02242
1708.78677	0.02298
1707.50100	0.02358
1706.21523	0.02418
1704.92946	0.02484
1703.64370	0.02558
1702.35793	0.02636
1701.07216	0.02724
1699.78639	0.02837
1698.50062	0.02955
1697.21485	0.03044
1695.92908	0.03109
1694.64331	0.03178
1693.35754	0.03246
1692.07178	0.03305
1690.78601	0.03368
1689.50024	0.03455
1688.21447	0.03563
1686.92870	0.03673
1685.64293	0.03781
1684.35716	0.03894
1683.07139	0.04010
1681.78563	0.04103
1680.49986	0.04175
1679.21409	0.04251
1677.92832	0.04344
1676.64255	0.04443
1675.35678	0.04541
1674.07101	0.04640
1672.78524	0.04737
1671.49947	0.04830
1670.21371	0.04922
1668.92794	0.05015
1667.64217	0.05106
1666.35640	0.05191
1665.07063	0.05272
1663.78486	0.05354
1662.49909	0.05441
1661.21332	0.05526
1659.92756	0.05604
1658.64179	0.05677
1657.35602	0.05755
1656.07025	0.05837
1654.78448	0.05913
1653.49871	0.05990
1652.21294	0.06074
1650.92717	0.06142
1649.64140	0.06167
1648.35564	0.06162
1647.06987	0.06164
1645.78410	0.06186
1644.49833	0.06208
1643.21256	0.06211
1641.92679	0.06196
1640.64102	0.06179
1639.35525	0.06167
1638.06949	0.06154
1636.78372	0.06131
1635.49795	0.06103
1634.21218	0.06069
1632.92641	0.06019
1631.64064	0.05949
1630.35487	0.05867
1629.06910	0.05783
1627.78333	0.05699
1626.49757	0.05612
1625.21180	0.05522
1623.92603	0.05431
1622.64026	0.05345
1621.35449	0.05263
1620.06872	0.05180
1618.78295	0.05092
1617.49718	0.05009
1616.21142	0.04940
1614.92565	0.04875
1613.63988	0.04797
1612.35411	0.04708
1611.06834	0.04628
1609.78257	0.04564
1608.49680	0.04513
1607.21103	0.04467
1605.92526	0.04423
1604.63950	0.04378
1603.35373	0.04331
1602.06796	0.04287
1600.78219	0.04252
1599.49642	0.04228
1598.21065	0.04214
1596.92488	0.04204
1595.63911	0.04194
1594.35335	0.04191
1593.06758	0.04201
1591.78181	0.04223
1590.49604	0.04248
1589.21027	0.04267
1587.92450	0.04279
1586.63873	0.04291
1585.35296	0.04310
1584.06719	0.04339
1582.78143	0.04375
1581.49566	0.04418
1580.20989	0.04467
1578.92412	0.04517
1577.63835	0.04563
1576.35258	0.04614
1575.06681	0.04679
1573.78104	0.04743
1572.49528	0.04794
1571.20951	0.04836
1569.92374	0.04882
1568.63797	0.04935
1567.35220	0.04985
1566.06643	0.05027
1564.78066	0.05074
1563.49489	0.05134
1562.20912	0.05202
1560.92336	0.05266
1559.63759	0.05332
1558.35182	0.05403
1557.06605	0.05462
1555.78028	0.05487
1554.49451	0.05488
1553.20874	0.05493
1551.92297	0.05508
1550.63721	0.05523
1549.35144	0.05536
1548.06567	0.05549
1546.77990	0.05559
1545.49413	0.05569
1544.20836	0.05581
1542.92259	0.05593
1541.63682	0.05599
1540.35105	0.05597
1539.06529	0.05594
1537.77952	0.05590
1536.49375	0.05575
1535.20798	0.05549
1533.92221	0.05527
1532.63644	0.05519
1531.35067	0.05516
1530.06490	0.05512
1528.77914	0.05514
1527.49337	0.05529
1526.20760	0.05555
1524.92183	0.05587
1523.63606	0.05619
1522.35029	0.05648
1521.06452	0.05685
1519.77875	0.05727
1518.49298	0.05761
1517.20722	0.05786
1515.92145	0.05817
1514.63568	0.05859
1513.34991	0.05905
1512.06414	0.05957
1510.77837	0.06022
1509.49260	0.06096
1508.20683	0.06171
1506.92107	0.06248
1505.63530	0.06326
1504.34953	0.06391
1503.06376	0.06430
1501.77799	0.06454
1500.49222	0.06487
1499.20645	0.06533
1497.92068	0.06582
1496.63491	0.06623
1495.34915	0.06660
1494.06338	0.06693
1492.77761	0.06724
1491.49184	0.06760
1490.20607	0.06808
1488.92030	0.06869
1487.63453	0.06936
1486.34876	0.07004
1485.06299	0.07077
1483.77723	0.07157
1482.49146	0.07246
1481.20569	0.07344
1479.91992	0.07449
1478.63415	0.07557
1477.34838	0.07662
1476.06261	0.07763
1474.77684	0.07853
1473.49108	0.07928
1472.20531	0.07998
1470.91954	0.08067
1469.63377	0.08134
1468.34800	0.08197
1467.06223	0.08258
1465.77646	0.08320
1464.49069	0.08383
1463.20492	0.08445
1461.91916	0.08508
1460.63339	0.08576
1459.34762	0.08651
1458.06185	0.08729
1456.77608	0.08814
1455.49031	0.08900
1454.20454	0.08973
1452.91877	0.09023
1451.63301	0.09058
1450.34724	0.09091
1449.06147	0.09121
1447.77570	0.09147
1446.48993	0.09163
1445.20416	0.09160
1443.91839	0.09134
1442.63262	0.09089
1441.34685	0.09038
1440.06109	0.08989
1438.77532	0.08944
1437.48955	0.08908
1436.20378	0.08885
1434.91801	0.08873
1433.63224	0.08866
1432.34647	0.08866
1431.06070	0.08885
1429.77494	0.08929
1428.48917	0.08998
1427.20340	0.09087
1425.91763	0.09191
1424.63186	0.09309
1423.34609	0.09439
1422.06032	0.09570
1420.77455	0.09687
1419.48878	0.09791
1418.20302	0.09886
1416.91725	0.09970
1415.63148	0.10042
1414.34571	0.10106
1413.05994	0.10164
1411.77417	0.10209
1410.48840	0.10237
1409.20263	0.10246
1407.91687	0.10236
1406.63110	0.10206
1405.34533	0.10159
1404.05956	0.10095
1402.77379	0.10019
1401.48802	0.09930
1400.20225	0.09830
1398.91648	0.09719
1397.63071	0.09597
1396.34495	0.09460
1395.05918	0.09309
1393.77341	0.09151
1392.48764	0.08987
1391.20187	0.08823
1389.91610	0.08664
1388.63033	0.08519
1387.34456	0.08386
1386.05880	0.08257
1384.77303	0.08123
1383.48726	0.07978
1382.20149	0.07826
1380.91572	0.07674
1379.62995	0.07528
1378.34418	0.07388
1377.05841	0.07251
1375.77264	0.07107
1374.48688	0.06952
1373.20111	0.06785
1371.91534	0.06611
1370.62957	0.06437
1369.34380	0.06269
1368.05803	0.06112
1366.77226	0.05963
1365.48649	0.05818
1364.20073	0.05674
1362.91496	0.05536
1361.62919	0.05404
1360.34342	0.05279
1359.05765	0.05162
1357.77188	0.05055
1356.48611	0.04962
1355.20034	0.04881
1353.91457	0.04810
1352.62881	0.04746
1351.34304	0.04687
1350.05727	0.04632
1348.77150	0.04577
1347.48573	0.04523
1346.19996	0.04470
1344.91419	0.04423
1343.62842	0.04385
1342.34266	0.04353
1341.05689	0.04322
1339.77112	0.04287
1338.48535	0.04248
1337.19958	0.04209
1335.91381	0.04172
1334.62804	0.04137
1333.34227	0.04105
1332.05650	0.04071
1330.77074	0.04037
1329.48497	0.04000
1328.19920	0.03961
1326.91343	0.03921
1325.62766	0.03881
1324.34189	0.03845
1323.05612	0.03816
1321.77035	0.03793
1320.48459	0.03770
1319.19882	0.03744
1317.91305	0.03715
1316.62728	0.03684
1315.34151	0.03656
1314.05574	0.03632
1312.76997	0.03609
1311.48420	0.03586
1310.19843	0.03559
1308.91267	0.03531
1307.62690	0.03506
1306.34113	0.03484
1305.05536	0.03460
1303.76959	0.03429
1302.48382	0.03392
1301.19805	0.03356
1299.91228	0.03325
1298.62652	0.03302
1297.34075	0.03284
1296.05498	0.03268
1294.76921	0.03251
1293.48344	0.03230
1292.19767	0.03207
1290.91190	0.03187
1289.62613	0.03175
1288.34036	0.03169
1287.05460	0.03166
1285.76883	0.03162
1284.48306	0.03157
1283.19729	0.03150
1281.91152	0.03139
1280.62575	0.03118
1279.33998	0.03091
1278.05421	0.03063
1276.76845	0.03042
1275.48268	0.03032
1274.19691	0.03028
1272.91114	0.03023
1271.62537	0.03012
1270.33960	0.02993
1269.05383	0.02971
1267.76806	0.02951
1266.48229	0.02938
1265.19653	0.02930
1263.91076	0.02922
1262.62499	0.02911
1261.33922	0.02897
1260.05345	0.02885
1258.76768	0.02878
1257.48191	0.02877
1256.19614	0.02880
1254.91037	0.02884
1253.62461	0.02885
1252.33884	0.02882
1251.05307	0.02880
1249.76730	0.02880
1248.48153	0.02881
1247.19576	0.02879
1245.90999	0.02873
1244.62422	0.02865
1243.33846	0.02858
1242.05269	0.02852
1240.76692	0.02843
1239.48115	0.02828
1238.19538	0.02809
1236.90961	0.02790
1235.62384	0.02772
1234.33807	0.02755
1233.05230	0.02737
1231.76654	0.02715
1230.48077	0.02691
1229.19500	0.02664
1227.90923	0.02636
1226.62346	0.02608
1225.33769	0.02581
1224.05192	0.02557
1222.76615	0.02535
1221.48039	0.02511
1220.19462	0.02485
1218.90885	0.02458
1217.62308	0.02433
1216.33731	0.02410
1215.05154	0.02390
1213.76577	0.02372
1212.48000	0.02356
1211.19423	0.02344
1209.90847	0.02335
1208.62270	0.02325
1207.33693	0.02317
1206.05116	0.02313
1204.76539	0.02313
1203.47962	0.02314
1202.19385	0.02309
1200.90808	0.02292
1199.62232	0.02256
1198.33655	0.02237
1197.05078	0.02223
1195.76501	0.02213
1194.47924	0.02204
1193.19347	0.02195
1191.90770	0.02182
1190.62193	0.02163
1189.33616	0.02136
1188.05040	0.02105
1186.76463	0.02077
1185.47886	0.02056
1184.19309	0.02040
1182.90732	0.02026
1181.62155	0.02008
1180.33578	0.01986
1179.05001	0.01960
1177.76425	0.01937
1176.47848	0.01923
1175.19271	0.01917
1173.90694	0.01916
1172.62117	0.01914
1171.33540	0.01911
1170.04963	0.01907
1168.76386	0.01909
1167.47809	0.01919
1166.19233	0.01936
1164.90656	0.01949
1163.62079	0.01951
1162.33502	0.01940
1161.04925	0.01924
1159.76348	0.01909
1158.47771	0.01901
1157.19194	0.01900
1155.90618	0.01906
1154.62041	0.01911
1153.33464	0.01911
1152.04887	0.01904
1150.76310	0.01894
1149.47733	0.01891
1148.19156	0.01898
1146.90579	0.01913
1145.62002	0.01931
1144.33426	0.01954
1143.04849	0.01985
1141.76272	0.02026
1140.47695	0.02076
1139.19118	0.02135
1137.90541	0.02202
1136.61964	0.02278
1135.33387	0.02367
1134.04811	0.02470
1132.76234	0.02587
1131.47657	0.02714
1130.19080	0.02848
1128.90503	0.02993
1127.61926	0.03157
1126.33349	0.03343
1125.04772	0.03550
1123.76195	0.03775
1122.47619	0.04011
1121.19042	0.04256
1119.90465	0.04510
1118.61888	0.04776
1117.33311	0.05054
1116.04734	0.05339
1114.76157	0.05626
1113.47580	0.05912
1112.19004	0.06195
1110.90427	0.06472
1109.61850	0.06738
1108.33273	0.06995
1107.04696	0.07245
1105.76119	0.07490
1104.47542	0.07732
1103.18965	0.07967
1101.90388	0.08192
1100.61812	0.08405
1099.33235	0.08611
1098.04658	0.08812
1096.76081	0.09008
1095.47504	0.09193
1094.18927	0.09362
1092.90350	0.09518
1091.61773	0.09662
1090.33197	0.09793
1089.04620	0.09911
1087.76043	0.10017
1086.47466	0.10120
1085.18889	0.10224
1083.90312	0.10332
1082.61735	0.10448
1081.33158	0.10579
1080.04581	0.10725
1078.76005	0.10881
1077.47428	0.11048
1076.18851	0.11231
1074.90274	0.11432
1073.61697	0.11651
1072.33120	0.11880
1071.04543	0.12113
1069.75966	0.12349
1068.47390	0.12589
1067.18813	0.12838
1065.90236	0.13095
1064.61659	0.13353
1063.33082	0.13606
1062.04505	0.13855
1060.75928	0.14103
1059.47351	0.14355
1058.18774	0.14609
1056.90198	0.14859
1055.61621	0.15099
1054.33044	0.15332
1053.04467	0.15566
1051.75890	0.15807
1050.47313	0.16058
1049.18736	0.16318
1047.90159	0.16583
1046.61583	0.16854
1045.33006	0.17130
1044.04429	0.17405
1042.75852	0.17674
1041.47275	0.17935
1040.18698	0.18193
1038.90121	0.18453
1037.61544	0.18719
1036.32967	0.18986
1035.04391	0.19249
1033.75814	0.19506
1032.47237	0.19756
1031.18660	0.20000
1029.90083	0.20230
1028.61506	0.20438
1027.32929	0.20619
1026.04352	0.20776
1024.75775	0.20915
1023.47199	0.21034
1022.18622	0.21125
1020.90045	0.21178
1019.61468	0.21192
1018.32891	0.21172
1017.04314	0.21131
1015.75737	0.21072
1014.47160	0.20987
1013.18584	0.20863
1011.90007	0.20698
1010.61430	0.20494
1009.32853	0.20253
1008.04276	0.19976
1006.75699	0.19662
1005.47122	0.19317
1004.18545	0.18946
1002.89968	0.18550
1001.61392	0.18129
1000.32815	0.17684
999.04238	0.17220
997.75661	0.16745
996.47084	0.16263
995.18507	0.15782
993.89930	0.15309
992.61353	0.14847
991.32777	0.14397
990.04200	0.13959
988.75623	0.13535
987.47046	0.13127
986.18469	0.12733
984.89892	0.12351
983.61315	0.11981
982.32738	0.11623
981.04161	0.11283
979.75585	0.10965
978.47008	0.10678
977.18431	0.10422
975.89854	0.10190
974.61277	0.09973
973.32700	0.09771
972.04123	0.09595
970.75546	0.09464
969.46970	0.09387
968.18393	0.09366
966.89816	0.09393
965.61239	0.09455
964.32662	0.09533
963.04085	0.09606
961.75508	0.09655
960.46931	0.09670
959.18354	0.09648
957.89778	0.09582
956.61201	0.09469
955.32624	0.09313
954.04047	0.09129
952.75470	0.08934
951.46893	0.08742
950.18316	0.08560
948.89739	0.08386
947.61163	0.08217
946.32586	0.08048
945.04009	0.07881
943.75432	0.07719
942.46855	0.07564
941.18278	0.07412
939.89701	0.07263
938.61124	0.07122
937.32547	0.06994
936.03971	0.06877
934.75394	0.06763
933.46817	0.06650
932.18240	0.06541
930.89663	0.06439
929.61086	0.06341
928.32509	0.06240
927.03932	0.06141
925.75356	0.06051
924.46779	0.05972
923.18202	0.05900
921.89625	0.05831
920.61048	0.05764
919.32471	0.05698
918.03894	0.05633
916.75317	0.05569
915.46740	0.05507
914.18164	0.05447
912.89587	0.05389
911.61010	0.05335
910.32433	0.05288
909.03856	0.05245
907.75279	0.05201
906.46702	0.05152
905.18125	0.05098
903.89549	0.05043
902.60972	0.04994
901.32395	0.04950
900.03818	0.04908
898.75241	0.04861
897.46664	0.04805
896.18087	0.04745
894.89510	0.04693
893.60933	0.04659
892.32357	0.04642
891.03780	0.04631
889.75203	0.04617
888.46626	0.04602
887.18049	0.04600
885.89472	0.04640
884.60895	0.04748
883.32318	0.04932
882.03742	0.05169
880.75165	0.05411
879.46588	0.05612
878.18011	0.05759
876.89434	0.05884
875.60857	0.06028
874.32280	0.06203
873.03703	0.06379
871.75126	0.06510
870.46550	0.06562
869.17973	0.06526
867.89396	0.06410
866.60819	0.06235
865.32242	0.06027
864.03665	0.05813
862.75088	0.05606
861.46511	0.05416
860.17935	0.05248
858.89358	0.05105
857.60781	0.04989
856.32204	0.04895
855.03627	0.04818
853.75050	0.04751
852.46473	0.04693
851.17896	0.04645
849.89319	0.04603
848.60743	0.04564
847.32166	0.04521
846.03589	0.04476
844.75012	0.04433
843.46435	0.04393
842.17858	0.04356
840.89281	0.04318
839.60704	0.04279
838.32128	0.04241
837.03551	0.04203
835.74974	0.04165
834.46397	0.04132
833.17820	0.04104
831.89243	0.04079
830.60666	0.04054
829.32089	0.04034
828.03512	0.04024
826.74936	0.04019
825.46359	0.04012
824.17782	0.03993
822.89205	0.03963
821.60628	0.03928
820.32051	0.03901
819.03474	0.03892
817.74897	0.03900
816.46321	0.03914
815.17744	0.03923
813.89167	0.03922
812.60590	0.03911
811.32013	0.03896
810.03436	0.03884
808.74859	0.03878
807.46282	0.03873
806.17705	0.03858
804.89129	0.03832
803.60552	0.03803
802.31975	0.03783
801.03398	0.03773
799.74821	0.03766
798.46244	0.03757
797.17667	0.03748
795.89090	0.03743
794.60513	0.03739
793.31937	0.03730
792.03360	0.03712
790.74783	0.03693
789.46206	0.03676
788.17629	0.03665
786.89052	0.03659
785.60475	0.03657
784.31898	0.03655
783.03322	0.03655
781.74745	0.03656
780.46168	0.03662
779.17591	0.03669
777.89014	0.03674
776.60437	0.03673
775.31860	0.03664
774.03283	0.03649
772.74706	0.03628
771.46130	0.03611
770.17553	0.03605
768.88976	0.03611
767.60399	0.03619
766.31822	0.03620
765.03245	0.03610
763.74668	0.03596
762.46091	0.03591
761.17515	0.03598
759.88938	0.03613
758.60361	0.03624
757.31784	0.03625
756.03207	0.03616
754.74630	0.03604
753.46053	0.03595
752.17476	0.03590
750.88899	0.03586
749.60323	0.03576
748.31746	0.03554
747.03169	0.03528
745.74592	0.03507
744.46015	0.03496
743.17438	0.03493
741.88861	0.03496
740.60284	0.03502
739.31708	0.03509
738.03131	0.03511
736.74554	0.03504
735.45977	0.03494
734.17400	0.03490
732.88823	0.03497
731.60246	0.03511
730.31669	0.03522
729.03092	0.03523
727.74516	0.03513
726.45939	0.03499
725.17362	0.03491
723.88785	0.03504
722.60208	0.03491
721.31631	0.03458
720.03054	0.03422
718.74477	0.03396
717.45901	0.03386
716.17324	0.03396
714.88747	0.03420
713.60170	0.03449
712.31593	0.03467
711.03016	0.03470
709.74439	0.03460
708.45862	0.03445
707.17285	0.03433
705.88709	0.03424
704.60132	0.03416
703.31555	0.03408
702.02978	0.03401
700.74401	0.03394
699.45824	0.03382
698.17247	0.03365
696.88670	0.03347
695.60094	0.03334
694.31517	0.03327
693.02940	0.03326
691.74363	0.03324
690.45786	0.03323
689.17209	0.03322
687.88632	0.03326
686.60055	0.03332
685.31478	0.03336
684.02902	0.03333
682.74325	0.03324
681.45748	0.03313
680.17171	0.03305
678.88594	0.03298
677.60017	0.03290
676.31440	0.03281
675.02863	0.03277
673.74287	0.03282
672.45710	0.03292
671.17133	0.03303
669.88556	0.03317
668.59979	0.03347
667.31402	0.03360
666.02825	0.03335
664.74248	0.03314
663.45671	0.03285
662.17095	0.03253
660.88518	0.03228
659.59941	0.03206
658.31364	0.03182
657.02787	0.03156
655.74210	0.03134
654.45633	0.03125
653.17056	0.03127
651.88480	0.03133
650.59903	0.03138
649.31326	0.03137
648.02749	0.03131
646.74172	0.03122
645.45595	0.03111
644.17018	0.03102
642.88441	0.03099
641.59864	0.03103
640.31288	0.03112
639.02711	0.03121
637.74134	0.03127
636.45557	0.03131
635.16980	0.03133
633.88403	0.03127
632.59826	0.03112
631.31249	0.03111
630.02673	0.03175
628.74096	0.03218
627.45519	0.03078
626.16942	0.03147
624.88365	0.03395
623.59788	0.03710
622.31211	0.04043
621.02634	0.04346
619.74057	0.04579
618.45481	0.04749
617.16904	0.04906
615.88327	0.05089
614.59750	0.05292
613.31173	0.05470
612.02596	0.05628
610.74019	0.05866
609.45442	0.06294
608.16866	0.06895
606.88289	0.07555
605.59712	0.08191
604.31135	0.08739
603.02558	0.09102
601.73981	0.09193
600.45404	0.09026
599.16827	0.08713
597.88250	0.08366
596.59674	0.08041
595.31097	0.07750
594.02520	0.07493
592.73943	0.07279
591.45366	0.07123
590.16789	0.07027
588.88212	0.06982
587.59635	0.06979
586.31059	0.07013
585.02482	0.07086
583.73905	0.07200
582.45328	0.07348
581.16751	0.07522
579.88174	0.07720
578.59597	0.07938
577.31020	0.08166
576.02443	0.08386
574.73867	0.08588
573.45290	0.08774
572.16713	0.08963
570.88136	0.09182
569.59559	0.09446
568.30982	0.09756
567.02405	0.10101
565.73828	0.10457
564.45251	0.10785
563.16675	0.11040
561.88098	0.11180
560.59521	0.11189
559.30944	0.11070
558.02367	0.10835
556.73790	0.10498
555.45213	0.10078
554.16636	0.09608
552.88060	0.09133
551.59483	0.08689
550.30906	0.08284
549.02329	0.07906
547.73752	0.07551
546.45175	0.07227
545.16598	0.06944
543.88021	0.06701
542.59444	0.06484
541.30868	0.06277
540.02291	0.06077
538.73714	0.05894
537.45137	0.05740
536.16560	0.05614
534.87983	0.05507
533.59406	0.05404
532.30829	0.05304
531.02253	0.05207
529.73676	0.05117
528.45099	0.05028
527.16522	0.04934
525.87945	0.04839
524.59368	0.04752
523.30791	0.04676
522.02214	0.04600
520.73637	0.04510
519.45061	0.04407
518.16484	0.04306
516.87907	0.04221
515.59330	0.04157
514.30753	0.04109
513.02176	0.04068
511.73599	0.04028
510.45022	0.03981
509.16446	0.03924
507.87869	0.03864
506.59292	0.03810
505.30715	0.03763
504.02138	0.03718
502.73561	0.03674
501.44984	0.03634
500.16407	0.03598
498.87830	0.03562
497.59254	0.03520
496.30677	0.03473
495.02100	0.03425
493.73523	0.03383
492.44946	0.03347
491.16369	0.03313
489.87792	0.03279
488.59215	0.03250
487.30639	0.03228
486.02062	0.03214
484.73485	0.03206
483.44908	0.03201
482.16331	0.03199
480.87754	0.03200
479.59177	0.03205
478.30600	0.03212
477.02023	0.03221
475.73447	0.03230
474.44870	0.03237
473.16293	0.03241
471.87716	0.03240
470.59139	0.03233
469.30562	0.03218
468.01985	0.03197
466.73408	0.03171
465.44832	0.03140
464.16255	0.03101
462.87678	0.03057
461.59101	0.03012
460.30524	0.02970
459.01947	0.02931
457.73370	0.02895
456.44793	0.02865
455.16216	0.02841
453.87640	0.02820
452.59063	0.02797
451.30486	0.02766
450.01909	0.02723
448.73332	0.02673
447.44755	0.02629
446.16178	0.02598
444.87601	0.02579
443.59025	0.02564
442.30448	0.02548
441.01871	0.02529
439.73294	0.02507
438.44717	0.02482
437.16140	0.02452
435.87563	0.02424
434.58986	0.02402
433.30409	0.02384
432.01833	0.02369
430.73256	0.02355
429.44679	0.02340
428.16102	0.02323
426.87525	0.02303
425.58948	0.02283
424.30371	0.02265
423.01794	0.02251
421.73218	0.02235
420.44641	0.02213
419.16064	0.02187
417.87487	0.02159
416.58910	0.02131
415.30333	0.02106
414.01756	0.02086
412.73179	0.02070
411.44602	0.02051
410.16026	0.02029
408.87449	0.02008
407.58872	0.01995
406.30295	0.01993
405.01718	0.01992
403.73141	0.01987
402.44564	0.01978
401.15987	0.01975
399.87411	0.01978
