3997.45528 0.01264
3996.16951 0.01249
3994.88374 0.01321
3993.59798 0.01400
3992.31221 0.01403
3991.02644 0.01343
3989.74067 0.01303
3988.45490 0.01346
3987.16913 0.01441
3985.88336 0.01491
3984.59759 0.01434
3983.31183 0.01303
3982.02606 0.01184
3980.74029 0.01131
3979.45452 0.01138
3978.16875 0.01167
3976.88298 0.01188
3975.59721 0.01182
3974.31144 0.01145
3973.02567 0.01102
3971.73991 0.01100
3970.45414 0.01164
3969.16837 0.01255
3967.88260 0.01291
3966.59683 0.01233
3965.31106 0.01125
3964.02529 0.01052
3962.73952 0.01058
3961.45376 0.01123
3960.16799 0.01206
3958.88222 0.01290
3957.59645 0.01377
3956.31068 0.01458
3955.02491 0.01489
3953.73914 0.01435
3952.45337 0.01307
3951.16760 0.01164
3949.88184 0.01075
3948.59607 0.01081
3947.31030 0.01181
3946.02453 0.01324
3944.73876 0.01433
3943.45299 0.01446
3942.16722 0.01352
3940.88145 0.01184
3939.59569 0.01013
3938.30992 0.00915
3937.02415 0.00932
3935.73838 0.01039
3934.45261 0.01165
3933.16684 0.01247
3931.88107 0.01271
3930.59530 0.01255
3929.30953 0.01234
3928.02377 0.01219
3926.73800 0.01195
3925.45223 0.01158
3924.16646 0.01136
3922.88069 0.01159
3921.59492 0.01233
3920.30915 0.01344
3919.02338 0.01468
3917.73762 0.01562
3916.45185 0.01575
3915.16608 0.01490
3913.88031 0.01355
3912.59454 0.01265
3911.30877 0.01283
3910.02300 0.01396
3908.73723 0.01528
3907.45146 0.01614
3906.16570 0.01636
3904.87993 0.01616
3903.59416 0.01560
3902.30839 0.01453
3901.02262 0.01301
3899.73685 0.01164
3898.45108 0.01094
3897.16531 0.01082
3895.87955 0.01081
3894.59378 0.01082
3893.30801 0.01114
3892.02224 0.01184
3890.73647 0.01240
3889.45070 0.01225
3888.16493 0.01144
3886.87916 0.01076
3885.59339 0.01082
3884.30763 0.01127
3883.02186 0.01135
3881.73609 0.01103
3880.45032 0.01108
3879.16455 0.01200
3877.87878 0.01338
3876.59301 0.01441
3875.30724 0.01464
3874.02148 0.01400
3872.73571 0.01264
3871.44994 0.01106
3870.16417 0.01021
3868.87840 0.01065
3867.59263 0.01169
3866.30686 0.01223
3865.02109 0.01193
3863.73532 0.01128
3862.44956 0.01082
3861.16379 0.01069
3859.87802 0.01084
3858.59225 0.01123
3857.30648 0.01185
3856.02071 0.01257
3854.73494 0.01322
3853.44917 0.01383
3852.16341 0.01442
3850.87764 0.01473
3849.59187 0.01457
3848.30610 0.01400
3847.02033 0.01332
3845.73456 0.01284
3844.44879 0.01268
3843.16302 0.01287
3841.87725 0.01340
3840.59149 0.01417
3839.30572 0.01495
3838.01995 0.01540
3836.73418 0.01523
3835.44841 0.01420
3834.16264 0.01254
3832.87687 0.01105
3831.59110 0.01040
3830.30534 0.01046
3829.01957 0.01056
3827.73380 0.01034
3826.44803 0.01017
3825.16226 0.01059
3823.87649 0.01154
3822.59072 0.01254
3821.30495 0.01332
3820.01918 0.01378
3818.73342 0.01371
3817.44765 0.01299
3816.16188 0.01210
3814.87611 0.01166
3813.59034 0.01173
3812.30457 0.01216
3811.01880 0.01283
3809.73303 0.01336
3808.44726 0.01323
3807.16150 0.01254
3805.87573 0.01191
3804.58996 0.01176
3803.30419 0.01207
3802.01842 0.01278
3800.73265 0.01378
3799.44688 0.01457
3798.16111 0.01460
3796.87535 0.01399
3795.58958 0.01330
3794.30381 0.01287
3793.01804 0.01273
3791.73227 0.01278
3790.44650 0.01292
3789.16073 0.01319
3787.87496 0.01373
3786.58919 0.01447
3785.30343 0.01487
3784.01766 0.01435
3782.73189 0.01299
3781.44612 0.01157
3780.16035 0.01095
3778.87458 0.01128
3777.58881 0.01197
3776.30304 0.01236
3775.01728 0.01232
3773.73151 0.01217
3772.44574 0.01217
3771.15997 0.01228
3769.87420 0.01230
3768.58843 0.01203
3767.30266 0.01154
3766.01689 0.01133
3764.73112 0.01184
3763.44536 0.01280
3762.15959 0.01330
3760.87382 0.01279
3759.58805 0.01165
3758.30228 0.01074
3757.01651 0.01083
3755.73074 0.01202
3754.44497 0.01374
3753.15921 0.01519
3751.87344 0.01573
3750.58767 0.01520
3749.30190 0.01414
3748.01613 0.01331
3746.73036 0.01288
3745.44459 0.01280
3744.15882 0.01331
3742.87305 0.01432
3741.58729 0.01530
3740.30152 0.01595
3739.01575 0.01617
3737.72998 0.01574
3736.44421 0.01467
3735.15844 0.01348
3733.87267 0.01268
3732.58690 0.01250
3731.30114 0.01282
3730.01537 0.01318
3728.72960 0.01317
3727.44383 0.01279
3726.15806 0.01233
3724.87229 0.01189
3723.58652 0.01147
3722.30075 0.01128
3721.01498 0.01155
3719.72922 0.01227
3718.44345 0.01319
3717.15768 0.01401
3715.87191 0.01446
3714.58614 0.01440
3713.30037 0.01395
3712.01460 0.01342
3710.72883 0.01310
3709.44307 0.01310
3708.15730 0.01337
3706.87153 0.01363
3705.58576 0.01364
3704.29999 0.01345
3703.01422 0.01344
3701.72845 0.01375
3700.44268 0.01392
3699.15691 0.01334
3697.87115 0.01209
3696.58538 0.01108
3695.29961 0.01110
3694.01384 0.01200
3692.72807 0.01299
3691.44230 0.01314
3690.15653 0.01191
3688.87076 0.00968
3687.58500 0.00761
3686.29923 0.00675
3685.01346 0.00735
3683.72769 0.00886
3682.44192 0.01043
3681.15615 0.01147
3679.87038 0.01202
3678.58461 0.01229
3677.29884 0.01237
3676.01308 0.01238
3674.72731 0.01249
3673.44154 0.01249
3672.15577 0.01202
3670.87000 0.01129
3669.58423 0.01085
3668.29846 0.01076
3667.01269 0.01089
3665.72693 0.01142
3664.44116 0.01265
3663.15539 0.01442
3661.86962 0.01617
3660.58385 0.01738
3659.29808 0.01774
3658.01231 0.01722
3656.72654 0.01615
3655.44077 0.01520
3654.15501 0.01483
3652.86924 0.01497
3651.58347 0.01522
3650.29770 0.01524
3649.01193 0.01494
3647.72616 0.01454
3646.44039 0.01436
3645.15462 0.01445
3643.86886 0.01456
3642.58309 0.01433
3641.29732 0.01379
3640.01155 0.01341
3638.72578 0.01362
3637.44001 0.01415
3636.15424 0.01420
3634.86847 0.01339
3633.58270 0.01236
3632.29694 0.01194
3631.01117 0.01225
3629.72540 0.01277
3628.43963 0.01303
3627.15386 0.01282
3625.86809 0.01211
3624.58232 0.01120
3623.29655 0.01050
3622.01079 0.01029
3620.72502 0.01062
3619.43925 0.01146
3618.15348 0.01257
3616.86771 0.01357
3615.58194 0.01420
3614.29617 0.01450
3613.01040 0.01464
3611.72463 0.01476
3610.43887 0.01493
3609.15310 0.01523
3607.86733 0.01575
3606.58156 0.01629
3605.29579 0.01649
3604.01002 0.01620
3602.72425 0.01573
3601.43848 0.01564
3600.15272 0.01617
3598.86695 0.01708
3597.58118 0.01781
3596.29541 0.01792
3595.00964 0.01738
3593.72387 0.01654
3592.43810 0.01596
3591.15233 0.01604
3589.86656 0.01677
3588.58080 0.01773
3587.29503 0.01822
3586.00926 0.01770
3584.72349 0.01625
3583.43772 0.01460
3582.15195 0.01349
3580.86618 0.01310
3579.58041 0.01317
3578.29464 0.01349
3577.00888 0.01415
3575.72311 0.01519
3574.43734 0.01628
3573.15157 0.01695
3571.86580 0.01692
3570.58003 0.01628
3569.29426 0.01541
3568.00849 0.01486
3566.72273 0.01498
3565.43696 0.01561
3564.15119 0.01617
3562.86542 0.01618
3561.57965 0.01571
3560.29388 0.01523
3559.00811 0.01528
3557.72234 0.01597
3556.43657 0.01695
3555.15081 0.01769
3553.86504 0.01790
3552.57927 0.01775
3551.29350 0.01762
3550.00773 0.01768
3548.72196 0.01777
3547.43619 0.01764
3546.15042 0.01729
3544.86466 0.01702
3543.57889 0.01720
3542.29312 0.01788
3541.00735 0.01857
3539.72158 0.01867
3538.43581 0.01787
3537.15004 0.01651
3535.86427 0.01522
3534.57850 0.01446
3533.29274 0.01435
3532.00697 0.01474
3530.72120 0.01540
3529.43543 0.01606
3528.14966 0.01645
3526.86389 0.01652
3525.57812 0.01652
3524.29235 0.01673
3523.00659 0.01716
3521.72082 0.01756
3520.43505 0.01766
3519.14928 0.01748
3517.86351 0.01723
3516.57774 0.01711
3515.29197 0.01716
3514.00620 0.01738
3512.72043 0.01779
3511.43467 0.01824
3510.14890 0.01851
3508.86313 0.01853
3507.57736 0.01841
3506.29159 0.01828
3505.00582 0.01801
3503.72005 0.01749
3502.43428 0.01680
3501.14852 0.01628
3499.86275 0.01627
3498.57698 0.01676
3497.29121 0.01745
3496.00544 0.01793
3494.71967 0.01805
3493.43390 0.01787
3492.14813 0.01759
3490.86236 0.01729
3489.57660 0.01702
3488.29083 0.01691
3487.00506 0.01717
3485.71929 0.01789
3484.43352 0.01880
3483.14775 0.01940
3481.86198 0.01934
3480.57621 0.01876
3479.29045 0.01818
3478.00468 0.01801
3476.71891 0.01820
3475.43314 0.01848
3474.14737 0.01872
3472.86160 0.01907
3471.57583 0.01963
3470.29006 0.02018
3469.00429 0.02042
3467.71853 0.02026
3466.43276 0.01986
3465.14699 0.01946
3463.86122 0.01924
3462.57545 0.01934
3461.28968 0.01973
3460.00391 0.02015
3458.71814 0.02030
3457.43238 0.02006
3456.14661 0.01954
3454.86084 0.01894
3453.57507 0.01838
3452.28930 0.01800
3451.00353 0.01789
3449.71776 0.01800
3448.43199 0.01822
3447.14622 0.01836
3445.86046 0.01834
3444.57469 0.01824
3443.28892 0.01829
3442.00315 0.01861
3440.71738 0.01904
3439.43161 0.01935
3438.14584 0.01949
3436.86007 0.01956
3435.57431 0.01950
3434.28854 0.01917
3433.00277 0.01873
3431.71700 0.01873
3430.43123 0.01949
3429.14546 0.02071
3427.85969 0.02173
3426.57392 0.02206
3425.28815 0.02167
3424.00239 0.02085
3422.71662 0.01999
3421.43085 0.01939
3420.14508 0.01914
3418.85931 0.01909
3417.57354 0.01910
3416.28777 0.01926
3415.00200 0.01971
3413.71624 0.02049
3412.43047 0.02132
3411.14470 0.02182
3409.85893 0.02174
3408.57316 0.02120
3407.28739 0.02065
3406.00162 0.02057
3404.71585 0.02103
3403.43008 0.02163
3402.14432 0.02193
3400.85855 0.02188
3399.57278 0.02142
3398.28701 0.02116
3397.00124 0.02180
3395.71547 0.02276
3394.42970 0.02312
3393.14393 0.02266
3391.85817 0.02185
3390.57240 0.02143
3389.28663 0.02166
3388.00086 0.02227
3386.71509 0.02284
3385.42932 0.02319
3384.14355 0.02339
3382.85778 0.02351
3381.57201 0.02358
3380.28625 0.02357
3379.00048 0.02345
3377.71471 0.02317
3376.42894 0.02280
3375.14317 0.02255
3373.85740 0.02262
3372.57163 0.02294
3371.28586 0.02318
3370.00010 0.02302
3368.71433 0.02243
3367.42856 0.02178
3366.14279 0.02151
3364.85702 0.02174
3363.57125 0.02221
3362.28548 0.02252
3360.99971 0.02248
3359.71394 0.02220
3358.42818 0.02200
3357.14241 0.02211
3355.85664 0.02250
3354.57087 0.02289
3353.28510 0.02304
3351.99933 0.02302
3350.71356 0.02302
3349.42779 0.02312
3348.14202 0.02322
3346.85626 0.02322
3345.57049 0.02320
3344.28472 0.02343
3342.99895 0.02398
3341.71318 0.02458
3340.42741 0.02474
3339.14164 0.02428
3337.85587 0.02355
3336.57011 0.02309
3335.28434 0.02311
3333.99857 0.02342
3332.71280 0.02371
3331.42703 0.02377
3330.14126 0.02361
3328.85549 0.02332
3327.56972 0.02308
3326.28395 0.02304
3324.99819 0.02325
3323.71242 0.02358
3322.42665 0.02392
3321.14088 0.02424
3319.85511 0.02459
3318.56934 0.02489
3317.28357 0.02501
3315.99780 0.02493
3314.71204 0.02491
3313.42627 0.02518
3312.14050 0.02567
3310.85473 0.02606
3309.56896 0.02617
3308.28319 0.02613
3306.99742 0.02608
3305.71165 0.02595
3304.42588 0.02560
3303.14012 0.02512
3301.85435 0.02481
3300.56858 0.02482
3299.28281 0.02502
3297.99704 0.02517
3296.71127 0.02513
3295.42550 0.02501
3294.13973 0.02499
3292.85397 0.02525
3291.56820 0.02574
3290.28243 0.02624
3288.99666 0.02653
3287.71089 0.02650
3286.42512 0.02624
3285.13935 0.02598
3283.85358 0.02593
3282.56781 0.02617
3281.28205 0.02656
3279.99628 0.02682
3278.71051 0.02679
3277.42474 0.02660
3276.13897 0.02643
3274.85320 0.02637
3273.56743 0.02633
3272.28166 0.02625
3270.99590 0.02628
3269.71013 0.02656
3268.42436 0.02712
3267.13859 0.02775
3265.85282 0.02820
3264.56705 0.02834
3263.28128 0.02819
3261.99551 0.02786
3260.70974 0.02748
3259.42398 0.02714
3258.13821 0.02686
3256.85244 0.02663
3255.56667 0.02641
3254.28090 0.02616
3252.99513 0.02589
3251.70936 0.02572
3250.42359 0.02584
3249.13783 0.02621
3247.85206 0.02644
3246.56629 0.02614
3245.28052 0.02537
3243.99475 0.02456
3242.70898 0.02407
3241.42321 0.02396
3240.13744 0.02408
3238.85167 0.02432
3237.56591 0.02459
3236.28014 0.02479
3234.99437 0.02475
3233.70860 0.02441
3232.42283 0.02396
3231.13706 0.02376
3229.85129 0.02396
3228.56552 0.02437
3227.27976 0.02465
3225.99399 0.02469
3224.70822 0.02471
3223.42245 0.02491
3222.13668 0.02526
3220.85091 0.02557
3219.56514 0.02570
3218.27937 0.02568
3216.99360 0.02561
3215.70784 0.02556
3214.42207 0.02561
3213.13630 0.02571
3211.85053 0.02573
3210.56476 0.02561
3209.27899 0.02545
3207.99322 0.02543
3206.70745 0.02553
3205.42169 0.02563
3204.13592 0.02568
3202.85015 0.02584
3201.56438 0.02616
3200.27861 0.02642
3198.99284 0.02631
3197.70707 0.02589
3196.42130 0.02550
3195.13553 0.02536
3193.84977 0.02535
3192.56400 0.02532
3191.27823 0.02528
3189.99246 0.02534
3188.70669 0.02541
3187.42092 0.02539
3186.13515 0.02527
3184.84938 0.02517
3183.56362 0.02515
3182.27785 0.02518
3180.99208 0.02516
3179.70631 0.02503
3178.42054 0.02475
3177.13477 0.02439
3175.84900 0.02409
3174.56323 0.02395
3173.27746 0.02395
3171.99170 0.02404
3170.70593 0.02416
3169.42016 0.02425
3168.13439 0.02423
3166.84862 0.02409
3165.56285 0.02385
3164.27708 0.02359
3162.99131 0.02343
3161.70555 0.02343
3160.41978 0.02356
3159.13401 0.02367
3157.84824 0.02355
3156.56247 0.02313
3155.27670 0.02254
3153.99093 0.02202
3152.70516 0.02179
3151.41939 0.02188
3150.13363 0.02210
3148.84786 0.02229
3147.56209 0.02249
3146.27632 0.02283
3144.99055 0.02340
3143.70478 0.02414
3142.41901 0.02488
3141.13324 0.02543
3139.84748 0.02566
3138.56171 0.02553
3137.27594 0.02511
3135.99017 0.02454
3134.70440 0.02403
3133.41863 0.02379
3132.13286 0.02388
3130.84709 0.02406
3129.56132 0.02393
3128.27556 0.02331
3126.98979 0.02250
3125.70402 0.02199
3124.41825 0.02201
3123.13248 0.02236
3121.84671 0.02275
3120.56094 0.02300
3119.27517 0.02314
3117.98940 0.02326
3116.70364 0.02344
3115.41787 0.02375
3114.13210 0.02412
3112.84633 0.02436
3111.56056 0.02429
3110.27479 0.02398
3108.98902 0.02360
3107.70325 0.02331
3106.41749 0.02318
3105.13172 0.02318
3103.84595 0.02328
3102.56018 0.02342
3101.27441 0.02353
3099.98864 0.02362
3098.70287 0.02371
3097.41710 0.02376
3096.13133 0.02369
3094.84557 0.02351
3093.55980 0.02339
3092.27403 0.02353
3090.98826 0.02388
3089.70249 0.02416
3088.41672 0.02413
3087.13095 0.02379
3085.84518 0.02330
3084.55942 0.02284
3083.27365 0.02255
3081.98788 0.02248
3080.70211 0.02261
3079.41634 0.02289
3078.13057 0.02330
3076.84480 0.02385
3075.55903 0.02450
3074.27326 0.02513
3072.98750 0.02557
3071.70173 0.02574
3070.41596 0.02564
3069.13019 0.02530
3067.84442 0.02475
3066.55865 0.02418
3065.27288 0.02381
3063.98711 0.02374
3062.70135 0.02375
3061.41558 0.02364
3060.12981 0.02345
3058.84404 0.02340
3057.55827 0.02348
3056.27250 0.02348
3054.98673 0.02327
3053.70096 0.02297
3052.41519 0.02281
3051.12943 0.02283
3049.84366 0.02286
3048.55789 0.02275
3047.27212 0.02252
3045.98635 0.02223
3044.70058 0.02196
3043.41481 0.02174
3042.12904 0.02163
3040.84328 0.02166
3039.55751 0.02185
3038.27174 0.02208
3036.98597 0.02225
3035.70020 0.02236
3034.41443 0.02250
3033.12866 0.02275
3031.84289 0.02307
3030.55712 0.02330
3029.27136 0.02335
3027.98559 0.02322
3026.69982 0.02301
3025.41405 0.02279
3024.12828 0.02263
3022.84251 0.02257
3021.55674 0.02270
3020.27097 0.02302
3018.98521 0.02342
3017.69944 0.02369
3016.41367 0.02362
3015.12790 0.02319
3013.84213 0.02255
3012.55636 0.02191
3011.27059 0.02137
3009.98482 0.02096
3008.69905 0.02066
3007.41329 0.02052
3006.12752 0.02055
3004.84175 0.02065
3003.55598 0.02074
3002.27021 0.02100
3000.98444 0.02145
2999.69867 0.02152
2998.41290 0.02181
2997.12714 0.02181
2995.84137 0.02161
2994.55560 0.02144
2993.26983 0.02137
2991.98406 0.02135
2990.69829 0.02134
2989.41252 0.02138
2988.12675 0.02148
2986.84098 0.02159
2985.55522 0.02171
2984.26945 0.02188
2982.98368 0.02212
2981.69791 0.02240
2980.41214 0.02265
2979.12637 0.02276
2977.84060 0.02267
2976.55483 0.02238
2975.26907 0.02203
2973.98330 0.02180
2972.69753 0.02183
2971.41176 0.02209
2970.12599 0.02246
2968.84022 0.02279
2967.55445 0.02302
2966.26868 0.02319
2964.98291 0.02336
2963.69715 0.02354
2962.41138 0.02372
2961.12561 0.02398
2959.83984 0.02432
2958.55407 0.02464
2957.26830 0.02483
2955.98253 0.02494
2954.69676 0.02508
2953.41100 0.02528
2952.12523 0.02546
2950.83946 0.02561
2949.55369 0.02575
2948.26792 0.02579
2946.98215 0.02559
2945.69638 0.02515
2944.41061 0.02467
2943.12484 0.02439
2941.83908 0.02438
2940.55331 0.02458
2939.26754 0.02491
2937.98177 0.02530
2936.69600 0.02557
2935.41023 0.02556
2934.12446 0.02535
2932.83869 0.02520
2931.55293 0.02531
2930.26716 0.02562
2928.98139 0.02602
2927.69562 0.02642
2926.40985 0.02672
2925.12408 0.02677
2923.83831 0.02653
2922.55254 0.02621
2921.26677 0.02606
2919.98101 0.02616
2918.69524 0.02637
2917.40947 0.02654
2916.12370 0.02657
2914.83793 0.02641
2913.55216 0.02607
2912.26639 0.02564
2910.98062 0.02531
2909.69486 0.02520
2908.40909 0.02515
2907.12332 0.02495
2905.83755 0.02459
2904.55178 0.02430
2903.26601 0.02423
2901.98024 0.02437
2900.69447 0.02457
2899.40870 0.02473
2898.12294 0.02477
2896.83717 0.02463
2895.55140 0.02429
2894.26563 0.02382
2892.97986 0.02334
2891.69409 0.02294
2890.40832 0.02265
2889.12255 0.02241
2887.83678 0.02213
2886.55102 0.02184
2885.26525 0.02167
2883.97948 0.02173
2882.69371 0.02205
2881.40794 0.02253
2880.12217 0.02296
2878.83640 0.02309
2877.55063 0.02291
2876.26487 0.02272
2874.97910 0.02284
2873.69333 0.02319
2872.40756 0.02345
2871.12179 0.02346
2869.83602 0.02341
2868.55025 0.02346
2867.26448 0.02348
2865.97871 0.02324
2864.69295 0.02275
2863.40718 0.02225
2862.12141 0.02195
2860.83564 0.02182
2859.54987 0.02174
2858.26410 0.02160
2856.97833 0.02147
2855.69256 0.02150
2854.40680 0.02178
2853.12103 0.02223
2851.83526 0.02260
2850.54949 0.02265
2849.26372 0.02236
2847.97795 0.02185
2846.69218 0.02139
2845.40641 0.02120
2844.12064 0.02133
2842.83488 0.02153
2841.54911 0.02152
2840.26334 0.02121
2838.97757 0.02078
2837.69180 0.02044
2836.40603 0.02026
2835.12026 0.02021
2833.83449 0.02024
2832.54873 0.02029
2831.26296 0.02024
2829.97719 0.02004
2828.69142 0.01976
2827.40565 0.01956
2826.11988 0.01952
2824.83411 0.01956
2823.54834 0.01954
2822.26257 0.01944
2820.97681 0.01930
2819.69104 0.01919
2818.40527 0.01914
2817.11950 0.01913
2815.83373 0.01915
2814.54796 0.01917
2813.26219 0.01918
2811.97642 0.01917
2810.69066 0.01911
2809.40489 0.01901
2808.11912 0.01889
2806.83335 0.01875
2805.54758 0.01862
2804.26181 0.01850
2802.97604 0.01841
2801.69027 0.01840
2800.40450 0.01848
2799.11874 0.01861
2797.83297 0.01869
2796.54720 0.01866
2795.26143 0.01852
2793.97566 0.01834
2792.68989 0.01820
2791.40412 0.01812
2790.11835 0.01811
2788.83259 0.01813
2787.54682 0.01810
2786.26105 0.01796
2784.97528 0.01775
2783.68951 0.01763
2782.40374 0.01767
2781.11797 0.01789
2779.83220 0.01823
2778.54643 0.01862
2777.26067 0.01892
2775.97490 0.01896
2774.68913 0.01874
2773.40336 0.01838
2772.11759 0.01809
2770.83182 0.01802
2769.54605 0.01819
2768.26028 0.01848
2766.97452 0.01867
2765.68875 0.01862
2764.40298 0.01837
2763.11721 0.01808
2761.83144 0.01786
2760.54567 0.01766
2759.25990 0.01746
2757.97413 0.01729
2756.68836 0.01723
2755.40260 0.01736
2754.11683 0.01758
2752.83106 0.01774
2751.54529 0.01770
2750.25952 0.01753
2748.97375 0.01739
2747.68798 0.01737
2746.40221 0.01742
2745.11645 0.01745
2743.83068 0.01744
2742.54491 0.01748
2741.25914 0.01760
2739.97337 0.01774
2738.68760 0.01779
2737.40183 0.01778
2736.11606 0.01773
2734.83029 0.01764
2733.54453 0.01745
2732.25876 0.01723
2730.97299 0.01711
2729.68722 0.01712
2728.40145 0.01718
2727.11568 0.01719
2725.82991 0.01711
2724.54414 0.01704
2723.25838 0.01705
2721.97261 0.01718
2720.68684 0.01731
2719.40107 0.01733
2718.11530 0.01721
2716.82953 0.01703
2715.54376 0.01687
2714.25799 0.01673
2712.97222 0.01663
2711.68646 0.01660
2710.40069 0.01656
2709.11492 0.01644
2707.82915 0.01622
2706.54338 0.01601
2705.25761 0.01594
2703.97184 0.01608
2702.68607 0.01636
2701.40031 0.01660
2700.11454 0.01663
2698.82877 0.01643
2697.54300 0.01616
2696.25723 0.01600
2694.97146 0.01601
2693.68569 0.01609
2692.39992 0.01613
2691.11415 0.01606
2689.82839 0.01599
2688.54262 0.01604
2687.25685 0.01623
2685.97108 0.01640
2684.68531 0.01641
2683.39954 0.01628
2682.11377 0.01614
2680.82800 0.01608
2679.54224 0.01608
2678.25647 0.01608
2676.97070 0.01600
2675.68493 0.01582
2674.39916 0.01565
2673.11339 0.01564
2671.82762 0.01582
2670.54185 0.01609
2669.25608 0.01634
2667.97032 0.01649
2666.68455 0.01649
2665.39878 0.01630
2664.11301 0.01608
2662.82724 0.01608
2661.54147 0.01641
2660.25570 0.01692
2658.96993 0.01735
2657.68417 0.01755
2656.39840 0.01752
2655.11263 0.01737
2653.82686 0.01725
2652.54109 0.01723
2651.25532 0.01724
2649.96955 0.01718
2648.68378 0.01700
2647.39801 0.01669
2646.11225 0.01638
2644.82648 0.01620
2643.54071 0.01624
2642.25494 0.01641
2640.96917 0.01654
2639.68340 0.01650
2638.39763 0.01634
2637.11186 0.01615
2635.82609 0.01594
2634.54033 0.01572
2633.25456 0.01552
2631.96879 0.01542
2630.68302 0.01552
2629.39725 0.01581
2628.11148 0.01619
2626.82571 0.01646
2625.53994 0.01647
2624.25418 0.01626
2622.96841 0.01599
2621.68264 0.01581
2620.39687 0.01576
2619.11110 0.01580
2617.82533 0.01581
2616.53956 0.01570
2615.25379 0.01550
2613.96802 0.01532
2612.68226 0.01523
2611.39649 0.01513
2610.11072 0.01497
2608.82495 0.01480
2607.53918 0.01474
2606.25341 0.01484
2604.96764 0.01502
2603.68187 0.01514
2602.39611 0.01512
2601.11034 0.01494
2599.82457 0.01473
2598.53880 0.01459
2597.25303 0.01452
2595.96726 0.01444
2594.68149 0.01430
2593.39572 0.01415
2592.10995 0.01405
2590.82419 0.01394
2589.53842 0.01383
2588.25265 0.01377
2586.96688 0.01383
2585.68111 0.01395
2584.39534 0.01408
2583.10957 0.01423
2581.82380 0.01437
2580.53804 0.01439
2579.25227 0.01423
2577.96650 0.01407
2576.68073 0.01408
2575.39496 0.01426
2574.10919 0.01443
2572.82342 0.01446
2571.53765 0.01442
2570.25188 0.01447
2568.96612 0.01472
2567.68035 0.01514
2566.39458 0.01545
2565.10881 0.01537
2563.82304 0.01477
2562.53727 0.01391
2561.25150 0.01321
2559.96573 0.01297
2558.67997 0.01307
2557.39420 0.01313
2556.10843 0.01286
2554.82266 0.01242
2553.53689 0.01212
2552.25112 0.01214
2550.96535 0.01233
2549.67958 0.01251
2548.39381 0.01257
2547.10805 0.01245
2545.82228 0.01219
2544.53651 0.01198
2543.25074 0.01206
2541.96497 0.01257
2540.67920 0.01326
2539.39343 0.01369
2538.10766 0.01354
2536.82190 0.01293
2535.53613 0.01234
2534.25036 0.01218
2532.96459 0.01246
2531.67882 0.01286
2530.39305 0.01301
2529.10728 0.01282
2527.82151 0.01239
2526.53574 0.01199
2525.24998 0.01191
2523.96421 0.01224
2522.67844 0.01283
2521.39267 0.01339
2520.10690 0.01374
2518.82113 0.01384
2517.53536 0.01380
2516.24959 0.01369
2514.96383 0.01344
2513.67806 0.01304
2512.39229 0.01265
2511.10652 0.01264
2509.82075 0.01302
2508.53498 0.01334
2507.24921 0.01313
2505.96344 0.01247
2504.67767 0.01182
2503.39191 0.01152
2502.10614 0.01159
2500.82037 0.01195
2499.53460 0.01249
2498.24883 0.01299
2496.96306 0.01324
2495.67729 0.01321
2494.39152 0.01312
2493.10576 0.01308
2491.81999 0.01296
2490.53422 0.01258
2489.24845 0.01201
2487.96268 0.01165
2486.67691 0.01183
2485.39114 0.01249
2484.10537 0.01325
2482.81960 0.01376
2481.53384 0.01393
2480.24807 0.01383
2478.96230 0.01357
2477.67653 0.01327
2476.39076 0.01304
2475.10499 0.01289
2473.81922 0.01273
2472.53345 0.01245
2471.24769 0.01202
2469.96192 0.01147
2468.67615 0.01097
2467.39038 0.01073
2466.10461 0.01091
2464.81884 0.01145
2463.53307 0.01211
2462.24730 0.01259
2460.96153 0.01280
2459.67577 0.01280
2458.39000 0.01267
2457.10423 0.01245
2455.81846 0.01220
2454.53269 0.01198
2453.24692 0.01187
2451.96115 0.01192
2450.67538 0.01210
2449.38962 0.01227
2448.10385 0.01235
2446.81808 0.01237
2445.53231 0.01240
2444.24654 0.01246
2442.96077 0.01248
2441.67500 0.01245
2440.38923 0.01246
2439.10346 0.01261
2437.81770 0.01291
2436.53193 0.01315
2435.24616 0.01315
2433.96039 0.01296
2432.67462 0.01287
2431.38885 0.01302
2430.10308 0.01319
2428.81731 0.01304
2427.53155 0.01256
2426.24578 0.01204
2424.96001 0.01174
2423.67424 0.01157
2422.38847 0.01130
2421.10270 0.01091
2419.81693 0.01059
2418.53116 0.01048
2417.24539 0.01055
2415.95963 0.01072
2414.67386 0.01100
2413.38809 0.01143
2412.10232 0.01187
2410.81655 0.01216
2409.53078 0.01221
2408.24501 0.01198
2406.95924 0.01149
2405.67347 0.01088
2404.38771 0.01053
2403.10194 0.01065
2401.81617 0.01100
2400.53040 0.01123
2399.24463 0.01200
2397.95886 0.01119
2396.67309 0.01058
2395.38732 0.01056
2394.10156 0.01074
2392.81579 0.01093
2391.53002 0.01109
2390.24425 0.01118
2388.95848 0.01114
2387.67271 0.01096
2386.38694 0.01073
2385.10117 0.01054
2383.81540 0.01046
2382.52964 0.01042
2381.24387 0.01037
2379.95810 0.01032
2378.67233 0.01029
2377.38656 0.01031
2376.10079 0.01036
2374.81502 0.01044
2373.52925 0.01057
2372.24349 0.01068
2370.95772 0.01074
2369.67195 0.01078
2368.38618 0.01085
2367.10041 0.01099
2365.81464 0.01114
2364.52887 0.01123
2363.24310 0.01125
2361.95733 0.01129
2360.67157 0.01138
2359.38580 0.01143
2358.10003 0.01141
2356.81426 0.01138
2355.52849 0.01145
2354.24272 0.01165
2352.95695 0.01195
2351.67118 0.01229
2350.38542 0.01253
2349.09965 0.01258
2347.81388 0.01245
2346.52811 0.01231
2345.24234 0.01217
2343.95657 0.01197
2342.67080 0.01180
2341.38503 0.01191
2340.09926 0.01232
2338.81350 0.01267
2337.52773 0.01272
2336.24196 0.01269
2334.95619 0.01260
2333.67042 0.01232
2332.38465 0.01202
2331.09888 0.01208
2329.81311 0.01231
2328.52735 0.01255
2327.24158 0.01322
2325.95581 0.01406
2324.67004 0.01451
2323.38427 0.01468
2322.09850 0.01468
2320.81273 0.01441
2319.52696 0.01420
2318.24119 0.01400
2316.95543 0.01362
2315.66966 0.01327
2314.38389 0.01301
2313.09812 0.01286
2311.81235 0.01288
2310.52658 0.01283
2309.24081 0.01261
2307.95504 0.01233
2306.66928 0.01207
2305.38351 0.01191
2304.09774 0.01176
2302.81197 0.01160
2301.52620 0.01145
2300.24043 0.01133
2298.95466 0.01129
2297.66889 0.01140
2296.38312 0.01172
2295.09736 0.01218
2293.81159 0.01261
2292.52582 0.01279
2291.24005 0.01270
2289.95428 0.01253
2288.66851 0.01240
2287.38274 0.01226
2286.09697 0.01199
2284.81121 0.01161
2283.52544 0.01133
2282.23967 0.01134
2280.95390 0.01157
2279.66813 0.01177
2278.38236 0.01169
2277.09659 0.01135
2275.81082 0.01107
2274.52505 0.01118
2273.23929 0.01165
2271.95352 0.01207
2270.66775 0.01204
2269.38198 0.01154
2268.09621 0.01095
2266.81044 0.01066
2265.52467 0.01081
2264.23890 0.01115
2262.95314 0.01131
2261.66737 0.01102
2260.38160 0.01030
2259.09583 0.00933
2257.81006 0.00834
2256.52429 0.00745
2255.23852 0.00682
2253.95275 0.00677
2252.66698 0.00741
2251.38122 0.00819
2250.09545 0.00868
2248.80968 0.00959
2247.52391 0.00873
2246.23814 0.00772
2244.95237 0.00733
2243.66660 0.00771
2242.38083 0.00849
2241.09507 0.00918
2239.80930 0.00948
2238.52353 0.00951
2237.23776 0.00962
2235.95199 0.01005
2234.66622 0.01057
2233.38045 0.01084
2232.09468 0.01076
2230.80891 0.01053
2229.52315 0.01020
2228.23738 0.00966
2226.95161 0.00896
2225.66584 0.00833
2224.38007 0.00789
2223.09430 0.00763
2221.80853 0.00764
2220.52276 0.00816
2219.23700 0.00913
2217.95123 0.01007
2216.66546 0.01042
2215.37969 0.01010
2214.09392 0.00954
2212.80815 0.00917
2211.52238 0.00898
2210.23661 0.00877
2208.95084 0.00853
2207.66508 0.00838
2206.37931 0.00827
2205.09354 0.00800
2203.80777 0.00758
2202.52200 0.00725
2201.23623 0.00709
2199.95046 0.00698
2198.66469 0.00681
2197.37893 0.00657
2196.09316 0.00623
2194.80739 0.00586
2193.52162 0.00572
2192.23585 0.00618
2190.95008 0.00734
2189.66431 0.00888
2188.37854 0.01013
2187.09277 0.01043
2185.80701 0.00959
2184.52124 0.00818
2183.23547 0.00708
2181.94970 0.00677
2180.66393 0.00714
2179.37816 0.00782
2178.09239 0.00833
2176.80662 0.00824
2175.52085 0.00735
2174.23509 0.00601
2172.94932 0.00493
2171.66355 0.00476
2170.37778 0.00568
2169.09201 0.00732
2167.80624 0.00888
2166.52047 0.00950
2165.23470 0.00882
2163.94894 0.00722
2162.66317 0.00536
2161.37740 0.00366
2160.09163 0.00222
2158.80586 0.00118
2157.52009 0.00077
2156.23432 0.00081
2154.94855 0.00060
2153.66278 -0.00033
2152.37702 -0.00158
2151.09125 -0.00209
2149.80548 -0.00114
2148.51971 0.00082
2147.23394 0.00268
2145.94817 0.00368
2144.66240 0.00383
2143.37663 0.00349
2142.09087 0.00299
2140.80510 0.00267
2139.51933 0.00281
2138.23356 0.00327
2136.94779 0.00360
2135.66202 0.00359
2134.37625 0.00352
2133.09048 0.00372
2131.80471 0.00412
2130.51895 0.00445
2129.23318 0.00456
2127.94741 0.00441
2126.66164 0.00405
2125.37587 0.00374
2124.09010 0.00379
2122.80433 0.00419
2121.51856 0.00459
2120.23280 0.00479
2118.94703 0.00505
2117.66126 0.00575
2116.37549 0.00678
2115.08972 0.00755
2113.80395 0.00764
2112.51818 0.00727
2111.23241 0.00702
2109.94664 0.00719
2108.66088 0.00752
2107.37511 0.00755
2106.08934 0.00714
2104.80357 0.00654
2103.51780 0.00611
2102.23203 0.00593
2100.94626 0.00580
2099.66049 0.00643
2098.37473 0.00676
2097.08896 0.00651
2095.80319 0.00621
2094.51742 0.00595
2093.23165 0.00559
2091.94588 0.00519
2090.66011 0.00497
2089.37434 0.00502
2088.08857 0.00512
2086.80281 0.00506
2085.51704 0.00489
2084.23127 0.00488
2082.94550 0.00515
2081.65973 0.00553
2080.37396 0.00582
2079.08819 0.00602
2077.80242 0.00622
2076.51666 0.00639
2075.23089 0.00651
2073.94512 0.00665
2072.65935 0.00695
2071.37358 0.00729
2070.08781 0.00738
2068.80204 0.00702
2067.51627 0.00637
2066.23050 0.00574
2064.94474 0.00530
2063.65897 0.00498
2062.37320 0.00457
2061.08743 0.00401
2059.80166 0.00349
2058.51589 0.00333
2057.23012 0.00361
2055.94435 0.00410
2054.65859 0.00464
2053.37282 0.00529
2052.08705 0.00619
2050.80128 0.00719
2049.51551 0.00802
2048.22974 0.00845
2046.94397 0.00835
2045.65820 0.00758
2044.37243 0.00633
2043.08667 0.00527
2041.80090 0.00517
2040.51513 0.00621
2039.22936 0.00774
2037.94359 0.00885
2036.65782 0.00910
2035.37205 0.00872
2034.08628 0.00815
2032.80052 0.00748
2031.51475 0.00645
2030.22898 0.00500
2028.94321 0.00364
2027.65744 0.00304
2026.37167 0.00327
2025.08590 0.00369
2023.80013 0.00358
2022.51436 0.00285
2021.22860 0.00205
2019.94283 0.00178
2018.65706 0.00229
2017.37129 0.00335
2016.08552 0.00445
2014.79975 0.00510
2013.51398 0.00515
2012.22821 0.00486
2010.94245 0.00468
2009.65668 0.00492
2008.37091 0.00548
2007.08514 0.00591
2005.79937 0.00588
2004.51360 0.00542
2003.22783 0.00478
2001.94206 0.00421
2000.65629 0.00393
1999.37053 0.00409
1998.08476 0.00459
1996.79899 0.00497
1995.51322 0.00489
1994.22745 0.00445
1992.94168 0.00403
1991.65591 0.00385
1990.37014 0.00384
1989.08438 0.00392
1987.79861 0.00415
1986.51284 0.00460
1985.22707 0.00519
1983.94130 0.00578
1982.65553 0.00629
1981.36976 0.00672
1980.08399 0.00699
1978.79822 0.00690
1977.51246 0.00632
1976.22669 0.00550
1974.94092 0.00498
1973.65515 0.00503
1972.36938 0.00549
1971.08361 0.00601
1969.79784 0.00641
1968.51207 0.00667
1967.22631 0.00681
1965.94054 0.00693
1964.65477 0.00710
1963.36900 0.00718
1962.08323 0.00684
1960.79746 0.00598
1959.51169 0.00488
1958.22592 0.00393
1956.94015 0.00317
1955.65439 0.00249
1954.36862 0.00194
1953.08285 0.00188
1951.79708 0.00251
1950.51131 0.00367
1949.22554 0.00492
1947.93977 0.00593
1946.65400 0.00662
1945.36823 0.00708
1944.08247 0.00731
1942.79670 0.00727
1941.51093 0.00703
1940.22516 0.00683
1938.93939 0.00686
1937.65362 0.00710
1936.36785 0.00737
1935.08208 0.00752
1933.79632 0.00749
1932.51055 0.00729
1931.22478 0.00699
1929.93901 0.00668
1928.65324 0.00649
1927.36747 0.00643
1926.08170 0.00643
1924.79593 0.00648
1923.51016 0.00668
1922.22440 0.00713
1920.93863 0.00769
1919.65286 0.00801
1918.36709 0.00791
1917.08132 0.00753
1915.79555 0.00716
1914.50978 0.00699
1913.22401 0.00706
1911.93825 0.00729
1910.65248 0.00757
1909.36671 0.00780
1908.08094 0.00786
1906.79517 0.00765
1905.50940 0.00718
1904.22363 0.00659
1902.93786 0.00616
1901.65209 0.00609
1900.36633 0.00633
1899.08056 0.00666
1897.79479 0.00693
1896.50902 0.00714
1895.22325 0.00736
1893.93748 0.00761
1892.65171 0.00780
1891.36594 0.00787
1890.08018 0.00782
1888.79441 0.00772
1887.50864 0.00761
1886.22287 0.00744
1884.93710 0.00719
1883.65133 0.00690
1882.36556 0.00666
1881.07979 0.00654
1879.79402 0.00656
1878.50826 0.00663
1877.22249 0.00667
1875.93672 0.00667
1874.65095 0.00672
1873.36518 0.00687
1872.07941 0.00707
1870.79364 0.00719
1869.50787 0.00716
1868.22211 0.00702
1866.93634 0.00682
1865.65057 0.00662
1864.36480 0.00648
1863.07903 0.00644
1861.79326 0.00650
1860.50749 0.00661
1859.22172 0.00672
1857.93595 0.00679
1856.65019 0.00685
1855.36442 0.00696
1854.07865 0.00714
1852.79288 0.00731
1851.50711 0.00737
1850.22134 0.00727
1848.93557 0.00711
1847.64980 0.00702
1846.36404 0.00707
1845.07827 0.00723
1843.79250 0.00743
1842.50673 0.00758
1841.22096 0.00760
1839.93519 0.00753
1838.64942 0.00749
1837.36365 0.00752
1836.07788 0.00757
1834.79212 0.00758
1833.50635 0.00753
1832.22058 0.00739
1830.93481 0.00723
1829.64904 0.00721
1828.36327 0.00740
1827.07750 0.00774
1825.79173 0.00812
1824.50597 0.00848
1823.22020 0.00871
1821.93443 0.00871
1820.64866 0.00848
1819.36289 0.00813
1818.07712 0.00775
1816.79135 0.00739
1815.50558 0.00707
1814.21981 0.00683
1812.93405 0.00670
1811.64828 0.00671
1810.36251 0.00684
1809.07674 0.00700
1807.79097 0.00712
1806.50520 0.00721
1805.21943 0.00731
1803.93366 0.00742
1802.64790 0.00748
1801.36213 0.00744
1800.07636 0.00738
1798.79059 0.00736
1797.50482 0.00747
1796.21905 0.00767
1794.93328 0.00787
1793.64751 0.00796
1792.36174 0.00800
1791.07598 0.00807
1789.79021 0.00817
1788.50444 0.00819
1787.21867 0.00809
1785.93290 0.00792
1784.64713 0.00784
1783.36136 0.00790
1782.07559 0.00803
1780.78983 0.00815
1779.50406 0.00821
1778.21829 0.00822
1776.93252 0.00818
1775.64675 0.00806
1774.36098 0.00783
1773.07521 0.00759
1771.78944 0.00749
1770.50367 0.00753
1769.21791 0.00762
1767.93214 0.00770
1766.64637 0.00783
1765.36060 0.00801
1764.07483 0.00815
1762.78906 0.00825
1761.50329 0.00830
1760.21752 0.00827
1758.93176 0.00811
1757.64599 0.00787
1756.36022 0.00773
1755.07445 0.00775
1753.78868 0.00783
1752.50291 0.00789
1751.21714 0.00800
1749.93137 0.00816
1748.64560 0.00827
1747.35984 0.00828
1746.07407 0.00822
1744.78830 0.00818
1743.50253 0.00821
1742.21676 0.00826
1740.93099 0.00830
1739.64522 0.00839
1738.35945 0.00855
1737.07369 0.00869
1735.78792 0.00867
1734.50215 0.00863
1733.21638 0.00873
1731.93061 0.00890
1730.64484 0.00893
1729.35907 0.00885
1728.07330 0.00882
1726.78753 0.00886
1725.50177 0.00888
1724.21600 0.00890
1722.93023 0.00903
1721.64446 0.00934
1720.35869 0.00965
1719.07292 0.00982
1717.78715 0.00987
1716.50138 0.00994
1715.21561 0.01004
1713.92985 0.01014
1712.64408 0.01027
1711.35831 0.01051
1710.07254 0.01085
1708.78677 0.01124
1707.50100 0.01159
1706.21523 0.01192
1704.92946 0.01233
1703.64370 0.01282
1702.35793 0.01320
1701.07216 0.01350
1699.78639 0.01395
1698.50062 0.01446
1697.21485 0.01480
1695.92908 0.01501
1694.64331 0.01537
1693.35754 0.01581
1692.07178 0.01617
1690.78601 0.01650
1689.50024 0.01700
1688.21447 0.01763
1686.92870 0.01816
1685.64293 0.01851
1684.35716 0.01885
1683.07139 0.01933
1681.78563 0.01981
1680.49986 0.02019
1679.21409 0.02057
1677.92832 0.02098
1676.64255 0.02138
1675.35678 0.02180
1674.07101 0.02231
1672.78524 0.02282
1671.49947 0.02320
1670.21371 0.02354
1668.92794 0.02394
1667.64217 0.02444
1666.35640 0.02494
1665.07063 0.02536
1663.78486 0.02575
1662.49909 0.02616
1661.21332 0.02658
1659.92756 0.02696
1658.64179 0.02739
1657.35602 0.02796
1656.07025 0.02857
1654.78448 0.02898
1653.49871 0.02925
1652.21294 0.02963
1650.92717 0.03008
1649.64140 0.03028
1648.35564 0.03018
1647.06987 0.03000
1645.78410 0.02998
1644.49833 0.03007
1643.21256 0.03011
1641.92679 0.03007
1640.64102 0.03003
1639.35525 0.03003
1638.06949 0.02999
1636.78372 0.02982
1635.49795 0.02958
1634.21218 0.02934
1632.92641 0.02908
1631.64064 0.02874
1630.35487 0.02838
1629.06910 0.02804
1627.78333 0.02771
1626.49757 0.02734
1625.21180 0.02685
1623.92603 0.02632
1622.64026 0.02589
1621.35449 0.02564
1620.06872 0.02543
1618.78295 0.02505
1617.49718 0.02451
1616.21142 0.02398
1614.92565 0.02353
1613.63988 0.02308
1612.35411 0.02258
1611.06834 0.02212
1609.78257 0.02174
1608.49680 0.02141
1607.21103 0.02110
1605.92526 0.02081
1604.63950 0.02056
1603.35373 0.02034
1602.06796 0.02015
1600.78219 0.01999
1599.49642 0.01985
1598.21065 0.01973
1596.92488 0.01966
1595.63911 0.01964
1594.35335 0.01964
1593.06758 0.01964
1591.78181 0.01961
1590.49604 0.01958
1589.21027 0.01959
1587.92450 0.01966
1586.63873 0.01976
1585.35296 0.01982
1584.06719 0.01987
1582.78143 0.01995
1581.49566 0.02015
1580.20989 0.02050
1578.92412 0.02087
1577.63835 0.02110
1576.35258 0.02123
1575.06681 0.02141
1573.78104 0.02165
1572.49528 0.02182
1571.20951 0.02195
1569.92374 0.02212
1568.63797 0.02237
1567.35220 0.02262
1566.06643 0.02283
1564.78066 0.02311
1563.49489 0.02354
1562.20912 0.02398
1560.92336 0.02424
1559.63759 0.02437
1558.35182 0.02454
1557.06605 0.02473
1555.78028 0.02478
1554.49451 0.02472
1553.20874 0.02471
1551.92297 0.02478
1550.63721 0.02487
1549.35144 0.02501
1548.06567 0.02522
1546.77990 0.02546
1545.49413 0.02573
1544.20836 0.02603
1542.92259 0.02627
1541.63682 0.02631
1540.35105 0.02617
1539.06529 0.02605
1537.77952 0.02605
1536.49375 0.02603
1535.20798 0.02591
1533.92221 0.02579
1532.63644 0.02584
1531.35067 0.02600
1530.06490 0.02613
1528.77914 0.02618
1527.49337 0.02621
1526.20760 0.02632
1524.92183 0.02653
1523.63606 0.02672
1522.35029 0.02679
1521.06452 0.02682
1519.77875 0.02690
1518.49298 0.02696
1517.20722 0.02700
1515.92145 0.02709
1514.63568 0.02727
1513.34991 0.02750
1512.06414 0.02782
1510.77837 0.02825
1509.49260 0.02868
1508.20683 0.02892
1506.92107 0.02898
1505.63530 0.02904
1504.34953 0.02917
1503.06376 0.02930
1501.77799 0.02943
1500.49222 0.02958
1499.20645 0.02973
1497.92068 0.02978
1496.63491 0.02978
1495.34915 0.02984
1494.06338 0.02995
1492.77761 0.03004
1491.49184 0.03010
1490.20607 0.03023
1488.92030 0.03043
1487.63453 0.03067
1486.34876 0.03087
1485.06299 0.03103
1483.77723 0.03117
1482.49146 0.03133
1481.20569 0.03160
1479.91992 0.03200
1478.63415 0.03248
1477.34838 0.03300
1476.06261 0.03351
1474.77684 0.03392
1473.49108 0.03422
1472.20531 0.03451
1470.91954 0.03483
1469.63377 0.03516
1468.34800 0.03542
1467.06223 0.03564
1465.77646 0.03585
1464.49069 0.03611
1463.20492 0.03641
1461.91916 0.03676
1460.63339 0.03712
1459.34762 0.03743
1458.06185 0.03769
1456.77608 0.03800
1455.49031 0.03836
1454.20454 0.03865
1452.91877 0.03881
1451.63301 0.03891
1450.34724 0.03902
1449.06147 0.03907
1447.77570 0.03904
1446.48993 0.03894
1445.20416 0.03880
1443.91839 0.03864
1442.63262 0.03853
1441.34685 0.03850
1440.06109 0.03848
1438.77532 0.03837
1437.48955 0.03819
1436.20378 0.03807
1434.91801 0.03810
1433.63224 0.03819
1432.34647 0.03826
1431.06070 0.03833
1429.77494 0.03846
1428.48917 0.03865
1427.20340 0.03889
1425.91763 0.03917
1424.63186 0.03955
1423.34609 0.04003
1422.06032 0.04048
1420.77455 0.04082
1419.48878 0.04110
1418.20302 0.04140
1416.91725 0.04168
1415.63148 0.04186
1414.34571 0.04196
1413.05994 0.04204
1411.77417 0.04214
1410.48840 0.04224
1409.20263 0.04229
1407.91687 0.04224
1406.63110 0.04207
1405.34533 0.04184
1404.05956 0.04158
1402.77379 0.04130
1401.48802 0.04094
1400.20225 0.04049
1398.91648 0.03999
1397.63071 0.03948
1396.34495 0.03898
1395.05918 0.03848
1393.77341 0.03802
1392.48764 0.03756
1391.20187 0.03704
1389.91610 0.03643
1388.63033 0.03578
1387.34456 0.03515
1386.05880 0.03456
1384.77303 0.03394
1383.48726 0.03327
1382.20149 0.03257
1380.91572 0.03190
1379.62995 0.03127
1378.34418 0.03067
1377.05841 0.03004
1375.77264 0.02936
1374.48688 0.02866
1373.20111 0.02800
1371.91534 0.02739
1370.62957 0.02677
1369.34380 0.02613
1368.05803 0.02550
1366.77226 0.02491
1365.48649 0.02437
1364.20073 0.02386
1362.91496 0.02334
1361.62919 0.02283
1360.34342 0.02233
1359.05765 0.02185
1357.77188 0.02142
1356.48611 0.02103
1355.20034 0.02066
1353.91457 0.02030
1352.62881 0.01999
1351.34304 0.01974
1350.05727 0.01955
1348.77150 0.01939
1347.48573 0.01922
1346.19996 0.01901
1344.91419 0.01879
1343.62842 0.01859
1342.34266 0.01840
1341.05689 0.01822
1339.77112 0.01803
1338.48535 0.01788
1337.19958 0.01777
1335.91381 0.01771
1334.62804 0.01763
1333.34227 0.01754
1332.05650 0.01742
1330.77074 0.01732
1329.48497 0.01721
1328.19920 0.01707
1326.91343 0.01690
1325.62766 0.01670
1324.34189 0.01651
1323.05612 0.01636
1321.77035 0.01628
1320.48459 0.01625
1319.19882 0.01622
1317.91305 0.01615
1316.62728 0.01603
1315.34151 0.01590
1314.05574 0.01579
1312.76997 0.01569
1311.48420 0.01559
1310.19843 0.01548
1308.91267 0.01536
1307.62690 0.01523
1306.34113 0.01510
1305.05536 0.01498
1303.76959 0.01484
1302.48382 0.01472
1301.19805 0.01460
1299.91228 0.01450
1298.62652 0.01439
1297.34075 0.01427
1296.05498 0.01415
1294.76921 0.01405
1293.48344 0.01398
1292.19767 0.01397
1290.91190 0.01401
1289.62613 0.01404
1288.34036 0.01402
1287.05460 0.01394
1285.76883 0.01384
1284.48306 0.01378
1283.19729 0.01379
1281.91152 0.01387
1280.62575 0.01394
1279.33998 0.01397
1278.05421 0.01395
1276.76845 0.01389
1275.48268 0.01384
1274.19691 0.01381
1272.91114 0.01379
1271.62537 0.01375
1270.33960 0.01371
1269.05383 0.01370
1267.76806 0.01373
1266.48229 0.01380
1265.19653 0.01388
1263.91076 0.01395
1262.62499 0.01399
1261.33922 0.01401
1260.05345 0.01403
1258.76768 0.01405
1257.48191 0.01407
1256.19614 0.01410
1254.91037 0.01412
1253.62461 0.01414
1252.33884 0.01416
1251.05307 0.01421
1249.76730 0.01427
1248.48153 0.01432
1247.19576 0.01435
1245.90999 0.01436
1244.62422 0.01439
1243.33846 0.01441
1242.05269 0.01443
1240.76692 0.01445
1239.48115 0.01448
1238.19538 0.01454
1236.90961 0.01460
1235.62384 0.01465
1234.33807 0.01467
1233.05230 0.01467
1231.76654 0.01466
1230.48077 0.01464
1229.19500 0.01457
1227.90923 0.01447
1226.62346 0.01436
1225.33769 0.01431
1224.05192 0.01430
1222.76615 0.01428
1221.48039 0.01421
1220.19462 0.01409
1218.90885 0.01398
1217.62308 0.01393
1216.33731 0.01394
1215.05154 0.01399
1213.76577 0.01404
1212.48000 0.01409
1211.19423 0.01414
1209.90847 0.01422
1208.62270 0.01434
1207.33693 0.01451
1206.05116 0.01472
1204.76539 0.01492
1203.47962 0.01508
1202.19385 0.01512
1200.90808 0.01505
1199.62232 0.01512
1198.33655 0.01518
1197.05078 0.01519
1195.76501 0.01518
1194.47924 0.01516
1193.19347 0.01516
1191.90770 0.01519
1190.62193 0.01524
1189.33616 0.01529
1188.05040 0.01533
1186.76463 0.01538
1185.47886 0.01546
1184.19309 0.01557
1182.90732 0.01569
1181.62155 0.01581
1180.33578 0.01592
1179.05001 0.01601
1177.76425 0.01610
1176.47848 0.01624
1175.19271 0.01644
1173.90694 0.01669
1172.62117 0.01693
1171.33540 0.01713
1170.04963 0.01729
1168.76386 0.01744
1167.47809 0.01762
1166.19233 0.01784
1164.90656 0.01805
1163.62079 0.01821
1162.33502 0.01834
1161.04925 0.01841
1159.76348 0.01840
1158.47771 0.01831
1157.19194 0.01828
1155.90618 0.01838
1154.62041 0.01859
1153.33464 0.01883
1152.04887 0.01903
1150.76310 0.01922
1149.47733 0.01940
1148.19156 0.01958
1146.90579 0.01975
1145.62002 0.01995
1144.33426 0.02020
1143.04849 0.02050
1141.76272 0.02084
1140.47695 0.02121
1139.19118 0.02159
1137.90541 0.02199
1136.61964 0.02245
1135.33387 0.02298
1134.04811 0.02354
1132.76234 0.02411
1131.47657 0.02468
1130.19080 0.02531
1128.90503 0.02607
1127.61926 0.02696
1126.33349 0.02795
1125.04772 0.02901
1123.76195 0.03010
1122.47619 0.03123
1121.19042 0.03242
1119.90465 0.03364
1118.61888 0.03487
1117.33311 0.03611
1116.04734 0.03737
1114.76157 0.03866
1113.47580 0.03994
1112.19004 0.04119
1110.90427 0.04241
1109.61850 0.04356
1108.33273 0.04466
1107.04696 0.04572
1105.76119 0.04679
1104.47542 0.04789
1103.18965 0.04894
1101.90388 0.04988
1100.61812 0.05072
1099.33235 0.05155
1098.04658 0.05243
1096.76081 0.05335
1095.47504 0.05424
1094.18927 0.05505
1092.90350 0.05576
1091.61773 0.05642
1090.33197 0.05702
1089.04620 0.05761
1087.76043 0.05823
1086.47466 0.05890
1085.18889 0.05957
1083.90312 0.06018
1082.61735 0.06073
1081.33158 0.06131
1080.04581 0.06202
1078.76005 0.06286
1077.47428 0.06380
1076.18851 0.06476
1074.90274 0.06571
1073.61697 0.06662
1072.33120 0.06750
1071.04543 0.06843
1069.75966 0.06947
1068.47390 0.07057
1067.18813 0.07169
1065.90236 0.07282
1064.61659 0.07399
1063.33082 0.07519
1062.04505 0.07635
1060.75928 0.07747
1059.47351 0.07853
1058.18774 0.07956
1056.90198 0.08055
1055.61621 0.08151
1054.33044 0.08248
1053.04467 0.08348
1051.75890 0.08450
1050.47313 0.08555
1049.18736 0.08661
1047.90159 0.08767
1046.61583 0.08869
1045.33006 0.08968
1044.04429 0.09069
1042.75852 0.09175
1041.47275 0.09281
1040.18698 0.09387
1038.90121 0.09494
1037.61544 0.09602
1036.32967 0.09706
1035.04391 0.09805
1033.75814 0.09898
1032.47237 0.09987
1031.18660 0.10070
1029.90083 0.10145
1028.61506 0.10213
1027.32929 0.10274
1026.04352 0.10325
1024.75775 0.10364
1023.47199 0.10393
1022.18622 0.10416
1020.90045 0.10436
1019.61468 0.10447
1018.32891 0.10439
1017.04314 0.10413
1015.75737 0.10378
1014.47160 0.10344
1013.18584 0.10307
1011.90007 0.10258
1010.61430 0.10188
1009.32853 0.10100
1008.04276 0.10003
1006.75699 0.09900
1005.47122 0.09788
1004.18545 0.09667
1002.89968 0.09536
1001.61392 0.09398
1000.32815 0.09253
999.04238 0.09103
997.75661 0.08948
996.47084 0.08785
995.18507 0.08613
993.89930 0.08432
992.61353 0.08249
991.32777 0.08066
990.04200 0.07887
988.75623 0.07714
987.47046 0.07551
986.18469 0.07394
984.89892 0.07240
983.61315 0.07084
982.32738 0.06926
981.04161 0.06769
979.75585 0.06619
978.47008 0.06478
977.18431 0.06342
975.89854 0.06209
974.61277 0.06082
973.32700 0.05969
972.04123 0.05876
970.75546 0.05801
969.46970 0.05743
968.18393 0.05702
966.89816 0.05682
965.61239 0.05677
964.32662 0.05678
963.04085 0.05673
961.75508 0.05656
960.46931 0.05628
959.18354 0.05587
957.89778 0.05532
956.61201 0.05464
955.32624 0.05388
954.04047 0.05311
952.75470 0.05235
951.46893 0.05156
950.18316 0.05068
948.89739 0.04972
947.61163 0.04875
946.32586 0.04787
945.04009 0.04711
943.75432 0.04643
942.46855 0.04573
941.18278 0.04495
939.89701 0.04414
938.61124 0.04337
937.32547 0.04267
936.03971 0.04202
934.75394 0.04139
933.46817 0.04079
932.18240 0.04018
930.89663 0.03957
929.61086 0.03895
928.32509 0.03839
927.03932 0.03795
925.75356 0.03760
924.46779 0.03727
923.18202 0.03691
921.89625 0.03651
920.61048 0.03605
919.32471 0.03556
918.03894 0.03508
916.75317 0.03469
915.46740 0.03445
914.18164 0.03431
912.89587 0.03415
911.61010 0.03384
910.32433 0.03333
909.03856 0.03274
907.75279 0.03221
906.46702 0.03182
905.18125 0.03155
903.89549 0.03134
902.60972 0.03112
901.32395 0.03084
900.03818 0.03051
898.75241 0.03017
897.46664 0.02984
896.18087 0.02946
894.89510 0.02903
893.60933 0.02863
892.32357 0.02834
891.03780 0.02816
889.75203 0.02808
888.46626 0.02811
887.18049 0.02825
885.89472 0.02857
884.60895 0.02913
883.32318 0.02995
882.03742 0.03092
880.75165 0.03182
879.46588 0.03249
878.18011 0.03294
876.89434 0.03333
875.60857 0.03379
874.32280 0.03433
873.03703 0.03481
871.75126 0.03507
870.46550 0.03504
869.17973 0.03475
867.89396 0.03429
866.60819 0.03369
865.32242 0.03296
864.03665 0.03211
862.75088 0.03120
861.46511 0.03031
860.17935 0.02947
858.89358 0.02867
857.60781 0.02792
856.32204 0.02725
855.03627 0.02672
853.75050 0.02630
852.46473 0.02598
851.17896 0.02572
849.89319 0.02549
848.60743 0.02523
847.32166 0.02493
846.03589 0.02459
844.75012 0.02425
843.46435 0.02396
842.17858 0.02371
840.89281 0.02353
839.60704 0.02340
838.32128 0.02332
837.03551 0.02323
835.74974 0.02308
834.46397 0.02287
833.17820 0.02264
831.89243 0.02240
830.60666 0.02217
829.32089 0.02202
828.03512 0.02197
826.74936 0.02200
825.46359 0.02199
824.17782 0.02191
822.89205 0.02183
821.60628 0.02183
820.32051 0.02189
819.03474 0.02193
817.74897 0.02190
816.46321 0.02181
815.17744 0.02172
813.89167 0.02166
812.60590 0.02167
811.32013 0.02173
810.03436 0.02182
808.74859 0.02193
807.46282 0.02207
806.17705 0.02228
804.89129 0.02255
803.60552 0.02288
802.31975 0.02329
801.03398 0.02378
799.74821 0.02427
798.46244 0.02463
797.17667 0.02475
795.89090 0.02463
794.60513 0.02441
793.31937 0.02425
792.03360 0.02421
790.74783 0.02426
789.46206 0.02434
788.17629 0.02443
786.89052 0.02455
785.60475 0.02470
784.31898 0.02481
783.03322 0.02484
781.74745 0.02482
780.46168 0.02484
779.17591 0.02495
777.89014 0.02507
776.60437 0.02513
775.31860 0.02510
774.03283 0.02503
772.74706 0.02495
771.46130 0.02487
770.17553 0.02481
768.88976 0.02477
767.60399 0.02472
766.31822 0.02469
765.03245 0.02469
763.74668 0.02473
762.46091 0.02477
761.17515 0.02476
759.88938 0.02471
758.60361 0.02461
757.31784 0.02444
756.03207 0.02423
754.74630 0.02407
753.46053 0.02408
752.17476 0.02421
750.88899 0.02429
749.60323 0.02420
748.31746 0.02397
747.03169 0.02372
745.74592 0.02357
744.46015 0.02352
743.17438 0.02352
741.88861 0.02348
740.60284 0.02335
739.31708 0.02318
738.03131 0.02301
736.74554 0.02288
735.45977 0.02281
734.17400 0.02282
732.88823 0.02290
731.60246 0.02300
730.31669 0.02307
729.03092 0.02311
727.74516 0.02314
726.45939 0.02312
725.17362 0.02306
723.88785 0.02317
722.60208 0.02288
721.31631 0.02267
720.03054 0.02262
718.74477 0.02261
717.45901 0.02258
716.17324 0.02253
714.88747 0.02248
713.60170 0.02243
712.31593 0.02237
711.03016 0.02233
709.74439 0.02231
708.45862 0.02228
707.17285 0.02225
705.88709 0.02222
704.60132 0.02223
703.31555 0.02227
702.02978 0.02235
700.74401 0.02244
699.45824 0.02257
698.17247 0.02275
696.88670 0.02294
695.60094 0.02310
694.31517 0.02316
693.02940 0.02313
691.74363 0.02306
690.45786 0.02295
689.17209 0.02281
687.88632 0.02261
686.60055 0.02238
685.31478 0.02215
684.02902 0.02194
682.74325 0.02176
681.45748 0.02161
680.17171 0.02149
678.88594 0.02140
677.60017 0.02135
676.31440 0.02135
675.02863 0.02136
673.74287 0.02136
672.45710 0.02132
671.17133 0.02127
669.88556 0.02124
668.59979 0.02121
667.31402 0.02116
666.02825 0.02110
664.74248 0.02099
663.45671 0.02089
662.17095 0.02085
660.88518 0.02087
659.59941 0.02090
658.31364 0.02091
657.02787 0.02088
655.74210 0.02082
654.45633 0.02077
653.17056 0.02074
651.88480 0.02074
650.59903 0.02073
649.31326 0.02073
648.02749 0.02074
646.74172 0.02076
645.45595 0.02076
644.17018 0.02072
642.88441 0.02064
641.59864 0.02050
640.31288 0.02035
639.02711 0.02021
637.74134 0.02015
636.45557 0.02014
635.16980 0.02019
633.88403 0.02030
632.59826 0.02035
631.31249 0.01989
630.02673 0.01924
628.74096 0.02082
627.45519 0.02240
626.16942 0.02546
624.88365 0.02918
623.59788 0.03199
622.31211 0.03333
621.02634 0.03368
619.74057 0.03373
618.45481 0.03340
617.16904 0.03232
615.88327 0.03090
614.59750 0.03046
613.31173 0.03207
612.02596 0.03529
610.74019 0.03855
609.45442 0.04075
608.16866 0.04239
606.88289 0.04450
605.59712 0.04723
604.31135 0.04976
603.02558 0.05113
601.73981 0.05094
600.45404 0.04961
599.16827 0.04791
597.88250 0.04637
596.59674 0.04509
595.31097 0.04391
594.02520 0.04274
592.73943 0.04167
591.45366 0.04082
590.16789 0.04027
588.88212 0.03999
587.59635 0.03994
586.31059 0.04017
585.02482 0.04071
583.73905 0.04153
582.45328 0.04250
581.16751 0.04351
579.88174 0.04450
578.59597 0.04545
577.31020 0.04632
576.02443 0.04714
574.73867 0.04793
573.45290 0.04876
572.16713 0.04975
570.88136 0.05094
569.59559 0.05229
568.30982 0.05362
567.02405 0.05478
565.73828 0.05571
564.45251 0.05642
563.16675 0.05696
561.88098 0.05730
560.59521 0.05737
559.30944 0.05701
558.02367 0.05612
556.73790 0.05465
555.45213 0.05278
554.16636 0.05077
552.88060 0.04887
551.59483 0.04713
550.30906 0.04554
549.02329 0.04407
547.73752 0.04270
546.45175 0.04146
545.16598 0.04038
543.88021 0.03949
542.59444 0.03883
541.30868 0.03834
540.02291 0.03792
538.73714 0.03747
537.45137 0.03696
536.16560 0.03641
534.87983 0.03589
533.59406 0.03546
532.30829 0.03511
531.02253 0.03475
529.73676 0.03428
528.45099 0.03362
527.16522 0.03286
525.87945 0.03219
524.59368 0.03177
523.30791 0.03162
522.02214 0.03159
520.73637 0.03145
519.45061 0.03111
518.16484 0.03060
516.87907 0.03005
515.59330 0.02956
514.30753 0.02916
513.02176 0.02885
511.73599 0.02859
510.45022 0.02838
509.16446 0.02819
507.87869 0.02804
506.59292 0.02794
505.30715 0.02785
504.02138 0.02775
502.73561 0.02758
501.44984 0.02734
500.16407 0.02705
498.87830 0.02678
497.59254 0.02656
496.30677 0.02639
495.02100 0.02626
493.73523 0.02619
492.44946 0.02622
491.16369 0.02631
489.87792 0.02641
488.59215 0.02648
487.30639 0.02650
486.02062 0.02652
484.73485 0.02659
483.44908 0.02672
482.16331 0.02692
480.87754 0.02716
479.59177 0.02740
478.30600 0.02764
477.02023 0.02790
475.73447 0.02817
474.44870 0.02841
473.16293 0.02863
471.87716 0.02882
470.59139 0.02897
469.30562 0.02907
468.01985 0.02915
466.73408 0.02924
465.44832 0.02929
464.16255 0.02923
462.87678 0.02902
461.59101 0.02873
460.30524 0.02843
459.01947 0.02817
457.73370 0.02796
456.44793 0.02777
455.16216 0.02754
453.87640 0.02728
452.59063 0.02702
451.30486 0.02681
450.01909 0.02664
448.73332 0.02645
447.44755 0.02625
446.16178 0.02608
444.87601 0.02595
443.59025 0.02584
442.30448 0.02570
441.01871 0.02553
439.73294 0.02537
438.44717 0.02526
437.16140 0.02522
435.87563 0.02521
434.58986 0.02520
433.30409 0.02514
432.01833 0.02502
430.73256 0.02483
429.44679 0.02460
428.16102 0.02436
426.87525 0.02413
425.58948 0.02396
424.30371 0.02388
423.01794 0.02386
421.73218 0.02385
420.44641 0.02379
419.16064 0.02365
417.87487 0.02345
416.58910 0.02317
415.30333 0.02284
414.01756 0.02250
412.73179 0.02218
411.44602 0.02187
410.16026 0.02158
408.87449 0.02130
407.58872 0.02105
406.30295 0.02085
405.01718 0.02074
403.73141 0.02074
402.44564 0.02086
401.15987 0.02108
399.87411 0.02136
