3997.45528	0.02071
3996.16951	0.02031
3994.88374	0.01950
3993.59798	0.01849
3992.31221	0.01790
3991.02644	0.01810
3989.74067	0.01879
3988.45490	0.01948
3987.16913	0.01998
3985.88336	0.02043
3984.59759	0.02087
3983.31183	0.02105
3982.02606	0.02082
3980.74029	0.02036
3979.45452	0.02006
3978.16875	0.02015
3976.88298	0.02054
3975.59721	0.02095
3974.31144	0.02102
3973.02567	0.02041
3971.73991	0.01903
3970.45414	0.01711
3969.16837	0.01525
3967.88260	0.01414
3966.59683	0.01415
3965.31106	0.01508
3964.02529	0.01635
3962.73952	0.01739
3961.45376	0.01799
3960.16799	0.01841
3958.88222	0.01892
3957.59645	0.01946
3956.31068	0.01968
3955.02491	0.01945
3953.73914	0.01902
3952.45337	0.01880
3951.16760	0.01888
3949.88184	0.01907
3948.59607	0.01909
3947.31030	0.01877
3946.02453	0.01815
3944.73876	0.01757
3943.45299	0.01756
3942.16722	0.01835
3940.88145	0.01957
3939.59569	0.02037
3938.30992	0.02011
3937.02415	0.01884
3935.73838	0.01730
3934.45261	0.01623
3933.16684	0.01598
3931.88107	0.01647
3930.59530	0.01750
3929.30953	0.01875
3928.02377	0.01976
3926.73800	0.02014
3925.45223	0.01978
3924.16646	0.01906
3922.88069	0.01846
3921.59492	0.01819
3920.30915	0.01804
3919.02338	0.01766
3917.73762	0.01694
3916.45185	0.01606
3915.16608	0.01536
3913.88031	0.01515
3912.59454	0.01553
3911.30877	0.01626
3910.02300	0.01690
3908.73723	0.01714
3907.45146	0.01703
3906.16570	0.01671
3904.87993	0.01628
3903.59416	0.01580
3902.30839	0.01552
3901.02262	0.01570
3899.73685	0.01627
3898.45108	0.01680
3897.16531	0.01681
3895.87955	0.01613
3894.59378	0.01486
3893.30801	0.01342
3892.02224	0.01239
3890.73647	0.01216
3889.45070	0.01262
3888.16493	0.01336
3886.87916	0.01385
3885.59339	0.01381
3884.30763	0.01340
3883.02186	0.01305
3881.73609	0.01320
3880.45032	0.01392
3879.16455	0.01486
3877.87878	0.01558
3876.59301	0.01587
3875.30724	0.01599
3874.02148	0.01636
3872.73571	0.01716
3871.44994	0.01809
3870.16417	0.01858
3868.87840	0.01831
3867.59263	0.01752
3866.30686	0.01661
3865.02109	0.01571
3863.73532	0.01486
3862.44956	0.01426
3861.16379	0.01419
3859.87802	0.01466
3858.59225	0.01539
3857.30648	0.01598
3856.02071	0.01625
3854.73494	0.01623
3853.44917	0.01599
3852.16341	0.01568
3850.87764	0.01546
3849.59187	0.01544
3848.30610	0.01554
3847.02033	0.01571
3845.73456	0.01596
3844.44879	0.01636
3843.16302	0.01692
3841.87725	0.01745
3840.59149	0.01766
3839.30572	0.01748
3838.01995	0.01717
3836.73418	0.01716
3835.44841	0.01754
3834.16264	0.01788
3832.87687	0.01763
3831.59110	0.01678
3830.30534	0.01582
3829.01957	0.01527
3827.73380	0.01529
3826.44803	0.01562
3825.16226	0.01587
3823.87649	0.01582
3822.59072	0.01540
3821.30495	0.01464
3820.01918	0.01370
3818.73342	0.01297
3817.44765	0.01287
3816.16188	0.01350
3814.87611	0.01468
3813.59034	0.01605
3812.30457	0.01710
3811.01880	0.01745
3809.73303	0.01719
3808.44726	0.01672
3807.16150	0.01633
3805.87573	0.01609
3804.58996	0.01599
3803.30419	0.01588
3802.01842	0.01549
3800.73265	0.01471
3799.44688	0.01389
3798.16111	0.01349
3796.87535	0.01362
3795.58958	0.01407
3794.30381	0.01470
3793.01804	0.01532
3791.73227	0.01579
3790.44650	0.01614
3789.16073	0.01656
3787.87496	0.01711
3786.58919	0.01762
3785.30343	0.01794
3784.01766	0.01812
3782.73189	0.01829
3781.44612	0.01845
3780.16035	0.01850
3778.87458	0.01836
3777.58881	0.01814
3776.30304	0.01796
3775.01728	0.01771
3773.73151	0.01713
3772.44574	0.01617
3771.15997	0.01521
3769.87420	0.01481
3768.58843	0.01520
3767.30266	0.01597
3766.01689	0.01644
3764.73112	0.01625
3763.44536	0.01565
3762.15959	0.01512
3760.87382	0.01493
3759.58805	0.01501
3758.30228	0.01515
3757.01651	0.01507
3755.73074	0.01459
3754.44497	0.01382
3753.15921	0.01315
3751.87344	0.01299
3750.58767	0.01340
3749.30190	0.01399
3748.01613	0.01425
3746.73036	0.01396
3745.44459	0.01311
3744.15882	0.01182
3742.87305	0.01065
3741.58729	0.01039
3740.30152	0.01122
3739.01575	0.01254
3737.72998	0.01355
3736.44421	0.01394
3735.15844	0.01400
3733.87267	0.01433
3732.58690	0.01502
3731.30114	0.01568
3730.01537	0.01605
3728.72960	0.01632
3727.44383	0.01669
3726.15806	0.01701
3724.87229	0.01706
3723.58652	0.01675
3722.30075	0.01617
3721.01498	0.01548
3719.72922	0.01492
3718.44345	0.01465
3717.15768	0.01461
3715.87191	0.01466
3714.58614	0.01476
3713.30037	0.01490
3712.01460	0.01509
3710.72883	0.01531
3709.44307	0.01564
3708.15730	0.01612
3706.87153	0.01666
3705.58576	0.01689
3704.29999	0.01645
3703.01422	0.01543
3701.72845	0.01436
3700.44268	0.01378
3699.15691	0.01391
3697.87115	0.01458
3696.58538	0.01547
3695.29961	0.01628
3694.01384	0.01675
3692.72807	0.01663
3691.44230	0.01607
3690.15653	0.01560
3688.87076	0.01550
3687.58500	0.01563
3686.29923	0.01573
3685.01346	0.01562
3683.72769	0.01530
3682.44192	0.01487
3681.15615	0.01434
3679.87038	0.01386
3678.58461	0.01381
3677.29884	0.01456
3676.01308	0.01598
3674.72731	0.01749
3673.44154	0.01861
3672.15577	0.01930
3670.87000	0.01963
3669.58423	0.01968
3668.29846	0.01963
3667.01269	0.01966
3665.72693	0.01977
3664.44116	0.01983
3663.15539	0.01970
3661.86962	0.01935
3660.58385	0.01879
3659.29808	0.01804
3658.01231	0.01722
3656.72654	0.01662
3655.44077	0.01648
3654.15501	0.01678
3652.86924	0.01722
3651.58347	0.01755
3650.29770	0.01771
3649.01193	0.01774
3647.72616	0.01763
3646.44039	0.01748
3645.15462	0.01768
3643.86886	0.01865
3642.58309	0.02029
3641.29732	0.02188
3640.01155	0.02261
3638.72578	0.02205
3637.44001	0.02058
3636.15424	0.01923
3634.86847	0.01896
3633.58270	0.01984
3632.29694	0.02101
3631.01117	0.02159
3629.72540	0.02147
3628.43963	0.02118
3627.15386	0.02119
3625.86809	0.02143
3624.58232	0.02152
3623.29655	0.02147
3622.01079	0.02168
3620.72502	0.02240
3619.43925	0.02335
3618.15348	0.02406
3616.86771	0.02433
3615.58194	0.02421
3614.29617	0.02378
3613.01040	0.02317
3611.72463	0.02266
3610.43887	0.02262
3609.15310	0.02319
3607.86733	0.02412
3606.58156	0.02500
3605.29579	0.02556
3604.01002	0.02583
3602.72425	0.02599
3601.43848	0.02612
3600.15272	0.02611
3598.86695	0.02595
3597.58118	0.02582
3596.29541	0.02599
3595.00964	0.02665
3593.72387	0.02766
3592.43810	0.02845
3591.15233	0.02862
3589.86656	0.02825
3588.58080	0.02782
3587.29503	0.02776
3586.00926	0.02827
3584.72349	0.02924
3583.43772	0.03014
3582.15195	0.03038
3580.86618	0.02973
3579.58041	0.02862
3578.29464	0.02783
3577.00888	0.02787
3575.72311	0.02865
3574.43734	0.02979
3573.15157	0.03095
3571.86580	0.03190
3570.58003	0.03249
3569.29426	0.03267
3568.00849	0.03261
3566.72273	0.03263
3565.43696	0.03286
3564.15119	0.03305
3562.86542	0.03289
3561.57965	0.03237
3560.29388	0.03184
3559.00811	0.03166
3557.72234	0.03191
3556.43657	0.03246
3555.15081	0.03315
3553.86504	0.03380
3552.57927	0.03433
3551.29350	0.03476
3550.00773	0.03521
3548.72196	0.03567
3547.43619	0.03605
3546.15042	0.03625
3544.86466	0.03625
3543.57889	0.03615
3542.29312	0.03610
3541.00735	0.03623
3539.72158	0.03658
3538.43581	0.03708
3537.15004	0.03757
3535.86427	0.03784
3534.57850	0.03774
3533.29274	0.03732
3532.00697	0.03685
3530.72120	0.03659
3529.43543	0.03665
3528.14966	0.03683
3526.86389	0.03695
3525.57812	0.03698
3524.29235	0.03706
3523.00659	0.03735
3521.72082	0.03797
3520.43505	0.03891
3519.14928	0.03996
3517.86351	0.04084
3516.57774	0.04145
3515.29197	0.04186
3514.00620	0.04216
3512.72043	0.04225
3511.43467	0.04197
3510.14890	0.04131
3508.86313	0.04041
3507.57736	0.03950
3506.29159	0.03876
3505.00582	0.03838
3503.72005	0.03855
3502.43428	0.03933
3501.14852	0.04051
3499.86275	0.04156
3498.57698	0.04202
3497.29121	0.04184
3496.00544	0.04140
3494.71967	0.04113
3493.43390	0.04116
3492.14813	0.04142
3490.86236	0.04190
3489.57660	0.04260
3488.29083	0.04338
3487.00506	0.04398
3485.71929	0.04422
3484.43352	0.04407
3483.14775	0.04354
3481.86198	0.04276
3480.57621	0.04203
3479.29045	0.04174
3478.00468	0.04207
3476.71891	0.04283
3475.43314	0.04363
3474.14737	0.04412
3472.86160	0.04420
3471.57583	0.04396
3470.29006	0.04363
3469.00429	0.04350
3467.71853	0.04382
3466.43276	0.04463
3465.14699	0.04563
3463.86122	0.04630
3462.57545	0.04635
3461.28968	0.04590
3460.00391	0.04534
3458.71814	0.04495
3457.43238	0.04468
3456.14661	0.04439
3454.86084	0.04404
3453.57507	0.04379
3452.28930	0.04383
3451.00353	0.04426
3449.71776	0.04504
3448.43199	0.04593
3447.14622	0.04663
3445.86046	0.04690
3444.57469	0.04681
3443.28892	0.04670
3442.00315	0.04679
3440.71738	0.04709
3439.43161	0.04744
3438.14584	0.04781
3436.86007	0.04830
3435.57431	0.04893
3434.28854	0.04950
3433.00277	0.04970
3431.71700	0.04941
3430.43123	0.04887
3429.14546	0.04848
3427.85969	0.04839
3426.57392	0.04833
3425.28815	0.04803
3424.00239	0.04751
3422.71662	0.04712
3421.43085	0.04718
3420.14508	0.04774
3418.85931	0.04848
3417.57354	0.04887
3416.28777	0.04855
3415.00200	0.04768
3413.71624	0.04691
3412.43047	0.04688
3411.14470	0.04766
3409.85893	0.04878
3408.57316	0.04970
3407.28739	0.05016
3406.00162	0.05020
3404.71585	0.04996
3403.43008	0.04957
3402.14432	0.04913
3400.85855	0.04869
3399.57278	0.04827
3398.28701	0.04786
3397.00124	0.04771
3395.71547	0.04799
3394.42970	0.04849
3393.14393	0.04886
3391.85817	0.04894
3390.57240	0.04899
3389.28663	0.04932
3388.00086	0.04988
3386.71509	0.05029
3385.42932	0.05028
3384.14355	0.05003
3382.85778	0.04993
3381.57201	0.05004
3380.28625	0.04994
3379.00048	0.04929
3377.71471	0.04824
3376.42894	0.04727
3375.14317	0.04674
3373.85740	0.04667
3372.57163	0.04689
3371.28586	0.04721
3370.00010	0.04745
3368.71433	0.04757
3367.42856	0.04775
3366.14279	0.04827
3364.85702	0.04914
3363.57125	0.04999
3362.28548	0.05033
3360.99971	0.05004
3359.71394	0.04948
3358.42818	0.04907
3357.14241	0.04889
3355.85664	0.04874
3354.57087	0.04845
3353.28510	0.04814
3351.99933	0.04805
3350.71356	0.04819
3349.42779	0.04838
3348.14202	0.04836
3346.85626	0.04799
3345.57049	0.04725
3344.28472	0.04631
3342.99895	0.04554
3341.71318	0.04539
3340.42741	0.04603
3339.14164	0.04714
3337.85587	0.04812
3336.57011	0.04856
3335.28434	0.04851
3333.99857	0.04822
3332.71280	0.04780
3331.42703	0.04715
3330.14126	0.04633
3328.85549	0.04563
3327.56972	0.04540
3326.28395	0.04567
3324.99819	0.04616
3323.71242	0.04651
3322.42665	0.04652
3321.14088	0.04618
3319.85511	0.04559
3318.56934	0.04489
3317.28357	0.04433
3315.99780	0.04412
3314.71204	0.04430
3313.42627	0.04463
3312.14050	0.04474
3310.85473	0.04447
3309.56896	0.04401
3308.28319	0.04375
3306.99742	0.04385
3305.71165	0.04414
3304.42588	0.04433
3303.14012	0.04426
3301.85435	0.04394
3300.56858	0.04347
3299.28281	0.04308
3297.99704	0.04300
3296.71127	0.04324
3295.42550	0.04355
3294.13973	0.04371
3292.85397	0.04380
3291.56820	0.04401
3290.28243	0.04432
3288.99666	0.04444
3287.71089	0.04420
3286.42512	0.04380
3285.13935	0.04353
3283.85358	0.04349
3282.56781	0.04353
3281.28205	0.04345
3279.99628	0.04316
3278.71051	0.04272
3277.42474	0.04231
3276.13897	0.04210
3274.85320	0.04215
3273.56743	0.04236
3272.28166	0.04265
3270.99590	0.04297
3269.71013	0.04323
3268.42436	0.04327
3267.13859	0.04295
3265.85282	0.04237
3264.56705	0.04180
3263.28128	0.04139
3261.99551	0.04114
3260.70974	0.04095
3259.42398	0.04086
3258.13821	0.04102
3256.85244	0.04153
3255.56667	0.04221
3254.28090	0.04270
3252.99513	0.04272
3251.70936	0.04231
3250.42359	0.04185
3249.13783	0.04171
3247.85206	0.04200
3246.56629	0.04239
3245.28052	0.04243
3243.99475	0.04196
3242.70898	0.04123
3241.42321	0.04065
3240.13744	0.04049
3238.85167	0.04068
3237.56591	0.04093
3236.28014	0.04101
3234.99437	0.04077
3233.70860	0.04031
3232.42283	0.03985
3231.13706	0.03960
3229.85129	0.03956
3228.56552	0.03953
3227.27976	0.03939
3225.99399	0.03918
3224.70822	0.03903
3223.42245	0.03902
3222.13668	0.03924
3220.85091	0.03969
3219.56514	0.04013
3218.27937	0.04023
3216.99360	0.03997
3215.70784	0.03966
3214.42207	0.03954
3213.13630	0.03955
3211.85053	0.03948
3210.56476	0.03929
3209.27899	0.03906
3207.99322	0.03887
3206.70745	0.03872
3205.42169	0.03863
3204.13592	0.03862
3202.85015	0.03864
3201.56438	0.03862
3200.27861	0.03848
3198.99284	0.03825
3197.70707	0.03808
3196.42130	0.03809
3195.13553	0.03821
3193.84977	0.03822
3192.56400	0.03799
3191.27823	0.03764
3189.99246	0.03740
3188.70669	0.03728
3187.42092	0.03711
3186.13515	0.03694
3184.84938	0.03702
3183.56362	0.03745
3182.27785	0.03787
3180.99208	0.03782
3179.70631	0.03715
3178.42054	0.03617
3177.13477	0.03534
3175.84900	0.03487
3174.56323	0.03469
3173.27746	0.03461
3171.99170	0.03462
3170.70593	0.03478
3169.42016	0.03504
3168.13439	0.03523
3166.84862	0.03526
3165.56285	0.03526
3164.27708	0.03542
3162.99131	0.03572
3161.70555	0.03599
3160.41978	0.03613
3159.13401	0.03613
3157.84824	0.03606
3156.56247	0.03595
3155.27670	0.03588
3153.99093	0.03582
3152.70516	0.03565
3151.41939	0.03528
3150.13363	0.03481
3148.84786	0.03450
3147.56209	0.03444
3146.27632	0.03452
3144.99055	0.03458
3143.70478	0.03451
3142.41901	0.03428
3141.13324	0.03393
3139.84748	0.03359
3138.56171	0.03338
3137.27594	0.03328
3135.99017	0.03315
3134.70440	0.03292
3133.41863	0.03267
3132.13286	0.03263
3130.84709	0.03298
3129.56132	0.03359
3128.27556	0.03406
3126.98979	0.03411
3125.70402	0.03376
3124.41825	0.03334
3123.13248	0.03303
3121.84671	0.03273
3120.56094	0.03222
3119.27517	0.03147
3117.98940	0.03074
3116.70364	0.03034
3115.41787	0.03036
3114.13210	0.03069
3112.84633	0.03116
3111.56056	0.03162
3110.27479	0.03191
3108.98902	0.03190
3107.70325	0.03152
3106.41749	0.03091
3105.13172	0.03042
3103.84595	0.03035
3102.56018	0.03077
3101.27441	0.03139
3099.98864	0.03184
3098.70287	0.03193
3097.41710	0.03172
3096.13133	0.03138
3094.84557	0.03101
3093.55980	0.03065
3092.27403	0.03028
3090.98826	0.02994
3089.70249	0.02966
3088.41672	0.02953
3087.13095	0.02962
3085.84518	0.02996
3084.55942	0.03048
3083.27365	0.03097
3081.98788	0.03122
3080.70211	0.03119
3079.41634	0.03102
3078.13057	0.03092
3076.84480	0.03095
3075.55903	0.03098
3074.27326	0.03084
3072.98750	0.03045
3071.70173	0.02987
3070.41596	0.02923
3069.13019	0.02864
3067.84442	0.02822
3066.55865	0.02806
3065.27288	0.02814
3063.98711	0.02834
3062.70135	0.02853
3061.41558	0.02864
3060.12981	0.02872
3058.84404	0.02878
3057.55827	0.02878
3056.27250	0.02865
3054.98673	0.02831
3053.70096	0.02781
3052.41519	0.02733
3051.12943	0.02712
3049.84366	0.02728
3048.55789	0.02766
3047.27212	0.02796
3045.98635	0.02797
3044.70058	0.02772
3043.41481	0.02739
3042.12904	0.02713
3040.84328	0.02699
3039.55751	0.02694
3038.27174	0.02704
3036.98597	0.02733
3035.70020	0.02771
3034.41443	0.02788
3033.12866	0.02762
3031.84289	0.02706
3030.55712	0.02664
3029.27136	0.02662
3027.98559	0.02688
3026.69982	0.02709
3025.41405	0.02710
3024.12828	0.02697
3022.84251	0.02681
3021.55674	0.02653
3020.27097	0.02603
3018.98521	0.02539
3017.69944	0.02485
3016.41367	0.02464
3015.12790	0.02474
3013.84213	0.02503
3012.55636	0.02537
3011.27059	0.02569
3009.98482	0.02591
3008.69905	0.02594
3007.41329	0.02580
3006.12752	0.02554
3004.84175	0.02519
3003.55598	0.02482
3002.27021	0.02453
3000.98444	0.02445
2999.69867	0.02460
2998.41290	0.02483
2997.12714	0.02514
2995.84137	0.02557
2994.55560	0.02605
2993.26983	0.02639
2991.98406	0.02644
2990.69829	0.02629
2989.41252	0.02604
2988.12675	0.02567
2986.84098	0.02515
2985.55522	0.02466
2984.26945	0.02453
2982.98368	0.02487
2981.69791	0.02544
2980.41214	0.02584
2979.12637	0.02581
2977.84060	0.02540
2976.55483	0.02485
2975.26907	0.02442
2973.98330	0.02424
2972.69753	0.02431
2971.41176	0.02455
2970.12599	0.02484
2968.84022	0.02498
2967.55445	0.02483
2966.26868	0.02448
2964.98291	0.02414
2963.69715	0.02396
2962.41138	0.02392
2961.12561	0.02391
2959.83984	0.02383
2958.55407	0.02369
2957.26830	0.02355
2955.98253	0.02346
2954.69676	0.02342
2953.41100	0.02335
2952.12523	0.02323
2950.83946	0.02309
2949.55369	0.02299
2948.26792	0.02301
2946.98215	0.02317
2945.69638	0.02337
2944.41061	0.02351
2943.12484	0.02357
2941.83908	0.02358
2940.55331	0.02351
2939.26754	0.02337
2937.98177	0.02334
2936.69600	0.02359
2935.41023	0.02401
2934.12446	0.02428
2932.83869	0.02413
2931.55293	0.02361
2930.26716	0.02303
2928.98139	0.02271
2927.69562	0.02270
2926.40985	0.02285
2925.12408	0.02296
2923.83831	0.02292
2922.55254	0.02272
2921.26677	0.02247
2919.98101	0.02237
2918.69524	0.02255
2917.40947	0.02289
2916.12370	0.02316
2914.83793	0.02327
2913.55216	0.02335
2912.26639	0.02347
2910.98062	0.02349
2909.69486	0.02324
2908.40909	0.02274
2907.12332	0.02224
2905.83755	0.02192
2904.55178	0.02177
2903.26601	0.02169
2901.98024	0.02170
2900.69447	0.02181
2899.40870	0.02199
2898.12294	0.02217
2896.83717	0.02235
2895.55140	0.02254
2894.26563	0.02271
2892.97986	0.02283
2891.69409	0.02283
2890.40832	0.02265
2889.12255	0.02231
2887.83678	0.02193
2886.55102	0.02163
2885.26525	0.02149
2883.97948	0.02151
2882.69371	0.02161
2881.40794	0.02169
2880.12217	0.02166
2878.83640	0.02154
2877.55063	0.02138
2876.26487	0.02125
2874.97910	0.02121
2873.69333	0.02127
2872.40756	0.02130
2871.12179	0.02117
2869.83602	0.02086
2868.55025	0.02048
2867.26448	0.02022
2865.97871	0.02021
2864.69295	0.02042
2863.40718	0.02061
2862.12141	0.02059
2860.83564	0.02039
2859.54987	0.02022
2858.26410	0.02019
2856.97833	0.02020
2855.69256	0.02009
2854.40680	0.01985
2853.12103	0.01963
2851.83526	0.01954
2850.54949	0.01952
2849.26372	0.01940
2847.97795	0.01913
2846.69218	0.01889
2845.40641	0.01886
2844.12064	0.01904
2842.83488	0.01926
2841.54911	0.01936
2840.26334	0.01933
2838.97757	0.01926
2837.69180	0.01927
2836.40603	0.01938
2835.12026	0.01955
2833.83449	0.01965
2832.54873	0.01962
2831.26296	0.01950
2829.97719	0.01941
2828.69142	0.01939
2827.40565	0.01935
2826.11988	0.01926
2824.83411	0.01906
2823.54834	0.01866
2822.26257	0.01808
2820.97681	0.01755
2819.69104	0.01739
2818.40527	0.01766
2817.11950	0.01806
2815.83373	0.01831
2814.54796	0.01838
2813.26219	0.01842
2811.97642	0.01848
2810.69066	0.01846
2809.40489	0.01827
2808.11912	0.01798
2806.83335	0.01776
2805.54758	0.01771
2804.26181	0.01775
2802.97604	0.01773
2801.69027	0.01758
2800.40450	0.01740
2799.11874	0.01730
2797.83297	0.01730
2796.54720	0.01732
2795.26143	0.01730
2793.97566	0.01731
2792.68989	0.01746
2791.40412	0.01767
2790.11835	0.01772
2788.83259	0.01744
2787.54682	0.01694
2786.26105	0.01662
2784.97528	0.01676
2783.68951	0.01729
2782.40374	0.01782
2781.11797	0.01807
2779.83220	0.01800
2778.54643	0.01775
2777.26067	0.01744
2775.97490	0.01713
2774.68913	0.01684
2773.40336	0.01662
2772.11759	0.01658
2770.83182	0.01677
2769.54605	0.01707
2768.26028	0.01730
2766.97452	0.01739
2765.68875	0.01737
2764.40298	0.01728
2763.11721	0.01711
2761.83144	0.01687
2760.54567	0.01665
2759.25990	0.01655
2757.97413	0.01656
2756.68836	0.01663
2755.40260	0.01675
2754.11683	0.01692
2752.83106	0.01709
2751.54529	0.01717
2750.25952	0.01715
2748.97375	0.01710
2747.68798	0.01707
2746.40221	0.01703
2745.11645	0.01698
2743.83068	0.01692
2742.54491	0.01693
2741.25914	0.01706
2739.97337	0.01728
2738.68760	0.01746
2737.40183	0.01750
2736.11606	0.01743
2734.83029	0.01731
2733.54453	0.01715
2732.25876	0.01686
2730.97299	0.01648
2729.68722	0.01624
2728.40145	0.01633
2727.11568	0.01666
2725.82991	0.01689
2724.54414	0.01676
2723.25838	0.01635
2721.97261	0.01598
2720.68684	0.01585
2719.40107	0.01590
2718.11530	0.01597
2716.82953	0.01592
2715.54376	0.01579
2714.25799	0.01565
2712.97222	0.01564
2711.68646	0.01580
2710.40069	0.01605
2709.11492	0.01629
2707.82915	0.01645
2706.54338	0.01647
2705.25761	0.01633
2703.97184	0.01607
2702.68607	0.01577
2701.40031	0.01553
2700.11454	0.01541
2698.82877	0.01538
2697.54300	0.01535
2696.25723	0.01527
2694.97146	0.01515
2693.68569	0.01506
2692.39992	0.01509
2691.11415	0.01525
2689.82839	0.01547
2688.54262	0.01561
2687.25685	0.01563
2685.97108	0.01556
2684.68531	0.01549
2683.39954	0.01548
2682.11377	0.01552
2680.82800	0.01560
2679.54224	0.01570
2678.25647	0.01578
2676.97070	0.01588
2675.68493	0.01599
2674.39916	0.01603
2673.11339	0.01587
2671.82762	0.01552
2670.54185	0.01524
2669.25608	0.01520
2667.97032	0.01536
2666.68455	0.01553
2665.39878	0.01560
2664.11301	0.01562
2662.82724	0.01568
2661.54147	0.01575
2660.25570	0.01570
2658.96993	0.01547
2657.68417	0.01517
2656.39840	0.01497
2655.11263	0.01494
2653.82686	0.01494
2652.54109	0.01484
2651.25532	0.01473
2649.96955	0.01479
2648.68378	0.01509
2647.39801	0.01548
2646.11225	0.01572
2644.82648	0.01567
2643.54071	0.01541
2642.25494	0.01512
2640.96917	0.01494
2639.68340	0.01487
2638.39763	0.01483
2637.11186	0.01474
2635.82609	0.01462
2634.54033	0.01452
2633.25456	0.01443
2631.96879	0.01423
2630.68302	0.01386
2629.39725	0.01345
2628.11148	0.01319
2626.82571	0.01316
2625.53994	0.01336
2624.25418	0.01371
2622.96841	0.01413
2621.68264	0.01446
2620.39687	0.01446
2619.11110	0.01410
2617.82533	0.01365
2616.53956	0.01343
2615.25379	0.01345
2613.96802	0.01351
2612.68226	0.01346
2611.39649	0.01341
2610.11072	0.01349
2608.82495	0.01362
2607.53918	0.01362
2606.25341	0.01331
2604.96764	0.01268
2603.68187	0.01199
2602.39611	0.01160
2601.11034	0.01172
2599.82457	0.01213
2598.53880	0.01245
2597.25303	0.01252
2595.96726	0.01244
2594.68149	0.01234
2593.39572	0.01213
2592.10995	0.01174
2590.82419	0.01132
2589.53842	0.01116
2588.25265	0.01140
2586.96688	0.01185
2585.68111	0.01222
2584.39534	0.01230
2583.10957	0.01211
2581.82380	0.01185
2580.53804	0.01175
2579.25227	0.01190
2577.96650	0.01206
2576.68073	0.01195
2575.39496	0.01161
2574.10919	0.01139
2572.82342	0.01151
2571.53765	0.01180
2570.25188	0.01194
2568.96612	0.01179
2567.68035	0.01153
2566.39458	0.01139
2565.10881	0.01149
2563.82304	0.01171
2562.53727	0.01185
2561.25150	0.01168
2559.96573	0.01121
2558.67997	0.01068
2557.39420	0.01034
2556.10843	0.01036
2554.82266	0.01076
2553.53689	0.01150
2552.25112	0.01232
2550.96535	0.01289
2549.67958	0.01302
2548.39381	0.01279
2547.10805	0.01244
2545.82228	0.01213
2544.53651	0.01187
2543.25074	0.01165
2541.96497	0.01147
2540.67920	0.01139
2539.39343	0.01146
2538.10766	0.01160
2536.82190	0.01157
2535.53613	0.01125
2534.25036	0.01083
2532.96459	0.01060
2531.67882	0.01064
2530.39305	0.01085
2529.10728	0.01122
2527.82151	0.01179
2526.53574	0.01245
2525.24998	0.01289
2523.96421	0.01292
2522.67844	0.01264
2521.39267	0.01237
2520.10690	0.01233
2518.82113	0.01244
2517.53536	0.01245
2516.24959	0.01211
2514.96383	0.01141
2513.67806	0.01052
2512.39229	0.00976
2511.10652	0.00940
2509.82075	0.00951
2508.53498	0.01000
2507.24921	0.01070
2505.96344	0.01143
2504.67767	0.01201
2503.39191	0.01231
2502.10614	0.01233
2500.82037	0.01219
2499.53460	0.01196
2498.24883	0.01171
2496.96306	0.01150
2495.67729	0.01140
2494.39152	0.01139
2493.10576	0.01134
2491.81999	0.01119
2490.53422	0.01098
2489.24845	0.01082
2487.96268	0.01073
2486.67691	0.01064
2485.39114	0.01055
2484.10537	0.01059
2482.81960	0.01081
2481.53384	0.01106
2480.24807	0.01109
2478.96230	0.01077
2477.67653	0.01022
2476.39076	0.00979
2475.10499	0.00975
2473.81922	0.01018
2472.53345	0.01091
2471.24769	0.01165
2469.96192	0.01212
2468.67615	0.01215
2467.39038	0.01187
2466.10461	0.01156
2464.81884	0.01136
2463.53307	0.01125
2462.24730	0.01118
2460.96153	0.01115
2459.67577	0.01112
2458.39000	0.01108
2457.10423	0.01109
2455.81846	0.01122
2454.53269	0.01140
2453.24692	0.01142
2451.96115	0.01115
2450.67538	0.01069
2449.38962	0.01027
2448.10385	0.01001
2446.81808	0.00985
2445.53231	0.00976
2444.24654	0.00984
2442.96077	0.01012
2441.67500	0.01043
2440.38923	0.01052
2439.10346	0.01036
2437.81770	0.01015
2436.53193	0.01017
2435.24616	0.01051
2433.96039	0.01101
2432.67462	0.01137
2431.38885	0.01146
2430.10308	0.01125
2428.81731	0.01081
2427.53155	0.01025
2426.24578	0.00979
2424.96001	0.00966
2423.67424	0.00986
2422.38847	0.01023
2421.10270	0.01064
2419.81693	0.01101
2418.53116	0.01122
2417.24539	0.01115
2415.95963	0.01088
2414.67386	0.01063
2413.38809	0.01056
2412.10232	0.01066
2410.81655	0.01076
2409.53078	0.01070
2408.24501	0.01044
2406.95924	0.01008
2405.67347	0.00983
2404.38771	0.00984
2403.10194	0.01011
2401.81617	0.01048
2400.53040	0.01077
2399.24463	0.01098
2397.95886	0.01079
2396.67309	0.01031
2395.38732	0.00984
2394.10156	0.00959
2392.81579	0.00956
2391.53002	0.00961
2390.24425	0.00955
2388.95848	0.00942
2387.67271	0.00931
2386.38694	0.00930
2385.10117	0.00938
2383.81540	0.00948
2382.52964	0.00945
2381.24387	0.00917
2379.95810	0.00860
2378.67233	0.00791
2377.38656	0.00728
2376.10079	0.00678
2374.81502	0.00639
2373.52925	0.00605
2372.24349	0.00581
2370.95772	0.00566
2369.67195	0.00567
2368.38618	0.00572
2367.10041	0.00572
2365.81464	0.00556
2364.52887	0.00549
2363.24310	0.00555
2361.95733	0.00570
2360.67157	0.00579
2359.38580	0.00594
2358.10003	0.00605
2356.81426	0.00612
2355.52849	0.00621
2354.24272	0.00635
2352.95695	0.00661
2351.67118	0.00678
2350.38542	0.00673
2349.09965	0.00671
2347.81388	0.00698
2346.52811	0.00726
2345.24234	0.00752
2343.95657	0.00788
2342.67080	0.00832
2341.38503	0.00826
2340.09926	0.00764
2338.81350	0.00719
2337.52773	0.00710
2336.24196	0.00674
2334.95619	0.00614
2333.67042	0.00600
2332.38465	0.00616
2331.09888	0.00558
2329.81311	0.00500
2328.52735	0.00547
2327.24158	0.00583
2325.95581	0.00629
2324.67004	0.00766
2323.38427	0.00875
2322.09850	0.00924
2320.81273	0.01014
2319.52696	0.01052
2318.24119	0.01052
2316.95543	0.01086
2315.66966	0.01089
2314.38389	0.01079
2313.09812	0.01094
2311.81235	0.01093
2310.52658	0.01106
2309.24081	0.01112
2307.95504	0.01087
2306.66928	0.01058
2305.38351	0.01012
2304.09774	0.00968
2302.81197	0.00937
2301.52620	0.00923
2300.24043	0.00940
2298.95466	0.00972
2297.66889	0.01001
2296.38312	0.01018
2295.09736	0.01023
2293.81159	0.01026
2292.52582	0.01023
2291.24005	0.01020
2289.95428	0.01018
2288.66851	0.01018
2287.38274	0.01013
2286.09697	0.01001
2284.81121	0.00990
2283.52544	0.00992
2282.23967	0.01005
2280.95390	0.01011
2279.66813	0.00997
2278.38236	0.00968
2277.09659	0.00939
2275.81082	0.00920
2274.52505	0.00909
2273.23929	0.00905
2271.95352	0.00907
2270.66775	0.00907
2269.38198	0.00895
2268.09621	0.00868
2266.81044	0.00838
2265.52467	0.00821
2264.23890	0.00828
2262.95314	0.00848
2261.66737	0.00856
2260.38160	0.00841
2259.09583	0.00813
2257.81006	0.00791
2256.52429	0.00787
2255.23852	0.00800
2253.95275	0.00814
2252.66698	0.00820
2251.38122	0.00822
2250.09545	0.00850
2248.80968	0.00910
2247.52391	0.00881
2246.23814	0.00798
2244.95237	0.00685
2243.66660	0.00592
2242.38083	0.00557
2241.09507	0.00572
2239.80930	0.00596
2238.52353	0.00605
2237.23776	0.00617
2235.95199	0.00657
2234.66622	0.00721
2233.38045	0.00780
2232.09468	0.00826
2230.80891	0.00868
2229.52315	0.00890
2228.23738	0.00851
2226.95161	0.00750
2225.66584	0.00650
2224.38007	0.00618
2223.09430	0.00651
2221.80853	0.00684
2220.52276	0.00667
2219.23700	0.00609
2217.95123	0.00555
2216.66546	0.00538
2215.37969	0.00552
2214.09392	0.00574
2212.80815	0.00597
2211.52238	0.00629
2210.23661	0.00654
2208.95084	0.00644
2207.66508	0.00595
2206.37931	0.00544
2205.09354	0.00515
2203.80777	0.00483
2202.52200	0.00424
2201.23623	0.00364
2199.95046	0.00351
2198.66469	0.00393
2197.37893	0.00447
2196.09316	0.00460
2194.80739	0.00420
2193.52162	0.00369
2192.23585	0.00364
2190.95008	0.00434
2189.66431	0.00555
2188.37854	0.00672
2187.09277	0.00732
2185.80701	0.00707
2184.52124	0.00612
2183.23547	0.00497
2181.94970	0.00404
2180.66393	0.00330
2179.37816	0.00242
2178.09239	0.00130
2176.80662	0.00024
2175.52085	-0.00028
2174.23509	0.00021
2172.94932	0.00174
2171.66355	0.00359
2170.37778	0.00469
2169.09201	0.00445
2167.80624	0.00325
2166.52047	0.00206
2165.23470	0.00167
2163.94894	0.00205
2162.66317	0.00246
2161.37740	0.00213
2160.09163	0.00110
2158.80586	0.00023
2157.52009	0.00035
2156.23432	0.00137
2154.94855	0.00256
2153.66278	0.00346
2152.37702	0.00412
2151.09125	0.00473
2149.80548	0.00500
2148.51971	0.00441
2147.23394	0.00288
2145.94817	0.00111
2144.66240	-0.00005
2143.37663	-0.00034
2142.09087	0.00002
2140.80510	0.00082
2139.51933	0.00203
2138.23356	0.00343
2136.94779	0.00442
2135.66202	0.00449
2134.37625	0.00385
2133.09048	0.00341
2131.80471	0.00382
2130.51895	0.00475
2129.23318	0.00524
2127.94741	0.00476
2126.66164	0.00368
2125.37587	0.00282
2124.09010	0.00261
2122.80433	0.00288
2121.51856	0.00335
2120.23280	0.00399
2118.94703	0.00470
2117.66126	0.00520
2116.37549	0.00523
2115.08972	0.00498
2113.80395	0.00484
2112.51818	0.00500
2111.23241	0.00535
2109.94664	0.00562
2108.66088	0.00561
2107.37511	0.00526
2106.08934	0.00477
2104.80357	0.00442
2103.51780	0.00431
2102.23203	0.00428
2100.94626	0.00404
2099.66049	0.00235
2098.37473	0.00118
2097.08896	0.00074
2095.80319	0.00076
2094.51742	0.00120
2093.23165	0.00190
2091.94588	0.00260
2090.66011	0.00312
2089.37434	0.00345
2088.08857	0.00366
2086.80281	0.00378
2085.51704	0.00369
2084.23127	0.00333
2082.94550	0.00278
2081.65973	0.00221
2080.37396	0.00174
2079.08819	0.00136
2077.80242	0.00095
2076.51666	0.00037
2075.23089	-0.00034
2073.94512	-0.00096
2072.65935	-0.00106
2071.37358	-0.00030
2070.08781	0.00114
2068.80204	0.00248
2067.51627	0.00289
2066.23050	0.00216
2064.94474	0.00085
2063.65897	-0.00020
2062.37320	-0.00051
2061.08743	-0.00013
2059.80166	0.00059
2058.51589	0.00123
2057.23012	0.00155
2055.94435	0.00156
2054.65859	0.00152
2053.37282	0.00156
2052.08705	0.00155
2050.80128	0.00131
2049.51551	0.00087
2048.22974	0.00043
2046.94397	0.00008
2045.65820	-0.00032
2044.37243	-0.00090
2043.08667	-0.00163
2041.80090	-0.00223
2040.51513	-0.00242
2039.22936	-0.00207
2037.94359	-0.00148
2036.65782	-0.00123
2035.37205	-0.00173
2034.08628	-0.00287
2032.80052	-0.00410
2031.51475	-0.00493
2030.22898	-0.00517
2028.94321	-0.00483
2027.65744	-0.00402
2026.37167	-0.00300
2025.08590	-0.00214
2023.80013	-0.00181
2022.51436	-0.00201
2021.22860	-0.00231
2019.94283	-0.00220
2018.65706	-0.00154
2017.37129	-0.00057
2016.08552	0.00036
2014.79975	0.00090
2013.51398	0.00068
2012.22821	-0.00053
2010.94245	-0.00239
2009.65668	-0.00393
2008.37091	-0.00424
2007.08514	-0.00325
2005.79937	-0.00166
2004.51360	-0.00025
2003.22783	0.00070
2001.94206	0.00125
2000.65629	0.00151
1999.37053	0.00155
1998.08476	0.00168
1996.79899	0.00225
1995.51322	0.00333
1994.22745	0.00445
1992.94168	0.00496
1991.65591	0.00465
1990.37014	0.00405
1989.08438	0.00382
1987.79861	0.00412
1986.51284	0.00445
1985.22707	0.00435
1983.94130	0.00387
1982.65553	0.00331
1981.36976	0.00278
1980.08399	0.00211
1978.79822	0.00115
1977.51246	0.00006
1976.22669	-0.00083
1974.94092	-0.00119
1973.65515	-0.00088
1972.36938	0.00006
1971.08361	0.00136
1969.79784	0.00260
1968.51207	0.00338
1967.22631	0.00365
1965.94054	0.00366
1964.65477	0.00370
1963.36900	0.00376
1962.08323	0.00380
1960.79746	0.00393
1959.51169	0.00433
1958.22592	0.00491
1956.94015	0.00533
1955.65439	0.00533
1954.36862	0.00501
1953.08285	0.00465
1951.79708	0.00440
1950.51131	0.00424
1949.22554	0.00408
1947.93977	0.00395
1946.65400	0.00388
1945.36823	0.00379
1944.08247	0.00358
1942.79670	0.00328
1941.51093	0.00310
1940.22516	0.00319
1938.93939	0.00339
1937.65362	0.00326
1936.36785	0.00266
1935.08208	0.00201
1933.79632	0.00189
1932.51055	0.00237
1931.22478	0.00296
1929.93901	0.00323
1928.65324	0.00324
1927.36747	0.00331
1926.08170	0.00361
1924.79593	0.00404
1923.51016	0.00438
1922.22440	0.00453
1920.93863	0.00463
1919.65286	0.00488
1918.36709	0.00520
1917.08132	0.00531
1915.79555	0.00507
1914.50978	0.00463
1913.22401	0.00433
1911.93825	0.00430
1910.65248	0.00443
1909.36671	0.00445
1908.08094	0.00431
1906.79517	0.00421
1905.50940	0.00437
1904.22363	0.00474
1902.93786	0.00509
1901.65209	0.00530
1900.36633	0.00540
1899.08056	0.00549
1897.79479	0.00553
1896.50902	0.00536
1895.22325	0.00495
1893.93748	0.00448
1892.65171	0.00423
1891.36594	0.00430
1890.08018	0.00453
1888.79441	0.00481
1887.50864	0.00511
1886.22287	0.00541
1884.93710	0.00561
1883.65133	0.00561
1882.36556	0.00546
1881.07979	0.00522
1879.79402	0.00493
1878.50826	0.00467
1877.22249	0.00454
1875.93672	0.00459
1874.65095	0.00481
1873.36518	0.00509
1872.07941	0.00534
1870.79364	0.00549
1869.50787	0.00553
1868.22211	0.00557
1866.93634	0.00571
1865.65057	0.00590
1864.36480	0.00598
1863.07903	0.00586
1861.79326	0.00560
1860.50749	0.00539
1859.22172	0.00534
1857.93595	0.00543
1856.65019	0.00552
1855.36442	0.00555
1854.07865	0.00556
1852.79288	0.00561
1851.50711	0.00569
1850.22134	0.00571
1848.93557	0.00563
1847.64980	0.00549
1846.36404	0.00535
1845.07827	0.00521
1843.79250	0.00510
1842.50673	0.00514
1841.22096	0.00543
1839.93519	0.00586
1838.64942	0.00619
1837.36365	0.00633
1836.07788	0.00635
1834.79212	0.00636
1833.50635	0.00638
1832.22058	0.00639
1830.93481	0.00637
1829.64904	0.00631
1828.36327	0.00618
1827.07750	0.00602
1825.79173	0.00584
1824.50597	0.00563
1823.22020	0.00541
1821.93443	0.00523
1820.64866	0.00514
1819.36289	0.00516
1818.07712	0.00534
1816.79135	0.00567
1815.50558	0.00614
1814.21981	0.00665
1812.93405	0.00711
1811.64828	0.00739
1810.36251	0.00744
1809.07674	0.00730
1807.79097	0.00704
1806.50520	0.00675
1805.21943	0.00652
1803.93366	0.00643
1802.64790	0.00651
1801.36213	0.00670
1800.07636	0.00689
1798.79059	0.00699
1797.50482	0.00694
1796.21905	0.00676
1794.93328	0.00658
1793.64751	0.00653
1792.36174	0.00658
1791.07598	0.00664
1789.79021	0.00666
1788.50444	0.00671
1787.21867	0.00683
1785.93290	0.00698
1784.64713	0.00710
1783.36136	0.00715
1782.07559	0.00716
1780.78983	0.00713
1779.50406	0.00709
1778.21829	0.00707
1776.93252	0.00709
1775.64675	0.00713
1774.36098	0.00717
1773.07521	0.00723
1771.78944	0.00728
1770.50367	0.00736
1769.21791	0.00750
1767.93214	0.00766
1766.64637	0.00777
1765.36060	0.00779
1764.07483	0.00771
1762.78906	0.00760
1761.50329	0.00752
1760.21752	0.00755
1758.93176	0.00765
1757.64599	0.00773
1756.36022	0.00774
1755.07445	0.00770
1753.78868	0.00771
1752.50291	0.00776
1751.21714	0.00777
1749.93137	0.00772
1748.64560	0.00769
1747.35984	0.00777
1746.07407	0.00793
1744.78830	0.00808
1743.50253	0.00816
1742.21676	0.00820
1740.93099	0.00828
1739.64522	0.00837
1738.35945	0.00839
1737.07369	0.00834
1735.78792	0.00833
1734.50215	0.00838
1733.21638	0.00846
1731.93061	0.00857
1730.64484	0.00874
1729.35907	0.00896
1728.07330	0.00914
1726.78753	0.00923
1725.50177	0.00926
1724.21600	0.00925
1722.93023	0.00922
1721.64446	0.00916
1720.35869	0.00910
1719.07292	0.00908
1717.78715	0.00914
1716.50138	0.00928
1715.21561	0.00950
1713.92985	0.00979
1712.64408	0.01008
1711.35831	0.01034
1710.07254	0.01057
1708.78677	0.01080
1707.50100	0.01102
1706.21523	0.01119
1704.92946	0.01128
1703.64370	0.01131
1702.35793	0.01142
1701.07216	0.01159
1699.78639	0.01174
1698.50062	0.01187
1697.21485	0.01211
1695.92908	0.01243
1694.64331	0.01271
1693.35754	0.01297
1692.07178	0.01328
1690.78601	0.01361
1689.50024	0.01387
1688.21447	0.01404
1686.92870	0.01419
1685.64293	0.01439
1684.35716	0.01465
1683.07139	0.01495
1681.78563	0.01532
1680.49986	0.01572
1679.21409	0.01603
1677.92832	0.01624
1676.64255	0.01640
1675.35678	0.01656
1674.07101	0.01674
1672.78524	0.01698
1671.49947	0.01727
1670.21371	0.01757
1668.92794	0.01783
1667.64217	0.01808
1666.35640	0.01838
1665.07063	0.01875
1663.78486	0.01918
1662.49909	0.01956
1661.21332	0.01985
1659.92756	0.02004
1658.64179	0.02015
1657.35602	0.02018
1656.07025	0.02017
1654.78448	0.02024
1653.49871	0.02043
1652.21294	0.02068
1650.92717	0.02096
1649.64140	0.02127
1648.35564	0.02159
1647.06987	0.02185
1645.78410	0.02208
1644.49833	0.02232
1643.21256	0.02261
1641.92679	0.02289
1640.64102	0.02305
1639.35525	0.02309
1638.06949	0.02306
1636.78372	0.02305
1635.49795	0.02305
1634.21218	0.02306
1632.92641	0.02309
1631.64064	0.02317
1630.35487	0.02326
1629.06910	0.02332
1627.78333	0.02334
1626.49757	0.02335
1625.21180	0.02340
1623.92603	0.02349
1622.64026	0.02358
1621.35449	0.02364
1620.06872	0.02366
1618.78295	0.02368
1617.49718	0.02374
1616.21142	0.02380
1614.92565	0.02390
1613.63988	0.02406
1612.35411	0.02426
1611.06834	0.02440
1609.78257	0.02448
1608.49680	0.02452
1607.21103	0.02459
1605.92526	0.02470
1604.63950	0.02484
1603.35373	0.02499
1602.06796	0.02509
1600.78219	0.02511
1599.49642	0.02504
1598.21065	0.02494
1596.92488	0.02487
1595.63911	0.02485
1594.35335	0.02490
1593.06758	0.02498
1591.78181	0.02506
1590.49604	0.02511
1589.21027	0.02512
1587.92450	0.02510
1586.63873	0.02507
1585.35296	0.02505
1584.06719	0.02505
1582.78143	0.02510
1581.49566	0.02515
1580.20989	0.02511
1578.92412	0.02498
1577.63835	0.02481
1576.35258	0.02467
1575.06681	0.02457
1573.78104	0.02456
1572.49528	0.02467
1571.20951	0.02483
1569.92374	0.02494
1568.63797	0.02494
1567.35220	0.02484
1566.06643	0.02471
1564.78066	0.02453
1563.49489	0.02428
1562.20912	0.02400
1560.92336	0.02380
1559.63759	0.02370
1558.35182	0.02368
1557.06605	0.02376
1555.78028	0.02398
1554.49451	0.02427
1553.20874	0.02457
1551.92297	0.02486
1550.63721	0.02513
1549.35144	0.02531
1548.06567	0.02537
1546.77990	0.02539
1545.49413	0.02542
1544.20836	0.02544
1542.92259	0.02545
1541.63682	0.02549
1540.35105	0.02562
1539.06529	0.02587
1537.77952	0.02622
1536.49375	0.02670
1535.20798	0.02725
1533.92221	0.02781
1532.63644	0.02830
1531.35067	0.02879
1530.06490	0.02933
1528.77914	0.02995
1527.49337	0.03062
1526.20760	0.03128
1524.92183	0.03192
1523.63606	0.03255
1522.35029	0.03323
1521.06452	0.03397
1519.77875	0.03479
1518.49298	0.03573
1517.20722	0.03679
1515.92145	0.03790
1514.63568	0.03899
1513.34991	0.04006
1512.06414	0.04109
1510.77837	0.04205
1509.49260	0.04298
1508.20683	0.04396
1506.92107	0.04504
1505.63530	0.04621
1504.34953	0.04741
1503.06376	0.04856
1501.77799	0.04959
1500.49222	0.05046
1499.20645	0.05124
1497.92068	0.05204
1496.63491	0.05288
1495.34915	0.05371
1494.06338	0.05448
1492.77761	0.05522
1491.49184	0.05598
1490.20607	0.05682
1488.92030	0.05780
1487.63453	0.05896
1486.34876	0.06023
1485.06299	0.06154
1483.77723	0.06286
1482.49146	0.06416
1481.20569	0.06540
1479.91992	0.06658
1478.63415	0.06769
1477.34838	0.06877
1476.06261	0.06980
1474.77684	0.07074
1473.49108	0.07154
1472.20531	0.07218
1470.91954	0.07266
1469.63377	0.07303
1468.34800	0.07329
1467.06223	0.07342
1465.77646	0.07342
1464.49069	0.07334
1463.20492	0.07325
1461.91916	0.07318
1460.63339	0.07315
1459.34762	0.07321
1458.06185	0.07338
1456.77608	0.07364
1455.49031	0.07393
1454.20454	0.07423
1452.91877	0.07449
1451.63301	0.07465
1450.34724	0.07465
1449.06147	0.07452
1447.77570	0.07430
1446.48993	0.07398
1445.20416	0.07353
1443.91839	0.07295
1442.63262	0.07229
1441.34685	0.07161
1440.06109	0.07098
1438.77532	0.07047
1437.48955	0.07015
1436.20378	0.07007
1434.91801	0.07029
1433.63224	0.07086
1432.34647	0.07179
1431.06070	0.07299
1429.77494	0.07432
1428.48917	0.07574
1427.20340	0.07725
1425.91763	0.07885
1424.63186	0.08050
1423.34609	0.08212
1422.06032	0.08367
1420.77455	0.08513
1419.48878	0.08643
1418.20302	0.08750
1416.91725	0.08831
1415.63148	0.08890
1414.34571	0.08931
1413.05994	0.08955
1411.77417	0.08956
1410.48840	0.08930
1409.20263	0.08878
1407.91687	0.08804
1406.63110	0.08717
1405.34533	0.08621
1404.05956	0.08514
1402.77379	0.08393
1401.48802	0.08254
1400.20225	0.08097
1398.91648	0.07924
1397.63071	0.07741
1396.34495	0.07557
1395.05918	0.07373
1393.77341	0.07188
1392.48764	0.06999
1391.20187	0.06807
1389.91610	0.06613
1388.63033	0.06422
1387.34456	0.06235
1386.05880	0.06053
1384.77303	0.05875
1383.48726	0.05695
1382.20149	0.05510
1380.91572	0.05319
1379.62995	0.05124
1378.34418	0.04928
1377.05841	0.04734
1375.77264	0.04542
1374.48688	0.04357
1373.20111	0.04182
1371.91534	0.04019
1370.62957	0.03865
1369.34380	0.03716
1368.05803	0.03572
1366.77226	0.03439
1365.48649	0.03320
1364.20073	0.03211
1362.91496	0.03106
1361.62919	0.03000
1360.34342	0.02895
1359.05765	0.02796
1357.77188	0.02707
1356.48611	0.02625
1355.20034	0.02548
1353.91457	0.02475
1352.62881	0.02408
1351.34304	0.02345
1350.05727	0.02284
1348.77150	0.02223
1347.48573	0.02167
1346.19996	0.02117
1344.91419	0.02074
1343.62842	0.02031
1342.34266	0.01987
1341.05689	0.01943
1339.77112	0.01902
1338.48535	0.01867
1337.19958	0.01837
1335.91381	0.01811
1334.62804	0.01784
1333.34227	0.01752
1332.05650	0.01713
1330.77074	0.01674
1329.48497	0.01640
1328.19920	0.01617
1326.91343	0.01603
1325.62766	0.01594
1324.34189	0.01585
1323.05612	0.01570
1321.77035	0.01553
1320.48459	0.01537
1319.19882	0.01521
1317.91305	0.01504
1316.62728	0.01482
1315.34151	0.01456
1314.05574	0.01430
1312.76997	0.01407
1311.48420	0.01390
1310.19843	0.01379
1308.91267	0.01372
1307.62690	0.01364
1306.34113	0.01353
1305.05536	0.01339
1303.76959	0.01324
1302.48382	0.01312
1301.19805	0.01303
1299.91228	0.01294
1298.62652	0.01282
1297.34075	0.01270
1296.05498	0.01261
1294.76921	0.01256
1293.48344	0.01255
1292.19767	0.01257
1290.91190	0.01257
1289.62613	0.01251
1288.34036	0.01238
1287.05460	0.01221
1285.76883	0.01205
1284.48306	0.01194
1283.19729	0.01188
1281.91152	0.01181
1280.62575	0.01172
1279.33998	0.01163
1278.05421	0.01161
1276.76845	0.01167
1275.48268	0.01176
1274.19691	0.01179
1272.91114	0.01172
1271.62537	0.01161
1270.33960	0.01149
1269.05383	0.01140
1267.76806	0.01133
1266.48229	0.01128
1265.19653	0.01125
1263.91076	0.01126
1262.62499	0.01127
1261.33922	0.01124
1260.05345	0.01119
1258.76768	0.01115
1257.48191	0.01117
1256.19614	0.01124
1254.91037	0.01132
1253.62461	0.01134
1252.33884	0.01131
1251.05307	0.01124
1249.76730	0.01117
1248.48153	0.01109
1247.19576	0.01100
1245.90999	0.01091
1244.62422	0.01084
1243.33846	0.01080
1242.05269	0.01079
1240.76692	0.01080
1239.48115	0.01080
1238.19538	0.01080
1236.90961	0.01081
1235.62384	0.01082
1234.33807	0.01082
1233.05230	0.01079
1231.76654	0.01076
1230.48077	0.01074
1229.19500	0.01074
1227.90923	0.01075
1226.62346	0.01077
1225.33769	0.01079
1224.05192	0.01081
1222.76615	0.01083
1221.48039	0.01084
1220.19462	0.01084
1218.90885	0.01083
1217.62308	0.01081
1216.33731	0.01081
1215.05154	0.01085
1213.76577	0.01092
1212.48000	0.01099
1211.19423	0.01102
1209.90847	0.01100
1208.62270	0.01096
1207.33693	0.01093
1206.05116	0.01094
1204.76539	0.01099
1203.47962	0.01103
1202.19385	0.01106
1200.90808	0.01113
1199.62232	0.01129
1198.33655	0.01125
1197.05078	0.01122
1195.76501	0.01123
1194.47924	0.01126
1193.19347	0.01130
1191.90770	0.01134
1190.62193	0.01140
1189.33616	0.01147
1188.05040	0.01156
1186.76463	0.01165
1185.47886	0.01172
1184.19309	0.01178
1182.90732	0.01185
1181.62155	0.01193
1180.33578	0.01198
1179.05001	0.01203
1177.76425	0.01208
1176.47848	0.01216
1175.19271	0.01228
1173.90694	0.01239
1172.62117	0.01248
1171.33540	0.01255
1170.04963	0.01263
1168.76386	0.01274
1167.47809	0.01292
1166.19233	0.01317
1164.90656	0.01347
1163.62079	0.01372
1162.33502	0.01388
1161.04925	0.01400
1159.76348	0.01414
1158.47771	0.01434
1157.19194	0.01457
1155.90618	0.01481
1154.62041	0.01507
1153.33464	0.01537
1152.04887	0.01575
1150.76310	0.01624
1149.47733	0.01682
1148.19156	0.01743
1146.90579	0.01803
1145.62002	0.01859
1144.33426	0.01917
1143.04849	0.01980
1141.76272	0.02055
1140.47695	0.02143
1139.19118	0.02244
1137.90541	0.02354
1136.61964	0.02475
1135.33387	0.02609
1134.04811	0.02757
1132.76234	0.02917
1131.47657	0.03090
1130.19080	0.03282
1128.90503	0.03499
1127.61926	0.03745
1126.33349	0.04011
1125.04772	0.04290
1123.76195	0.04579
1122.47619	0.04882
1121.19042	0.05199
1119.90465	0.05518
1118.61888	0.05830
1117.33311	0.06135
1116.04734	0.06436
1114.76157	0.06735
1113.47580	0.07028
1112.19004	0.07310
1110.90427	0.07585
1109.61850	0.07856
1108.33273	0.08120
1107.04696	0.08374
1105.76119	0.08621
1104.47542	0.08867
1103.18965	0.09115
1101.90388	0.09360
1100.61812	0.09598
1099.33235	0.09822
1098.04658	0.10035
1096.76081	0.10245
1095.47504	0.10458
1094.18927	0.10670
1092.90350	0.10872
1091.61773	0.11057
1090.33197	0.11229
1089.04620	0.11395
1087.76043	0.11562
1086.47466	0.11729
1085.18889	0.11891
1083.90312	0.12054
1082.61735	0.12229
1081.33158	0.12429
1080.04581	0.12658
1078.76005	0.12906
1077.47428	0.13166
1076.18851	0.13432
1074.90274	0.13706
1073.61697	0.13990
1072.33120	0.14285
1071.04543	0.14588
1069.75966	0.14903
1068.47390	0.15236
1067.18813	0.15588
1065.90236	0.15951
1064.61659	0.16315
1063.33082	0.16675
1062.04505	0.17031
1060.75928	0.17386
1059.47351	0.17741
1058.18774	0.18100
1056.90198	0.18464
1055.61621	0.18833
1054.33044	0.19205
1053.04467	0.19578
1051.75890	0.19951
1050.47313	0.20322
1049.18736	0.20690
1047.90159	0.21058
1046.61583	0.21436
1045.33006	0.21833
1044.04429	0.22248
1042.75852	0.22673
1041.47275	0.23101
1040.18698	0.23530
1038.90121	0.23959
1037.61544	0.24388
1036.32967	0.24813
1035.04391	0.25234
1033.75814	0.25645
1032.47237	0.26037
1031.18660	0.26397
1029.90083	0.26715
1028.61506	0.26990
1027.32929	0.27225
1026.04352	0.27413
1024.75775	0.27547
1023.47199	0.27624
1022.18622	0.27646
1020.90045	0.27614
1019.61468	0.27527
1018.32891	0.27377
1017.04314	0.27162
1015.75737	0.26876
1014.47160	0.26517
1013.18584	0.26082
1011.90007	0.25576
1010.61430	0.25008
1009.32853	0.24387
1008.04276	0.23711
1006.75699	0.22972
1005.47122	0.22168
1004.18545	0.21310
1002.89968	0.20419
1001.61392	0.19510
1000.32815	0.18586
999.04238	0.17651
997.75661	0.16720
996.47084	0.15810
995.18507	0.14929
993.89930	0.14074
992.61353	0.13246
991.32777	0.12455
990.04200	0.11717
988.75623	0.11039
987.47046	0.10417
986.18469	0.09842
984.89892	0.09315
983.61315	0.08837
982.32738	0.08406
981.04161	0.08012
979.75585	0.07648
978.47008	0.07317
977.18431	0.07029
975.89854	0.06794
974.61277	0.06615
973.32700	0.06492
972.04123	0.06420
970.75546	0.06401
969.46970	0.06436
968.18393	0.06524
966.89816	0.06659
965.61239	0.06822
964.32662	0.06991
963.04085	0.07139
961.75508	0.07235
960.46931	0.07252
959.18354	0.07173
957.89778	0.07005
956.61201	0.06773
955.32624	0.06507
954.04047	0.06234
952.75470	0.05970
951.46893	0.05723
950.18316	0.05491
948.89739	0.05268
947.61163	0.05047
946.32586	0.04836
945.04009	0.04643
943.75432	0.04467
942.46855	0.04297
941.18278	0.04131
939.89701	0.03980
938.61124	0.03852
937.32547	0.03744
936.03971	0.03644
934.75394	0.03551
933.46817	0.03470
932.18240	0.03401
930.89663	0.03338
929.61086	0.03278
928.32509	0.03222
927.03932	0.03171
925.75356	0.03119
924.46779	0.03064
923.18202	0.03011
921.89625	0.02966
920.61048	0.02930
919.32471	0.02903
918.03894	0.02880
916.75317	0.02859
915.46740	0.02838
914.18164	0.02816
912.89587	0.02791
911.61010	0.02761
910.32433	0.02726
909.03856	0.02689
907.75279	0.02651
906.46702	0.02616
905.18125	0.02585
903.89549	0.02561
902.60972	0.02547
901.32395	0.02541
900.03818	0.02538
898.75241	0.02532
897.46664	0.02527
896.18087	0.02531
894.89510	0.02545
893.60933	0.02559
892.32357	0.02567
891.03780	0.02574
889.75203	0.02595
888.46626	0.02641
887.18049	0.02721
885.89472	0.02856
884.60895	0.03068
883.32318	0.03361
882.03742	0.03702
880.75165	0.04027
879.46588	0.04279
878.18011	0.04447
876.89434	0.04567
875.60857	0.04694
874.32280	0.04835
873.03703	0.04949
871.75126	0.04976
870.46550	0.04890
869.17973	0.04707
867.89396	0.04463
866.60819	0.04187
865.32242	0.03908
864.03665	0.03651
862.75088	0.03429
861.46511	0.03241
860.17935	0.03079
858.89358	0.02942
857.60781	0.02829
856.32204	0.02741
855.03627	0.02674
853.75050	0.02624
852.46473	0.02585
851.17896	0.02552
849.89319	0.02522
848.60743	0.02492
847.32166	0.02462
846.03589	0.02436
844.75012	0.02415
843.46435	0.02400
842.17858	0.02388
840.89281	0.02377
839.60704	0.02367
838.32128	0.02355
837.03551	0.02340
835.74974	0.02321
834.46397	0.02302
833.17820	0.02289
831.89243	0.02281
830.60666	0.02273
829.32089	0.02260
828.03512	0.02246
826.74936	0.02235
825.46359	0.02230
824.17782	0.02230
822.89205	0.02230
821.60628	0.02229
820.32051	0.02228
819.03474	0.02231
817.74897	0.02236
816.46321	0.02239
815.17744	0.02239
813.89167	0.02236
812.60590	0.02232
811.32013	0.02228
810.03436	0.02227
808.74859	0.02227
807.46282	0.02231
806.17705	0.02236
804.89129	0.02239
803.60552	0.02234
802.31975	0.02223
801.03398	0.02209
799.74821	0.02198
798.46244	0.02195
797.17667	0.02200
795.89090	0.02210
794.60513	0.02217
793.31937	0.02219
792.03360	0.02223
790.74783	0.02233
789.46206	0.02246
788.17629	0.02253
786.89052	0.02250
785.60475	0.02239
784.31898	0.02226
783.03322	0.02217
781.74745	0.02212
780.46168	0.02209
779.17591	0.02202
777.89014	0.02194
776.60437	0.02187
775.31860	0.02183
774.03283	0.02184
772.74706	0.02193
771.46130	0.02208
770.17553	0.02221
768.88976	0.02223
767.60399	0.02217
766.31822	0.02213
765.03245	0.02214
763.74668	0.02217
762.46091	0.02220
761.17515	0.02230
759.88938	0.02251
758.60361	0.02273
757.31784	0.02282
756.03207	0.02277
754.74630	0.02270
753.46053	0.02269
752.17476	0.02270
750.88899	0.02266
749.60323	0.02258
748.31746	0.02256
747.03169	0.02265
745.74592	0.02276
744.46015	0.02277
743.17438	0.02267
741.88861	0.02256
740.60284	0.02248
739.31708	0.02242
738.03131	0.02238
736.74554	0.02238
735.45977	0.02242
734.17400	0.02246
732.88823	0.02246
731.60246	0.02245
730.31669	0.02244
729.03092	0.02247
727.74516	0.02253
726.45939	0.02263
725.17362	0.02275
723.88785	0.02269
722.60208	0.02298
721.31631	0.02344
720.03054	0.02385
718.74477	0.02415
717.45901	0.02432
716.17324	0.02434
714.88747	0.02421
713.60170	0.02400
712.31593	0.02377
711.03016	0.02360
709.74439	0.02351
708.45862	0.02349
707.17285	0.02350
705.88709	0.02351
704.60132	0.02352
703.31555	0.02353
702.02978	0.02354
700.74401	0.02358
699.45824	0.02366
698.17247	0.02379
696.88670	0.02395
695.60094	0.02411
694.31517	0.02426
693.02940	0.02439
691.74363	0.02448
690.45786	0.02452
689.17209	0.02450
687.88632	0.02441
686.60055	0.02427
685.31478	0.02411
684.02902	0.02396
682.74325	0.02382
681.45748	0.02372
680.17171	0.02365
678.88594	0.02360
677.60017	0.02359
676.31440	0.02364
675.02863	0.02376
673.74287	0.02393
672.45710	0.02410
671.17133	0.02421
669.88556	0.02432
668.59979	0.02462
667.31402	0.02484
666.02825	0.02476
664.74248	0.02476
663.45671	0.02463
662.17095	0.02443
660.88518	0.02428
659.59941	0.02425
658.31364	0.02434
657.02787	0.02449
655.74210	0.02466
654.45633	0.02480
653.17056	0.02489
651.88480	0.02496
650.59903	0.02507
649.31326	0.02525
648.02749	0.02548
646.74172	0.02572
645.45595	0.02595
644.17018	0.02617
642.88441	0.02643
641.59864	0.02671
640.31288	0.02696
639.02711	0.02712
637.74134	0.02723
636.45557	0.02736
635.16980	0.02759
633.88403	0.02793
632.59826	0.02836
631.31249	0.02864
630.02673	0.02810
628.74096	0.02715
627.45519	0.02851
626.16942	0.02715
624.88365	0.02395
623.59788	0.02123
622.31211	0.02047
621.02634	0.02248
619.74057	0.02705
618.45481	0.03286
617.16904	0.03829
615.88327	0.04212
614.59750	0.04409
613.31173	0.04493
612.02596	0.04608
610.74019	0.04909
609.45442	0.05483
608.16866	0.06271
606.88289	0.07091
605.59712	0.07773
604.31135	0.08252
603.02558	0.08542
601.73981	0.08670
600.45404	0.08649
599.16827	0.08505
597.88250	0.08287
596.59674	0.08040
595.31097	0.07786
594.02520	0.07534
592.73943	0.07296
591.45366	0.07096
590.16789	0.06967
588.88212	0.06930
587.59635	0.06988
586.31059	0.07117
585.02482	0.07294
583.73905	0.07508
582.45328	0.07760
581.16751	0.08045
579.88174	0.08354
578.59597	0.08674
577.31020	0.08993
576.02443	0.09303
574.73867	0.09593
573.45290	0.09863
572.16713	0.10129
570.88136	0.10417
569.59559	0.10758
568.30982	0.11168
567.02405	0.11638
565.73828	0.12125
564.45251	0.12549
563.16675	0.12824
561.88098	0.12885
560.59521	0.12713
559.30944	0.12329
558.02367	0.11769
556.73790	0.11075
555.45213	0.10293
554.16636	0.09478
552.88060	0.08685
551.59483	0.07959
550.30906	0.07330
549.02329	0.06802
547.73752	0.06357
546.45175	0.05975
545.16598	0.05638
543.88021	0.05339
542.59444	0.05075
541.30868	0.04844
540.02291	0.04641
538.73714	0.04463
537.45137	0.04313
536.16560	0.04189
534.87983	0.04088
533.59406	0.03994
532.30829	0.03896
531.02253	0.03790
529.73676	0.03686
528.45099	0.03599
527.16522	0.03534
525.87945	0.03488
524.59368	0.03448
523.30791	0.03403
522.02214	0.03347
520.73637	0.03280
519.45061	0.03209
518.16484	0.03140
516.87907	0.03072
515.59330	0.03008
514.30753	0.02948
513.02176	0.02898
511.73599	0.02861
510.45022	0.02836
509.16446	0.02818
507.87869	0.02799
506.59292	0.02776
505.30715	0.02751
504.02138	0.02728
502.73561	0.02710
501.44984	0.02700
500.16407	0.02697
498.87830	0.02696
497.59254	0.02687
496.30677	0.02665
495.02100	0.02632
493.73523	0.02598
492.44946	0.02572
491.16369	0.02559
489.87792	0.02550
488.59215	0.02537
487.30639	0.02519
486.02062	0.02506
484.73485	0.02509
483.44908	0.02531
482.16331	0.02563
480.87754	0.02592
479.59177	0.02615
478.30600	0.02633
477.02023	0.02655
475.73447	0.02688
474.44870	0.02725
473.16293	0.02752
471.87716	0.02758
470.59139	0.02746
469.30562	0.02731
468.01985	0.02719
466.73408	0.02707
465.44832	0.02685
464.16255	0.02651
462.87678	0.02610
461.59101	0.02570
460.30524	0.02535
459.01947	0.02505
457.73370	0.02478
456.44793	0.02450
455.16216	0.02422
453.87640	0.02397
452.59063	0.02376
451.30486	0.02362
450.01909	0.02357
448.73332	0.02359
447.44755	0.02361
446.16178	0.02355
444.87601	0.02334
443.59025	0.02305
442.30448	0.02278
441.01871	0.02262
439.73294	0.02258
438.44717	0.02257
437.16140	0.02255
435.87563	0.02249
434.58986	0.02239
433.30409	0.02225
432.01833	0.02212
430.73256	0.02198
429.44679	0.02182
428.16102	0.02163
426.87525	0.02145
425.58948	0.02132
424.30371	0.02124
423.01794	0.02116
421.73218	0.02102
420.44641	0.02081
419.16064	0.02054
417.87487	0.02027
416.58910	0.02007
415.30333	0.02001
414.01756	0.02007
412.73179	0.02017
411.44602	0.02023
410.16026	0.02021
408.87449	0.02016
407.58872	0.02015
406.30295	0.02019
405.01718	0.02024
403.73141	0.02026
402.44564	0.02026
401.15987	0.02028
399.87411	0.02031
