3997.45528	0.08760
3996.16951	0.08731
3994.88374	0.08717
3993.59798	0.08759
3992.31221	0.08855
3991.02644	0.08930
3989.74067	0.08901
3988.45490	0.08761
3987.16913	0.08599
3985.88336	0.08524
3984.59759	0.08555
3983.31183	0.08609
3982.02606	0.08604
3980.74029	0.08542
3979.45452	0.08488
3978.16875	0.08475
3976.88298	0.08478
3975.59721	0.08460
3974.31144	0.08423
3973.02567	0.08402
3971.73991	0.08431
3970.45414	0.08510
3969.16837	0.08599
3967.88260	0.08644
3966.59683	0.08624
3965.31106	0.08561
3964.02529	0.08501
3962.73952	0.08469
3961.45376	0.08462
3960.16799	0.08468
3958.88222	0.08484
3957.59645	0.08509
3956.31068	0.08533
3955.02491	0.08539
3953.73914	0.08511
3952.45337	0.08457
3951.16760	0.08412
3949.88184	0.08407
3948.59607	0.08426
3947.31030	0.08415
3946.02453	0.08351
3944.73876	0.08275
3943.45299	0.08250
3942.16722	0.08288
3940.88145	0.08354
3939.59569	0.08402
3938.30992	0.08406
3937.02415	0.08377
3935.73838	0.08350
3934.45261	0.08358
3933.16684	0.08394
3931.88107	0.08419
3930.59530	0.08408
3929.30953	0.08372
3928.02377	0.08340
3926.73800	0.08322
3925.45223	0.08312
3924.16646	0.08314
3922.88069	0.08355
3921.59492	0.08449
3920.30915	0.08571
3919.02338	0.08675
3917.73762	0.08729
3916.45185	0.08718
3915.16608	0.08649
3913.88031	0.08550
3912.59454	0.08462
3911.30877	0.08413
3910.02300	0.08400
3908.73723	0.08405
3907.45146	0.08413
3906.16570	0.08418
3904.87993	0.08410
3903.59416	0.08381
3902.30839	0.08355
3901.02262	0.08362
3899.73685	0.08386
3898.45108	0.08366
3897.16531	0.08276
3895.87955	0.08162
3894.59378	0.08088
3893.30801	0.08057
3892.02224	0.08002
3890.73647	0.07886
3889.45070	0.07786
3888.16493	0.07832
3886.87916	0.08040
3885.59339	0.08284
3884.30763	0.08449
3883.02186	0.08513
3881.73609	0.08497
3880.45032	0.08400
3879.16455	0.08243
3877.87878	0.08093
3876.59301	0.07999
3875.30724	0.07935
3874.02148	0.07858
3872.73571	0.07795
3871.44994	0.07814
3870.16417	0.07917
3868.87840	0.08039
3867.59263	0.08135
3866.30686	0.08186
3865.02109	0.08169
3863.73532	0.08095
3862.44956	0.08012
3861.16379	0.07954
3859.87802	0.07906
3858.59225	0.07839
3857.30648	0.07761
3856.02071	0.07719
3854.73494	0.07742
3853.44917	0.07791
3852.16341	0.07810
3850.87764	0.07782
3849.59187	0.07722
3848.30610	0.07664
3847.02033	0.07658
3845.73456	0.07724
3844.44879	0.07827
3843.16302	0.07902
3841.87725	0.07916
3840.59149	0.07899
3839.30572	0.07890
3838.01995	0.07882
3836.73418	0.07855
3835.44841	0.07834
3834.16264	0.07853
3832.87687	0.07892
3831.59110	0.07903
3830.30534	0.07876
3829.01957	0.07854
3827.73380	0.07866
3826.44803	0.07888
3825.16226	0.07884
3823.87649	0.07867
3822.59072	0.07851
3821.30495	0.07810
3820.01918	0.07730
3818.73342	0.07662
3817.44765	0.07662
3816.16188	0.07702
3814.87611	0.07731
3813.59034	0.07753
3812.30457	0.07779
3811.01880	0.07789
3809.73303	0.07790
3808.44726	0.07819
3807.16150	0.07876
3805.87573	0.07922
3804.58996	0.07938
3803.30419	0.07909
3802.01842	0.07804
3800.73265	0.07625
3799.44688	0.07452
3798.16111	0.07352
3796.87535	0.07295
3795.58958	0.07232
3794.30381	0.07192
3793.01804	0.07235
3791.73227	0.07352
3790.44650	0.07469
3789.16073	0.07521
3787.87496	0.07516
3786.58919	0.07519
3785.30343	0.07582
3784.01766	0.07683
3782.73189	0.07746
3781.44612	0.07716
3780.16035	0.07603
3778.87458	0.07474
3777.58881	0.07403
3776.30304	0.07423
3775.01728	0.07508
3773.73151	0.07609
3772.44574	0.07691
3771.15997	0.07719
3769.87420	0.07663
3768.58843	0.07543
3767.30266	0.07430
3766.01689	0.07363
3764.73112	0.07328
3763.44536	0.07318
3762.15959	0.07361
3760.87382	0.07466
3759.58805	0.07582
3758.30228	0.07637
3757.01651	0.07599
3755.73074	0.07508
3754.44497	0.07432
3753.15921	0.07381
3751.87344	0.07310
3750.58767	0.07191
3749.30190	0.07058
3748.01613	0.06998
3746.73036	0.07100
3745.44459	0.07314
3744.15882	0.07451
3742.87305	0.07430
3741.58729	0.07368
3740.30152	0.07389
3739.01575	0.07492
3737.72998	0.07601
3736.44421	0.07646
3735.15844	0.07613
3733.87267	0.07546
3732.58690	0.07482
3731.30114	0.07428
3730.01537	0.07399
3728.72960	0.07410
3727.44383	0.07419
3726.15806	0.07363
3724.87229	0.07244
3723.58652	0.07124
3722.30075	0.07060
3721.01498	0.07078
3719.72922	0.07175
3718.44345	0.07314
3717.15768	0.07423
3715.87191	0.07448
3714.58614	0.07388
3713.30037	0.07282
3712.01460	0.07177
3710.72883	0.07123
3709.44307	0.07136
3708.15730	0.07172
3706.87153	0.07161
3705.58576	0.07086
3704.29999	0.06995
3703.01422	0.06931
3701.72845	0.06884
3700.44268	0.06822
3699.15691	0.06749
3697.87115	0.06703
3696.58538	0.06709
3695.29961	0.06757
3694.01384	0.06823
3692.72807	0.06887
3691.44230	0.06947
3690.15653	0.06998
3688.87076	0.07009
3687.58500	0.06967
3686.29923	0.06925
3685.01346	0.06948
3683.72769	0.07012
3682.44192	0.07038
3681.15615	0.06991
3679.87038	0.06907
3678.58461	0.06863
3677.29884	0.06897
3676.01308	0.06958
3674.72731	0.06964
3673.44154	0.06935
3672.15577	0.06955
3670.87000	0.07039
3669.58423	0.07122
3668.29846	0.07160
3667.01269	0.07148
3665.72693	0.07093
3664.44116	0.07021
3663.15539	0.06973
3661.86962	0.06980
3660.58385	0.07044
3659.29808	0.07156
3658.01231	0.07298
3656.72654	0.07427
3655.44077	0.07490
3654.15501	0.07467
3652.86924	0.07384
3651.58347	0.07274
3650.29770	0.07165
3649.01193	0.07099
3647.72616	0.07117
3646.44039	0.07215
3645.15462	0.07344
3643.86886	0.07443
3642.58309	0.07496
3641.29732	0.07526
3640.01155	0.07554
3638.72578	0.07558
3637.44001	0.07503
3636.15424	0.07386
3634.86847	0.07244
3633.58270	0.07128
3632.29694	0.07093
3631.01117	0.07176
3629.72540	0.07330
3628.43963	0.07451
3627.15386	0.07483
3625.86809	0.07461
3624.58232	0.07429
3623.29655	0.07401
3622.01079	0.07389
3620.72502	0.07408
3619.43925	0.07454
3618.15348	0.07492
3616.86771	0.07499
3615.58194	0.07484
3614.29617	0.07482
3613.01040	0.07521
3611.72463	0.07603
3610.43887	0.07709
3609.15310	0.07819
3607.86733	0.07911
3606.58156	0.07963
3605.29579	0.07957
3604.01002	0.07899
3602.72425	0.07826
3601.43848	0.07781
3600.15272	0.07776
3598.86695	0.07803
3597.58118	0.07856
3596.29541	0.07928
3595.00964	0.08006
3593.72387	0.08067
3592.43810	0.08091
3591.15233	0.08081
3589.86656	0.08058
3588.58080	0.08043
3587.29503	0.08041
3586.00926	0.08051
3584.72349	0.08077
3583.43772	0.08121
3582.15195	0.08179
3580.86618	0.08243
3579.58041	0.08306
3578.29464	0.08364
3577.00888	0.08409
3575.72311	0.08423
3574.43734	0.08404
3573.15157	0.08380
3571.86580	0.08391
3570.58003	0.08438
3569.29426	0.08477
3568.00849	0.08456
3566.72273	0.08376
3565.43696	0.08297
3564.15119	0.08284
3562.86542	0.08345
3561.57965	0.08434
3560.29388	0.08499
3559.00811	0.08531
3557.72234	0.08554
3556.43657	0.08587
3555.15081	0.08625
3553.86504	0.08646
3552.57927	0.08630
3551.29350	0.08575
3550.00773	0.08502
3548.72196	0.08446
3547.43619	0.08439
3546.15042	0.08490
3544.86466	0.08583
3543.57889	0.08692
3542.29312	0.08784
3541.00735	0.08836
3539.72158	0.08853
3538.43581	0.08864
3537.15004	0.08884
3535.86427	0.08910
3534.57850	0.08931
3533.29274	0.08949
3532.00697	0.08973
3530.72120	0.09006
3529.43543	0.09044
3528.14966	0.09081
3526.86389	0.09105
3525.57812	0.09104
3524.29235	0.09076
3523.00659	0.09033
3521.72082	0.09006
3520.43505	0.09024
3519.14928	0.09083
3517.86351	0.09155
3516.57774	0.09215
3515.29197	0.09257
3514.00620	0.09281
3512.72043	0.09274
3511.43467	0.09232
3510.14890	0.09175
3508.86313	0.09142
3507.57736	0.09149
3506.29159	0.09173
3505.00582	0.09176
3503.72005	0.09154
3502.43428	0.09142
3501.14852	0.09171
3499.86275	0.09233
3498.57698	0.09293
3497.29121	0.09329
3496.00544	0.09348
3494.71967	0.09360
3493.43390	0.09364
3492.14813	0.09345
3490.86236	0.09304
3489.57660	0.09271
3488.29083	0.09280
3487.00506	0.09337
3485.71929	0.09422
3484.43352	0.09515
3483.14775	0.09604
3481.86198	0.09681
3480.57621	0.09738
3479.29045	0.09777
3478.00468	0.09809
3476.71891	0.09843
3475.43314	0.09861
3474.14737	0.09842
3472.86160	0.09783
3471.57583	0.09708
3470.29006	0.09648
3469.00429	0.09626
3467.71853	0.09648
3466.43276	0.09696
3465.14699	0.09734
3463.86122	0.09742
3462.57545	0.09735
3461.28968	0.09736
3460.00391	0.09738
3458.71814	0.09716
3457.43238	0.09673
3456.14661	0.09649
3454.86084	0.09673
3453.57507	0.09737
3452.28930	0.09814
3451.00353	0.09884
3449.71776	0.09937
3448.43199	0.09957
3447.14622	0.09930
3445.86046	0.09869
3444.57469	0.09815
3443.28892	0.09796
3442.00315	0.09806
3440.71738	0.09819
3439.43161	0.09832
3438.14584	0.09868
3436.86007	0.09938
3435.57431	0.10016
3434.28854	0.10065
3433.00277	0.10072
3431.71700	0.10056
3430.43123	0.10048
3429.14546	0.10070
3427.85969	0.10123
3426.57392	0.10187
3425.28815	0.10237
3424.00239	0.10261
3422.71662	0.10265
3421.43085	0.10264
3420.14508	0.10281
3418.85931	0.10330
3417.57354	0.10406
3416.28777	0.10475
3415.00200	0.10497
3413.71624	0.10455
3412.43047	0.10361
3411.14470	0.10254
3409.85893	0.10182
3408.57316	0.10179
3407.28739	0.10235
3406.00162	0.10307
3404.71585	0.10363
3403.43008	0.10407
3402.14432	0.10451
3400.85855	0.10475
3399.57278	0.10448
3398.28701	0.10374
3397.00124	0.10297
3395.71547	0.10262
3394.42970	0.10276
3393.14393	0.10307
3391.85817	0.10322
3390.57240	0.10315
3389.28663	0.10304
3388.00086	0.10310
3386.71509	0.10338
3385.42932	0.10382
3384.14355	0.10427
3382.85778	0.10456
3381.57201	0.10459
3380.28625	0.10441
3379.00048	0.10420
3377.71471	0.10418
3376.42894	0.10434
3375.14317	0.10437
3373.85740	0.10401
3372.57163	0.10333
3371.28586	0.10274
3370.00010	0.10261
3368.71433	0.10301
3367.42856	0.10365
3366.14279	0.10423
3364.85702	0.10468
3363.57125	0.10513
3362.28548	0.10569
3360.99971	0.10627
3359.71394	0.10663
3358.42818	0.10667
3357.14241	0.10652
3355.85664	0.10641
3354.57087	0.10639
3353.28510	0.10628
3351.99933	0.10596
3350.71356	0.10551
3349.42779	0.10517
3348.14202	0.10506
3346.85626	0.10504
3345.57049	0.10486
3344.28472	0.10452
3342.99895	0.10433
3341.71318	0.10458
3340.42741	0.10524
3339.14164	0.10595
3337.85587	0.10631
3336.57011	0.10622
3335.28434	0.10581
3333.99857	0.10521
3332.71280	0.10447
3331.42703	0.10371
3330.14126	0.10322
3328.85549	0.10320
3327.56972	0.10357
3326.28395	0.10407
3324.99819	0.10454
3323.71242	0.10495
3322.42665	0.10526
3321.14088	0.10532
3319.85511	0.10507
3318.56934	0.10465
3317.28357	0.10433
3315.99780	0.10431
3314.71204	0.10460
3313.42627	0.10509
3312.14050	0.10559
3310.85473	0.10589
3309.56896	0.10588
3308.28319	0.10561
3306.99742	0.10529
3305.71165	0.10514
3304.42588	0.10522
3303.14012	0.10540
3301.85435	0.10562
3300.56858	0.10595
3299.28281	0.10648
3297.99704	0.10702
3296.71127	0.10713
3295.42550	0.10653
3294.13973	0.10540
3292.85397	0.10423
3291.56820	0.10342
3290.28243	0.10316
3288.99666	0.10341
3287.71089	0.10401
3286.42512	0.10467
3285.13935	0.10505
3283.85358	0.10502
3282.56781	0.10470
3281.28205	0.10434
3279.99628	0.10410
3278.71051	0.10396
3277.42474	0.10387
3276.13897	0.10382
3274.85320	0.10386
3273.56743	0.10394
3272.28166	0.10401
3270.99590	0.10402
3269.71013	0.10399
3268.42436	0.10397
3267.13859	0.10390
3265.85282	0.10369
3264.56705	0.10333
3263.28128	0.10284
3261.99551	0.10224
3260.70974	0.10161
3259.42398	0.10109
3258.13821	0.10084
3256.85244	0.10087
3255.56667	0.10101
3254.28090	0.10109
3252.99513	0.10105
3251.70936	0.10093
3250.42359	0.10070
3249.13783	0.10034
3247.85206	0.09997
3246.56629	0.09983
3245.28052	0.10000
3243.99475	0.10035
3242.70898	0.10067
3241.42321	0.10094
3240.13744	0.10115
3238.85167	0.10112
3237.56591	0.10073
3236.28014	0.10012
3234.99437	0.09976
3233.70860	0.09992
3232.42283	0.10039
3231.13706	0.10062
3229.85129	0.10032
3228.56552	0.09966
3227.27976	0.09907
3225.99399	0.09881
3224.70822	0.09884
3223.42245	0.09903
3222.13668	0.09934
3220.85091	0.09963
3219.56514	0.09962
3218.27937	0.09917
3216.99360	0.09849
3215.70784	0.09804
3214.42207	0.09807
3213.13630	0.09850
3211.85053	0.09907
3210.56476	0.09954
3209.27899	0.09965
3207.99322	0.09928
3206.70745	0.09854
3205.42169	0.09776
3204.13592	0.09722
3202.85015	0.09706
3201.56438	0.09726
3200.27861	0.09759
3198.99284	0.09777
3197.70707	0.09761
3196.42130	0.09721
3195.13553	0.09676
3193.84977	0.09630
3192.56400	0.09566
3191.27823	0.09475
3189.99246	0.09375
3188.70669	0.09299
3187.42092	0.09268
3186.13515	0.09274
3184.84938	0.09303
3183.56362	0.09346
3182.27785	0.09394
3180.99208	0.09432
3179.70631	0.09443
3178.42054	0.09421
3177.13477	0.09382
3175.84900	0.09350
3174.56323	0.09335
3173.27746	0.09332
3171.99170	0.09321
3170.70593	0.09297
3169.42016	0.09271
3168.13439	0.09255
3166.84862	0.09251
3165.56285	0.09243
3164.27708	0.09210
3162.99131	0.09149
3161.70555	0.09081
3160.41978	0.09039
3159.13401	0.09044
3157.84824	0.09085
3156.56247	0.09132
3155.27670	0.09161
3153.99093	0.09170
3152.70516	0.09170
3151.41939	0.09165
3150.13363	0.09148
3148.84786	0.09116
3147.56209	0.09085
3146.27632	0.09071
3144.99055	0.09070
3143.70478	0.09058
3142.41901	0.09024
3141.13324	0.08977
3139.84748	0.08938
3138.56171	0.08917
3137.27594	0.08913
3135.99017	0.08918
3134.70440	0.08926
3133.41863	0.08922
3132.13286	0.08898
3130.84709	0.08856
3129.56132	0.08809
3128.27556	0.08770
3126.98979	0.08741
3125.70402	0.08719
3124.41825	0.08708
3123.13248	0.08712
3121.84671	0.08724
3120.56094	0.08726
3119.27517	0.08710
3117.98940	0.08682
3116.70364	0.08653
3115.41787	0.08627
3114.13210	0.08604
3112.84633	0.08596
3111.56056	0.08613
3110.27479	0.08642
3108.98902	0.08649
3107.70325	0.08618
3106.41749	0.08571
3105.13172	0.08541
3103.84595	0.08543
3102.56018	0.08566
3101.27441	0.08589
3099.98864	0.08597
3098.70287	0.08587
3097.41710	0.08572
3096.13133	0.08572
3094.84557	0.08593
3093.55980	0.08619
3092.27403	0.08626
3090.98826	0.08611
3089.70249	0.08600
3088.41672	0.08618
3087.13095	0.08661
3085.84518	0.08695
3084.55942	0.08683
3083.27365	0.08619
3081.98788	0.08535
3080.70211	0.08473
3079.41634	0.08452
3078.13057	0.08462
3076.84480	0.08479
3075.55903	0.08479
3074.27326	0.08462
3072.98750	0.08443
3071.70173	0.08439
3070.41596	0.08455
3069.13019	0.08478
3067.84442	0.08491
3066.55865	0.08479
3065.27288	0.08438
3063.98711	0.08377
3062.70135	0.08318
3061.41558	0.08287
3060.12981	0.08292
3058.84404	0.08319
3057.55827	0.08336
3056.27250	0.08319
3054.98673	0.08277
3053.70096	0.08230
3052.41519	0.08189
3051.12943	0.08150
3049.84366	0.08111
3048.55789	0.08086
3047.27212	0.08086
3045.98635	0.08108
3044.70058	0.08131
3043.41481	0.08139
3042.12904	0.08133
3040.84328	0.08128
3039.55751	0.08136
3038.27174	0.08147
3036.98597	0.08138
3035.70020	0.08102
3034.41443	0.08055
3033.12866	0.08017
3031.84289	0.07995
3030.55712	0.07986
3029.27136	0.07980
3027.98559	0.07968
3026.69982	0.07946
3025.41405	0.07916
3024.12828	0.07896
3022.84251	0.07894
3021.55674	0.07905
3020.27097	0.07912
3018.98521	0.07899
3017.69944	0.07871
3016.41367	0.07844
3015.12790	0.07831
3013.84213	0.07833
3012.55636	0.07842
3011.27059	0.07847
3009.98482	0.07845
3008.69905	0.07832
3007.41329	0.07806
3006.12752	0.07774
3004.84175	0.07751
3003.55598	0.07747
3002.27021	0.07758
3000.98444	0.07771
2999.69867	0.07774
2998.41290	0.07758
2997.12714	0.07728
2995.84137	0.07694
2994.55560	0.07670
2993.26983	0.07665
2991.98406	0.07676
2990.69829	0.07697
2989.41252	0.07718
2988.12675	0.07730
2986.84098	0.07730
2985.55522	0.07724
2984.26945	0.07729
2982.98368	0.07755
2981.69791	0.07798
2980.41214	0.07848
2979.12637	0.07904
2977.84060	0.07966
2976.55483	0.08024
2975.26907	0.08065
2973.98330	0.08088
2972.69753	0.08115
2971.41176	0.08175
2970.12599	0.08284
2968.84022	0.08425
2967.55445	0.08557
2966.26868	0.08653
2964.98291	0.08720
2963.69715	0.08784
2962.41138	0.08858
2961.12561	0.08932
2959.83984	0.08990
2958.55407	0.09032
2957.26830	0.09085
2955.98253	0.09176
2954.69676	0.09304
2953.41100	0.09430
2952.12523	0.09512
2950.83946	0.09543
2949.55369	0.09545
2948.26792	0.09545
2946.98215	0.09546
2945.69638	0.09539
2944.41061	0.09525
2943.12484	0.09513
2941.83908	0.09512
2940.55331	0.09521
2939.26754	0.09546
2937.98177	0.09593
2936.69600	0.09659
2935.41023	0.09737
2934.12446	0.09823
2932.83869	0.09916
2931.55293	0.10006
2930.26716	0.10083
2928.98139	0.10144
2927.69562	0.10194
2926.40985	0.10239
2925.12408	0.10278
2923.83831	0.10305
2922.55254	0.10308
2921.26677	0.10279
2919.98101	0.10225
2918.69524	0.10164
2917.40947	0.10103
2916.12370	0.10044
2914.83793	0.09988
2913.55216	0.09934
2912.26639	0.09872
2910.98062	0.09790
2909.69486	0.09691
2908.40909	0.09590
2907.12332	0.09499
2905.83755	0.09420
2904.55178	0.09345
2903.26601	0.09269
2901.98024	0.09194
2900.69447	0.09131
2899.40870	0.09082
2898.12294	0.09036
2896.83717	0.08981
2895.55140	0.08911
2894.26563	0.08824
2892.97986	0.08722
2891.69409	0.08616
2890.40832	0.08532
2889.12255	0.08492
2887.83678	0.08489
2886.55102	0.08494
2885.26525	0.08483
2883.97948	0.08463
2882.69371	0.08455
2881.40794	0.08467
2880.12217	0.08484
2878.83640	0.08491
2877.55063	0.08486
2876.26487	0.08479
2874.97910	0.08481
2873.69333	0.08503
2872.40756	0.08545
2871.12179	0.08592
2869.83602	0.08627
2868.55025	0.08638
2867.26448	0.08624
2865.97871	0.08594
2864.69295	0.08565
2863.40718	0.08559
2862.12141	0.08589
2860.83564	0.08642
2859.54987	0.08691
2858.26410	0.08719
2856.97833	0.08724
2855.69256	0.08715
2854.40680	0.08692
2853.12103	0.08654
2851.83526	0.08594
2850.54949	0.08514
2849.26372	0.08424
2847.97795	0.08345
2846.69218	0.08286
2845.40641	0.08228
2844.12064	0.08152
2842.83488	0.08059
2841.54911	0.07961
2840.26334	0.07864
2838.97757	0.07761
2837.69180	0.07654
2836.40603	0.07555
2835.12026	0.07478
2833.83449	0.07424
2832.54873	0.07379
2831.26296	0.07325
2829.97719	0.07261
2828.69142	0.07197
2827.40565	0.07144
2826.11988	0.07104
2824.83411	0.07078
2823.54834	0.07060
2822.26257	0.07043
2820.97681	0.07024
2819.69104	0.07005
2818.40527	0.06986
2817.11950	0.06953
2815.83373	0.06898
2814.54796	0.06835
2813.26219	0.06787
2811.97642	0.06764
2810.69066	0.06761
2809.40489	0.06772
2808.11912	0.06792
2806.83335	0.06813
2805.54758	0.06824
2804.26181	0.06818
2802.97604	0.06799
2801.69027	0.06777
2800.40450	0.06757
2799.11874	0.06745
2797.83297	0.06738
2796.54720	0.06733
2795.26143	0.06723
2793.97566	0.06701
2792.68989	0.06663
2791.40412	0.06616
2790.11835	0.06574
2788.83259	0.06547
2787.54682	0.06532
2786.26105	0.06517
2784.97528	0.06496
2783.68951	0.06473
2782.40374	0.06453
2781.11797	0.06439
2779.83220	0.06433
2778.54643	0.06434
2777.26067	0.06437
2775.97490	0.06435
2774.68913	0.06423
2773.40336	0.06412
2772.11759	0.06414
2770.83182	0.06425
2769.54605	0.06431
2768.26028	0.06418
2766.97452	0.06388
2765.68875	0.06348
2764.40298	0.06306
2763.11721	0.06274
2761.83144	0.06257
2760.54567	0.06250
2759.25990	0.06241
2757.97413	0.06227
2756.68836	0.06215
2755.40260	0.06211
2754.11683	0.06210
2752.83106	0.06199
2751.54529	0.06177
2750.25952	0.06155
2748.97375	0.06147
2747.68798	0.06152
2746.40221	0.06161
2745.11645	0.06167
2743.83068	0.06174
2742.54491	0.06188
2741.25914	0.06208
2739.97337	0.06222
2738.68760	0.06223
2737.40183	0.06210
2736.11606	0.06187
2734.83029	0.06163
2733.54453	0.06147
2732.25876	0.06143
2730.97299	0.06145
2729.68722	0.06143
2728.40145	0.06126
2727.11568	0.06098
2725.82991	0.06075
2724.54414	0.06071
2723.25838	0.06078
2721.97261	0.06076
2720.68684	0.06050
2719.40107	0.06005
2718.11530	0.05962
2716.82953	0.05942
2715.54376	0.05945
2714.25799	0.05954
2712.97222	0.05950
2711.68646	0.05929
2710.40069	0.05902
2709.11492	0.05890
2707.82915	0.05899
2706.54338	0.05916
2705.25761	0.05923
2703.97184	0.05912
2702.68607	0.05893
2701.40031	0.05878
2700.11454	0.05865
2698.82877	0.05845
2697.54300	0.05814
2696.25723	0.05782
2694.97146	0.05762
2693.68569	0.05763
2692.39992	0.05774
2691.11415	0.05781
2689.82839	0.05776
2688.54262	0.05764
2687.25685	0.05749
2685.97108	0.05733
2684.68531	0.05719
2683.39954	0.05713
2682.11377	0.05714
2680.82800	0.05713
2679.54224	0.05708
2678.25647	0.05701
2676.97070	0.05694
2675.68493	0.05692
2674.39916	0.05701
2673.11339	0.05720
2671.82762	0.05738
2670.54185	0.05743
2669.25608	0.05739
2667.97032	0.05735
2666.68455	0.05732
2665.39878	0.05727
2664.11301	0.05716
2662.82724	0.05700
2661.54147	0.05681
2660.25570	0.05663
2658.96993	0.05647
2657.68417	0.05632
2656.39840	0.05619
2655.11263	0.05611
2653.82686	0.05609
2652.54109	0.05612
2651.25532	0.05617
2649.96955	0.05620
2648.68378	0.05618
2647.39801	0.05604
2646.11225	0.05571
2644.82648	0.05516
2643.54071	0.05455
2642.25494	0.05409
2640.96917	0.05390
2639.68340	0.05388
2638.39763	0.05380
2637.11186	0.05355
2635.82609	0.05322
2634.54033	0.05296
2633.25456	0.05285
2631.96879	0.05286
2630.68302	0.05289
2629.39725	0.05279
2628.11148	0.05248
2626.82571	0.05201
2625.53994	0.05150
2624.25418	0.05100
2622.96841	0.05054
2621.68264	0.05016
2620.39687	0.04996
2619.11110	0.04993
2617.82533	0.04996
2616.53956	0.04999
2615.25379	0.04993
2613.96802	0.04974
2612.68226	0.04946
2611.39649	0.04925
2610.11072	0.04916
2608.82495	0.04910
2607.53918	0.04896
2606.25341	0.04880
2604.96764	0.04879
2603.68187	0.04896
2602.39611	0.04915
2601.11034	0.04920
2599.82457	0.04910
2598.53880	0.04897
2597.25303	0.04892
2595.96726	0.04891
2594.68149	0.04881
2593.39572	0.04855
2592.10995	0.04820
2590.82419	0.04793
2589.53842	0.04783
2588.25265	0.04782
2586.96688	0.04772
2585.68111	0.04746
2584.39534	0.04719
2583.10957	0.04699
2581.82380	0.04675
2580.53804	0.04634
2579.25227	0.04585
2577.96650	0.04561
2576.68073	0.04580
2575.39496	0.04626
2574.10919	0.04670
2572.82342	0.04684
2571.53765	0.04664
2570.25188	0.04624
2568.96612	0.04587
2567.68035	0.04576
2566.39458	0.04599
2565.10881	0.04642
2563.82304	0.04681
2562.53727	0.04691
2561.25150	0.04672
2559.96573	0.04637
2558.67997	0.04594
2557.39420	0.04552
2556.10843	0.04524
2554.82266	0.04524
2553.53689	0.04541
2552.25112	0.04551
2550.96535	0.04541
2549.67958	0.04525
2548.39381	0.04513
2547.10805	0.04497
2545.82228	0.04469
2544.53651	0.04444
2543.25074	0.04440
2541.96497	0.04453
2540.67920	0.04461
2539.39343	0.04450
2538.10766	0.04426
2536.82190	0.04404
2535.53613	0.04389
2534.25036	0.04381
2532.96459	0.04377
2531.67882	0.04381
2530.39305	0.04393
2529.10728	0.04406
2527.82151	0.04409
2526.53574	0.04394
2525.24998	0.04368
2523.96421	0.04339
2522.67844	0.04311
2521.39267	0.04284
2520.10690	0.04266
2518.82113	0.04263
2517.53536	0.04265
2516.24959	0.04253
2514.96383	0.04227
2513.67806	0.04209
2512.39229	0.04214
2511.10652	0.04227
2509.82075	0.04226
2508.53498	0.04215
2507.24921	0.04214
2505.96344	0.04232
2504.67767	0.04263
2503.39191	0.04297
2502.10614	0.04321
2500.82037	0.04321
2499.53460	0.04292
2498.24883	0.04256
2496.96306	0.04242
2495.67729	0.04249
2494.39152	0.04247
2493.10576	0.04213
2491.81999	0.04163
2490.53422	0.04133
2489.24845	0.04146
2487.96268	0.04190
2486.67691	0.04239
2485.39114	0.04271
2484.10537	0.04288
2482.81960	0.04299
2481.53384	0.04310
2480.24807	0.04311
2478.96230	0.04291
2477.67653	0.04253
2476.39076	0.04217
2475.10499	0.04199
2473.81922	0.04202
2472.53345	0.04220
2471.24769	0.04246
2469.96192	0.04268
2468.67615	0.04278
2467.39038	0.04281
2466.10461	0.04281
2464.81884	0.04271
2463.53307	0.04242
2462.24730	0.04201
2460.96153	0.04169
2459.67577	0.04159
2458.39000	0.04170
2457.10423	0.04188
2455.81846	0.04193
2454.53269	0.04174
2453.24692	0.04135
2451.96115	0.04089
2450.67538	0.04048
2449.38962	0.04015
2448.10385	0.04001
2446.81808	0.04016
2445.53231	0.04049
2444.24654	0.04066
2442.96077	0.04042
2441.67500	0.03989
2440.38923	0.03950
2439.10346	0.03951
2437.81770	0.03983
2436.53193	0.04016
2435.24616	0.04032
2433.96039	0.04030
2432.67462	0.04011
2431.38885	0.03978
2430.10308	0.03939
2428.81731	0.03903
2427.53155	0.03875
2426.24578	0.03858
2424.96001	0.03852
2423.67424	0.03858
2422.38847	0.03883
2421.10270	0.03925
2419.81693	0.03964
2418.53116	0.03973
2417.24539	0.03949
2415.95963	0.03916
2414.67386	0.03898
2413.38809	0.03890
2412.10232	0.03875
2410.81655	0.03853
2409.53078	0.03836
2408.24501	0.03841
2406.95924	0.03867
2405.67347	0.03895
2404.38771	0.03908
2403.10194	0.03907
2401.81617	0.03904
2400.53040	0.03904
2399.24463	0.03903
2397.95886	0.03898
2396.67309	0.03893
2395.38732	0.03896
2394.10156	0.03909
2392.81579	0.03924
2391.53002	0.03931
2390.24425	0.03925
2388.95848	0.03913
2387.67271	0.03912
2386.38694	0.03933
2385.10117	0.03971
2383.81540	0.04004
2382.52964	0.04010
2381.24387	0.03986
2379.95810	0.03947
2378.67233	0.03913
2377.38656	0.03896
2376.10079	0.03900
2374.81502	0.03922
2373.52925	0.03954
2372.24349	0.03987
2370.95772	0.04008
2369.67195	0.04015
2368.38618	0.04010
2367.10041	0.04002
2365.81464	0.03996
2364.52887	0.03992
2363.24310	0.03988
2361.95733	0.03981
2360.67157	0.03970
2359.38580	0.03959
2358.10003	0.03952
2356.81426	0.03952
2355.52849	0.03954
2354.24272	0.03947
2352.95695	0.03930
2351.67118	0.03914
2350.38542	0.03911
2349.09965	0.03924
2347.81388	0.03950
2346.52811	0.03981
2345.24234	0.04005
2343.95657	0.04008
2342.67080	0.03986
2341.38503	0.03948
2340.09926	0.03917
2338.81350	0.03913
2337.52773	0.03938
2336.24196	0.03974
2334.95619	0.03995
2333.67042	0.03989
2332.38465	0.03962
2331.09888	0.03929
2329.81311	0.03905
2328.52735	0.03904
2327.24158	0.03930
2325.95581	0.03971
2324.67004	0.03999
2323.38427	0.03995
2322.09850	0.03962
2320.81273	0.03918
2319.52696	0.03880
2318.24119	0.03851
2316.95543	0.03831
2315.66966	0.03824
2314.38389	0.03832
2313.09812	0.03846
2311.81235	0.03855
2310.52658	0.03858
2309.24081	0.03857
2307.95504	0.03851
2306.66928	0.03831
2305.38351	0.03796
2304.09774	0.03749
2302.81197	0.03703
2301.52620	0.03669
2300.24043	0.03658
2298.95466	0.03665
2297.66889	0.03665
2296.38312	0.03639
2295.09736	0.03591
2293.81159	0.03553
2292.52582	0.03544
2291.24005	0.03555
2289.95428	0.03558
2288.66851	0.03534
2287.38274	0.03492
2286.09697	0.03456
2284.81121	0.03447
2283.52544	0.03465
2282.23967	0.03491
2280.95390	0.03503
2279.66813	0.03492
2278.38236	0.03466
2277.09659	0.03432
2275.81082	0.03387
2274.52505	0.03326
2273.23929	0.03250
2271.95352	0.03175
2270.66775	0.03119
2269.38198	0.03103
2268.09621	0.03137
2266.81044	0.03204
2265.52467	0.03262
2264.23890	0.03272
2262.95314	0.03228
2261.66737	0.03161
2260.38160	0.03101
2259.09583	0.03055
2257.81006	0.03021
2256.52429	0.03002
2255.23852	0.03000
2253.95275	0.03000
2252.66698	0.02980
2251.38122	0.02944
2250.09545	0.02917
2248.80968	0.02916
2247.52391	0.02924
2246.23814	0.02916
2244.95237	0.02901
2243.66660	0.02899
2242.38083	0.02913
2241.09507	0.02927
2239.80930	0.02941
2238.52353	0.02966
2237.23776	0.02992
2235.95199	0.02986
2234.66622	0.02930
2233.38045	0.02847
2232.09468	0.02778
2230.80891	0.02752
2229.52315	0.02762
2228.23738	0.02776
2226.95161	0.02756
2225.66584	0.02687
2224.38007	0.02590
2223.09430	0.02513
2221.80853	0.02487
2220.52276	0.02498
2219.23700	0.02512
2217.95123	0.02519
2216.66546	0.02534
2215.37969	0.02556
2214.09392	0.02546
2212.80815	0.02485
2211.52238	0.02411
2210.23661	0.02382
2208.95084	0.02398
2207.66508	0.02409
2206.37931	0.02391
2205.09354	0.02376
2203.80777	0.02405
2202.52200	0.02463
2201.23623	0.02488
2199.95046	0.02451
2198.66469	0.02384
2197.37893	0.02342
2196.09316	0.02335
2194.80739	0.02338
2193.52162	0.02350
2192.23585	0.02384
2190.95008	0.02426
2189.66431	0.02434
2188.37854	0.02397
2187.09277	0.02346
2185.80701	0.02310
2184.52124	0.02279
2183.23547	0.02236
2181.94970	0.02182
2180.66393	0.02128
2179.37816	0.02083
2178.09239	0.02053
2176.80662	0.02042
2175.52085	0.02045
2174.23509	0.02061
2172.94932	0.02100
2171.66355	0.02156
2170.37778	0.02190
2169.09201	0.02155
2167.80624	0.02049
2166.52047	0.01920
2165.23470	0.01835
2163.94894	0.01825
2162.66317	0.01863
2161.37740	0.01877
2160.09163	0.01809
2158.80586	0.01687
2157.52009	0.01591
2156.23432	0.01568
2154.94855	0.01589
2153.66278	0.01600
2152.37702	0.01562
2151.09125	0.01479
2149.80548	0.01406
2148.51971	0.01412
2147.23394	0.01524
2145.94817	0.01696
2144.66240	0.01861
2143.37663	0.01983
2142.09087	0.02067
2140.80510	0.02137
2139.51933	0.02216
2138.23356	0.02303
2136.94779	0.02374
2135.66202	0.02413
2134.37625	0.02428
2133.09048	0.02435
2131.80471	0.02438
2130.51895	0.02424
2129.23318	0.02385
2127.94741	0.02332
2126.66164	0.02298
2125.37587	0.02309
2124.09010	0.02361
2122.80433	0.02413
2121.51856	0.02426
2120.23280	0.02383
2118.94703	0.02304
2117.66126	0.02243
2116.37549	0.02245
2115.08972	0.02294
2113.80395	0.02323
2112.51818	0.02288
2111.23241	0.02223
2109.94664	0.02195
2108.66088	0.02220
2107.37511	0.02252
2106.08934	0.02246
2104.80357	0.02205
2103.51780	0.02174
2102.23203	0.02182
2100.94626	0.02209
2099.66049	0.02167
2098.37473	0.02120
2097.08896	0.02098
2095.80319	0.02118
2094.51742	0.02180
2093.23165	0.02254
2091.94588	0.02317
2090.66011	0.02361
2089.37434	0.02389
2088.08857	0.02394
2086.80281	0.02367
2085.51704	0.02305
2084.23127	0.02235
2082.94550	0.02192
2081.65973	0.02190
2080.37396	0.02203
2079.08819	0.02193
2077.80242	0.02153
2076.51666	0.02109
2075.23089	0.02085
2073.94512	0.02067
2072.65935	0.02018
2071.37358	0.01925
2070.08781	0.01825
2068.80204	0.01767
2067.51627	0.01766
2066.23050	0.01798
2064.94474	0.01840
2063.65897	0.01887
2062.37320	0.01935
2061.08743	0.01961
2059.80166	0.01938
2058.51589	0.01860
2057.23012	0.01760
2055.94435	0.01688
2054.65859	0.01680
2053.37282	0.01735
2052.08705	0.01814
2050.80128	0.01855
2049.51551	0.01806
2048.22974	0.01663
2046.94397	0.01474
2045.65820	0.01310
2044.37243	0.01216
2043.08667	0.01198
2041.80090	0.01236
2040.51513	0.01293
2039.22936	0.01326
2037.94359	0.01313
2036.65782	0.01274
2035.37205	0.01249
2034.08628	0.01253
2032.80052	0.01254
2031.51475	0.01221
2030.22898	0.01166
2028.94321	0.01126
2027.65744	0.01107
2026.37167	0.01078
2025.08590	0.01022
2023.80013	0.00969
2022.51436	0.00962
2021.22860	0.01002
2019.94283	0.01058
2018.65706	0.01102
2017.37129	0.01130
2016.08552	0.01150
2014.79975	0.01169
2013.51398	0.01188
2012.22821	0.01191
2010.94245	0.01163
2009.65668	0.01123
2008.37091	0.01125
2007.08514	0.01195
2005.79937	0.01292
2004.51360	0.01354
2003.22783	0.01365
2001.94206	0.01365
2000.65629	0.01400
1999.37053	0.01472
1998.08476	0.01547
1996.79899	0.01589
1995.51322	0.01591
1994.22745	0.01565
1992.94168	0.01521
1991.65591	0.01473
1990.37014	0.01446
1989.08438	0.01462
1987.79861	0.01507
1986.51284	0.01544
1985.22707	0.01552
1983.94130	0.01538
1982.65553	0.01504
1981.36976	0.01437
1980.08399	0.01343
1978.79822	0.01260
1977.51246	0.01219
1976.22669	0.01220
1974.94092	0.01235
1973.65515	0.01251
1972.36938	0.01283
1971.08361	0.01345
1969.79784	0.01431
1968.51207	0.01516
1967.22631	0.01571
1965.94054	0.01584
1964.65477	0.01566
1963.36900	0.01531
1962.08323	0.01485
1960.79746	0.01438
1959.51169	0.01411
1958.22592	0.01426
1956.94015	0.01489
1955.65439	0.01582
1954.36862	0.01676
1953.08285	0.01744
1951.79708	0.01768
1950.51131	0.01757
1949.22554	0.01745
1947.93977	0.01769
1946.65400	0.01826
1945.36823	0.01893
1944.08247	0.01952
1942.79670	0.02006
1941.51093	0.02056
1940.22516	0.02091
1938.93939	0.02103
1937.65362	0.02092
1936.36785	0.02072
1935.08208	0.02056
1933.79632	0.02054
1932.51055	0.02069
1931.22478	0.02098
1929.93901	0.02123
1928.65324	0.02123
1927.36747	0.02080
1926.08170	0.02008
1924.79593	0.01948
1923.51016	0.01932
1922.22440	0.01962
1920.93863	0.02014
1919.65286	0.02057
1918.36709	0.02066
1917.08132	0.02038
1915.79555	0.01999
1914.50978	0.01976
1913.22401	0.01982
1911.93825	0.02006
1910.65248	0.02033
1909.36671	0.02051
1908.08094	0.02058
1906.79517	0.02060
1905.50940	0.02065
1904.22363	0.02075
1902.93786	0.02088
1901.65209	0.02097
1900.36633	0.02094
1899.08056	0.02078
1897.79479	0.02062
1896.50902	0.02064
1895.22325	0.02090
1893.93748	0.02125
1892.65171	0.02146
1891.36594	0.02144
1890.08018	0.02130
1888.79441	0.02126
1887.50864	0.02138
1886.22287	0.02153
1884.93710	0.02152
1883.65133	0.02132
1882.36556	0.02112
1881.07979	0.02110
1879.79402	0.02136
1878.50826	0.02181
1877.22249	0.02228
1875.93672	0.02254
1874.65095	0.02247
1873.36518	0.02216
1872.07941	0.02185
1870.79364	0.02173
1869.50787	0.02173
1868.22211	0.02170
1866.93634	0.02156
1865.65057	0.02141
1864.36480	0.02132
1863.07903	0.02129
1861.79326	0.02134
1860.50749	0.02148
1859.22172	0.02169
1857.93595	0.02186
1856.65019	0.02190
1855.36442	0.02178
1854.07865	0.02157
1852.79288	0.02140
1851.50711	0.02134
1850.22134	0.02133
1848.93557	0.02128
1847.64980	0.02114
1846.36404	0.02104
1845.07827	0.02109
1843.79250	0.02125
1842.50673	0.02144
1841.22096	0.02160
1839.93519	0.02172
1838.64942	0.02173
1837.36365	0.02161
1836.07788	0.02138
1834.79212	0.02110
1833.50635	0.02089
1832.22058	0.02086
1830.93481	0.02100
1829.64904	0.02116
1828.36327	0.02124
1827.07750	0.02124
1825.79173	0.02123
1824.50597	0.02121
1823.22020	0.02124
1821.93443	0.02134
1820.64866	0.02146
1819.36289	0.02153
1818.07712	0.02157
1816.79135	0.02164
1815.50558	0.02176
1814.21981	0.02189
1812.93405	0.02200
1811.64828	0.02208
1810.36251	0.02211
1809.07674	0.02209
1807.79097	0.02206
1806.50520	0.02207
1805.21943	0.02213
1803.93366	0.02219
1802.64790	0.02221
1801.36213	0.02217
1800.07636	0.02210
1798.79059	0.02208
1797.50482	0.02214
1796.21905	0.02220
1794.93328	0.02219
1793.64751	0.02210
1792.36174	0.02196
1791.07598	0.02179
1789.79021	0.02171
1788.50444	0.02175
1787.21867	0.02186
1785.93290	0.02193
1784.64713	0.02189
1783.36136	0.02178
1782.07559	0.02172
1780.78983	0.02179
1779.50406	0.02193
1778.21829	0.02200
1776.93252	0.02192
1775.64675	0.02175
1774.36098	0.02171
1773.07521	0.02185
1771.78944	0.02204
1770.50367	0.02222
1769.21791	0.02239
1767.93214	0.02244
1766.64637	0.02233
1765.36060	0.02218
1764.07483	0.02214
1762.78906	0.02217
1761.50329	0.02210
1760.21752	0.02198
1758.93176	0.02196
1757.64599	0.02212
1756.36022	0.02228
1755.07445	0.02234
1753.78868	0.02234
1752.50291	0.02238
1751.21714	0.02242
1749.93137	0.02244
1748.64560	0.02252
1747.35984	0.02267
1746.07407	0.02280
1744.78830	0.02284
1743.50253	0.02284
1742.21676	0.02290
1740.93099	0.02305
1739.64522	0.02315
1738.35945	0.02309
1737.07369	0.02305
1735.78792	0.02323
1734.50215	0.02346
1733.21638	0.02342
1731.93061	0.02318
1730.64484	0.02304
1729.35907	0.02310
1728.07330	0.02321
1726.78753	0.02331
1725.50177	0.02344
1724.21600	0.02360
1722.93023	0.02372
1721.64446	0.02380
1720.35869	0.02398
1719.07292	0.02431
1717.78715	0.02465
1716.50138	0.02487
1715.21561	0.02506
1713.92985	0.02537
1712.64408	0.02576
1711.35831	0.02616
1710.07254	0.02653
1708.78677	0.02691
1707.50100	0.02734
1706.21523	0.02777
1704.92946	0.02810
1703.64370	0.02847
1702.35793	0.02915
1701.07216	0.03004
1699.78639	0.03075
1698.50062	0.03135
1697.21485	0.03220
1695.92908	0.03319
1694.64331	0.03393
1693.35754	0.03449
1692.07178	0.03522
1690.78601	0.03613
1689.50024	0.03700
1688.21447	0.03779
1686.92870	0.03870
1685.64293	0.03974
1684.35716	0.04065
1683.07139	0.04128
1681.78563	0.04189
1680.49986	0.04266
1679.21409	0.04348
1677.92832	0.04430
1676.64255	0.04522
1675.35678	0.04616
1674.07101	0.04699
1672.78524	0.04776
1671.49947	0.04864
1670.21371	0.04960
1668.92794	0.05048
1667.64217	0.05124
1666.35640	0.05195
1665.07063	0.05273
1663.78486	0.05355
1662.49909	0.05432
1661.21332	0.05503
1659.92756	0.05567
1658.64179	0.05616
1657.35602	0.05645
1656.07025	0.05673
1654.78448	0.05729
1653.49871	0.05793
1652.21294	0.05826
1650.92717	0.05831
1649.64140	0.05851
1648.35564	0.05902
1647.06987	0.05955
1645.78410	0.05984
1644.49833	0.05988
1643.21256	0.05981
1641.92679	0.05965
1640.64102	0.05935
1639.35525	0.05895
1638.06949	0.05860
1636.78372	0.05834
1635.49795	0.05794
1634.21218	0.05733
1632.92641	0.05667
1631.64064	0.05617
1630.35487	0.05574
1629.06910	0.05520
1627.78333	0.05446
1626.49757	0.05363
1625.21180	0.05288
1623.92603	0.05223
1622.64026	0.05156
1621.35449	0.05078
1620.06872	0.05005
1618.78295	0.04952
1617.49718	0.04911
1616.21142	0.04859
1614.92565	0.04793
1613.63988	0.04731
1612.35411	0.04688
1611.06834	0.04655
1609.78257	0.04625
1608.49680	0.04598
1607.21103	0.04571
1605.92526	0.04547
1604.63950	0.04527
1603.35373	0.04515
1602.06796	0.04507
1600.78219	0.04502
1599.49642	0.04499
1598.21065	0.04502
1596.92488	0.04512
1595.63911	0.04526
1594.35335	0.04543
1593.06758	0.04559
1591.78181	0.04577
1590.49604	0.04598
1589.21027	0.04624
1587.92450	0.04654
1586.63873	0.04688
1585.35296	0.04727
1584.06719	0.04771
1582.78143	0.04821
1581.49566	0.04874
1580.20989	0.04928
1578.92412	0.04990
1577.63835	0.05067
1576.35258	0.05145
1575.06681	0.05202
1573.78104	0.05249
1572.49528	0.05310
1571.20951	0.05384
1569.92374	0.05455
1568.63797	0.05512
1567.35220	0.05567
1566.06643	0.05630
1564.78066	0.05688
1563.49489	0.05733
1562.20912	0.05781
1560.92336	0.05847
1559.63759	0.05917
1558.35182	0.05961
1557.06605	0.05986
1555.78028	0.06021
1554.49451	0.06069
1553.20874	0.06112
1551.92297	0.06147
1550.63721	0.06179
1549.35144	0.06203
1548.06567	0.06216
1546.77990	0.06218
1545.49413	0.06211
1544.20836	0.06193
1542.92259	0.06175
1541.63682	0.06168
1540.35105	0.06166
1539.06529	0.06145
1537.77952	0.06106
1536.49375	0.06077
1535.20798	0.06077
1533.92221	0.06090
1532.63644	0.06093
1531.35067	0.06088
1530.06490	0.06089
1528.77914	0.06099
1527.49337	0.06114
1526.20760	0.06128
1524.92183	0.06144
1523.63606	0.06178
1522.35029	0.06232
1521.06452	0.06289
1519.77875	0.06340
1518.49298	0.06397
1517.20722	0.06469
1515.92145	0.06544
1514.63568	0.06616
1513.34991	0.06691
1512.06414	0.06766
1510.77837	0.06842
1509.49260	0.06934
1508.20683	0.07050
1506.92107	0.07169
1505.63530	0.07264
1504.34953	0.07336
1503.06376	0.07411
1501.77799	0.07496
1500.49222	0.07578
1499.20645	0.07648
1497.92068	0.07712
1496.63491	0.07769
1495.34915	0.07817
1494.06338	0.07861
1492.77761	0.07916
1491.49184	0.07982
1490.20607	0.08049
1488.92030	0.08115
1487.63453	0.08188
1486.34876	0.08272
1485.06299	0.08365
1483.77723	0.08463
1482.49146	0.08565
1481.20569	0.08671
1479.91992	0.08781
1478.63415	0.08895
1477.34838	0.09007
1476.06261	0.09113
1474.77684	0.09216
1473.49108	0.09320
1472.20531	0.09418
1470.91954	0.09505
1469.63377	0.09587
1468.34800	0.09669
1467.06223	0.09748
1465.77646	0.09820
1464.49069	0.09879
1463.20492	0.09929
1461.91916	0.09981
1460.63339	0.10047
1459.34762	0.10135
1458.06185	0.10235
1456.77608	0.10319
1455.49031	0.10372
1454.20454	0.10414
1452.91877	0.10463
1451.63301	0.10518
1450.34724	0.10569
1449.06147	0.10611
1447.77570	0.10638
1446.48993	0.10646
1445.20416	0.10641
1443.91839	0.10629
1442.63262	0.10606
1441.34685	0.10569
1440.06109	0.10529
1438.77532	0.10500
1437.48955	0.10487
1436.20378	0.10475
1434.91801	0.10460
1433.63224	0.10458
1432.34647	0.10482
1431.06070	0.10533
1429.77494	0.10607
1428.48917	0.10703
1427.20340	0.10819
1425.91763	0.10949
1424.63186	0.11080
1423.34609	0.11205
1422.06032	0.11331
1420.77455	0.11465
1419.48878	0.11593
1418.20302	0.11698
1416.91725	0.11781
1415.63148	0.11857
1414.34571	0.11929
1413.05994	0.11987
1411.77417	0.12023
1410.48840	0.12035
1409.20263	0.12023
1407.91687	0.11991
1406.63110	0.11940
1405.34533	0.11865
1404.05956	0.11762
1402.77379	0.11634
1401.48802	0.11488
1400.20225	0.11327
1398.91648	0.11151
1397.63071	0.10963
1396.34495	0.10773
1395.05918	0.10583
1393.77341	0.10386
1392.48764	0.10182
1391.20187	0.09977
1389.91610	0.09777
1388.63033	0.09586
1387.34456	0.09400
1386.05880	0.09214
1384.77303	0.09028
1383.48726	0.08841
1382.20149	0.08655
1380.91572	0.08469
1379.62995	0.08282
1378.34418	0.08092
1377.05841	0.07896
1375.77264	0.07694
1374.48688	0.07484
1373.20111	0.07264
1371.91534	0.07042
1370.62957	0.06826
1369.34380	0.06623
1368.05803	0.06432
1366.77226	0.06251
1365.48649	0.06079
1364.20073	0.05914
1362.91496	0.05755
1361.62919	0.05604
1360.34342	0.05463
1359.05765	0.05337
1357.77188	0.05223
1356.48611	0.05119
1355.20034	0.05021
1353.91457	0.04930
1352.62881	0.04843
1351.34304	0.04764
1350.05727	0.04693
1348.77150	0.04634
1347.48573	0.04582
1346.19996	0.04534
1344.91419	0.04483
1343.62842	0.04432
1342.34266	0.04382
1341.05689	0.04336
1339.77112	0.04290
1338.48535	0.04242
1337.19958	0.04193
1335.91381	0.04146
1334.62804	0.04103
1333.34227	0.04063
1332.05650	0.04025
1330.77074	0.03986
1329.48497	0.03944
1328.19920	0.03898
1326.91343	0.03851
1325.62766	0.03807
1324.34189	0.03770
1323.05612	0.03740
1321.77035	0.03715
1320.48459	0.03688
1319.19882	0.03657
1317.91305	0.03624
1316.62728	0.03592
1315.34151	0.03568
1314.05574	0.03548
1312.76997	0.03531
1311.48420	0.03510
1310.19843	0.03484
1308.91267	0.03452
1307.62690	0.03413
1306.34113	0.03370
1305.05536	0.03331
1303.76959	0.03298
1302.48382	0.03273
1301.19805	0.03255
1299.91228	0.03237
1298.62652	0.03217
1297.34075	0.03194
1296.05498	0.03170
1294.76921	0.03147
1293.48344	0.03129
1292.19767	0.03116
1290.91190	0.03105
1289.62613	0.03094
1288.34036	0.03077
1287.05460	0.03056
1285.76883	0.03035
1284.48306	0.03022
1283.19729	0.03014
1281.91152	0.03007
1280.62575	0.02994
1279.33998	0.02975
1278.05421	0.02956
1276.76845	0.02942
1275.48268	0.02935
1274.19691	0.02929
1272.91114	0.02920
1271.62537	0.02908
1270.33960	0.02897
1269.05383	0.02888
1267.76806	0.02881
1266.48229	0.02874
1265.19653	0.02864
1263.91076	0.02854
1262.62499	0.02847
1261.33922	0.02844
1260.05345	0.02841
1258.76768	0.02833
1257.48191	0.02822
1256.19614	0.02812
1254.91037	0.02807
1253.62461	0.02807
1252.33884	0.02807
1251.05307	0.02806
1249.76730	0.02799
1248.48153	0.02787
1247.19576	0.02770
1245.90999	0.02755
1244.62422	0.02746
1243.33846	0.02744
1242.05269	0.02745
1240.76692	0.02742
1239.48115	0.02733
1238.19538	0.02717
1236.90961	0.02698
1235.62384	0.02678
1234.33807	0.02659
1233.05230	0.02642
1231.76654	0.02626
1230.48077	0.02608
1229.19500	0.02586
1227.90923	0.02562
1226.62346	0.02537
1225.33769	0.02512
1224.05192	0.02486
1222.76615	0.02462
1221.48039	0.02439
1220.19462	0.02421
1218.90885	0.02404
1217.62308	0.02387
1216.33731	0.02367
1215.05154	0.02345
1213.76577	0.02323
1212.48000	0.02303
1211.19423	0.02288
1209.90847	0.02278
1208.62270	0.02272
1207.33693	0.02266
1206.05116	0.02259
1204.76539	0.02252
1203.47962	0.02247
1202.19385	0.02244
1200.90808	0.02243
1199.62232	0.02242
1198.33655	0.02227
1197.05078	0.02205
1195.76501	0.02178
1194.47924	0.02149
1193.19347	0.02123
1191.90770	0.02102
1190.62193	0.02089
1189.33616	0.02081
1188.05040	0.02076
1186.76463	0.02073
1185.47886	0.02067
1184.19309	0.02054
1182.90732	0.02035
1181.62155	0.02017
1180.33578	0.02008
1179.05001	0.02008
1177.76425	0.02010
1176.47848	0.02006
1175.19271	0.01998
1173.90694	0.01994
1172.62117	0.01996
1171.33540	0.02006
1170.04963	0.02017
1168.76386	0.02028
1167.47809	0.02041
1166.19233	0.02055
1164.90656	0.02065
1163.62079	0.02068
1162.33502	0.02069
1161.04925	0.02073
1159.76348	0.02082
1158.47771	0.02091
1157.19194	0.02100
1155.90618	0.02111
1154.62041	0.02127
1153.33464	0.02146
1152.04887	0.02166
1150.76310	0.02186
1149.47733	0.02206
1148.19156	0.02231
1146.90579	0.02267
1145.62002	0.02312
1144.33426	0.02364
1143.04849	0.02420
1141.76272	0.02482
1140.47695	0.02549
1139.19118	0.02623
1137.90541	0.02708
1136.61964	0.02811
1135.33387	0.02933
1134.04811	0.03072
1132.76234	0.03229
1131.47657	0.03404
1130.19080	0.03598
1128.90503	0.03808
1127.61926	0.04038
1126.33349	0.04293
1125.04772	0.04573
1123.76195	0.04866
1122.47619	0.05165
1121.19042	0.05468
1119.90465	0.05783
1118.61888	0.06114
1117.33311	0.06459
1116.04734	0.06810
1114.76157	0.07153
1113.47580	0.07479
1112.19004	0.07787
1110.90427	0.08089
1109.61850	0.08392
1108.33273	0.08695
1107.04696	0.08992
1105.76119	0.09280
1104.47542	0.09560
1103.18965	0.09830
1101.90388	0.10091
1100.61812	0.10339
1099.33235	0.10572
1098.04658	0.10792
1096.76081	0.11002
1095.47504	0.11203
1094.18927	0.11394
1092.90350	0.11571
1091.61773	0.11735
1090.33197	0.11893
1089.04620	0.12054
1087.76043	0.12217
1086.47466	0.12380
1085.18889	0.12537
1083.90312	0.12689
1082.61735	0.12845
1081.33158	0.13015
1080.04581	0.13204
1078.76005	0.13409
1077.47428	0.13627
1076.18851	0.13856
1074.90274	0.14099
1073.61697	0.14357
1072.33120	0.14629
1071.04543	0.14915
1069.75966	0.15212
1068.47390	0.15516
1067.18813	0.15824
1065.90236	0.16136
1064.61659	0.16455
1063.33082	0.16780
1062.04505	0.17109
1060.75928	0.17438
1059.47351	0.17763
1058.18774	0.18084
1056.90198	0.18398
1055.61621	0.18709
1054.33044	0.19023
1053.04467	0.19343
1051.75890	0.19667
1050.47313	0.19995
1049.18736	0.20326
1047.90159	0.20660
1046.61583	0.20996
1045.33006	0.21330
1044.04429	0.21664
1042.75852	0.22004
1041.47275	0.22358
1040.18698	0.22727
1038.90121	0.23109
1037.61544	0.23491
1036.32967	0.23868
1035.04391	0.24237
1033.75814	0.24595
1032.47237	0.24939
1031.18660	0.25262
1029.90083	0.25561
1028.61506	0.25831
1027.32929	0.26069
1026.04352	0.26271
1024.75775	0.26438
1023.47199	0.26576
1022.18622	0.26686
1020.90045	0.26760
1019.61468	0.26786
1018.32891	0.26760
1017.04314	0.26686
1015.75737	0.26573
1014.47160	0.26425
1013.18584	0.26237
1011.90007	0.26006
1010.61430	0.25729
1009.32853	0.25408
1008.04276	0.25043
1006.75699	0.24640
1005.47122	0.24204
1004.18545	0.23737
1002.89968	0.23236
1001.61392	0.22695
1000.32815	0.22115
999.04238	0.21510
997.75661	0.20894
996.47084	0.20276
995.18507	0.19658
993.89930	0.19043
992.61353	0.18434
991.32777	0.17830
990.04200	0.17233
988.75623	0.16646
987.47046	0.16072
986.18469	0.15515
984.89892	0.14977
983.61315	0.14461
982.32738	0.13974
981.04161	0.13520
979.75585	0.13101
978.47008	0.12713
977.18431	0.12349
975.89854	0.12008
974.61277	0.11694
973.32700	0.11416
972.04123	0.11183
970.75546	0.11000
969.46970	0.10873
968.18393	0.10811
966.89816	0.10820
965.61239	0.10892
964.32662	0.11005
963.04085	0.11120
961.75508	0.11203
960.46931	0.11232
959.18354	0.11198
957.89778	0.11100
956.61201	0.10943
955.32624	0.10740
954.04047	0.10512
952.75470	0.10272
951.46893	0.10026
950.18316	0.09778
948.89739	0.09533
947.61163	0.09299
946.32586	0.09078
945.04009	0.08863
943.75432	0.08650
942.46855	0.08441
941.18278	0.08245
939.89701	0.08063
938.61124	0.07886
937.32547	0.07707
936.03971	0.07529
934.75394	0.07359
933.46817	0.07203
932.18240	0.07060
930.89663	0.06925
929.61086	0.06799
928.32509	0.06686
927.03932	0.06588
925.75356	0.06505
924.46779	0.06425
923.18202	0.06341
921.89625	0.06252
920.61048	0.06164
919.32471	0.06078
918.03894	0.05994
916.75317	0.05913
915.46740	0.05841
914.18164	0.05780
912.89587	0.05725
911.61010	0.05669
910.32433	0.05609
909.03856	0.05545
907.75279	0.05479
906.46702	0.05415
905.18125	0.05357
903.89549	0.05310
902.60972	0.05274
901.32395	0.05244
900.03818	0.05211
898.75241	0.05169
897.46664	0.05115
896.18087	0.05052
894.89510	0.04994
893.60933	0.04953
892.32357	0.04934
891.03780	0.04931
889.75203	0.04937
888.46626	0.04959
887.18049	0.05012
885.89472	0.05115
884.60895	0.05277
883.32318	0.05500
882.03742	0.05768
880.75165	0.06051
879.46588	0.06310
878.18011	0.06522
876.89434	0.06693
875.60857	0.06851
874.32280	0.07013
873.03703	0.07169
871.75126	0.07282
870.46550	0.07320
869.17973	0.07269
867.89396	0.07136
866.60819	0.06939
865.32242	0.06698
864.03665	0.06437
862.75088	0.06180
861.46511	0.05950
860.17935	0.05752
858.89358	0.05580
857.60781	0.05425
856.32204	0.05284
855.03627	0.05165
853.75050	0.05071
852.46473	0.05000
851.17896	0.04947
849.89319	0.04899
848.60743	0.04845
847.32166	0.04783
846.03589	0.04718
844.75012	0.04661
843.46435	0.04617
842.17858	0.04582
840.89281	0.04550
839.60704	0.04519
838.32128	0.04487
837.03551	0.04451
835.74974	0.04413
834.46397	0.04373
833.17820	0.04338
831.89243	0.04308
830.60666	0.04283
829.32089	0.04260
828.03512	0.04235
826.74936	0.04206
825.46359	0.04175
824.17782	0.04153
822.89205	0.04148
821.60628	0.04154
820.32051	0.04153
819.03474	0.04139
817.74897	0.04120
816.46321	0.04110
815.17744	0.04110
813.89167	0.04108
812.60590	0.04093
811.32013	0.04068
810.03436	0.04043
808.74859	0.04021
807.46282	0.04003
806.17705	0.03987
804.89129	0.03972
803.60552	0.03958
802.31975	0.03943
801.03398	0.03928
799.74821	0.03916
798.46244	0.03912
797.17667	0.03915
795.89090	0.03924
794.60513	0.03930
793.31937	0.03926
792.03360	0.03909
790.74783	0.03890
789.46206	0.03876
788.17629	0.03869
786.89052	0.03866
785.60475	0.03862
784.31898	0.03853
783.03322	0.03840
781.74745	0.03824
780.46168	0.03811
779.17591	0.03806
777.89014	0.03807
776.60437	0.03812
775.31860	0.03812
774.03283	0.03804
772.74706	0.03787
771.46130	0.03771
770.17553	0.03764
768.88976	0.03769
767.60399	0.03778
766.31822	0.03786
765.03245	0.03790
763.74668	0.03790
762.46091	0.03786
761.17515	0.03778
759.88938	0.03771
758.60361	0.03770
757.31784	0.03775
756.03207	0.03781
754.74630	0.03784
753.46053	0.03788
752.17476	0.03795
750.88899	0.03800
749.60323	0.03796
748.31746	0.03783
747.03169	0.03767
745.74592	0.03754
744.46015	0.03744
743.17438	0.03739
741.88861	0.03742
740.60284	0.03749
739.31708	0.03753
738.03131	0.03749
736.74554	0.03736
735.45977	0.03716
734.17400	0.03697
732.88823	0.03686
731.60246	0.03690
730.31669	0.03704
729.03092	0.03720
727.74516	0.03731
726.45939	0.03732
725.17362	0.03727
723.88785	0.03720
722.60208	0.03718
721.31631	0.03721
720.03054	0.03725
718.74477	0.03729
717.45901	0.03731
716.17324	0.03729
714.88747	0.03722
713.60170	0.03713
712.31593	0.03704
711.03016	0.03696
709.74439	0.03688
708.45862	0.03680
707.17285	0.03674
705.88709	0.03671
704.60132	0.03669
703.31555	0.03668
702.02978	0.03664
700.74401	0.03658
699.45824	0.03648
698.17247	0.03635
696.88670	0.03625
695.60094	0.03622
694.31517	0.03627
693.02940	0.03635
691.74363	0.03639
690.45786	0.03634
689.17209	0.03624
687.88632	0.03611
686.60055	0.03596
685.31478	0.03581
684.02902	0.03566
682.74325	0.03554
681.45748	0.03546
680.17171	0.03541
678.88594	0.03538
677.60017	0.03535
676.31440	0.03534
675.02863	0.03537
673.74287	0.03545
672.45710	0.03559
671.17133	0.03578
669.88556	0.03598
668.59979	0.03617
667.31402	0.03628
666.02825	0.03626
664.74248	0.03608
663.45671	0.03575
662.17095	0.03536
660.88518	0.03496
659.59941	0.03462
658.31364	0.03436
657.02787	0.03419
655.74210	0.03409
654.45633	0.03404
653.17056	0.03399
651.88480	0.03393
650.59903	0.03386
649.31326	0.03382
648.02749	0.03383
646.74172	0.03386
645.45595	0.03387
644.17018	0.03383
642.88441	0.03377
641.59864	0.03374
640.31288	0.03374
639.02711	0.03377
637.74134	0.03384
636.45557	0.03397
635.16980	0.03417
633.88403	0.03445
632.59826	0.03474
631.31249	0.03495
630.02673	0.03477
628.74096	0.03443
627.45519	0.03501
626.16942	0.03478
624.88365	0.03401
623.59788	0.03348
622.31211	0.03388
621.02634	0.03592
619.74057	0.03972
618.45481	0.04466
617.16904	0.04993
615.88327	0.05485
614.59750	0.05897
613.31173	0.06243
612.02596	0.06610
610.74019	0.07092
609.45442	0.07673
608.16866	0.08235
606.88289	0.08693
605.59712	0.09066
604.31135	0.09405
603.02558	0.09711
601.73981	0.09932
600.45404	0.10018
599.16827	0.09947
597.88250	0.09740
596.59674	0.09446
595.31097	0.09121
594.02520	0.08812
592.73943	0.08544
591.45366	0.08334
590.16789	0.08191
588.88212	0.08124
587.59635	0.08134
586.31059	0.08214
585.02482	0.08345
583.73905	0.08507
582.45328	0.08692
581.16751	0.08909
579.88174	0.09159
578.59597	0.09430
577.31020	0.09701
576.02443	0.09961
574.73867	0.10207
573.45290	0.10442
572.16713	0.10675
570.88136	0.10925
569.59559	0.11218
568.30982	0.11567
567.02405	0.11963
565.73828	0.12373
564.45251	0.12759
563.16675	0.13075
561.88098	0.13280
560.59521	0.13339
559.30944	0.13239
558.02367	0.12984
556.73790	0.12590
555.45213	0.12085
554.16636	0.11511
552.88060	0.10916
551.59483	0.10337
550.30906	0.09790
549.02329	0.09286
547.73752	0.08836
546.45175	0.08441
545.16598	0.08091
543.88021	0.07768
542.59444	0.07465
541.30868	0.07188
540.02291	0.06944
538.73714	0.06727
537.45137	0.06523
536.16560	0.06322
534.87983	0.06125
533.59406	0.05943
532.30829	0.05784
531.02253	0.05648
529.73676	0.05532
528.45099	0.05429
527.16522	0.05332
525.87945	0.05232
524.59368	0.05122
523.30791	0.05006
522.02214	0.04892
520.73637	0.04784
519.45061	0.04686
518.16484	0.04601
516.87907	0.04528
515.59330	0.04459
514.30753	0.04388
513.02176	0.04313
511.73599	0.04238
510.45022	0.04170
509.16446	0.04105
507.87869	0.04036
506.59292	0.03958
505.30715	0.03876
504.02138	0.03801
502.73561	0.03741
501.44984	0.03695
500.16407	0.03657
498.87830	0.03620
497.59254	0.03581
496.30677	0.03543
495.02100	0.03511
493.73523	0.03482
492.44946	0.03450
491.16369	0.03411
489.87792	0.03371
488.59215	0.03342
487.30639	0.03329
486.02062	0.03326
484.73485	0.03321
483.44908	0.03306
482.16331	0.03284
480.87754	0.03268
479.59177	0.03261
478.30600	0.03264
477.02023	0.03274
475.73447	0.03290
474.44870	0.03313
473.16293	0.03335
471.87716	0.03349
470.59139	0.03351
469.30562	0.03340
468.01985	0.03321
466.73408	0.03295
465.44832	0.03259
464.16255	0.03214
462.87678	0.03162
461.59101	0.03111
460.30524	0.03069
459.01947	0.03036
457.73370	0.03006
456.44793	0.02971
455.16216	0.02929
453.87640	0.02885
452.59063	0.02841
451.30486	0.02798
450.01909	0.02761
448.73332	0.02732
447.44755	0.02714
446.16178	0.02701
444.87601	0.02686
443.59025	0.02665
442.30448	0.02642
441.01871	0.02619
439.73294	0.02597
438.44717	0.02577
437.16140	0.02558
435.87563	0.02540
434.58986	0.02524
433.30409	0.02513
432.01833	0.02506
430.73256	0.02500
429.44679	0.02491
428.16102	0.02475
426.87525	0.02455
425.58948	0.02432
424.30371	0.02407
423.01794	0.02381
421.73218	0.02357
420.44641	0.02339
419.16064	0.02324
417.87487	0.02307
416.58910	0.02289
415.30333	0.02271
414.01756	0.02253
412.73179	0.02236
411.44602	0.02224
410.16026	0.02216
408.87449	0.02209
407.58872	0.02201
406.30295	0.02192
405.01718	0.02184
403.73141	0.02182
402.44564	0.02185
401.15987	0.02191
399.87411	0.02198
