3997.45528	0.04792
3996.16951	0.04806
3994.88374	0.04772
3993.59798	0.04732
3992.31221	0.04763
3991.02644	0.04875
3989.74067	0.04983
3988.45490	0.04999
3987.16913	0.04922
3985.88336	0.04833
3984.59759	0.04797
3983.31183	0.04810
3982.02606	0.04843
3980.74029	0.04896
3979.45452	0.04984
3978.16875	0.05091
3976.88298	0.05167
3975.59721	0.05169
3974.31144	0.05093
3973.02567	0.04970
3971.73991	0.04849
3970.45414	0.04785
3969.16837	0.04805
3967.88260	0.04889
3966.59683	0.04980
3965.31106	0.05025
3964.02529	0.05010
3962.73952	0.04978
3961.45376	0.04988
3960.16799	0.05060
3958.88222	0.05140
3957.59645	0.05151
3956.31068	0.05073
3955.02491	0.04962
3953.73914	0.04889
3952.45337	0.04878
3951.16760	0.04898
3949.88184	0.04901
3948.59607	0.04854
3947.31030	0.04741
3946.02453	0.04594
3944.73876	0.04485
3943.45299	0.04493
3942.16722	0.04628
3940.88145	0.04822
3939.59569	0.04970
3938.30992	0.05014
3937.02415	0.04974
3935.73838	0.04905
3934.45261	0.04847
3933.16684	0.04810
3931.88107	0.04795
3930.59530	0.04803
3929.30953	0.04822
3928.02377	0.04838
3926.73800	0.04858
3925.45223	0.04905
3924.16646	0.04998
3922.88069	0.05123
3921.59492	0.05238
3920.30915	0.05283
3919.02338	0.05236
3917.73762	0.05139
3916.45185	0.05054
3915.16608	0.05002
3913.88031	0.04955
3912.59454	0.04892
3911.30877	0.04836
3910.02300	0.04829
3908.73723	0.04886
3907.45146	0.04968
3906.16570	0.05005
3904.87993	0.04945
3903.59416	0.04811
3902.30839	0.04687
3901.02262	0.04635
3899.73685	0.04636
3898.45108	0.04635
3897.16531	0.04614
3895.87955	0.04587
3894.59378	0.04571
3893.30801	0.04578
3892.02224	0.04614
3890.73647	0.04672
3889.45070	0.04731
3888.16493	0.04770
3886.87916	0.04774
3885.59339	0.04730
3884.30763	0.04645
3883.02186	0.04553
3881.73609	0.04491
3880.45032	0.04479
3879.16455	0.04515
3877.87878	0.04589
3876.59301	0.04688
3875.30724	0.04795
3874.02148	0.04897
3872.73571	0.04991
3871.44994	0.05066
3870.16417	0.05087
3868.87840	0.05024
3867.59263	0.04893
3866.30686	0.04745
3865.02109	0.04627
3863.73532	0.04561
3862.44956	0.04551
3861.16379	0.04576
3859.87802	0.04611
3858.59225	0.04640
3857.30648	0.04671
3856.02071	0.04704
3854.73494	0.04713
3853.44917	0.04673
3852.16341	0.04608
3850.87764	0.04583
3849.59187	0.04626
3848.30610	0.04688
3847.02033	0.04699
3845.73456	0.04639
3844.44879	0.04551
3843.16302	0.04501
3841.87725	0.04510
3840.59149	0.04553
3839.30572	0.04588
3838.01995	0.04592
3836.73418	0.04574
3835.44841	0.04563
3834.16264	0.04580
3832.87687	0.04620
3831.59110	0.04653
3830.30534	0.04662
3829.01957	0.04656
3827.73380	0.04658
3826.44803	0.04678
3825.16226	0.04707
3823.87649	0.04729
3822.59072	0.04721
3821.30495	0.04660
3820.01918	0.04562
3818.73342	0.04492
3817.44765	0.04490
3816.16188	0.04518
3814.87611	0.04522
3813.59034	0.04511
3812.30457	0.04527
3811.01880	0.04573
3809.73303	0.04618
3808.44726	0.04641
3807.16150	0.04653
3805.87573	0.04682
3804.58996	0.04741
3803.30419	0.04810
3802.01842	0.04832
3800.73265	0.04776
3799.44688	0.04673
3798.16111	0.04588
3796.87535	0.04555
3795.58958	0.04569
3794.30381	0.04609
3793.01804	0.04660
3791.73227	0.04701
3790.44650	0.04718
3789.16073	0.04704
3787.87496	0.04667
3786.58919	0.04626
3785.30343	0.04598
3784.01766	0.04578
3782.73189	0.04537
3781.44612	0.04462
3780.16035	0.04381
3778.87458	0.04351
3777.58881	0.04410
3776.30304	0.04528
3775.01728	0.04624
3773.73151	0.04633
3772.44574	0.04570
3771.15997	0.04517
3769.87420	0.04544
3768.58843	0.04652
3767.30266	0.04760
3766.01689	0.04766
3764.73112	0.04633
3763.44536	0.04429
3762.15959	0.04267
3760.87382	0.04208
3759.58805	0.04226
3758.30228	0.04264
3757.01651	0.04288
3755.73074	0.04300
3754.44497	0.04312
3753.15921	0.04329
3751.87344	0.04352
3750.58767	0.04378
3749.30190	0.04393
3748.01613	0.04383
3746.73036	0.04353
3745.44459	0.04313
3744.15882	0.04253
3742.87305	0.04190
3741.58729	0.04162
3740.30152	0.04164
3739.01575	0.04167
3737.72998	0.04167
3736.44421	0.04178
3735.15844	0.04206
3733.87267	0.04246
3732.58690	0.04294
3731.30114	0.04347
3730.01537	0.04408
3728.72960	0.04479
3727.44383	0.04533
3726.15806	0.04526
3724.87229	0.04439
3723.58652	0.04299
3722.30075	0.04160
3721.01498	0.04062
3719.72922	0.04006
3718.44345	0.03985
3717.15768	0.03992
3715.87191	0.04022
3714.58614	0.04066
3713.30037	0.04096
3712.01460	0.04096
3710.72883	0.04072
3709.44307	0.04058
3708.15730	0.04095
3706.87153	0.04176
3705.58576	0.04247
3704.29999	0.04251
3703.01422	0.04187
3701.72845	0.04110
3700.44268	0.04070
3699.15691	0.04069
3697.87115	0.04095
3696.58538	0.04164
3695.29961	0.04283
3694.01384	0.04415
3692.72807	0.04506
3691.44230	0.04515
3690.15653	0.04454
3688.87076	0.04368
3687.58500	0.04272
3686.29923	0.04167
3685.01346	0.04088
3683.72769	0.04053
3682.44192	0.04034
3681.15615	0.03994
3679.87038	0.03924
3678.58461	0.03882
3677.29884	0.03945
3676.01308	0.04102
3674.72731	0.04274
3673.44154	0.04410
3672.15577	0.04506
3670.87000	0.04561
3669.58423	0.04552
3668.29846	0.04483
3667.01269	0.04396
3665.72693	0.04322
3664.44116	0.04268
3663.15539	0.04216
3661.86962	0.04159
3660.58385	0.04110
3659.29808	0.04088
3658.01231	0.04102
3656.72654	0.04143
3655.44077	0.04195
3654.15501	0.04250
3652.86924	0.04303
3651.58347	0.04341
3650.29770	0.04338
3649.01193	0.04288
3647.72616	0.04226
3646.44039	0.04204
3645.15462	0.04256
3643.86886	0.04378
3642.58309	0.04526
3641.29732	0.04639
3640.01155	0.04673
3638.72578	0.04635
3637.44001	0.04580
3636.15424	0.04557
3634.86847	0.04562
3633.58270	0.04540
3632.29694	0.04459
3631.01117	0.04355
3629.72540	0.04305
3628.43963	0.04335
3627.15386	0.04404
3625.86809	0.04443
3624.58232	0.04434
3623.29655	0.04421
3622.01079	0.04471
3620.72502	0.04591
3619.43925	0.04725
3618.15348	0.04811
3616.86771	0.04841
3615.58194	0.04837
3614.29617	0.04801
3613.01040	0.04720
3611.72463	0.04606
3610.43887	0.04510
3609.15310	0.04473
3607.86733	0.04479
3606.58156	0.04489
3605.29579	0.04495
3604.01002	0.04531
3602.72425	0.04628
3601.43848	0.04772
3600.15272	0.04901
3598.86695	0.04950
3597.58118	0.04910
3596.29541	0.04857
3595.00964	0.04880
3593.72387	0.04998
3592.43810	0.05143
3591.15233	0.05220
3589.86656	0.05195
3588.58080	0.05121
3587.29503	0.05059
3586.00926	0.05028
3584.72349	0.05015
3583.43772	0.05022
3582.15195	0.05037
3580.86618	0.05031
3579.58041	0.04988
3578.29464	0.04933
3577.00888	0.04906
3575.72311	0.04931
3574.43734	0.04996
3573.15157	0.05072
3571.86580	0.05130
3570.58003	0.05143
3569.29426	0.05108
3568.00849	0.05054
3566.72273	0.05033
3565.43696	0.05076
3564.15119	0.05165
3562.86542	0.05256
3561.57965	0.05315
3560.29388	0.05338
3559.00811	0.05337
3557.72234	0.05334
3556.43657	0.05342
3555.15081	0.05359
3553.86504	0.05357
3552.57927	0.05320
3551.29350	0.05271
3550.00773	0.05266
3548.72196	0.05339
3547.43619	0.05462
3546.15042	0.05566
3544.86466	0.05603
3543.57889	0.05582
3542.29312	0.05539
3541.00735	0.05501
3539.72158	0.05486
3538.43581	0.05508
3537.15004	0.05575
3535.86427	0.05669
3534.57850	0.05748
3533.29274	0.05774
3532.00697	0.05734
3530.72120	0.05649
3529.43543	0.05561
3528.14966	0.05524
3526.86389	0.05564
3525.57812	0.05661
3524.29235	0.05760
3523.00659	0.05820
3521.72082	0.05839
3520.43505	0.05838
3519.14928	0.05834
3517.86351	0.05841
3516.57774	0.05870
3515.29197	0.05922
3514.00620	0.05980
3512.72043	0.06024
3511.43467	0.06046
3510.14890	0.06046
3508.86313	0.06020
3507.57736	0.05967
3506.29159	0.05885
3505.00582	0.05788
3503.72005	0.05711
3502.43428	0.05692
3501.14852	0.05735
3499.86275	0.05808
3498.57698	0.05873
3497.29121	0.05919
3496.00544	0.05948
3494.71967	0.05956
3493.43390	0.05939
3492.14813	0.05910
3490.86236	0.05905
3489.57660	0.05951
3488.29083	0.06033
3487.00506	0.06106
3485.71929	0.06134
3484.43352	0.06109
3483.14775	0.06044
3481.86198	0.05962
3480.57621	0.05896
3479.29045	0.05880
3478.00468	0.05921
3476.71891	0.05993
3475.43314	0.06060
3474.14737	0.06093
3472.86160	0.06084
3471.57583	0.06046
3470.29006	0.06014
3469.00429	0.06017
3467.71853	0.06063
3466.43276	0.06139
3465.14699	0.06218
3463.86122	0.06270
3462.57545	0.06277
3461.28968	0.06244
3460.00391	0.06207
3458.71814	0.06202
3457.43238	0.06239
3456.14661	0.06293
3454.86084	0.06323
3453.57507	0.06305
3452.28930	0.06258
3451.00353	0.06223
3449.71776	0.06227
3448.43199	0.06262
3447.14622	0.06288
3445.86046	0.06279
3444.57469	0.06251
3443.28892	0.06248
3442.00315	0.06291
3440.71738	0.06356
3439.43161	0.06396
3438.14584	0.06386
3436.86007	0.06344
3435.57431	0.06312
3434.28854	0.06327
3433.00277	0.06389
3431.71700	0.06460
3430.43123	0.06502
3429.14546	0.06505
3427.85969	0.06490
3426.57392	0.06474
3425.28815	0.06457
3424.00239	0.06430
3422.71662	0.06404
3421.43085	0.06404
3420.14508	0.06437
3418.85931	0.06485
3417.57354	0.06516
3416.28777	0.06516
3415.00200	0.06495
3413.71624	0.06484
3412.43047	0.06511
3411.14470	0.06589
3409.85893	0.06697
3408.57316	0.06799
3407.28739	0.06862
3406.00162	0.06882
3404.71585	0.06876
3403.43008	0.06861
3402.14432	0.06833
3400.85855	0.06779
3399.57278	0.06705
3398.28701	0.06635
3397.00124	0.06596
3395.71547	0.06593
3394.42970	0.06618
3393.14393	0.06660
3391.85817	0.06718
3390.57240	0.06789
3389.28663	0.06860
3388.00086	0.06898
3386.71509	0.06880
3385.42932	0.06820
3384.14355	0.06761
3382.85778	0.06742
3381.57201	0.06757
3380.28625	0.06777
3379.00048	0.06777
3377.71471	0.06756
3376.42894	0.06724
3375.14317	0.06690
3373.85740	0.06657
3372.57163	0.06626
3371.28586	0.06606
3370.00010	0.06612
3368.71433	0.06660
3367.42856	0.06751
3366.14279	0.06861
3364.85702	0.06951
3363.57125	0.06987
3362.28548	0.06968
3360.99971	0.06923
3359.71394	0.06888
3358.42818	0.06874
3357.14241	0.06868
3355.85664	0.06854
3354.57087	0.06833
3353.28510	0.06821
3351.99933	0.06832
3350.71356	0.06862
3349.42779	0.06892
3348.14202	0.06905
3346.85626	0.06898
3345.57049	0.06880
3344.28472	0.06853
3342.99895	0.06819
3341.71318	0.06787
3340.42741	0.06779
3339.14164	0.06803
3337.85587	0.06841
3336.57011	0.06862
3335.28434	0.06853
3333.99857	0.06829
3332.71280	0.06807
3331.42703	0.06796
3330.14126	0.06788
3328.85549	0.06773
3327.56972	0.06757
3326.28395	0.06756
3324.99819	0.06787
3323.71242	0.06841
3322.42665	0.06893
3321.14088	0.06919
3319.85511	0.06915
3318.56934	0.06890
3317.28357	0.06863
3315.99780	0.06854
3314.71204	0.06875
3313.42627	0.06920
3312.14050	0.06960
3310.85473	0.06961
3309.56896	0.06921
3308.28319	0.06876
3306.99742	0.06861
3305.71165	0.06881
3304.42588	0.06911
3303.14012	0.06923
3301.85435	0.06908
3300.56858	0.06872
3299.28281	0.06833
3297.99704	0.06806
3296.71127	0.06795
3295.42550	0.06794
3294.13973	0.06808
3292.85397	0.06849
3291.56820	0.06923
3290.28243	0.07011
3288.99666	0.07075
3287.71089	0.07088
3286.42512	0.07053
3285.13935	0.06992
3283.85358	0.06932
3282.56781	0.06891
3281.28205	0.06874
3279.99628	0.06873
3278.71051	0.06870
3277.42474	0.06855
3276.13897	0.06831
3274.85320	0.06812
3273.56743	0.06811
3272.28166	0.06828
3270.99590	0.06851
3269.71013	0.06866
3268.42436	0.06866
3267.13859	0.06854
3265.85282	0.06835
3264.56705	0.06807
3263.28128	0.06772
3261.99551	0.06738
3260.70974	0.06720
3259.42398	0.06723
3258.13821	0.06747
3256.85244	0.06787
3255.56667	0.06839
3254.28090	0.06886
3252.99513	0.06894
3251.70936	0.06842
3250.42359	0.06748
3249.13783	0.06660
3247.85206	0.06613
3246.56629	0.06598
3245.28052	0.06583
3243.99475	0.06553
3242.70898	0.06528
3241.42321	0.06535
3240.13744	0.06584
3238.85167	0.06650
3237.56591	0.06694
3236.28014	0.06696
3234.99437	0.06667
3233.70860	0.06630
3232.42283	0.06604
3231.13706	0.06590
3229.85129	0.06582
3228.56552	0.06574
3227.27976	0.06562
3225.99399	0.06545
3224.70822	0.06530
3223.42245	0.06532
3222.13668	0.06555
3220.85091	0.06585
3219.56514	0.06588
3218.27937	0.06540
3216.99360	0.06458
3215.70784	0.06387
3214.42207	0.06364
3213.13630	0.06385
3211.85053	0.06420
3210.56476	0.06447
3209.27899	0.06463
3207.99322	0.06469
3206.70745	0.06466
3205.42169	0.06455
3204.13592	0.06445
3202.85015	0.06438
3201.56438	0.06430
3200.27861	0.06420
3198.99284	0.06413
3197.70707	0.06419
3196.42130	0.06431
3195.13553	0.06431
3193.84977	0.06401
3192.56400	0.06357
3191.27823	0.06341
3189.99246	0.06378
3188.70669	0.06444
3187.42092	0.06485
3186.13515	0.06470
3184.84938	0.06404
3183.56362	0.06312
3182.27785	0.06216
3180.99208	0.06140
3179.70631	0.06104
3178.42054	0.06117
3177.13477	0.06158
3175.84900	0.06191
3174.56323	0.06196
3173.27746	0.06188
3171.99170	0.06194
3170.70593	0.06221
3169.42016	0.06241
3168.13439	0.06230
3166.84862	0.06198
3165.56285	0.06172
3164.27708	0.06161
3162.99131	0.06151
3161.70555	0.06132
3160.41978	0.06106
3159.13401	0.06082
3157.84824	0.06071
3156.56247	0.06086
3155.27670	0.06130
3153.99093	0.06178
3152.70516	0.06194
3151.41939	0.06167
3150.13363	0.06119
3148.84786	0.06078
3147.56209	0.06047
3146.27632	0.06008
3144.99055	0.05954
3143.70478	0.05902
3142.41901	0.05873
3141.13324	0.05872
3139.84748	0.05885
3138.56171	0.05898
3137.27594	0.05910
3135.99017	0.05930
3134.70440	0.05967
3133.41863	0.06025
3132.13286	0.06096
3130.84709	0.06167
3129.56132	0.06210
3128.27556	0.06201
3126.98979	0.06129
3125.70402	0.06022
3124.41825	0.05931
3123.13248	0.05890
3121.84671	0.05887
3120.56094	0.05876
3119.27517	0.05833
3117.98940	0.05774
3116.70364	0.05736
3115.41787	0.05738
3114.13210	0.05771
3112.84633	0.05818
3111.56056	0.05861
3110.27479	0.05887
3108.98902	0.05875
3107.70325	0.05820
3106.41749	0.05744
3105.13172	0.05686
3103.84595	0.05669
3102.56018	0.05678
3101.27441	0.05685
3099.98864	0.05685
3098.70287	0.05692
3097.41710	0.05717
3096.13133	0.05745
3094.84557	0.05752
3093.55980	0.05729
3092.27403	0.05693
3090.98826	0.05669
3089.70249	0.05662
3088.41672	0.05658
3087.13095	0.05645
3085.84518	0.05630
3084.55942	0.05633
3083.27365	0.05662
3081.98788	0.05703
3080.70211	0.05733
3079.41634	0.05739
3078.13057	0.05734
3076.84480	0.05739
3075.55903	0.05763
3074.27326	0.05793
3072.98750	0.05802
3071.70173	0.05775
3070.41596	0.05722
3069.13019	0.05672
3067.84442	0.05640
3066.55865	0.05621
3065.27288	0.05605
3063.98711	0.05593
3062.70135	0.05591
3061.41558	0.05593
3060.12981	0.05593
3058.84404	0.05585
3057.55827	0.05572
3056.27250	0.05558
3054.98673	0.05545
3053.70096	0.05531
3052.41519	0.05511
3051.12943	0.05487
3049.84366	0.05475
3048.55789	0.05487
3047.27212	0.05516
3045.98635	0.05536
3044.70058	0.05533
3043.41481	0.05512
3042.12904	0.05486
3040.84328	0.05468
3039.55751	0.05463
3038.27174	0.05477
3036.98597	0.05505
3035.70020	0.05529
3034.41443	0.05533
3033.12866	0.05508
3031.84289	0.05463
3030.55712	0.05411
3029.27136	0.05369
3027.98559	0.05342
3026.69982	0.05329
3025.41405	0.05322
3024.12828	0.05322
3022.84251	0.05330
3021.55674	0.05346
3020.27097	0.05359
3018.98521	0.05353
3017.69944	0.05323
3016.41367	0.05272
3015.12790	0.05216
3013.84213	0.05179
3012.55636	0.05179
3011.27059	0.05218
3009.98482	0.05276
3008.69905	0.05326
3007.41329	0.05354
3006.12752	0.05355
3004.84175	0.05330
3003.55598	0.05281
3002.27021	0.05223
3000.98444	0.05174
2999.69867	0.05145
2998.41290	0.05135
2997.12714	0.05133
2995.84137	0.05141
2994.55560	0.05169
2993.26983	0.05208
2991.98406	0.05232
2990.69829	0.05229
2989.41252	0.05212
2988.12675	0.05200
2986.84098	0.05198
2985.55522	0.05206
2984.26945	0.05233
2982.98368	0.05283
2981.69791	0.05342
2980.41214	0.05387
2979.12637	0.05407
2977.84060	0.05411
2976.55483	0.05419
2975.26907	0.05442
2973.98330	0.05481
2972.69753	0.05532
2971.41176	0.05592
2970.12599	0.05653
2968.84022	0.05695
2967.55445	0.05718
2966.26868	0.05749
2964.98291	0.05823
2963.69715	0.05940
2962.41138	0.06062
2961.12561	0.06159
2959.83984	0.06238
2958.55407	0.06320
2957.26830	0.06406
2955.98253	0.06468
2954.69676	0.06486
2953.41100	0.06475
2952.12523	0.06462
2950.83946	0.06464
2949.55369	0.06478
2948.26792	0.06503
2946.98215	0.06537
2945.69638	0.06575
2944.41061	0.06607
2943.12484	0.06622
2941.83908	0.06621
2940.55331	0.06615
2939.26754	0.06632
2937.98177	0.06692
2936.69600	0.06786
2935.41023	0.06879
2934.12446	0.06943
2932.83869	0.06977
2931.55293	0.07001
2930.26716	0.07036
2928.98139	0.07088
2927.69562	0.07154
2926.40985	0.07222
2925.12408	0.07275
2923.83831	0.07296
2922.55254	0.07281
2921.26677	0.07242
2919.98101	0.07204
2918.69524	0.07188
2917.40947	0.07187
2916.12370	0.07177
2914.83793	0.07143
2913.55216	0.07100
2912.26639	0.07062
2910.98062	0.07025
2909.69486	0.06974
2908.40909	0.06905
2907.12332	0.06833
2905.83755	0.06769
2904.55178	0.06717
2903.26601	0.06678
2901.98024	0.06652
2900.69447	0.06635
2899.40870	0.06613
2898.12294	0.06577
2896.83717	0.06524
2895.55140	0.06461
2894.26563	0.06404
2892.97986	0.06361
2891.69409	0.06324
2890.40832	0.06280
2889.12255	0.06224
2887.83678	0.06164
2886.55102	0.06112
2885.26525	0.06078
2883.97948	0.06063
2882.69371	0.06059
2881.40794	0.06050
2880.12217	0.06031
2878.83640	0.06014
2877.55063	0.06019
2876.26487	0.06057
2874.97910	0.06120
2873.69333	0.06191
2872.40756	0.06247
2871.12179	0.06273
2869.83602	0.06264
2868.55025	0.06229
2867.26448	0.06191
2865.97871	0.06174
2864.69295	0.06190
2863.40718	0.06228
2862.12141	0.06260
2860.83564	0.06270
2859.54987	0.06259
2858.26410	0.06241
2856.97833	0.06224
2855.69256	0.06202
2854.40680	0.06174
2853.12103	0.06151
2851.83526	0.06143
2850.54949	0.06142
2849.26372	0.06127
2847.97795	0.06082
2846.69218	0.06014
2845.40641	0.05946
2844.12064	0.05892
2842.83488	0.05849
2841.54911	0.05797
2840.26334	0.05723
2838.97757	0.05634
2837.69180	0.05555
2836.40603	0.05505
2835.12026	0.05482
2833.83449	0.05469
2832.54873	0.05452
2831.26296	0.05423
2829.97719	0.05380
2828.69142	0.05326
2827.40565	0.05274
2826.11988	0.05234
2824.83411	0.05195
2823.54834	0.05137
2822.26257	0.05059
2820.97681	0.04994
2819.69104	0.04972
2818.40527	0.04986
2817.11950	0.05007
2815.83373	0.05012
2814.54796	0.05009
2813.26219	0.05005
2811.97642	0.04999
2810.69066	0.04982
2809.40489	0.04952
2808.11912	0.04915
2806.83335	0.04883
2805.54758	0.04865
2804.26181	0.04859
2802.97604	0.04855
2801.69027	0.04850
2800.40450	0.04846
2799.11874	0.04845
2797.83297	0.04839
2796.54720	0.04817
2795.26143	0.04779
2793.97566	0.04740
2792.68989	0.04719
2791.40412	0.04723
2790.11835	0.04737
2788.83259	0.04743
2787.54682	0.04728
2786.26105	0.04701
2784.97528	0.04681
2783.68951	0.04679
2782.40374	0.04691
2781.11797	0.04702
2779.83220	0.04704
2778.54643	0.04693
2777.26067	0.04666
2775.97490	0.04622
2774.68913	0.04575
2773.40336	0.04552
2772.11759	0.04567
2770.83182	0.04608
2769.54605	0.04646
2768.26028	0.04664
2766.97452	0.04658
2765.68875	0.04636
2764.40298	0.04608
2763.11721	0.04583
2761.83144	0.04567
2760.54567	0.04556
2759.25990	0.04549
2757.97413	0.04551
2756.68836	0.04568
2755.40260	0.04595
2754.11683	0.04618
2752.83106	0.04620
2751.54529	0.04595
2750.25952	0.04559
2748.97375	0.04532
2747.68798	0.04522
2746.40221	0.04518
2745.11645	0.04506
2743.83068	0.04487
2742.54491	0.04474
2741.25914	0.04478
2739.97337	0.04497
2738.68760	0.04517
2737.40183	0.04529
2736.11606	0.04530
2734.83029	0.04524
2733.54453	0.04508
2732.25876	0.04477
2730.97299	0.04440
2729.68722	0.04419
2728.40145	0.04431
2727.11568	0.04465
2725.82991	0.04488
2724.54414	0.04475
2723.25838	0.04432
2721.97261	0.04386
2720.68684	0.04361
2719.40107	0.04355
2718.11530	0.04353
2716.82953	0.04335
2715.54376	0.04302
2714.25799	0.04273
2712.97222	0.04266
2711.68646	0.04280
2710.40069	0.04305
2709.11492	0.04326
2707.82915	0.04338
2706.54338	0.04334
2705.25761	0.04316
2703.97184	0.04291
2702.68607	0.04272
2701.40031	0.04260
2700.11454	0.04255
2698.82877	0.04256
2697.54300	0.04259
2696.25723	0.04260
2694.97146	0.04256
2693.68569	0.04251
2692.39992	0.04249
2691.11415	0.04251
2689.82839	0.04251
2688.54262	0.04238
2687.25685	0.04213
2685.97108	0.04191
2684.68531	0.04189
2683.39954	0.04207
2682.11377	0.04226
2680.82800	0.04229
2679.54224	0.04214
2678.25647	0.04195
2676.97070	0.04191
2675.68493	0.04205
2674.39916	0.04225
2673.11339	0.04237
2671.82762	0.04242
2670.54185	0.04247
2669.25608	0.04253
2667.97032	0.04254
2666.68455	0.04246
2665.39878	0.04234
2664.11301	0.04223
2662.82724	0.04213
2661.54147	0.04200
2660.25570	0.04180
2658.96993	0.04151
2657.68417	0.04119
2656.39840	0.04092
2655.11263	0.04076
2653.82686	0.04068
2652.54109	0.04066
2651.25532	0.04067
2649.96955	0.04071
2648.68378	0.04072
2647.39801	0.04070
2646.11225	0.04066
2644.82648	0.04063
2643.54071	0.04052
2642.25494	0.04025
2640.96917	0.03983
2639.68340	0.03934
2638.39763	0.03888
2637.11186	0.03855
2635.82609	0.03838
2634.54033	0.03836
2633.25456	0.03837
2631.96879	0.03833
2630.68302	0.03825
2629.39725	0.03818
2628.11148	0.03815
2626.82571	0.03804
2625.53994	0.03780
2624.25418	0.03752
2622.96841	0.03740
2621.68264	0.03743
2620.39687	0.03741
2619.11110	0.03719
2617.82533	0.03689
2616.53956	0.03676
2615.25379	0.03678
2613.96802	0.03678
2612.68226	0.03669
2611.39649	0.03664
2610.11072	0.03667
2608.82495	0.03669
2607.53918	0.03655
2606.25341	0.03621
2604.96764	0.03579
2603.68187	0.03543
2602.39611	0.03522
2601.11034	0.03516
2599.82457	0.03523
2598.53880	0.03535
2597.25303	0.03544
2595.96726	0.03544
2594.68149	0.03537
2593.39572	0.03524
2592.10995	0.03501
2590.82419	0.03465
2589.53842	0.03433
2588.25265	0.03426
2586.96688	0.03442
2585.68111	0.03450
2584.39534	0.03425
2583.10957	0.03385
2581.82380	0.03367
2580.53804	0.03390
2579.25227	0.03424
2577.96650	0.03429
2576.68073	0.03397
2575.39496	0.03358
2574.10919	0.03348
2572.82342	0.03364
2571.53765	0.03372
2570.25188	0.03350
2568.96612	0.03312
2567.68035	0.03290
2566.39458	0.03299
2565.10881	0.03320
2563.82304	0.03326
2562.53727	0.03305
2561.25150	0.03272
2559.96573	0.03252
2558.67997	0.03255
2557.39420	0.03267
2556.10843	0.03269
2554.82266	0.03260
2553.53689	0.03255
2552.25112	0.03259
2550.96535	0.03266
2549.67958	0.03267
2548.39381	0.03266
2547.10805	0.03263
2545.82228	0.03249
2544.53651	0.03216
2543.25074	0.03171
2541.96497	0.03135
2540.67920	0.03127
2539.39343	0.03153
2538.10766	0.03209
2536.82190	0.03278
2535.53613	0.03331
2534.25036	0.03340
2532.96459	0.03297
2531.67882	0.03235
2530.39305	0.03201
2529.10728	0.03224
2527.82151	0.03282
2526.53574	0.03331
2525.24998	0.03342
2523.96421	0.03323
2522.67844	0.03293
2521.39267	0.03263
2520.10690	0.03238
2518.82113	0.03226
2517.53536	0.03230
2516.24959	0.03240
2514.96383	0.03241
2513.67806	0.03225
2512.39229	0.03193
2511.10652	0.03163
2509.82075	0.03154
2508.53498	0.03173
2507.24921	0.03200
2505.96344	0.03211
2504.67767	0.03202
2503.39191	0.03186
2502.10614	0.03178
2500.82037	0.03182
2499.53460	0.03194
2498.24883	0.03207
2496.96306	0.03214
2495.67729	0.03211
2494.39152	0.03199
2493.10576	0.03185
2491.81999	0.03181
2490.53422	0.03198
2489.24845	0.03230
2487.96268	0.03246
2486.67691	0.03222
2485.39114	0.03169
2484.10537	0.03129
2482.81960	0.03138
2481.53384	0.03188
2480.24807	0.03227
2478.96230	0.03217
2477.67653	0.03166
2476.39076	0.03120
2475.10499	0.03111
2473.81922	0.03134
2472.53345	0.03167
2471.24769	0.03197
2469.96192	0.03218
2468.67615	0.03219
2467.39038	0.03200
2466.10461	0.03176
2464.81884	0.03159
2463.53307	0.03152
2462.24730	0.03148
2460.96153	0.03140
2459.67577	0.03118
2458.39000	0.03084
2457.10423	0.03054
2455.81846	0.03044
2454.53269	0.03056
2453.24692	0.03069
2451.96115	0.03074
2450.67538	0.03079
2449.38962	0.03097
2448.10385	0.03117
2446.81808	0.03123
2445.53231	0.03110
2444.24654	0.03091
2442.96077	0.03067
2441.67500	0.03037
2440.38923	0.03013
2439.10346	0.03016
2437.81770	0.03044
2436.53193	0.03076
2435.24616	0.03092
2433.96039	0.03090
2432.67462	0.03080
2431.38885	0.03071
2430.10308	0.03063
2428.81731	0.03037
2427.53155	0.02984
2426.24578	0.02923
2424.96001	0.02893
2423.67424	0.02914
2422.38847	0.02963
2421.10270	0.03003
2419.81693	0.03012
2418.53116	0.02998
2417.24539	0.02984
2415.95963	0.02984
2414.67386	0.02990
2413.38809	0.02990
2412.10232	0.02982
2410.81655	0.02967
2409.53078	0.02946
2408.24501	0.02925
2406.95924	0.02923
2405.67347	0.02946
2404.38771	0.02985
2403.10194	0.03024
2401.81617	0.03054
2400.53040	0.03072
2399.24463	0.03069
2397.95886	0.03038
2396.67309	0.02987
2395.38732	0.02935
2394.10156	0.02896
2392.81579	0.02875
2391.53002	0.02870
2390.24425	0.02881
2388.95848	0.02906
2387.67271	0.02939
2386.38694	0.02969
2385.10117	0.02993
2383.81540	0.03016
2382.52964	0.03037
2381.24387	0.03045
2379.95810	0.03018
2378.67233	0.02958
2377.38656	0.02887
2376.10079	0.02823
2374.81502	0.02776
2373.52925	0.02766
2372.24349	0.02772
2370.95772	0.02815
2369.67195	0.02827
2368.38618	0.02812
2367.10041	0.02810
2365.81464	0.02831
2364.52887	0.02782
2363.24310	0.02706
2361.95733	0.02668
2360.67157	0.02702
2359.38580	0.02708
2358.10003	0.02722
2356.81426	0.02750
2355.52849	0.02781
2354.24272	0.02829
2352.95695	0.02849
2351.67118	0.02888
2350.38542	0.02984
2349.09965	0.03032
2347.81388	0.02954
2346.52811	0.02892
2345.24234	0.02912
2343.95657	0.02956
2342.67080	0.02908
2341.38503	0.02853
2340.09926	0.02854
2338.81350	0.02825
2337.52773	0.02783
2336.24196	0.02776
2334.95619	0.02805
2333.67042	0.02839
2332.38465	0.02778
2331.09888	0.02819
2329.81311	0.02890
2328.52735	0.02783
2327.24158	0.02827
2325.95581	0.02958
2324.67004	0.02919
2323.38427	0.02928
2322.09850	0.03007
2320.81273	0.02903
2319.52696	0.02904
2318.24119	0.02983
2316.95543	0.02961
2315.66966	0.02997
2314.38389	0.03014
2313.09812	0.02947
2311.81235	0.02928
2310.52658	0.02873
2309.24081	0.02826
2307.95504	0.02813
2306.66928	0.02758
2305.38351	0.02739
2304.09774	0.02736
2302.81197	0.02748
2301.52620	0.02802
2300.24043	0.02852
2298.95466	0.02895
2297.66889	0.02902
2296.38312	0.02890
2295.09736	0.02880
2293.81159	0.02867
2292.52582	0.02854
2291.24005	0.02832
2289.95428	0.02812
2288.66851	0.02788
2287.38274	0.02751
2286.09697	0.02707
2284.81121	0.02672
2283.52544	0.02660
2282.23967	0.02664
2280.95390	0.02678
2279.66813	0.02697
2278.38236	0.02707
2277.09659	0.02679
2275.81082	0.02600
2274.52505	0.02502
2273.23929	0.02436
2271.95352	0.02426
2270.66775	0.02437
2269.38198	0.02420
2268.09621	0.02366
2266.81044	0.02320
2265.52467	0.02333
2264.23890	0.02396
2262.95314	0.02460
2261.66737	0.02485
2260.38160	0.02475
2259.09583	0.02459
2257.81006	0.02451
2256.52429	0.02444
2255.23852	0.02426
2253.95275	0.02400
2252.66698	0.02370
2251.38122	0.02334
2250.09545	0.02296
2248.80968	0.02266
2247.52391	0.02250
2246.23814	0.02250
2244.95237	0.02245
2243.66660	0.02214
2242.38083	0.02174
2241.09507	0.02146
2239.80930	0.02130
2238.52353	0.02107
2237.23776	0.02077
2235.95199	0.02070
2234.66622	0.02106
2233.38045	0.02176
2232.09468	0.02246
2230.80891	0.02282
2229.52315	0.02258
2228.23738	0.02175
2226.95161	0.02071
2225.66584	0.01996
2224.38007	0.01970
2223.09430	0.01973
2221.80853	0.01978
2220.52276	0.01978
2219.23700	0.01980
2217.95123	0.01975
2216.66546	0.01944
2215.37969	0.01891
2214.09392	0.01849
2212.80815	0.01850
2211.52238	0.01887
2210.23661	0.01910
2208.95084	0.01879
2207.66508	0.01814
2206.37931	0.01769
2205.09354	0.01765
2203.80777	0.01769
2202.52200	0.01747
2201.23623	0.01713
2199.95046	0.01702
2198.66469	0.01707
2197.37893	0.01688
2196.09316	0.01622
2194.80739	0.01543
2193.52162	0.01513
2192.23585	0.01574
2190.95008	0.01701
2189.66431	0.01823
2188.37854	0.01877
2187.09277	0.01855
2185.80701	0.01791
2184.52124	0.01717
2183.23547	0.01651
2181.94970	0.01612
2180.66393	0.01617
2179.37816	0.01643
2178.09239	0.01637
2176.80662	0.01585
2175.52085	0.01545
2174.23509	0.01581
2172.94932	0.01675
2171.66355	0.01723
2170.37778	0.01640
2169.09201	0.01446
2167.80624	0.01258
2166.52047	0.01206
2165.23470	0.01325
2163.94894	0.01524
2162.66317	0.01656
2161.37740	0.01623
2160.09163	0.01440
2158.80586	0.01218
2157.52009	0.01092
2156.23432	0.01127
2154.94855	0.01293
2153.66278	0.01494
2152.37702	0.01642
2151.09125	0.01707
2149.80548	0.01708
2148.51971	0.01675
2147.23394	0.01627
2145.94817	0.01581
2144.66240	0.01547
2143.37663	0.01529
2142.09087	0.01529
2140.80510	0.01553
2139.51933	0.01597
2138.23356	0.01637
2136.94779	0.01645
2135.66202	0.01624
2134.37625	0.01607
2133.09048	0.01622
2131.80471	0.01668
2130.51895	0.01725
2129.23318	0.01770
2127.94741	0.01791
2126.66164	0.01783
2125.37587	0.01751
2124.09010	0.01712
2122.80433	0.01689
2121.51856	0.01702
2120.23280	0.01755
2118.94703	0.01827
2117.66126	0.01892
2116.37549	0.01933
2115.08972	0.01944
2113.80395	0.01929
2112.51818	0.01897
2111.23241	0.01868
2109.94664	0.01851
2108.66088	0.01833
2107.37511	0.01795
2106.08934	0.01743
2104.80357	0.01704
2103.51780	0.01690
2102.23203	0.01676
2100.94626	0.01637
2099.66049	0.01613
2098.37473	0.01603
2097.08896	0.01633
2095.80319	0.01695
2094.51742	0.01749
2093.23165	0.01768
2091.94588	0.01747
2090.66011	0.01689
2089.37434	0.01608
2088.08857	0.01536
2086.80281	0.01506
2085.51704	0.01527
2084.23127	0.01576
2082.94550	0.01618
2081.65973	0.01637
2080.37396	0.01645
2079.08819	0.01658
2077.80242	0.01671
2076.51666	0.01659
2075.23089	0.01611
2073.94512	0.01554
2072.65935	0.01530
2071.37358	0.01553
2070.08781	0.01598
2068.80204	0.01629
2067.51627	0.01629
2066.23050	0.01601
2064.94474	0.01555
2063.65897	0.01498
2062.37320	0.01438
2061.08743	0.01388
2059.80166	0.01362
2058.51589	0.01359
2057.23012	0.01367
2055.94435	0.01382
2054.65859	0.01401
2053.37282	0.01410
2052.08705	0.01390
2050.80128	0.01343
2049.51551	0.01288
2048.22974	0.01249
2046.94397	0.01230
2045.65820	0.01213
2044.37243	0.01180
2043.08667	0.01134
2041.80090	0.01104
2040.51513	0.01126
2039.22936	0.01203
2037.94359	0.01288
2036.65782	0.01312
2035.37205	0.01233
2034.08628	0.01079
2032.80052	0.00937
2031.51475	0.00879
2030.22898	0.00901
2028.94321	0.00940
2027.65744	0.00954
2026.37167	0.00949
2025.08590	0.00933
2023.80013	0.00895
2022.51436	0.00832
2021.22860	0.00785
2019.94283	0.00804
2018.65706	0.00883
2017.37129	0.00960
2016.08552	0.00985
2014.79975	0.00956
2013.51398	0.00898
2012.22821	0.00832
2010.94245	0.00783
2009.65668	0.00779
2008.37091	0.00831
2007.08514	0.00927
2005.79937	0.01044
2004.51360	0.01164
2003.22783	0.01267
2001.94206	0.01337
2000.65629	0.01378
1999.37053	0.01399
1998.08476	0.01398
1996.79899	0.01370
1995.51322	0.01325
1994.22745	0.01277
1992.94168	0.01233
1991.65591	0.01201
1990.37014	0.01199
1989.08438	0.01237
1987.79861	0.01291
1986.51284	0.01326
1985.22707	0.01334
1983.94130	0.01337
1982.65553	0.01351
1981.36976	0.01367
1980.08399	0.01367
1978.79822	0.01345
1977.51246	0.01316
1976.22669	0.01295
1974.94092	0.01279
1973.65515	0.01249
1972.36938	0.01202
1971.08361	0.01169
1969.79784	0.01179
1968.51207	0.01223
1967.22631	0.01263
1965.94054	0.01276
1964.65477	0.01285
1963.36900	0.01315
1962.08323	0.01367
1960.79746	0.01428
1959.51169	0.01496
1958.22592	0.01570
1956.94015	0.01629
1955.65439	0.01637
1954.36862	0.01588
1953.08285	0.01509
1951.79708	0.01438
1950.51131	0.01395
1949.22554	0.01384
1947.93977	0.01404
1946.65400	0.01446
1945.36823	0.01489
1944.08247	0.01511
1942.79670	0.01511
1941.51093	0.01502
1940.22516	0.01499
1938.93939	0.01501
1937.65362	0.01494
1936.36785	0.01478
1935.08208	0.01470
1933.79632	0.01490
1932.51055	0.01539
1931.22478	0.01592
1929.93901	0.01626
1928.65324	0.01637
1927.36747	0.01632
1926.08170	0.01618
1924.79593	0.01603
1923.51016	0.01600
1922.22440	0.01619
1920.93863	0.01662
1919.65286	0.01714
1918.36709	0.01745
1917.08132	0.01740
1915.79555	0.01711
1914.50978	0.01688
1913.22401	0.01688
1911.93825	0.01706
1910.65248	0.01730
1909.36671	0.01751
1908.08094	0.01773
1906.79517	0.01799
1905.50940	0.01825
1904.22363	0.01837
1902.93786	0.01824
1901.65209	0.01798
1900.36633	0.01783
1899.08056	0.01791
1897.79479	0.01811
1896.50902	0.01816
1895.22325	0.01787
1893.93748	0.01739
1892.65171	0.01704
1891.36594	0.01700
1890.08018	0.01718
1888.79441	0.01736
1887.50864	0.01748
1886.22287	0.01759
1884.93710	0.01773
1883.65133	0.01785
1882.36556	0.01786
1881.07979	0.01773
1879.79402	0.01752
1878.50826	0.01734
1877.22249	0.01729
1875.93672	0.01738
1874.65095	0.01755
1873.36518	0.01773
1872.07941	0.01789
1870.79364	0.01797
1869.50787	0.01796
1868.22211	0.01786
1866.93634	0.01780
1865.65057	0.01787
1864.36480	0.01804
1863.07903	0.01819
1861.79326	0.01819
1860.50749	0.01808
1859.22172	0.01800
1857.93595	0.01805
1856.65019	0.01819
1855.36442	0.01829
1854.07865	0.01828
1852.79288	0.01818
1851.50711	0.01805
1850.22134	0.01791
1848.93557	0.01785
1847.64980	0.01790
1846.36404	0.01801
1845.07827	0.01801
1843.79250	0.01780
1842.50673	0.01757
1841.22096	0.01760
1839.93519	0.01794
1838.64942	0.01838
1837.36365	0.01867
1836.07788	0.01871
1834.79212	0.01860
1833.50635	0.01847
1832.22058	0.01842
1830.93481	0.01848
1829.64904	0.01859
1828.36327	0.01869
1827.07750	0.01875
1825.79173	0.01877
1824.50597	0.01875
1823.22020	0.01870
1821.93443	0.01865
1820.64866	0.01858
1819.36289	0.01845
1818.07712	0.01825
1816.79135	0.01806
1815.50558	0.01799
1814.21981	0.01811
1812.93405	0.01840
1811.64828	0.01877
1810.36251	0.01904
1809.07674	0.01907
1807.79097	0.01881
1806.50520	0.01837
1805.21943	0.01803
1803.93366	0.01800
1802.64790	0.01825
1801.36213	0.01854
1800.07636	0.01866
1798.79059	0.01861
1797.50482	0.01848
1796.21905	0.01839
1794.93328	0.01842
1793.64751	0.01852
1792.36174	0.01860
1791.07598	0.01862
1789.79021	0.01861
1788.50444	0.01866
1787.21867	0.01878
1785.93290	0.01891
1784.64713	0.01895
1783.36136	0.01886
1782.07559	0.01870
1780.78983	0.01853
1779.50406	0.01838
1778.21829	0.01829
1776.93252	0.01829
1775.64675	0.01841
1774.36098	0.01859
1773.07521	0.01874
1771.78944	0.01879
1770.50367	0.01880
1769.21791	0.01885
1767.93214	0.01891
1766.64637	0.01887
1765.36060	0.01877
1764.07483	0.01870
1762.78906	0.01871
1761.50329	0.01876
1760.21752	0.01880
1758.93176	0.01883
1757.64599	0.01884
1756.36022	0.01882
1755.07445	0.01881
1753.78868	0.01889
1752.50291	0.01905
1751.21714	0.01917
1749.93137	0.01917
1748.64560	0.01908
1747.35984	0.01898
1746.07407	0.01890
1744.78830	0.01883
1743.50253	0.01879
1742.21676	0.01879
1740.93099	0.01887
1739.64522	0.01896
1738.35945	0.01901
1737.07369	0.01908
1735.78792	0.01923
1734.50215	0.01940
1733.21638	0.01946
1731.93061	0.01939
1730.64484	0.01933
1729.35907	0.01935
1728.07330	0.01942
1726.78753	0.01949
1725.50177	0.01954
1724.21600	0.01957
1722.93023	0.01959
1721.64446	0.01965
1720.35869	0.01986
1719.07292	0.02021
1717.78715	0.02054
1716.50138	0.02074
1715.21561	0.02084
1713.92985	0.02096
1712.64408	0.02117
1711.35831	0.02150
1710.07254	0.02193
1708.78677	0.02242
1707.50100	0.02292
1706.21523	0.02338
1704.92946	0.02380
1703.64370	0.02424
1702.35793	0.02479
1701.07216	0.02540
1699.78639	0.02590
1698.50062	0.02636
1697.21485	0.02692
1695.92908	0.02749
1694.64331	0.02791
1693.35754	0.02821
1692.07178	0.02860
1690.78601	0.02913
1689.50024	0.02968
1688.21447	0.03024
1686.92870	0.03086
1685.64293	0.03154
1684.35716	0.03213
1683.07139	0.03258
1681.78563	0.03300
1680.49986	0.03353
1679.21409	0.03414
1677.92832	0.03479
1676.64255	0.03547
1675.35678	0.03613
1674.07101	0.03672
1672.78524	0.03727
1671.49947	0.03786
1670.21371	0.03845
1668.92794	0.03902
1667.64217	0.03957
1666.35640	0.04014
1665.07063	0.04075
1663.78486	0.04135
1662.49909	0.04185
1661.21332	0.04228
1659.92756	0.04268
1658.64179	0.04312
1657.35602	0.04361
1656.07025	0.04419
1654.78448	0.04483
1653.49871	0.04534
1652.21294	0.04554
1650.92717	0.04551
1649.64140	0.04555
1648.35564	0.04576
1647.06987	0.04602
1645.78410	0.04616
1644.49833	0.04618
1643.21256	0.04616
1641.92679	0.04615
1640.64102	0.04614
1639.35525	0.04610
1638.06949	0.04607
1636.78372	0.04604
1635.49795	0.04591
1634.21218	0.04561
1632.92641	0.04523
1631.64064	0.04490
1630.35487	0.04461
1629.06910	0.04429
1627.78333	0.04389
1626.49757	0.04346
1625.21180	0.04309
1623.92603	0.04278
1622.64026	0.04244
1621.35449	0.04203
1620.06872	0.04160
1618.78295	0.04121
1617.49718	0.04084
1616.21142	0.04040
1614.92565	0.03992
1613.63988	0.03955
1612.35411	0.03934
1611.06834	0.03922
1609.78257	0.03909
1608.49680	0.03895
1607.21103	0.03881
1605.92526	0.03869
1604.63950	0.03858
1603.35373	0.03848
1602.06796	0.03837
1600.78219	0.03823
1599.49642	0.03810
1598.21065	0.03799
1596.92488	0.03796
1595.63911	0.03801
1594.35335	0.03813
1593.06758	0.03827
1591.78181	0.03841
1590.49604	0.03851
1589.21027	0.03857
1587.92450	0.03862
1586.63873	0.03869
1585.35296	0.03884
1584.06719	0.03909
1582.78143	0.03939
1581.49566	0.03967
1580.20989	0.03987
1578.92412	0.04006
1577.63835	0.04034
1576.35258	0.04066
1575.06681	0.04094
1573.78104	0.04120
1572.49528	0.04150
1571.20951	0.04188
1569.92374	0.04225
1568.63797	0.04252
1567.35220	0.04272
1566.06643	0.04291
1564.78066	0.04312
1563.49489	0.04339
1562.20912	0.04379
1560.92336	0.04432
1559.63759	0.04480
1558.35182	0.04504
1557.06605	0.04504
1555.78028	0.04502
1554.49451	0.04507
1553.20874	0.04518
1551.92297	0.04532
1550.63721	0.04550
1549.35144	0.04565
1548.06567	0.04574
1546.77990	0.04575
1545.49413	0.04573
1544.20836	0.04569
1542.92259	0.04565
1541.63682	0.04561
1540.35105	0.04548
1539.06529	0.04521
1537.77952	0.04484
1536.49375	0.04459
1535.20798	0.04455
1533.92221	0.04459
1532.63644	0.04458
1531.35067	0.04451
1530.06490	0.04448
1528.77914	0.04456
1527.49337	0.04472
1526.20760	0.04490
1524.92183	0.04507
1523.63606	0.04529
1522.35029	0.04554
1521.06452	0.04576
1519.77875	0.04593
1518.49298	0.04617
1517.20722	0.04653
1515.92145	0.04696
1514.63568	0.04742
1513.34991	0.04789
1512.06414	0.04841
1510.77837	0.04899
1509.49260	0.04969
1508.20683	0.05048
1506.92107	0.05125
1505.63530	0.05186
1504.34953	0.05232
1503.06376	0.05276
1501.77799	0.05324
1500.49222	0.05374
1499.20645	0.05424
1497.92068	0.05474
1496.63491	0.05516
1495.34915	0.05545
1494.06338	0.05562
1492.77761	0.05580
1491.49184	0.05609
1490.20607	0.05649
1488.92030	0.05701
1487.63453	0.05760
1486.34876	0.05826
1485.06299	0.05896
1483.77723	0.05969
1482.49146	0.06046
1481.20569	0.06125
1479.91992	0.06205
1478.63415	0.06289
1477.34838	0.06377
1476.06261	0.06471
1474.77684	0.06566
1473.49108	0.06654
1472.20531	0.06726
1470.91954	0.06780
1469.63377	0.06829
1468.34800	0.06884
1467.06223	0.06948
1465.77646	0.07012
1464.49069	0.07067
1463.20492	0.07112
1461.91916	0.07153
1460.63339	0.07199
1459.34762	0.07259
1458.06185	0.07328
1456.77608	0.07392
1455.49031	0.07440
1454.20454	0.07479
1452.91877	0.07516
1451.63301	0.07549
1450.34724	0.07576
1449.06147	0.07597
1447.77570	0.07613
1446.48993	0.07621
1445.20416	0.07617
1443.91839	0.07602
1442.63262	0.07572
1441.34685	0.07531
1440.06109	0.07483
1438.77532	0.07440
1437.48955	0.07407
1436.20378	0.07379
1434.91801	0.07358
1433.63224	0.07350
1432.34647	0.07364
1431.06070	0.07398
1429.77494	0.07444
1428.48917	0.07495
1427.20340	0.07556
1425.91763	0.07629
1424.63186	0.07714
1423.34609	0.07804
1422.06032	0.07897
1420.77455	0.07988
1419.48878	0.08070
1418.20302	0.08135
1416.91725	0.08185
1415.63148	0.08227
1414.34571	0.08264
1413.05994	0.08294
1411.77417	0.08313
1410.48840	0.08319
1409.20263	0.08310
1407.91687	0.08288
1406.63110	0.08254
1405.34533	0.08206
1404.05956	0.08141
1402.77379	0.08063
1401.48802	0.07977
1400.20225	0.07883
1398.91648	0.07780
1397.63071	0.07666
1396.34495	0.07545
1395.05918	0.07422
1393.77341	0.07299
1392.48764	0.07176
1391.20187	0.07054
1389.91610	0.06936
1388.63033	0.06826
1387.34456	0.06722
1386.05880	0.06621
1384.77303	0.06521
1383.48726	0.06424
1382.20149	0.06329
1380.91572	0.06236
1379.62995	0.06145
1378.34418	0.06050
1377.05841	0.05946
1375.77264	0.05831
1374.48688	0.05706
1373.20111	0.05576
1371.91534	0.05445
1370.62957	0.05313
1369.34380	0.05183
1368.05803	0.05056
1366.77226	0.04936
1365.48649	0.04826
1364.20073	0.04723
1362.91496	0.04623
1361.62919	0.04524
1360.34342	0.04429
1359.05765	0.04339
1357.77188	0.04259
1356.48611	0.04187
1355.20034	0.04124
1353.91457	0.04067
1352.62881	0.04015
1351.34304	0.03967
1350.05727	0.03919
1348.77150	0.03870
1347.48573	0.03822
1346.19996	0.03779
1344.91419	0.03741
1343.62842	0.03707
1342.34266	0.03674
1341.05689	0.03640
1339.77112	0.03608
1338.48535	0.03577
1337.19958	0.03550
1335.91381	0.03524
1334.62804	0.03498
1333.34227	0.03469
1332.05650	0.03434
1330.77074	0.03396
1329.48497	0.03358
1328.19920	0.03325
1326.91343	0.03299
1325.62766	0.03279
1324.34189	0.03262
1323.05612	0.03247
1321.77035	0.03228
1320.48459	0.03202
1319.19882	0.03173
1317.91305	0.03144
1316.62728	0.03117
1315.34151	0.03093
1314.05574	0.03069
1312.76997	0.03046
1311.48420	0.03026
1310.19843	0.03011
1308.91267	0.03000
1307.62690	0.02991
1306.34113	0.02978
1305.05536	0.02960
1303.76959	0.02936
1302.48382	0.02911
1301.19805	0.02890
1299.91228	0.02872
1298.62652	0.02854
1297.34075	0.02833
1296.05498	0.02812
1294.76921	0.02793
1293.48344	0.02780
1292.19767	0.02772
1290.91190	0.02764
1289.62613	0.02752
1288.34036	0.02736
1287.05460	0.02718
1285.76883	0.02700
1284.48306	0.02684
1283.19729	0.02670
1281.91152	0.02656
1280.62575	0.02644
1279.33998	0.02636
1278.05421	0.02633
1276.76845	0.02633
1275.48268	0.02632
1274.19691	0.02625
1272.91114	0.02612
1271.62537	0.02599
1270.33960	0.02586
1269.05383	0.02572
1267.76806	0.02558
1266.48229	0.02545
1265.19653	0.02536
1263.91076	0.02534
1262.62499	0.02531
1261.33922	0.02525
1260.05345	0.02515
1258.76768	0.02508
1257.48191	0.02509
1256.19614	0.02518
1254.91037	0.02526
1253.62461	0.02528
1252.33884	0.02522
1251.05307	0.02513
1249.76730	0.02505
1248.48153	0.02497
1247.19576	0.02488
1245.90999	0.02479
1244.62422	0.02473
1243.33846	0.02470
1242.05269	0.02469
1240.76692	0.02466
1239.48115	0.02460
1238.19538	0.02454
1236.90961	0.02450
1235.62384	0.02445
1234.33807	0.02438
1233.05230	0.02428
1231.76654	0.02417
1230.48077	0.02408
1229.19500	0.02401
1227.90923	0.02392
1226.62346	0.02382
1225.33769	0.02366
1224.05192	0.02347
1222.76615	0.02327
1221.48039	0.02311
1220.19462	0.02298
1218.90885	0.02284
1217.62308	0.02269
1216.33731	0.02257
1215.05154	0.02250
1213.76577	0.02249
1212.48000	0.02247
1211.19423	0.02241
1209.90847	0.02232
1208.62270	0.02223
1207.33693	0.02220
1206.05116	0.02222
1204.76539	0.02230
1203.47962	0.02239
1202.19385	0.02245
1200.90808	0.02246
1199.62232	0.02241
1198.33655	0.02238
1197.05078	0.02232
1195.76501	0.02222
1194.47924	0.02208
1193.19347	0.02195
1191.90770	0.02183
1190.62193	0.02173
1189.33616	0.02166
1188.05040	0.02162
1186.76463	0.02160
1185.47886	0.02156
1184.19309	0.02151
1182.90732	0.02147
1181.62155	0.02149
1180.33578	0.02156
1179.05001	0.02163
1177.76425	0.02165
1176.47848	0.02163
1175.19271	0.02163
1173.90694	0.02168
1172.62117	0.02176
1171.33540	0.02182
1170.04963	0.02187
1168.76386	0.02194
1167.47809	0.02206
1166.19233	0.02222
1164.90656	0.02235
1163.62079	0.02241
1162.33502	0.02238
1161.04925	0.02228
1159.76348	0.02218
1158.47771	0.02213
1157.19194	0.02214
1155.90618	0.02218
1154.62041	0.02227
1153.33464	0.02242
1152.04887	0.02266
1150.76310	0.02296
1149.47733	0.02327
1148.19156	0.02353
1146.90579	0.02377
1145.62002	0.02400
1144.33426	0.02426
1143.04849	0.02454
1141.76272	0.02487
1140.47695	0.02531
1139.19118	0.02588
1137.90541	0.02654
1136.61964	0.02727
1135.33387	0.02807
1134.04811	0.02900
1132.76234	0.03008
1131.47657	0.03128
1130.19080	0.03258
1128.90503	0.03396
1127.61926	0.03548
1126.33349	0.03720
1125.04772	0.03916
1123.76195	0.04130
1122.47619	0.04356
1121.19042	0.04584
1119.90465	0.04813
1118.61888	0.05046
1117.33311	0.05288
1116.04734	0.05539
1114.76157	0.05790
1113.47580	0.06033
1112.19004	0.06266
1110.90427	0.06494
1109.61850	0.06721
1108.33273	0.06942
1107.04696	0.07155
1105.76119	0.07361
1104.47542	0.07561
1103.18965	0.07753
1101.90388	0.07934
1100.61812	0.08104
1099.33235	0.08262
1098.04658	0.08408
1096.76081	0.08543
1095.47504	0.08671
1094.18927	0.08796
1092.90350	0.08918
1091.61773	0.09029
1090.33197	0.09125
1089.04620	0.09209
1087.76043	0.09294
1086.47466	0.09387
1085.18889	0.09488
1083.90312	0.09592
1082.61735	0.09697
1081.33158	0.09806
1080.04581	0.09922
1078.76005	0.10047
1077.47428	0.10185
1076.18851	0.10337
1074.90274	0.10504
1073.61697	0.10683
1072.33120	0.10874
1071.04543	0.11071
1069.75966	0.11272
1068.47390	0.11474
1067.18813	0.11674
1065.90236	0.11875
1064.61659	0.12079
1063.33082	0.12287
1062.04505	0.12497
1060.75928	0.12706
1059.47351	0.12916
1058.18774	0.13131
1056.90198	0.13351
1055.61621	0.13569
1054.33044	0.13780
1053.04467	0.13990
1051.75890	0.14206
1050.47313	0.14427
1049.18736	0.14653
1047.90159	0.14880
1046.61583	0.15112
1045.33006	0.15350
1044.04429	0.15591
1042.75852	0.15830
1041.47275	0.16068
1040.18698	0.16309
1038.90121	0.16553
1037.61544	0.16802
1036.32967	0.17055
1035.04391	0.17311
1033.75814	0.17564
1032.47237	0.17808
1031.18660	0.18033
1029.90083	0.18237
1028.61506	0.18416
1027.32929	0.18570
1026.04352	0.18699
1024.75775	0.18801
1023.47199	0.18879
1022.18622	0.18934
1020.90045	0.18969
1019.61468	0.18982
1018.32891	0.18972
1017.04314	0.18937
1015.75737	0.18877
1014.47160	0.18789
1013.18584	0.18670
1011.90007	0.18514
1010.61430	0.18323
1009.32853	0.18105
1008.04276	0.17863
1006.75699	0.17593
1005.47122	0.17289
1004.18545	0.16955
1002.89968	0.16600
1001.61392	0.16231
1000.32815	0.15851
999.04238	0.15457
997.75661	0.15050
996.47084	0.14633
995.18507	0.14215
993.89930	0.13797
992.61353	0.13382
991.32777	0.12976
990.04200	0.12586
988.75623	0.12212
987.47046	0.11848
986.18469	0.11493
984.89892	0.11153
983.61315	0.10834
982.32738	0.10531
981.04161	0.10237
979.75585	0.09948
978.47008	0.09668
977.18431	0.09405
975.89854	0.09170
974.61277	0.08971
973.32700	0.08805
972.04123	0.08664
970.75546	0.08549
969.46970	0.08467
968.18393	0.08424
966.89816	0.08418
965.61239	0.08436
964.32662	0.08470
963.04085	0.08507
961.75508	0.08536
960.46931	0.08541
959.18354	0.08507
957.89778	0.08431
956.61201	0.08321
955.32624	0.08189
954.04047	0.08041
952.75470	0.07882
951.46893	0.07720
950.18316	0.07561
948.89739	0.07407
947.61163	0.07253
946.32586	0.07100
945.04009	0.06949
943.75432	0.06805
942.46855	0.06668
941.18278	0.06540
939.89701	0.06420
938.61124	0.06310
937.32547	0.06205
936.03971	0.06100
934.75394	0.05996
933.46817	0.05899
932.18240	0.05813
930.89663	0.05736
929.61086	0.05661
928.32509	0.05584
927.03932	0.05503
925.75356	0.05423
924.46779	0.05353
923.18202	0.05296
921.89625	0.05249
920.61048	0.05204
919.32471	0.05155
918.03894	0.05102
916.75317	0.05045
915.46740	0.04988
914.18164	0.04929
912.89587	0.04871
911.61010	0.04816
910.32433	0.04763
909.03856	0.04709
907.75279	0.04651
906.46702	0.04594
905.18125	0.04544
903.89549	0.04505
902.60972	0.04478
901.32395	0.04453
900.03818	0.04422
898.75241	0.04382
897.46664	0.04348
896.18087	0.04329
894.89510	0.04323
893.60933	0.04312
892.32357	0.04283
891.03780	0.04238
889.75203	0.04196
888.46626	0.04177
887.18049	0.04195
885.89472	0.04259
884.60895	0.04380
883.32318	0.04559
882.03742	0.04773
880.75165	0.04983
879.46588	0.05152
878.18011	0.05269
876.89434	0.05356
875.60857	0.05444
874.32280	0.05545
873.03703	0.05637
871.75126	0.05688
870.46550	0.05679
869.17973	0.05614
867.89396	0.05504
866.60819	0.05358
865.32242	0.05186
864.03665	0.05006
862.75088	0.04835
861.46511	0.04684
860.17935	0.04557
858.89358	0.04453
857.60781	0.04370
856.32204	0.04298
855.03627	0.04230
853.75050	0.04167
852.46473	0.04111
851.17896	0.04065
849.89319	0.04022
848.60743	0.03980
847.32166	0.03940
846.03589	0.03907
844.75012	0.03882
843.46435	0.03862
842.17858	0.03840
840.89281	0.03810
839.60704	0.03777
838.32128	0.03748
837.03551	0.03725
835.74974	0.03705
834.46397	0.03687
833.17820	0.03669
831.89243	0.03652
830.60666	0.03637
829.32089	0.03622
828.03512	0.03606
826.74936	0.03590
825.46359	0.03574
824.17782	0.03560
822.89205	0.03548
821.60628	0.03540
820.32051	0.03539
819.03474	0.03545
817.74897	0.03554
816.46321	0.03556
815.17744	0.03550
813.89167	0.03539
812.60590	0.03527
811.32013	0.03516
810.03436	0.03506
808.74859	0.03501
807.46282	0.03501
806.17705	0.03504
804.89129	0.03502
803.60552	0.03493
802.31975	0.03478
801.03398	0.03467
799.74821	0.03466
798.46244	0.03475
797.17667	0.03486
795.89090	0.03491
794.60513	0.03491
793.31937	0.03490
792.03360	0.03490
790.74783	0.03484
789.46206	0.03472
788.17629	0.03456
786.89052	0.03443
785.60475	0.03433
784.31898	0.03424
783.03322	0.03418
781.74745	0.03415
780.46168	0.03415
779.17591	0.03412
777.89014	0.03402
776.60437	0.03388
775.31860	0.03375
774.03283	0.03364
772.74706	0.03351
771.46130	0.03335
770.17553	0.03315
768.88976	0.03302
767.60399	0.03303
766.31822	0.03317
765.03245	0.03339
763.74668	0.03359
762.46091	0.03377
761.17515	0.03393
759.88938	0.03409
758.60361	0.03415
757.31784	0.03403
756.03207	0.03376
754.74630	0.03348
753.46053	0.03334
752.17476	0.03334
750.88899	0.03340
749.60323	0.03342
748.31746	0.03342
747.03169	0.03344
745.74592	0.03345
744.46015	0.03341
743.17438	0.03324
741.88861	0.03293
740.60284	0.03255
739.31708	0.03222
738.03131	0.03204
736.74554	0.03197
735.45977	0.03194
734.17400	0.03191
732.88823	0.03187
731.60246	0.03184
730.31669	0.03182
729.03092	0.03184
727.74516	0.03192
726.45939	0.03204
725.17362	0.03217
723.88785	0.03230
722.60208	0.03243
721.31631	0.03249
720.03054	0.03248
718.74477	0.03244
717.45901	0.03234
716.17324	0.03222
714.88747	0.03209
713.60170	0.03193
712.31593	0.03174
711.03016	0.03158
709.74439	0.03147
708.45862	0.03142
707.17285	0.03141
705.88709	0.03142
704.60132	0.03143
703.31555	0.03141
702.02978	0.03134
700.74401	0.03126
699.45824	0.03123
698.17247	0.03128
696.88670	0.03137
695.60094	0.03145
694.31517	0.03149
693.02940	0.03147
691.74363	0.03140
690.45786	0.03128
689.17209	0.03118
687.88632	0.03112
686.60055	0.03109
685.31478	0.03103
684.02902	0.03093
682.74325	0.03079
681.45748	0.03066
680.17171	0.03054
678.88594	0.03045
677.60017	0.03040
676.31440	0.03039
675.02863	0.03038
673.74287	0.03036
672.45710	0.03046
671.17133	0.03092
669.88556	0.03125
668.59979	0.03012
667.31402	0.02995
666.02825	0.03126
664.74248	0.03081
663.45671	0.03016
662.17095	0.02990
660.88518	0.02973
659.59941	0.02957
658.31364	0.02948
657.02787	0.02947
655.74210	0.02949
654.45633	0.02949
653.17056	0.02945
651.88480	0.02942
650.59903	0.02946
649.31326	0.02956
648.02749	0.02969
646.74172	0.02974
645.45595	0.02971
644.17018	0.02966
642.88441	0.02965
641.59864	0.02968
640.31288	0.02972
639.02711	0.02976
637.74134	0.02983
636.45557	0.02992
635.16980	0.03004
633.88403	0.03014
632.59826	0.03017
631.31249	0.03020
630.02673	0.03045
628.74096	0.03089
627.45519	0.03090
626.16942	0.03174
624.88365	0.03307
623.59788	0.03432
622.31211	0.03541
621.02634	0.03657
619.74057	0.03778
618.45481	0.03868
617.16904	0.03906
615.88327	0.03924
614.59750	0.03979
613.31173	0.04113
612.02596	0.04359
610.74019	0.04755
609.45442	0.05312
608.16866	0.05960
606.88289	0.06558
605.59712	0.06991
604.31135	0.07243
603.02558	0.07370
601.73981	0.07434
600.45404	0.07457
599.16827	0.07428
597.88250	0.07335
596.59674	0.07175
595.31097	0.06965
594.02520	0.06734
592.73943	0.06519
591.45366	0.06350
590.16789	0.06246
588.88212	0.06213
587.59635	0.06236
586.31059	0.06291
585.02482	0.06360
583.73905	0.06444
582.45328	0.06560
581.16751	0.06714
579.88174	0.06893
578.59597	0.07073
577.31020	0.07243
576.02443	0.07404
574.73867	0.07562
573.45290	0.07723
572.16713	0.07895
570.88136	0.08088
569.59559	0.08314
568.30982	0.08583
567.02405	0.08892
565.73828	0.09216
564.45251	0.09509
563.16675	0.09720
561.88098	0.09823
560.59521	0.09818
559.30944	0.09714
558.02367	0.09515
556.73790	0.09225
555.45213	0.08859
554.16636	0.08447
552.88060	0.08028
551.59483	0.07633
550.30906	0.07277
549.02329	0.06962
547.73752	0.06683
546.45175	0.06436
545.16598	0.06217
543.88021	0.06019
542.59444	0.05836
541.30868	0.05666
540.02291	0.05520
538.73714	0.05398
537.45137	0.05290
536.16560	0.05181
534.87983	0.05068
533.59406	0.04959
532.30829	0.04858
531.02253	0.04767
529.73676	0.04684
528.45099	0.04609
527.16522	0.04540
525.87945	0.04475
524.59368	0.04414
523.30791	0.04360
522.02214	0.04308
520.73637	0.04254
519.45061	0.04194
518.16484	0.04130
516.87907	0.04069
515.59330	0.04013
514.30753	0.03958
513.02176	0.03902
511.73599	0.03850
510.45022	0.03809
509.16446	0.03780
507.87869	0.03751
506.59292	0.03711
505.30715	0.03660
504.02138	0.03611
502.73561	0.03575
501.44984	0.03556
500.16407	0.03547
498.87830	0.03541
497.59254	0.03533
496.30677	0.03516
495.02100	0.03486
493.73523	0.03446
492.44946	0.03408
491.16369	0.03381
489.87792	0.03366
488.59215	0.03357
487.30639	0.03347
486.02062	0.03338
484.73485	0.03333
483.44908	0.03334
482.16331	0.03340
480.87754	0.03353
479.59177	0.03373
478.30600	0.03399
477.02023	0.03430
475.73447	0.03460
474.44870	0.03486
473.16293	0.03507
471.87716	0.03522
470.59139	0.03533
469.30562	0.03536
468.01985	0.03530
466.73408	0.03512
465.44832	0.03487
464.16255	0.03461
462.87678	0.03437
461.59101	0.03414
460.30524	0.03384
459.01947	0.03339
457.73370	0.03280
456.44793	0.03215
455.16216	0.03158
453.87640	0.03116
452.59063	0.03087
451.30486	0.03064
450.01909	0.03044
448.73332	0.03024
447.44755	0.03002
446.16178	0.02976
444.87601	0.02945
443.59025	0.02917
442.30448	0.02895
441.01871	0.02875
439.73294	0.02855
438.44717	0.02834
437.16140	0.02813
435.87563	0.02796
434.58986	0.02783
433.30409	0.02779
432.01833	0.02783
430.73256	0.02789
429.44679	0.02791
428.16102	0.02784
426.87525	0.02768
425.58948	0.02744
424.30371	0.02716
423.01794	0.02685
421.73218	0.02655
420.44641	0.02626
419.16064	0.02599
417.87487	0.02572
416.58910	0.02548
415.30333	0.02526
414.01756	0.02508
412.73179	0.02489
411.44602	0.02469
410.16026	0.02447
408.87449	0.02428
407.58872	0.02416
406.30295	0.02412
405.01718	0.02413
403.73141	0.02413
402.44564	0.02414
401.15987	0.02417
399.87411	0.02424
