3997.45528 0.05113
3996.16951 0.05063
3994.88374 0.04982
3993.59798 0.04903
3992.31221 0.04863
3991.02644 0.04874
3989.74067 0.04931
3988.45490 0.05013
3987.16913 0.05084
3985.88336 0.05109
3984.59759 0.05074
3983.31183 0.05011
3982.02606 0.04974
3980.74029 0.04992
3979.45452 0.05035
3978.16875 0.05049
3976.88298 0.05015
3975.59721 0.04963
3974.31144 0.04932
3973.02567 0.04933
3971.73991 0.04945
3970.45414 0.04937
3969.16837 0.04890
3967.88260 0.04815
3966.59683 0.04757
3965.31106 0.04763
3964.02529 0.04841
3962.73952 0.04955
3961.45376 0.05058
3960.16799 0.05123
3958.88222 0.05136
3957.59645 0.05090
3956.31068 0.05002
3955.02491 0.04910
3953.73914 0.04848
3952.45337 0.04834
3951.16760 0.04878
3949.88184 0.04984
3948.59607 0.05112
3947.31030 0.05200
3946.02453 0.05224
3944.73876 0.05216
3943.45299 0.05196
3942.16722 0.05144
3940.88145 0.05048
3939.59569 0.04948
3938.30992 0.04911
3937.02415 0.04969
3935.73838 0.05095
3934.45261 0.05220
3933.16684 0.05279
3931.88107 0.05243
3930.59530 0.05137
3929.30953 0.05029
3928.02377 0.04976
3926.73800 0.04979
3925.45223 0.04983
3924.16646 0.04945
3922.88069 0.04884
3921.59492 0.04845
3920.30915 0.04841
3919.02338 0.04862
3917.73762 0.04896
3916.45185 0.04930
3915.16608 0.04938
3913.88031 0.04907
3912.59454 0.04851
3911.30877 0.04803
3910.02300 0.04793
3908.73723 0.04833
3907.45146 0.04912
3906.16570 0.05000
3904.87993 0.05056
3903.59416 0.05050
3902.30839 0.04995
3901.02262 0.04945
3899.73685 0.04951
3898.45108 0.05028
3897.16531 0.05135
3895.87955 0.05212
3894.59378 0.05212
3893.30801 0.05130
3892.02224 0.04998
3890.73647 0.04869
3889.45070 0.04815
3888.16493 0.04886
3886.87916 0.05035
3885.59339 0.05147
3884.30763 0.05160
3883.02186 0.05122
3881.73609 0.05105
3880.45032 0.05108
3879.16455 0.05085
3877.87878 0.05019
3876.59301 0.04931
3875.30724 0.04841
3874.02148 0.04760
3872.73571 0.04715
3871.44994 0.04721
3870.16417 0.04741
3868.87840 0.04741
3867.59263 0.04751
3866.30686 0.04800
3865.02109 0.04847
3863.73532 0.04837
3862.44956 0.04783
3861.16379 0.04756
3859.87802 0.04790
3858.59225 0.04848
3857.30648 0.04877
3856.02071 0.04876
3854.73494 0.04865
3853.44917 0.04832
3852.16341 0.04770
3850.87764 0.04716
3849.59187 0.04703
3848.30610 0.04710
3847.02033 0.04694
3845.73456 0.04660
3844.44879 0.04659
3843.16302 0.04705
3841.87725 0.04740
3840.59149 0.04706
3839.30572 0.04626
3838.01995 0.04590
3836.73418 0.04667
3835.44841 0.04844
3834.16264 0.05022
3832.87687 0.05091
3831.59110 0.05029
3830.30534 0.04914
3829.01957 0.04834
3827.73380 0.04798
3826.44803 0.04760
3825.16226 0.04710
3823.87649 0.04700
3822.59072 0.04753
3821.30495 0.04800
3820.01918 0.04775
3818.73342 0.04713
3817.44765 0.04687
3816.16188 0.04686
3814.87611 0.04657
3813.59034 0.04608
3812.30457 0.04596
3811.01880 0.04643
3809.73303 0.04723
3808.44726 0.04781
3807.16150 0.04766
3805.87573 0.04699
3804.58996 0.04691
3803.30419 0.04818
3802.01842 0.05005
3800.73265 0.05104
3799.44688 0.05062
3798.16111 0.04937
3796.87535 0.04794
3795.58958 0.04672
3794.30381 0.04618
3793.01804 0.04669
3791.73227 0.04811
3790.44650 0.04972
3789.16073 0.05065
3787.87496 0.05029
3786.58919 0.04876
3785.30343 0.04680
3784.01766 0.04512
3782.73189 0.04404
3781.44612 0.04356
3780.16035 0.04364
3778.87458 0.04417
3777.58881 0.04482
3776.30304 0.04522
3775.01728 0.04527
3773.73151 0.04528
3772.44574 0.04561
3771.15997 0.04629
3769.87420 0.04701
3768.58843 0.04750
3767.30266 0.04746
3766.01689 0.04663
3764.73112 0.04506
3763.44536 0.04355
3762.15959 0.04313
3760.87382 0.04402
3759.58805 0.04547
3758.30228 0.04644
3757.01651 0.04631
3755.73074 0.04528
3754.44497 0.04418
3753.15921 0.04372
3751.87344 0.04404
3750.58767 0.04474
3749.30190 0.04512
3748.01613 0.04494
3746.73036 0.04488
3745.44459 0.04560
3744.15882 0.04665
3742.87305 0.04727
3741.58729 0.04722
3740.30152 0.04654
3739.01575 0.04537
3737.72998 0.04405
3736.44421 0.04297
3735.15844 0.04240
3733.87267 0.04248
3732.58690 0.04279
3731.30114 0.04251
3730.01537 0.04149
3728.72960 0.04037
3727.44383 0.03972
3726.15806 0.03956
3724.87229 0.03984
3723.58652 0.04062
3722.30075 0.04177
3721.01498 0.04305
3719.72922 0.04435
3718.44345 0.04559
3717.15768 0.04645
3715.87191 0.04654
3714.58614 0.04590
3713.30037 0.04503
3712.01460 0.04435
3710.72883 0.04384
3709.44307 0.04322
3708.15730 0.04232
3706.87153 0.04133
3705.58576 0.04070
3704.29999 0.04084
3703.01422 0.04161
3701.72845 0.04240
3700.44268 0.04269
3699.15691 0.04262
3697.87115 0.04277
3696.58538 0.04341
3695.29961 0.04429
3694.01384 0.04510
3692.72807 0.04568
3691.44230 0.04608
3690.15653 0.04638
3688.87076 0.04651
3687.58500 0.04649
3686.29923 0.04651
3685.01346 0.04650
3683.72769 0.04604
3682.44192 0.04499
3681.15615 0.04384
3679.87038 0.04314
3678.58461 0.04303
3677.29884 0.04322
3676.01308 0.04312
3674.72731 0.04256
3673.44154 0.04239
3672.15577 0.04357
3670.87000 0.04567
3669.58423 0.04723
3668.29846 0.04727
3667.01269 0.04598
3665.72693 0.04423
3664.44116 0.04293
3663.15539 0.04269
3661.86962 0.04344
3660.58385 0.04456
3659.29808 0.04544
3658.01231 0.04600
3656.72654 0.04640
3655.44077 0.04662
3654.15501 0.04651
3652.86924 0.04602
3651.58347 0.04530
3650.29770 0.04463
3649.01193 0.04442
3647.72616 0.04502
3646.44039 0.04636
3645.15462 0.04785
3643.86886 0.04876
3642.58309 0.04874
3641.29732 0.04814
3640.01155 0.04757
3638.72578 0.04739
3637.44001 0.04752
3636.15424 0.04775
3634.86847 0.04806
3633.58270 0.04855
3632.29694 0.04929
3631.01117 0.05020
3629.72540 0.05101
3628.43963 0.05145
3627.15386 0.05166
3625.86809 0.05189
3624.58232 0.05206
3623.29655 0.05189
3622.01079 0.05146
3620.72502 0.05119
3619.43925 0.05135
3618.15348 0.05184
3616.86771 0.05237
3615.58194 0.05265
3614.29617 0.05265
3613.01040 0.05264
3611.72463 0.05293
3610.43887 0.05352
3609.15310 0.05402
3607.86733 0.05407
3606.58156 0.05377
3605.29579 0.05346
3604.01002 0.05330
3602.72425 0.05329
3601.43848 0.05344
3600.15272 0.05383
3598.86695 0.05455
3597.58118 0.05554
3596.29541 0.05653
3595.00964 0.05712
3593.72387 0.05720
3592.43810 0.05716
3591.15233 0.05757
3589.86656 0.05860
3588.58080 0.05974
3587.29503 0.06042
3586.00926 0.06056
3584.72349 0.06052
3583.43772 0.06064
3582.15195 0.06082
3580.86618 0.06079
3579.58041 0.06044
3578.29464 0.06017
3577.00888 0.06050
3575.72311 0.06156
3574.43734 0.06278
3573.15157 0.06352
3571.86580 0.06372
3570.58003 0.06385
3569.29426 0.06415
3568.00849 0.06416
3566.72273 0.06339
3565.43696 0.06205
3564.15119 0.06097
3562.86542 0.06071
3561.57965 0.06111
3560.29388 0.06168
3559.00811 0.06203
3557.72234 0.06223
3556.43657 0.06259
3555.15081 0.06331
3553.86504 0.06419
3552.57927 0.06475
3551.29350 0.06477
3550.00773 0.06458
3548.72196 0.06477
3547.43619 0.06570
3546.15042 0.06726
3544.86466 0.06905
3543.57889 0.07052
3542.29312 0.07112
3541.00735 0.07064
3539.72158 0.06941
3538.43581 0.06813
3537.15004 0.06741
3535.86427 0.06742
3534.57850 0.06794
3533.29274 0.06868
3532.00697 0.06939
3530.72120 0.06995
3529.43543 0.07027
3528.14966 0.07034
3526.86389 0.07031
3525.57812 0.07043
3524.29235 0.07078
3523.00659 0.07118
3521.72082 0.07130
3520.43505 0.07110
3519.14928 0.07091
3517.86351 0.07105
3516.57774 0.07148
3515.29197 0.07180
3514.00620 0.07174
3512.72043 0.07138
3511.43467 0.07111
3510.14890 0.07116
3508.86313 0.07145
3507.57736 0.07172
3506.29159 0.07186
3505.00582 0.07202
3503.72005 0.07249
3502.43428 0.07335
3501.14852 0.07443
3499.86275 0.07544
3498.57698 0.07630
3497.29121 0.07710
3496.00544 0.07794
3494.71967 0.07877
3493.43390 0.07946
3492.14813 0.07974
3490.86236 0.07932
3489.57660 0.07817
3488.29083 0.07683
3487.00506 0.07606
3485.71929 0.07618
3484.43352 0.07688
3483.14775 0.07762
3481.86198 0.07815
3480.57621 0.07852
3479.29045 0.07878
3478.00468 0.07899
3476.71891 0.07914
3475.43314 0.07920
3474.14737 0.07905
3472.86160 0.07866
3471.57583 0.07813
3470.29006 0.07770
3469.00429 0.07756
3467.71853 0.07782
3466.43276 0.07851
3465.14699 0.07941
3463.86122 0.08009
3462.57545 0.08023
3461.28968 0.07991
3460.00391 0.07954
3458.71814 0.07941
3457.43238 0.07948
3456.14661 0.07955
3454.86084 0.07956
3453.57507 0.07967
3452.28930 0.08012
3451.00353 0.08099
3449.71776 0.08205
3448.43199 0.08301
3447.14622 0.08364
3445.86046 0.08390
3444.57469 0.08380
3443.28892 0.08334
3442.00315 0.08265
3440.71738 0.08199
3439.43161 0.08164
3438.14584 0.08177
3436.86007 0.08242
3435.57431 0.08351
3434.28854 0.08471
3433.00277 0.08545
3431.71700 0.08537
3430.43123 0.08459
3429.14546 0.08369
3427.85969 0.08324
3426.57392 0.08346
3425.28815 0.08426
3424.00239 0.08530
3422.71662 0.08613
3421.43085 0.08632
3420.14508 0.08575
3418.85931 0.08479
3417.57354 0.08407
3416.28777 0.08405
3415.00200 0.08470
3413.71624 0.08568
3412.43047 0.08664
3411.14470 0.08734
3409.85893 0.08766
3408.57316 0.08754
3407.28739 0.08714
3406.00162 0.08672
3404.71585 0.08653
3403.43008 0.08667
3402.14432 0.08704
3400.85855 0.08739
3399.57278 0.08745
3398.28701 0.08721
3397.00124 0.08703
3395.71547 0.08721
3394.42970 0.08771
3393.14393 0.08831
3391.85817 0.08888
3390.57240 0.08949
3389.28663 0.09012
3388.00086 0.09052
3386.71509 0.09053
3385.42932 0.09029
3384.14355 0.09017
3382.85778 0.09033
3381.57201 0.09067
3380.28625 0.09104
3379.00048 0.09140
3377.71471 0.09171
3376.42894 0.09191
3375.14317 0.09204
3373.85740 0.09220
3372.57163 0.09241
3371.28586 0.09254
3370.00010 0.09242
3368.71433 0.09198
3367.42856 0.09127
3366.14279 0.09046
3364.85702 0.08981
3363.57125 0.08958
3362.28548 0.08985
3360.99971 0.09046
3359.71394 0.09107
3358.42818 0.09147
3357.14241 0.09171
3355.85664 0.09184
3354.57087 0.09172
3353.28510 0.09114
3351.99933 0.09014
3350.71356 0.08915
3349.42779 0.08861
3348.14202 0.08859
3346.85626 0.08891
3345.57049 0.08935
3344.28472 0.08984
3342.99895 0.09028
3341.71318 0.09047
3340.42741 0.09023
3339.14164 0.08973
3337.85587 0.08947
3336.57011 0.08982
3335.28434 0.09067
3333.99857 0.09155
3332.71280 0.09209
3331.42703 0.09229
3330.14126 0.09231
3328.85549 0.09222
3327.56972 0.09203
3326.28395 0.09173
3324.99819 0.09142
3323.71242 0.09122
3322.42665 0.09121
3321.14088 0.09141
3319.85511 0.09172
3318.56934 0.09204
3317.28357 0.09232
3315.99780 0.09251
3314.71204 0.09255
3313.42627 0.09240
3312.14050 0.09211
3310.85473 0.09186
3309.56896 0.09176
3308.28319 0.09178
3306.99742 0.09184
3305.71165 0.09192
3304.42588 0.09202
3303.14012 0.09203
3301.85435 0.09183
3300.56858 0.09147
3299.28281 0.09122
3297.99704 0.09127
3296.71127 0.09149
3295.42550 0.09155
3294.13973 0.09125
3292.85397 0.09075
3291.56820 0.09043
3290.28243 0.09050
3288.99666 0.09076
3287.71089 0.09091
3286.42512 0.09087
3285.13935 0.09092
3283.85358 0.09119
3282.56781 0.09150
3281.28205 0.09150
3279.99628 0.09105
3278.71051 0.09027
3277.42474 0.08949
3276.13897 0.08907
3274.85320 0.08921
3273.56743 0.08979
3272.28166 0.09036
3270.99590 0.09049
3269.71013 0.09001
3268.42436 0.08905
3267.13859 0.08801
3265.85282 0.08736
3264.56705 0.08742
3263.28128 0.08807
3261.99551 0.08879
3260.70974 0.08895
3259.42398 0.08843
3258.13821 0.08777
3256.85244 0.08764
3255.56667 0.08817
3254.28090 0.08886
3252.99513 0.08918
3251.70936 0.08899
3250.42359 0.08856
3249.13783 0.08830
3247.85206 0.08846
3246.56629 0.08895
3245.28052 0.08945
3243.99475 0.08961
3242.70898 0.08935
3241.42321 0.08887
3240.13744 0.08847
3238.85167 0.08825
3237.56591 0.08806
3236.28014 0.08765
3234.99437 0.08705
3233.70860 0.08650
3232.42283 0.08615
3231.13706 0.08590
3229.85129 0.08565
3228.56552 0.08552
3227.27976 0.08568
3225.99399 0.08603
3224.70822 0.08621
3223.42245 0.08598
3222.13668 0.08549
3220.85091 0.08510
3219.56514 0.08512
3218.27937 0.08561
3216.99360 0.08636
3215.70784 0.08697
3214.42207 0.08715
3213.13630 0.08691
3211.85053 0.08653
3210.56476 0.08630
3209.27899 0.08625
3207.99322 0.08619
3206.70745 0.08597
3205.42169 0.08557
3204.13592 0.08501
3202.85015 0.08430
3201.56438 0.08357
3200.27861 0.08306
3198.99284 0.08302
3197.70707 0.08352
3196.42130 0.08430
3195.13553 0.08500
3193.84977 0.08538
3192.56400 0.08540
3191.27823 0.08510
3189.99246 0.08454
3188.70669 0.08388
3187.42092 0.08330
3186.13515 0.08298
3184.84938 0.08291
3183.56362 0.08300
3182.27785 0.08311
3180.99208 0.08313
3179.70631 0.08299
3178.42054 0.08271
3177.13477 0.08245
3175.84900 0.08229
3174.56323 0.08217
3173.27746 0.08194
3171.99170 0.08163
3170.70593 0.08143
3169.42016 0.08143
3168.13439 0.08152
3166.84862 0.08159
3165.56285 0.08165
3164.27708 0.08176
3162.99131 0.08177
3161.70555 0.08143
3160.41978 0.08079
3159.13401 0.08017
3157.84824 0.07990
3156.56247 0.08015
3155.27670 0.08078
3153.99093 0.08148
3152.70516 0.08188
3151.41939 0.08175
3150.13363 0.08116
3148.84786 0.08037
3147.56209 0.07965
3146.27632 0.07913
3144.99055 0.07875
3143.70478 0.07842
3142.41901 0.07819
3141.13324 0.07822
3139.84748 0.07852
3138.56171 0.07887
3137.27594 0.07901
3135.99017 0.07884
3134.70440 0.07840
3133.41863 0.07779
3132.13286 0.07707
3130.84709 0.07638
3129.56132 0.07585
3128.27556 0.07562
3126.98979 0.07567
3125.70402 0.07577
3124.41825 0.07570
3123.13248 0.07545
3121.84671 0.07536
3120.56094 0.07565
3119.27517 0.07612
3117.98940 0.07632
3116.70364 0.07606
3115.41787 0.07556
3114.13210 0.07516
3112.84633 0.07498
3111.56056 0.07493
3110.27479 0.07485
3108.98902 0.07473
3107.70325 0.07457
3106.41749 0.07441
3105.13172 0.07427
3103.84595 0.07422
3102.56018 0.07436
3101.27441 0.07468
3099.98864 0.07501
3098.70287 0.07515
3097.41710 0.07502
3096.13133 0.07472
3094.84557 0.07441
3093.55980 0.07419
3092.27403 0.07404
3090.98826 0.07389
3089.70249 0.07367
3088.41672 0.07337
3087.13095 0.07309
3085.84518 0.07300
3084.55942 0.07311
3083.27365 0.07334
3081.98788 0.07353
3080.70211 0.07361
3079.41634 0.07356
3078.13057 0.07336
3076.84480 0.07303
3075.55903 0.07257
3074.27326 0.07204
3072.98750 0.07155
3071.70173 0.07126
3070.41596 0.07131
3069.13019 0.07171
3067.84442 0.07229
3066.55865 0.07274
3065.27288 0.07286
3063.98711 0.07269
3062.70135 0.07250
3061.41558 0.07244
3060.12981 0.07244
3058.84404 0.07230
3057.55827 0.07191
3056.27250 0.07139
3054.98673 0.07093
3053.70096 0.07065
3052.41519 0.07054
3051.12943 0.07048
3049.84366 0.07039
3048.55789 0.07029
3047.27212 0.07025
3045.98635 0.07028
3044.70058 0.07031
3043.41481 0.07026
3042.12904 0.07004
3040.84328 0.06960
3039.55751 0.06907
3038.27174 0.06869
3036.98597 0.06854
3035.70020 0.06851
3034.41443 0.06839
3033.12866 0.06813
3031.84289 0.06788
3030.55712 0.06780
3029.27136 0.06789
3027.98559 0.06803
3026.69982 0.06810
3025.41405 0.06805
3024.12828 0.06793
3022.84251 0.06779
3021.55674 0.06766
3020.27097 0.06750
3018.98521 0.06730
3017.69944 0.06715
3016.41367 0.06709
3015.12790 0.06708
3013.84213 0.06701
3012.55636 0.06684
3011.27059 0.06663
3009.98482 0.06650
3008.69905 0.06652
3007.41329 0.06662
3006.12752 0.06663
3004.84175 0.06639
3003.55598 0.06599
3002.27021 0.06565
3000.98444 0.06550
2999.69867 0.06541
2998.41290 0.06526
2997.12714 0.06508
2995.84137 0.06495
2994.55560 0.06484
2993.26983 0.06465
2991.98406 0.06441
2990.69829 0.06421
2989.41252 0.06418
2988.12675 0.06445
2986.84098 0.06506
2985.55522 0.06584
2984.26945 0.06648
2982.98368 0.06674
2981.69791 0.06665
2980.41214 0.06647
2979.12637 0.06648
2977.84060 0.06689
2976.55483 0.06770
2975.26907 0.06871
2973.98330 0.06957
2972.69753 0.07007
2971.41176 0.07027
2970.12599 0.07044
2968.84022 0.07078
2967.55445 0.07130
2966.26868 0.07189
2964.98291 0.07246
2963.69715 0.07300
2962.41138 0.07349
2961.12561 0.07381
2959.83984 0.07386
2958.55407 0.07371
2957.26830 0.07371
2955.98253 0.07420
2954.69676 0.07521
2953.41100 0.07641
2952.12523 0.07746
2950.83946 0.07813
2949.55369 0.07839
2948.26792 0.07826
2946.98215 0.07789
2945.69638 0.07757
2944.41061 0.07750
2943.12484 0.07770
2941.83908 0.07797
2940.55331 0.07801
2939.26754 0.07767
2937.98177 0.07703
2936.69600 0.07634
2935.41023 0.07579
2934.12446 0.07537
2932.83869 0.07494
2931.55293 0.07448
2930.26716 0.07397
2928.98139 0.07335
2927.69562 0.07242
2926.40985 0.07096
2925.12408 0.06882
2923.83831 0.06588
2922.55254 0.06211
2921.26677 0.05766
2919.98101 0.05294
2918.69524 0.04872
2917.40947 0.04594
2916.12370 0.04545
2914.83793 0.04746
2913.55216 0.05130
2912.26639 0.05573
2910.98062 0.05970
2909.69486 0.06278
2908.40909 0.06497
2907.12332 0.06637
2905.83755 0.06710
2904.55178 0.06743
2903.26601 0.06760
2901.98024 0.06765
2900.69447 0.06759
2899.40870 0.06752
2898.12294 0.06764
2896.83717 0.06794
2895.55140 0.06822
2894.26563 0.06826
2892.97986 0.06805
2891.69409 0.06774
2890.40832 0.06751
2889.12255 0.06733
2887.83678 0.06706
2886.55102 0.06670
2885.26525 0.06638
2883.97948 0.06631
2882.69371 0.06653
2881.40794 0.06691
2880.12217 0.06729
2878.83640 0.06751
2877.55063 0.06760
2876.26487 0.06771
2874.97910 0.06797
2873.69333 0.06830
2872.40756 0.06861
2871.12179 0.06889
2869.83602 0.06913
2868.55025 0.06922
2867.26448 0.06898
2865.97871 0.06844
2864.69295 0.06776
2863.40718 0.06708
2862.12141 0.06640
2860.83564 0.06568
2859.54987 0.06488
2858.26410 0.06390
2856.97833 0.06247
2855.69256 0.06026
2854.40680 0.05701
2853.12103 0.05284
2851.83526 0.04840
2850.54949 0.04489
2849.26372 0.04355
2847.97795 0.04490
2846.69218 0.04827
2845.40641 0.05228
2844.12064 0.05570
2842.83488 0.05805
2841.54911 0.05941
2840.26334 0.06005
2838.97757 0.06025
2837.69180 0.06020
2836.40603 0.06002
2835.12026 0.05981
2833.83449 0.05959
2832.54873 0.05934
2831.26296 0.05904
2829.97719 0.05871
2828.69142 0.05839
2827.40565 0.05814
2826.11988 0.05790
2824.83411 0.05758
2823.54834 0.05718
2822.26257 0.05677
2820.97681 0.05651
2819.69104 0.05641
2818.40527 0.05640
2817.11950 0.05633
2815.83373 0.05617
2814.54796 0.05598
2813.26219 0.05583
2811.97642 0.05575
2810.69066 0.05564
2809.40489 0.05543
2808.11912 0.05513
2806.83335 0.05480
2805.54758 0.05450
2804.26181 0.05429
2802.97604 0.05422
2801.69027 0.05428
2800.40450 0.05437
2799.11874 0.05443
2797.83297 0.05447
2796.54720 0.05456
2795.26143 0.05460
2793.97566 0.05444
2792.68989 0.05404
2791.40412 0.05359
2790.11835 0.05330
2788.83259 0.05323
2787.54682 0.05322
2786.26105 0.05316
2784.97528 0.05308
2783.68951 0.05311
2782.40374 0.05324
2781.11797 0.05335
2779.83220 0.05330
2778.54643 0.05313
2777.26067 0.05298
2775.97490 0.05291
2774.68913 0.05282
2773.40336 0.05256
2772.11759 0.05210
2770.83182 0.05164
2769.54605 0.05136
2768.26028 0.05130
2766.97452 0.05137
2765.68875 0.05148
2764.40298 0.05153
2763.11721 0.05147
2761.83144 0.05132
2760.54567 0.05119
2759.25990 0.05112
2757.97413 0.05109
2756.68836 0.05102
2755.40260 0.05093
2754.11683 0.05084
2752.83106 0.05072
2751.54529 0.05052
2750.25952 0.05023
2748.97375 0.04998
2747.68798 0.04984
2746.40221 0.04978
2745.11645 0.04975
2743.83068 0.04977
2742.54491 0.04988
2741.25914 0.05011
2739.97337 0.05036
2738.68760 0.05046
2737.40183 0.05029
2736.11606 0.04995
2734.83029 0.04968
2733.54453 0.04960
2732.25876 0.04959
2730.97299 0.04949
2729.68722 0.04934
2728.40145 0.04930
2727.11568 0.04939
2725.82991 0.04949
2724.54414 0.04950
2723.25838 0.04944
2721.97261 0.04937
2720.68684 0.04928
2719.40107 0.04917
2718.11530 0.04910
2716.82953 0.04912
2715.54376 0.04914
2714.25799 0.04906
2712.97222 0.04883
2711.68646 0.04856
2710.40069 0.04839
2709.11492 0.04833
2707.82915 0.04827
2706.54338 0.04810
2705.25761 0.04779
2703.97184 0.04741
2702.68607 0.04712
2701.40031 0.04705
2700.11454 0.04719
2698.82877 0.04743
2697.54300 0.04764
2696.25723 0.04778
2694.97146 0.04787
2693.68569 0.04796
2692.39992 0.04805
2691.11415 0.04805
2689.82839 0.04793
2688.54262 0.04775
2687.25685 0.04762
2685.97108 0.04757
2684.68531 0.04752
2683.39954 0.04736
2682.11377 0.04709
2680.82800 0.04673
2679.54224 0.04636
2678.25647 0.04605
2676.97070 0.04588
2675.68493 0.04585
2674.39916 0.04587
2673.11339 0.04584
2671.82762 0.04574
2670.54185 0.04560
2669.25608 0.04554
2667.97032 0.04564
2666.68455 0.04587
2665.39878 0.04612
2664.11301 0.04625
2662.82724 0.04622
2661.54147 0.04613
2660.25570 0.04611
2658.96993 0.04618
2657.68417 0.04622
2656.39840 0.04610
2655.11263 0.04580
2653.82686 0.04541
2652.54109 0.04506
2651.25532 0.04477
2649.96955 0.04448
2648.68378 0.04416
2647.39801 0.04390
2646.11225 0.04381
2644.82648 0.04390
2643.54071 0.04394
2642.25494 0.04379
2640.96917 0.04351
2639.68340 0.04330
2638.39763 0.04321
2637.11186 0.04308
2635.82609 0.04275
2634.54033 0.04233
2633.25456 0.04200
2631.96879 0.04182
2630.68302 0.04167
2629.39725 0.04142
2628.11148 0.04111
2626.82571 0.04088
2625.53994 0.04084
2624.25418 0.04091
2622.96841 0.04088
2621.68264 0.04064
2620.39687 0.04031
2619.11110 0.04010
2617.82533 0.04000
2616.53956 0.03986
2615.25379 0.03956
2613.96802 0.03922
2612.68226 0.03889
2611.39649 0.03855
2610.11072 0.03825
2608.82495 0.03813
2607.53918 0.03828
2606.25341 0.03856
2604.96764 0.03873
2603.68187 0.03863
2602.39611 0.03830
2601.11034 0.03793
2599.82457 0.03771
2598.53880 0.03765
2597.25303 0.03756
2595.96726 0.03735
2594.68149 0.03713
2593.39572 0.03716
2592.10995 0.03753
2590.82419 0.03811
2589.53842 0.03851
2588.25265 0.03848
2586.96688 0.03805
2585.68111 0.03761
2584.39534 0.03746
2583.10957 0.03754
2581.82380 0.03757
2580.53804 0.03743
2579.25227 0.03724
2577.96650 0.03719
2576.68073 0.03725
2575.39496 0.03732
2574.10919 0.03735
2572.82342 0.03738
2571.53765 0.03735
2570.25188 0.03714
2568.96612 0.03673
2567.68035 0.03639
2566.39458 0.03635
2565.10881 0.03659
2563.82304 0.03682
2562.53727 0.03679
2561.25150 0.03645
2559.96573 0.03593
2558.67997 0.03543
2557.39420 0.03514
2556.10843 0.03511
2554.82266 0.03523
2553.53689 0.03541
2552.25112 0.03559
2550.96535 0.03574
2549.67958 0.03579
2548.39381 0.03573
2547.10805 0.03559
2545.82228 0.03543
2544.53651 0.03518
2543.25074 0.03488
2541.96497 0.03466
2540.67920 0.03460
2539.39343 0.03462
2538.10766 0.03458
2536.82190 0.03447
2535.53613 0.03438
2534.25036 0.03433
2532.96459 0.03433
2531.67882 0.03442
2530.39305 0.03467
2529.10728 0.03502
2527.82151 0.03525
2526.53574 0.03525
2525.24998 0.03507
2523.96421 0.03486
2522.67844 0.03467
2521.39267 0.03450
2520.10690 0.03435
2518.82113 0.03426
2517.53536 0.03423
2516.24959 0.03417
2514.96383 0.03399
2513.67806 0.03368
2512.39229 0.03331
2511.10652 0.03304
2509.82075 0.03303
2508.53498 0.03334
2507.24921 0.03381
2505.96344 0.03414
2504.67767 0.03416
2503.39191 0.03397
2502.10614 0.03389
2500.82037 0.03406
2499.53460 0.03436
2498.24883 0.03454
2496.96306 0.03445
2495.67729 0.03413
2494.39152 0.03376
2493.10576 0.03356
2491.81999 0.03362
2490.53422 0.03381
2489.24845 0.03395
2487.96268 0.03396
2486.67691 0.03398
2485.39114 0.03413
2484.10537 0.03437
2482.81960 0.03447
2481.53384 0.03428
2480.24807 0.03395
2478.96230 0.03377
2477.67653 0.03378
2476.39076 0.03373
2475.10499 0.03348
2473.81922 0.03321
2472.53345 0.03323
2471.24769 0.03351
2469.96192 0.03383
2468.67615 0.03403
2467.39038 0.03419
2466.10461 0.03438
2464.81884 0.03458
2463.53307 0.03465
2462.24730 0.03446
2460.96153 0.03399
2459.67577 0.03335
2458.39000 0.03275
2457.10423 0.03241
2455.81846 0.03234
2454.53269 0.03246
2453.24692 0.03262
2451.96115 0.03271
2450.67538 0.03273
2449.38962 0.03277
2448.10385 0.03283
2446.81808 0.03278
2445.53231 0.03249
2444.24654 0.03210
2442.96077 0.03183
2441.67500 0.03173
2440.38923 0.03163
2439.10346 0.03149
2437.81770 0.03148
2436.53193 0.03174
2435.24616 0.03219
2433.96039 0.03262
2432.67462 0.03283
2431.38885 0.03275
2430.10308 0.03240
2428.81731 0.03191
2427.53155 0.03147
2426.24578 0.03122
2424.96001 0.03125
2423.67424 0.03157
2422.38847 0.03208
2421.10270 0.03260
2419.81693 0.03287
2418.53116 0.03277
2417.24539 0.03232
2415.95963 0.03174
2414.67386 0.03129
2413.38809 0.03108
2412.10232 0.03105
2410.81655 0.03105
2409.53078 0.03105
2408.24501 0.03116
2406.95924 0.03144
2405.67347 0.03179
2404.38771 0.03203
2403.10194 0.03203
2401.81617 0.03184
2400.53040 0.03153
2399.24463 0.03122
2397.95886 0.03087
2396.67309 0.03069
2395.38732 0.03074
2394.10156 0.03097
2392.81579 0.03131
2391.53002 0.03166
2390.24425 0.03186
2388.95848 0.03186
2387.67271 0.03169
2386.38694 0.03145
2385.10117 0.03119
2383.81540 0.03096
2382.52964 0.03080
2381.24387 0.03074
2379.95810 0.03080
2378.67233 0.03090
2377.38656 0.03106
2376.10079 0.03128
2374.81502 0.03142
2373.52925 0.03128
2372.24349 0.03099
2370.95772 0.03089
2369.67195 0.03102
2368.38618 0.03122
2367.10041 0.03131
2365.81464 0.03138
2364.52887 0.03146
2363.24310 0.03154
2361.95733 0.03153
2360.67157 0.03139
2359.38580 0.03134
2358.10003 0.03161
2356.81426 0.03212
2355.52849 0.03256
2354.24272 0.03270
2352.95695 0.03247
2351.67118 0.03198
2350.38542 0.03165
2349.09965 0.03172
2347.81388 0.03191
2346.52811 0.03180
2345.24234 0.03159
2343.95657 0.03170
2342.67080 0.03209
2341.38503 0.03195
2340.09926 0.03140
2338.81350 0.03150
2337.52773 0.03209
2336.24196 0.03193
2334.95619 0.03125
2333.67042 0.03117
2332.38465 0.03161
2331.09888 0.03137
2329.81311 0.03128
2328.52735 0.03168
2327.24158 0.03178
2325.95581 0.03185
2324.67004 0.03227
2323.38427 0.03261
2322.09850 0.03240
2320.81273 0.03206
2319.52696 0.03146
2318.24119 0.03071
2316.95543 0.03017
2315.66966 0.02987
2314.38389 0.02992
2313.09812 0.03027
2311.81235 0.03063
2310.52658 0.03103
2309.24081 0.03133
2307.95504 0.03137
2306.66928 0.03123
2305.38351 0.03089
2304.09774 0.03033
2302.81197 0.02953
2301.52620 0.02869
2300.24043 0.02822
2298.95466 0.02830
2297.66889 0.02869
2296.38312 0.02895
2295.09736 0.02883
2293.81159 0.02847
2292.52582 0.02808
2291.24005 0.02780
2289.95428 0.02759
2288.66851 0.02741
2287.38274 0.02724
2286.09697 0.02702
2284.81121 0.02675
2283.52544 0.02654
2282.23967 0.02647
2280.95390 0.02650
2279.66813 0.02653
2278.38236 0.02646
2277.09659 0.02616
2275.81082 0.02555
2274.52505 0.02483
2273.23929 0.02432
2271.95352 0.02421
2270.66775 0.02446
2269.38198 0.02496
2268.09621 0.02556
2266.81044 0.02594
2265.52467 0.02575
2264.23890 0.02499
2262.95314 0.02405
2261.66737 0.02335
2260.38160 0.02293
2259.09583 0.02264
2257.81006 0.02233
2256.52429 0.02206
2255.23852 0.02186
2253.95275 0.02163
2252.66698 0.02121
2251.38122 0.02063
2250.09545 0.02026
2248.80968 0.02054
2247.52391 0.02108
2246.23814 0.02183
2244.95237 0.02243
2243.66660 0.02261
2242.38083 0.02240
2241.09507 0.02208
2239.80930 0.02194
2238.52353 0.02215
2237.23776 0.02265
2235.95199 0.02321
2234.66622 0.02346
2233.38045 0.02308
2232.09468 0.02209
2230.80891 0.02098
2229.52315 0.02033
2228.23738 0.02040
2226.95161 0.02100
2225.66584 0.02174
2224.38007 0.02232
2223.09430 0.02254
2221.80853 0.02231
2220.52276 0.02171
2219.23700 0.02100
2217.95123 0.02048
2216.66546 0.02036
2215.37969 0.02056
2214.09392 0.02060
2212.80815 0.01990
2211.52238 0.01825
2210.23661 0.01621
2208.95084 0.01473
2207.66508 0.01440
2206.37931 0.01509
2205.09354 0.01617
2203.80777 0.01701
2202.52200 0.01734
2201.23623 0.01720
2199.95046 0.01682
2198.66469 0.01639
2197.37893 0.01610
2196.09316 0.01611
2194.80739 0.01631
2193.52162 0.01630
2192.23585 0.01584
2190.95008 0.01524
2189.66431 0.01483
2188.37854 0.01447
2187.09277 0.01375
2185.80701 0.01284
2184.52124 0.01243
2183.23547 0.01297
2181.94970 0.01410
2180.66393 0.01500
2179.37816 0.01524
2178.09239 0.01499
2176.80662 0.01470
2175.52085 0.01461
2174.23509 0.01446
2172.94932 0.01386
2171.66355 0.01269
2170.37778 0.01133
2169.09201 0.01035
2167.80624 0.00994
2166.52047 0.00979
2165.23470 0.00953
2163.94894 0.00917
2162.66317 0.00888
2161.37740 0.00861
2160.09163 0.00824
2158.80586 0.00802
2157.52009 0.00825
2156.23432 0.00859
2154.94855 0.00849
2153.66278 0.00802
2152.37702 0.00787
2151.09125 0.00859
2149.80548 0.01006
2148.51971 0.01177
2147.23394 0.01325
2145.94817 0.01422
2144.66240 0.01461
2143.37663 0.01450
2142.09087 0.01420
2140.80510 0.01410
2139.51933 0.01428
2138.23356 0.01446
2136.94779 0.01440
2135.66202 0.01417
2134.37625 0.01406
2133.09048 0.01424
2131.80471 0.01472
2130.51895 0.01545
2129.23318 0.01630
2127.94741 0.01703
2126.66164 0.01740
2125.37587 0.01744
2124.09010 0.01741
2122.80433 0.01752
2121.51856 0.01771
2120.23280 0.01779
2118.94703 0.01778
2117.66126 0.01790
2116.37549 0.01818
2115.08972 0.01838
2113.80395 0.01826
2112.51818 0.01795
2111.23241 0.01774
2109.94664 0.01764
2108.66088 0.01741
2107.37511 0.01690
2106.08934 0.01620
2104.80357 0.01550
2103.51780 0.01495
2102.23203 0.01460
2100.94626 0.01447
2099.66049 0.01368
2098.37473 0.01352
2097.08896 0.01382
2095.80319 0.01428
2094.51742 0.01491
2093.23165 0.01562
2091.94588 0.01621
2090.66011 0.01648
2089.37434 0.01644
2088.08857 0.01630
2086.80281 0.01624
2085.51704 0.01621
2084.23127 0.01597
2082.94550 0.01541
2081.65973 0.01472
2080.37396 0.01418
2079.08819 0.01389
2077.80242 0.01371
2076.51666 0.01342
2075.23089 0.01302
2073.94512 0.01269
2072.65935 0.01257
2071.37358 0.01264
2070.08781 0.01269
2068.80204 0.01254
2067.51627 0.01216
2066.23050 0.01180
2064.94474 0.01171
2063.65897 0.01189
2062.37320 0.01199
2061.08743 0.01179
2059.80166 0.01149
2058.51589 0.01151
2057.23012 0.01201
2055.94435 0.01265
2054.65859 0.01284
2053.37282 0.01220
2052.08705 0.01079
2050.80128 0.00916
2049.51551 0.00804
2048.22974 0.00774
2046.94397 0.00788
2045.65820 0.00773
2044.37243 0.00704
2043.08667 0.00630
2041.80090 0.00606
2040.51513 0.00621
2039.22936 0.00608
2037.94359 0.00524
2036.65782 0.00395
2035.37205 0.00283
2034.08628 0.00231
2032.80052 0.00248
2031.51475 0.00329
2030.22898 0.00444
2028.94321 0.00536
2027.65744 0.00563
2026.37167 0.00541
2025.08590 0.00523
2023.80013 0.00548
2022.51436 0.00612
2021.22860 0.00696
2019.94283 0.00785
2018.65706 0.00860
2017.37129 0.00892
2016.08552 0.00865
2014.79975 0.00781
2013.51398 0.00672
2012.22821 0.00582
2010.94245 0.00551
2009.65668 0.00584
2008.37091 0.00651
2007.08514 0.00716
2005.79937 0.00774
2004.51360 0.00831
2003.22783 0.00881
2001.94206 0.00907
2000.65629 0.00916
1999.37053 0.00942
1998.08476 0.01006
1996.79899 0.01088
1995.51322 0.01138
1994.22745 0.01134
1992.94168 0.01099
1991.65591 0.01073
1990.37014 0.01071
1989.08438 0.01080
1987.79861 0.01083
1986.51284 0.01075
1985.22707 0.01054
1983.94130 0.01014
1982.65553 0.00944
1981.36976 0.00848
1980.08399 0.00748
1978.79822 0.00675
1977.51246 0.00648
1976.22669 0.00678
1974.94092 0.00773
1973.65515 0.00924
1972.36938 0.01094
1971.08361 0.01236
1969.79784 0.01334
1968.51207 0.01403
1967.22631 0.01455
1965.94054 0.01470
1964.65477 0.01415
1963.36900 0.01287
1962.08323 0.01138
1960.79746 0.01052
1959.51169 0.01076
1958.22592 0.01183
1956.94015 0.01307
1955.65439 0.01393
1954.36862 0.01431
1953.08285 0.01442
1951.79708 0.01444
1950.51131 0.01430
1949.22554 0.01382
1947.93977 0.01316
1946.65400 0.01287
1945.36823 0.01334
1944.08247 0.01437
1942.79670 0.01532
1941.51093 0.01569
1940.22516 0.01547
1938.93939 0.01494
1937.65362 0.01444
1936.36785 0.01419
1935.08208 0.01432
1933.79632 0.01475
1932.51055 0.01518
1931.22478 0.01529
1929.93901 0.01502
1928.65324 0.01465
1927.36747 0.01457
1926.08170 0.01494
1924.79593 0.01554
1923.51016 0.01596
1922.22440 0.01594
1920.93863 0.01558
1919.65286 0.01522
1918.36709 0.01502
1917.08132 0.01500
1915.79555 0.01517
1914.50978 0.01558
1913.22401 0.01619
1911.93825 0.01675
1910.65248 0.01700
1909.36671 0.01691
1908.08094 0.01664
1906.79517 0.01640
1905.50940 0.01624
1904.22363 0.01610
1902.93786 0.01601
1901.65209 0.01602
1900.36633 0.01614
1899.08056 0.01624
1897.79479 0.01618
1896.50902 0.01597
1895.22325 0.01577
1893.93748 0.01573
1892.65171 0.01591
1891.36594 0.01619
1890.08018 0.01637
1888.79441 0.01637
1887.50864 0.01630
1886.22287 0.01638
1884.93710 0.01667
1883.65133 0.01706
1882.36556 0.01734
1881.07979 0.01726
1879.79402 0.01677
1878.50826 0.01609
1877.22249 0.01563
1875.93672 0.01558
1874.65095 0.01586
1873.36518 0.01624
1872.07941 0.01656
1870.79364 0.01678
1869.50787 0.01683
1868.22211 0.01671
1866.93634 0.01654
1865.65057 0.01653
1864.36480 0.01678
1863.07903 0.01716
1861.79326 0.01747
1860.50749 0.01759
1859.22172 0.01754
1857.93595 0.01742
1856.65019 0.01734
1855.36442 0.01736
1854.07865 0.01748
1852.79288 0.01761
1851.50711 0.01768
1850.22134 0.01759
1848.93557 0.01729
1847.64980 0.01683
1846.36404 0.01639
1845.07827 0.01611
1843.79250 0.01599
1842.50673 0.01599
1841.22096 0.01612
1839.93519 0.01638
1838.64942 0.01662
1837.36365 0.01670
1836.07788 0.01661
1834.79212 0.01645
1833.50635 0.01634
1832.22058 0.01635
1830.93481 0.01644
1829.64904 0.01652
1828.36327 0.01656
1827.07750 0.01664
1825.79173 0.01674
1824.50597 0.01678
1823.22020 0.01670
1821.93443 0.01655
1820.64866 0.01644
1819.36289 0.01645
1818.07712 0.01663
1816.79135 0.01692
1815.50558 0.01725
1814.21981 0.01753
1812.93405 0.01773
1811.64828 0.01787
1810.36251 0.01796
1809.07674 0.01802
1807.79097 0.01805
1806.50520 0.01800
1805.21943 0.01788
1803.93366 0.01778
1802.64790 0.01778
1801.36213 0.01786
1800.07636 0.01794
1798.79059 0.01796
1797.50482 0.01792
1796.21905 0.01787
1794.93328 0.01789
1793.64751 0.01802
1792.36174 0.01816
1791.07598 0.01822
1789.79021 0.01821
1788.50444 0.01817
1787.21867 0.01814
1785.93290 0.01814
1784.64713 0.01812
1783.36136 0.01808
1782.07559 0.01806
1780.78983 0.01811
1779.50406 0.01824
1778.21829 0.01839
1776.93252 0.01850
1775.64675 0.01858
1774.36098 0.01868
1773.07521 0.01879
1771.78944 0.01882
1770.50367 0.01882
1769.21791 0.01887
1767.93214 0.01896
1766.64637 0.01900
1765.36060 0.01904
1764.07483 0.01916
1762.78906 0.01929
1761.50329 0.01932
1760.21752 0.01927
1758.93176 0.01927
1757.64599 0.01935
1756.36022 0.01942
1755.07445 0.01944
1753.78868 0.01948
1752.50291 0.01956
1751.21714 0.01959
1749.93137 0.01957
1748.64560 0.01964
1747.35984 0.01988
1746.07407 0.02017
1744.78830 0.02037
1743.50253 0.02047
1742.21676 0.02057
1740.93099 0.02074
1739.64522 0.02085
1738.35945 0.02078
1737.07369 0.02069
1735.78792 0.02081
1734.50215 0.02111
1733.21638 0.02134
1731.93061 0.02147
1730.64484 0.02167
1729.35907 0.02198
1728.07330 0.02228
1726.78753 0.02252
1725.50177 0.02268
1724.21600 0.02281
1722.93023 0.02293
1721.64446 0.02307
1720.35869 0.02331
1719.07292 0.02368
1717.78715 0.02405
1716.50138 0.02436
1715.21561 0.02468
1713.92985 0.02506
1712.64408 0.02547
1711.35831 0.02587
1710.07254 0.02627
1708.78677 0.02670
1707.50100 0.02721
1706.21523 0.02775
1704.92946 0.02825
1703.64370 0.02879
1702.35793 0.02957
1701.07216 0.03048
1699.78639 0.03119
1698.50062 0.03173
1697.21485 0.03244
1695.92908 0.03329
1694.64331 0.03397
1693.35754 0.03454
1692.07178 0.03527
1690.78601 0.03616
1689.50024 0.03699
1688.21447 0.03771
1686.92870 0.03855
1685.64293 0.03957
1684.35716 0.04055
1683.07139 0.04129
1681.78563 0.04197
1680.49986 0.04274
1679.21409 0.04354
1677.92832 0.04437
1676.64255 0.04527
1675.35678 0.04618
1674.07101 0.04696
1672.78524 0.04770
1671.49947 0.04855
1670.21371 0.04947
1668.92794 0.05028
1667.64217 0.05093
1666.35640 0.05151
1665.07063 0.05217
1663.78486 0.05292
1662.49909 0.05367
1661.21332 0.05431
1659.92756 0.05483
1658.64179 0.05516
1657.35602 0.05533
1656.07025 0.05559
1654.78448 0.05616
1653.49871 0.05685
1652.21294 0.05722
1650.92717 0.05727
1649.64140 0.05739
1648.35564 0.05774
1647.06987 0.05811
1645.78410 0.05827
1644.49833 0.05829
1643.21256 0.05828
1641.92679 0.05826
1640.64102 0.05816
1639.35525 0.05797
1638.06949 0.05780
1636.78372 0.05769
1635.49795 0.05749
1634.21218 0.05710
1632.92641 0.05663
1631.64064 0.05625
1630.35487 0.05593
1629.06910 0.05557
1627.78333 0.05512
1626.49757 0.05464
1625.21180 0.05422
1623.92603 0.05386
1622.64026 0.05346
1621.35449 0.05297
1620.06872 0.05254
1618.78295 0.05232
1617.49718 0.05227
1616.21142 0.05217
1614.92565 0.05194
1613.63988 0.05170
1612.35411 0.05154
1611.06834 0.05142
1609.78257 0.05132
1608.49680 0.05126
1607.21103 0.05124
1605.92526 0.05125
1604.63950 0.05131
1603.35373 0.05141
1602.06796 0.05154
1600.78219 0.05169
1599.49642 0.05185
1598.21065 0.05200
1596.92488 0.05216
1595.63911 0.05233
1594.35335 0.05251
1593.06758 0.05267
1591.78181 0.05280
1590.49604 0.05288
1589.21027 0.05297
1587.92450 0.05311
1586.63873 0.05330
1585.35296 0.05352
1584.06719 0.05373
1582.78143 0.05392
1581.49566 0.05405
1580.20989 0.05419
1578.92412 0.05448
1577.63835 0.05506
1576.35258 0.05583
1575.06681 0.05651
1573.78104 0.05710
1572.49528 0.05776
1571.20951 0.05856
1569.92374 0.05938
1568.63797 0.06010
1567.35220 0.06075
1566.06643 0.06133
1564.78066 0.06173
1563.49489 0.06194
1562.20912 0.06215
1560.92336 0.06256
1559.63759 0.06308
1558.35182 0.06349
1557.06605 0.06384
1555.78028 0.06435
1554.49451 0.06498
1553.20874 0.06551
1551.92297 0.06585
1550.63721 0.06605
1549.35144 0.06608
1548.06567 0.06594
1546.77990 0.06565
1545.49413 0.06527
1544.20836 0.06481
1542.92259 0.06441
1541.63682 0.06421
1540.35105 0.06421
1539.06529 0.06423
1537.77952 0.06423
1536.49375 0.06436
1535.20798 0.06471
1533.92221 0.06509
1532.63644 0.06531
1531.35067 0.06541
1530.06490 0.06558
1528.77914 0.06589
1527.49337 0.06628
1526.20760 0.06665
1524.92183 0.06698
1523.63606 0.06739
1522.35029 0.06794
1521.06452 0.06852
1519.77875 0.06908
1518.49298 0.06980
1517.20722 0.07072
1515.92145 0.07174
1514.63568 0.07278
1513.34991 0.07384
1512.06414 0.07487
1510.77837 0.07585
1509.49260 0.07689
1508.20683 0.07812
1506.92107 0.07942
1505.63530 0.08055
1504.34953 0.08147
1503.06376 0.08239
1501.77799 0.08338
1500.49222 0.08433
1499.20645 0.08518
1497.92068 0.08598
1496.63491 0.08671
1495.34915 0.08733
1494.06338 0.08787
1492.77761 0.08841
1491.49184 0.08901
1490.20607 0.08964
1488.92030 0.09031
1487.63453 0.09110
1486.34876 0.09202
1485.06299 0.09304
1483.77723 0.09415
1482.49146 0.09532
1481.20569 0.09651
1479.91992 0.09770
1478.63415 0.09884
1477.34838 0.09985
1476.06261 0.10071
1474.77684 0.10157
1473.49108 0.10258
1472.20531 0.10371
1470.91954 0.10486
1469.63377 0.10593
1468.34800 0.10689
1467.06223 0.10775
1465.77646 0.10851
1464.49069 0.10925
1463.20492 0.11007
1461.91916 0.11107
1460.63339 0.11225
1459.34762 0.11358
1458.06185 0.11495
1456.77608 0.11620
1455.49031 0.11724
1454.20454 0.11818
1452.91877 0.11910
1451.63301 0.11996
1450.34724 0.12070
1449.06147 0.12129
1447.77570 0.12169
1446.48993 0.12185
1445.20416 0.12182
1443.91839 0.12166
1442.63262 0.12140
1441.34685 0.12098
1440.06109 0.12046
1438.77532 0.11997
1437.48955 0.11961
1436.20378 0.11934
1434.91801 0.11922
1433.63224 0.11939
1432.34647 0.11991
1431.06070 0.12072
1429.77494 0.12176
1428.48917 0.12299
1427.20340 0.12436
1425.91763 0.12583
1424.63186 0.12735
1423.34609 0.12889
1422.06032 0.13049
1420.77455 0.13216
1419.48878 0.13374
1418.20302 0.13512
1416.91725 0.13629
1415.63148 0.13733
1414.34571 0.13817
1413.05994 0.13871
1411.77417 0.13893
1410.48840 0.13882
1409.20263 0.13843
1407.91687 0.13778
1406.63110 0.13689
1405.34533 0.13572
1404.05956 0.13423
1402.77379 0.13245
1401.48802 0.13044
1400.20225 0.12826
1398.91648 0.12590
1397.63071 0.12337
1396.34495 0.12075
1395.05918 0.11808
1393.77341 0.11539
1392.48764 0.11272
1391.20187 0.11011
1389.91610 0.10758
1388.63033 0.10510
1387.34456 0.10260
1386.05880 0.10008
1384.77303 0.09759
1383.48726 0.09516
1382.20149 0.09278
1380.91572 0.09044
1379.62995 0.08809
1378.34418 0.08572
1377.05841 0.08330
1375.77264 0.08083
1374.48688 0.07833
1373.20111 0.07578
1371.91534 0.07325
1370.62957 0.07082
1369.34380 0.06856
1368.05803 0.06646
1366.77226 0.06450
1365.48649 0.06265
1364.20073 0.06087
1362.91496 0.05915
1361.62919 0.05747
1360.34342 0.05588
1359.05765 0.05442
1357.77188 0.05315
1356.48611 0.05204
1355.20034 0.05103
1353.91457 0.05007
1352.62881 0.04915
1351.34304 0.04827
1350.05727 0.04741
1348.77150 0.04657
1347.48573 0.04577
1346.19996 0.04505
1344.91419 0.04441
1343.62842 0.04381
1342.34266 0.04324
1341.05689 0.04269
1339.77112 0.04217
1338.48535 0.04168
1337.19958 0.04119
1335.91381 0.04070
1334.62804 0.04017
1333.34227 0.03962
1332.05650 0.03909
1330.77074 0.03863
1329.48497 0.03824
1328.19920 0.03787
1326.91343 0.03747
1325.62766 0.03705
1324.34189 0.03668
1323.05612 0.03638
1321.77035 0.03613
1320.48459 0.03588
1319.19882 0.03559
1317.91305 0.03528
1316.62728 0.03500
1315.34151 0.03473
1314.05574 0.03444
1312.76997 0.03411
1311.48420 0.03375
1310.19843 0.03341
1308.91267 0.03311
1307.62690 0.03282
1306.34113 0.03254
1305.05536 0.03227
1303.76959 0.03201
1302.48382 0.03174
1301.19805 0.03148
1299.91228 0.03124
1298.62652 0.03105
1297.34075 0.03092
1296.05498 0.03081
1294.76921 0.03069
1293.48344 0.03056
1292.19767 0.03040
1290.91190 0.03022
1289.62613 0.03002
1288.34036 0.02981
1287.05460 0.02964
1285.76883 0.02952
1284.48306 0.02944
1283.19729 0.02934
1281.91152 0.02922
1280.62575 0.02909
1279.33998 0.02898
1278.05421 0.02888
1276.76845 0.02880
1275.48268 0.02874
1274.19691 0.02864
1272.91114 0.02849
1271.62537 0.02831
1270.33960 0.02815
1269.05383 0.02804
1267.76806 0.02797
1266.48229 0.02790
1265.19653 0.02781
1263.91076 0.02773
1262.62499 0.02768
1261.33922 0.02766
1260.05345 0.02764
1258.76768 0.02761
1257.48191 0.02756
1256.19614 0.02750
1254.91037 0.02747
1253.62461 0.02743
1252.33884 0.02739
1251.05307 0.02731
1249.76730 0.02722
1248.48153 0.02715
1247.19576 0.02707
1245.90999 0.02698
1244.62422 0.02685
1243.33846 0.02672
1242.05269 0.02659
1240.76692 0.02646
1239.48115 0.02631
1238.19538 0.02614
1236.90961 0.02598
1235.62384 0.02585
1234.33807 0.02576
1233.05230 0.02570
1231.76654 0.02564
1230.48077 0.02557
1229.19500 0.02545
1227.90923 0.02532
1226.62346 0.02517
1225.33769 0.02501
1224.05192 0.02483
1222.76615 0.02463
1221.48039 0.02445
1220.19462 0.02431
1218.90885 0.02418
1217.62308 0.02404
1216.33731 0.02391
1215.05154 0.02382
1213.76577 0.02377
1212.48000 0.02373
1211.19423 0.02370
1209.90847 0.02366
1208.62270 0.02363
1207.33693 0.02360
1206.05116 0.02356
1204.76539 0.02350
1203.47962 0.02345
1202.19385 0.02341
1200.90808 0.02342
1199.62232 0.02350
1198.33655 0.02340
1197.05078 0.02330
1195.76501 0.02322
1194.47924 0.02315
1193.19347 0.02307
1191.90770 0.02298
1190.62193 0.02291
1189.33616 0.02291
1188.05040 0.02295
1186.76463 0.02296
1185.47886 0.02292
1184.19309 0.02286
1182.90732 0.02282
1181.62155 0.02284
1180.33578 0.02287
1179.05001 0.02289
1177.76425 0.02290
1176.47848 0.02297
1175.19271 0.02313
1173.90694 0.02335
1172.62117 0.02355
1171.33540 0.02371
1170.04963 0.02383
1168.76386 0.02395
1167.47809 0.02406
1166.19233 0.02419
1164.90656 0.02436
1163.62079 0.02461
1162.33502 0.02490
1161.04925 0.02518
1159.76348 0.02544
1158.47771 0.02567
1157.19194 0.02588
1155.90618 0.02608
1154.62041 0.02629
1153.33464 0.02656
1152.04887 0.02694
1150.76310 0.02742
1149.47733 0.02797
1148.19156 0.02860
1146.90579 0.02933
1145.62002 0.03015
1144.33426 0.03100
1143.04849 0.03186
1141.76272 0.03275
1140.47695 0.03369
1139.19118 0.03474
1137.90541 0.03592
1136.61964 0.03728
1135.33387 0.03883
1134.04811 0.04056
1132.76234 0.04245
1131.47657 0.04451
1130.19080 0.04678
1128.90503 0.04932
1127.61926 0.05215
1126.33349 0.05526
1125.04772 0.05860
1123.76195 0.06212
1122.47619 0.06579
1121.19042 0.06958
1119.90465 0.07350
1118.61888 0.07757
1117.33311 0.08178
1116.04734 0.08609
1114.76157 0.09037
1113.47580 0.09454
1112.19004 0.09859
1110.90427 0.10262
1109.61850 0.10671
1108.33273 0.11079
1107.04696 0.11476
1105.76119 0.11855
1104.47542 0.12222
1103.18965 0.12582
1101.90388 0.12937
1100.61812 0.13285
1099.33235 0.13622
1098.04658 0.13951
1096.76081 0.14273
1095.47504 0.14584
1094.18927 0.14879
1092.90350 0.15155
1091.61773 0.15423
1090.33197 0.15690
1089.04620 0.15955
1087.76043 0.16209
1086.47466 0.16447
1085.18889 0.16673
1083.90312 0.16898
1082.61735 0.17131
1081.33158 0.17381
1080.04581 0.17651
1078.76005 0.17940
1077.47428 0.18246
1076.18851 0.18569
1074.90274 0.18910
1073.61697 0.19273
1072.33120 0.19662
1071.04543 0.20075
1069.75966 0.20506
1068.47390 0.20947
1067.18813 0.21391
1065.90236 0.21837
1064.61659 0.22294
1063.33082 0.22768
1062.04505 0.23255
1060.75928 0.23742
1059.47351 0.24223
1058.18774 0.24698
1056.90198 0.25171
1055.61621 0.25643
1054.33044 0.26110
1053.04467 0.26575
1051.75890 0.27044
1050.47313 0.27519
1049.18736 0.27999
1047.90159 0.28486
1046.61583 0.28985
1045.33006 0.29499
1044.04429 0.30025
1042.75852 0.30555
1041.47275 0.31084
1040.18698 0.31612
1038.90121 0.32145
1037.61544 0.32685
1036.32967 0.33232
1035.04391 0.33780
1033.75814 0.34319
1032.47237 0.34838
1031.18660 0.35328
1029.90083 0.35790
1028.61506 0.36220
1027.32929 0.36607
1026.04352 0.36946
1024.75775 0.37235
1023.47199 0.37483
1022.18622 0.37692
1020.90045 0.37855
1019.61468 0.37963
1018.32891 0.38006
1017.04314 0.37978
1015.75737 0.37872
1014.47160 0.37686
1013.18584 0.37423
1011.90007 0.37085
1010.61430 0.36676
1009.32853 0.36196
1008.04276 0.35647
1006.75699 0.35034
1005.47122 0.34362
1004.18545 0.33634
1002.89968 0.32853
1001.61392 0.32022
1000.32815 0.31148
999.04238 0.30240
997.75661 0.29311
996.47084 0.28371
995.18507 0.27424
993.89930 0.26468
992.61353 0.25503
991.32777 0.24537
990.04200 0.23591
988.75623 0.22680
987.47046 0.21808
986.18469 0.20969
984.89892 0.20159
983.61315 0.19377
982.32738 0.18624
981.04161 0.17902
979.75585 0.17215
978.47008 0.16571
977.18431 0.15976
975.89854 0.15439
974.61277 0.14965
973.32700 0.14553
972.04123 0.14205
970.75546 0.13933
969.46970 0.13747
968.18393 0.13653
966.89816 0.13647
965.61239 0.13712
964.32662 0.13826
963.04085 0.13957
961.75508 0.14069
960.46931 0.14122
959.18354 0.14089
957.89778 0.13960
956.61201 0.13745
955.32624 0.13465
954.04047 0.13146
952.75470 0.12808
951.46893 0.12465
950.18316 0.12118
948.89739 0.11767
947.61163 0.11416
946.32586 0.11075
945.04009 0.10753
943.75432 0.10451
942.46855 0.10161
941.18278 0.09879
939.89701 0.09604
938.61124 0.09342
937.32547 0.09093
936.03971 0.08855
934.75394 0.08627
933.46817 0.08415
932.18240 0.08222
930.89663 0.08045
929.61086 0.07872
928.32509 0.07703
927.03932 0.07542
925.75356 0.07399
924.46779 0.07272
923.18202 0.07152
921.89625 0.07036
920.61048 0.06925
919.32471 0.06819
918.03894 0.06720
916.75317 0.06627
915.46740 0.06540
914.18164 0.06457
912.89587 0.06375
911.61010 0.06298
910.32433 0.06224
909.03856 0.06149
907.75279 0.06073
906.46702 0.06001
905.18125 0.05935
903.89549 0.05874
902.60972 0.05809
901.32395 0.05737
900.03818 0.05664
898.75241 0.05601
897.46664 0.05557
896.18087 0.05530
894.89510 0.05509
893.60933 0.05484
892.32357 0.05452
891.03780 0.05421
889.75203 0.05406
888.46626 0.05426
887.18049 0.05497
885.89472 0.05635
884.60895 0.05861
883.32318 0.06185
882.03742 0.06586
880.75165 0.07001
879.46588 0.07358
878.18011 0.07623
876.89434 0.07823
875.60857 0.08009
874.32280 0.08198
873.03703 0.08364
871.75126 0.08463
870.46550 0.08464
869.17973 0.08365
867.89396 0.08179
866.60819 0.07923
865.32242 0.07616
864.03665 0.07285
862.75088 0.06955
861.46511 0.06647
860.17935 0.06372
858.89358 0.06135
857.60781 0.05938
856.32204 0.05775
855.03627 0.05635
853.75050 0.05513
852.46473 0.05408
851.17896 0.05321
849.89319 0.05250
848.60743 0.05187
847.32166 0.05128
846.03589 0.05073
844.75012 0.05022
843.46435 0.04972
842.17858 0.04922
840.89281 0.04875
839.60704 0.04831
838.32128 0.04788
837.03551 0.04746
835.74974 0.04705
834.46397 0.04668
833.17820 0.04636
831.89243 0.04607
830.60666 0.04583
829.32089 0.04561
828.03512 0.04538
826.74936 0.04512
825.46359 0.04485
824.17782 0.04463
822.89205 0.04446
821.60628 0.04428
820.32051 0.04408
819.03474 0.04388
817.74897 0.04373
816.46321 0.04364
815.17744 0.04360
813.89167 0.04359
812.60590 0.04359
811.32013 0.04354
810.03436 0.04337
808.74859 0.04310
807.46282 0.04284
806.17705 0.04267
804.89129 0.04258
803.60552 0.04251
802.31975 0.04242
801.03398 0.04232
799.74821 0.04219
798.46244 0.04203
797.17667 0.04189
795.89090 0.04181
794.60513 0.04182
793.31937 0.04183
792.03360 0.04177
790.74783 0.04164
789.46206 0.04146
788.17629 0.04125
786.89052 0.04105
785.60475 0.04094
784.31898 0.04093
783.03322 0.04092
781.74745 0.04082
780.46168 0.04062
779.17591 0.04048
777.89014 0.04051
776.60437 0.04067
775.31860 0.04081
774.03283 0.04082
772.74706 0.04072
771.46130 0.04062
770.17553 0.04058
768.88976 0.04059
767.60399 0.04063
766.31822 0.04067
765.03245 0.04065
763.74668 0.04051
762.46091 0.04032
761.17515 0.04024
759.88938 0.04036
758.60361 0.04063
757.31784 0.04090
756.03207 0.04103
754.74630 0.04100
753.46053 0.04090
752.17476 0.04080
750.88899 0.04074
749.60323 0.04067
748.31746 0.04053
747.03169 0.04029
745.74592 0.04005
744.46015 0.03990
743.17438 0.03990
741.88861 0.03993
740.60284 0.03989
739.31708 0.03976
738.03131 0.03968
736.74554 0.03977
735.45977 0.03996
734.17400 0.04007
732.88823 0.03998
731.60246 0.03979
730.31669 0.03966
729.03092 0.03962
727.74516 0.03963
726.45939 0.03962
725.17362 0.03960
723.88785 0.03954
722.60208 0.03950
721.31631 0.03955
720.03054 0.03969
718.74477 0.03992
717.45901 0.04016
716.17324 0.04034
714.88747 0.04043
713.60170 0.04043
712.31593 0.04039
711.03016 0.04034
709.74439 0.04031
708.45862 0.04028
707.17285 0.04021
705.88709 0.04009
704.60132 0.03994
703.31555 0.03981
702.02978 0.03972
700.74401 0.03968
699.45824 0.03967
698.17247 0.03968
696.88670 0.03969
695.60094 0.03973
694.31517 0.03978
693.02940 0.03984
691.74363 0.03989
690.45786 0.03997
689.17209 0.04007
687.88632 0.04013
686.60055 0.04009
685.31478 0.03992
684.02902 0.03966
682.74325 0.03939
681.45748 0.03921
680.17171 0.03914
678.88594 0.03916
677.60017 0.03918
676.31440 0.03918
675.02863 0.03920
673.74287 0.03933
672.45710 0.03961
671.17133 0.04001
669.88556 0.04040
668.59979 0.04069
667.31402 0.04080
666.02825 0.04068
664.74248 0.04039
663.45671 0.04005
662.17095 0.03976
660.88518 0.03955
659.59941 0.03945
658.31364 0.03942
657.02787 0.03944
655.74210 0.03950
654.45633 0.03956
653.17056 0.03960
651.88480 0.03960
650.59903 0.03956
649.31326 0.03953
648.02749 0.03958
646.74172 0.03973
645.45595 0.03996
644.17018 0.04020
642.88441 0.04037
641.59864 0.04047
640.31288 0.04055
639.02711 0.04068
637.74134 0.04092
636.45557 0.04125
635.16980 0.04162
633.88403 0.04201
632.59826 0.04241
631.31249 0.04271
630.02673 0.04239
628.74096 0.04207
627.45519 0.04400
626.16942 0.04456
624.88365 0.04437
623.59788 0.04450
622.31211 0.04497
621.02634 0.04606
619.74057 0.04880
618.45481 0.05399
617.16904 0.06106
615.88327 0.06822
614.59750 0.07380
613.31173 0.07769
612.02596 0.08126
610.74019 0.08584
609.45442 0.09149
608.16866 0.09761
606.88289 0.10419
605.59712 0.11149
604.31135 0.11904
603.02558 0.12537
601.73981 0.12903
600.45404 0.12966
599.16827 0.12797
597.88250 0.12498
596.59674 0.12138
595.31097 0.11760
594.02520 0.11396
592.73943 0.11080
591.45366 0.10836
590.16789 0.10671
588.88212 0.10586
587.59635 0.10578
586.31059 0.10648
585.02482 0.10796
583.73905 0.11017
582.45328 0.11298
581.16751 0.11616
579.88174 0.11957
578.59597 0.12315
577.31020 0.12691
576.02443 0.13080
574.73867 0.13471
573.45290 0.13850
572.16713 0.14216
570.88136 0.14587
569.59559 0.15003
568.30982 0.15496
567.02405 0.16068
565.73828 0.16673
564.45251 0.17238
563.16675 0.17685
561.88098 0.17951
560.59521 0.17997
559.30944 0.17810
558.02367 0.17401
556.73790 0.16800
555.45213 0.16056
554.16636 0.15228
552.88060 0.14374
551.59483 0.13539
550.30906 0.12751
549.02329 0.12017
547.73752 0.11341
546.45175 0.10728
545.16598 0.10191
543.88021 0.09731
542.59444 0.09333
541.30868 0.08974
540.02291 0.08634
538.73714 0.08316
537.45137 0.08026
536.16560 0.07768
534.87983 0.07533
533.59406 0.07312
532.30829 0.07102
531.02253 0.06899
529.73676 0.06703
528.45099 0.06520
527.16522 0.06350
525.87945 0.06191
524.59368 0.06037
523.30791 0.05889
522.02214 0.05754
520.73637 0.05638
519.45061 0.05536
518.16484 0.05438
516.87907 0.05332
515.59330 0.05214
514.30753 0.05093
513.02176 0.04982
511.73599 0.04886
510.45022 0.04804
509.16446 0.04728
507.87869 0.04651
506.59292 0.04573
505.30715 0.04499
504.02138 0.04432
502.73561 0.04367
501.44984 0.04304
500.16407 0.04248
498.87830 0.04204
497.59254 0.04170
496.30677 0.04135
495.02100 0.04095
493.73523 0.04047
492.44946 0.03995
491.16369 0.03941
489.87792 0.03885
488.59215 0.03830
487.30639 0.03783
486.02062 0.03752
484.73485 0.03741
483.44908 0.03744
482.16331 0.03752
480.87754 0.03762
479.59177 0.03778
478.30600 0.03797
477.02023 0.03816
475.73447 0.03829
474.44870 0.03839
473.16293 0.03851
471.87716 0.03864
470.59139 0.03872
469.30562 0.03872
468.01985 0.03859
466.73408 0.03835
465.44832 0.03802
464.16255 0.03767
462.87678 0.03734
461.59101 0.03699
460.30524 0.03656
459.01947 0.03603
457.73370 0.03544
456.44793 0.03487
455.16216 0.03437
453.87640 0.03398
452.59063 0.03366
451.30486 0.03338
450.01909 0.03307
448.73332 0.03270
447.44755 0.03228
446.16178 0.03185
444.87601 0.03150
443.59025 0.03123
442.30448 0.03099
441.01871 0.03075
439.73294 0.03048
438.44717 0.03022
437.16140 0.02998
435.87563 0.02976
434.58986 0.02960
433.30409 0.02951
432.01833 0.02946
430.73256 0.02938
429.44679 0.02920
428.16102 0.02895
426.87525 0.02866
425.58948 0.02840
424.30371 0.02818
423.01794 0.02799
421.73218 0.02783
420.44641 0.02774
419.16064 0.02769
417.87487 0.02762
416.58910 0.02751
415.30333 0.02735
414.01756 0.02718
412.73179 0.02703
411.44602 0.02695
410.16026 0.02694
408.87449 0.02697
407.58872 0.02700
406.30295 0.02700
405.01718 0.02698
403.73141 0.02697
402.44564 0.02697
401.15987 0.02702
399.87411 0.02714
