3997.45528	0.07123
3996.16951	0.07188
3994.88374	0.07214
3993.59798	0.07174
3992.31221	0.07080
3991.02644	0.06973
3989.74067	0.06885
3988.45490	0.06828
3987.16913	0.06799
3985.88336	0.06789
3984.59759	0.06792
3983.31183	0.06801
3982.02606	0.06817
3980.74029	0.06848
3979.45452	0.06892
3978.16875	0.06928
3976.88298	0.06929
3975.59721	0.06894
3974.31144	0.06853
3973.02567	0.06850
3971.73991	0.06897
3970.45414	0.06964
3969.16837	0.07010
3967.88260	0.07029
3966.59683	0.07048
3965.31106	0.07085
3964.02529	0.07117
3962.73952	0.07112
3961.45376	0.07070
3960.16799	0.07015
3958.88222	0.06960
3957.59645	0.06902
3956.31068	0.06853
3955.02491	0.06848
3953.73914	0.06908
3952.45337	0.07017
3951.16760	0.07124
3949.88184	0.07194
3948.59607	0.07235
3947.31030	0.07278
3946.02453	0.07328
3944.73876	0.07353
3943.45299	0.07321
3942.16722	0.07238
3940.88145	0.07140
3939.59569	0.07065
3938.30992	0.07027
3937.02415	0.07015
3935.73838	0.06996
3934.45261	0.06941
3933.16684	0.06859
3931.88107	0.06798
3930.59530	0.06803
3929.30953	0.06876
3928.02377	0.06969
3926.73800	0.07023
3925.45223	0.07012
3924.16646	0.06960
3922.88069	0.06913
3921.59492	0.06898
3920.30915	0.06899
3919.02338	0.06876
3917.73762	0.06810
3916.45185	0.06735
3915.16608	0.06709
3913.88031	0.06754
3912.59454	0.06842
3911.30877	0.06925
3910.02300	0.06982
3908.73723	0.07019
3907.45146	0.07044
3906.16570	0.07055
3904.87993	0.07047
3903.59416	0.07017
3902.30839	0.06963
3901.02262	0.06896
3899.73685	0.06836
3898.45108	0.06808
3897.16531	0.06806
3895.87955	0.06801
3894.59378	0.06771
3893.30801	0.06722
3892.02224	0.06691
3890.73647	0.06713
3889.45070	0.06780
3888.16493	0.06842
3886.87916	0.06848
3885.59339	0.06784
3884.30763	0.06678
3883.02186	0.06575
3881.73609	0.06516
3880.45032	0.06513
3879.16455	0.06550
3877.87878	0.06605
3876.59301	0.06668
3875.30724	0.06730
3874.02148	0.06765
3872.73571	0.06756
3871.44994	0.06731
3870.16417	0.06746
3868.87840	0.06812
3867.59263	0.06869
3866.30686	0.06864
3865.02109	0.06810
3863.73532	0.06755
3862.44956	0.06717
3861.16379	0.06696
3859.87802	0.06695
3858.59225	0.06704
3857.30648	0.06705
3856.02071	0.06686
3854.73494	0.06663
3853.44917	0.06658
3852.16341	0.06657
3850.87764	0.06630
3849.59187	0.06576
3848.30610	0.06529
3847.02033	0.06511
3845.73456	0.06518
3844.44879	0.06529
3843.16302	0.06535
3841.87725	0.06532
3840.59149	0.06516
3839.30572	0.06499
3838.01995	0.06506
3836.73418	0.06544
3835.44841	0.06592
3834.16264	0.06628
3832.87687	0.06662
3831.59110	0.06710
3830.30534	0.06754
3829.01957	0.06764
3827.73380	0.06733
3826.44803	0.06684
3825.16226	0.06633
3823.87649	0.06578
3822.59072	0.06521
3821.30495	0.06476
3820.01918	0.06445
3818.73342	0.06406
3817.44765	0.06355
3816.16188	0.06327
3814.87611	0.06347
3813.59034	0.06389
3812.30457	0.06409
3811.01880	0.06397
3809.73303	0.06372
3808.44726	0.06365
3807.16150	0.06399
3805.87573	0.06466
3804.58996	0.06519
3803.30419	0.06528
3802.01842	0.06510
3800.73265	0.06497
3799.44688	0.06479
3798.16111	0.06429
3796.87535	0.06353
3795.58958	0.06276
3794.30381	0.06208
3793.01804	0.06151
3791.73227	0.06116
3790.44650	0.06123
3789.16073	0.06171
3787.87496	0.06232
3786.58919	0.06268
3785.30343	0.06264
3784.01766	0.06235
3782.73189	0.06202
3781.44612	0.06184
3780.16035	0.06189
3778.87458	0.06207
3777.58881	0.06218
3776.30304	0.06214
3775.01728	0.06213
3773.73151	0.06240
3772.44574	0.06298
3771.15997	0.06368
3769.87420	0.06423
3768.58843	0.06438
3767.30266	0.06404
3766.01689	0.06347
3764.73112	0.06309
3763.44536	0.06298
3762.15959	0.06285
3760.87382	0.06237
3759.58805	0.06156
3758.30228	0.06080
3757.01651	0.06058
3755.73074	0.06099
3754.44497	0.06163
3753.15921	0.06208
3751.87344	0.06230
3750.58767	0.06238
3749.30190	0.06229
3748.01613	0.06193
3746.73036	0.06127
3745.44459	0.06062
3744.15882	0.06040
3742.87305	0.06052
3741.58729	0.06040
3740.30152	0.05973
3739.01575	0.05867
3737.72998	0.05771
3736.44421	0.05743
3735.15844	0.05804
3733.87267	0.05897
3732.58690	0.05932
3731.30114	0.05874
3730.01537	0.05778
3728.72960	0.05723
3727.44383	0.05745
3726.15806	0.05815
3724.87229	0.05886
3723.58652	0.05942
3722.30075	0.05997
3721.01498	0.06064
3719.72922	0.06133
3718.44345	0.06185
3717.15768	0.06200
3715.87191	0.06179
3714.58614	0.06144
3713.30037	0.06129
3712.01460	0.06149
3710.72883	0.06177
3709.44307	0.06164
3708.15730	0.06086
3706.87153	0.05961
3705.58576	0.05831
3704.29999	0.05739
3703.01422	0.05716
3701.72845	0.05773
3700.44268	0.05878
3699.15691	0.05969
3697.87115	0.06005
3696.58538	0.06003
3695.29961	0.06017
3694.01384	0.06074
3692.72807	0.06157
3691.44230	0.06221
3690.15653	0.06241
3688.87076	0.06224
3687.58500	0.06202
3686.29923	0.06189
3685.01346	0.06169
3683.72769	0.06123
3682.44192	0.06046
3681.15615	0.05952
3679.87038	0.05873
3678.58461	0.05830
3677.29884	0.05821
3676.01308	0.05836
3674.72731	0.05876
3673.44154	0.05944
3672.15577	0.06024
3670.87000	0.06083
3669.58423	0.06080
3668.29846	0.05986
3667.01269	0.05836
3665.72693	0.05713
3664.44116	0.05677
3663.15539	0.05725
3661.86962	0.05812
3660.58385	0.05893
3659.29808	0.05947
3658.01231	0.05978
3656.72654	0.06009
3655.44077	0.06048
3654.15501	0.06080
3652.86924	0.06087
3651.58347	0.06075
3650.29770	0.06067
3649.01193	0.06071
3647.72616	0.06071
3646.44039	0.06043
3645.15462	0.05986
3643.86886	0.05930
3642.58309	0.05905
3641.29732	0.05924
3640.01155	0.05982
3638.72578	0.06072
3637.44001	0.06191
3636.15424	0.06323
3634.86847	0.06430
3633.58270	0.06479
3632.29694	0.06456
3631.01117	0.06380
3629.72540	0.06305
3628.43963	0.06285
3627.15386	0.06327
3625.86809	0.06393
3624.58232	0.06438
3623.29655	0.06448
3622.01079	0.06433
3620.72502	0.06418
3619.43925	0.06426
3618.15348	0.06460
3616.86771	0.06506
3615.58194	0.06549
3614.29617	0.06595
3613.01040	0.06645
3611.72463	0.06690
3610.43887	0.06717
3609.15310	0.06725
3607.86733	0.06720
3606.58156	0.06701
3605.29579	0.06661
3604.01002	0.06608
3602.72425	0.06566
3601.43848	0.06565
3600.15272	0.06624
3598.86695	0.06732
3597.58118	0.06852
3596.29541	0.06933
3595.00964	0.06956
3593.72387	0.06934
3592.43810	0.06904
3591.15233	0.06889
3589.86656	0.06897
3588.58080	0.06920
3587.29503	0.06953
3586.00926	0.06997
3584.72349	0.07058
3583.43772	0.07133
3582.15195	0.07208
3580.86618	0.07264
3579.58041	0.07285
3578.29464	0.07252
3577.00888	0.07159
3575.72311	0.07030
3574.43734	0.06919
3573.15157	0.06876
3571.86580	0.06914
3570.58003	0.07015
3569.29426	0.07141
3568.00849	0.07255
3566.72273	0.07332
3565.43696	0.07368
3564.15119	0.07380
3562.86542	0.07396
3561.57965	0.07428
3560.29388	0.07472
3559.00811	0.07520
3557.72234	0.07561
3556.43657	0.07590
3555.15081	0.07604
3553.86504	0.07616
3552.57927	0.07650
3551.29350	0.07716
3550.00773	0.07799
3548.72196	0.07873
3547.43619	0.07913
3546.15042	0.07906
3544.86466	0.07861
3543.57889	0.07813
3542.29312	0.07799
3541.00735	0.07827
3539.72158	0.07863
3538.43581	0.07871
3537.15004	0.07854
3535.86427	0.07850
3534.57850	0.07890
3533.29274	0.07966
3532.00697	0.08039
3530.72120	0.08080
3529.43543	0.08091
3528.14966	0.08085
3526.86389	0.08070
3525.57812	0.08048
3524.29235	0.08025
3523.00659	0.08018
3521.72082	0.08036
3520.43505	0.08072
3519.14928	0.08112
3517.86351	0.08148
3516.57774	0.08184
3515.29197	0.08232
3514.00620	0.08294
3512.72043	0.08356
3511.43467	0.08401
3510.14890	0.08422
3508.86313	0.08419
3507.57736	0.08394
3506.29159	0.08347
3505.00582	0.08293
3503.72005	0.08255
3502.43428	0.08246
3501.14852	0.08261
3499.86275	0.08288
3498.57698	0.08325
3497.29121	0.08387
3496.00544	0.08481
3494.71967	0.08594
3493.43390	0.08700
3492.14813	0.08777
3490.86236	0.08823
3489.57660	0.08840
3488.29083	0.08817
3487.00506	0.08746
3485.71929	0.08642
3484.43352	0.08553
3483.14775	0.08517
3481.86198	0.08537
3480.57621	0.08591
3479.29045	0.08660
3478.00468	0.08736
3476.71891	0.08810
3475.43314	0.08861
3474.14737	0.08878
3472.86160	0.08876
3471.57583	0.08878
3470.29006	0.08892
3469.00429	0.08913
3467.71853	0.08929
3466.43276	0.08937
3465.14699	0.08944
3463.86122	0.08957
3462.57545	0.08978
3461.28968	0.09002
3460.00391	0.09023
3458.71814	0.09039
3457.43238	0.09059
3456.14661	0.09087
3454.86084	0.09121
3453.57507	0.09149
3452.28930	0.09172
3451.00353	0.09202
3449.71776	0.09248
3448.43199	0.09294
3447.14622	0.09309
3445.86046	0.09278
3444.57469	0.09228
3443.28892	0.09205
3442.00315	0.09233
3440.71738	0.09293
3439.43161	0.09335
3438.14584	0.09326
3436.86007	0.09278
3435.57431	0.09237
3434.28854	0.09256
3433.00277	0.09348
3431.71700	0.09474
3430.43123	0.09569
3429.14546	0.09593
3427.85969	0.09557
3426.57392	0.09506
3425.28815	0.09479
3424.00239	0.09483
3422.71662	0.09492
3421.43085	0.09481
3420.14508	0.09446
3418.85931	0.09406
3417.57354	0.09380
3416.28777	0.09372
3415.00200	0.09380
3413.71624	0.09404
3412.43047	0.09444
3411.14470	0.09489
3409.85893	0.09526
3408.57316	0.09548
3407.28739	0.09565
3406.00162	0.09585
3404.71585	0.09607
3403.43008	0.09618
3402.14432	0.09614
3400.85855	0.09606
3399.57278	0.09615
3398.28701	0.09647
3397.00124	0.09687
3395.71547	0.09703
3394.42970	0.09679
3393.14393	0.09637
3391.85817	0.09620
3390.57240	0.09653
3389.28663	0.09715
3388.00086	0.09759
3386.71509	0.09760
3385.42932	0.09737
3384.14355	0.09728
3382.85778	0.09759
3381.57201	0.09821
3380.28625	0.09880
3379.00048	0.09910
3377.71471	0.09912
3376.42894	0.09914
3375.14317	0.09935
3373.85740	0.09974
3372.57163	0.10012
3371.28586	0.10032
3370.00010	0.10036
3368.71433	0.10030
3367.42856	0.10016
3366.14279	0.09994
3364.85702	0.09967
3363.57125	0.09942
3362.28548	0.09935
3360.99971	0.09957
3359.71394	0.09999
3358.42818	0.10030
3357.14241	0.10022
3355.85664	0.09987
3354.57087	0.09970
3353.28510	0.10000
3351.99933	0.10061
3350.71356	0.10108
3349.42779	0.10112
3348.14202	0.10081
3346.85626	0.10039
3345.57049	0.10007
3344.28472	0.09990
3342.99895	0.09984
3341.71318	0.09977
3340.42741	0.09960
3339.14164	0.09941
3337.85587	0.09941
3336.57011	0.09970
3335.28434	0.10017
3333.99857	0.10056
3332.71280	0.10064
3331.42703	0.10042
3330.14126	0.10011
3328.85549	0.09997
3327.56972	0.10014
3326.28395	0.10058
3324.99819	0.10104
3323.71242	0.10120
3322.42665	0.10093
3321.14088	0.10042
3319.85511	0.10008
3318.56934	0.10019
3317.28357	0.10064
3315.99780	0.10109
3314.71204	0.10123
3313.42627	0.10107
3312.14050	0.10080
3310.85473	0.10053
3309.56896	0.10027
3308.28319	0.10005
3306.99742	0.10000
3305.71165	0.10020
3304.42588	0.10053
3303.14012	0.10074
3301.85435	0.10078
3300.56858	0.10082
3299.28281	0.10110
3297.99704	0.10158
3296.71127	0.10189
3295.42550	0.10175
3294.13973	0.10122
3292.85397	0.10066
3291.56820	0.10033
3290.28243	0.10033
3288.99666	0.10063
3287.71089	0.10108
3286.42512	0.10139
3285.13935	0.10125
3283.85358	0.10062
3282.56781	0.09984
3281.28205	0.09927
3279.99628	0.09907
3278.71051	0.09915
3277.42474	0.09934
3276.13897	0.09957
3274.85320	0.09975
3273.56743	0.09973
3272.28166	0.09938
3270.99590	0.09880
3269.71013	0.09830
3268.42436	0.09819
3267.13859	0.09851
3265.85282	0.09905
3264.56705	0.09953
3263.28128	0.09980
3261.99551	0.09982
3260.70974	0.09967
3259.42398	0.09946
3258.13821	0.09922
3256.85244	0.09885
3255.56667	0.09828
3254.28090	0.09765
3252.99513	0.09713
3251.70936	0.09676
3250.42359	0.09651
3249.13783	0.09633
3247.85206	0.09628
3246.56629	0.09632
3245.28052	0.09640
3243.99475	0.09647
3242.70898	0.09650
3241.42321	0.09650
3240.13744	0.09643
3238.85167	0.09628
3237.56591	0.09606
3236.28014	0.09584
3234.99437	0.09562
3233.70860	0.09544
3232.42283	0.09541
3231.13706	0.09561
3229.85129	0.09592
3228.56552	0.09613
3227.27976	0.09615
3225.99399	0.09617
3224.70822	0.09630
3223.42245	0.09638
3222.13668	0.09611
3220.85091	0.09552
3219.56514	0.09498
3218.27937	0.09488
3216.99360	0.09519
3215.70784	0.09550
3214.42207	0.09544
3213.13630	0.09501
3211.85053	0.09453
3210.56476	0.09431
3209.27899	0.09440
3207.99322	0.09463
3206.70745	0.09479
3205.42169	0.09477
3204.13592	0.09462
3202.85015	0.09446
3201.56438	0.09435
3200.27861	0.09427
3198.99284	0.09421
3197.70707	0.09419
3196.42130	0.09422
3195.13553	0.09420
3193.84977	0.09406
3192.56400	0.09375
3191.27823	0.09325
3189.99246	0.09268
3188.70669	0.09220
3187.42092	0.09189
3186.13515	0.09174
3184.84938	0.09164
3183.56362	0.09153
3182.27785	0.09146
3180.99208	0.09152
3179.70631	0.09166
3178.42054	0.09172
3177.13477	0.09157
3175.84900	0.09131
3174.56323	0.09121
3173.27746	0.09133
3171.99170	0.09136
3170.70593	0.09093
3169.42016	0.09012
3168.13439	0.08943
3166.84862	0.08926
3165.56285	0.08946
3164.27708	0.08961
3162.99131	0.08946
3161.70555	0.08921
3160.41978	0.08914
3159.13401	0.08931
3157.84824	0.08962
3156.56247	0.08988
3155.27670	0.08997
3153.99093	0.08975
3152.70516	0.08914
3151.41939	0.08830
3150.13363	0.08756
3148.84786	0.08722
3147.56209	0.08729
3146.27632	0.08746
3144.99055	0.08745
3143.70478	0.08730
3142.41901	0.08730
3141.13324	0.08757
3139.84748	0.08792
3138.56171	0.08803
3137.27594	0.08774
3135.99017	0.08717
3134.70440	0.08662
3133.41863	0.08628
3132.13286	0.08619
3130.84709	0.08619
3129.56132	0.08609
3128.27556	0.08584
3126.98979	0.08548
3125.70402	0.08510
3124.41825	0.08481
3123.13248	0.08467
3121.84671	0.08466
3120.56094	0.08469
3119.27517	0.08467
3117.98940	0.08462
3116.70364	0.08465
3115.41787	0.08486
3114.13210	0.08526
3112.84633	0.08567
3111.56056	0.08592
3110.27479	0.08601
3108.98902	0.08603
3107.70325	0.08599
3106.41749	0.08586
3105.13172	0.08564
3103.84595	0.08534
3102.56018	0.08496
3101.27441	0.08450
3099.98864	0.08406
3098.70287	0.08378
3097.41710	0.08363
3096.13133	0.08351
3094.84557	0.08338
3093.55980	0.08337
3092.27403	0.08358
3090.98826	0.08397
3089.70249	0.08439
3088.41672	0.08465
3087.13095	0.08464
3085.84518	0.08434
3084.55942	0.08387
3083.27365	0.08338
3081.98788	0.08300
3080.70211	0.08283
3079.41634	0.08290
3078.13057	0.08312
3076.84480	0.08331
3075.55903	0.08337
3074.27326	0.08330
3072.98750	0.08316
3071.70173	0.08301
3070.41596	0.08287
3069.13019	0.08283
3067.84442	0.08291
3066.55865	0.08300
3065.27288	0.08296
3063.98711	0.08276
3062.70135	0.08250
3061.41558	0.08225
3060.12981	0.08200
3058.84404	0.08171
3057.55827	0.08137
3056.27250	0.08104
3054.98673	0.08075
3053.70096	0.08053
3052.41519	0.08041
3051.12943	0.08046
3049.84366	0.08068
3048.55789	0.08096
3047.27212	0.08113
3045.98635	0.08106
3044.70058	0.08076
3043.41481	0.08031
3042.12904	0.07983
3040.84328	0.07939
3039.55751	0.07908
3038.27174	0.07900
3036.98597	0.07921
3035.70020	0.07960
3034.41443	0.07990
3033.12866	0.07988
3031.84289	0.07950
3030.55712	0.07892
3029.27136	0.07837
3027.98559	0.07799
3026.69982	0.07773
3025.41405	0.07745
3024.12828	0.07710
3022.84251	0.07680
3021.55674	0.07668
3020.27097	0.07675
3018.98521	0.07687
3017.69944	0.07692
3016.41367	0.07689
3015.12790	0.07687
3013.84213	0.07686
3012.55636	0.07682
3011.27059	0.07666
3009.98482	0.07641
3008.69905	0.07614
3007.41329	0.07589
3006.12752	0.07568
3004.84175	0.07544
3003.55598	0.07518
3002.27021	0.07486
3000.98444	0.07450
2999.69867	0.07415
2998.41290	0.07395
2997.12714	0.07405
2995.84137	0.07447
2994.55560	0.07505
2993.26983	0.07560
2991.98406	0.07599
2990.69829	0.07619
2989.41252	0.07624
2988.12675	0.07620
2986.84098	0.07614
2985.55522	0.07609
2984.26945	0.07610
2982.98368	0.07622
2981.69791	0.07651
2980.41214	0.07701
2979.12637	0.07772
2977.84060	0.07856
2976.55483	0.07950
2975.26907	0.08048
2973.98330	0.08147
2972.69753	0.08236
2971.41176	0.08311
2970.12599	0.08381
2968.84022	0.08467
2967.55445	0.08584
2966.26868	0.08728
2964.98291	0.08882
2963.69715	0.09033
2962.41138	0.09177
2961.12561	0.09318
2959.83984	0.09458
2958.55407	0.09591
2957.26830	0.09708
2955.98253	0.09804
2954.69676	0.09881
2953.41100	0.09946
2952.12523	0.10002
2950.83946	0.10045
2949.55369	0.10065
2948.26792	0.10056
2946.98215	0.10028
2945.69638	0.09997
2944.41061	0.09982
2943.12484	0.09989
2941.83908	0.10015
2940.55331	0.10051
2939.26754	0.10094
2937.98177	0.10150
2936.69600	0.10224
2935.41023	0.10321
2934.12446	0.10439
2932.83869	0.10571
2931.55293	0.10706
2930.26716	0.10826
2928.98139	0.10917
2927.69562	0.10982
2926.40985	0.11039
2925.12408	0.11112
2923.83831	0.11200
2922.55254	0.11276
2921.26677	0.11309
2919.98101	0.11287
2918.69524	0.11221
2917.40947	0.11126
2916.12370	0.11015
2914.83793	0.10904
2913.55216	0.10801
2912.26639	0.10696
2910.98062	0.10576
2909.69486	0.10444
2908.40909	0.10324
2907.12332	0.10231
2905.83755	0.10155
2904.55178	0.10076
2903.26601	0.09995
2901.98024	0.09926
2900.69447	0.09876
2899.40870	0.09833
2898.12294	0.09779
2896.83717	0.09708
2895.55140	0.09626
2894.26563	0.09547
2892.97986	0.09472
2891.69409	0.09402
2890.40832	0.09338
2889.12255	0.09287
2887.83678	0.09248
2886.55102	0.09207
2885.26525	0.09153
2883.97948	0.09090
2882.69371	0.09042
2881.40794	0.09031
2880.12217	0.09053
2878.83640	0.09085
2877.55063	0.09108
2876.26487	0.09121
2874.97910	0.09135
2873.69333	0.09152
2872.40756	0.09164
2871.12179	0.09175
2869.83602	0.09194
2868.55025	0.09223
2867.26448	0.09248
2865.97871	0.09255
2864.69295	0.09246
2863.40718	0.09237
2862.12141	0.09244
2860.83564	0.09266
2859.54987	0.09296
2858.26410	0.09331
2856.97833	0.09367
2855.69256	0.09390
2854.40680	0.09379
2853.12103	0.09330
2851.83526	0.09263
2850.54949	0.09195
2849.26372	0.09127
2847.97795	0.09045
2846.69218	0.08943
2845.40641	0.08831
2844.12064	0.08723
2842.83488	0.08628
2841.54911	0.08542
2840.26334	0.08454
2838.97757	0.08350
2837.69180	0.08233
2836.40603	0.08120
2835.12026	0.08028
2833.83449	0.07951
2832.54873	0.07868
2831.26296	0.07770
2829.97719	0.07667
2828.69142	0.07573
2827.40565	0.07496
2826.11988	0.07436
2824.83411	0.07390
2823.54834	0.07354
2822.26257	0.07320
2820.97681	0.07281
2819.69104	0.07239
2818.40527	0.07203
2817.11950	0.07177
2815.83373	0.07156
2814.54796	0.07128
2813.26219	0.07093
2811.97642	0.07067
2810.69066	0.07065
2809.40489	0.07082
2808.11912	0.07090
2806.83335	0.07065
2805.54758	0.07019
2804.26181	0.06982
2802.97604	0.06970
2801.69027	0.06974
2800.40450	0.06974
2799.11874	0.06959
2797.83297	0.06927
2796.54720	0.06881
2795.26143	0.06831
2793.97566	0.06791
2792.68989	0.06772
2791.40412	0.06774
2790.11835	0.06780
2788.83259	0.06776
2787.54682	0.06759
2786.26105	0.06742
2784.97528	0.06733
2783.68951	0.06729
2782.40374	0.06721
2781.11797	0.06706
2779.83220	0.06696
2778.54643	0.06694
2777.26067	0.06692
2775.97490	0.06677
2774.68913	0.06649
2773.40336	0.06619
2772.11759	0.06599
2770.83182	0.06585
2769.54605	0.06568
2768.26028	0.06546
2766.97452	0.06524
2765.68875	0.06506
2764.40298	0.06491
2763.11721	0.06472
2761.83144	0.06446
2760.54567	0.06414
2759.25990	0.06387
2757.97413	0.06369
2756.68836	0.06360
2755.40260	0.06355
2754.11683	0.06356
2752.83106	0.06364
2751.54529	0.06384
2750.25952	0.06409
2748.97375	0.06425
2747.68798	0.06421
2746.40221	0.06396
2745.11645	0.06365
2743.83068	0.06343
2742.54491	0.06333
2741.25914	0.06332
2739.97337	0.06333
2738.68760	0.06333
2737.40183	0.06330
2736.11606	0.06325
2734.83029	0.06314
2733.54453	0.06293
2732.25876	0.06265
2730.97299	0.06238
2729.68722	0.06225
2728.40145	0.06236
2727.11568	0.06267
2725.82991	0.06299
2724.54414	0.06305
2723.25838	0.06275
2721.97261	0.06223
2720.68684	0.06174
2719.40107	0.06146
2718.11530	0.06141
2716.82953	0.06147
2715.54376	0.06148
2714.25799	0.06129
2712.97222	0.06094
2711.68646	0.06058
2710.40069	0.06034
2709.11492	0.06023
2707.82915	0.06016
2706.54338	0.06012
2705.25761	0.06016
2703.97184	0.06030
2702.68607	0.06051
2701.40031	0.06069
2700.11454	0.06077
2698.82877	0.06072
2697.54300	0.06052
2696.25723	0.06021
2694.97146	0.05989
2693.68569	0.05967
2692.39992	0.05958
2691.11415	0.05954
2689.82839	0.05943
2688.54262	0.05922
2687.25685	0.05902
2685.97108	0.05898
2684.68531	0.05909
2683.39954	0.05922
2682.11377	0.05925
2680.82800	0.05917
2679.54224	0.05903
2678.25647	0.05890
2676.97070	0.05885
2675.68493	0.05890
2674.39916	0.05897
2673.11339	0.05893
2671.82762	0.05872
2670.54185	0.05845
2669.25608	0.05824
2667.97032	0.05823
2666.68455	0.05844
2665.39878	0.05874
2664.11301	0.05891
2662.82724	0.05876
2661.54147	0.05834
2660.25570	0.05788
2658.96993	0.05761
2657.68417	0.05752
2656.39840	0.05751
2655.11263	0.05747
2653.82686	0.05731
2652.54109	0.05695
2651.25532	0.05638
2649.96955	0.05580
2648.68378	0.05549
2647.39801	0.05549
2646.11225	0.05555
2644.82648	0.05543
2643.54071	0.05515
2642.25494	0.05488
2640.96917	0.05469
2639.68340	0.05453
2638.39763	0.05437
2637.11186	0.05425
2635.82609	0.05420
2634.54033	0.05418
2633.25456	0.05417
2631.96879	0.05417
2630.68302	0.05411
2629.39725	0.05389
2628.11148	0.05361
2626.82571	0.05339
2625.53994	0.05333
2624.25418	0.05333
2622.96841	0.05329
2621.68264	0.05312
2620.39687	0.05280
2619.11110	0.05237
2617.82533	0.05195
2616.53956	0.05173
2615.25379	0.05183
2613.96802	0.05212
2612.68226	0.05230
2611.39649	0.05210
2610.11072	0.05161
2608.82495	0.05113
2607.53918	0.05095
2606.25341	0.05098
2604.96764	0.05088
2603.68187	0.05045
2602.39611	0.04991
2601.11034	0.04961
2599.82457	0.04958
2598.53880	0.04951
2597.25303	0.04914
2595.96726	0.04864
2594.68149	0.04835
2593.39572	0.04840
2592.10995	0.04857
2590.82419	0.04866
2589.53842	0.04861
2588.25265	0.04851
2586.96688	0.04835
2585.68111	0.04804
2584.39534	0.04761
2583.10957	0.04722
2581.82380	0.04710
2580.53804	0.04730
2579.25227	0.04766
2577.96650	0.04792
2576.68073	0.04799
2575.39496	0.04801
2574.10919	0.04815
2572.82342	0.04836
2571.53765	0.04846
2570.25188	0.04836
2568.96612	0.04815
2567.68035	0.04792
2566.39458	0.04769
2565.10881	0.04747
2563.82304	0.04728
2562.53727	0.04713
2561.25150	0.04702
2559.96573	0.04695
2558.67997	0.04686
2557.39420	0.04670
2556.10843	0.04651
2554.82266	0.04642
2553.53689	0.04650
2552.25112	0.04666
2550.96535	0.04675
2549.67958	0.04662
2548.39381	0.04617
2547.10805	0.04552
2545.82228	0.04497
2544.53651	0.04485
2543.25074	0.04517
2541.96497	0.04561
2540.67920	0.04578
2539.39343	0.04557
2538.10766	0.04520
2536.82190	0.04491
2535.53613	0.04474
2534.25036	0.04465
2532.96459	0.04474
2531.67882	0.04512
2530.39305	0.04571
2529.10728	0.04622
2527.82151	0.04636
2526.53574	0.04607
2525.24998	0.04548
2523.96421	0.04488
2522.67844	0.04449
2521.39267	0.04437
2520.10690	0.04442
2518.82113	0.04455
2517.53536	0.04476
2516.24959	0.04501
2514.96383	0.04519
2513.67806	0.04522
2512.39229	0.04508
2511.10652	0.04484
2509.82075	0.04455
2508.53498	0.04418
2507.24921	0.04372
2505.96344	0.04332
2504.67767	0.04321
2503.39191	0.04349
2502.10614	0.04394
2500.82037	0.04420
2499.53460	0.04408
2498.24883	0.04377
2496.96306	0.04356
2495.67729	0.04358
2494.39152	0.04369
2493.10576	0.04367
2491.81999	0.04345
2490.53422	0.04312
2489.24845	0.04289
2487.96268	0.04295
2486.67691	0.04331
2485.39114	0.04380
2484.10537	0.04409
2482.81960	0.04399
2481.53384	0.04348
2480.24807	0.04276
2478.96230	0.04207
2477.67653	0.04164
2476.39076	0.04157
2475.10499	0.04182
2473.81922	0.04225
2472.53345	0.04268
2471.24769	0.04301
2469.96192	0.04319
2468.67615	0.04317
2467.39038	0.04289
2466.10461	0.04243
2464.81884	0.04203
2463.53307	0.04196
2462.24730	0.04223
2460.96153	0.04261
2459.67577	0.04284
2458.39000	0.04291
2457.10423	0.04296
2455.81846	0.04309
2454.53269	0.04321
2453.24692	0.04317
2451.96115	0.04294
2450.67538	0.04260
2449.38962	0.04229
2448.10385	0.04208
2446.81808	0.04192
2445.53231	0.04173
2444.24654	0.04155
2442.96077	0.04145
2441.67500	0.04142
2440.38923	0.04138
2439.10346	0.04128
2437.81770	0.04120
2436.53193	0.04113
2435.24616	0.04098
2433.96039	0.04072
2432.67462	0.04052
2431.38885	0.04053
2430.10308	0.04071
2428.81731	0.04088
2427.53155	0.04089
2426.24578	0.04076
2424.96001	0.04062
2423.67424	0.04063
2422.38847	0.04086
2421.10270	0.04113
2419.81693	0.04120
2418.53116	0.04106
2417.24539	0.04086
2415.95963	0.04068
2414.67386	0.04043
2413.38809	0.04004
2412.10232	0.03969
2410.81655	0.03959
2409.53078	0.03983
2408.24501	0.04027
2406.95924	0.04069
2405.67347	0.04085
2404.38771	0.04071
2403.10194	0.04045
2401.81617	0.04029
2400.53040	0.04028
2399.24463	0.04033
2397.95886	0.04038
2396.67309	0.04038
2395.38732	0.04035
2394.10156	0.04029
2392.81579	0.04025
2391.53002	0.04022
2390.24425	0.04014
2388.95848	0.03999
2387.67271	0.03982
2386.38694	0.03971
2385.10117	0.03972
2383.81540	0.03990
2382.52964	0.04028
2381.24387	0.04079
2379.95810	0.04126
2378.67233	0.04147
2377.38656	0.04140
2376.10079	0.04121
2374.81502	0.04105
2373.52925	0.04098
2372.24349	0.04094
2370.95772	0.04091
2369.67195	0.04088
2368.38618	0.04089
2367.10041	0.04094
2365.81464	0.04103
2364.52887	0.04116
2363.24310	0.04138
2361.95733	0.04170
2360.67157	0.04207
2359.38580	0.04241
2358.10003	0.04266
2356.81426	0.04274
2355.52849	0.04264
2354.24272	0.04238
2352.95695	0.04211
2351.67118	0.04196
2350.38542	0.04195
2349.09965	0.04199
2347.81388	0.04198
2346.52811	0.04185
2345.24234	0.04161
2343.95657	0.04135
2342.67080	0.04121
2341.38503	0.04126
2340.09926	0.04148
2338.81350	0.04173
2337.52773	0.04185
2336.24196	0.04184
2334.95619	0.04178
2333.67042	0.04180
2332.38465	0.04190
2331.09888	0.04196
2329.81311	0.04193
2328.52735	0.04192
2327.24158	0.04211
2325.95581	0.04249
2324.67004	0.04284
2323.38427	0.04288
2322.09850	0.04258
2320.81273	0.04216
2319.52696	0.04186
2318.24119	0.04172
2316.95543	0.04156
2315.66966	0.04126
2314.38389	0.04087
2313.09812	0.04056
2311.81235	0.04042
2310.52658	0.04037
2309.24081	0.04021
2307.95504	0.03981
2306.66928	0.03921
2305.38351	0.03863
2304.09774	0.03823
2302.81197	0.03804
2301.52620	0.03797
2300.24043	0.03788
2298.95466	0.03767
2297.66889	0.03741
2296.38312	0.03725
2295.09736	0.03730
2293.81159	0.03746
2292.52582	0.03749
2291.24005	0.03728
2289.95428	0.03696
2288.66851	0.03669
2287.38274	0.03642
2286.09697	0.03609
2284.81121	0.03581
2283.52544	0.03576
2282.23967	0.03584
2280.95390	0.03571
2279.66813	0.03516
2278.38236	0.03435
2277.09659	0.03366
2275.81082	0.03332
2274.52505	0.03330
2273.23929	0.03339
2271.95352	0.03343
2270.66775	0.03336
2269.38198	0.03329
2268.09621	0.03333
2266.81044	0.03339
2265.52467	0.03319
2264.23890	0.03249
2262.95314	0.03141
2261.66737	0.03042
2260.38160	0.02999
2259.09583	0.03025
2257.81006	0.03099
2256.52429	0.03177
2255.23852	0.03220
2253.95275	0.03209
2252.66698	0.03160
2251.38122	0.03109
2250.09545	0.03082
2248.80968	0.03083
2247.52391	0.03099
2246.23814	0.03111
2244.95237	0.03102
2243.66660	0.03070
2242.38083	0.03043
2241.09507	0.03052
2239.80930	0.03078
2238.52353	0.03069
2237.23776	0.02993
2235.95199	0.02885
2234.66622	0.02806
2233.38045	0.02786
2232.09468	0.02814
2230.80891	0.02858
2229.52315	0.02896
2228.23738	0.02904
2226.95161	0.02879
2225.66584	0.02836
2224.38007	0.02807
2223.09430	0.02802
2221.80853	0.02807
2220.52276	0.02802
2219.23700	0.02789
2217.95123	0.02779
2216.66546	0.02769
2215.37969	0.02745
2214.09392	0.02697
2212.80815	0.02630
2211.52238	0.02551
2210.23661	0.02470
2208.95084	0.02396
2207.66508	0.02338
2206.37931	0.02308
2205.09354	0.02311
2203.80777	0.02335
2202.52200	0.02359
2201.23623	0.02385
2199.95046	0.02436
2198.66469	0.02509
2197.37893	0.02553
2196.09316	0.02529
2194.80739	0.02462
2193.52162	0.02412
2192.23585	0.02401
2190.95008	0.02408
2189.66431	0.02409
2188.37854	0.02397
2187.09277	0.02369
2185.80701	0.02315
2184.52124	0.02234
2183.23547	0.02154
2181.94970	0.02114
2180.66393	0.02133
2179.37816	0.02190
2178.09239	0.02248
2176.80662	0.02281
2175.52085	0.02273
2174.23509	0.02203
2172.94932	0.02066
2171.66355	0.01894
2170.37778	0.01746
2169.09201	0.01674
2167.80624	0.01698
2166.52047	0.01794
2165.23470	0.01904
2163.94894	0.01955
2162.66317	0.01902
2161.37740	0.01752
2160.09163	0.01564
2158.80586	0.01423
2157.52009	0.01385
2156.23432	0.01452
2154.94855	0.01586
2153.66278	0.01729
2152.37702	0.01817
2151.09125	0.01822
2149.80548	0.01772
2148.51971	0.01730
2147.23394	0.01733
2145.94817	0.01782
2144.66240	0.01858
2143.37663	0.01937
2142.09087	0.01995
2140.80510	0.02024
2139.51933	0.02038
2138.23356	0.02063
2136.94779	0.02113
2135.66202	0.02171
2134.37625	0.02202
2133.09048	0.02194
2131.80471	0.02173
2130.51895	0.02169
2129.23318	0.02181
2127.94741	0.02193
2126.66164	0.02210
2125.37587	0.02252
2124.09010	0.02317
2122.80433	0.02392
2121.51856	0.02466
2120.23280	0.02537
2118.94703	0.02590
2117.66126	0.02608
2116.37549	0.02587
2115.08972	0.02541
2113.80395	0.02499
2112.51818	0.02484
2111.23241	0.02492
2109.94664	0.02488
2108.66088	0.02450
2107.37511	0.02398
2106.08934	0.02369
2104.80357	0.02370
2103.51780	0.02371
2102.23203	0.02347
2100.94626	0.02301
2099.66049	0.02206
2098.37473	0.02147
2097.08896	0.02124
2095.80319	0.02121
2094.51742	0.02142
2093.23165	0.02196
2091.94588	0.02274
2090.66011	0.02350
2089.37434	0.02405
2088.08857	0.02432
2086.80281	0.02434
2085.51704	0.02411
2084.23127	0.02369
2082.94550	0.02317
2081.65973	0.02264
2080.37396	0.02208
2079.08819	0.02147
2077.80242	0.02093
2076.51666	0.02072
2075.23089	0.02093
2073.94512	0.02133
2072.65935	0.02150
2071.37358	0.02123
2070.08781	0.02058
2068.80204	0.01979
2067.51627	0.01911
2066.23050	0.01864
2064.94474	0.01841
2063.65897	0.01837
2062.37320	0.01841
2061.08743	0.01846
2059.80166	0.01852
2058.51589	0.01864
2057.23012	0.01875
2055.94435	0.01867
2054.65859	0.01832
2053.37282	0.01779
2052.08705	0.01716
2050.80128	0.01642
2049.51551	0.01555
2048.22974	0.01459
2046.94397	0.01371
2045.65820	0.01301
2044.37243	0.01246
2043.08667	0.01198
2041.80090	0.01162
2040.51513	0.01159
2039.22936	0.01186
2037.94359	0.01191
2036.65782	0.01117
2035.37205	0.00975
2034.08628	0.00836
2032.80052	0.00770
2031.51475	0.00788
2030.22898	0.00853
2028.94321	0.00922
2027.65744	0.00974
2026.37167	0.01005
2025.08590	0.01013
2023.80013	0.00993
2022.51436	0.00958
2021.22860	0.00953
2019.94283	0.01014
2018.65706	0.01127
2017.37129	0.01244
2016.08552	0.01314
2014.79975	0.01320
2013.51398	0.01270
2012.22821	0.01193
2010.94245	0.01119
2009.65668	0.01071
2008.37091	0.01062
2007.08514	0.01099
2005.79937	0.01178
2004.51360	0.01276
2003.22783	0.01375
2001.94206	0.01460
2000.65629	0.01513
1999.37053	0.01520
1998.08476	0.01491
1996.79899	0.01472
1995.51322	0.01504
1994.22745	0.01591
1992.94168	0.01692
1991.65591	0.01760
1990.37014	0.01763
1989.08438	0.01701
1987.79861	0.01590
1986.51284	0.01472
1985.22707	0.01399
1983.94130	0.01413
1982.65553	0.01506
1981.36976	0.01622
1980.08399	0.01693
1978.79822	0.01680
1977.51246	0.01587
1976.22669	0.01459
1974.94092	0.01372
1973.65515	0.01390
1972.36938	0.01518
1971.08361	0.01684
1969.79784	0.01788
1968.51207	0.01766
1967.22631	0.01628
1965.94054	0.01446
1964.65477	0.01316
1963.36900	0.01303
1962.08323	0.01400
1960.79746	0.01538
1959.51169	0.01655
1958.22592	0.01746
1956.94015	0.01836
1955.65439	0.01938
1954.36862	0.02027
1953.08285	0.02073
1951.79708	0.02064
1950.51131	0.02006
1949.22554	0.01931
1947.93977	0.01888
1946.65400	0.01911
1945.36823	0.01988
1944.08247	0.02069
1942.79670	0.02109
1941.51093	0.02101
1940.22516	0.02066
1938.93939	0.02024
1937.65362	0.01985
1936.36785	0.01954
1935.08208	0.01945
1933.79632	0.01974
1932.51055	0.02036
1931.22478	0.02098
1929.93901	0.02122
1928.65324	0.02097
1927.36747	0.02043
1926.08170	0.02001
1924.79593	0.02001
1923.51016	0.02041
1922.22440	0.02092
1920.93863	0.02124
1919.65286	0.02128
1918.36709	0.02114
1917.08132	0.02099
1915.79555	0.02087
1914.50978	0.02084
1913.22401	0.02097
1911.93825	0.02127
1910.65248	0.02160
1909.36671	0.02177
1908.08094	0.02169
1906.79517	0.02153
1905.50940	0.02148
1904.22363	0.02158
1902.93786	0.02173
1901.65209	0.02187
1900.36633	0.02207
1899.08056	0.02234
1897.79479	0.02256
1896.50902	0.02251
1895.22325	0.02215
1893.93748	0.02169
1892.65171	0.02147
1891.36594	0.02167
1890.08018	0.02220
1888.79441	0.02273
1887.50864	0.02299
1886.22287	0.02290
1884.93710	0.02260
1883.65133	0.02233
1882.36556	0.02228
1881.07979	0.02245
1879.79402	0.02272
1878.50826	0.02292
1877.22249	0.02297
1875.93672	0.02289
1874.65095	0.02281
1873.36518	0.02281
1872.07941	0.02286
1870.79364	0.02289
1869.50787	0.02288
1868.22211	0.02288
1866.93634	0.02297
1865.65057	0.02313
1864.36480	0.02331
1863.07903	0.02342
1861.79326	0.02342
1860.50749	0.02336
1859.22172	0.02336
1857.93595	0.02347
1856.65019	0.02364
1855.36442	0.02371
1854.07865	0.02362
1852.79288	0.02346
1851.50711	0.02334
1850.22134	0.02332
1848.93557	0.02338
1847.64980	0.02350
1846.36404	0.02364
1845.07827	0.02375
1843.79250	0.02378
1842.50673	0.02370
1841.22096	0.02354
1839.93519	0.02336
1838.64942	0.02328
1837.36365	0.02327
1836.07788	0.02326
1834.79212	0.02321
1833.50635	0.02316
1832.22058	0.02316
1830.93481	0.02322
1829.64904	0.02331
1828.36327	0.02336
1827.07750	0.02331
1825.79173	0.02318
1824.50597	0.02308
1823.22020	0.02306
1821.93443	0.02306
1820.64866	0.02303
1819.36289	0.02298
1818.07712	0.02302
1816.79135	0.02318
1815.50558	0.02341
1814.21981	0.02362
1812.93405	0.02378
1811.64828	0.02388
1810.36251	0.02392
1809.07674	0.02394
1807.79097	0.02396
1806.50520	0.02398
1805.21943	0.02400
1803.93366	0.02400
1802.64790	0.02395
1801.36213	0.02389
1800.07636	0.02384
1798.79059	0.02383
1797.50482	0.02386
1796.21905	0.02387
1794.93328	0.02383
1793.64751	0.02375
1792.36174	0.02371
1791.07598	0.02376
1789.79021	0.02386
1788.50444	0.02394
1787.21867	0.02397
1785.93290	0.02402
1784.64713	0.02411
1783.36136	0.02422
1782.07559	0.02427
1780.78983	0.02421
1779.50406	0.02410
1778.21829	0.02402
1776.93252	0.02402
1775.64675	0.02412
1774.36098	0.02425
1773.07521	0.02438
1771.78944	0.02450
1770.50367	0.02459
1769.21791	0.02463
1767.93214	0.02465
1766.64637	0.02467
1765.36060	0.02466
1764.07483	0.02457
1762.78906	0.02443
1761.50329	0.02432
1760.21752	0.02430
1758.93176	0.02434
1757.64599	0.02441
1756.36022	0.02449
1755.07445	0.02457
1753.78868	0.02460
1752.50291	0.02460
1751.21714	0.02459
1749.93137	0.02460
1748.64560	0.02462
1747.35984	0.02464
1746.07407	0.02466
1744.78830	0.02470
1743.50253	0.02473
1742.21676	0.02473
1740.93099	0.02473
1739.64522	0.02481
1738.35945	0.02497
1737.07369	0.02512
1735.78792	0.02515
1734.50215	0.02516
1733.21638	0.02530
1731.93061	0.02559
1730.64484	0.02587
1729.35907	0.02602
1728.07330	0.02607
1726.78753	0.02610
1725.50177	0.02617
1724.21600	0.02626
1722.93023	0.02631
1721.64446	0.02629
1720.35869	0.02623
1719.07292	0.02620
1717.78715	0.02634
1716.50138	0.02671
1715.21561	0.02721
1713.92985	0.02772
1712.64408	0.02819
1711.35831	0.02862
1710.07254	0.02906
1708.78677	0.02956
1707.50100	0.03014
1706.21523	0.03078
1704.92946	0.03144
1703.64370	0.03202
1702.35793	0.03247
1701.07216	0.03292
1699.78639	0.03357
1698.50062	0.03438
1697.21485	0.03519
1695.92908	0.03599
1694.64331	0.03688
1693.35754	0.03781
1692.07178	0.03865
1690.78601	0.03942
1689.50024	0.04022
1688.21447	0.04101
1686.92870	0.04170
1685.64293	0.04228
1684.35716	0.04291
1683.07139	0.04368
1681.78563	0.04451
1680.49986	0.04532
1679.21409	0.04610
1677.92832	0.04688
1676.64255	0.04768
1675.35678	0.04855
1674.07101	0.04951
1672.78524	0.05046
1671.49947	0.05129
1670.21371	0.05203
1668.92794	0.05281
1667.64217	0.05366
1666.35640	0.05453
1665.07063	0.05534
1663.78486	0.05610
1662.49909	0.05684
1661.21332	0.05757
1659.92756	0.05827
1658.64179	0.05893
1657.35602	0.05951
1656.07025	0.05993
1654.78448	0.06017
1653.49871	0.06042
1652.21294	0.06087
1650.92717	0.06147
1649.64140	0.06199
1648.35564	0.06230
1647.06987	0.06248
1645.78410	0.06258
1644.49833	0.06264
1643.21256	0.06265
1641.92679	0.06264
1640.64102	0.06265
1639.35525	0.06265
1638.06949	0.06253
1636.78372	0.06223
1635.49795	0.06183
1634.21218	0.06140
1632.92641	0.06093
1631.64064	0.06039
1630.35487	0.05981
1629.06910	0.05929
1627.78333	0.05881
1626.49757	0.05833
1625.21180	0.05774
1623.92603	0.05707
1622.64026	0.05639
1621.35449	0.05573
1620.06872	0.05507
1618.78295	0.05436
1617.49718	0.05369
1616.21142	0.05317
1614.92565	0.05281
1613.63988	0.05250
1612.35411	0.05216
1611.06834	0.05180
1609.78257	0.05139
1608.49680	0.05097
1607.21103	0.05056
1605.92526	0.05024
1604.63950	0.05002
1603.35373	0.04986
1602.06796	0.04972
1600.78219	0.04956
1599.49642	0.04940
1598.21065	0.04928
1596.92488	0.04920
1595.63911	0.04915
1594.35335	0.04915
1593.06758	0.04920
1591.78181	0.04930
1590.49604	0.04940
1589.21027	0.04950
1587.92450	0.04963
1586.63873	0.04979
1585.35296	0.04999
1584.06719	0.05016
1582.78143	0.05030
1581.49566	0.05046
1580.20989	0.05071
1578.92412	0.05104
1577.63835	0.05140
1576.35258	0.05180
1575.06681	0.05226
1573.78104	0.05271
1572.49528	0.05304
1571.20951	0.05332
1569.92374	0.05367
1568.63797	0.05417
1567.35220	0.05472
1566.06643	0.05519
1564.78066	0.05555
1563.49489	0.05585
1562.20912	0.05610
1560.92336	0.05631
1559.63759	0.05658
1558.35182	0.05698
1557.06605	0.05746
1555.78028	0.05789
1554.49451	0.05824
1553.20874	0.05858
1551.92297	0.05891
1550.63721	0.05918
1549.35144	0.05938
1548.06567	0.05952
1546.77990	0.05960
1545.49413	0.05964
1544.20836	0.05967
1542.92259	0.05966
1541.63682	0.05961
1540.35105	0.05953
1539.06529	0.05955
1537.77952	0.05967
1536.49375	0.05978
1535.20798	0.05981
1533.92221	0.05980
1532.63644	0.05988
1531.35067	0.06010
1530.06490	0.06040
1528.77914	0.06073
1527.49337	0.06104
1526.20760	0.06135
1524.92183	0.06170
1523.63606	0.06212
1522.35029	0.06261
1521.06452	0.06320
1519.77875	0.06390
1518.49298	0.06465
1517.20722	0.06544
1515.92145	0.06627
1514.63568	0.06715
1513.34991	0.06807
1512.06414	0.06906
1510.77837	0.07015
1509.49260	0.07127
1508.20683	0.07232
1506.92107	0.07329
1505.63530	0.07427
1504.34953	0.07526
1503.06376	0.07621
1501.77799	0.07708
1500.49222	0.07790
1499.20645	0.07866
1497.92068	0.07936
1496.63491	0.08002
1495.34915	0.08067
1494.06338	0.08130
1492.77761	0.08186
1491.49184	0.08233
1490.20607	0.08280
1488.92030	0.08335
1487.63453	0.08400
1486.34876	0.08477
1485.06299	0.08566
1483.77723	0.08664
1482.49146	0.08765
1481.20569	0.08870
1479.91992	0.08982
1478.63415	0.09102
1477.34838	0.09228
1476.06261	0.09352
1474.77684	0.09467
1473.49108	0.09572
1472.20531	0.09676
1470.91954	0.09784
1469.63377	0.09889
1468.34800	0.09984
1467.06223	0.10065
1465.77646	0.10140
1464.49069	0.10217
1463.20492	0.10298
1461.91916	0.10380
1460.63339	0.10456
1459.34762	0.10527
1458.06185	0.10598
1456.77608	0.10673
1455.49031	0.10748
1454.20454	0.10810
1452.91877	0.10856
1451.63301	0.10891
1450.34724	0.10920
1449.06147	0.10938
1447.77570	0.10943
1446.48993	0.10934
1445.20416	0.10910
1443.91839	0.10869
1442.63262	0.10817
1441.34685	0.10760
1440.06109	0.10706
1438.77532	0.10655
1437.48955	0.10611
1436.20378	0.10587
1434.91801	0.10590
1433.63224	0.10617
1432.34647	0.10665
1431.06070	0.10731
1429.77494	0.10816
1428.48917	0.10919
1427.20340	0.11037
1425.91763	0.11164
1424.63186	0.11300
1423.34609	0.11443
1422.06032	0.11586
1420.77455	0.11722
1419.48878	0.11849
1418.20302	0.11965
1416.91725	0.12063
1415.63148	0.12140
1414.34571	0.12198
1413.05994	0.12240
1411.77417	0.12266
1410.48840	0.12275
1409.20263	0.12266
1407.91687	0.12235
1406.63110	0.12181
1405.34533	0.12105
1404.05956	0.12009
1402.77379	0.11894
1401.48802	0.11757
1400.20225	0.11600
1398.91648	0.11426
1397.63071	0.11242
1396.34495	0.11051
1395.05918	0.10858
1393.77341	0.10663
1392.48764	0.10468
1391.20187	0.10272
1389.91610	0.10080
1388.63033	0.09895
1387.34456	0.09719
1386.05880	0.09548
1384.77303	0.09376
1383.48726	0.09205
1382.20149	0.09037
1380.91572	0.08876
1379.62995	0.08716
1378.34418	0.08551
1377.05841	0.08375
1375.77264	0.08186
1374.48688	0.07985
1373.20111	0.07773
1371.91534	0.07553
1370.62957	0.07331
1369.34380	0.07115
1368.05803	0.06915
1366.77226	0.06731
1365.48649	0.06557
1364.20073	0.06387
1362.91496	0.06222
1361.62919	0.06065
1360.34342	0.05920
1359.05765	0.05789
1357.77188	0.05668
1356.48611	0.05556
1355.20034	0.05454
1353.91457	0.05361
1352.62881	0.05276
1351.34304	0.05194
1350.05727	0.05115
1348.77150	0.05040
1347.48573	0.04971
1346.19996	0.04906
1344.91419	0.04845
1343.62842	0.04787
1342.34266	0.04732
1341.05689	0.04680
1339.77112	0.04630
1338.48535	0.04581
1337.19958	0.04536
1335.91381	0.04494
1334.62804	0.04452
1333.34227	0.04407
1332.05650	0.04357
1330.77074	0.04307
1329.48497	0.04260
1328.19920	0.04217
1326.91343	0.04178
1325.62766	0.04140
1324.34189	0.04105
1323.05612	0.04074
1321.77035	0.04049
1320.48459	0.04027
1319.19882	0.03999
1317.91305	0.03963
1316.62728	0.03922
1315.34151	0.03884
1314.05574	0.03852
1312.76997	0.03823
1311.48420	0.03796
1310.19843	0.03768
1308.91267	0.03739
1307.62690	0.03709
1306.34113	0.03681
1305.05536	0.03655
1303.76959	0.03632
1302.48382	0.03608
1301.19805	0.03581
1299.91228	0.03551
1298.62652	0.03519
1297.34075	0.03487
1296.05498	0.03457
1294.76921	0.03435
1293.48344	0.03422
1292.19767	0.03418
1290.91190	0.03414
1289.62613	0.03405
1288.34036	0.03390
1287.05460	0.03369
1285.76883	0.03344
1284.48306	0.03320
1283.19729	0.03302
1281.91152	0.03293
1280.62575	0.03291
1279.33998	0.03287
1278.05421	0.03275
1276.76845	0.03254
1275.48268	0.03230
1274.19691	0.03208
1272.91114	0.03190
1271.62537	0.03177
1270.33960	0.03166
1269.05383	0.03155
1267.76806	0.03143
1266.48229	0.03129
1265.19653	0.03114
1263.91076	0.03100
1262.62499	0.03087
1261.33922	0.03076
1260.05345	0.03067
1258.76768	0.03056
1257.48191	0.03043
1256.19614	0.03030
1254.91037	0.03022
1253.62461	0.03017
1252.33884	0.03015
1251.05307	0.03012
1249.76730	0.03006
1248.48153	0.02999
1247.19576	0.02993
1245.90999	0.02988
1244.62422	0.02982
1243.33846	0.02973
1242.05269	0.02959
1240.76692	0.02944
1239.48115	0.02931
1238.19538	0.02924
1236.90961	0.02919
1235.62384	0.02912
1234.33807	0.02898
1233.05230	0.02878
1231.76654	0.02856
1230.48077	0.02833
1229.19500	0.02810
1227.90923	0.02786
1226.62346	0.02762
1225.33769	0.02737
1224.05192	0.02714
1222.76615	0.02694
1221.48039	0.02675
1220.19462	0.02658
1218.90885	0.02642
1217.62308	0.02625
1216.33731	0.02607
1215.05154	0.02588
1213.76577	0.02569
1212.48000	0.02551
1211.19423	0.02538
1209.90847	0.02528
1208.62270	0.02519
1207.33693	0.02509
1206.05116	0.02499
1204.76539	0.02490
1203.47962	0.02482
1202.19385	0.02474
1200.90808	0.02466
1199.62232	0.02458
1198.33655	0.02444
1197.05078	0.02431
1195.76501	0.02420
1194.47924	0.02409
1193.19347	0.02401
1191.90770	0.02394
1190.62193	0.02382
1189.33616	0.02365
1188.05040	0.02343
1186.76463	0.02319
1185.47886	0.02297
1184.19309	0.02279
1182.90732	0.02269
1181.62155	0.02265
1180.33578	0.02262
1179.05001	0.02258
1177.76425	0.02254
1176.47848	0.02255
1175.19271	0.02264
1173.90694	0.02280
1172.62117	0.02296
1171.33540	0.02310
1170.04963	0.02320
1168.76386	0.02325
1167.47809	0.02329
1166.19233	0.02334
1164.90656	0.02343
1163.62079	0.02354
1162.33502	0.02365
1161.04925	0.02374
1159.76348	0.02381
1158.47771	0.02390
1157.19194	0.02399
1155.90618	0.02412
1154.62041	0.02429
1153.33464	0.02452
1152.04887	0.02475
1150.76310	0.02498
1149.47733	0.02522
1148.19156	0.02554
1146.90579	0.02595
1145.62002	0.02644
1144.33426	0.02696
1143.04849	0.02749
1141.76272	0.02805
1140.47695	0.02869
1139.19118	0.02945
1137.90541	0.03039
1136.61964	0.03154
1135.33387	0.03294
1134.04811	0.03457
1132.76234	0.03640
1131.47657	0.03835
1130.19080	0.04041
1128.90503	0.04265
1127.61926	0.04512
1126.33349	0.04785
1125.04772	0.05076
1123.76195	0.05383
1122.47619	0.05703
1121.19042	0.06038
1119.90465	0.06388
1118.61888	0.06748
1117.33311	0.07112
1116.04734	0.07476
1114.76157	0.07839
1113.47580	0.08201
1112.19004	0.08556
1110.90427	0.08900
1109.61850	0.09231
1108.33273	0.09551
1107.04696	0.09861
1105.76119	0.10163
1104.47542	0.10461
1103.18965	0.10752
1101.90388	0.11031
1100.61812	0.11292
1099.33235	0.11536
1098.04658	0.11764
1096.76081	0.11982
1095.47504	0.12194
1094.18927	0.12402
1092.90350	0.12602
1091.61773	0.12789
1090.33197	0.12959
1089.04620	0.13111
1087.76043	0.13252
1086.47466	0.13390
1085.18889	0.13533
1083.90312	0.13691
1082.61735	0.13866
1081.33158	0.14058
1080.04581	0.14260
1078.76005	0.14468
1077.47428	0.14687
1076.18851	0.14925
1074.90274	0.15182
1073.61697	0.15449
1072.33120	0.15724
1071.04543	0.16009
1069.75966	0.16310
1068.47390	0.16622
1067.18813	0.16941
1065.90236	0.17263
1064.61659	0.17589
1063.33082	0.17922
1062.04505	0.18260
1060.75928	0.18605
1059.47351	0.18956
1058.18774	0.19309
1056.90198	0.19657
1055.61621	0.19996
1054.33044	0.20328
1053.04467	0.20659
1051.75890	0.20994
1050.47313	0.21341
1049.18736	0.21699
1047.90159	0.22063
1046.61583	0.22428
1045.33006	0.22798
1044.04429	0.23178
1042.75852	0.23570
1041.47275	0.23978
1040.18698	0.24404
1038.90121	0.24839
1037.61544	0.25270
1036.32967	0.25687
1035.04391	0.26089
1033.75814	0.26483
1032.47237	0.26865
1031.18660	0.27227
1029.90083	0.27559
1028.61506	0.27856
1027.32929	0.28116
1026.04352	0.28346
1024.75775	0.28554
1023.47199	0.28742
1022.18622	0.28897
1020.90045	0.29001
1019.61468	0.29048
1018.32891	0.29040
1017.04314	0.28984
1015.75737	0.28878
1014.47160	0.28721
1013.18584	0.28512
1011.90007	0.28257
1010.61430	0.27957
1009.32853	0.27615
1008.04276	0.27232
1006.75699	0.26808
1005.47122	0.26340
1004.18545	0.25825
1002.89968	0.25267
1001.61392	0.24677
1000.32815	0.24065
999.04238	0.23441
997.75661	0.22812
996.47084	0.22177
995.18507	0.21535
993.89930	0.20885
992.61353	0.20235
991.32777	0.19597
990.04200	0.18984
988.75623	0.18396
987.47046	0.17828
986.18469	0.17272
984.89892	0.16727
983.61315	0.16198
982.32738	0.15692
981.04161	0.15211
979.75585	0.14759
978.47008	0.14339
977.18431	0.13951
975.89854	0.13595
974.61277	0.13273
973.32700	0.12990
972.04123	0.12753
970.75546	0.12569
969.46970	0.12446
968.18393	0.12387
966.89816	0.12388
965.61239	0.12437
964.32662	0.12519
963.04085	0.12607
961.75508	0.12672
960.46931	0.12683
959.18354	0.12624
957.89778	0.12496
956.61201	0.12314
955.32624	0.12093
954.04047	0.11847
952.75470	0.11585
951.46893	0.11317
950.18316	0.11051
948.89739	0.10794
947.61163	0.10547
946.32586	0.10307
945.04009	0.10074
943.75432	0.09842
942.46855	0.09614
941.18278	0.09394
939.89701	0.09190
938.61124	0.09002
937.32547	0.08825
936.03971	0.08651
934.75394	0.08479
933.46817	0.08312
932.18240	0.08152
930.89663	0.08003
929.61086	0.07872
928.32509	0.07759
927.03932	0.07661
925.75356	0.07568
924.46779	0.07471
923.18202	0.07372
921.89625	0.07277
920.61048	0.07188
919.32471	0.07104
918.03894	0.07019
916.75317	0.06932
915.46740	0.06845
914.18164	0.06761
912.89587	0.06685
911.61010	0.06613
910.32433	0.06545
909.03856	0.06478
907.75279	0.06414
906.46702	0.06352
905.18125	0.06290
903.89549	0.06225
902.60972	0.06159
901.32395	0.06093
900.03818	0.06029
898.75241	0.05970
897.46664	0.05915
896.18087	0.05867
894.89510	0.05826
893.60933	0.05792
892.32357	0.05765
891.03780	0.05750
889.75203	0.05750
888.46626	0.05770
887.18049	0.05815
885.89472	0.05897
884.60895	0.06039
883.32318	0.06258
882.03742	0.06539
880.75165	0.06833
879.46588	0.07086
878.18011	0.07279
876.89434	0.07439
875.60857	0.07605
874.32280	0.07782
873.03703	0.07936
871.75126	0.08027
870.46550	0.08038
869.17973	0.07974
867.89396	0.07846
866.60819	0.07662
865.32242	0.07440
864.03665	0.07203
862.75088	0.06969
861.46511	0.06745
860.17935	0.06535
858.89358	0.06342
857.60781	0.06176
856.32204	0.06042
855.03627	0.05936
853.75050	0.05849
852.46473	0.05775
851.17896	0.05713
849.89319	0.05657
848.60743	0.05602
847.32166	0.05544
846.03589	0.05485
844.75012	0.05426
843.46435	0.05366
842.17858	0.05310
840.89281	0.05265
839.60704	0.05230
838.32128	0.05198
837.03551	0.05163
835.74974	0.05126
834.46397	0.05087
833.17820	0.05048
831.89243	0.05011
830.60666	0.04984
829.32089	0.04964
828.03512	0.04940
826.74936	0.04909
825.46359	0.04876
824.17782	0.04847
822.89205	0.04824
821.60628	0.04807
820.32051	0.04796
819.03474	0.04790
817.74897	0.04785
816.46321	0.04778
815.17744	0.04769
813.89167	0.04757
812.60590	0.04738
811.32013	0.04709
810.03436	0.04676
808.74859	0.04652
807.46282	0.04640
806.17705	0.04637
804.89129	0.04634
803.60552	0.04630
802.31975	0.04623
801.03398	0.04616
799.74821	0.04606
798.46244	0.04593
797.17667	0.04578
795.89090	0.04564
794.60513	0.04552
793.31937	0.04539
792.03360	0.04526
790.74783	0.04515
789.46206	0.04504
788.17629	0.04490
786.89052	0.04473
785.60475	0.04459
784.31898	0.04453
783.03322	0.04453
781.74745	0.04452
780.46168	0.04449
779.17591	0.04443
777.89014	0.04433
776.60437	0.04420
775.31860	0.04408
774.03283	0.04400
772.74706	0.04398
771.46130	0.04401
770.17553	0.04401
768.88976	0.04393
767.60399	0.04376
766.31822	0.04359
765.03245	0.04351
763.74668	0.04354
762.46091	0.04365
761.17515	0.04378
759.88938	0.04389
758.60361	0.04396
757.31784	0.04399
756.03207	0.04397
754.74630	0.04391
753.46053	0.04383
752.17476	0.04373
750.88899	0.04361
749.60323	0.04348
748.31746	0.04339
747.03169	0.04337
745.74592	0.04343
744.46015	0.04355
743.17438	0.04370
741.88861	0.04382
740.60284	0.04383
739.31708	0.04372
738.03131	0.04350
736.74554	0.04326
735.45977	0.04309
734.17400	0.04303
732.88823	0.04304
731.60246	0.04304
730.31669	0.04294
729.03092	0.04274
727.74516	0.04254
726.45939	0.04242
725.17362	0.04242
723.88785	0.04247
722.60208	0.04250
721.31631	0.04250
720.03054	0.04252
718.74477	0.04258
717.45901	0.04262
716.17324	0.04258
714.88747	0.04244
713.60170	0.04224
712.31593	0.04205
711.03016	0.04193
709.74439	0.04189
708.45862	0.04191
707.17285	0.04193
705.88709	0.04190
704.60132	0.04177
703.31555	0.04158
702.02978	0.04139
700.74401	0.04129
699.45824	0.04128
698.17247	0.04130
696.88670	0.04128
695.60094	0.04121
694.31517	0.04114
693.02940	0.04111
691.74363	0.04110
690.45786	0.04107
689.17209	0.04098
687.88632	0.04086
686.60055	0.04073
685.31478	0.04062
684.02902	0.04052
682.74325	0.04042
681.45748	0.04028
680.17171	0.04011
678.88594	0.03995
677.60017	0.03982
676.31440	0.03973
675.02863	0.03964
673.74287	0.03958
672.45710	0.03953
671.17133	0.03951
669.88556	0.03951
668.59979	0.03951
667.31402	0.03950
666.02825	0.03943
664.74248	0.03929
663.45671	0.03911
662.17095	0.03891
660.88518	0.03871
659.59941	0.03850
658.31364	0.03826
657.02787	0.03800
655.74210	0.03780
654.45633	0.03767
653.17056	0.03759
651.88480	0.03752
650.59903	0.03742
649.31326	0.03729
648.02749	0.03713
646.74172	0.03698
645.45595	0.03688
644.17018	0.03684
642.88441	0.03685
641.59864	0.03689
640.31288	0.03691
639.02711	0.03692
637.74134	0.03692
636.45557	0.03696
635.16980	0.03710
633.88403	0.03739
632.59826	0.03780
631.31249	0.03816
630.02673	0.03813
628.74096	0.03787
627.45519	0.03850
626.16942	0.03831
624.88365	0.03777
623.59788	0.03781
622.31211	0.03899
621.02634	0.04157
619.74057	0.04522
618.45481	0.04942
617.16904	0.05400
615.88327	0.05882
614.59750	0.06337
613.31173	0.06703
612.02596	0.07007
610.74019	0.07397
609.45442	0.08005
608.16866	0.08785
606.88289	0.09552
605.59712	0.10152
604.31135	0.10542
603.02558	0.10750
601.73981	0.10819
600.45404	0.10780
599.16827	0.10642
597.88250	0.10414
596.59674	0.10117
595.31097	0.09792
594.02520	0.09487
592.73943	0.09230
591.45366	0.09029
590.16789	0.08881
588.88212	0.08789
587.59635	0.08760
586.31059	0.08803
585.02482	0.08918
583.73905	0.09095
582.45328	0.09320
581.16751	0.09577
579.88174	0.09853
578.59597	0.10135
577.31020	0.10414
576.02443	0.10677
574.73867	0.10919
573.45290	0.11140
572.16713	0.11356
570.88136	0.11595
569.59559	0.11890
568.30982	0.12262
567.02405	0.12702
565.73828	0.13174
564.45251	0.13627
563.16675	0.14005
561.88098	0.14252
560.59521	0.14322
559.30944	0.14188
558.02367	0.13863
556.73790	0.13395
555.45213	0.12844
554.16636	0.12260
552.88060	0.11671
551.59483	0.11096
550.30906	0.10549
549.02329	0.10047
547.73752	0.09599
546.45175	0.09205
545.16598	0.08852
543.88021	0.08526
542.59444	0.08224
541.30868	0.07946
540.02291	0.07696
538.73714	0.07470
537.45137	0.07262
536.16560	0.07069
534.87983	0.06886
533.59406	0.06716
532.30829	0.06557
531.02253	0.06405
529.73676	0.06259
528.45099	0.06121
527.16522	0.05991
525.87945	0.05863
524.59368	0.05732
523.30791	0.05605
522.02214	0.05490
520.73637	0.05389
519.45061	0.05292
518.16484	0.05192
516.87907	0.05091
515.59330	0.04997
514.30753	0.04911
513.02176	0.04831
511.73599	0.04753
510.45022	0.04678
509.16446	0.04613
507.87869	0.04557
506.59292	0.04499
505.30715	0.04430
504.02138	0.04350
502.73561	0.04273
501.44984	0.04212
500.16407	0.04169
498.87830	0.04138
497.59254	0.04111
496.30677	0.04082
495.02100	0.04047
493.73523	0.04003
492.44946	0.03954
491.16369	0.03904
489.87792	0.03863
488.59215	0.03832
487.30639	0.03811
486.02062	0.03795
484.73485	0.03783
483.44908	0.03776
482.16331	0.03775
480.87754	0.03781
479.59177	0.03791
478.30600	0.03802
477.02023	0.03812
475.73447	0.03828
474.44870	0.03852
473.16293	0.03881
471.87716	0.03906
470.59139	0.03915
469.30562	0.03904
468.01985	0.03873
466.73408	0.03828
465.44832	0.03776
464.16255	0.03723
462.87678	0.03674
461.59101	0.03627
460.30524	0.03580
459.01947	0.03534
457.73370	0.03492
456.44793	0.03453
455.16216	0.03416
453.87640	0.03380
452.59063	0.03345
451.30486	0.03310
450.01909	0.03276
448.73332	0.03247
447.44755	0.03226
446.16178	0.03209
444.87601	0.03188
443.59025	0.03161
442.30448	0.03130
441.01871	0.03100
439.73294	0.03072
438.44717	0.03046
437.16140	0.03023
435.87563	0.03003
434.58986	0.02988
433.30409	0.02978
432.01833	0.02972
430.73256	0.02964
429.44679	0.02951
428.16102	0.02933
426.87525	0.02910
425.58948	0.02887
424.30371	0.02864
423.01794	0.02840
421.73218	0.02815
420.44641	0.02789
419.16064	0.02766
417.87487	0.02749
416.58910	0.02735
415.30333	0.02721
414.01756	0.02706
412.73179	0.02691
411.44602	0.02674
410.16026	0.02658
408.87449	0.02645
407.58872	0.02636
406.30295	0.02632
405.01718	0.02630
403.73141	0.02630
402.44564	0.02633
401.15987	0.02639
399.87411	0.02646
