3997.45528	0.06355
3996.16951	0.06320
3994.88374	0.06292
3993.59798	0.06266
3992.31221	0.06259
3991.02644	0.06282
3989.74067	0.06302
3988.45490	0.06275
3987.16913	0.06210
3985.88336	0.06168
3984.59759	0.06185
3983.31183	0.06228
3982.02606	0.06252
3980.74029	0.06250
3979.45452	0.06257
3978.16875	0.06310
3976.88298	0.06400
3975.59721	0.06472
3974.31144	0.06467
3973.02567	0.06376
3971.73991	0.06255
3970.45414	0.06172
3969.16837	0.06161
3967.88260	0.06208
3966.59683	0.06278
3965.31106	0.06328
3964.02529	0.06325
3962.73952	0.06271
3961.45376	0.06209
3960.16799	0.06195
3958.88222	0.06251
3957.59645	0.06353
3956.31068	0.06451
3955.02491	0.06506
3953.73914	0.06503
3952.45337	0.06451
3951.16760	0.06383
3949.88184	0.06340
3948.59607	0.06324
3947.31030	0.06291
3946.02453	0.06203
3944.73876	0.06098
3943.45299	0.06059
3942.16722	0.06122
3940.88145	0.06233
3939.59569	0.06301
3938.30992	0.06290
3937.02415	0.06226
3935.73838	0.06156
3934.45261	0.06099
3933.16684	0.06068
3931.88107	0.06083
3930.59530	0.06158
3929.30953	0.06267
3928.02377	0.06351
3926.73800	0.06362
3925.45223	0.06298
3924.16646	0.06204
3922.88069	0.06148
3921.59492	0.06174
3920.30915	0.06272
3919.02338	0.06384
3917.73762	0.06448
3916.45185	0.06441
3915.16608	0.06374
3913.88031	0.06265
3912.59454	0.06138
3911.30877	0.06027
3910.02300	0.05967
3908.73723	0.05968
3907.45146	0.05998
3906.16570	0.06006
3904.87993	0.05970
3903.59416	0.05912
3902.30839	0.05879
3901.02262	0.05894
3899.73685	0.05934
3898.45108	0.05958
3897.16531	0.05948
3895.87955	0.05911
3894.59378	0.05857
3893.30801	0.05792
3892.02224	0.05723
3890.73647	0.05669
3889.45070	0.05650
3888.16493	0.05667
3886.87916	0.05703
3885.59339	0.05731
3884.30763	0.05741
3883.02186	0.05748
3881.73609	0.05780
3880.45032	0.05840
3879.16455	0.05898
3877.87878	0.05921
3876.59301	0.05925
3875.30724	0.05961
3874.02148	0.06054
3872.73571	0.06166
3871.44994	0.06216
3870.16417	0.06154
3868.87840	0.05998
3867.59263	0.05823
3866.30686	0.05697
3865.02109	0.05630
3863.73532	0.05584
3862.44956	0.05537
3861.16379	0.05512
3859.87802	0.05548
3858.59225	0.05647
3857.30648	0.05770
3856.02071	0.05870
3854.73494	0.05918
3853.44917	0.05910
3852.16341	0.05855
3850.87764	0.05790
3849.59187	0.05760
3848.30610	0.05783
3847.02033	0.05826
3845.73456	0.05833
3844.44879	0.05779
3843.16302	0.05692
3841.87725	0.05613
3840.59149	0.05557
3839.30572	0.05530
3838.01995	0.05543
3836.73418	0.05600
3835.44841	0.05687
3834.16264	0.05780
3832.87687	0.05853
3831.59110	0.05881
3830.30534	0.05857
3829.01957	0.05805
3827.73380	0.05760
3826.44803	0.05736
3825.16226	0.05724
3823.87649	0.05722
3822.59072	0.05725
3821.30495	0.05729
3820.01918	0.05727
3818.73342	0.05727
3817.44765	0.05740
3816.16188	0.05761
3814.87611	0.05775
3813.59034	0.05786
3812.30457	0.05805
3811.01880	0.05829
3809.73303	0.05838
3808.44726	0.05826
3807.16150	0.05817
3805.87573	0.05839
3804.58996	0.05893
3803.30419	0.05945
3802.01842	0.05961
3800.73265	0.05926
3799.44688	0.05837
3798.16111	0.05710
3796.87535	0.05583
3795.58958	0.05504
3794.30381	0.05491
3793.01804	0.05521
3791.73227	0.05558
3790.44650	0.05594
3789.16073	0.05638
3787.87496	0.05690
3786.58919	0.05729
3785.30343	0.05744
3784.01766	0.05740
3782.73189	0.05724
3781.44612	0.05694
3780.16035	0.05653
3778.87458	0.05618
3777.58881	0.05604
3776.30304	0.05590
3775.01728	0.05537
3773.73151	0.05430
3772.44574	0.05309
3771.15997	0.05252
3769.87420	0.05304
3768.58843	0.05436
3767.30266	0.05557
3766.01689	0.05591
3764.73112	0.05533
3763.44536	0.05435
3762.15959	0.05353
3760.87382	0.05311
3759.58805	0.05301
3758.30228	0.05307
3757.01651	0.05316
3755.73074	0.05319
3754.44497	0.05304
3753.15921	0.05268
3751.87344	0.05226
3750.58767	0.05203
3749.30190	0.05209
3748.01613	0.05229
3746.73036	0.05237
3745.44459	0.05222
3744.15882	0.05185
3742.87305	0.05144
3741.58729	0.05116
3740.30152	0.05120
3739.01575	0.05162
3737.72998	0.05225
3736.44421	0.05273
3735.15844	0.05280
3733.87267	0.05252
3732.58690	0.05224
3731.30114	0.05218
3730.01537	0.05224
3728.72960	0.05218
3727.44383	0.05200
3726.15806	0.05187
3724.87229	0.05179
3723.58652	0.05158
3722.30075	0.05114
3721.01498	0.05078
3719.72922	0.05080
3718.44345	0.05109
3717.15768	0.05125
3715.87191	0.05120
3714.58614	0.05129
3713.30037	0.05191
3712.01460	0.05293
3710.72883	0.05382
3709.44307	0.05419
3708.15730	0.05405
3706.87153	0.05367
3705.58576	0.05313
3704.29999	0.05226
3703.01422	0.05113
3701.72845	0.05009
3700.44268	0.04958
3699.15691	0.04975
3697.87115	0.05046
3696.58538	0.05147
3695.29961	0.05258
3694.01384	0.05343
3692.72807	0.05356
3691.44230	0.05294
3690.15653	0.05215
3688.87076	0.05169
3687.58500	0.05158
3686.29923	0.05148
3685.01346	0.05102
3683.72769	0.05032
3682.44192	0.04982
3681.15615	0.04974
3679.87038	0.05011
3678.58461	0.05081
3677.29884	0.05169
3676.01308	0.05261
3674.72731	0.05334
3673.44154	0.05375
3672.15577	0.05396
3670.87000	0.05416
3669.58423	0.05438
3668.29846	0.05450
3667.01269	0.05443
3665.72693	0.05417
3664.44116	0.05366
3663.15539	0.05294
3661.86962	0.05222
3660.58385	0.05181
3659.29808	0.05187
3658.01231	0.05235
3656.72654	0.05304
3655.44077	0.05370
3654.15501	0.05400
3652.86924	0.05378
3651.58347	0.05333
3650.29770	0.05313
3649.01193	0.05340
3647.72616	0.05392
3646.44039	0.05447
3645.15462	0.05507
3643.86886	0.05584
3642.58309	0.05669
3641.29732	0.05731
3640.01155	0.05753
3638.72578	0.05732
3637.44001	0.05679
3636.15424	0.05613
3634.86847	0.05563
3633.58270	0.05561
3632.29694	0.05616
3631.01117	0.05706
3629.72540	0.05794
3628.43963	0.05853
3627.15386	0.05868
3625.86809	0.05835
3624.58232	0.05771
3623.29655	0.05722
3622.01079	0.05747
3620.72502	0.05871
3619.43925	0.06058
3618.15348	0.06231
3616.86771	0.06322
3615.58194	0.06308
3614.29617	0.06217
3613.01040	0.06103
3611.72463	0.06020
3610.43887	0.05999
3609.15310	0.06048
3607.86733	0.06144
3606.58156	0.06238
3605.29579	0.06290
3604.01002	0.06302
3602.72425	0.06316
3601.43848	0.06358
3600.15272	0.06415
3598.86695	0.06450
3597.58118	0.06437
3596.29541	0.06389
3595.00964	0.06356
3593.72387	0.06382
3592.43810	0.06460
3591.15233	0.06543
3589.86656	0.06610
3588.58080	0.06670
3587.29503	0.06726
3586.00926	0.06773
3584.72349	0.06819
3583.43772	0.06865
3582.15195	0.06896
3580.86618	0.06893
3579.58041	0.06860
3578.29464	0.06834
3577.00888	0.06838
3575.72311	0.06871
3574.43734	0.06927
3573.15157	0.06998
3571.86580	0.07064
3570.58003	0.07101
3569.29426	0.07105
3568.00849	0.07117
3566.72273	0.07181
3565.43696	0.07290
3564.15119	0.07389
3562.86542	0.07427
3561.57965	0.07413
3560.29388	0.07397
3559.00811	0.07415
3557.72234	0.07458
3556.43657	0.07493
3555.15081	0.07499
3553.86504	0.07479
3552.57927	0.07460
3551.29350	0.07473
3550.00773	0.07540
3548.72196	0.07646
3547.43619	0.07753
3546.15042	0.07821
3544.86466	0.07836
3543.57889	0.07809
3542.29312	0.07768
3541.00735	0.07738
3539.72158	0.07732
3538.43581	0.07752
3537.15004	0.07789
3535.86427	0.07827
3534.57850	0.07856
3533.29274	0.07877
3532.00697	0.07892
3530.72120	0.07898
3529.43543	0.07897
3528.14966	0.07908
3526.86389	0.07964
3525.57812	0.08064
3524.29235	0.08162
3523.00659	0.08202
3521.72082	0.08173
3520.43505	0.08117
3519.14928	0.08093
3517.86351	0.08123
3516.57774	0.08188
3515.29197	0.08260
3514.00620	0.08331
3512.72043	0.08405
3511.43467	0.08479
3510.14890	0.08532
3508.86313	0.08547
3507.57736	0.08522
3506.29159	0.08471
3505.00582	0.08426
3503.72005	0.08422
3502.43428	0.08483
3501.14852	0.08589
3499.86275	0.08694
3498.57698	0.08747
3497.29121	0.08736
3496.00544	0.08683
3494.71967	0.08623
3493.43390	0.08583
3492.14813	0.08579
3490.86236	0.08625
3489.57660	0.08716
3488.29083	0.08810
3487.00506	0.08848
3485.71929	0.08803
3484.43352	0.08709
3483.14775	0.08622
3481.86198	0.08581
3480.57621	0.08599
3479.29045	0.08676
3478.00468	0.08801
3476.71891	0.08942
3475.43314	0.09053
3474.14737	0.09102
3472.86160	0.09093
3471.57583	0.09054
3470.29006	0.09016
3469.00429	0.08994
3467.71853	0.08988
3466.43276	0.08993
3465.14699	0.09008
3463.86122	0.09040
3462.57545	0.09089
3461.28968	0.09133
3460.00391	0.09139
3458.71814	0.09104
3457.43238	0.09064
3456.14661	0.09064
3454.86084	0.09119
3453.57507	0.09207
3452.28930	0.09288
3451.00353	0.09333
3449.71776	0.09345
3448.43199	0.09351
3447.14622	0.09368
3445.86046	0.09399
3444.57469	0.09442
3443.28892	0.09505
3442.00315	0.09583
3440.71738	0.09642
3439.43161	0.09644
3438.14584	0.09590
3436.86007	0.09535
3435.57431	0.09538
3434.28854	0.09608
3433.00277	0.09693
3431.71700	0.09731
3430.43123	0.09708
3429.14546	0.09665
3427.85969	0.09650
3426.57392	0.09676
3425.28815	0.09712
3424.00239	0.09725
3422.71662	0.09710
3421.43085	0.09695
3420.14508	0.09708
3418.85931	0.09750
3417.57354	0.09796
3416.28777	0.09821
3415.00200	0.09816
3413.71624	0.09792
3412.43047	0.09777
3411.14470	0.09797
3409.85893	0.09860
3408.57316	0.09941
3407.28739	0.09996
3406.00162	0.10001
3404.71585	0.09973
3403.43008	0.09955
3402.14432	0.09969
3400.85855	0.09999
3399.57278	0.10015
3398.28701	0.10000
3397.00124	0.09957
3395.71547	0.09895
3394.42970	0.09827
3393.14393	0.09769
3391.85817	0.09737
3390.57240	0.09750
3389.28663	0.09807
3388.00086	0.09880
3386.71509	0.09935
3385.42932	0.09964
3384.14355	0.09995
3382.85778	0.10049
3381.57201	0.10112
3380.28625	0.10154
3379.00048	0.10156
3377.71471	0.10129
3376.42894	0.10092
3375.14317	0.10061
3373.85740	0.10040
3372.57163	0.10029
3371.28586	0.10018
3370.00010	0.10006
3368.71433	0.09996
3367.42856	0.10003
3366.14279	0.10036
3364.85702	0.10083
3363.57125	0.10116
3362.28548	0.10118
3360.99971	0.10101
3359.71394	0.10091
3358.42818	0.10102
3357.14241	0.10127
3355.85664	0.10149
3354.57087	0.10155
3353.28510	0.10142
3351.99933	0.10118
3350.71356	0.10096
3349.42779	0.10091
3348.14202	0.10108
3346.85626	0.10136
3345.57049	0.10151
3344.28472	0.10130
3342.99895	0.10073
3341.71318	0.10009
3340.42741	0.09981
3339.14164	0.10007
3337.85587	0.10068
3336.57011	0.10123
3335.28434	0.10146
3333.99857	0.10137
3332.71280	0.10103
3331.42703	0.10046
3330.14126	0.09974
3328.85549	0.09912
3327.56972	0.09895
3326.28395	0.09939
3324.99819	0.10025
3323.71242	0.10112
3322.42665	0.10158
3321.14088	0.10146
3319.85511	0.10092
3318.56934	0.10032
3317.28357	0.09989
3315.99780	0.09963
3314.71204	0.09942
3313.42627	0.09925
3312.14050	0.09915
3310.85473	0.09917
3309.56896	0.09927
3308.28319	0.09942
3306.99742	0.09966
3305.71165	0.10012
3304.42588	0.10074
3303.14012	0.10122
3301.85435	0.10109
3300.56858	0.10025
3299.28281	0.09915
3297.99704	0.09840
3296.71127	0.09816
3295.42550	0.09813
3294.13973	0.09803
3292.85397	0.09801
3291.56820	0.09833
3290.28243	0.09899
3288.99666	0.09967
3287.71089	0.10003
3286.42512	0.09996
3285.13935	0.09954
3283.85358	0.09888
3282.56781	0.09822
3281.28205	0.09785
3279.99628	0.09791
3278.71051	0.09828
3277.42474	0.09867
3276.13897	0.09877
3274.85320	0.09847
3273.56743	0.09790
3272.28166	0.09737
3270.99590	0.09718
3269.71013	0.09738
3268.42436	0.09768
3267.13859	0.09775
3265.85282	0.09750
3264.56705	0.09711
3263.28128	0.09676
3261.99551	0.09653
3260.70974	0.09635
3259.42398	0.09616
3258.13821	0.09599
3256.85244	0.09595
3255.56667	0.09613
3254.28090	0.09648
3252.99513	0.09678
3251.70936	0.09687
3250.42359	0.09675
3249.13783	0.09657
3247.85206	0.09647
3246.56629	0.09643
3245.28052	0.09629
3243.99475	0.09590
3242.70898	0.09528
3241.42321	0.09473
3240.13744	0.09450
3238.85167	0.09453
3237.56591	0.09450
3236.28014	0.09421
3234.99437	0.09382
3233.70860	0.09359
3232.42283	0.09363
3231.13706	0.09376
3229.85129	0.09377
3228.56552	0.09362
3227.27976	0.09339
3225.99399	0.09321
3224.70822	0.09307
3223.42245	0.09303
3222.13668	0.09324
3220.85091	0.09376
3219.56514	0.09427
3218.27937	0.09431
3216.99360	0.09375
3215.70784	0.09301
3214.42207	0.09261
3213.13630	0.09271
3211.85053	0.09303
3210.56476	0.09323
3209.27899	0.09320
3207.99322	0.09304
3206.70745	0.09290
3205.42169	0.09281
3204.13592	0.09269
3202.85015	0.09244
3201.56438	0.09208
3200.27861	0.09175
3198.99284	0.09161
3197.70707	0.09173
3196.42130	0.09194
3195.13553	0.09191
3193.84977	0.09147
3192.56400	0.09071
3191.27823	0.09000
3189.99246	0.08964
3188.70669	0.08969
3187.42092	0.08993
3186.13515	0.09014
3184.84938	0.09024
3183.56362	0.09027
3182.27785	0.09025
3180.99208	0.09012
3179.70631	0.08987
3178.42054	0.08958
3177.13477	0.08937
3175.84900	0.08931
3174.56323	0.08934
3173.27746	0.08936
3171.99170	0.08932
3170.70593	0.08920
3169.42016	0.08906
3168.13439	0.08897
3166.84862	0.08895
3165.56285	0.08891
3164.27708	0.08876
3162.99131	0.08847
3161.70555	0.08815
3160.41978	0.08792
3159.13401	0.08780
3157.84824	0.08769
3156.56247	0.08751
3155.27670	0.08730
3153.99093	0.08712
3152.70516	0.08694
3151.41939	0.08674
3150.13363	0.08660
3148.84786	0.08661
3147.56209	0.08668
3146.27632	0.08661
3144.99055	0.08628
3143.70478	0.08580
3142.41901	0.08527
3141.13324	0.08472
3139.84748	0.08420
3138.56171	0.08383
3137.27594	0.08379
3135.99017	0.08409
3134.70440	0.08452
3133.41863	0.08484
3132.13286	0.08494
3130.84709	0.08489
3129.56132	0.08477
3128.27556	0.08457
3126.98979	0.08419
3125.70402	0.08369
3124.41825	0.08326
3123.13248	0.08301
3121.84671	0.08284
3120.56094	0.08260
3119.27517	0.08228
3117.98940	0.08205
3116.70364	0.08202
3115.41787	0.08215
3114.13210	0.08229
3112.84633	0.08237
3111.56056	0.08248
3110.27479	0.08269
3108.98902	0.08284
3107.70325	0.08265
3106.41749	0.08196
3105.13172	0.08100
3103.84595	0.08017
3102.56018	0.07970
3101.27441	0.07957
3099.98864	0.07962
3098.70287	0.07974
3097.41710	0.07986
3096.13133	0.07992
3094.84557	0.07983
3093.55980	0.07959
3092.27403	0.07928
3090.98826	0.07902
3089.70249	0.07886
3088.41672	0.07878
3087.13095	0.07881
3085.84518	0.07891
3084.55942	0.07900
3083.27365	0.07900
3081.98788	0.07892
3080.70211	0.07888
3079.41634	0.07897
3078.13057	0.07915
3076.84480	0.07929
3075.55903	0.07929
3074.27326	0.07917
3072.98750	0.07892
3071.70173	0.07863
3070.41596	0.07843
3069.13019	0.07847
3067.84442	0.07868
3066.55865	0.07874
3065.27288	0.07845
3063.98711	0.07796
3062.70135	0.07760
3061.41558	0.07756
3060.12981	0.07773
3058.84404	0.07782
3057.55827	0.07771
3056.27250	0.07747
3054.98673	0.07735
3053.70096	0.07742
3052.41519	0.07754
3051.12943	0.07753
3049.84366	0.07740
3048.55789	0.07724
3047.27212	0.07711
3045.98635	0.07688
3044.70058	0.07646
3043.41481	0.07591
3042.12904	0.07543
3040.84328	0.07522
3039.55751	0.07534
3038.27174	0.07567
3036.98597	0.07596
3035.70020	0.07602
3034.41443	0.07577
3033.12866	0.07528
3031.84289	0.07472
3030.55712	0.07425
3029.27136	0.07401
3027.98559	0.07396
3026.69982	0.07400
3025.41405	0.07402
3024.12828	0.07399
3022.84251	0.07399
3021.55674	0.07401
3020.27097	0.07396
3018.98521	0.07372
3017.69944	0.07323
3016.41367	0.07259
3015.12790	0.07200
3013.84213	0.07161
3012.55636	0.07147
3011.27059	0.07153
3009.98482	0.07169
3008.69905	0.07186
3007.41329	0.07193
3006.12752	0.07187
3004.84175	0.07166
3003.55598	0.07134
3002.27021	0.07099
3000.98444	0.07069
2999.69867	0.07047
2998.41290	0.07034
2997.12714	0.07035
2995.84137	0.07061
2994.55560	0.07113
2993.26983	0.07167
2991.98406	0.07189
2990.69829	0.07171
2989.41252	0.07139
2988.12675	0.07124
2986.84098	0.07140
2985.55522	0.07186
2984.26945	0.07254
2982.98368	0.07330
2981.69791	0.07396
2980.41214	0.07447
2979.12637	0.07493
2977.84060	0.07543
2976.55483	0.07595
2975.26907	0.07654
2973.98330	0.07739
2972.69753	0.07863
2971.41176	0.08021
2970.12599	0.08189
2968.84022	0.08342
2967.55445	0.08470
2966.26868	0.08583
2964.98291	0.08703
2963.69715	0.08842
2962.41138	0.08991
2961.12561	0.09135
2959.83984	0.09268
2958.55407	0.09394
2957.26830	0.09510
2955.98253	0.09603
2954.69676	0.09662
2953.41100	0.09684
2952.12523	0.09677
2950.83946	0.09655
2949.55369	0.09634
2948.26792	0.09630
2946.98215	0.09652
2945.69638	0.09697
2944.41061	0.09750
2943.12484	0.09797
2941.83908	0.09832
2940.55331	0.09861
2939.26754	0.09904
2937.98177	0.09983
2936.69600	0.10098
2935.41023	0.10224
2934.12446	0.10330
2932.83869	0.10406
2931.55293	0.10468
2930.26716	0.10546
2928.98139	0.10653
2927.69562	0.10774
2926.40985	0.10880
2925.12408	0.10953
2923.83831	0.10984
2922.55254	0.10967
2921.26677	0.10903
2919.98101	0.10812
2918.69524	0.10715
2917.40947	0.10620
2916.12370	0.10517
2914.83793	0.10405
2913.55216	0.10296
2912.26639	0.10197
2910.98062	0.10103
2909.69486	0.10001
2908.40909	0.09887
2907.12332	0.09771
2905.83755	0.09668
2904.55178	0.09585
2903.26601	0.09514
2901.98024	0.09442
2900.69447	0.09357
2899.40870	0.09263
2898.12294	0.09171
2896.83717	0.09087
2895.55140	0.09010
2894.26563	0.08934
2892.97986	0.08854
2891.69409	0.08768
2890.40832	0.08678
2889.12255	0.08590
2887.83678	0.08513
2886.55102	0.08452
2885.26525	0.08406
2883.97948	0.08373
2882.69371	0.08351
2881.40794	0.08335
2880.12217	0.08321
2878.83640	0.08318
2877.55063	0.08338
2876.26487	0.08388
2874.97910	0.08462
2873.69333	0.08539
2872.40756	0.08597
2871.12179	0.08624
2869.83602	0.08625
2868.55025	0.08620
2867.26448	0.08629
2865.97871	0.08655
2864.69295	0.08682
2863.40718	0.08694
2862.12141	0.08684
2860.83564	0.08658
2859.54987	0.08627
2858.26410	0.08598
2856.97833	0.08569
2855.69256	0.08535
2854.40680	0.08496
2853.12103	0.08459
2851.83526	0.08424
2850.54949	0.08385
2849.26372	0.08327
2847.97795	0.08241
2846.69218	0.08129
2845.40641	0.08002
2844.12064	0.07878
2842.83488	0.07764
2841.54911	0.07654
2840.26334	0.07534
2838.97757	0.07402
2837.69180	0.07271
2836.40603	0.07156
2835.12026	0.07061
2833.83449	0.06976
2832.54873	0.06895
2831.26296	0.06817
2829.97719	0.06746
2828.69142	0.06688
2827.40565	0.06642
2826.11988	0.06604
2824.83411	0.06564
2823.54834	0.06512
2822.26257	0.06445
2820.97681	0.06377
2819.69104	0.06322
2818.40527	0.06284
2817.11950	0.06249
2815.83373	0.06216
2814.54796	0.06193
2813.26219	0.06179
2811.97642	0.06162
2810.69066	0.06136
2809.40489	0.06107
2808.11912	0.06086
2806.83335	0.06071
2805.54758	0.06053
2804.26181	0.06029
2802.97604	0.06001
2801.69027	0.05977
2800.40450	0.05965
2799.11874	0.05961
2797.83297	0.05952
2796.54720	0.05926
2795.26143	0.05887
2793.97566	0.05851
2792.68989	0.05832
2791.40412	0.05827
2790.11835	0.05818
2788.83259	0.05791
2787.54682	0.05752
2786.26105	0.05715
2784.97528	0.05696
2783.68951	0.05700
2782.40374	0.05717
2781.11797	0.05729
2779.83220	0.05724
2778.54643	0.05699
2777.26067	0.05657
2775.97490	0.05606
2774.68913	0.05561
2773.40336	0.05541
2772.11759	0.05552
2770.83182	0.05579
2769.54605	0.05598
2768.26028	0.05599
2766.97452	0.05588
2765.68875	0.05583
2764.40298	0.05587
2763.11721	0.05588
2761.83144	0.05571
2760.54567	0.05536
2759.25990	0.05501
2757.97413	0.05483
2756.68836	0.05482
2755.40260	0.05487
2754.11683	0.05487
2752.83106	0.05478
2751.54529	0.05459
2750.25952	0.05437
2748.97375	0.05422
2747.68798	0.05423
2746.40221	0.05435
2745.11645	0.05441
2743.83068	0.05433
2742.54491	0.05424
2741.25914	0.05427
2739.97337	0.05441
2738.68760	0.05447
2737.40183	0.05436
2736.11606	0.05415
2734.83029	0.05394
2733.54453	0.05376
2732.25876	0.05355
2730.97299	0.05335
2729.68722	0.05323
2728.40145	0.05323
2727.11568	0.05331
2725.82991	0.05336
2724.54414	0.05331
2723.25838	0.05321
2721.97261	0.05313
2720.68684	0.05309
2719.40107	0.05303
2718.11530	0.05286
2716.82953	0.05251
2715.54376	0.05202
2714.25799	0.05154
2712.97222	0.05124
2711.68646	0.05118
2710.40069	0.05130
2709.11492	0.05148
2707.82915	0.05159
2706.54338	0.05152
2705.25761	0.05129
2703.97184	0.05098
2702.68607	0.05066
2701.40031	0.05036
2700.11454	0.05012
2698.82877	0.05003
2697.54300	0.05013
2696.25723	0.05031
2694.97146	0.05042
2693.68569	0.05046
2692.39992	0.05046
2691.11415	0.05042
2689.82839	0.05029
2688.54262	0.05003
2687.25685	0.04969
2685.97108	0.04938
2684.68531	0.04920
2683.39954	0.04917
2682.11377	0.04921
2680.82800	0.04927
2679.54224	0.04931
2678.25647	0.04936
2676.97070	0.04941
2675.68493	0.04943
2674.39916	0.04931
2673.11339	0.04904
2671.82762	0.04875
2670.54185	0.04864
2669.25608	0.04873
2667.97032	0.04893
2666.68455	0.04913
2665.39878	0.04930
2664.11301	0.04944
2662.82724	0.04948
2661.54147	0.04935
2660.25570	0.04910
2658.96993	0.04876
2657.68417	0.04841
2656.39840	0.04809
2655.11263	0.04787
2653.82686	0.04769
2652.54109	0.04745
2651.25532	0.04714
2649.96955	0.04694
2648.68378	0.04697
2647.39801	0.04717
2646.11225	0.04735
2644.82648	0.04736
2643.54071	0.04718
2642.25494	0.04685
2640.96917	0.04641
2639.68340	0.04587
2638.39763	0.04538
2637.11186	0.04513
2635.82609	0.04522
2634.54033	0.04550
2633.25456	0.04566
2631.96879	0.04542
2630.68302	0.04482
2629.39725	0.04416
2628.11148	0.04378
2626.82571	0.04374
2625.53994	0.04387
2624.25418	0.04398
2622.96841	0.04401
2621.68264	0.04396
2620.39687	0.04372
2619.11110	0.04328
2617.82533	0.04287
2616.53956	0.04275
2615.25379	0.04285
2613.96802	0.04282
2612.68226	0.04247
2611.39649	0.04197
2610.11072	0.04160
2608.82495	0.04141
2607.53918	0.04119
2606.25341	0.04078
2604.96764	0.04026
2603.68187	0.03981
2602.39611	0.03966
2601.11034	0.03987
2599.82457	0.04033
2598.53880	0.04082
2597.25303	0.04116
2595.96726	0.04118
2594.68149	0.04081
2593.39572	0.04009
2592.10995	0.03924
2590.82419	0.03857
2589.53842	0.03832
2588.25265	0.03848
2586.96688	0.03878
2585.68111	0.03887
2584.39534	0.03871
2583.10957	0.03857
2581.82380	0.03877
2580.53804	0.03924
2579.25227	0.03959
2577.96650	0.03945
2576.68073	0.03885
2575.39496	0.03820
2574.10919	0.03785
2572.82342	0.03779
2571.53765	0.03778
2570.25188	0.03771
2568.96612	0.03766
2567.68035	0.03768
2566.39458	0.03777
2565.10881	0.03789
2563.82304	0.03790
2562.53727	0.03766
2561.25150	0.03712
2559.96573	0.03649
2558.67997	0.03605
2557.39420	0.03601
2556.10843	0.03642
2554.82266	0.03707
2553.53689	0.03761
2552.25112	0.03780
2550.96535	0.03774
2549.67958	0.03767
2548.39381	0.03774
2547.10805	0.03784
2545.82228	0.03787
2544.53651	0.03780
2543.25074	0.03773
2541.96497	0.03777
2540.67920	0.03793
2539.39343	0.03806
2538.10766	0.03793
2536.82190	0.03745
2535.53613	0.03687
2534.25036	0.03646
2532.96459	0.03629
2531.67882	0.03620
2530.39305	0.03609
2529.10728	0.03602
2527.82151	0.03610
2526.53574	0.03630
2525.24998	0.03645
2523.96421	0.03640
2522.67844	0.03618
2521.39267	0.03603
2520.10690	0.03617
2518.82113	0.03653
2517.53536	0.03671
2516.24959	0.03643
2514.96383	0.03575
2513.67806	0.03497
2512.39229	0.03441
2511.10652	0.03421
2509.82075	0.03435
2508.53498	0.03467
2507.24921	0.03498
2505.96344	0.03521
2504.67767	0.03535
2503.39191	0.03540
2502.10614	0.03537
2500.82037	0.03531
2499.53460	0.03526
2498.24883	0.03517
2496.96306	0.03504
2495.67729	0.03487
2494.39152	0.03465
2493.10576	0.03438
2491.81999	0.03417
2490.53422	0.03417
2489.24845	0.03450
2487.96268	0.03503
2486.67691	0.03546
2485.39114	0.03552
2484.10537	0.03524
2482.81960	0.03491
2481.53384	0.03477
2480.24807	0.03476
2478.96230	0.03473
2477.67653	0.03461
2476.39076	0.03451
2475.10499	0.03451
2473.81922	0.03462
2472.53345	0.03484
2471.24769	0.03507
2469.96192	0.03511
2468.67615	0.03479
2467.39038	0.03426
2466.10461	0.03396
2464.81884	0.03418
2463.53307	0.03472
2462.24730	0.03501
2460.96153	0.03472
2459.67577	0.03406
2458.39000	0.03356
2457.10423	0.03354
2455.81846	0.03387
2454.53269	0.03417
2453.24692	0.03412
2451.96115	0.03365
2450.67538	0.03302
2449.38962	0.03260
2448.10385	0.03261
2446.81808	0.03293
2445.53231	0.03322
2444.24654	0.03324
2442.96077	0.03302
2441.67500	0.03271
2440.38923	0.03243
2439.10346	0.03216
2437.81770	0.03186
2436.53193	0.03161
2435.24616	0.03159
2433.96039	0.03178
2432.67462	0.03198
2431.38885	0.03197
2430.10308	0.03178
2428.81731	0.03156
2427.53155	0.03140
2426.24578	0.03136
2424.96001	0.03148
2423.67424	0.03172
2422.38847	0.03192
2421.10270	0.03196
2419.81693	0.03187
2418.53116	0.03176
2417.24539	0.03173
2415.95963	0.03183
2414.67386	0.03200
2413.38809	0.03213
2412.10232	0.03213
2410.81655	0.03194
2409.53078	0.03158
2408.24501	0.03113
2406.95924	0.03075
2405.67347	0.03065
2404.38771	0.03098
2403.10194	0.03162
2401.81617	0.03226
2400.53040	0.03261
2399.24463	0.03262
2397.95886	0.03234
2396.67309	0.03193
2395.38732	0.03154
2394.10156	0.03126
2392.81579	0.03114
2391.53002	0.03114
2390.24425	0.03125
2388.95848	0.03147
2387.67271	0.03175
2386.38694	0.03198
2385.10117	0.03206
2383.81540	0.03198
2382.52964	0.03180
2381.24387	0.03159
2379.95810	0.03133
2378.67233	0.03098
2377.38656	0.03052
2376.10079	0.02999
2374.81502	0.02960
2373.52925	0.02935
2372.24349	0.02924
2370.95772	0.02905
2369.67195	0.02890
2368.38618	0.02873
2367.10041	0.02853
2365.81464	0.02829
2364.52887	0.02839
2363.24310	0.02870
2361.95733	0.02898
2360.67157	0.02900
2359.38580	0.02914
2358.10003	0.02930
2356.81426	0.02945
2355.52849	0.02960
2354.24272	0.02979
2352.95695	0.03019
2351.67118	0.03049
2350.38542	0.03049
2349.09965	0.03052
2347.81388	0.03086
2346.52811	0.03093
2345.24234	0.03068
2343.95657	0.03057
2342.67080	0.03085
2341.38503	0.03072
2340.09926	0.02994
2338.81350	0.02954
2337.52773	0.02970
2336.24196	0.02936
2334.95619	0.02870
2333.67042	0.02893
2332.38465	0.02986
2331.09888	0.02959
2329.81311	0.02914
2328.52735	0.03009
2327.24158	0.03016
2325.95581	0.02980
2324.67004	0.03076
2323.38427	0.03120
2322.09850	0.03075
2320.81273	0.03130
2319.52696	0.03124
2318.24119	0.03086
2316.95543	0.03135
2315.66966	0.03137
2314.38389	0.03116
2313.09812	0.03131
2311.81235	0.03104
2310.52658	0.03095
2309.24081	0.03085
2307.95504	0.03052
2306.66928	0.03040
2305.38351	0.03005
2304.09774	0.02966
2302.81197	0.02948
2301.52620	0.02955
2300.24043	0.03004
2298.95466	0.03057
2297.66889	0.03092
2296.38312	0.03092
2295.09736	0.03056
2293.81159	0.03003
2292.52582	0.02952
2291.24005	0.02928
2289.95428	0.02934
2288.66851	0.02954
2287.38274	0.02966
2286.09697	0.02955
2284.81121	0.02923
2283.52544	0.02876
2282.23967	0.02827
2280.95390	0.02791
2279.66813	0.02774
2278.38236	0.02770
2277.09659	0.02757
2275.81082	0.02714
2274.52505	0.02644
2273.23929	0.02578
2271.95352	0.02544
2270.66775	0.02549
2269.38198	0.02568
2268.09621	0.02573
2266.81044	0.02559
2265.52467	0.02545
2264.23890	0.02544
2262.95314	0.02539
2261.66737	0.02502
2260.38160	0.02429
2259.09583	0.02343
2257.81006	0.02271
2256.52429	0.02230
2255.23852	0.02225
2253.95275	0.02245
2252.66698	0.02270
2251.38122	0.02284
2250.09545	0.02289
2248.80968	0.02297
2247.52391	0.02292
2246.23814	0.02277
2244.95237	0.02241
2243.66660	0.02193
2242.38083	0.02152
2241.09507	0.02130
2239.80930	0.02119
2238.52353	0.02112
2237.23776	0.02112
2235.95199	0.02124
2234.66622	0.02136
2233.38045	0.02133
2232.09468	0.02125
2230.80891	0.02125
2229.52315	0.02119
2228.23738	0.02079
2226.95161	0.02008
2225.66584	0.01946
2224.38007	0.01924
2223.09430	0.01934
2221.80853	0.01947
2220.52276	0.01949
2219.23700	0.01930
2217.95123	0.01881
2216.66546	0.01798
2215.37969	0.01709
2214.09392	0.01659
2212.80815	0.01675
2211.52238	0.01736
2210.23661	0.01786
2208.95084	0.01785
2207.66508	0.01758
2206.37931	0.01764
2205.09354	0.01819
2203.80777	0.01870
2202.52200	0.01859
2201.23623	0.01794
2199.95046	0.01730
2198.66469	0.01705
2197.37893	0.01712
2196.09316	0.01707
2194.80739	0.01637
2193.52162	0.01494
2192.23585	0.01361
2190.95008	0.01349
2189.66431	0.01480
2188.37854	0.01654
2187.09277	0.01743
2185.80701	0.01696
2184.52124	0.01550
2183.23547	0.01376
2181.94970	0.01229
2180.66393	0.01137
2179.37816	0.01107
2178.09239	0.01140
2176.80662	0.01223
2175.52085	0.01332
2174.23509	0.01450
2172.94932	0.01563
2171.66355	0.01638
2170.37778	0.01623
2169.09201	0.01498
2167.80624	0.01324
2166.52047	0.01220
2165.23470	0.01261
2163.94894	0.01398
2162.66317	0.01491
2161.37740	0.01434
2160.09163	0.01255
2158.80586	0.01089
2157.52009	0.01041
2156.23432	0.01099
2154.94855	0.01186
2153.66278	0.01251
2152.37702	0.01294
2151.09125	0.01330
2149.80548	0.01346
2148.51971	0.01315
2147.23394	0.01241
2145.94817	0.01174
2144.66240	0.01161
2143.37663	0.01205
2142.09087	0.01281
2140.80510	0.01375
2139.51933	0.01466
2138.23356	0.01521
2136.94779	0.01517
2135.66202	0.01471
2134.37625	0.01432
2133.09048	0.01455
2131.80471	0.01552
2130.51895	0.01674
2129.23318	0.01746
2127.94741	0.01737
2126.66164	0.01688
2125.37587	0.01667
2124.09010	0.01691
2122.80433	0.01736
2121.51856	0.01772
2120.23280	0.01794
2118.94703	0.01808
2117.66126	0.01827
2116.37549	0.01864
2115.08972	0.01914
2113.80395	0.01944
2112.51818	0.01927
2111.23241	0.01869
2109.94664	0.01803
2108.66088	0.01753
2107.37511	0.01728
2106.08934	0.01729
2104.80357	0.01746
2103.51780	0.01753
2102.23203	0.01735
2100.94626	0.01706
2099.66049	0.01714
2098.37473	0.01729
2097.08896	0.01730
2095.80319	0.01707
2094.51742	0.01667
2093.23165	0.01631
2091.94588	0.01606
2090.66011	0.01580
2089.37434	0.01547
2088.08857	0.01519
2086.80281	0.01522
2085.51704	0.01553
2084.23127	0.01581
2082.94550	0.01579
2081.65973	0.01551
2080.37396	0.01529
2079.08819	0.01527
2077.80242	0.01531
2076.51666	0.01514
2075.23089	0.01458
2073.94512	0.01379
2072.65935	0.01322
2071.37358	0.01334
2070.08781	0.01420
2068.80204	0.01521
2067.51627	0.01562
2066.23050	0.01519
2064.94474	0.01428
2063.65897	0.01342
2062.37320	0.01280
2061.08743	0.01236
2059.80166	0.01199
2058.51589	0.01160
2057.23012	0.01117
2055.94435	0.01078
2054.65859	0.01065
2053.37282	0.01089
2052.08705	0.01124
2050.80128	0.01133
2049.51551	0.01109
2048.22974	0.01082
2046.94397	0.01077
2045.65820	0.01077
2044.37243	0.01047
2043.08667	0.00981
2041.80090	0.00922
2040.51513	0.00924
2039.22936	0.00993
2037.94359	0.01076
2036.65782	0.01098
2035.37205	0.01020
2034.08628	0.00864
2032.80052	0.00699
2031.51475	0.00594
2030.22898	0.00576
2028.94321	0.00618
2027.65744	0.00678
2026.37167	0.00718
2025.08590	0.00717
2023.80013	0.00671
2022.51436	0.00610
2021.22860	0.00581
2019.94283	0.00603
2018.65706	0.00650
2017.37129	0.00690
2016.08552	0.00712
2014.79975	0.00717
2013.51398	0.00702
2012.22821	0.00672
2010.94245	0.00651
2009.65668	0.00657
2008.37091	0.00695
2007.08514	0.00757
2005.79937	0.00836
2004.51360	0.00915
2003.22783	0.00976
2001.94206	0.01008
2000.65629	0.01015
1999.37053	0.01010
1998.08476	0.01001
1996.79899	0.00996
1995.51322	0.01005
1994.22745	0.01027
1992.94168	0.01047
1991.65591	0.01058
1990.37014	0.01065
1989.08438	0.01074
1987.79861	0.01079
1986.51284	0.01078
1985.22707	0.01095
1983.94130	0.01153
1982.65553	0.01231
1981.36976	0.01274
1980.08399	0.01243
1978.79822	0.01149
1977.51246	0.01024
1976.22669	0.00897
1974.94092	0.00798
1973.65515	0.00770
1972.36938	0.00852
1971.08361	0.01033
1969.79784	0.01236
1968.51207	0.01352
1967.22631	0.01330
1965.94054	0.01219
1964.65477	0.01122
1963.36900	0.01103
1962.08323	0.01154
1960.79746	0.01237
1959.51169	0.01323
1958.22592	0.01389
1956.94015	0.01419
1955.65439	0.01411
1954.36862	0.01392
1953.08285	0.01380
1951.79708	0.01374
1950.51131	0.01367
1949.22554	0.01375
1947.93977	0.01426
1946.65400	0.01511
1945.36823	0.01577
1944.08247	0.01573
1942.79670	0.01498
1941.51093	0.01411
1940.22516	0.01371
1938.93939	0.01395
1937.65362	0.01442
1936.36785	0.01468
1935.08208	0.01473
1933.79632	0.01486
1932.51055	0.01517
1931.22478	0.01546
1929.93901	0.01551
1928.65324	0.01548
1927.36747	0.01562
1926.08170	0.01590
1924.79593	0.01607
1923.51016	0.01597
1922.22440	0.01578
1920.93863	0.01575
1919.65286	0.01597
1918.36709	0.01628
1917.08132	0.01652
1915.79555	0.01669
1914.50978	0.01685
1913.22401	0.01703
1911.93825	0.01722
1910.65248	0.01734
1909.36671	0.01731
1908.08094	0.01713
1906.79517	0.01691
1905.50940	0.01678
1904.22363	0.01676
1902.93786	0.01677
1901.65209	0.01682
1900.36633	0.01698
1899.08056	0.01726
1897.79479	0.01743
1896.50902	0.01726
1895.22325	0.01673
1893.93748	0.01619
1892.65171	0.01603
1891.36594	0.01635
1890.08018	0.01690
1888.79441	0.01738
1887.50864	0.01769
1886.22287	0.01786
1884.93710	0.01791
1883.65133	0.01783
1882.36556	0.01759
1881.07979	0.01724
1879.79402	0.01684
1878.50826	0.01654
1877.22249	0.01648
1875.93672	0.01668
1874.65095	0.01703
1873.36518	0.01736
1872.07941	0.01756
1870.79364	0.01761
1869.50787	0.01758
1868.22211	0.01760
1866.93634	0.01777
1865.65057	0.01811
1864.36480	0.01844
1863.07903	0.01857
1861.79326	0.01838
1860.50749	0.01803
1859.22172	0.01775
1857.93595	0.01767
1856.65019	0.01773
1855.36442	0.01777
1854.07865	0.01773
1852.79288	0.01766
1851.50711	0.01762
1850.22134	0.01764
1848.93557	0.01771
1847.64980	0.01783
1846.36404	0.01798
1845.07827	0.01809
1843.79250	0.01814
1842.50673	0.01822
1841.22096	0.01839
1839.93519	0.01861
1838.64942	0.01874
1837.36365	0.01872
1836.07788	0.01860
1834.79212	0.01850
1833.50635	0.01848
1832.22058	0.01849
1830.93481	0.01845
1829.64904	0.01834
1828.36327	0.01823
1827.07750	0.01826
1825.79173	0.01846
1824.50597	0.01875
1823.22020	0.01900
1821.93443	0.01913
1820.64866	0.01912
1819.36289	0.01901
1818.07712	0.01888
1816.79135	0.01877
1815.50558	0.01867
1814.21981	0.01862
1812.93405	0.01862
1811.64828	0.01871
1810.36251	0.01882
1809.07674	0.01887
1807.79097	0.01882
1806.50520	0.01873
1805.21943	0.01868
1803.93366	0.01874
1802.64790	0.01887
1801.36213	0.01900
1800.07636	0.01909
1798.79059	0.01912
1797.50482	0.01908
1796.21905	0.01898
1794.93328	0.01884
1793.64751	0.01870
1792.36174	0.01860
1791.07598	0.01856
1789.79021	0.01862
1788.50444	0.01878
1787.21867	0.01900
1785.93290	0.01916
1784.64713	0.01918
1783.36136	0.01911
1782.07559	0.01905
1780.78983	0.01907
1779.50406	0.01913
1778.21829	0.01916
1776.93252	0.01916
1775.64675	0.01919
1774.36098	0.01929
1773.07521	0.01941
1771.78944	0.01949
1770.50367	0.01952
1769.21791	0.01957
1767.93214	0.01971
1766.64637	0.01989
1765.36060	0.02001
1764.07483	0.01999
1762.78906	0.01986
1761.50329	0.01973
1760.21752	0.01970
1758.93176	0.01977
1757.64599	0.01988
1756.36022	0.01995
1755.07445	0.01998
1753.78868	0.02000
1752.50291	0.02006
1751.21714	0.02013
1749.93137	0.02018
1748.64560	0.02016
1747.35984	0.02012
1746.07407	0.02010
1744.78830	0.02013
1743.50253	0.02020
1742.21676	0.02033
1740.93099	0.02049
1739.64522	0.02065
1738.35945	0.02079
1737.07369	0.02093
1735.78792	0.02107
1734.50215	0.02122
1733.21638	0.02133
1731.93061	0.02138
1730.64484	0.02140
1729.35907	0.02145
1728.07330	0.02154
1726.78753	0.02167
1725.50177	0.02179
1724.21600	0.02189
1722.93023	0.02198
1721.64446	0.02208
1720.35869	0.02222
1719.07292	0.02241
1717.78715	0.02264
1716.50138	0.02291
1715.21561	0.02319
1713.92985	0.02349
1712.64408	0.02381
1711.35831	0.02418
1710.07254	0.02460
1708.78677	0.02503
1707.50100	0.02546
1706.21523	0.02584
1704.92946	0.02621
1703.64370	0.02660
1702.35793	0.02706
1701.07216	0.02757
1699.78639	0.02810
1698.50062	0.02862
1697.21485	0.02912
1695.92908	0.02959
1694.64331	0.03002
1693.35754	0.03042
1692.07178	0.03083
1690.78601	0.03124
1689.50024	0.03167
1688.21447	0.03211
1686.92870	0.03255
1685.64293	0.03301
1684.35716	0.03351
1683.07139	0.03402
1681.78563	0.03449
1680.49986	0.03492
1679.21409	0.03532
1677.92832	0.03571
1676.64255	0.03613
1675.35678	0.03659
1674.07101	0.03710
1672.78524	0.03764
1671.49947	0.03815
1670.21371	0.03862
1668.92794	0.03906
1667.64217	0.03951
1666.35640	0.03999
1665.07063	0.04051
1663.78486	0.04102
1662.49909	0.04149
1661.21332	0.04188
1659.92756	0.04219
1658.64179	0.04247
1657.35602	0.04279
1656.07025	0.04314
1654.78448	0.04347
1653.49871	0.04373
1652.21294	0.04393
1650.92717	0.04406
1649.64140	0.04417
1648.35564	0.04429
1647.06987	0.04440
1645.78410	0.04450
1644.49833	0.04456
1643.21256	0.04459
1641.92679	0.04460
1640.64102	0.04458
1639.35525	0.04451
1638.06949	0.04441
1636.78372	0.04428
1635.49795	0.04413
1634.21218	0.04397
1632.92641	0.04382
1631.64064	0.04367
1630.35487	0.04354
1629.06910	0.04339
1627.78333	0.04322
1626.49757	0.04308
1625.21180	0.04302
1623.92603	0.04305
1622.64026	0.04310
1621.35449	0.04313
1620.06872	0.04309
1618.78295	0.04297
1617.49718	0.04283
1616.21142	0.04273
1614.92565	0.04274
1613.63988	0.04289
1612.35411	0.04308
1611.06834	0.04324
1609.78257	0.04333
1608.49680	0.04343
1607.21103	0.04361
1605.92526	0.04385
1604.63950	0.04409
1603.35373	0.04429
1602.06796	0.04446
1600.78219	0.04465
1599.49642	0.04489
1598.21065	0.04515
1596.92488	0.04542
1595.63911	0.04569
1594.35335	0.04597
1593.06758	0.04629
1591.78181	0.04667
1590.49604	0.04709
1589.21027	0.04751
1587.92450	0.04789
1586.63873	0.04820
1585.35296	0.04851
1584.06719	0.04890
1582.78143	0.04941
1581.49566	0.05002
1580.20989	0.05067
1578.92412	0.05132
1577.63835	0.05195
1576.35258	0.05258
1575.06681	0.05319
1573.78104	0.05377
1572.49528	0.05435
1571.20951	0.05497
1569.92374	0.05566
1568.63797	0.05635
1567.35220	0.05699
1566.06643	0.05754
1564.78066	0.05806
1563.49489	0.05860
1562.20912	0.05918
1560.92336	0.05979
1559.63759	0.06038
1558.35182	0.06092
1557.06605	0.06138
1555.78028	0.06180
1554.49451	0.06223
1553.20874	0.06269
1551.92297	0.06316
1550.63721	0.06356
1549.35144	0.06384
1548.06567	0.06400
1546.77990	0.06405
1545.49413	0.06400
1544.20836	0.06385
1542.92259	0.06359
1541.63682	0.06326
1540.35105	0.06291
1539.06529	0.06256
1537.77952	0.06227
1536.49375	0.06206
1535.20798	0.06193
1533.92221	0.06184
1532.63644	0.06180
1531.35067	0.06183
1530.06490	0.06199
1528.77914	0.06230
1527.49337	0.06277
1526.20760	0.06333
1524.92183	0.06391
1523.63606	0.06450
1522.35029	0.06512
1521.06452	0.06585
1519.77875	0.06673
1518.49298	0.06778
1517.20722	0.06898
1515.92145	0.07026
1514.63568	0.07160
1513.34991	0.07298
1512.06414	0.07445
1510.77837	0.07602
1509.49260	0.07766
1508.20683	0.07930
1506.92107	0.08091
1505.63530	0.08248
1504.34953	0.08398
1503.06376	0.08537
1501.77799	0.08664
1500.49222	0.08784
1499.20645	0.08901
1497.92068	0.09019
1496.63491	0.09135
1495.34915	0.09242
1494.06338	0.09336
1492.77761	0.09420
1491.49184	0.09505
1490.20607	0.09600
1488.92030	0.09708
1487.63453	0.09829
1486.34876	0.09957
1485.06299	0.10088
1483.77723	0.10221
1482.49146	0.10360
1481.20569	0.10504
1479.91992	0.10653
1478.63415	0.10804
1477.34838	0.10957
1476.06261	0.11109
1474.77684	0.11254
1473.49108	0.11385
1472.20531	0.11499
1470.91954	0.11597
1469.63377	0.11683
1468.34800	0.11759
1467.06223	0.11826
1465.77646	0.11883
1464.49069	0.11935
1463.20492	0.11988
1461.91916	0.12048
1460.63339	0.12119
1459.34762	0.12200
1458.06185	0.12290
1456.77608	0.12385
1455.49031	0.12476
1454.20454	0.12560
1452.91877	0.12634
1451.63301	0.12700
1450.34724	0.12759
1449.06147	0.12809
1447.77570	0.12850
1446.48993	0.12879
1445.20416	0.12892
1443.91839	0.12885
1442.63262	0.12857
1441.34685	0.12810
1440.06109	0.12753
1438.77532	0.12697
1437.48955	0.12650
1436.20378	0.12622
1434.91801	0.12620
1433.63224	0.12647
1432.34647	0.12704
1431.06070	0.12787
1429.77494	0.12895
1428.48917	0.13024
1427.20340	0.13172
1425.91763	0.13338
1424.63186	0.13514
1423.34609	0.13696
1422.06032	0.13877
1420.77455	0.14051
1419.48878	0.14213
1418.20302	0.14357
1416.91725	0.14476
1415.63148	0.14570
1414.34571	0.14642
1413.05994	0.14696
1411.77417	0.14727
1410.48840	0.14732
1409.20263	0.14704
1407.91687	0.14642
1406.63110	0.14546
1405.34533	0.14417
1404.05956	0.14257
1402.77379	0.14069
1401.48802	0.13859
1400.20225	0.13625
1398.91648	0.13369
1397.63071	0.13094
1396.34495	0.12807
1395.05918	0.12516
1393.77341	0.12230
1392.48764	0.11948
1391.20187	0.11672
1389.91610	0.11400
1388.63033	0.11133
1387.34456	0.10870
1386.05880	0.10611
1384.77303	0.10354
1383.48726	0.10103
1382.20149	0.09858
1380.91572	0.09621
1379.62995	0.09388
1378.34418	0.09152
1377.05841	0.08903
1375.77264	0.08636
1374.48688	0.08353
1373.20111	0.08063
1371.91534	0.07776
1370.62957	0.07497
1369.34380	0.07226
1368.05803	0.06970
1366.77226	0.06735
1365.48649	0.06524
1364.20073	0.06328
1362.91496	0.06136
1361.62919	0.05942
1360.34342	0.05752
1359.05765	0.05575
1357.77188	0.05419
1356.48611	0.05282
1355.20034	0.05157
1353.91457	0.05039
1352.62881	0.04928
1351.34304	0.04829
1350.05727	0.04738
1348.77150	0.04651
1347.48573	0.04563
1346.19996	0.04477
1344.91419	0.04395
1343.62842	0.04321
1342.34266	0.04254
1341.05689	0.04192
1339.77112	0.04133
1338.48535	0.04075
1337.19958	0.04022
1335.91381	0.03974
1334.62804	0.03931
1333.34227	0.03889
1332.05650	0.03845
1330.77074	0.03795
1329.48497	0.03744
1328.19920	0.03695
1326.91343	0.03652
1325.62766	0.03615
1324.34189	0.03583
1323.05612	0.03553
1321.77035	0.03524
1320.48459	0.03498
1319.19882	0.03473
1317.91305	0.03449
1316.62728	0.03425
1315.34151	0.03397
1314.05574	0.03366
1312.76997	0.03334
1311.48420	0.03305
1310.19843	0.03279
1308.91267	0.03256
1307.62690	0.03231
1306.34113	0.03203
1305.05536	0.03173
1303.76959	0.03141
1302.48382	0.03112
1301.19805	0.03085
1299.91228	0.03061
1298.62652	0.03036
1297.34075	0.03009
1296.05498	0.02985
1294.76921	0.02967
1293.48344	0.02955
1292.19767	0.02945
1290.91190	0.02933
1289.62613	0.02913
1288.34036	0.02886
1287.05460	0.02856
1285.76883	0.02829
1284.48306	0.02809
1283.19729	0.02793
1281.91152	0.02779
1280.62575	0.02764
1279.33998	0.02752
1278.05421	0.02742
1276.76845	0.02731
1275.48268	0.02716
1274.19691	0.02696
1272.91114	0.02674
1271.62537	0.02652
1270.33960	0.02632
1269.05383	0.02611
1267.76806	0.02591
1266.48229	0.02574
1265.19653	0.02562
1263.91076	0.02553
1262.62499	0.02544
1261.33922	0.02532
1260.05345	0.02517
1258.76768	0.02502
1257.48191	0.02490
1256.19614	0.02483
1254.91037	0.02477
1253.62461	0.02468
1252.33884	0.02453
1251.05307	0.02432
1249.76730	0.02412
1248.48153	0.02398
1247.19576	0.02391
1245.90999	0.02385
1244.62422	0.02378
1243.33846	0.02366
1242.05269	0.02352
1240.76692	0.02339
1239.48115	0.02326
1238.19538	0.02314
1236.90961	0.02304
1235.62384	0.02295
1234.33807	0.02286
1233.05230	0.02277
1231.76654	0.02268
1230.48077	0.02257
1229.19500	0.02247
1227.90923	0.02240
1226.62346	0.02233
1225.33769	0.02222
1224.05192	0.02203
1222.76615	0.02179
1221.48039	0.02158
1220.19462	0.02144
1218.90885	0.02140
1217.62308	0.02140
1216.33731	0.02141
1215.05154	0.02140
1213.76577	0.02135
1212.48000	0.02128
1211.19423	0.02120
1209.90847	0.02113
1208.62270	0.02107
1207.33693	0.02102
1206.05116	0.02099
1204.76539	0.02096
1203.47962	0.02091
1202.19385	0.02083
1200.90808	0.02076
1199.62232	0.02071
1198.33655	0.02074
1197.05078	0.02076
1195.76501	0.02070
1194.47924	0.02057
1193.19347	0.02042
1191.90770	0.02030
1190.62193	0.02022
1189.33616	0.02018
1188.05040	0.02020
1186.76463	0.02025
1185.47886	0.02031
1184.19309	0.02036
1182.90732	0.02042
1181.62155	0.02050
1180.33578	0.02054
1179.05001	0.02049
1177.76425	0.02038
1176.47848	0.02029
1175.19271	0.02026
1173.90694	0.02030
1172.62117	0.02038
1171.33540	0.02044
1170.04963	0.02051
1168.76386	0.02065
1167.47809	0.02090
1166.19233	0.02123
1164.90656	0.02156
1163.62079	0.02180
1162.33502	0.02195
1161.04925	0.02204
1159.76348	0.02216
1158.47771	0.02233
1157.19194	0.02255
1155.90618	0.02279
1154.62041	0.02303
1153.33464	0.02328
1152.04887	0.02359
1150.76310	0.02400
1149.47733	0.02450
1148.19156	0.02508
1146.90579	0.02570
1145.62002	0.02637
1144.33426	0.02704
1143.04849	0.02775
1141.76272	0.02853
1140.47695	0.02944
1139.19118	0.03050
1137.90541	0.03171
1136.61964	0.03306
1135.33387	0.03458
1134.04811	0.03630
1132.76234	0.03821
1131.47657	0.04032
1130.19080	0.04264
1128.90503	0.04521
1127.61926	0.04803
1126.33349	0.05109
1125.04772	0.05437
1123.76195	0.05789
1122.47619	0.06164
1121.19042	0.06550
1119.90465	0.06936
1118.61888	0.07318
1117.33311	0.07702
1116.04734	0.08094
1114.76157	0.08489
1113.47580	0.08880
1112.19004	0.09264
1110.90427	0.09648
1109.61850	0.10035
1108.33273	0.10424
1107.04696	0.10806
1105.76119	0.11175
1104.47542	0.11528
1103.18965	0.11868
1101.90388	0.12199
1100.61812	0.12526
1099.33235	0.12842
1098.04658	0.13136
1096.76081	0.13402
1095.47504	0.13650
1094.18927	0.13893
1092.90350	0.14142
1091.61773	0.14389
1090.33197	0.14618
1089.04620	0.14822
1087.76043	0.15013
1086.47466	0.15205
1085.18889	0.15403
1083.90312	0.15603
1082.61735	0.15805
1081.33158	0.16017
1080.04581	0.16249
1078.76005	0.16501
1077.47428	0.16772
1076.18851	0.17056
1074.90274	0.17351
1073.61697	0.17660
1072.33120	0.17988
1071.04543	0.18334
1069.75966	0.18695
1068.47390	0.19068
1067.18813	0.19455
1065.90236	0.19856
1064.61659	0.20267
1063.33082	0.20679
1062.04505	0.21085
1060.75928	0.21486
1059.47351	0.21888
1058.18774	0.22297
1056.90198	0.22703
1055.61621	0.23098
1054.33044	0.23479
1053.04467	0.23859
1051.75890	0.24244
1050.47313	0.24634
1049.18736	0.25025
1047.90159	0.25425
1046.61583	0.25842
1045.33006	0.26277
1044.04429	0.26723
1042.75852	0.27170
1041.47275	0.27621
1040.18698	0.28078
1038.90121	0.28543
1037.61544	0.29008
1036.32967	0.29465
1035.04391	0.29913
1033.75814	0.30355
1032.47237	0.30793
1031.18660	0.31218
1029.90083	0.31617
1028.61506	0.31981
1027.32929	0.32304
1026.04352	0.32584
1024.75775	0.32821
1023.47199	0.33015
1022.18622	0.33166
1020.90045	0.33270
1019.61468	0.33323
1018.32891	0.33327
1017.04314	0.33282
1015.75737	0.33183
1014.47160	0.33023
1013.18584	0.32799
1011.90007	0.32515
1010.61430	0.32175
1009.32853	0.31777
1008.04276	0.31315
1006.75699	0.30790
1005.47122	0.30210
1004.18545	0.29586
1002.89968	0.28920
1001.61392	0.28211
1000.32815	0.27459
999.04238	0.26670
997.75661	0.25854
996.47084	0.25026
995.18507	0.24196
993.89930	0.23371
992.61353	0.22550
991.32777	0.21737
990.04200	0.20940
988.75623	0.20167
987.47046	0.19417
986.18469	0.18689
984.89892	0.17987
983.61315	0.17317
982.32738	0.16689
981.04161	0.16102
979.75585	0.15547
978.47008	0.15017
977.18431	0.14520
975.89854	0.14073
974.61277	0.13686
973.32700	0.13360
972.04123	0.13090
970.75546	0.12878
969.46970	0.12735
968.18393	0.12673
966.89816	0.12692
965.61239	0.12778
964.32662	0.12911
963.04085	0.13062
961.75508	0.13197
960.46931	0.13274
959.18354	0.13260
957.89778	0.13144
956.61201	0.12937
955.32624	0.12663
954.04047	0.12349
952.75470	0.12018
951.46893	0.11683
950.18316	0.11353
948.89739	0.11028
947.61163	0.10709
946.32586	0.10401
945.04009	0.10105
943.75432	0.09823
942.46855	0.09550
941.18278	0.09285
939.89701	0.09032
938.61124	0.08795
937.32547	0.08576
936.03971	0.08370
934.75394	0.08170
933.46817	0.07979
932.18240	0.07798
930.89663	0.07627
929.61086	0.07467
928.32509	0.07321
927.03932	0.07193
925.75356	0.07076
924.46779	0.06962
923.18202	0.06846
921.89625	0.06737
920.61048	0.06639
919.32471	0.06549
918.03894	0.06459
916.75317	0.06367
915.46740	0.06278
914.18164	0.06199
912.89587	0.06131
911.61010	0.06068
910.32433	0.06003
909.03856	0.05933
907.75279	0.05857
906.46702	0.05781
905.18125	0.05714
903.89549	0.05660
902.60972	0.05614
901.32395	0.05565
900.03818	0.05509
898.75241	0.05453
897.46664	0.05411
896.18087	0.05389
894.89510	0.05381
893.60933	0.05371
892.32357	0.05352
891.03780	0.05330
889.75203	0.05324
888.46626	0.05352
887.18049	0.05436
885.89472	0.05599
884.60895	0.05863
883.32318	0.06229
882.03742	0.06665
880.75165	0.07099
879.46588	0.07460
878.18011	0.07717
876.89434	0.07904
875.60857	0.08077
874.32280	0.08267
873.03703	0.08447
871.75126	0.08564
870.46550	0.08572
869.17973	0.08461
867.89396	0.08247
866.60819	0.07959
865.32242	0.07626
864.03665	0.07278
862.75088	0.06938
861.46511	0.06625
860.17935	0.06349
858.89358	0.06115
857.60781	0.05920
856.32204	0.05758
855.03627	0.05624
853.75050	0.05509
852.46473	0.05405
851.17896	0.05311
849.89319	0.05226
848.60743	0.05151
847.32166	0.05083
846.03589	0.05022
844.75012	0.04969
843.46435	0.04922
842.17858	0.04882
840.89281	0.04845
839.60704	0.04809
838.32128	0.04770
837.03551	0.04725
835.74974	0.04674
834.46397	0.04626
833.17820	0.04589
831.89243	0.04567
830.60666	0.04551
829.32089	0.04531
828.03512	0.04502
826.74936	0.04470
825.46359	0.04440
824.17782	0.04417
822.89205	0.04398
821.60628	0.04382
820.32051	0.04368
819.03474	0.04356
817.74897	0.04345
816.46321	0.04337
815.17744	0.04333
813.89167	0.04327
812.60590	0.04316
811.32013	0.04298
810.03436	0.04280
808.74859	0.04264
807.46282	0.04251
806.17705	0.04239
804.89129	0.04227
803.60552	0.04214
802.31975	0.04198
801.03398	0.04181
799.74821	0.04163
798.46244	0.04148
797.17667	0.04137
795.89090	0.04131
794.60513	0.04122
793.31937	0.04109
792.03360	0.04094
790.74783	0.04084
789.46206	0.04077
788.17629	0.04067
786.89052	0.04048
785.60475	0.04021
784.31898	0.03994
783.03322	0.03973
781.74745	0.03963
780.46168	0.03964
779.17591	0.03970
777.89014	0.03972
776.60437	0.03963
775.31860	0.03948
774.03283	0.03932
772.74706	0.03920
771.46130	0.03916
770.17553	0.03916
768.88976	0.03914
767.60399	0.03905
766.31822	0.03897
765.03245	0.03901
763.74668	0.03922
762.46091	0.03949
761.17515	0.03970
759.88938	0.03981
758.60361	0.03986
757.31784	0.03987
756.03207	0.03982
754.74630	0.03972
753.46053	0.03961
752.17476	0.03951
750.88899	0.03940
749.60323	0.03923
748.31746	0.03905
747.03169	0.03893
745.74592	0.03887
744.46015	0.03882
743.17438	0.03871
741.88861	0.03854
740.60284	0.03836
739.31708	0.03821
738.03131	0.03810
736.74554	0.03802
735.45977	0.03795
734.17400	0.03786
732.88823	0.03774
731.60246	0.03763
730.31669	0.03759
729.03092	0.03769
727.74516	0.03787
726.45939	0.03804
725.17362	0.03812
723.88785	0.03811
722.60208	0.03818
721.31631	0.03830
720.03054	0.03838
718.74477	0.03840
717.45901	0.03839
716.17324	0.03837
714.88747	0.03831
713.60170	0.03821
712.31593	0.03807
711.03016	0.03793
709.74439	0.03781
708.45862	0.03772
707.17285	0.03763
705.88709	0.03752
704.60132	0.03739
703.31555	0.03727
702.02978	0.03721
700.74401	0.03720
699.45824	0.03725
698.17247	0.03732
696.88670	0.03736
695.60094	0.03735
694.31517	0.03731
693.02940	0.03726
691.74363	0.03723
690.45786	0.03721
689.17209	0.03717
687.88632	0.03710
686.60055	0.03699
685.31478	0.03684
684.02902	0.03671
682.74325	0.03659
681.45748	0.03649
680.17171	0.03640
678.88594	0.03631
677.60017	0.03629
676.31440	0.03634
675.02863	0.03643
673.74287	0.03651
672.45710	0.03651
671.17133	0.03636
669.88556	0.03619
668.59979	0.03643
667.31402	0.03658
666.02825	0.03631
664.74248	0.03639
663.45671	0.03634
662.17095	0.03611
660.88518	0.03587
659.59941	0.03569
658.31364	0.03555
657.02787	0.03543
655.74210	0.03535
654.45633	0.03532
653.17056	0.03535
651.88480	0.03542
650.59903	0.03554
649.31326	0.03565
648.02749	0.03568
646.74172	0.03562
645.45595	0.03554
644.17018	0.03553
642.88441	0.03566
641.59864	0.03589
640.31288	0.03616
639.02711	0.03638
637.74134	0.03657
636.45557	0.03674
635.16980	0.03694
633.88403	0.03716
632.59826	0.03742
631.31249	0.03778
630.02673	0.03836
628.74096	0.03909
627.45519	0.03952
626.16942	0.04034
624.88365	0.04149
623.59788	0.04301
622.31211	0.04533
621.02634	0.04866
619.74057	0.05259
618.45481	0.05641
617.16904	0.05966
615.88327	0.06228
614.59750	0.06458
613.31173	0.06722
612.02596	0.07093
610.74019	0.07613
609.45442	0.08273
608.16866	0.09023
606.88289	0.09778
605.59712	0.10439
604.31135	0.10946
603.02558	0.11303
601.73981	0.11533
600.45404	0.11628
599.16827	0.11566
597.88250	0.11357
596.59674	0.11050
595.31097	0.10700
594.02520	0.10346
592.73943	0.10021
591.45366	0.09755
590.16789	0.09574
588.88212	0.09493
587.59635	0.09511
586.31059	0.09609
585.02482	0.09761
583.73905	0.09952
582.45328	0.10177
581.16751	0.10437
579.88174	0.10726
578.59597	0.11037
577.31020	0.11363
576.02443	0.11695
574.73867	0.12017
573.45290	0.12316
572.16713	0.12600
570.88136	0.12905
569.59559	0.13269
568.30982	0.13707
567.02405	0.14195
565.73828	0.14689
564.45251	0.15137
563.16675	0.15483
561.88098	0.15678
560.59521	0.15695
559.30944	0.15526
558.02367	0.15174
556.73790	0.14661
555.45213	0.14027
554.16636	0.13326
552.88060	0.12605
551.59483	0.11900
550.30906	0.11237
549.02329	0.10629
547.73752	0.10077
546.45175	0.09575
545.16598	0.09116
543.88021	0.08696
542.59444	0.08319
541.30868	0.07984
540.02291	0.07686
538.73714	0.07415
537.45137	0.07162
536.16560	0.06925
534.87983	0.06708
533.59406	0.06509
532.30829	0.06323
531.02253	0.06142
529.73676	0.05966
528.45099	0.05802
527.16522	0.05653
525.87945	0.05518
524.59368	0.05393
523.30791	0.05273
522.02214	0.05153
520.73637	0.05030
519.45061	0.04908
518.16484	0.04796
516.87907	0.04701
515.59330	0.04618
514.30753	0.04539
513.02176	0.04455
511.73599	0.04368
510.45022	0.04284
509.16446	0.04210
507.87869	0.04144
506.59292	0.04078
505.30715	0.04009
504.02138	0.03940
502.73561	0.03878
501.44984	0.03829
500.16407	0.03789
498.87830	0.03755
497.59254	0.03722
496.30677	0.03688
495.02100	0.03651
493.73523	0.03610
492.44946	0.03567
491.16369	0.03528
489.87792	0.03493
488.59215	0.03463
487.30639	0.03438
486.02062	0.03418
484.73485	0.03404
483.44908	0.03396
482.16331	0.03391
480.87754	0.03390
479.59177	0.03396
478.30600	0.03413
477.02023	0.03439
475.73447	0.03468
474.44870	0.03498
473.16293	0.03522
471.87716	0.03539
470.59139	0.03548
469.30562	0.03549
468.01985	0.03538
466.73408	0.03509
465.44832	0.03464
464.16255	0.03415
462.87678	0.03371
461.59101	0.03333
460.30524	0.03292
459.01947	0.03238
457.73370	0.03176
456.44793	0.03115
455.16216	0.03064
453.87640	0.03019
452.59063	0.02978
451.30486	0.02943
450.01909	0.02920
448.73332	0.02906
447.44755	0.02890
446.16178	0.02865
444.87601	0.02829
443.59025	0.02789
442.30448	0.02755
441.01871	0.02731
439.73294	0.02715
438.44717	0.02707
437.16140	0.02700
435.87563	0.02691
434.58986	0.02678
433.30409	0.02665
432.01833	0.02654
430.73256	0.02643
429.44679	0.02629
428.16102	0.02612
426.87525	0.02594
425.58948	0.02575
424.30371	0.02555
423.01794	0.02531
421.73218	0.02505
420.44641	0.02479
419.16064	0.02456
417.87487	0.02439
416.58910	0.02427
415.30333	0.02418
414.01756	0.02412
412.73179	0.02407
411.44602	0.02402
410.16026	0.02397
408.87449	0.02395
407.58872	0.02400
406.30295	0.02408
405.01718	0.02412
403.73141	0.02409
402.44564	0.02404
401.15987	0.02404
399.87411	0.02409
