3997.45528 0.04425
3996.16951 0.04397
3994.88374 0.04340
3993.59798 0.04218
3992.31221 0.04062
3991.02644 0.03954
3989.74067 0.03965
3988.45490 0.04090
3987.16913 0.04252
3985.88336 0.04356
3984.59759 0.04362
3983.31183 0.04308
3982.02606 0.04260
3980.74029 0.04244
3979.45452 0.04230
3978.16875 0.04191
3976.88298 0.04140
3975.59721 0.04112
3974.31144 0.04106
3973.02567 0.04092
3971.73991 0.04052
3970.45414 0.04006
3969.16837 0.03976
3967.88260 0.03967
3966.59683 0.03976
3965.31106 0.04008
3964.02529 0.04061
3962.73952 0.04109
3961.45376 0.04119
3960.16799 0.04087
3958.88222 0.04048
3957.59645 0.04035
3956.31068 0.04041
3955.02491 0.04040
3953.73914 0.04024
3952.45337 0.04017
3951.16760 0.04035
3949.88184 0.04075
3948.59607 0.04130
3947.31030 0.04202
3946.02453 0.04278
3944.73876 0.04327
3943.45299 0.04335
3942.16722 0.04310
3940.88145 0.04254
3939.59569 0.04170
3938.30992 0.04086
3937.02415 0.04039
3935.73838 0.04022
3934.45261 0.03986
3933.16684 0.03923
3931.88107 0.03886
3930.59530 0.03921
3929.30953 0.03998
3928.02377 0.04050
3926.73800 0.04043
3925.45223 0.04006
3924.16646 0.03985
3922.88069 0.03986
3921.59492 0.03995
3920.30915 0.04021
3919.02338 0.04079
3917.73762 0.04162
3916.45185 0.04234
3915.16608 0.04275
3913.88031 0.04289
3912.59454 0.04297
3911.30877 0.04302
3910.02300 0.04300
3908.73723 0.04296
3907.45146 0.04304
3906.16570 0.04330
3904.87993 0.04366
3903.59416 0.04389
3902.30839 0.04368
3901.02262 0.04298
3899.73685 0.04224
3898.45108 0.04194
3897.16531 0.04214
3895.87955 0.04245
3894.59378 0.04248
3893.30801 0.04214
3892.02224 0.04156
3890.73647 0.04096
3889.45070 0.04029
3888.16493 0.03943
3886.87916 0.03880
3885.59339 0.03896
3884.30763 0.03970
3883.02186 0.04015
3881.73609 0.03994
3880.45032 0.03963
3879.16455 0.03995
3877.87878 0.04096
3876.59301 0.04230
3875.30724 0.04353
3874.02148 0.04420
3872.73571 0.04397
3871.44994 0.04298
3870.16417 0.04206
3868.87840 0.04174
3867.59263 0.04155
3866.30686 0.04093
3865.02109 0.04015
3863.73532 0.03978
3862.44956 0.03988
3861.16379 0.04015
3859.87802 0.04047
3858.59225 0.04086
3857.30648 0.04123
3856.02071 0.04142
3854.73494 0.04158
3853.44917 0.04212
3852.16341 0.04290
3850.87764 0.04322
3849.59187 0.04272
3848.30610 0.04178
3847.02033 0.04088
3845.73456 0.04025
3844.44879 0.03984
3843.16302 0.03969
3841.87725 0.04000
3840.59149 0.04078
3839.30572 0.04166
3838.01995 0.04218
3836.73418 0.04206
3835.44841 0.04129
3834.16264 0.04017
3832.87687 0.03916
3831.59110 0.03862
3830.30534 0.03856
3829.01957 0.03875
3827.73380 0.03899
3826.44803 0.03927
3825.16226 0.03953
3823.87649 0.03938
3822.59072 0.03873
3821.30495 0.03810
3820.01918 0.03800
3818.73342 0.03823
3817.44765 0.03832
3816.16188 0.03837
3814.87611 0.03847
3813.59034 0.03832
3812.30457 0.03792
3811.01880 0.03783
3809.73303 0.03821
3808.44726 0.03866
3807.16150 0.03894
3805.87573 0.03908
3804.58996 0.03884
3803.30419 0.03814
3802.01842 0.03764
3800.73265 0.03797
3799.44688 0.03863
3798.16111 0.03865
3796.87535 0.03798
3795.58958 0.03741
3794.30381 0.03743
3793.01804 0.03790
3791.73227 0.03847
3790.44650 0.03893
3789.16073 0.03925
3787.87496 0.03954
3786.58919 0.03985
3785.30343 0.04003
3784.01766 0.03987
3782.73189 0.03923
3781.44612 0.03823
3780.16035 0.03734
3778.87458 0.03698
3777.58881 0.03709
3776.30304 0.03722
3775.01728 0.03713
3773.73151 0.03699
3772.44574 0.03710
3771.15997 0.03751
3769.87420 0.03799
3768.58843 0.03820
3767.30266 0.03817
3766.01689 0.03847
3764.73112 0.03945
3763.44536 0.04049
3762.15959 0.04042
3760.87382 0.03890
3759.58805 0.03681
3758.30228 0.03548
3757.01651 0.03561
3755.73074 0.03678
3754.44497 0.03788
3753.15921 0.03832
3751.87344 0.03834
3750.58767 0.03843
3749.30190 0.03886
3748.01613 0.03947
3746.73036 0.03964
3745.44459 0.03934
3744.15882 0.03938
3742.87305 0.03980
3741.58729 0.03971
3740.30152 0.03888
3739.01575 0.03794
3737.72998 0.03723
3736.44421 0.03656
3735.15844 0.03571
3733.87267 0.03476
3732.58690 0.03428
3731.30114 0.03473
3730.01537 0.03569
3728.72960 0.03642
3727.44383 0.03688
3726.15806 0.03754
3724.87229 0.03831
3723.58652 0.03854
3722.30075 0.03800
3721.01498 0.03708
3719.72922 0.03624
3718.44345 0.03569
3717.15768 0.03546
3715.87191 0.03548
3714.58614 0.03552
3713.30037 0.03553
3712.01460 0.03571
3710.72883 0.03621
3709.44307 0.03702
3708.15730 0.03804
3706.87153 0.03916
3705.58576 0.03999
3704.29999 0.04014
3703.01422 0.03989
3701.72845 0.03997
3700.44268 0.04060
3699.15691 0.04091
3697.87115 0.04013
3696.58538 0.03852
3695.29961 0.03691
3694.01384 0.03594
3692.72807 0.03564
3691.44230 0.03542
3690.15653 0.03469
3688.87076 0.03374
3687.58500 0.03336
3686.29923 0.03382
3685.01346 0.03474
3683.72769 0.03562
3682.44192 0.03614
3681.15615 0.03636
3679.87038 0.03670
3678.58461 0.03725
3677.29884 0.03753
3676.01308 0.03730
3674.72731 0.03693
3673.44154 0.03670
3672.15577 0.03651
3670.87000 0.03650
3669.58423 0.03673
3668.29846 0.03679
3667.01269 0.03621
3665.72693 0.03517
3664.44116 0.03410
3663.15539 0.03344
3661.86962 0.03353
3660.58385 0.03449
3659.29808 0.03599
3658.01231 0.03749
3656.72654 0.03877
3655.44077 0.03995
3654.15501 0.04086
3652.86924 0.04110
3651.58347 0.04048
3650.29770 0.03927
3649.01193 0.03787
3647.72616 0.03662
3646.44039 0.03571
3645.15462 0.03515
3643.86886 0.03484
3642.58309 0.03468
3641.29732 0.03470
3640.01155 0.03505
3638.72578 0.03588
3637.44001 0.03705
3636.15424 0.03797
3634.86847 0.03815
3633.58270 0.03779
3632.29694 0.03742
3631.01117 0.03731
3629.72540 0.03741
3628.43963 0.03770
3627.15386 0.03794
3625.86809 0.03778
3624.58232 0.03723
3623.29655 0.03666
3622.01079 0.03637
3620.72502 0.03653
3619.43925 0.03726
3618.15348 0.03841
3616.86771 0.03955
3615.58194 0.04024
3614.29617 0.04037
3613.01040 0.04019
3611.72463 0.04003
3610.43887 0.04004
3609.15310 0.04026
3607.86733 0.04070
3606.58156 0.04134
3605.29579 0.04207
3604.01002 0.04259
3602.72425 0.04264
3601.43848 0.04231
3600.15272 0.04210
3598.86695 0.04238
3597.58118 0.04299
3596.29541 0.04344
3595.00964 0.04334
3593.72387 0.04270
3592.43810 0.04204
3591.15233 0.04189
3589.86656 0.04244
3588.58080 0.04345
3587.29503 0.04442
3586.00926 0.04484
3584.72349 0.04447
3583.43772 0.04361
3582.15195 0.04276
3580.86618 0.04229
3579.58041 0.04235
3578.29464 0.04285
3577.00888 0.04350
3575.72311 0.04404
3574.43734 0.04436
3573.15157 0.04445
3571.86580 0.04425
3570.58003 0.04369
3569.29426 0.04294
3568.00849 0.04243
3566.72273 0.04245
3565.43696 0.04282
3564.15119 0.04304
3562.86542 0.04288
3561.57965 0.04252
3560.29388 0.04232
3559.00811 0.04251
3557.72234 0.04311
3556.43657 0.04397
3555.15081 0.04487
3553.86504 0.04551
3552.57927 0.04575
3551.29350 0.04568
3550.00773 0.04556
3548.72196 0.04558
3547.43619 0.04573
3546.15042 0.04594
3544.86466 0.04625
3543.57889 0.04680
3542.29312 0.04753
3541.00735 0.04816
3539.72158 0.04839
3538.43581 0.04819
3537.15004 0.04775
3535.86427 0.04726
3534.57850 0.04678
3533.29274 0.04641
3532.00697 0.04634
3530.72120 0.04676
3529.43543 0.04764
3528.14966 0.04863
3526.86389 0.04936
3525.57812 0.04975
3524.29235 0.04996
3523.00659 0.05017
3521.72082 0.05037
3520.43505 0.05044
3519.14928 0.05038
3517.86351 0.05030
3516.57774 0.05026
3515.29197 0.05025
3514.00620 0.05031
3512.72043 0.05053
3511.43467 0.05092
3510.14890 0.05131
3508.86313 0.05156
3507.57736 0.05166
3506.29159 0.05159
3505.00582 0.05125
3503.72005 0.05061
3502.43428 0.04980
3501.14852 0.04915
3499.86275 0.04898
3498.57698 0.04941
3497.29121 0.05026
3496.00544 0.05109
3494.71967 0.05153
3493.43390 0.05147
3492.14813 0.05111
3490.86236 0.05074
3489.57660 0.05054
3488.29083 0.05057
3487.00506 0.05079
3485.71929 0.05116
3484.43352 0.05156
3483.14775 0.05187
3481.86198 0.05211
3480.57621 0.05240
3479.29045 0.05276
3478.00468 0.05303
3476.71891 0.05308
3475.43314 0.05300
3474.14737 0.05299
3472.86160 0.05314
3471.57583 0.05344
3470.29006 0.05375
3469.00429 0.05389
3467.71853 0.05368
3466.43276 0.05318
3465.14699 0.05269
3463.86122 0.05249
3462.57545 0.05254
3461.28968 0.05256
3460.00391 0.05236
3458.71814 0.05213
3457.43238 0.05232
3456.14661 0.05314
3454.86084 0.05430
3453.57507 0.05519
3452.28930 0.05540
3451.00353 0.05503
3449.71776 0.05453
3448.43199 0.05433
3447.14622 0.05451
3445.86046 0.05483
3444.57469 0.05502
3443.28892 0.05505
3442.00315 0.05508
3440.71738 0.05523
3439.43161 0.05545
3438.14584 0.05562
3436.86007 0.05562
3435.57431 0.05531
3434.28854 0.05465
3433.00277 0.05390
3431.71700 0.05367
3430.43123 0.05444
3429.14546 0.05594
3427.85969 0.05727
3426.57392 0.05767
3425.28815 0.05721
3424.00239 0.05660
3422.71662 0.05640
3421.43085 0.05655
3420.14508 0.05667
3418.85931 0.05662
3417.57354 0.05666
3416.28777 0.05710
3415.00200 0.05791
3413.71624 0.05875
3412.43047 0.05916
3411.14470 0.05895
3409.85893 0.05830
3408.57316 0.05761
3407.28739 0.05721
3406.00162 0.05717
3404.71585 0.05735
3403.43008 0.05754
3402.14432 0.05767
3400.85855 0.05774
3399.57278 0.05744
3398.28701 0.05700
3397.00124 0.05704
3395.71547 0.05739
3394.42970 0.05776
3393.14393 0.05816
3391.85817 0.05880
3390.57240 0.05964
3389.28663 0.06037
3388.00086 0.06063
3386.71509 0.06037
3385.42932 0.05992
3384.14355 0.05970
3382.85778 0.05989
3381.57201 0.06034
3380.28625 0.06072
3379.00048 0.06077
3377.71471 0.06045
3376.42894 0.06000
3375.14317 0.05980
3373.85740 0.06011
3372.57163 0.06086
3371.28586 0.06166
3370.00010 0.06207
3368.71433 0.06190
3367.42856 0.06132
3366.14279 0.06066
3364.85702 0.06020
3363.57125 0.06003
3362.28548 0.06010
3360.99971 0.06032
3359.71394 0.06063
3358.42818 0.06100
3357.14241 0.06134
3355.85664 0.06157
3354.57087 0.06161
3353.28510 0.06150
3351.99933 0.06143
3350.71356 0.06155
3349.42779 0.06179
3348.14202 0.06188
3346.85626 0.06164
3345.57049 0.06128
3344.28472 0.06124
3342.99895 0.06168
3341.71318 0.06221
3340.42741 0.06226
3339.14164 0.06170
3337.85587 0.06097
3336.57011 0.06063
3335.28434 0.06088
3333.99857 0.06157
3332.71280 0.06235
3331.42703 0.06298
3330.14126 0.06331
3328.85549 0.06333
3327.56972 0.06311
3326.28395 0.06282
3324.99819 0.06259
3323.71242 0.06247
3322.42665 0.06246
3321.14088 0.06261
3319.85511 0.06290
3318.56934 0.06318
3317.28357 0.06338
3315.99780 0.06368
3314.71204 0.06437
3313.42627 0.06538
3312.14050 0.06617
3310.85473 0.06639
3309.56896 0.06622
3308.28319 0.06608
3306.99742 0.06609
3305.71165 0.06604
3304.42588 0.06582
3303.14012 0.06561
3301.85435 0.06554
3300.56858 0.06549
3299.28281 0.06527
3297.99704 0.06489
3296.71127 0.06455
3295.42550 0.06448
3294.13973 0.06482
3292.85397 0.06545
3291.56820 0.06612
3290.28243 0.06649
3288.99666 0.06642
3287.71089 0.06604
3286.42512 0.06560
3285.13935 0.06524
3283.85358 0.06500
3282.56781 0.06500
3281.28205 0.06529
3279.99628 0.06569
3278.71051 0.06581
3277.42474 0.06545
3276.13897 0.06485
3274.85320 0.06446
3273.56743 0.06450
3272.28166 0.06481
3270.99590 0.06511
3269.71013 0.06532
3268.42436 0.06560
3267.13859 0.06605
3265.85282 0.06654
3264.56705 0.06674
3263.28128 0.06646
3261.99551 0.06590
3260.70974 0.06545
3259.42398 0.06531
3258.13821 0.06530
3256.85244 0.06516
3255.56667 0.06485
3254.28090 0.06457
3252.99513 0.06449
3251.70936 0.06465
3250.42359 0.06495
3249.13783 0.06525
3247.85206 0.06542
3246.56629 0.06536
3245.28052 0.06510
3243.99475 0.06475
3242.70898 0.06445
3241.42321 0.06433
3240.13744 0.06450
3238.85167 0.06491
3237.56591 0.06532
3236.28014 0.06540
3234.99437 0.06491
3233.70860 0.06390
3232.42283 0.06274
3231.13706 0.06184
3229.85129 0.06145
3228.56552 0.06152
3227.27976 0.06185
3225.99399 0.06222
3224.70822 0.06250
3223.42245 0.06263
3222.13668 0.06269
3220.85091 0.06274
3219.56514 0.06276
3218.27937 0.06268
3216.99360 0.06250
3215.70784 0.06234
3214.42207 0.06230
3213.13630 0.06234
3211.85053 0.06238
3210.56476 0.06235
3209.27899 0.06229
3207.99322 0.06220
3206.70745 0.06204
3205.42169 0.06174
3204.13592 0.06142
3202.85015 0.06132
3201.56438 0.06152
3200.27861 0.06176
3198.99284 0.06166
3197.70707 0.06121
3196.42130 0.06077
3195.13553 0.06060
3193.84977 0.06060
3192.56400 0.06059
3191.27823 0.06058
3189.99246 0.06074
3188.70669 0.06103
3187.42092 0.06124
3186.13515 0.06123
3184.84938 0.06106
3183.56362 0.06097
3182.27785 0.06114
3180.99208 0.06151
3179.70631 0.06175
3178.42054 0.06154
3177.13477 0.06092
3175.84900 0.06020
3174.56323 0.05969
3173.27746 0.05946
3171.99170 0.05938
3170.70593 0.05932
3169.42016 0.05929
3168.13439 0.05939
3166.84862 0.05963
3165.56285 0.05992
3164.27708 0.06018
3162.99131 0.06041
3161.70555 0.06056
3160.41978 0.06047
3159.13401 0.06005
3157.84824 0.05939
3156.56247 0.05872
3155.27670 0.05814
3153.99093 0.05764
3152.70516 0.05724
3151.41939 0.05705
3150.13363 0.05708
3148.84786 0.05723
3147.56209 0.05744
3146.27632 0.05770
3144.99055 0.05803
3143.70478 0.05834
3142.41901 0.05849
3141.13324 0.05839
3139.84748 0.05814
3138.56171 0.05792
3137.27594 0.05790
3135.99017 0.05809
3134.70440 0.05832
3133.41863 0.05838
3132.13286 0.05820
3130.84709 0.05786
3129.56132 0.05751
3128.27556 0.05724
3126.98979 0.05700
3125.70402 0.05669
3124.41825 0.05628
3123.13248 0.05592
3121.84671 0.05575
3120.56094 0.05580
3119.27517 0.05596
3117.98940 0.05606
3116.70364 0.05599
3115.41787 0.05578
3114.13210 0.05559
3112.84633 0.05553
3111.56056 0.05562
3110.27479 0.05574
3108.98902 0.05577
3107.70325 0.05572
3106.41749 0.05558
3105.13172 0.05540
3103.84595 0.05523
3102.56018 0.05526
3101.27441 0.05559
3099.98864 0.05609
3098.70287 0.05644
3097.41710 0.05642
3096.13133 0.05612
3094.84557 0.05586
3093.55980 0.05588
3092.27403 0.05619
3090.98826 0.05652
3089.70249 0.05659
3088.41672 0.05637
3087.13095 0.05602
3085.84518 0.05574
3084.55942 0.05560
3083.27365 0.05553
3081.98788 0.05546
3080.70211 0.05538
3079.41634 0.05534
3078.13057 0.05544
3076.84480 0.05577
3075.55903 0.05628
3074.27326 0.05676
3072.98750 0.05696
3071.70173 0.05677
3070.41596 0.05632
3069.13019 0.05587
3067.84442 0.05556
3066.55865 0.05541
3065.27288 0.05541
3063.98711 0.05553
3062.70135 0.05566
3061.41558 0.05567
3060.12981 0.05556
3058.84404 0.05547
3057.55827 0.05541
3056.27250 0.05527
3054.98673 0.05492
3053.70096 0.05452
3052.41519 0.05428
3051.12943 0.05429
3049.84366 0.05437
3048.55789 0.05437
3047.27212 0.05423
3045.98635 0.05402
3044.70058 0.05379
3043.41481 0.05365
3042.12904 0.05371
3040.84328 0.05395
3039.55751 0.05422
3038.27174 0.05436
3036.98597 0.05438
3035.70020 0.05441
3034.41443 0.05451
3033.12866 0.05460
3031.84289 0.05450
3030.55712 0.05419
3029.27136 0.05376
3027.98559 0.05334
3026.69982 0.05298
3025.41405 0.05265
3024.12828 0.05236
3022.84251 0.05220
3021.55674 0.05226
3020.27097 0.05247
3018.98521 0.05269
3017.69944 0.05276
3016.41367 0.05264
3015.12790 0.05239
3013.84213 0.05213
3012.55636 0.05196
3011.27059 0.05189
3009.98482 0.05185
3008.69905 0.05179
3007.41329 0.05172
3006.12752 0.05169
3004.84175 0.05169
3003.55598 0.05172
3002.27021 0.05184
3000.98444 0.05195
2999.69867 0.05157
2998.41290 0.05150
2997.12714 0.05156
2995.84137 0.05171
2994.55560 0.05181
2993.26983 0.05179
2991.98406 0.05176
2990.69829 0.05180
2989.41252 0.05185
2988.12675 0.05171
2986.84098 0.05142
2985.55522 0.05133
2984.26945 0.05170
2982.98368 0.05235
2981.69791 0.05277
2980.41214 0.05275
2979.12637 0.05257
2977.84060 0.05269
2976.55483 0.05322
2975.26907 0.05392
2973.98330 0.05456
2972.69753 0.05513
2971.41176 0.05574
2970.12599 0.05641
2968.84022 0.05703
2967.55445 0.05754
2966.26868 0.05803
2964.98291 0.05868
2963.69715 0.05950
2962.41138 0.06039
2961.12561 0.06122
2959.83984 0.06198
2958.55407 0.06269
2957.26830 0.06333
2955.98253 0.06390
2954.69676 0.06439
2953.41100 0.06482
2952.12523 0.06520
2950.83946 0.06557
2949.55369 0.06589
2948.26792 0.06603
2946.98215 0.06584
2945.69638 0.06525
2944.41061 0.06447
2943.12484 0.06383
2941.83908 0.06356
2940.55331 0.06369
2939.26754 0.06410
2937.98177 0.06465
2936.69600 0.06520
2935.41023 0.06565
2934.12446 0.06605
2932.83869 0.06652
2931.55293 0.06711
2930.26716 0.06775
2928.98139 0.06838
2927.69562 0.06894
2926.40985 0.06934
2925.12408 0.06947
2923.83831 0.06940
2922.55254 0.06935
2921.26677 0.06950
2919.98101 0.06974
2918.69524 0.06981
2917.40947 0.06948
2916.12370 0.06878
2914.83793 0.06788
2913.55216 0.06703
2912.26639 0.06640
2910.98062 0.06603
2909.69486 0.06580
2908.40909 0.06554
2907.12332 0.06510
2905.83755 0.06452
2904.55178 0.06394
2903.26601 0.06351
2901.98024 0.06322
2900.69447 0.06301
2899.40870 0.06287
2898.12294 0.06273
2896.83717 0.06244
2895.55140 0.06188
2894.26563 0.06111
2892.97986 0.06036
2891.69409 0.05976
2890.40832 0.05933
2889.12255 0.05901
2887.83678 0.05878
2886.55102 0.05863
2885.26525 0.05857
2883.97948 0.05855
2882.69371 0.05855
2881.40794 0.05858
2880.12217 0.05861
2878.83640 0.05855
2877.55063 0.05841
2876.26487 0.05845
2874.97910 0.05886
2873.69333 0.05945
2872.40756 0.05983
2871.12179 0.05982
2869.83602 0.05963
2868.55025 0.05952
2867.26448 0.05954
2865.97871 0.05958
2864.69295 0.05952
2863.40718 0.05934
2862.12141 0.05909
2860.83564 0.05887
2859.54987 0.05869
2858.26410 0.05854
2856.97833 0.05842
2855.69256 0.05837
2854.40680 0.05840
2853.12103 0.05844
2851.83526 0.05838
2850.54949 0.05816
2849.26372 0.05776
2847.97795 0.05726
2846.69218 0.05675
2845.40641 0.05632
2844.12064 0.05600
2842.83488 0.05566
2841.54911 0.05514
2840.26334 0.05433
2838.97757 0.05338
2837.69180 0.05251
2836.40603 0.05185
2835.12026 0.05132
2833.83449 0.05077
2832.54873 0.05020
2831.26296 0.04969
2829.97719 0.04934
2828.69142 0.04915
2827.40565 0.04907
2826.11988 0.04900
2824.83411 0.04885
2823.54834 0.04859
2822.26257 0.04831
2820.97681 0.04814
2819.69104 0.04810
2818.40527 0.04811
2817.11950 0.04810
2815.83373 0.04801
2814.54796 0.04785
2813.26219 0.04765
2811.97642 0.04743
2810.69066 0.04717
2809.40489 0.04684
2808.11912 0.04652
2806.83335 0.04636
2805.54758 0.04637
2804.26181 0.04643
2802.97604 0.04637
2801.69027 0.04620
2800.40450 0.04603
2799.11874 0.04590
2797.83297 0.04578
2796.54720 0.04565
2795.26143 0.04561
2793.97566 0.04570
2792.68989 0.04585
2791.40412 0.04596
2790.11835 0.04599
2788.83259 0.04597
2787.54682 0.04583
2786.26105 0.04555
2784.97528 0.04522
2783.68951 0.04509
2782.40374 0.04527
2781.11797 0.04556
2779.83220 0.04572
2778.54643 0.04567
2777.26067 0.04551
2775.97490 0.04533
2774.68913 0.04513
2773.40336 0.04484
2772.11759 0.04447
2770.83182 0.04415
2769.54605 0.04407
2768.26028 0.04423
2766.97452 0.04444
2765.68875 0.04454
2764.40298 0.04451
2763.11721 0.04448
2761.83144 0.04446
2760.54567 0.04436
2759.25990 0.04417
2757.97413 0.04395
2756.68836 0.04375
2755.40260 0.04364
2754.11683 0.04363
2752.83106 0.04365
2751.54529 0.04360
2750.25952 0.04348
2748.97375 0.04339
2747.68798 0.04336
2746.40221 0.04329
2745.11645 0.04311
2743.83068 0.04290
2742.54491 0.04284
2741.25914 0.04298
2739.97337 0.04318
2738.68760 0.04325
2737.40183 0.04313
2736.11606 0.04288
2734.83029 0.04264
2733.54453 0.04252
2732.25876 0.04256
2730.97299 0.04271
2729.68722 0.04283
2728.40145 0.04283
2727.11568 0.04275
2725.82991 0.04265
2724.54414 0.04249
2723.25838 0.04225
2721.97261 0.04196
2720.68684 0.04169
2719.40107 0.04154
2718.11530 0.04158
2716.82953 0.04183
2715.54376 0.04216
2714.25799 0.04237
2712.97222 0.04234
2711.68646 0.04211
2710.40069 0.04174
2709.11492 0.04136
2707.82915 0.04104
2706.54338 0.04088
2705.25761 0.04087
2703.97184 0.04096
2702.68607 0.04106
2701.40031 0.04109
2700.11454 0.04101
2698.82877 0.04086
2697.54300 0.04070
2696.25723 0.04067
2694.97146 0.04080
2693.68569 0.04096
2692.39992 0.04096
2691.11415 0.04078
2689.82839 0.04063
2688.54262 0.04074
2687.25685 0.04101
2685.97108 0.04109
2684.68531 0.04083
2683.39954 0.04040
2682.11377 0.04010
2680.82800 0.04000
2679.54224 0.04002
2678.25647 0.04004
2676.97070 0.04005
2675.68493 0.04003
2674.39916 0.03994
2673.11339 0.03980
2671.82762 0.03966
2670.54185 0.03960
2669.25608 0.03962
2667.97032 0.03963
2666.68455 0.03952
2665.39878 0.03933
2664.11301 0.03926
2662.82724 0.03943
2661.54147 0.03976
2660.25570 0.03998
2658.96993 0.03993
2657.68417 0.03973
2656.39840 0.03961
2655.11263 0.03970
2653.82686 0.03991
2652.54109 0.04006
2651.25532 0.03996
2649.96955 0.03961
2648.68378 0.03913
2647.39801 0.03866
2646.11225 0.03831
2644.82648 0.03812
2643.54071 0.03809
2642.25494 0.03813
2640.96917 0.03813
2639.68340 0.03802
2638.39763 0.03782
2637.11186 0.03759
2635.82609 0.03737
2634.54033 0.03714
2633.25456 0.03692
2631.96879 0.03676
2630.68302 0.03674
2629.39725 0.03690
2628.11148 0.03711
2626.82571 0.03714
2625.53994 0.03690
2624.25418 0.03653
2622.96841 0.03626
2621.68264 0.03619
2620.39687 0.03625
2619.11110 0.03630
2617.82533 0.03626
2616.53956 0.03612
2615.25379 0.03598
2613.96802 0.03591
2612.68226 0.03586
2611.39649 0.03574
2610.11072 0.03552
2608.82495 0.03525
2607.53918 0.03501
2606.25341 0.03489
2604.96764 0.03491
2603.68187 0.03503
2602.39611 0.03513
2601.11034 0.03509
2599.82457 0.03485
2598.53880 0.03441
2597.25303 0.03385
2595.96726 0.03324
2594.68149 0.03273
2593.39572 0.03248
2592.10995 0.03251
2590.82419 0.03271
2589.53842 0.03292
2588.25265 0.03306
2586.96688 0.03315
2585.68111 0.03322
2584.39534 0.03325
2583.10957 0.03330
2581.82380 0.03336
2580.53804 0.03337
2579.25227 0.03323
2577.96650 0.03300
2576.68073 0.03278
2575.39496 0.03262
2574.10919 0.03249
2572.82342 0.03244
2571.53765 0.03256
2570.25188 0.03283
2568.96612 0.03315
2567.68035 0.03341
2566.39458 0.03354
2565.10881 0.03350
2563.82304 0.03325
2562.53727 0.03289
2561.25150 0.03256
2559.96573 0.03234
2558.67997 0.03209
2557.39420 0.03168
2556.10843 0.03116
2554.82266 0.03083
2553.53689 0.03086
2552.25112 0.03112
2550.96535 0.03129
2549.67958 0.03127
2548.39381 0.03117
2547.10805 0.03113
2545.82228 0.03110
2544.53651 0.03094
2543.25074 0.03067
2541.96497 0.03052
2540.67920 0.03063
2539.39343 0.03086
2538.10766 0.03095
2536.82190 0.03081
2535.53613 0.03060
2534.25036 0.03053
2532.96459 0.03062
2531.67882 0.03069
2530.39305 0.03058
2529.10728 0.03032
2527.82151 0.03014
2526.53574 0.03025
2525.24998 0.03064
2523.96421 0.03108
2522.67844 0.03138
2521.39267 0.03152
2520.10690 0.03160
2518.82113 0.03168
2517.53536 0.03173
2516.24959 0.03163
2514.96383 0.03130
2513.67806 0.03084
2512.39229 0.03047
2511.10652 0.03039
2509.82075 0.03057
2508.53498 0.03079
2507.24921 0.03082
2505.96344 0.03060
2504.67767 0.03018
2503.39191 0.02965
2502.10614 0.02909
2500.82037 0.02868
2499.53460 0.02865
2498.24883 0.02907
2496.96306 0.02976
2495.67729 0.03046
2494.39152 0.03102
2493.10576 0.03137
2491.81999 0.03143
2490.53422 0.03118
2489.24845 0.03075
2487.96268 0.03040
2486.67691 0.03038
2485.39114 0.03069
2484.10537 0.03106
2482.81960 0.03123
2481.53384 0.03111
2480.24807 0.03074
2478.96230 0.03017
2477.67653 0.02953
2476.39076 0.02911
2475.10499 0.02909
2473.81922 0.02935
2472.53345 0.02956
2471.24769 0.02952
2469.96192 0.02928
2468.67615 0.02902
2467.39038 0.02889
2466.10461 0.02896
2464.81884 0.02915
2463.53307 0.02930
2462.24730 0.02927
2460.96153 0.02909
2459.67577 0.02890
2458.39000 0.02881
2457.10423 0.02883
2455.81846 0.02885
2454.53269 0.02887
2453.24692 0.02904
2451.96115 0.02953
2450.67538 0.03032
2449.38962 0.03111
2448.10385 0.03153
2446.81808 0.03142
2445.53231 0.03091
2444.24654 0.03025
2442.96077 0.02966
2441.67500 0.02921
2440.38923 0.02898
2439.10346 0.02900
2437.81770 0.02920
2436.53193 0.02933
2435.24616 0.02924
2433.96039 0.02909
2432.67462 0.02920
2431.38885 0.02964
2430.10308 0.03012
2428.81731 0.03025
2427.53155 0.02987
2426.24578 0.02917
2424.96001 0.02844
2423.67424 0.02793
2422.38847 0.02775
2421.10270 0.02781
2419.81693 0.02789
2418.53116 0.02787
2417.24539 0.02781
2415.95963 0.02788
2414.67386 0.02813
2413.38809 0.02844
2412.10232 0.02861
2410.81655 0.02858
2409.53078 0.02846
2408.24501 0.02833
2406.95924 0.02817
2405.67347 0.02793
2404.38771 0.02776
2403.10194 0.02783
2401.81617 0.02809
2400.53040 0.02836
2399.24463 0.02923
2397.95886 0.02873
2396.67309 0.02835
2395.38732 0.02841
2394.10156 0.02858
2392.81579 0.02866
2391.53002 0.02858
2390.24425 0.02834
2388.95848 0.02804
2387.67271 0.02785
2386.38694 0.02780
2385.10117 0.02780
2383.81540 0.02775
2382.52964 0.02768
2381.24387 0.02766
2379.95810 0.02767
2378.67233 0.02774
2377.38656 0.02773
2376.10079 0.02755
2374.81502 0.02744
2373.52925 0.02792
2372.24349 0.02890
2370.95772 0.02970
2369.67195 0.02993
2368.38618 0.02979
2367.10041 0.02973
2365.81464 0.02968
2364.52887 0.02970
2363.24310 0.02980
2361.95733 0.03010
2360.67157 0.03077
2359.38580 0.03130
2358.10003 0.03119
2356.81426 0.03049
2355.52849 0.02956
2354.24272 0.02869
2352.95695 0.02822
2351.67118 0.02849
2350.38542 0.02897
2349.09965 0.02908
2347.81388 0.02919
2346.52811 0.02996
2345.24234 0.03068
2343.95657 0.03018
2342.67080 0.02888
2341.38503 0.02923
2340.09926 0.03097
2338.81350 0.03100
2337.52773 0.02941
2336.24196 0.02965
2334.95619 0.03100
2333.67042 0.03035
2332.38465 0.02857
2331.09888 0.02916
2329.81311 0.02961
2328.52735 0.02856
2327.24158 0.02906
2325.95581 0.03034
2324.67004 0.03032
2323.38427 0.03002
2322.09850 0.03047
2320.81273 0.03024
2319.52696 0.03019
2318.24119 0.03020
2316.95543 0.02946
2315.66966 0.02875
2314.38389 0.02816
2313.09812 0.02763
2311.81235 0.02759
2310.52658 0.02742
2309.24081 0.02704
2307.95504 0.02686
2306.66928 0.02675
2305.38351 0.02681
2304.09774 0.02684
2302.81197 0.02675
2301.52620 0.02670
2300.24043 0.02663
2298.95466 0.02659
2297.66889 0.02657
2296.38312 0.02661
2295.09736 0.02669
2293.81159 0.02666
2292.52582 0.02640
2291.24005 0.02593
2289.95428 0.02552
2288.66851 0.02544
2287.38274 0.02564
2286.09697 0.02579
2284.81121 0.02558
2283.52544 0.02509
2282.23967 0.02465
2280.95390 0.02443
2279.66813 0.02431
2278.38236 0.02411
2277.09659 0.02385
2275.81082 0.02375
2274.52505 0.02399
2273.23929 0.02447
2271.95352 0.02480
2270.66775 0.02453
2269.38198 0.02360
2268.09621 0.02246
2266.81044 0.02178
2265.52467 0.02189
2264.23890 0.02244
2262.95314 0.02284
2261.66737 0.02267
2260.38160 0.02190
2259.09583 0.02094
2257.81006 0.02032
2256.52429 0.02026
2255.23852 0.02063
2253.95275 0.02122
2252.66698 0.02183
2251.38122 0.02211
2250.09545 0.02218
2248.80968 0.02304
2247.52391 0.02269
2246.23814 0.02220
2244.95237 0.02186
2243.66660 0.02163
2242.38083 0.02129
2241.09507 0.02075
2239.80930 0.02016
2238.52353 0.01975
2237.23776 0.01969
2235.95199 0.02006
2234.66622 0.02066
2233.38045 0.02111
2232.09468 0.02113
2230.80891 0.02081
2229.52315 0.02044
2228.23738 0.02013
2226.95161 0.01981
2225.66584 0.01941
2224.38007 0.01889
2223.09430 0.01834
2221.80853 0.01790
2220.52276 0.01778
2219.23700 0.01814
2217.95123 0.01883
2216.66546 0.01943
2215.37969 0.01961
2214.09392 0.01943
2212.80815 0.01911
2211.52238 0.01866
2210.23661 0.01791
2208.95084 0.01697
2207.66508 0.01623
2206.37931 0.01592
2205.09354 0.01592
2203.80777 0.01609
2202.52200 0.01635
2201.23623 0.01655
2199.95046 0.01657
2198.66469 0.01657
2197.37893 0.01678
2196.09316 0.01699
2194.80739 0.01680
2193.52162 0.01630
2192.23585 0.01617
2190.95008 0.01680
2189.66431 0.01774
2188.37854 0.01805
2187.09277 0.01711
2185.80701 0.01503
2184.52124 0.01261
2183.23547 0.01101
2181.94970 0.01101
2180.66393 0.01237
2179.37816 0.01399
2178.09239 0.01475
2176.80662 0.01437
2175.52085 0.01341
2174.23509 0.01263
2172.94932 0.01240
2171.66355 0.01266
2170.37778 0.01322
2169.09201 0.01395
2167.80624 0.01467
2166.52047 0.01507
2165.23470 0.01467
2163.94894 0.01306
2162.66317 0.01023
2161.37740 0.00696
2160.09163 0.00471
2158.80586 0.00465
2157.52009 0.00659
2156.23432 0.00896
2154.94855 0.01015
2153.66278 0.00958
2152.37702 0.00799
2151.09125 0.00685
2149.80548 0.00713
2148.51971 0.00871
2147.23394 0.01075
2145.94817 0.01251
2144.66240 0.01373
2143.37663 0.01439
2142.09087 0.01468
2140.80510 0.01494
2139.51933 0.01530
2138.23356 0.01543
2136.94779 0.01493
2135.66202 0.01401
2134.37625 0.01336
2133.09048 0.01338
2131.80471 0.01372
2130.51895 0.01392
2129.23318 0.01393
2127.94741 0.01410
2126.66164 0.01468
2125.37587 0.01552
2124.09010 0.01622
2122.80433 0.01649
2121.51856 0.01636
2120.23280 0.01613
2118.94703 0.01612
2117.66126 0.01637
2116.37549 0.01662
2115.08972 0.01658
2113.80395 0.01629
2112.51818 0.01608
2111.23241 0.01623
2109.94664 0.01667
2108.66088 0.01709
2107.37511 0.01722
2106.08934 0.01701
2104.80357 0.01661
2103.51780 0.01627
2102.23203 0.01621
2100.94626 0.01653
2099.66049 0.01821
2098.37473 0.01918
2097.08896 0.01876
2095.80319 0.01761
2094.51742 0.01633
2093.23165 0.01535
2091.94588 0.01486
2090.66011 0.01476
2089.37434 0.01482
2088.08857 0.01485
2086.80281 0.01484
2085.51704 0.01483
2084.23127 0.01479
2082.94550 0.01468
2081.65973 0.01464
2080.37396 0.01485
2079.08819 0.01528
2077.80242 0.01562
2076.51666 0.01566
2075.23089 0.01551
2073.94512 0.01551
2072.65935 0.01577
2071.37358 0.01608
2070.08781 0.01613
2068.80204 0.01587
2067.51627 0.01546
2066.23050 0.01497
2064.94474 0.01432
2063.65897 0.01340
2062.37320 0.01229
2061.08743 0.01122
2059.80166 0.01047
2058.51589 0.01021
2057.23012 0.01034
2055.94435 0.01057
2054.65859 0.01072
2053.37282 0.01083
2052.08705 0.01099
2050.80128 0.01122
2049.51551 0.01147
2048.22974 0.01173
2046.94397 0.01191
2045.65820 0.01183
2044.37243 0.01147
2043.08667 0.01110
2041.80090 0.01115
2040.51513 0.01179
2039.22936 0.01280
2037.94359 0.01365
2036.65782 0.01391
2035.37205 0.01356
2034.08628 0.01291
2032.80052 0.01204
2031.51475 0.01071
2030.22898 0.00875
2028.94321 0.00659
2027.65744 0.00506
2026.37167 0.00463
2025.08590 0.00509
2023.80013 0.00601
2022.51436 0.00711
2021.22860 0.00817
2019.94283 0.00887
2018.65706 0.00898
2017.37129 0.00875
2016.08552 0.00870
2014.79975 0.00910
2013.51398 0.00983
2012.22821 0.01061
2010.94245 0.01125
2009.65668 0.01160
2008.37091 0.01165
2007.08514 0.01148
2005.79937 0.01115
2004.51360 0.01055
2003.22783 0.00971
2001.94206 0.00898
2000.65629 0.00885
1999.37053 0.00936
1998.08476 0.01002
1996.79899 0.01034
1995.51322 0.01029
1994.22745 0.01021
1992.94168 0.01032
1991.65591 0.01049
1990.37014 0.01047
1989.08438 0.01028
1987.79861 0.01022
1986.51284 0.01055
1985.22707 0.01125
1983.94130 0.01218
1982.65553 0.01318
1981.36976 0.01415
1980.08399 0.01492
1978.79822 0.01535
1977.51246 0.01546
1976.22669 0.01540
1974.94092 0.01528
1973.65515 0.01507
1972.36938 0.01485
1971.08361 0.01485
1969.79784 0.01526
1968.51207 0.01587
1967.22631 0.01620
1965.94054 0.01600
1964.65477 0.01554
1963.36900 0.01520
1962.08323 0.01504
1960.79746 0.01482
1959.51169 0.01445
1958.22592 0.01404
1956.94015 0.01367
1955.65439 0.01332
1954.36862 0.01298
1953.08285 0.01290
1951.79708 0.01335
1950.51131 0.01429
1949.22554 0.01531
1947.93977 0.01597
1946.65400 0.01620
1945.36823 0.01623
1944.08247 0.01635
1942.79670 0.01661
1941.51093 0.01691
1940.22516 0.01708
1938.93939 0.01711
1937.65362 0.01704
1936.36785 0.01688
1935.08208 0.01654
1933.79632 0.01607
1932.51055 0.01567
1931.22478 0.01551
1929.93901 0.01558
1928.65324 0.01576
1927.36747 0.01599
1926.08170 0.01623
1924.79593 0.01643
1923.51016 0.01663
1922.22440 0.01695
1920.93863 0.01743
1919.65286 0.01789
1918.36709 0.01816
1917.08132 0.01814
1915.79555 0.01787
1914.50978 0.01751
1913.22401 0.01733
1911.93825 0.01746
1910.65248 0.01771
1909.36671 0.01779
1908.08094 0.01758
1906.79517 0.01716
1905.50940 0.01673
1904.22363 0.01644
1902.93786 0.01636
1901.65209 0.01643
1900.36633 0.01658
1899.08056 0.01673
1897.79479 0.01682
1896.50902 0.01686
1895.22325 0.01695
1893.93748 0.01720
1892.65171 0.01755
1891.36594 0.01781
1890.08018 0.01786
1888.79441 0.01772
1887.50864 0.01751
1886.22287 0.01725
1884.93710 0.01695
1883.65133 0.01670
1882.36556 0.01662
1881.07979 0.01678
1879.79402 0.01716
1878.50826 0.01761
1877.22249 0.01797
1875.93672 0.01809
1874.65095 0.01799
1873.36518 0.01777
1872.07941 0.01757
1870.79364 0.01741
1869.50787 0.01727
1868.22211 0.01711
1866.93634 0.01690
1865.65057 0.01664
1864.36480 0.01641
1863.07903 0.01628
1861.79326 0.01625
1860.50749 0.01627
1859.22172 0.01628
1857.93595 0.01626
1856.65019 0.01623
1855.36442 0.01624
1854.07865 0.01633
1852.79288 0.01651
1851.50711 0.01672
1850.22134 0.01690
1848.93557 0.01701
1847.64980 0.01706
1846.36404 0.01703
1845.07827 0.01697
1843.79250 0.01694
1842.50673 0.01698
1841.22096 0.01701
1839.93519 0.01701
1838.64942 0.01702
1837.36365 0.01706
1836.07788 0.01713
1834.79212 0.01727
1833.50635 0.01746
1832.22058 0.01760
1830.93481 0.01758
1829.64904 0.01747
1828.36327 0.01744
1827.07750 0.01755
1825.79173 0.01782
1824.50597 0.01819
1823.22020 0.01852
1821.93443 0.01867
1820.64866 0.01861
1819.36289 0.01836
1818.07712 0.01798
1816.79135 0.01752
1815.50558 0.01708
1814.21981 0.01674
1812.93405 0.01650
1811.64828 0.01639
1810.36251 0.01639
1809.07674 0.01644
1807.79097 0.01648
1806.50520 0.01656
1805.21943 0.01673
1803.93366 0.01698
1802.64790 0.01715
1801.36213 0.01717
1800.07636 0.01711
1798.79059 0.01711
1797.50482 0.01724
1796.21905 0.01744
1794.93328 0.01758
1793.64751 0.01754
1792.36174 0.01742
1791.07598 0.01738
1789.79021 0.01745
1788.50444 0.01754
1787.21867 0.01754
1785.93290 0.01747
1784.64713 0.01746
1783.36136 0.01759
1782.07559 0.01779
1780.78983 0.01794
1779.50406 0.01799
1778.21829 0.01797
1776.93252 0.01794
1775.64675 0.01788
1774.36098 0.01771
1773.07521 0.01748
1771.78944 0.01736
1770.50367 0.01737
1769.21791 0.01741
1767.93214 0.01743
1766.64637 0.01748
1765.36060 0.01755
1764.07483 0.01757
1762.78906 0.01756
1761.50329 0.01761
1760.21752 0.01769
1758.93176 0.01772
1757.64599 0.01767
1756.36022 0.01767
1755.07445 0.01774
1753.78868 0.01774
1752.50291 0.01764
1751.21714 0.01754
1749.93137 0.01750
1748.64560 0.01745
1747.35984 0.01733
1746.07407 0.01720
1744.78830 0.01717
1743.50253 0.01724
1742.21676 0.01736
1740.93099 0.01745
1739.64522 0.01755
1738.35945 0.01774
1737.07369 0.01789
1735.78792 0.01787
1734.50215 0.01783
1733.21638 0.01792
1731.93061 0.01803
1730.64484 0.01793
1729.35907 0.01773
1728.07330 0.01767
1726.78753 0.01775
1725.50177 0.01784
1724.21600 0.01794
1722.93023 0.01813
1721.64446 0.01846
1720.35869 0.01880
1719.07292 0.01904
1717.78715 0.01930
1716.50138 0.01966
1715.21561 0.02006
1713.92985 0.02038
1712.64408 0.02070
1711.35831 0.02113
1710.07254 0.02169
1708.78677 0.02237
1707.50100 0.02309
1706.21523 0.02383
1704.92946 0.02470
1703.64370 0.02566
1702.35793 0.02651
1701.07216 0.02735
1699.78639 0.02847
1698.50062 0.02970
1697.21485 0.03066
1695.92908 0.03140
1694.64331 0.03230
1693.35754 0.03331
1692.07178 0.03417
1690.78601 0.03497
1689.50024 0.03597
1688.21447 0.03713
1686.92870 0.03821
1685.64293 0.03913
1684.35716 0.04013
1683.07139 0.04131
1681.78563 0.04243
1680.49986 0.04337
1679.21409 0.04432
1677.92832 0.04538
1676.64255 0.04643
1675.35678 0.04748
1674.07101 0.04862
1672.78524 0.04979
1671.49947 0.05085
1670.21371 0.05185
1668.92794 0.05290
1667.64217 0.05401
1666.35640 0.05507
1665.07063 0.05604
1663.78486 0.05700
1662.49909 0.05803
1661.21332 0.05905
1659.92756 0.05995
1658.64179 0.06081
1657.35602 0.06181
1656.07025 0.06287
1654.78448 0.06373
1653.49871 0.06448
1652.21294 0.06532
1650.92717 0.06611
1649.64140 0.06646
1648.35564 0.06637
1647.06987 0.06626
1645.78410 0.06637
1644.49833 0.06658
1643.21256 0.06665
1641.92679 0.06653
1640.64102 0.06635
1639.35525 0.06622
1638.06949 0.06605
1636.78372 0.06572
1635.49795 0.06529
1634.21218 0.06479
1632.92641 0.06413
1631.64064 0.06327
1630.35487 0.06235
1629.06910 0.06154
1627.78333 0.06084
1626.49757 0.06015
1625.21180 0.05933
1623.92603 0.05840
1622.64026 0.05752
1621.35449 0.05680
1620.06872 0.05613
1618.78295 0.05535
1617.49718 0.05453
1616.21142 0.05388
1614.92565 0.05338
1613.63988 0.05283
1612.35411 0.05216
1611.06834 0.05153
1609.78257 0.05104
1608.49680 0.05068
1607.21103 0.05038
1605.92526 0.05013
1604.63950 0.04992
1603.35373 0.04976
1602.06796 0.04967
1600.78219 0.04967
1599.49642 0.04973
1598.21065 0.04986
1596.92488 0.05002
1595.63911 0.05021
1594.35335 0.05043
1593.06758 0.05067
1591.78181 0.05091
1590.49604 0.05116
1589.21027 0.05144
1587.92450 0.05174
1586.63873 0.05205
1585.35296 0.05238
1584.06719 0.05275
1582.78143 0.05322
1581.49566 0.05385
1580.20989 0.05462
1578.92412 0.05539
1577.63835 0.05601
1576.35258 0.05658
1575.06681 0.05730
1573.78104 0.05808
1572.49528 0.05870
1571.20951 0.05919
1569.92374 0.05970
1568.63797 0.06032
1567.35220 0.06094
1566.06643 0.06149
1564.78066 0.06210
1563.49489 0.06284
1562.20912 0.06352
1560.92336 0.06395
1559.63759 0.06427
1558.35182 0.06476
1557.06605 0.06533
1555.78028 0.06567
1554.49451 0.06574
1553.20874 0.06576
1551.92297 0.06579
1550.63721 0.06576
1549.35144 0.06573
1548.06567 0.06575
1546.77990 0.06579
1545.49413 0.06580
1544.20836 0.06580
1542.92259 0.06569
1541.63682 0.06538
1540.35105 0.06489
1539.06529 0.06445
1537.77952 0.06411
1536.49375 0.06366
1535.20798 0.06304
1533.92221 0.06245
1532.63644 0.06212
1531.35067 0.06195
1530.06490 0.06179
1528.77914 0.06162
1527.49337 0.06154
1526.20760 0.06159
1524.92183 0.06176
1523.63606 0.06189
1522.35029 0.06194
1521.06452 0.06206
1519.77875 0.06229
1518.49298 0.06250
1517.20722 0.06262
1515.92145 0.06281
1514.63568 0.06317
1513.34991 0.06365
1512.06414 0.06427
1510.77837 0.06503
1509.49260 0.06578
1508.20683 0.06634
1506.92107 0.06677
1505.63530 0.06728
1504.34953 0.06784
1503.06376 0.06826
1501.77799 0.06852
1500.49222 0.06879
1499.20645 0.06910
1497.92068 0.06937
1496.63491 0.06959
1495.34915 0.06983
1494.06338 0.07006
1492.77761 0.07022
1491.49184 0.07036
1490.20607 0.07065
1488.92030 0.07114
1487.63453 0.07174
1486.34876 0.07238
1485.06299 0.07300
1483.77723 0.07361
1482.49146 0.07426
1481.20569 0.07502
1479.91992 0.07593
1478.63415 0.07694
1477.34838 0.07797
1476.06261 0.07898
1474.77684 0.07990
1473.49108 0.08070
1472.20531 0.08149
1470.91954 0.08231
1469.63377 0.08308
1468.34800 0.08372
1467.06223 0.08429
1465.77646 0.08488
1464.49069 0.08559
1463.20492 0.08644
1461.91916 0.08737
1460.63339 0.08832
1459.34762 0.08920
1458.06185 0.09002
1456.77608 0.09095
1455.49031 0.09198
1454.20454 0.09288
1452.91877 0.09353
1451.63301 0.09399
1450.34724 0.09438
1449.06147 0.09466
1447.77570 0.09485
1446.48993 0.09497
1445.20416 0.09502
1443.91839 0.09499
1442.63262 0.09486
1441.34685 0.09469
1440.06109 0.09446
1438.77532 0.09413
1437.48955 0.09379
1436.20378 0.09359
1434.91801 0.09360
1433.63224 0.09373
1432.34647 0.09397
1431.06070 0.09443
1429.77494 0.09513
1428.48917 0.09599
1427.20340 0.09693
1425.91763 0.09791
1424.63186 0.09898
1423.34609 0.10016
1422.06032 0.10135
1420.77455 0.10241
1419.48878 0.10336
1418.20302 0.10428
1416.91725 0.10512
1415.63148 0.10580
1414.34571 0.10633
1413.05994 0.10674
1411.77417 0.10704
1410.48840 0.10718
1409.20263 0.10714
1407.91687 0.10689
1406.63110 0.10641
1405.34533 0.10573
1404.05956 0.10489
1402.77379 0.10393
1401.48802 0.10281
1400.20225 0.10155
1398.91648 0.10020
1397.63071 0.09875
1396.34495 0.09717
1395.05918 0.09551
1393.77341 0.09385
1392.48764 0.09219
1391.20187 0.09048
1389.91610 0.08872
1388.63033 0.08695
1387.34456 0.08527
1386.05880 0.08368
1384.77303 0.08212
1383.48726 0.08052
1382.20149 0.07892
1380.91572 0.07737
1379.62995 0.07586
1378.34418 0.07434
1377.05841 0.07271
1375.77264 0.07096
1374.48688 0.06910
1373.20111 0.06722
1371.91534 0.06537
1370.62957 0.06356
1369.34380 0.06184
1368.05803 0.06025
1366.77226 0.05878
1365.48649 0.05737
1364.20073 0.05599
1362.91496 0.05463
1361.62919 0.05332
1360.34342 0.05212
1359.05765 0.05107
1357.77188 0.05020
1356.48611 0.04945
1355.20034 0.04877
1353.91457 0.04811
1352.62881 0.04750
1351.34304 0.04697
1350.05727 0.04651
1348.77150 0.04610
1347.48573 0.04567
1346.19996 0.04521
1344.91419 0.04476
1343.62842 0.04437
1342.34266 0.04404
1341.05689 0.04371
1339.77112 0.04335
1338.48535 0.04296
1337.19958 0.04256
1335.91381 0.04217
1334.62804 0.04176
1333.34227 0.04132
1332.05650 0.04090
1330.77074 0.04053
1329.48497 0.04021
1328.19920 0.03990
1326.91343 0.03954
1325.62766 0.03913
1324.34189 0.03868
1323.05612 0.03824
1321.77035 0.03785
1320.48459 0.03751
1319.19882 0.03722
1317.91305 0.03695
1316.62728 0.03668
1315.34151 0.03640
1314.05574 0.03612
1312.76997 0.03586
1311.48420 0.03561
1310.19843 0.03537
1308.91267 0.03511
1307.62690 0.03484
1306.34113 0.03458
1305.05536 0.03432
1303.76959 0.03406
1302.48382 0.03378
1301.19805 0.03349
1299.91228 0.03317
1298.62652 0.03285
1297.34075 0.03253
1296.05498 0.03223
1294.76921 0.03197
1293.48344 0.03177
1292.19767 0.03164
1290.91190 0.03156
1289.62613 0.03153
1288.34036 0.03150
1287.05460 0.03140
1285.76883 0.03123
1284.48306 0.03103
1283.19729 0.03087
1281.91152 0.03078
1280.62575 0.03074
1279.33998 0.03069
1278.05421 0.03060
1276.76845 0.03046
1275.48268 0.03032
1274.19691 0.03018
1272.91114 0.03007
1271.62537 0.02995
1270.33960 0.02984
1269.05383 0.02974
1267.76806 0.02969
1266.48229 0.02967
1265.19653 0.02964
1263.91076 0.02958
1262.62499 0.02949
1261.33922 0.02941
1260.05345 0.02936
1258.76768 0.02936
1257.48191 0.02940
1256.19614 0.02946
1254.91037 0.02949
1253.62461 0.02947
1252.33884 0.02940
1251.05307 0.02932
1249.76730 0.02928
1248.48153 0.02928
1247.19576 0.02930
1245.90999 0.02932
1244.62422 0.02935
1243.33846 0.02938
1242.05269 0.02939
1240.76692 0.02934
1239.48115 0.02926
1238.19538 0.02917
1236.90961 0.02908
1235.62384 0.02897
1234.33807 0.02882
1233.05230 0.02864
1231.76654 0.02844
1230.48077 0.02824
1229.19500 0.02801
1227.90923 0.02774
1226.62346 0.02746
1225.33769 0.02721
1224.05192 0.02697
1222.76615 0.02670
1221.48039 0.02637
1220.19462 0.02600
1218.90885 0.02563
1217.62308 0.02530
1216.33731 0.02501
1215.05154 0.02475
1213.76577 0.02453
1212.48000 0.02437
1211.19423 0.02427
1209.90847 0.02422
1208.62270 0.02421
1207.33693 0.02420
1206.05116 0.02419
1204.76539 0.02417
1203.47962 0.02414
1202.19385 0.02402
1200.90808 0.02375
1199.62232 0.02354
1198.33655 0.02338
1197.05078 0.02320
1195.76501 0.02302
1194.47924 0.02284
1193.19347 0.02266
1191.90770 0.02246
1190.62193 0.02224
1189.33616 0.02202
1188.05040 0.02180
1186.76463 0.02161
1185.47886 0.02144
1184.19309 0.02129
1182.90732 0.02115
1181.62155 0.02099
1180.33578 0.02080
1179.05001 0.02062
1177.76425 0.02048
1176.47848 0.02042
1175.19271 0.02044
1173.90694 0.02048
1172.62117 0.02054
1171.33540 0.02061
1170.04963 0.02070
1168.76386 0.02078
1167.47809 0.02086
1166.19233 0.02091
1164.90656 0.02094
1163.62079 0.02095
1162.33502 0.02093
1161.04925 0.02088
1159.76348 0.02079
1158.47771 0.02073
1157.19194 0.02078
1155.90618 0.02096
1154.62041 0.02121
1153.33464 0.02139
1152.04887 0.02143
1150.76310 0.02134
1149.47733 0.02124
1148.19156 0.02123
1146.90579 0.02138
1145.62002 0.02166
1144.33426 0.02203
1143.04849 0.02247
1141.76272 0.02301
1140.47695 0.02370
1139.19118 0.02452
1137.90541 0.02545
1136.61964 0.02650
1135.33387 0.02766
1134.04811 0.02890
1132.76234 0.03021
1131.47657 0.03162
1130.19080 0.03324
1128.90503 0.03513
1127.61926 0.03732
1126.33349 0.03973
1125.04772 0.04233
1123.76195 0.04512
1122.47619 0.04811
1121.19042 0.05121
1119.90465 0.05434
1118.61888 0.05742
1117.33311 0.06048
1116.04734 0.06354
1114.76157 0.06659
1113.47580 0.06957
1112.19004 0.07244
1110.90427 0.07520
1109.61850 0.07782
1108.33273 0.08034
1107.04696 0.08279
1105.76119 0.08521
1104.47542 0.08761
1103.18965 0.08991
1101.90388 0.09205
1100.61812 0.09402
1099.33235 0.09588
1098.04658 0.09772
1096.76081 0.09954
1095.47504 0.10131
1094.18927 0.10294
1092.90350 0.10440
1091.61773 0.10575
1090.33197 0.10704
1089.04620 0.10832
1087.76043 0.10957
1086.47466 0.11081
1085.18889 0.11207
1083.90312 0.11339
1082.61735 0.11475
1081.33158 0.11617
1080.04581 0.11768
1078.76005 0.11935
1077.47428 0.12118
1076.18851 0.12316
1074.90274 0.12526
1073.61697 0.12746
1072.33120 0.12974
1071.04543 0.13213
1069.75966 0.13460
1068.47390 0.13714
1067.18813 0.13973
1065.90236 0.14238
1064.61659 0.14507
1063.33082 0.14779
1062.04505 0.15054
1060.75928 0.15333
1059.47351 0.15614
1058.18774 0.15890
1056.90198 0.16154
1055.61621 0.16406
1054.33044 0.16654
1053.04467 0.16906
1051.75890 0.17167
1050.47313 0.17437
1049.18736 0.17712
1047.90159 0.17993
1046.61583 0.18281
1045.33006 0.18580
1044.04429 0.18887
1042.75852 0.19195
1041.47275 0.19499
1040.18698 0.19802
1038.90121 0.20112
1037.61544 0.20431
1036.32967 0.20753
1035.04391 0.21070
1033.75814 0.21377
1032.47237 0.21668
1031.18660 0.21939
1029.90083 0.22186
1028.61506 0.22410
1027.32929 0.22613
1026.04352 0.22798
1024.75775 0.22962
1023.47199 0.23094
1022.18622 0.23187
1020.90045 0.23240
1019.61468 0.23262
1018.32891 0.23255
1017.04314 0.23215
1015.75737 0.23136
1014.47160 0.23014
1013.18584 0.22854
1011.90007 0.22660
1010.61430 0.22433
1009.32853 0.22172
1008.04276 0.21877
1006.75699 0.21550
1005.47122 0.21193
1004.18545 0.20805
1002.89968 0.20389
1001.61392 0.19945
1000.32815 0.19472
999.04238 0.18976
997.75661 0.18461
996.47084 0.17935
995.18507 0.17401
993.89930 0.16862
992.61353 0.16321
991.32777 0.15781
990.04200 0.15245
988.75623 0.14720
987.47046 0.14218
986.18469 0.13740
984.89892 0.13279
983.61315 0.12827
982.32738 0.12383
981.04161 0.11960
979.75585 0.11566
978.47008 0.11205
977.18431 0.10874
975.89854 0.10572
974.61277 0.10302
973.32700 0.10073
972.04123 0.09894
970.75546 0.09769
969.46970 0.09699
968.18393 0.09682
966.89816 0.09714
965.61239 0.09781
964.32662 0.09862
963.04085 0.09931
961.75508 0.09970
960.46931 0.09972
959.18354 0.09928
957.89778 0.09826
956.61201 0.09667
955.32624 0.09468
954.04047 0.09253
952.75470 0.09038
951.46893 0.08822
950.18316 0.08605
948.89739 0.08385
947.61163 0.08168
946.32586 0.07956
945.04009 0.07754
943.75432 0.07565
942.46855 0.07383
941.18278 0.07206
939.89701 0.07035
938.61124 0.06875
937.32547 0.06729
936.03971 0.06593
934.75394 0.06465
933.46817 0.06344
932.18240 0.06228
930.89663 0.06117
929.61086 0.06012
928.32509 0.05915
927.03932 0.05828
925.75356 0.05747
924.46779 0.05667
923.18202 0.05588
921.89625 0.05511
920.61048 0.05438
919.32471 0.05363
918.03894 0.05285
916.75317 0.05206
915.46740 0.05136
914.18164 0.05080
912.89587 0.05036
911.61010 0.04994
910.32433 0.04946
909.03856 0.04890
907.75279 0.04838
906.46702 0.04799
905.18125 0.04774
903.89549 0.04751
902.60972 0.04719
901.32395 0.04672
900.03818 0.04614
898.75241 0.04553
897.46664 0.04497
896.18087 0.04452
894.89510 0.04416
893.60933 0.04387
892.32357 0.04366
891.03780 0.04358
889.75203 0.04370
888.46626 0.04402
887.18049 0.04453
885.89472 0.04529
884.60895 0.04645
883.32318 0.04818
882.03742 0.05045
880.75165 0.05294
879.46588 0.05518
878.18011 0.05694
876.89434 0.05833
875.60857 0.05966
874.32280 0.06108
873.03703 0.06242
871.75126 0.06335
870.46550 0.06361
869.17973 0.06312
867.89396 0.06194
866.60819 0.06021
865.32242 0.05811
864.03665 0.05584
862.75088 0.05360
861.46511 0.05155
860.17935 0.04976
858.89358 0.04822
857.60781 0.04693
856.32204 0.04587
855.03627 0.04499
853.75050 0.04425
852.46473 0.04358
851.17896 0.04300
849.89319 0.04248
848.60743 0.04203
847.32166 0.04162
846.03589 0.04125
844.75012 0.04094
843.46435 0.04064
842.17858 0.04034
840.89281 0.04002
839.60704 0.03974
838.32128 0.03952
837.03551 0.03929
835.74974 0.03896
834.46397 0.03857
833.17820 0.03820
831.89243 0.03793
830.60666 0.03779
829.32089 0.03775
828.03512 0.03777
826.74936 0.03777
825.46359 0.03770
824.17782 0.03757
822.89205 0.03745
821.60628 0.03744
820.32051 0.03749
819.03474 0.03749
817.74897 0.03735
816.46321 0.03709
815.17744 0.03686
813.89167 0.03672
812.60590 0.03667
811.32013 0.03660
810.03436 0.03648
808.74859 0.03632
807.46282 0.03617
806.17705 0.03604
804.89129 0.03594
803.60552 0.03583
802.31975 0.03577
801.03398 0.03577
799.74821 0.03580
798.46244 0.03578
797.17667 0.03570
795.89090 0.03562
794.60513 0.03558
793.31937 0.03558
792.03360 0.03559
790.74783 0.03558
789.46206 0.03552
788.17629 0.03544
786.89052 0.03540
785.60475 0.03545
784.31898 0.03551
783.03322 0.03551
781.74745 0.03541
780.46168 0.03528
779.17591 0.03519
777.89014 0.03516
776.60437 0.03515
775.31860 0.03514
774.03283 0.03514
772.74706 0.03514
771.46130 0.03516
770.17553 0.03520
768.88976 0.03526
767.60399 0.03532
766.31822 0.03536
765.03245 0.03541
763.74668 0.03548
762.46091 0.03552
761.17515 0.03550
759.88938 0.03542
758.60361 0.03536
757.31784 0.03536
756.03207 0.03542
754.74630 0.03551
753.46053 0.03558
752.17476 0.03562
750.88899 0.03561
749.60323 0.03556
748.31746 0.03550
747.03169 0.03542
745.74592 0.03528
744.46015 0.03509
743.17438 0.03491
741.88861 0.03480
740.60284 0.03477
739.31708 0.03475
738.03131 0.03473
736.74554 0.03471
735.45977 0.03475
734.17400 0.03488
732.88823 0.03504
731.60246 0.03510
730.31669 0.03504
729.03092 0.03492
727.74516 0.03483
726.45939 0.03482
725.17362 0.03488
723.88785 0.03520
722.60208 0.03518
721.31631 0.03518
720.03054 0.03523
718.74477 0.03527
717.45901 0.03531
716.17324 0.03533
714.88747 0.03531
713.60170 0.03523
712.31593 0.03510
711.03016 0.03500
709.74439 0.03493
708.45862 0.03490
707.17285 0.03488
705.88709 0.03486
704.60132 0.03485
703.31555 0.03488
702.02978 0.03494
700.74401 0.03499
699.45824 0.03500
698.17247 0.03496
696.88670 0.03490
695.60094 0.03488
694.31517 0.03489
693.02940 0.03489
691.74363 0.03487
690.45786 0.03484
689.17209 0.03483
687.88632 0.03485
686.60055 0.03486
685.31478 0.03483
684.02902 0.03475
682.74325 0.03464
681.45748 0.03452
680.17171 0.03443
678.88594 0.03437
677.60017 0.03433
676.31440 0.03433
675.02863 0.03439
673.74287 0.03451
672.45710 0.03470
671.17133 0.03492
669.88556 0.03516
668.59979 0.03532
667.31402 0.03532
666.02825 0.03533
664.74248 0.03530
663.45671 0.03522
662.17095 0.03515
660.88518 0.03510
659.59941 0.03506
658.31364 0.03495
657.02787 0.03472
655.74210 0.03442
654.45633 0.03411
653.17056 0.03382
651.88480 0.03356
650.59903 0.03332
649.31326 0.03313
648.02749 0.03299
646.74172 0.03290
645.45595 0.03284
644.17018 0.03277
642.88441 0.03269
641.59864 0.03257
640.31288 0.03243
639.02711 0.03234
637.74134 0.03234
636.45557 0.03244
635.16980 0.03264
633.88403 0.03292
632.59826 0.03311
631.31249 0.03276
630.02673 0.03241
628.74096 0.03418
627.45519 0.03525
626.16942 0.03895
624.88365 0.04450
623.59788 0.04973
622.31211 0.05342
621.02634 0.05549
619.74057 0.05665
618.45481 0.05756
617.16904 0.05831
615.88327 0.05902
614.59750 0.06050
613.31173 0.06389
612.02596 0.06945
610.74019 0.07595
609.45442 0.08182
608.16866 0.08674
606.88289 0.09136
605.59712 0.09594
604.31135 0.09976
603.02558 0.10184
601.73981 0.10169
600.45404 0.09972
599.16827 0.09680
597.88250 0.09364
596.59674 0.09049
595.31097 0.08732
594.02520 0.08423
592.73943 0.08148
591.45366 0.07939
590.16789 0.07808
588.88212 0.07746
587.59635 0.07740
586.31059 0.07788
585.02482 0.07898
583.73905 0.08075
582.45328 0.08302
581.16751 0.08549
579.88174 0.08787
578.59597 0.09001
577.31020 0.09201
576.02443 0.09399
574.73867 0.09604
573.45290 0.09817
572.16713 0.10045
570.88136 0.10307
569.59559 0.10614
568.30982 0.10963
567.02405 0.11332
565.73828 0.11697
564.45251 0.12034
563.16675 0.12307
561.88098 0.12473
560.59521 0.12493
559.30944 0.12350
558.02367 0.12048
556.73790 0.11618
555.45213 0.11101
554.16636 0.10542
552.88060 0.09978
551.59483 0.09433
550.30906 0.08924
549.02329 0.08460
547.73752 0.08045
546.45175 0.07679
545.16598 0.07362
543.88021 0.07090
542.59444 0.06856
541.30868 0.06646
540.02291 0.06448
538.73714 0.06256
537.45137 0.06069
536.16560 0.05896
534.87983 0.05743
533.59406 0.05613
532.30829 0.05502
531.02253 0.05400
529.73676 0.05297
528.45099 0.05185
527.16522 0.05063
525.87945 0.04939
524.59368 0.04829
523.30791 0.04746
522.02214 0.04687
520.73637 0.04634
519.45061 0.04567
518.16484 0.04478
516.87907 0.04379
515.59330 0.04286
514.30753 0.04208
513.02176 0.04147
511.73599 0.04097
510.45022 0.04050
509.16446 0.03999
507.87869 0.03946
506.59292 0.03895
505.30715 0.03850
504.02138 0.03809
502.73561 0.03760
501.44984 0.03701
500.16407 0.03640
498.87830 0.03591
497.59254 0.03552
496.30677 0.03508
495.02100 0.03455
493.73523 0.03403
492.44946 0.03371
491.16369 0.03366
489.87792 0.03373
488.59215 0.03370
487.30639 0.03348
486.02062 0.03313
484.73485 0.03280
483.44908 0.03257
482.16331 0.03243
480.87754 0.03235
479.59177 0.03230
478.30600 0.03230
477.02023 0.03236
475.73447 0.03250
474.44870 0.03269
473.16293 0.03286
471.87716 0.03295
470.59139 0.03290
469.30562 0.03278
468.01985 0.03267
466.73408 0.03258
465.44832 0.03242
464.16255 0.03206
462.87678 0.03156
461.59101 0.03103
460.30524 0.03059
459.01947 0.03025
457.73370 0.02993
456.44793 0.02957
455.16216 0.02910
453.87640 0.02854
452.59063 0.02802
451.30486 0.02763
450.01909 0.02735
448.73332 0.02713
447.44755 0.02691
446.16178 0.02669
444.87601 0.02645
443.59025 0.02618
442.30448 0.02591
441.01871 0.02568
439.73294 0.02549
438.44717 0.02534
437.16140 0.02522
435.87563 0.02514
434.58986 0.02506
433.30409 0.02494
432.01833 0.02476
430.73256 0.02453
429.44679 0.02429
428.16102 0.02406
426.87525 0.02387
425.58948 0.02368
424.30371 0.02348
423.01794 0.02328
421.73218 0.02313
420.44641 0.02303
419.16064 0.02295
417.87487 0.02285
416.58910 0.02269
415.30333 0.02247
414.01756 0.02223
412.73179 0.02205
411.44602 0.02193
410.16026 0.02187
408.87449 0.02187
407.58872 0.02189
406.30295 0.02190
405.01718 0.02190
403.73141 0.02190
402.44564 0.02189
401.15987 0.02188
399.87411 0.02185
