3997.45528 0.03533
3996.16951 0.03594
3994.88374 0.03673
3993.59798 0.03723
3992.31221 0.03712
3991.02644 0.03668
3989.74067 0.03637
3988.45490 0.03634
3987.16913 0.03639
3985.88336 0.03628
3984.59759 0.03594
3983.31183 0.03545
3982.02606 0.03497
3980.74029 0.03476
3979.45452 0.03497
3978.16875 0.03552
3976.88298 0.03611
3975.59721 0.03662
3974.31144 0.03717
3973.02567 0.03781
3971.73991 0.03831
3970.45414 0.03839
3969.16837 0.03812
3967.88260 0.03790
3966.59683 0.03809
3965.31106 0.03873
3964.02529 0.03944
3962.73952 0.03977
3961.45376 0.03956
3960.16799 0.03919
3958.88222 0.03908
3957.59645 0.03916
3956.31068 0.03893
3955.02491 0.03812
3953.73914 0.03717
3952.45337 0.03679
3951.16760 0.03712
3949.88184 0.03758
3948.59607 0.03756
3947.31030 0.03716
3946.02453 0.03697
3944.73876 0.03733
3943.45299 0.03800
3942.16722 0.03856
3940.88145 0.03883
3939.59569 0.03885
3938.30992 0.03871
3937.02415 0.03839
3935.73838 0.03784
3934.45261 0.03703
3933.16684 0.03608
3931.88107 0.03533
3930.59530 0.03503
3929.30953 0.03515
3928.02377 0.03539
3926.73800 0.03560
3925.45223 0.03593
3924.16646 0.03657
3922.88069 0.03745
3921.59492 0.03827
3920.30915 0.03875
3919.02338 0.03864
3917.73762 0.03784
3916.45185 0.03653
3915.16608 0.03518
3913.88031 0.03424
3912.59454 0.03389
3911.30877 0.03412
3910.02300 0.03471
3908.73723 0.03526
3907.45146 0.03528
3906.16570 0.03450
3904.87993 0.03324
3903.59416 0.03226
3902.30839 0.03211
3901.02262 0.03285
3899.73685 0.03412
3898.45108 0.03552
3897.16531 0.03678
3895.87955 0.03781
3894.59378 0.03858
3893.30801 0.03898
3892.02224 0.03894
3890.73647 0.03851
3889.45070 0.03779
3888.16493 0.03686
3886.87916 0.03601
3885.59339 0.03576
3884.30763 0.03620
3883.02186 0.03679
3881.73609 0.03687
3880.45032 0.03644
3879.16455 0.03597
3877.87878 0.03578
3876.59301 0.03572
3875.30724 0.03564
3874.02148 0.03564
3872.73571 0.03594
3871.44994 0.03650
3870.16417 0.03704
3868.87840 0.03707
3867.59263 0.03630
3866.30686 0.03509
3865.02109 0.03438
3863.73532 0.03467
3862.44956 0.03554
3861.16379 0.03627
3859.87802 0.03660
3858.59225 0.03686
3857.30648 0.03747
3856.02071 0.03845
3854.73494 0.03946
3853.44917 0.04018
3852.16341 0.04037
3850.87764 0.03996
3849.59187 0.03912
3848.30610 0.03821
3847.02033 0.03744
3845.73456 0.03693
3844.44879 0.03681
3843.16302 0.03712
3841.87725 0.03755
3840.59149 0.03746
3839.30572 0.03646
3838.01995 0.03490
3836.73418 0.03364
3835.44841 0.03332
3834.16264 0.03386
3832.87687 0.03468
3831.59110 0.03527
3830.30534 0.03556
3829.01957 0.03575
3827.73380 0.03581
3826.44803 0.03553
3825.16226 0.03481
3823.87649 0.03391
3822.59072 0.03332
3821.30495 0.03341
3820.01918 0.03390
3818.73342 0.03401
3817.44765 0.03337
3816.16188 0.03250
3814.87611 0.03213
3813.59034 0.03239
3812.30457 0.03311
3811.01880 0.03425
3809.73303 0.03558
3808.44726 0.03656
3807.16150 0.03669
3805.87573 0.03596
3804.58996 0.03473
3803.30419 0.03366
3802.01842 0.03347
3800.73265 0.03430
3799.44688 0.03553
3798.16111 0.03644
3796.87535 0.03682
3795.58958 0.03676
3794.30381 0.03622
3793.01804 0.03525
3791.73227 0.03420
3790.44650 0.03339
3789.16073 0.03294
3787.87496 0.03279
3786.58919 0.03285
3785.30343 0.03302
3784.01766 0.03323
3782.73189 0.03349
3781.44612 0.03386
3780.16035 0.03442
3778.87458 0.03501
3777.58881 0.03533
3776.30304 0.03530
3775.01728 0.03525
3773.73151 0.03556
3772.44574 0.03625
3771.15997 0.03703
3769.87420 0.03766
3768.58843 0.03807
3767.30266 0.03819
3766.01689 0.03797
3764.73112 0.03751
3763.44536 0.03698
3762.15959 0.03658
3760.87382 0.03640
3759.58805 0.03637
3758.30228 0.03627
3757.01651 0.03593
3755.73074 0.03528
3754.44497 0.03438
3753.15921 0.03351
3751.87344 0.03292
3750.58767 0.03272
3749.30190 0.03298
3748.01613 0.03367
3746.73036 0.03431
3745.44459 0.03441
3744.15882 0.03410
3742.87305 0.03386
3741.58729 0.03402
3740.30152 0.03483
3739.01575 0.03612
3737.72998 0.03731
3736.44421 0.03795
3735.15844 0.03802
3733.87267 0.03760
3732.58690 0.03675
3731.30114 0.03571
3730.01537 0.03473
3728.72960 0.03394
3727.44383 0.03341
3726.15806 0.03321
3724.87229 0.03335
3723.58652 0.03376
3722.30075 0.03423
3721.01498 0.03438
3719.72922 0.03397
3718.44345 0.03319
3717.15768 0.03262
3715.87191 0.03268
3714.58614 0.03325
3713.30037 0.03381
3712.01460 0.03395
3710.72883 0.03358
3709.44307 0.03298
3708.15730 0.03266
3706.87153 0.03298
3705.58576 0.03376
3704.29999 0.03436
3703.01422 0.03428
3701.72845 0.03357
3700.44268 0.03264
3699.15691 0.03180
3697.87115 0.03129
3696.58538 0.03133
3695.29961 0.03184
3694.01384 0.03240
3692.72807 0.03269
3691.44230 0.03279
3690.15653 0.03288
3688.87076 0.03291
3687.58500 0.03259
3686.29923 0.03184
3685.01346 0.03095
3683.72769 0.03038
3682.44192 0.03018
3681.15615 0.03018
3679.87038 0.03035
3678.58461 0.03077
3677.29884 0.03139
3676.01308 0.03227
3674.72731 0.03353
3673.44154 0.03499
3672.15577 0.03606
3670.87000 0.03638
3669.58423 0.03608
3668.29846 0.03557
3667.01269 0.03518
3665.72693 0.03494
3664.44116 0.03464
3663.15539 0.03427
3661.86962 0.03420
3660.58385 0.03466
3659.29808 0.03532
3658.01231 0.03572
3656.72654 0.03584
3655.44077 0.03602
3654.15501 0.03627
3652.86924 0.03626
3651.58347 0.03579
3650.29770 0.03496
3649.01193 0.03407
3647.72616 0.03337
3646.44039 0.03297
3645.15462 0.03273
3643.86886 0.03257
3642.58309 0.03267
3641.29732 0.03322
3640.01155 0.03418
3638.72578 0.03526
3637.44001 0.03606
3636.15424 0.03621
3634.86847 0.03551
3633.58270 0.03429
3632.29694 0.03327
3631.01117 0.03305
3629.72540 0.03365
3628.43963 0.03462
3627.15386 0.03533
3625.86809 0.03541
3624.58232 0.03506
3623.29655 0.03462
3622.01079 0.03424
3620.72502 0.03393
3619.43925 0.03376
3618.15348 0.03377
3616.86771 0.03384
3615.58194 0.03390
3614.29617 0.03420
3613.01040 0.03505
3611.72463 0.03632
3610.43887 0.03740
3609.15310 0.03778
3607.86733 0.03746
3606.58156 0.03672
3605.29579 0.03589
3604.01002 0.03527
3602.72425 0.03514
3601.43848 0.03569
3600.15272 0.03684
3598.86695 0.03823
3597.58118 0.03942
3596.29541 0.04012
3595.00964 0.04033
3593.72387 0.04032
3592.43810 0.04036
3591.15233 0.04041
3589.86656 0.04016
3588.58080 0.03946
3587.29503 0.03870
3586.00926 0.03850
3584.72349 0.03913
3583.43772 0.04011
3582.15195 0.04057
3580.86618 0.04010
3579.58041 0.03911
3578.29464 0.03845
3577.00888 0.03867
3575.72311 0.03962
3574.43734 0.04064
3573.15157 0.04102
3571.86580 0.04049
3570.58003 0.03944
3569.29426 0.03860
3568.00849 0.03845
3566.72273 0.03895
3565.43696 0.03976
3564.15119 0.04065
3562.86542 0.04154
3561.57965 0.04226
3560.29388 0.04252
3559.00811 0.04231
3557.72234 0.04202
3556.43657 0.04212
3555.15081 0.04264
3553.86504 0.04323
3552.57927 0.04357
3551.29350 0.04350
3550.00773 0.04302
3548.72196 0.04226
3547.43619 0.04168
3546.15042 0.04183
3544.86466 0.04274
3543.57889 0.04378
3542.29312 0.04424
3541.00735 0.04404
3539.72158 0.04364
3538.43581 0.04346
3537.15004 0.04354
3535.86427 0.04373
3534.57850 0.04394
3533.29274 0.04420
3532.00697 0.04464
3530.72120 0.04528
3529.43543 0.04600
3528.14966 0.04651
3526.86389 0.04656
3525.57812 0.04611
3524.29235 0.04550
3523.00659 0.04518
3521.72082 0.04538
3520.43505 0.04589
3519.14928 0.04627
3517.86351 0.04628
3516.57774 0.04607
3515.29197 0.04596
3514.00620 0.04607
3512.72043 0.04615
3511.43467 0.04588
3510.14890 0.04520
3508.86313 0.04455
3507.57736 0.04444
3506.29159 0.04504
3505.00582 0.04610
3503.72005 0.04713
3502.43428 0.04773
3501.14852 0.04771
3499.86275 0.04728
3498.57698 0.04687
3497.29121 0.04678
3496.00544 0.04702
3494.71967 0.04739
3493.43390 0.04771
3492.14813 0.04793
3490.86236 0.04804
3489.57660 0.04801
3488.29083 0.04792
3487.00506 0.04802
3485.71929 0.04860
3484.43352 0.04956
3483.14775 0.05038
3481.86198 0.05059
3480.57621 0.05031
3479.29045 0.05008
3478.00468 0.05027
3476.71891 0.05065
3475.43314 0.05077
3474.14737 0.05047
3472.86160 0.05000
3471.57583 0.04975
3470.29006 0.04985
3469.00429 0.05012
3467.71853 0.05020
3466.43276 0.04984
3465.14699 0.04916
3463.86122 0.04865
3462.57545 0.04874
3461.28968 0.04934
3460.00391 0.04998
3458.71814 0.05028
3457.43238 0.05027
3456.14661 0.05021
3454.86084 0.05018
3453.57507 0.04999
3452.28930 0.04944
3451.00353 0.04878
3449.71776 0.04859
3448.43199 0.04922
3447.14622 0.05027
3445.86046 0.05097
3444.57469 0.05095
3443.28892 0.05041
3442.00315 0.04972
3440.71738 0.04917
3439.43161 0.04893
3438.14584 0.04914
3436.86007 0.04971
3435.57431 0.05033
3434.28854 0.05075
3433.00277 0.05094
3431.71700 0.05103
3430.43123 0.05117
3429.14546 0.05137
3427.85969 0.05154
3426.57392 0.05160
3425.28815 0.05155
3424.00239 0.05143
3422.71662 0.05131
3421.43085 0.05133
3420.14508 0.05161
3418.85931 0.05211
3417.57354 0.05257
3416.28777 0.05277
3415.00200 0.05268
3413.71624 0.05250
3412.43047 0.05245
3411.14470 0.05256
3409.85893 0.05271
3408.57316 0.05276
3407.28739 0.05272
3406.00162 0.05278
3404.71585 0.05311
3403.43008 0.05366
3402.14432 0.05432
3400.85855 0.05510
3399.57278 0.05594
3398.28701 0.05643
3397.00124 0.05632
3395.71547 0.05569
3394.42970 0.05501
3393.14393 0.05473
3391.85817 0.05485
3390.57240 0.05509
3389.28663 0.05516
3388.00086 0.05502
3386.71509 0.05477
3385.42932 0.05448
3384.14355 0.05423
3382.85778 0.05416
3381.57201 0.05435
3380.28625 0.05468
3379.00048 0.05490
3377.71471 0.05481
3376.42894 0.05440
3375.14317 0.05392
3373.85740 0.05370
3372.57163 0.05406
3371.28586 0.05502
3370.00010 0.05626
3368.71433 0.05719
3367.42856 0.05735
3366.14279 0.05677
3364.85702 0.05594
3363.57125 0.05541
3362.28548 0.05541
3360.99971 0.05571
3359.71394 0.05608
3358.42818 0.05647
3357.14241 0.05695
3355.85664 0.05744
3354.57087 0.05775
3353.28510 0.05770
3351.99933 0.05725
3350.71356 0.05652
3349.42779 0.05573
3348.14202 0.05517
3346.85626 0.05499
3345.57049 0.05512
3344.28472 0.05529
3342.99895 0.05529
3341.71318 0.05514
3340.42741 0.05503
3339.14164 0.05514
3337.85587 0.05540
3336.57011 0.05564
3335.28434 0.05583
3333.99857 0.05600
3332.71280 0.05616
3331.42703 0.05622
3330.14126 0.05612
3328.85549 0.05591
3327.56972 0.05571
3326.28395 0.05560
3324.99819 0.05559
3323.71242 0.05568
3322.42665 0.05586
3321.14088 0.05609
3319.85511 0.05624
3318.56934 0.05613
3317.28357 0.05568
3315.99780 0.05509
3314.71204 0.05479
3313.42627 0.05508
3312.14050 0.05582
3310.85473 0.05648
3309.56896 0.05661
3308.28319 0.05621
3306.99742 0.05571
3305.71165 0.05553
3304.42588 0.05578
3303.14012 0.05622
3301.85435 0.05650
3300.56858 0.05643
3299.28281 0.05616
3297.99704 0.05595
3296.71127 0.05587
3295.42550 0.05575
3294.13973 0.05548
3292.85397 0.05519
3291.56820 0.05517
3290.28243 0.05549
3288.99666 0.05590
3287.71089 0.05609
3286.42512 0.05605
3285.13935 0.05593
3283.85358 0.05572
3282.56781 0.05535
3281.28205 0.05502
3279.99628 0.05504
3278.71051 0.05549
3277.42474 0.05600
3276.13897 0.05627
3274.85320 0.05638
3273.56743 0.05660
3272.28166 0.05702
3270.99590 0.05752
3269.71013 0.05792
3268.42436 0.05809
3267.13859 0.05800
3265.85282 0.05770
3264.56705 0.05729
3263.28128 0.05678
3261.99551 0.05627
3260.70974 0.05600
3259.42398 0.05607
3258.13821 0.05628
3256.85244 0.05622
3255.56667 0.05565
3254.28090 0.05480
3252.99513 0.05406
3251.70936 0.05370
3250.42359 0.05367
3249.13783 0.05375
3247.85206 0.05370
3246.56629 0.05345
3245.28052 0.05315
3243.99475 0.05307
3242.70898 0.05341
3241.42321 0.05412
3240.13744 0.05491
3238.85167 0.05542
3237.56591 0.05536
3236.28014 0.05480
3234.99437 0.05413
3233.70860 0.05376
3232.42283 0.05374
3231.13706 0.05382
3229.85129 0.05385
3228.56552 0.05381
3227.27976 0.05374
3225.99399 0.05363
3224.70822 0.05351
3223.42245 0.05346
3222.13668 0.05351
3220.85091 0.05361
3219.56514 0.05368
3218.27937 0.05374
3216.99360 0.05383
3215.70784 0.05394
3214.42207 0.05397
3213.13630 0.05385
3211.85053 0.05363
3210.56476 0.05343
3209.27899 0.05329
3207.99322 0.05313
3206.70745 0.05286
3205.42169 0.05243
3204.13592 0.05192
3202.85015 0.05142
3201.56438 0.05104
3200.27861 0.05088
3198.99284 0.05104
3197.70707 0.05150
3196.42130 0.05204
3195.13553 0.05235
3193.84977 0.05235
3192.56400 0.05216
3191.27823 0.05192
3189.99246 0.05157
3188.70669 0.05104
3187.42092 0.05045
3186.13515 0.05007
3184.84938 0.05009
3183.56362 0.05042
3182.27785 0.05074
3180.99208 0.05075
3179.70631 0.05041
3178.42054 0.04990
3177.13477 0.04948
3175.84900 0.04921
3174.56323 0.04899
3173.27746 0.04879
3171.99170 0.04874
3170.70593 0.04897
3169.42016 0.04943
3168.13439 0.04982
3166.84862 0.04992
3165.56285 0.04981
3164.27708 0.04969
3162.99131 0.04963
3161.70555 0.04954
3160.41978 0.04934
3159.13401 0.04902
3157.84824 0.04865
3156.56247 0.04834
3155.27670 0.04823
3153.99093 0.04837
3152.70516 0.04859
3151.41939 0.04864
3150.13363 0.04843
3148.84786 0.04810
3147.56209 0.04782
3146.27632 0.04764
3144.99055 0.04755
3143.70478 0.04760
3142.41901 0.04780
3141.13324 0.04807
3139.84748 0.04829
3138.56171 0.04840
3137.27594 0.04839
3135.99017 0.04827
3134.70440 0.04803
3133.41863 0.04774
3132.13286 0.04753
3130.84709 0.04753
3129.56132 0.04770
3128.27556 0.04784
3126.98979 0.04773
3125.70402 0.04735
3124.41825 0.04687
3123.13248 0.04650
3121.84671 0.04623
3120.56094 0.04602
3119.27517 0.04590
3117.98940 0.04585
3116.70364 0.04574
3115.41787 0.04538
3114.13210 0.04488
3112.84633 0.04466
3111.56056 0.04495
3110.27479 0.04553
3108.98902 0.04591
3107.70325 0.04593
3106.41749 0.04580
3105.13172 0.04585
3103.84595 0.04608
3102.56018 0.04624
3101.27441 0.04615
3099.98864 0.04587
3098.70287 0.04566
3097.41710 0.04575
3096.13133 0.04610
3094.84557 0.04652
3093.55980 0.04678
3092.27403 0.04684
3090.98826 0.04671
3089.70249 0.04637
3088.41672 0.04588
3087.13095 0.04541
3085.84518 0.04513
3084.55942 0.04499
3083.27365 0.04479
3081.98788 0.04444
3080.70211 0.04406
3079.41634 0.04382
3078.13057 0.04378
3076.84480 0.04387
3075.55903 0.04409
3074.27326 0.04450
3072.98750 0.04504
3071.70173 0.04553
3070.41596 0.04579
3069.13019 0.04587
3067.84442 0.04592
3066.55865 0.04597
3065.27288 0.04587
3063.98711 0.04547
3062.70135 0.04489
3061.41558 0.04443
3060.12981 0.04441
3058.84404 0.04480
3057.55827 0.04525
3056.27250 0.04537
3054.98673 0.04505
3053.70096 0.04448
3052.41519 0.04393
3051.12943 0.04355
3049.84366 0.04333
3048.55789 0.04323
3047.27212 0.04326
3045.98635 0.04339
3044.70058 0.04351
3043.41481 0.04350
3042.12904 0.04336
3040.84328 0.04325
3039.55751 0.04325
3038.27174 0.04331
3036.98597 0.04323
3035.70020 0.04297
3034.41443 0.04270
3033.12866 0.04259
3031.84289 0.04268
3030.55712 0.04286
3029.27136 0.04298
3027.98559 0.04298
3026.69982 0.04281
3025.41405 0.04248
3024.12828 0.04210
3022.84251 0.04184
3021.55674 0.04182
3020.27097 0.04197
3018.98521 0.04210
3017.69944 0.04209
3016.41367 0.04197
3015.12790 0.04187
3013.84213 0.04190
3012.55636 0.04205
3011.27059 0.04214
3009.98482 0.04197
3008.69905 0.04154
3007.41329 0.04109
3006.12752 0.04092
3004.84175 0.04111
3003.55598 0.04152
3002.27021 0.04198
3000.98444 0.04235
2999.69867 0.04253
2998.41290 0.04237
2997.12714 0.04198
2995.84137 0.04152
2994.55560 0.04116
2993.26983 0.04100
2991.98406 0.04108
2990.69829 0.04142
2989.41252 0.04191
2988.12675 0.04232
2986.84098 0.04246
2985.55522 0.04238
2984.26945 0.04227
2982.98368 0.04222
2981.69791 0.04230
2980.41214 0.04255
2979.12637 0.04296
2977.84060 0.04344
2976.55483 0.04385
2975.26907 0.04412
2973.98330 0.04427
2972.69753 0.04437
2971.41176 0.04446
2970.12599 0.04452
2968.84022 0.04457
2967.55445 0.04467
2966.26868 0.04492
2964.98291 0.04537
2963.69715 0.04599
2962.41138 0.04673
2961.12561 0.04751
2959.83984 0.04823
2958.55407 0.04878
2957.26830 0.04903
2955.98253 0.04896
2954.69676 0.04868
2953.41100 0.04839
2952.12523 0.04820
2950.83946 0.04806
2949.55369 0.04797
2948.26792 0.04803
2946.98215 0.04830
2945.69638 0.04861
2944.41061 0.04872
2943.12484 0.04853
2941.83908 0.04816
2940.55331 0.04792
2939.26754 0.04809
2937.98177 0.04868
2936.69600 0.04934
2935.41023 0.04975
2934.12446 0.04996
2932.83869 0.05027
2931.55293 0.05087
2930.26716 0.05154
2928.98139 0.05190
2927.69562 0.05187
2926.40985 0.05171
2925.12408 0.05169
2923.83831 0.05180
2922.55254 0.05174
2921.26677 0.05133
2919.98101 0.05071
2918.69524 0.05022
2917.40947 0.05003
2916.12370 0.04998
2914.83793 0.04978
2913.55216 0.04934
2912.26639 0.04880
2910.98062 0.04836
2909.69486 0.04806
2908.40909 0.04785
2907.12332 0.04768
2905.83755 0.04759
2904.55178 0.04761
2903.26601 0.04763
2901.98024 0.04743
2900.69447 0.04694
2899.40870 0.04632
2898.12294 0.04590
2896.83717 0.04588
2895.55140 0.04617
2894.26563 0.04643
2892.97986 0.04635
2891.69409 0.04590
2890.40832 0.04527
2889.12255 0.04467
2887.83678 0.04421
2886.55102 0.04394
2885.26525 0.04385
2883.97948 0.04388
2882.69371 0.04393
2881.40794 0.04390
2880.12217 0.04382
2878.83640 0.04381
2877.55063 0.04400
2876.26487 0.04435
2874.97910 0.04466
2873.69333 0.04482
2872.40756 0.04492
2871.12179 0.04499
2869.83602 0.04499
2868.55025 0.04490
2867.26448 0.04474
2865.97871 0.04461
2864.69295 0.04449
2863.40718 0.04434
2862.12141 0.04408
2860.83564 0.04378
2859.54987 0.04358
2858.26410 0.04355
2856.97833 0.04358
2855.69256 0.04353
2854.40680 0.04339
2853.12103 0.04328
2851.83526 0.04316
2850.54949 0.04295
2849.26372 0.04258
2847.97795 0.04206
2846.69218 0.04150
2845.40641 0.04106
2844.12064 0.04079
2842.83488 0.04060
2841.54911 0.04034
2840.26334 0.04004
2838.97757 0.03982
2837.69180 0.03966
2836.40603 0.03945
2835.12026 0.03915
2833.83449 0.03885
2832.54873 0.03865
2831.26296 0.03855
2829.97719 0.03851
2828.69142 0.03847
2827.40565 0.03830
2826.11988 0.03789
2824.83411 0.03728
2823.54834 0.03669
2822.26257 0.03635
2820.97681 0.03632
2819.69104 0.03650
2818.40527 0.03671
2817.11950 0.03675
2815.83373 0.03655
2814.54796 0.03621
2813.26219 0.03590
2811.97642 0.03571
2810.69066 0.03558
2809.40489 0.03549
2808.11912 0.03552
2806.83335 0.03570
2805.54758 0.03590
2804.26181 0.03595
2802.97604 0.03580
2801.69027 0.03551
2800.40450 0.03518
2799.11874 0.03485
2797.83297 0.03458
2796.54720 0.03443
2795.26143 0.03445
2793.97566 0.03459
2792.68989 0.03471
2791.40412 0.03462
2790.11835 0.03430
2788.83259 0.03391
2787.54682 0.03368
2786.26105 0.03378
2784.97528 0.03416
2783.68951 0.03460
2782.40374 0.03490
2781.11797 0.03498
2779.83220 0.03492
2778.54643 0.03477
2777.26067 0.03460
2775.97490 0.03445
2774.68913 0.03428
2773.40336 0.03404
2772.11759 0.03377
2770.83182 0.03363
2769.54605 0.03370
2768.26028 0.03390
2766.97452 0.03408
2765.68875 0.03415
2764.40298 0.03412
2763.11721 0.03402
2761.83144 0.03384
2760.54567 0.03362
2759.25990 0.03346
2757.97413 0.03341
2756.68836 0.03337
2755.40260 0.03321
2754.11683 0.03293
2752.83106 0.03277
2751.54529 0.03295
2750.25952 0.03344
2748.97375 0.03388
2747.68798 0.03399
2746.40221 0.03376
2745.11645 0.03345
2743.83068 0.03332
2742.54491 0.03343
2741.25914 0.03361
2739.97337 0.03362
2738.68760 0.03340
2737.40183 0.03309
2736.11606 0.03290
2734.83029 0.03283
2733.54453 0.03278
2732.25876 0.03267
2730.97299 0.03251
2729.68722 0.03229
2728.40145 0.03200
2727.11568 0.03173
2725.82991 0.03167
2724.54414 0.03184
2723.25838 0.03211
2721.97261 0.03226
2720.68684 0.03221
2719.40107 0.03207
2718.11530 0.03195
2716.82953 0.03193
2715.54376 0.03195
2714.25799 0.03190
2712.97222 0.03173
2711.68646 0.03148
2710.40069 0.03122
2709.11492 0.03097
2707.82915 0.03078
2706.54338 0.03076
2705.25761 0.03092
2703.97184 0.03116
2702.68607 0.03135
2701.40031 0.03145
2700.11454 0.03146
2698.82877 0.03135
2697.54300 0.03111
2696.25723 0.03086
2694.97146 0.03072
2693.68569 0.03072
2692.39992 0.03079
2691.11415 0.03087
2689.82839 0.03091
2688.54262 0.03089
2687.25685 0.03086
2685.97108 0.03089
2684.68531 0.03093
2683.39954 0.03084
2682.11377 0.03051
2680.82800 0.03003
2679.54224 0.02963
2678.25647 0.02958
2676.97070 0.02991
2675.68493 0.03046
2674.39916 0.03096
2673.11339 0.03117
2671.82762 0.03108
2670.54185 0.03085
2669.25608 0.03072
2667.97032 0.03083
2666.68455 0.03110
2665.39878 0.03133
2664.11301 0.03136
2662.82724 0.03122
2661.54147 0.03102
2660.25570 0.03082
2658.96993 0.03053
2657.68417 0.03008
2656.39840 0.02956
2655.11263 0.02919
2653.82686 0.02913
2652.54109 0.02935
2651.25532 0.02967
2649.96955 0.02997
2648.68378 0.03018
2647.39801 0.03032
2646.11225 0.03038
2644.82648 0.03038
2643.54071 0.03028
2642.25494 0.03013
2640.96917 0.02997
2639.68340 0.02981
2638.39763 0.02958
2637.11186 0.02919
2635.82609 0.02866
2634.54033 0.02820
2633.25456 0.02798
2631.96879 0.02801
2630.68302 0.02821
2629.39725 0.02847
2628.11148 0.02872
2626.82571 0.02883
2625.53994 0.02872
2624.25418 0.02846
2622.96841 0.02821
2621.68264 0.02806
2620.39687 0.02791
2619.11110 0.02764
2617.82533 0.02723
2616.53956 0.02686
2615.25379 0.02671
2613.96802 0.02674
2612.68226 0.02678
2611.39649 0.02675
2610.11072 0.02672
2608.82495 0.02678
2607.53918 0.02694
2606.25341 0.02711
2604.96764 0.02719
2603.68187 0.02715
2602.39611 0.02698
2601.11034 0.02681
2599.82457 0.02672
2598.53880 0.02670
2597.25303 0.02669
2595.96726 0.02667
2594.68149 0.02661
2593.39572 0.02640
2592.10995 0.02598
2590.82419 0.02544
2589.53842 0.02498
2588.25265 0.02475
2586.96688 0.02476
2585.68111 0.02486
2584.39534 0.02489
2583.10957 0.02484
2581.82380 0.02486
2580.53804 0.02499
2579.25227 0.02511
2577.96650 0.02510
2576.68073 0.02498
2575.39496 0.02479
2574.10919 0.02455
2572.82342 0.02430
2571.53765 0.02413
2570.25188 0.02396
2568.96612 0.02361
2567.68035 0.02320
2566.39458 0.02310
2565.10881 0.02352
2563.82304 0.02419
2562.53727 0.02476
2561.25150 0.02510
2559.96573 0.02526
2558.67997 0.02519
2557.39420 0.02482
2556.10843 0.02426
2554.82266 0.02387
2553.53689 0.02381
2552.25112 0.02390
2550.96535 0.02379
2549.67958 0.02342
2548.39381 0.02311
2547.10805 0.02318
2545.82228 0.02362
2544.53651 0.02408
2543.25074 0.02424
2541.96497 0.02399
2540.67920 0.02344
2539.39343 0.02277
2538.10766 0.02226
2536.82190 0.02215
2535.53613 0.02251
2534.25036 0.02312
2532.96459 0.02368
2531.67882 0.02410
2530.39305 0.02449
2529.10728 0.02482
2527.82151 0.02488
2526.53574 0.02460
2525.24998 0.02426
2523.96421 0.02423
2522.67844 0.02455
2521.39267 0.02486
2520.10690 0.02477
2518.82113 0.02419
2517.53536 0.02339
2516.24959 0.02268
2514.96383 0.02230
2513.67806 0.02237
2512.39229 0.02280
2511.10652 0.02336
2509.82075 0.02379
2508.53498 0.02399
2507.24921 0.02403
2505.96344 0.02407
2504.67767 0.02413
2503.39191 0.02407
2502.10614 0.02374
2500.82037 0.02318
2499.53460 0.02276
2498.24883 0.02274
2496.96306 0.02299
2495.67729 0.02313
2494.39152 0.02303
2493.10576 0.02291
2491.81999 0.02303
2490.53422 0.02340
2489.24845 0.02380
2487.96268 0.02400
2486.67691 0.02402
2485.39114 0.02403
2484.10537 0.02418
2482.81960 0.02436
2481.53384 0.02432
2480.24807 0.02392
2478.96230 0.02329
2477.67653 0.02273
2476.39076 0.02243
2475.10499 0.02240
2473.81922 0.02245
2472.53345 0.02240
2471.24769 0.02227
2469.96192 0.02218
2468.67615 0.02222
2467.39038 0.02237
2466.10461 0.02254
2464.81884 0.02263
2463.53307 0.02259
2462.24730 0.02246
2460.96153 0.02237
2459.67577 0.02239
2458.39000 0.02250
2457.10423 0.02259
2455.81846 0.02263
2454.53269 0.02270
2453.24692 0.02283
2451.96115 0.02304
2450.67538 0.02329
2449.38962 0.02356
2448.10385 0.02376
2446.81808 0.02378
2445.53231 0.02358
2444.24654 0.02319
2442.96077 0.02269
2441.67500 0.02228
2440.38923 0.02212
2439.10346 0.02219
2437.81770 0.02233
2436.53193 0.02247
2435.24616 0.02272
2433.96039 0.02314
2432.67462 0.02353
2431.38885 0.02365
2430.10308 0.02342
2428.81731 0.02292
2427.53155 0.02231
2426.24578 0.02172
2424.96001 0.02126
2423.67424 0.02099
2422.38847 0.02097
2421.10270 0.02114
2419.81693 0.02139
2418.53116 0.02153
2417.24539 0.02146
2415.95963 0.02117
2414.67386 0.02086
2413.38809 0.02069
2412.10232 0.02072
2410.81655 0.02079
2409.53078 0.02075
2408.24501 0.02057
2406.95924 0.02048
2405.67347 0.02065
2404.38771 0.02106
2403.10194 0.02144
2401.81617 0.02162
2400.53040 0.02163
2399.24463 0.02159
2397.95886 0.02149
2396.67309 0.02125
2395.38732 0.02091
2394.10156 0.02064
2392.81579 0.02064
2391.53002 0.02083
2390.24425 0.02098
2388.95848 0.02090
2387.67271 0.02065
2386.38694 0.02052
2385.10117 0.02067
2383.81540 0.02104
2382.52964 0.02141
2381.24387 0.02162
2379.95810 0.02171
2378.67233 0.02186
2377.38656 0.02217
2376.10079 0.02252
2374.81502 0.02271
2373.52925 0.02263
2372.24349 0.02233
2370.95772 0.02195
2369.67195 0.02164
2368.38618 0.02156
2367.10041 0.02177
2365.81464 0.02220
2364.52887 0.02259
2363.24310 0.02275
2361.95733 0.02269
2360.67157 0.02255
2359.38580 0.02236
2358.10003 0.02217
2356.81426 0.02204
2355.52849 0.02199
2354.24272 0.02202
2352.95695 0.02210
2351.67118 0.02219
2350.38542 0.02222
2349.09965 0.02215
2347.81388 0.02207
2346.52811 0.02219
2345.24234 0.02238
2343.95657 0.02235
2342.67080 0.02214
2341.38503 0.02219
2340.09926 0.02253
2338.81350 0.02262
2337.52773 0.02237
2336.24196 0.02236
2334.95619 0.02253
2333.67042 0.02229
2332.38465 0.02186
2331.09888 0.02195
2329.81311 0.02220
2328.52735 0.02221
2327.24158 0.02261
2325.95581 0.02318
2324.67004 0.02330
2323.38427 0.02330
2322.09850 0.02329
2320.81273 0.02292
2319.52696 0.02262
2318.24119 0.02251
2316.95543 0.02238
2315.66966 0.02245
2314.38389 0.02256
2313.09812 0.02245
2311.81235 0.02216
2310.52658 0.02162
2309.24081 0.02102
2307.95504 0.02060
2306.66928 0.02034
2305.38351 0.02020
2304.09774 0.02007
2302.81197 0.01996
2301.52620 0.02001
2300.24043 0.02023
2298.95466 0.02052
2297.66889 0.02067
2296.38312 0.02058
2295.09736 0.02031
2293.81159 0.02000
2292.52582 0.01978
2291.24005 0.01961
2289.95428 0.01936
2288.66851 0.01893
2287.38274 0.01846
2286.09697 0.01822
2284.81121 0.01833
2283.52544 0.01862
2282.23967 0.01890
2280.95390 0.01909
2279.66813 0.01914
2278.38236 0.01894
2277.09659 0.01836
2275.81082 0.01753
2274.52505 0.01680
2273.23929 0.01642
2271.95352 0.01635
2270.66775 0.01637
2269.38198 0.01638
2268.09621 0.01639
2266.81044 0.01646
2265.52467 0.01651
2264.23890 0.01655
2262.95314 0.01682
2261.66737 0.01756
2260.38160 0.01875
2259.09583 0.02001
2257.81006 0.02080
2256.52429 0.02077
2255.23852 0.02001
2253.95275 0.01889
2252.66698 0.01782
2251.38122 0.01700
2250.09545 0.01649
2248.80968 0.01624
2247.52391 0.01604
2246.23814 0.01577
2244.95237 0.01557
2243.66660 0.01574
2242.38083 0.01635
2241.09507 0.01714
2239.80930 0.01779
2238.52353 0.01803
2237.23776 0.01766
2235.95199 0.01674
2234.66622 0.01575
2233.38045 0.01525
2232.09468 0.01521
2230.80891 0.01505
2229.52315 0.01441
2228.23738 0.01358
2226.95161 0.01303
2225.66584 0.01279
2224.38007 0.01253
2223.09430 0.01208
2221.80853 0.01161
2220.52276 0.01142
2219.23700 0.01159
2217.95123 0.01187
2216.66546 0.01196
2215.37969 0.01180
2214.09392 0.01167
2212.80815 0.01177
2211.52238 0.01201
2210.23661 0.01212
2208.95084 0.01208
2207.66508 0.01231
2206.37931 0.01321
2205.09354 0.01457
2203.80777 0.01567
2202.52200 0.01594
2201.23623 0.01556
2199.95046 0.01503
2198.66469 0.01453
2197.37893 0.01388
2196.09316 0.01301
2194.80739 0.01205
2193.52162 0.01116
2192.23585 0.01056
2190.95008 0.01063
2189.66431 0.01158
2188.37854 0.01295
2187.09277 0.01383
2185.80701 0.01364
2184.52124 0.01268
2183.23547 0.01171
2181.94970 0.01112
2180.66393 0.01093
2179.37816 0.01116
2178.09239 0.01173
2176.80662 0.01209
2175.52085 0.01164
2174.23509 0.01062
2172.94932 0.00997
2171.66355 0.01015
2170.37778 0.01061
2169.09201 0.01074
2167.80624 0.01057
2166.52047 0.01048
2165.23470 0.01064
2163.94894 0.01087
2162.66317 0.01087
2161.37740 0.01031
2160.09163 0.00906
2158.80586 0.00747
2157.52009 0.00620
2156.23432 0.00558
2154.94855 0.00537
2153.66278 0.00512
2152.37702 0.00476
2151.09125 0.00466
2149.80548 0.00519
2148.51971 0.00618
2147.23394 0.00704
2145.94817 0.00732
2144.66240 0.00718
2143.37663 0.00712
2142.09087 0.00756
2140.80510 0.00847
2139.51933 0.00945
2138.23356 0.01007
2136.94779 0.01019
2135.66202 0.00996
2134.37625 0.00975
2133.09048 0.00992
2131.80471 0.01060
2130.51895 0.01151
2129.23318 0.01220
2127.94741 0.01242
2126.66164 0.01226
2125.37587 0.01192
2124.09010 0.01158
2122.80433 0.01138
2121.51856 0.01141
2120.23280 0.01166
2118.94703 0.01201
2117.66126 0.01236
2116.37549 0.01264
2115.08972 0.01286
2113.80395 0.01302
2112.51818 0.01315
2111.23241 0.01329
2109.94664 0.01340
2108.66088 0.01340
2107.37511 0.01315
2106.08934 0.01272
2104.80357 0.01224
2103.51780 0.01177
2102.23203 0.01128
2100.94626 0.01085
2099.66049 0.01227
2098.37473 0.01300
2097.08896 0.01301
2095.80319 0.01285
2094.51742 0.01258
2093.23165 0.01219
2091.94588 0.01178
2090.66011 0.01155
2089.37434 0.01161
2088.08857 0.01187
2086.80281 0.01212
2085.51704 0.01230
2084.23127 0.01243
2082.94550 0.01252
2081.65973 0.01242
2080.37396 0.01193
2079.08819 0.01114
2077.80242 0.01044
2076.51666 0.01023
2075.23089 0.01060
2073.94512 0.01118
2072.65935 0.01146
2071.37358 0.01122
2070.08781 0.01072
2068.80204 0.01045
2067.51627 0.01065
2066.23050 0.01107
2064.94474 0.01119
2063.65897 0.01065
2062.37320 0.00955
2061.08743 0.00830
2059.80166 0.00733
2058.51589 0.00678
2057.23012 0.00656
2055.94435 0.00651
2054.65859 0.00667
2053.37282 0.00714
2052.08705 0.00790
2050.80128 0.00877
2049.51551 0.00963
2048.22974 0.01044
2046.94397 0.01094
2045.65820 0.01068
2044.37243 0.00950
2043.08667 0.00794
2041.80090 0.00675
2040.51513 0.00626
2039.22936 0.00625
2037.94359 0.00642
2036.65782 0.00662
2035.37205 0.00682
2034.08628 0.00700
2032.80052 0.00728
2031.51475 0.00773
2030.22898 0.00823
2028.94321 0.00847
2027.65744 0.00813
2026.37167 0.00718
2025.08590 0.00601
2023.80013 0.00522
2022.51436 0.00509
2021.22860 0.00527
2019.94283 0.00517
2018.65706 0.00458
2017.37129 0.00387
2016.08552 0.00370
2014.79975 0.00448
2013.51398 0.00610
2012.22821 0.00800
2010.94245 0.00960
2009.65668 0.01065
2008.37091 0.01105
2007.08514 0.01073
2005.79937 0.00970
2004.51360 0.00836
2003.22783 0.00740
2001.94206 0.00720
2000.65629 0.00755
1999.37053 0.00789
1998.08476 0.00782
1996.79899 0.00739
1995.51322 0.00687
1994.22745 0.00653
1992.94168 0.00660
1991.65591 0.00719
1990.37014 0.00816
1989.08438 0.00902
1987.79861 0.00932
1986.51284 0.00912
1985.22707 0.00883
1983.94130 0.00881
1982.65553 0.00915
1981.36976 0.00977
1980.08399 0.01062
1978.79822 0.01162
1977.51246 0.01248
1976.22669 0.01280
1974.94092 0.01244
1973.65515 0.01171
1972.36938 0.01110
1971.08361 0.01089
1969.79784 0.01103
1968.51207 0.01139
1967.22631 0.01192
1965.94054 0.01245
1964.65477 0.01256
1963.36900 0.01195
1962.08323 0.01094
1960.79746 0.01022
1959.51169 0.01020
1958.22592 0.01068
1956.94015 0.01110
1955.65439 0.01112
1954.36862 0.01084
1953.08285 0.01064
1951.79708 0.01083
1950.51131 0.01141
1949.22554 0.01203
1947.93977 0.01234
1946.65400 0.01226
1945.36823 0.01202
1944.08247 0.01202
1942.79670 0.01242
1941.51093 0.01298
1940.22516 0.01331
1938.93939 0.01320
1937.65362 0.01280
1936.36785 0.01239
1935.08208 0.01212
1933.79632 0.01193
1932.51055 0.01182
1931.22478 0.01190
1929.93901 0.01229
1928.65324 0.01296
1927.36747 0.01367
1926.08170 0.01410
1924.79593 0.01406
1923.51016 0.01362
1922.22440 0.01301
1920.93863 0.01249
1919.65286 0.01212
1918.36709 0.01195
1917.08132 0.01206
1915.79555 0.01247
1914.50978 0.01300
1913.22401 0.01330
1911.93825 0.01315
1910.65248 0.01268
1909.36671 0.01228
1908.08094 0.01224
1906.79517 0.01253
1905.50940 0.01291
1904.22363 0.01313
1902.93786 0.01308
1901.65209 0.01280
1900.36633 0.01239
1899.08056 0.01201
1897.79479 0.01178
1896.50902 0.01177
1895.22325 0.01194
1893.93748 0.01229
1892.65171 0.01281
1891.36594 0.01336
1890.08018 0.01365
1888.79441 0.01347
1887.50864 0.01298
1886.22287 0.01257
1884.93710 0.01255
1883.65133 0.01284
1882.36556 0.01315
1881.07979 0.01328
1879.79402 0.01325
1878.50826 0.01326
1877.22249 0.01346
1875.93672 0.01380
1874.65095 0.01411
1873.36518 0.01423
1872.07941 0.01413
1870.79364 0.01393
1869.50787 0.01381
1868.22211 0.01384
1866.93634 0.01388
1865.65057 0.01373
1864.36480 0.01335
1863.07903 0.01296
1861.79326 0.01279
1860.50749 0.01289
1859.22172 0.01312
1857.93595 0.01328
1856.65019 0.01328
1855.36442 0.01316
1854.07865 0.01297
1852.79288 0.01280
1851.50711 0.01272
1850.22134 0.01280
1848.93557 0.01307
1847.64980 0.01344
1846.36404 0.01368
1845.07827 0.01365
1843.79250 0.01345
1842.50673 0.01323
1841.22096 0.01307
1839.93519 0.01295
1838.64942 0.01286
1837.36365 0.01284
1836.07788 0.01291
1834.79212 0.01305
1833.50635 0.01325
1832.22058 0.01348
1830.93481 0.01373
1829.64904 0.01396
1828.36327 0.01416
1827.07750 0.01429
1825.79173 0.01440
1824.50597 0.01451
1823.22020 0.01459
1821.93443 0.01461
1820.64866 0.01459
1819.36289 0.01456
1818.07712 0.01444
1816.79135 0.01415
1815.50558 0.01370
1814.21981 0.01319
1812.93405 0.01277
1811.64828 0.01250
1810.36251 0.01241
1809.07674 0.01249
1807.79097 0.01272
1806.50520 0.01303
1805.21943 0.01333
1803.93366 0.01351
1802.64790 0.01352
1801.36213 0.01339
1800.07636 0.01324
1798.79059 0.01316
1797.50482 0.01315
1796.21905 0.01322
1794.93328 0.01337
1793.64751 0.01355
1792.36174 0.01374
1791.07598 0.01385
1789.79021 0.01385
1788.50444 0.01382
1787.21867 0.01383
1785.93290 0.01392
1784.64713 0.01407
1783.36136 0.01423
1782.07559 0.01434
1780.78983 0.01435
1779.50406 0.01425
1778.21829 0.01407
1776.93252 0.01390
1775.64675 0.01380
1774.36098 0.01377
1773.07521 0.01382
1771.78944 0.01396
1770.50367 0.01409
1769.21791 0.01410
1767.93214 0.01402
1766.64637 0.01392
1765.36060 0.01385
1764.07483 0.01378
1762.78906 0.01376
1761.50329 0.01382
1760.21752 0.01391
1758.93176 0.01391
1757.64599 0.01380
1756.36022 0.01370
1755.07445 0.01371
1753.78868 0.01378
1752.50291 0.01385
1751.21714 0.01393
1749.93137 0.01402
1748.64560 0.01410
1747.35984 0.01410
1746.07407 0.01407
1744.78830 0.01402
1743.50253 0.01397
1742.21676 0.01392
1740.93099 0.01386
1739.64522 0.01387
1738.35945 0.01403
1737.07369 0.01428
1735.78792 0.01448
1734.50215 0.01459
1733.21638 0.01468
1731.93061 0.01467
1730.64484 0.01450
1729.35907 0.01426
1728.07330 0.01411
1726.78753 0.01408
1725.50177 0.01411
1724.21600 0.01420
1722.93023 0.01440
1721.64446 0.01478
1720.35869 0.01524
1719.07292 0.01566
1717.78715 0.01601
1716.50138 0.01629
1715.21561 0.01645
1713.92985 0.01651
1712.64408 0.01655
1711.35831 0.01670
1710.07254 0.01699
1708.78677 0.01735
1707.50100 0.01774
1706.21523 0.01817
1704.92946 0.01873
1703.64370 0.01947
1702.35793 0.02026
1701.07216 0.02105
1699.78639 0.02187
1698.50062 0.02261
1697.21485 0.02309
1695.92908 0.02341
1694.64331 0.02378
1693.35754 0.02419
1692.07178 0.02455
1690.78601 0.02496
1689.50024 0.02562
1688.21447 0.02651
1686.92870 0.02739
1685.64293 0.02810
1684.35716 0.02866
1683.07139 0.02919
1681.78563 0.02969
1680.49986 0.03019
1679.21409 0.03080
1677.92832 0.03152
1676.64255 0.03225
1675.35678 0.03298
1674.07101 0.03371
1672.78524 0.03441
1671.49947 0.03498
1670.21371 0.03543
1668.92794 0.03583
1667.64217 0.03626
1666.35640 0.03677
1665.07063 0.03735
1663.78486 0.03799
1662.49909 0.03862
1661.21332 0.03917
1659.92756 0.03961
1658.64179 0.04005
1657.35602 0.04067
1656.07025 0.04143
1654.78448 0.04214
1653.49871 0.04268
1652.21294 0.04307
1650.92717 0.04327
1649.64140 0.04321
1648.35564 0.04300
1647.06987 0.04283
1645.78410 0.04280
1644.49833 0.04282
1643.21256 0.04281
1641.92679 0.04277
1640.64102 0.04275
1639.35525 0.04276
1638.06949 0.04272
1636.78372 0.04259
1635.49795 0.04238
1634.21218 0.04210
1632.92641 0.04170
1631.64064 0.04121
1630.35487 0.04073
1629.06910 0.04033
1627.78333 0.04004
1626.49757 0.03979
1625.21180 0.03953
1623.92603 0.03922
1622.64026 0.03892
1621.35449 0.03870
1620.06872 0.03854
1618.78295 0.03839
1617.49718 0.03822
1616.21142 0.03807
1614.92565 0.03791
1613.63988 0.03769
1612.35411 0.03747
1611.06834 0.03731
1609.78257 0.03722
1608.49680 0.03716
1607.21103 0.03716
1605.92526 0.03728
1604.63950 0.03750
1603.35373 0.03778
1602.06796 0.03804
1600.78219 0.03824
1599.49642 0.03838
1598.21065 0.03850
1596.92488 0.03863
1595.63911 0.03880
1594.35335 0.03901
1593.06758 0.03926
1591.78181 0.03954
1590.49604 0.03983
1589.21027 0.04008
1587.92450 0.04029
1586.63873 0.04049
1585.35296 0.04073
1584.06719 0.04104
1582.78143 0.04142
1581.49566 0.04189
1580.20989 0.04246
1578.92412 0.04305
1577.63835 0.04358
1576.35258 0.04403
1575.06681 0.04449
1573.78104 0.04493
1572.49528 0.04530
1571.20951 0.04564
1569.92374 0.04600
1568.63797 0.04638
1567.35220 0.04671
1566.06643 0.04700
1564.78066 0.04739
1563.49489 0.04795
1562.20912 0.04858
1560.92336 0.04912
1559.63759 0.04953
1558.35182 0.04984
1557.06605 0.04998
1555.78028 0.04988
1554.49451 0.04968
1553.20874 0.04957
1551.92297 0.04955
1550.63721 0.04952
1549.35144 0.04942
1548.06567 0.04928
1546.77990 0.04909
1545.49413 0.04892
1544.20836 0.04882
1542.92259 0.04871
1541.63682 0.04848
1540.35105 0.04806
1539.06529 0.04751
1537.77952 0.04693
1536.49375 0.04634
1535.20798 0.04577
1533.92221 0.04531
1532.63644 0.04502
1531.35067 0.04483
1530.06490 0.04470
1528.77914 0.04464
1527.49337 0.04466
1526.20760 0.04479
1524.92183 0.04502
1523.63606 0.04526
1522.35029 0.04546
1521.06452 0.04567
1519.77875 0.04595
1518.49298 0.04623
1517.20722 0.04651
1515.92145 0.04682
1514.63568 0.04719
1513.34991 0.04761
1512.06414 0.04812
1510.77837 0.04880
1509.49260 0.04958
1508.20683 0.05034
1506.92107 0.05101
1505.63530 0.05162
1504.34953 0.05214
1503.06376 0.05257
1501.77799 0.05297
1500.49222 0.05345
1499.20645 0.05399
1497.92068 0.05448
1496.63491 0.05486
1495.34915 0.05517
1494.06338 0.05548
1492.77761 0.05581
1491.49184 0.05623
1490.20607 0.05675
1488.92030 0.05731
1487.63453 0.05784
1486.34876 0.05833
1485.06299 0.05886
1483.77723 0.05946
1482.49146 0.06015
1481.20569 0.06093
1479.91992 0.06178
1478.63415 0.06264
1477.34838 0.06350
1476.06261 0.06435
1474.77684 0.06513
1473.49108 0.06580
1472.20531 0.06634
1470.91954 0.06682
1469.63377 0.06728
1468.34800 0.06777
1467.06223 0.06831
1465.77646 0.06890
1464.49069 0.06951
1463.20492 0.07015
1461.91916 0.07085
1460.63339 0.07163
1459.34762 0.07244
1458.06185 0.07319
1456.77608 0.07387
1455.49031 0.07451
1454.20454 0.07508
1452.91877 0.07558
1451.63301 0.07604
1450.34724 0.07644
1449.06147 0.07672
1447.77570 0.07688
1446.48993 0.07694
1445.20416 0.07695
1443.91839 0.07694
1442.63262 0.07693
1441.34685 0.07690
1440.06109 0.07686
1438.77532 0.07684
1437.48955 0.07688
1436.20378 0.07702
1434.91801 0.07728
1433.63224 0.07761
1432.34647 0.07802
1431.06070 0.07856
1429.77494 0.07919
1428.48917 0.07989
1427.20340 0.08062
1425.91763 0.08143
1424.63186 0.08236
1423.34609 0.08338
1422.06032 0.08441
1420.77455 0.08535
1419.48878 0.08620
1418.20302 0.08697
1416.91725 0.08763
1415.63148 0.08814
1414.34571 0.08854
1413.05994 0.08881
1411.77417 0.08893
1410.48840 0.08888
1409.20263 0.08868
1407.91687 0.08836
1406.63110 0.08790
1405.34533 0.08732
1404.05956 0.08660
1402.77379 0.08572
1401.48802 0.08463
1400.20225 0.08336
1398.91648 0.08197
1397.63071 0.08049
1396.34495 0.07892
1395.05918 0.07730
1393.77341 0.07569
1392.48764 0.07412
1391.20187 0.07256
1389.91610 0.07098
1388.63033 0.06939
1387.34456 0.06780
1386.05880 0.06625
1384.77303 0.06471
1383.48726 0.06316
1382.20149 0.06168
1380.91572 0.06029
1379.62995 0.05893
1378.34418 0.05753
1377.05841 0.05603
1375.77264 0.05444
1374.48688 0.05284
1373.20111 0.05127
1371.91534 0.04974
1370.62957 0.04826
1369.34380 0.04687
1368.05803 0.04561
1366.77226 0.04451
1365.48649 0.04349
1364.20073 0.04251
1362.91496 0.04153
1361.62919 0.04059
1360.34342 0.03971
1359.05765 0.03892
1357.77188 0.03821
1356.48611 0.03757
1355.20034 0.03698
1353.91457 0.03646
1352.62881 0.03600
1351.34304 0.03558
1350.05727 0.03515
1348.77150 0.03471
1347.48573 0.03424
1346.19996 0.03379
1344.91419 0.03337
1343.62842 0.03302
1342.34266 0.03274
1341.05689 0.03249
1339.77112 0.03220
1338.48535 0.03186
1337.19958 0.03149
1335.91381 0.03111
1334.62804 0.03075
1333.34227 0.03039
1332.05650 0.03002
1330.77074 0.02963
1329.48497 0.02925
1328.19920 0.02892
1326.91343 0.02866
1325.62766 0.02843
1324.34189 0.02819
1323.05612 0.02788
1321.77035 0.02752
1320.48459 0.02716
1319.19882 0.02686
1317.91305 0.02662
1316.62728 0.02642
1315.34151 0.02622
1314.05574 0.02599
1312.76997 0.02575
1311.48420 0.02550
1310.19843 0.02527
1308.91267 0.02507
1307.62690 0.02493
1306.34113 0.02480
1305.05536 0.02466
1303.76959 0.02450
1302.48382 0.02433
1301.19805 0.02416
1299.91228 0.02403
1298.62652 0.02390
1297.34075 0.02376
1296.05498 0.02356
1294.76921 0.02335
1293.48344 0.02314
1292.19767 0.02298
1290.91190 0.02285
1289.62613 0.02275
1288.34036 0.02265
1287.05460 0.02253
1285.76883 0.02238
1284.48306 0.02223
1283.19729 0.02210
1281.91152 0.02199
1280.62575 0.02187
1279.33998 0.02177
1278.05421 0.02168
1276.76845 0.02162
1275.48268 0.02156
1274.19691 0.02148
1272.91114 0.02140
1271.62537 0.02131
1270.33960 0.02120
1269.05383 0.02107
1267.76806 0.02093
1266.48229 0.02080
1265.19653 0.02073
1263.91076 0.02071
1262.62499 0.02074
1261.33922 0.02078
1260.05345 0.02080
1258.76768 0.02079
1257.48191 0.02077
1256.19614 0.02075
1254.91037 0.02074
1253.62461 0.02073
1252.33884 0.02071
1251.05307 0.02067
1249.76730 0.02065
1248.48153 0.02067
1247.19576 0.02070
1245.90999 0.02069
1244.62422 0.02063
1243.33846 0.02052
1242.05269 0.02039
1240.76692 0.02028
1239.48115 0.02020
1238.19538 0.02012
1236.90961 0.02003
1235.62384 0.01992
1234.33807 0.01980
1233.05230 0.01968
1231.76654 0.01955
1230.48077 0.01939
1229.19500 0.01923
1227.90923 0.01908
1226.62346 0.01896
1225.33769 0.01887
1224.05192 0.01881
1222.76615 0.01875
1221.48039 0.01869
1220.19462 0.01857
1218.90885 0.01841
1217.62308 0.01824
1216.33731 0.01808
1215.05154 0.01796
1213.76577 0.01785
1212.48000 0.01778
1211.19423 0.01776
1209.90847 0.01777
1208.62270 0.01778
1207.33693 0.01776
1206.05116 0.01772
1204.76539 0.01768
1203.47962 0.01768
1202.19385 0.01771
1200.90808 0.01761
1199.62232 0.01736
1198.33655 0.01734
1197.05078 0.01734
1195.76501 0.01731
1194.47924 0.01725
1193.19347 0.01717
1191.90770 0.01709
1190.62193 0.01700
1189.33616 0.01685
1188.05040 0.01666
1186.76463 0.01650
1185.47886 0.01644
1184.19309 0.01647
1182.90732 0.01655
1181.62155 0.01660
1180.33578 0.01662
1179.05001 0.01659
1177.76425 0.01656
1176.47848 0.01656
1175.19271 0.01656
1173.90694 0.01658
1172.62117 0.01663
1171.33540 0.01676
1170.04963 0.01696
1168.76386 0.01717
1167.47809 0.01736
1166.19233 0.01751
1164.90656 0.01762
1163.62079 0.01772
1162.33502 0.01778
1161.04925 0.01781
1159.76348 0.01785
1158.47771 0.01793
1157.19194 0.01809
1155.90618 0.01826
1154.62041 0.01840
1153.33464 0.01848
1152.04887 0.01855
1150.76310 0.01868
1149.47733 0.01888
1148.19156 0.01913
1146.90579 0.01944
1145.62002 0.01981
1144.33426 0.02026
1143.04849 0.02078
1141.76272 0.02135
1140.47695 0.02195
1139.19118 0.02256
1137.90541 0.02320
1136.61964 0.02387
1135.33387 0.02467
1134.04811 0.02569
1132.76234 0.02698
1131.47657 0.02851
1130.19080 0.03017
1128.90503 0.03188
1127.61926 0.03362
1126.33349 0.03545
1125.04772 0.03744
1123.76195 0.03962
1122.47619 0.04197
1121.19042 0.04443
1119.90465 0.04694
1118.61888 0.04945
1117.33311 0.05191
1116.04734 0.05434
1114.76157 0.05676
1113.47580 0.05915
1112.19004 0.06147
1110.90427 0.06374
1109.61850 0.06604
1108.33273 0.06841
1107.04696 0.07078
1105.76119 0.07307
1104.47542 0.07521
1103.18965 0.07728
1101.90388 0.07930
1100.61812 0.08128
1099.33235 0.08321
1098.04658 0.08510
1096.76081 0.08696
1095.47504 0.08876
1094.18927 0.09045
1092.90350 0.09202
1091.61773 0.09347
1090.33197 0.09483
1089.04620 0.09614
1087.76043 0.09745
1086.47466 0.09877
1085.18889 0.10011
1083.90312 0.10145
1082.61735 0.10276
1081.33158 0.10410
1080.04581 0.10559
1078.76005 0.10730
1077.47428 0.10921
1076.18851 0.11124
1074.90274 0.11330
1073.61697 0.11541
1072.33120 0.11759
1071.04543 0.11983
1069.75966 0.12211
1068.47390 0.12442
1067.18813 0.12678
1065.90236 0.12921
1064.61659 0.13173
1063.33082 0.13432
1062.04505 0.13691
1060.75928 0.13949
1059.47351 0.14204
1058.18774 0.14458
1056.90198 0.14711
1055.61621 0.14960
1054.33044 0.15200
1053.04467 0.15427
1051.75890 0.15649
1050.47313 0.15873
1049.18736 0.16106
1047.90159 0.16344
1046.61583 0.16584
1045.33006 0.16826
1044.04429 0.17070
1042.75852 0.17314
1041.47275 0.17557
1040.18698 0.17799
1038.90121 0.18048
1037.61544 0.18306
1036.32967 0.18566
1035.04391 0.18815
1033.75814 0.19044
1032.47237 0.19254
1031.18660 0.19453
1029.90083 0.19642
1028.61506 0.19812
1027.32929 0.19959
1026.04352 0.20089
1024.75775 0.20205
1023.47199 0.20304
1022.18622 0.20376
1020.90045 0.20417
1019.61468 0.20428
1018.32891 0.20411
1017.04314 0.20362
1015.75737 0.20281
1014.47160 0.20168
1013.18584 0.20023
1011.90007 0.19848
1010.61430 0.19643
1009.32853 0.19410
1008.04276 0.19147
1006.75699 0.18851
1005.47122 0.18527
1004.18545 0.18181
1002.89968 0.17819
1001.61392 0.17437
1000.32815 0.17027
999.04238 0.16592
997.75661 0.16141
996.47084 0.15683
995.18507 0.15217
993.89930 0.14738
992.61353 0.14249
991.32777 0.13755
990.04200 0.13269
988.75623 0.12802
987.47046 0.12354
986.18469 0.11921
984.89892 0.11493
983.61315 0.11070
982.32738 0.10663
981.04161 0.10286
979.75585 0.09947
978.47008 0.09641
977.18431 0.09360
975.89854 0.09104
974.61277 0.08875
973.32700 0.08678
972.04123 0.08516
970.75546 0.08396
969.46970 0.08324
968.18393 0.08300
966.89816 0.08317
965.61239 0.08363
964.32662 0.08424
963.04085 0.08485
961.75508 0.08532
960.46931 0.08547
959.18354 0.08514
957.89778 0.08425
956.61201 0.08288
955.32624 0.08119
954.04047 0.07932
952.75470 0.07732
951.46893 0.07526
950.18316 0.07325
948.89739 0.07140
947.61163 0.06971
946.32586 0.06811
945.04009 0.06653
943.75432 0.06497
942.46855 0.06344
941.18278 0.06197
939.89701 0.06055
938.61124 0.05922
937.32547 0.05799
936.03971 0.05684
934.75394 0.05572
933.46817 0.05464
932.18240 0.05362
930.89663 0.05267
929.61086 0.05176
928.32509 0.05085
927.03932 0.04994
925.75356 0.04906
924.46779 0.04825
923.18202 0.04754
921.89625 0.04691
920.61048 0.04633
919.32471 0.04576
918.03894 0.04518
916.75317 0.04463
915.46740 0.04413
914.18164 0.04367
912.89587 0.04321
911.61010 0.04276
910.32433 0.04236
909.03856 0.04198
907.75279 0.04159
906.46702 0.04121
905.18125 0.04084
903.89549 0.04049
902.60972 0.04011
901.32395 0.03968
900.03818 0.03923
898.75241 0.03878
897.46664 0.03838
896.18087 0.03805
894.89510 0.03779
893.60933 0.03756
892.32357 0.03734
891.03780 0.03715
889.75203 0.03704
888.46626 0.03709
887.18049 0.03736
885.89472 0.03798
884.60895 0.03905
883.32318 0.04063
882.03742 0.04262
880.75165 0.04473
879.46588 0.04662
878.18011 0.04814
876.89434 0.04942
875.60857 0.05071
874.32280 0.05208
873.03703 0.05332
871.75126 0.05411
870.46550 0.05428
869.17973 0.05388
867.89396 0.05299
866.60819 0.05165
865.32242 0.04992
864.03665 0.04791
862.75088 0.04581
861.46511 0.04376
860.17935 0.04191
858.89358 0.04039
857.60781 0.03923
856.32204 0.03838
855.03627 0.03769
853.75050 0.03705
852.46473 0.03641
851.17896 0.03576
849.89319 0.03515
848.60743 0.03463
847.32166 0.03422
846.03589 0.03390
844.75012 0.03365
843.46435 0.03344
842.17858 0.03325
840.89281 0.03305
839.60704 0.03282
838.32128 0.03257
837.03551 0.03232
835.74974 0.03209
834.46397 0.03191
833.17820 0.03177
831.89243 0.03164
830.60666 0.03147
829.32089 0.03126
828.03512 0.03106
826.74936 0.03088
825.46359 0.03072
824.17782 0.03057
822.89205 0.03044
821.60628 0.03037
820.32051 0.03039
819.03474 0.03043
817.74897 0.03044
816.46321 0.03036
815.17744 0.03024
813.89167 0.03014
812.60590 0.03004
811.32013 0.02989
810.03436 0.02965
808.74859 0.02942
807.46282 0.02933
806.17705 0.02943
804.89129 0.02963
803.60552 0.02982
802.31975 0.02993
801.03398 0.02994
799.74821 0.02991
798.46244 0.02988
797.17667 0.02990
795.89090 0.02994
794.60513 0.02997
793.31937 0.03001
792.03360 0.03010
790.74783 0.03023
789.46206 0.03024
788.17629 0.03005
786.89052 0.02970
785.60475 0.02940
784.31898 0.02925
783.03322 0.02923
781.74745 0.02925
780.46168 0.02931
779.17591 0.02947
777.89014 0.02975
776.60437 0.03004
775.31860 0.03021
774.03283 0.03021
772.74706 0.03008
771.46130 0.02990
770.17553 0.02972
768.88976 0.02960
767.60399 0.02955
766.31822 0.02953
765.03245 0.02947
763.74668 0.02934
762.46091 0.02920
761.17515 0.02912
759.88938 0.02917
758.60361 0.02930
757.31784 0.02942
756.03207 0.02948
754.74630 0.02949
753.46053 0.02946
752.17476 0.02934
750.88899 0.02915
749.60323 0.02898
748.31746 0.02888
747.03169 0.02880
745.74592 0.02869
744.46015 0.02856
743.17438 0.02852
741.88861 0.02861
740.60284 0.02872
739.31708 0.02872
738.03131 0.02855
736.74554 0.02833
735.45977 0.02817
734.17400 0.02805
732.88823 0.02795
731.60246 0.02787
730.31669 0.02788
729.03092 0.02796
727.74516 0.02807
726.45939 0.02811
725.17362 0.02808
723.88785 0.02800
722.60208 0.02797
721.31631 0.02799
720.03054 0.02806
718.74477 0.02812
717.45901 0.02815
716.17324 0.02817
714.88747 0.02820
713.60170 0.02825
712.31593 0.02828
711.03016 0.02826
709.74439 0.02818
708.45862 0.02809
707.17285 0.02800
705.88709 0.02791
704.60132 0.02782
703.31555 0.02773
702.02978 0.02768
700.74401 0.02766
699.45824 0.02767
698.17247 0.02769
696.88670 0.02773
695.60094 0.02782
694.31517 0.02793
693.02940 0.02802
691.74363 0.02802
690.45786 0.02796
689.17209 0.02789
687.88632 0.02782
686.60055 0.02773
685.31478 0.02759
684.02902 0.02743
682.74325 0.02730
681.45748 0.02721
680.17171 0.02716
678.88594 0.02714
677.60017 0.02715
676.31440 0.02719
675.02863 0.02727
673.74287 0.02740
672.45710 0.02757
671.17133 0.02778
669.88556 0.02799
668.59979 0.02811
667.31402 0.02812
666.02825 0.02805
664.74248 0.02790
663.45671 0.02771
662.17095 0.02751
660.88518 0.02730
659.59941 0.02713
658.31364 0.02702
657.02787 0.02698
655.74210 0.02696
654.45633 0.02694
653.17056 0.02687
651.88480 0.02673
650.59903 0.02653
649.31326 0.02633
648.02749 0.02620
646.74172 0.02618
645.45595 0.02620
644.17018 0.02619
642.88441 0.02613
641.59864 0.02605
640.31288 0.02597
639.02711 0.02588
637.74134 0.02577
636.45557 0.02571
635.16980 0.02575
633.88403 0.02588
632.59826 0.02600
631.31249 0.02629
630.02673 0.02774
628.74096 0.02994
627.45519 0.02919
626.16942 0.03238
624.88365 0.03843
623.59788 0.04440
622.31211 0.04861
621.02634 0.05033
619.74057 0.04975
618.45481 0.04778
617.16904 0.04555
615.88327 0.04434
614.59750 0.04540
613.31173 0.04937
612.02596 0.05581
610.74019 0.06319
609.45442 0.06976
608.16866 0.07487
606.88289 0.07897
605.59712 0.08240
604.31135 0.08485
603.02558 0.08590
601.73981 0.08552
600.45404 0.08400
599.16827 0.08166
597.88250 0.07879
596.59674 0.07575
595.31097 0.07284
594.02520 0.07030
592.73943 0.06828
591.45366 0.06693
590.16789 0.06627
588.88212 0.06622
587.59635 0.06662
586.31059 0.06738
585.02482 0.06846
583.73905 0.06984
582.45328 0.07154
581.16751 0.07353
579.88174 0.07576
578.59597 0.07811
577.31020 0.08042
576.02443 0.08255
574.73867 0.08447
573.45290 0.08625
572.16713 0.08809
570.88136 0.09021
569.59559 0.09281
568.30982 0.09588
567.02405 0.09914
565.73828 0.10217
564.45251 0.10466
563.16675 0.10641
561.88098 0.10723
560.59521 0.10692
559.30944 0.10531
558.02367 0.10236
556.73790 0.09828
555.45213 0.09340
554.16636 0.08814
552.88060 0.08290
551.59483 0.07801
550.30906 0.07369
549.02329 0.06995
547.73752 0.06669
546.45175 0.06373
545.16598 0.06097
543.88021 0.05840
542.59444 0.05610
541.30868 0.05409
540.02291 0.05233
538.73714 0.05075
537.45137 0.04935
536.16560 0.04812
534.87983 0.04705
533.59406 0.04606
532.30829 0.04510
531.02253 0.04418
529.73676 0.04330
528.45099 0.04244
527.16522 0.04155
525.87945 0.04064
524.59368 0.03977
523.30791 0.03900
522.02214 0.03829
520.73637 0.03759
519.45061 0.03690
518.16484 0.03624
516.87907 0.03567
515.59330 0.03520
514.30753 0.03478
513.02176 0.03435
511.73599 0.03391
510.45022 0.03348
509.16446 0.03306
507.87869 0.03262
506.59292 0.03210
505.30715 0.03149
504.02138 0.03085
502.73561 0.03027
501.44984 0.02985
500.16407 0.02961
498.87830 0.02944
497.59254 0.02925
496.30677 0.02902
495.02100 0.02880
493.73523 0.02864
492.44946 0.02849
491.16369 0.02826
489.87792 0.02792
488.59215 0.02756
487.30639 0.02731
486.02062 0.02723
484.73485 0.02730
483.44908 0.02745
482.16331 0.02759
480.87754 0.02766
479.59177 0.02770
478.30600 0.02778
477.02023 0.02797
475.73447 0.02822
474.44870 0.02844
473.16293 0.02857
471.87716 0.02862
470.59139 0.02861
469.30562 0.02857
468.01985 0.02847
466.73408 0.02834
465.44832 0.02819
464.16255 0.02799
462.87678 0.02770
461.59101 0.02730
460.30524 0.02684
459.01947 0.02638
457.73370 0.02596
456.44793 0.02556
455.16216 0.02517
453.87640 0.02482
452.59063 0.02453
451.30486 0.02431
450.01909 0.02410
448.73332 0.02385
447.44755 0.02357
446.16178 0.02332
444.87601 0.02313
443.59025 0.02299
442.30448 0.02286
441.01871 0.02273
439.73294 0.02263
438.44717 0.02256
437.16140 0.02250
435.87563 0.02241
434.58986 0.02231
433.30409 0.02220
432.01833 0.02207
430.73256 0.02191
429.44679 0.02173
428.16102 0.02157
426.87525 0.02144
425.58948 0.02134
424.30371 0.02122
423.01794 0.02107
421.73218 0.02091
420.44641 0.02076
419.16064 0.02068
417.87487 0.02063
416.58910 0.02054
415.30333 0.02038
414.01756 0.02019
412.73179 0.02001
411.44602 0.01984
410.16026 0.01969
408.87449 0.01958
407.58872 0.01958
406.30295 0.01966
405.01718 0.01977
403.73141 0.01988
402.44564 0.01997
401.15987 0.02009
399.87411 0.02024
