3997.45528	0.03227
3996.16951	0.03227
3994.88374	0.03227
3993.59798	0.03228
3992.31221	0.03212
3991.02644	0.03161
3989.74067	0.03077
3988.45490	0.03000
3987.16913	0.02977
3985.88336	0.03031
3984.59759	0.03137
3983.31183	0.03239
3982.02606	0.03294
3980.74029	0.03307
3979.45452	0.03318
3978.16875	0.03360
3976.88298	0.03411
3975.59721	0.03418
3974.31144	0.03350
3973.02567	0.03235
3971.73991	0.03136
3970.45414	0.03094
3969.16837	0.03102
3967.88260	0.03134
3966.59683	0.03181
3965.31106	0.03244
3964.02529	0.03306
3962.73952	0.03312
3961.45376	0.03217
3960.16799	0.03047
3958.88222	0.02903
3957.59645	0.02882
3956.31068	0.02994
3955.02491	0.03153
3953.73914	0.03259
3952.45337	0.03270
3951.16760	0.03220
3949.88184	0.03171
3948.59607	0.03150
3947.31030	0.03147
3946.02453	0.03136
3944.73876	0.03105
3943.45299	0.03059
3942.16722	0.03015
3940.88145	0.02989
3939.59569	0.02990
3938.30992	0.03017
3937.02415	0.03052
3935.73838	0.03072
3934.45261	0.03069
3933.16684	0.03059
3931.88107	0.03070
3930.59530	0.03118
3929.30953	0.03184
3928.02377	0.03215
3926.73800	0.03178
3925.45223	0.03095
3924.16646	0.03033
3922.88069	0.03030
3921.59492	0.03064
3920.30915	0.03089
3919.02338	0.03083
3917.73762	0.03059
3916.45185	0.03045
3915.16608	0.03046
3913.88031	0.03044
3912.59454	0.03029
3911.30877	0.03012
3910.02300	0.03008
3908.73723	0.03030
3907.45146	0.03083
3906.16570	0.03152
3904.87993	0.03193
3903.59416	0.03161
3902.30839	0.03052
3901.02262	0.02935
3899.73685	0.02894
3898.45108	0.02949
3897.16531	0.03032
3895.87955	0.03079
3894.59378	0.03097
3893.30801	0.03132
3892.02224	0.03196
3890.73647	0.03253
3889.45070	0.03247
3888.16493	0.03162
3886.87916	0.03053
3885.59339	0.03005
3884.30763	0.03042
3883.02186	0.03107
3881.73609	0.03140
3880.45032	0.03133
3879.16455	0.03114
3877.87878	0.03108
3876.59301	0.03124
3875.30724	0.03163
3874.02148	0.03203
3872.73571	0.03207
3871.44994	0.03160
3870.16417	0.03097
3868.87840	0.03062
3867.59263	0.03046
3866.30686	0.03020
3865.02109	0.02980
3863.73532	0.02937
3862.44956	0.02898
3861.16379	0.02881
3859.87802	0.02903
3858.59225	0.02959
3857.30648	0.03018
3856.02071	0.03047
3854.73494	0.03044
3853.44917	0.03039
3852.16341	0.03035
3850.87764	0.03009
3849.59187	0.02962
3848.30610	0.02933
3847.02033	0.02955
3845.73456	0.03023
3844.44879	0.03106
3843.16302	0.03170
3841.87725	0.03191
3840.59149	0.03153
3839.30572	0.03059
3838.01995	0.02942
3836.73418	0.02848
3835.44841	0.02802
3834.16264	0.02810
3832.87687	0.02863
3831.59110	0.02935
3830.30534	0.02991
3829.01957	0.03004
3827.73380	0.02976
3826.44803	0.02942
3825.16226	0.02934
3823.87649	0.02946
3822.59072	0.02959
3821.30495	0.02979
3820.01918	0.03016
3818.73342	0.03044
3817.44765	0.03037
3816.16188	0.03021
3814.87611	0.03029
3813.59034	0.03050
3812.30457	0.03068
3811.01880	0.03098
3809.73303	0.03133
3808.44726	0.03132
3807.16150	0.03082
3805.87573	0.03019
3804.58996	0.02973
3803.30419	0.02953
3802.01842	0.02969
3800.73265	0.03011
3799.44688	0.03024
3798.16111	0.02958
3796.87535	0.02848
3795.58958	0.02766
3794.30381	0.02749
3793.01804	0.02795
3791.73227	0.02877
3790.44650	0.02955
3789.16073	0.02986
3787.87496	0.02958
3786.58919	0.02902
3785.30343	0.02859
3784.01766	0.02848
3782.73189	0.02861
3781.44612	0.02876
3780.16035	0.02874
3778.87458	0.02844
3777.58881	0.02783
3776.30304	0.02710
3775.01728	0.02666
3773.73151	0.02672
3772.44574	0.02714
3771.15997	0.02764
3769.87420	0.02816
3768.58843	0.02867
3767.30266	0.02900
3766.01689	0.02902
3764.73112	0.02879
3763.44536	0.02841
3762.15959	0.02790
3760.87382	0.02737
3759.58805	0.02695
3758.30228	0.02667
3757.01651	0.02653
3755.73074	0.02659
3754.44497	0.02689
3753.15921	0.02747
3751.87344	0.02822
3750.58767	0.02881
3749.30190	0.02909
3748.01613	0.02913
3746.73036	0.02884
3745.44459	0.02831
3744.15882	0.02810
3742.87305	0.02842
3741.58729	0.02882
3740.30152	0.02898
3739.01575	0.02875
3737.72998	0.02814
3736.44421	0.02757
3735.15844	0.02757
3733.87267	0.02798
3732.58690	0.02820
3731.30114	0.02800
3730.01537	0.02751
3728.72960	0.02705
3727.44383	0.02695
3726.15806	0.02741
3724.87229	0.02824
3723.58652	0.02899
3722.30075	0.02938
3721.01498	0.02940
3719.72922	0.02924
3718.44345	0.02922
3717.15768	0.02962
3715.87191	0.03032
3714.58614	0.03077
3713.30037	0.03050
3712.01460	0.02969
3710.72883	0.02882
3709.44307	0.02822
3708.15730	0.02784
3706.87153	0.02754
3705.58576	0.02719
3704.29999	0.02682
3703.01422	0.02666
3701.72845	0.02694
3700.44268	0.02756
3699.15691	0.02811
3697.87115	0.02832
3696.58538	0.02831
3695.29961	0.02827
3694.01384	0.02825
3692.72807	0.02827
3691.44230	0.02833
3690.15653	0.02831
3688.87076	0.02821
3687.58500	0.02820
3686.29923	0.02832
3685.01346	0.02845
3683.72769	0.02857
3682.44192	0.02877
3681.15615	0.02910
3679.87038	0.02966
3678.58461	0.03034
3677.29884	0.03073
3676.01308	0.03051
3674.72731	0.02980
3673.44154	0.02889
3672.15577	0.02821
3670.87000	0.02836
3669.58423	0.02937
3668.29846	0.03044
3667.01269	0.03082
3665.72693	0.03051
3664.44116	0.02995
3663.15539	0.02948
3661.86962	0.02933
3660.58385	0.02962
3659.29808	0.03011
3658.01231	0.03025
3656.72654	0.02983
3655.44077	0.02930
3654.15501	0.02917
3652.86924	0.02932
3651.58347	0.02922
3650.29770	0.02869
3649.01193	0.02814
3647.72616	0.02811
3646.44039	0.02873
3645.15462	0.02960
3643.86886	0.03030
3642.58309	0.03065
3641.29732	0.03073
3640.01155	0.03069
3638.72578	0.03072
3637.44001	0.03100
3636.15424	0.03150
3634.86847	0.03204
3633.58270	0.03246
3632.29694	0.03263
3631.01117	0.03250
3629.72540	0.03232
3628.43963	0.03255
3627.15386	0.03324
3625.86809	0.03398
3624.58232	0.03456
3623.29655	0.03515
3622.01079	0.03584
3620.72502	0.03643
3619.43925	0.03661
3618.15348	0.03624
3616.86771	0.03561
3615.58194	0.03515
3614.29617	0.03512
3613.01040	0.03543
3611.72463	0.03585
3610.43887	0.03619
3609.15310	0.03641
3607.86733	0.03660
3606.58156	0.03677
3605.29579	0.03685
3604.01002	0.03687
3602.72425	0.03700
3601.43848	0.03745
3600.15272	0.03824
3598.86695	0.03903
3597.58118	0.03936
3596.29541	0.03904
3595.00964	0.03833
3593.72387	0.03778
3592.43810	0.03783
3591.15233	0.03854
3589.86656	0.03960
3588.58080	0.04055
3587.29503	0.04106
3586.00926	0.04095
3584.72349	0.04033
3583.43772	0.03956
3582.15195	0.03908
3580.86618	0.03906
3579.58041	0.03937
3578.29464	0.03978
3577.00888	0.04019
3575.72311	0.04064
3574.43734	0.04115
3573.15157	0.04163
3571.86580	0.04198
3570.58003	0.04218
3569.29426	0.04229
3568.00849	0.04243
3566.72273	0.04270
3565.43696	0.04301
3564.15119	0.04316
3562.86542	0.04306
3561.57965	0.04282
3560.29388	0.04270
3559.00811	0.04289
3557.72234	0.04336
3556.43657	0.04397
3555.15081	0.04449
3553.86504	0.04469
3552.57927	0.04450
3551.29350	0.04413
3550.00773	0.04396
3548.72196	0.04425
3547.43619	0.04499
3546.15042	0.04598
3544.86466	0.04684
3543.57889	0.04722
3542.29312	0.04698
3541.00735	0.04643
3539.72158	0.04613
3538.43581	0.04638
3537.15004	0.04700
3535.86427	0.04760
3534.57850	0.04810
3533.29274	0.04866
3532.00697	0.04925
3530.72120	0.04958
3529.43543	0.04948
3528.14966	0.04913
3526.86389	0.04903
3525.57812	0.04946
3524.29235	0.05027
3523.00659	0.05101
3521.72082	0.05143
3520.43505	0.05156
3519.14928	0.05169
3517.86351	0.05202
3516.57774	0.05253
3515.29197	0.05302
3514.00620	0.05324
3512.72043	0.05307
3511.43467	0.05260
3510.14890	0.05206
3508.86313	0.05176
3507.57736	0.05183
3506.29159	0.05219
3505.00582	0.05261
3503.72005	0.05292
3502.43428	0.05312
3501.14852	0.05334
3499.86275	0.05369
3498.57698	0.05420
3497.29121	0.05478
3496.00544	0.05529
3494.71967	0.05560
3493.43390	0.05571
3492.14813	0.05567
3490.86236	0.05564
3489.57660	0.05575
3488.29083	0.05604
3487.00506	0.05641
3485.71929	0.05672
3484.43352	0.05689
3483.14775	0.05697
3481.86198	0.05705
3480.57621	0.05710
3479.29045	0.05706
3478.00468	0.05696
3476.71891	0.05691
3475.43314	0.05702
3474.14737	0.05725
3472.86160	0.05748
3471.57583	0.05762
3470.29006	0.05771
3469.00429	0.05786
3467.71853	0.05811
3466.43276	0.05833
3465.14699	0.05840
3463.86122	0.05830
3462.57545	0.05813
3461.28968	0.05799
3460.00391	0.05802
3458.71814	0.05831
3457.43238	0.05883
3456.14661	0.05937
3454.86084	0.05976
3453.57507	0.06006
3452.28930	0.06047
3451.00353	0.06107
3449.71776	0.06162
3448.43199	0.06187
3447.14622	0.06174
3445.86046	0.06144
3444.57469	0.06119
3443.28892	0.06109
3442.00315	0.06109
3440.71738	0.06116
3439.43161	0.06138
3438.14584	0.06181
3436.86007	0.06235
3435.57431	0.06271
3434.28854	0.06267
3433.00277	0.06225
3431.71700	0.06177
3430.43123	0.06156
3429.14546	0.06173
3427.85969	0.06213
3426.57392	0.06250
3425.28815	0.06276
3424.00239	0.06303
3422.71662	0.06342
3421.43085	0.06383
3420.14508	0.06406
3418.85931	0.06405
3417.57354	0.06403
3416.28777	0.06425
3415.00200	0.06467
3413.71624	0.06498
3412.43047	0.06489
3411.14470	0.06448
3409.85893	0.06420
3408.57316	0.06446
3407.28739	0.06526
3406.00162	0.06618
3404.71585	0.06675
3403.43008	0.06690
3402.14432	0.06687
3400.85855	0.06694
3399.57278	0.06703
3398.28701	0.06686
3397.00124	0.06638
3395.71547	0.06595
3394.42970	0.06592
3393.14393	0.06636
3391.85817	0.06691
3390.57240	0.06719
3389.28663	0.06713
3388.00086	0.06686
3386.71509	0.06655
3385.42932	0.06625
3384.14355	0.06598
3382.85778	0.06589
3381.57201	0.06603
3380.28625	0.06631
3379.00048	0.06652
3377.71471	0.06662
3376.42894	0.06671
3375.14317	0.06693
3373.85740	0.06724
3372.57163	0.06750
3371.28586	0.06768
3370.00010	0.06792
3368.71433	0.06832
3367.42856	0.06884
3366.14279	0.06926
3364.85702	0.06926
3363.57125	0.06873
3362.28548	0.06788
3360.99971	0.06711
3359.71394	0.06677
3358.42818	0.06693
3357.14241	0.06741
3355.85664	0.06803
3354.57087	0.06865
3353.28510	0.06907
3351.99933	0.06906
3350.71356	0.06860
3349.42779	0.06793
3348.14202	0.06740
3346.85626	0.06714
3345.57049	0.06718
3344.28472	0.06753
3342.99895	0.06818
3341.71318	0.06894
3340.42741	0.06944
3339.14164	0.06943
3337.85587	0.06895
3336.57011	0.06834
3335.28434	0.06793
3333.99857	0.06773
3332.71280	0.06754
3331.42703	0.06729
3330.14126	0.06712
3328.85549	0.06720
3327.56972	0.06744
3326.28395	0.06752
3324.99819	0.06732
3323.71242	0.06706
3322.42665	0.06704
3321.14088	0.06730
3319.85511	0.06754
3318.56934	0.06750
3317.28357	0.06723
3315.99780	0.06708
3314.71204	0.06728
3313.42627	0.06773
3312.14050	0.06809
3310.85473	0.06816
3309.56896	0.06793
3308.28319	0.06757
3306.99742	0.06729
3305.71165	0.06725
3304.42588	0.06747
3303.14012	0.06776
3301.85435	0.06787
3300.56858	0.06771
3299.28281	0.06742
3297.99704	0.06724
3296.71127	0.06731
3295.42550	0.06758
3294.13973	0.06779
3292.85397	0.06768
3291.56820	0.06725
3290.28243	0.06678
3288.99666	0.06660
3287.71089	0.06676
3286.42512	0.06703
3285.13935	0.06714
3283.85358	0.06709
3282.56781	0.06705
3281.28205	0.06717
3279.99628	0.06747
3278.71051	0.06786
3277.42474	0.06822
3276.13897	0.06837
3274.85320	0.06814
3273.56743	0.06749
3272.28166	0.06670
3270.99590	0.06617
3269.71013	0.06610
3268.42436	0.06634
3267.13859	0.06662
3265.85282	0.06689
3264.56705	0.06724
3263.28128	0.06769
3261.99551	0.06800
3260.70974	0.06790
3259.42398	0.06738
3258.13821	0.06666
3256.85244	0.06596
3255.56667	0.06543
3254.28090	0.06511
3252.99513	0.06502
3251.70936	0.06512
3250.42359	0.06531
3249.13783	0.06551
3247.85206	0.06565
3246.56629	0.06570
3245.28052	0.06562
3243.99475	0.06545
3242.70898	0.06538
3241.42321	0.06552
3240.13744	0.06579
3238.85167	0.06594
3237.56591	0.06588
3236.28014	0.06572
3234.99437	0.06564
3233.70860	0.06565
3232.42283	0.06569
3231.13706	0.06570
3229.85129	0.06570
3228.56552	0.06571
3227.27976	0.06570
3225.99399	0.06563
3224.70822	0.06539
3223.42245	0.06498
3222.13668	0.06448
3220.85091	0.06403
3219.56514	0.06372
3218.27937	0.06359
3216.99360	0.06366
3215.70784	0.06390
3214.42207	0.06421
3213.13630	0.06438
3211.85053	0.06431
3210.56476	0.06405
3209.27899	0.06385
3207.99322	0.06389
3206.70745	0.06407
3205.42169	0.06405
3204.13592	0.06354
3202.85015	0.06263
3201.56438	0.06176
3200.27861	0.06138
3198.99284	0.06154
3197.70707	0.06198
3196.42130	0.06235
3195.13553	0.06253
3193.84977	0.06261
3192.56400	0.06273
3191.27823	0.06284
3189.99246	0.06279
3188.70669	0.06255
3187.42092	0.06219
3186.13515	0.06184
3184.84938	0.06152
3183.56362	0.06128
3182.27785	0.06122
3180.99208	0.06141
3179.70631	0.06174
3178.42054	0.06200
3177.13477	0.06203
3175.84900	0.06183
3174.56323	0.06154
3173.27746	0.06125
3171.99170	0.06092
3170.70593	0.06054
3169.42016	0.06020
3168.13439	0.06006
3166.84862	0.06009
3165.56285	0.06015
3164.27708	0.06014
3162.99131	0.06010
3161.70555	0.06004
3160.41978	0.05992
3159.13401	0.05972
3157.84824	0.05954
3156.56247	0.05954
3155.27670	0.05965
3153.99093	0.05966
3152.70516	0.05938
3151.41939	0.05888
3150.13363	0.05847
3148.84786	0.05838
3147.56209	0.05856
3146.27632	0.05880
3144.99055	0.05897
3143.70478	0.05902
3142.41901	0.05889
3141.13324	0.05854
3139.84748	0.05807
3138.56171	0.05764
3137.27594	0.05738
3135.99017	0.05726
3134.70440	0.05727
3133.41863	0.05735
3132.13286	0.05748
3130.84709	0.05762
3129.56132	0.05775
3128.27556	0.05782
3126.98979	0.05778
3125.70402	0.05761
3124.41825	0.05736
3123.13248	0.05712
3121.84671	0.05694
3120.56094	0.05676
3119.27517	0.05655
3117.98940	0.05628
3116.70364	0.05601
3115.41787	0.05578
3114.13210	0.05560
3112.84633	0.05547
3111.56056	0.05541
3110.27479	0.05549
3108.98902	0.05565
3107.70325	0.05575
3106.41749	0.05565
3105.13172	0.05546
3103.84595	0.05536
3102.56018	0.05545
3101.27441	0.05567
3099.98864	0.05589
3098.70287	0.05603
3097.41710	0.05604
3096.13133	0.05590
3094.84557	0.05565
3093.55980	0.05529
3092.27403	0.05484
3090.98826	0.05441
3089.70249	0.05420
3088.41672	0.05434
3087.13095	0.05474
3085.84518	0.05515
3084.55942	0.05532
3083.27365	0.05520
3081.98788	0.05493
3080.70211	0.05467
3079.41634	0.05448
3078.13057	0.05432
3076.84480	0.05423
3075.55903	0.05429
3074.27326	0.05450
3072.98750	0.05471
3071.70173	0.05480
3070.41596	0.05468
3069.13019	0.05435
3067.84442	0.05388
3066.55865	0.05346
3065.27288	0.05329
3063.98711	0.05345
3062.70135	0.05383
3061.41558	0.05423
3060.12981	0.05447
3058.84404	0.05446
3057.55827	0.05421
3056.27250	0.05379
3054.98673	0.05334
3053.70096	0.05295
3052.41519	0.05264
3051.12943	0.05231
3049.84366	0.05188
3048.55789	0.05142
3047.27212	0.05112
3045.98635	0.05116
3044.70058	0.05148
3043.41481	0.05178
3042.12904	0.05180
3040.84328	0.05154
3039.55751	0.05127
3038.27174	0.05123
3036.98597	0.05146
3035.70020	0.05172
3034.41443	0.05178
3033.12866	0.05153
3031.84289	0.05104
3030.55712	0.05053
3029.27136	0.05022
3027.98559	0.05017
3026.69982	0.05027
3025.41405	0.05034
3024.12828	0.05031
3022.84251	0.05021
3021.55674	0.05009
3020.27097	0.04998
3018.98521	0.04991
3017.69944	0.04979
3016.41367	0.04954
3015.12790	0.04909
3013.84213	0.04858
3012.55636	0.04821
3011.27059	0.04810
3009.98482	0.04818
3008.69905	0.04827
3007.41329	0.04834
3006.12752	0.04854
3004.84175	0.04890
3003.55598	0.04930
3002.27021	0.04951
3000.98444	0.04947
2999.69867	0.04931
2998.41290	0.04920
2997.12714	0.04920
2995.84137	0.04924
2994.55560	0.04918
2993.26983	0.04901
2991.98406	0.04876
2990.69829	0.04848
2989.41252	0.04819
2988.12675	0.04796
2986.84098	0.04789
2985.55522	0.04803
2984.26945	0.04826
2982.98368	0.04841
2981.69791	0.04841
2980.41214	0.04831
2979.12637	0.04820
2977.84060	0.04807
2976.55483	0.04790
2975.26907	0.04779
2973.98330	0.04783
2972.69753	0.04803
2971.41176	0.04831
2970.12599	0.04865
2968.84022	0.04906
2967.55445	0.04953
2966.26868	0.05007
2964.98291	0.05061
2963.69715	0.05106
2962.41138	0.05128
2961.12561	0.05127
2959.83984	0.05114
2958.55407	0.05104
2957.26830	0.05104
2955.98253	0.05116
2954.69676	0.05142
2953.41100	0.05179
2952.12523	0.05218
2950.83946	0.05245
2949.55369	0.05253
2948.26792	0.05243
2946.98215	0.05217
2945.69638	0.05184
2944.41061	0.05155
2943.12484	0.05141
2941.83908	0.05136
2940.55331	0.05127
2939.26754	0.05108
2937.98177	0.05087
2936.69600	0.05072
2935.41023	0.05058
2934.12446	0.05034
2932.83869	0.04991
2931.55293	0.04919
2930.26716	0.04820
2928.98139	0.04711
2927.69562	0.04617
2926.40985	0.04552
2925.12408	0.04502
2923.83831	0.04442
2922.55254	0.04353
2921.26677	0.04240
2919.98101	0.04123
2918.69524	0.04028
2917.40947	0.03981
2916.12370	0.04001
2914.83793	0.04084
2913.55216	0.04202
2912.26639	0.04323
2910.98062	0.04425
2909.69486	0.04501
2908.40909	0.04554
2907.12332	0.04591
2905.83755	0.04624
2904.55178	0.04657
2903.26601	0.04686
2901.98024	0.04706
2900.69447	0.04718
2899.40870	0.04729
2898.12294	0.04739
2896.83717	0.04747
2895.55140	0.04745
2894.26563	0.04735
2892.97986	0.04722
2891.69409	0.04711
2890.40832	0.04694
2889.12255	0.04660
2887.83678	0.04614
2886.55102	0.04575
2885.26525	0.04563
2883.97948	0.04577
2882.69371	0.04602
2881.40794	0.04615
2880.12217	0.04607
2878.83640	0.04596
2877.55063	0.04602
2876.26487	0.04626
2874.97910	0.04656
2873.69333	0.04683
2872.40756	0.04709
2871.12179	0.04730
2869.83602	0.04737
2868.55025	0.04721
2867.26448	0.04686
2865.97871	0.04641
2864.69295	0.04595
2863.40718	0.04550
2862.12141	0.04506
2860.83564	0.04465
2859.54987	0.04423
2858.26410	0.04368
2856.97833	0.04284
2855.69256	0.04170
2854.40680	0.04042
2853.12103	0.03915
2851.83526	0.03806
2850.54949	0.03734
2849.26372	0.03719
2847.97795	0.03764
2846.69218	0.03854
2845.40641	0.03964
2844.12064	0.04068
2842.83488	0.04154
2841.54911	0.04217
2840.26334	0.04253
2838.97757	0.04264
2837.69180	0.04259
2836.40603	0.04251
2835.12026	0.04243
2833.83449	0.04220
2832.54873	0.04167
2831.26296	0.04098
2829.97719	0.04045
2828.69142	0.04029
2827.40565	0.04043
2826.11988	0.04060
2824.83411	0.04062
2823.54834	0.04047
2822.26257	0.04016
2820.97681	0.03971
2819.69104	0.03924
2818.40527	0.03888
2817.11950	0.03873
2815.83373	0.03874
2814.54796	0.03884
2813.26219	0.03895
2811.97642	0.03904
2810.69066	0.03904
2809.40489	0.03896
2808.11912	0.03881
2806.83335	0.03867
2805.54758	0.03862
2804.26181	0.03869
2802.97604	0.03879
2801.69027	0.03879
2800.40450	0.03864
2799.11874	0.03837
2797.83297	0.03803
2796.54720	0.03768
2795.26143	0.03741
2793.97566	0.03732
2792.68989	0.03744
2791.40412	0.03766
2790.11835	0.03786
2788.83259	0.03795
2787.54682	0.03787
2786.26105	0.03758
2784.97528	0.03714
2783.68951	0.03673
2782.40374	0.03652
2781.11797	0.03653
2779.83220	0.03665
2778.54643	0.03679
2777.26067	0.03700
2775.97490	0.03727
2774.68913	0.03752
2773.40336	0.03760
2772.11759	0.03743
2770.83182	0.03710
2769.54605	0.03674
2768.26028	0.03644
2766.97452	0.03627
2765.68875	0.03621
2764.40298	0.03621
2763.11721	0.03621
2761.83144	0.03614
2760.54567	0.03597
2759.25990	0.03572
2757.97413	0.03544
2756.68836	0.03519
2755.40260	0.03510
2754.11683	0.03523
2752.83106	0.03547
2751.54529	0.03559
2750.25952	0.03548
2748.97375	0.03522
2747.68798	0.03500
2746.40221	0.03491
2745.11645	0.03491
2743.83068	0.03497
2742.54491	0.03506
2741.25914	0.03505
2739.97337	0.03485
2738.68760	0.03447
2737.40183	0.03411
2736.11606	0.03394
2734.83029	0.03402
2733.54453	0.03426
2732.25876	0.03452
2730.97299	0.03466
2729.68722	0.03456
2728.40145	0.03430
2727.11568	0.03410
2725.82991	0.03407
2724.54414	0.03412
2723.25838	0.03406
2721.97261	0.03384
2720.68684	0.03359
2719.40107	0.03341
2718.11530	0.03328
2716.82953	0.03312
2715.54376	0.03294
2714.25799	0.03287
2712.97222	0.03299
2711.68646	0.03321
2710.40069	0.03336
2709.11492	0.03332
2707.82915	0.03312
2706.54338	0.03287
2705.25761	0.03274
2703.97184	0.03279
2702.68607	0.03297
2701.40031	0.03313
2700.11454	0.03314
2698.82877	0.03301
2697.54300	0.03280
2696.25723	0.03259
2694.97146	0.03244
2693.68569	0.03241
2692.39992	0.03251
2691.11415	0.03268
2689.82839	0.03281
2688.54262	0.03288
2687.25685	0.03287
2685.97108	0.03277
2684.68531	0.03253
2683.39954	0.03222
2682.11377	0.03195
2680.82800	0.03183
2679.54224	0.03181
2678.25647	0.03182
2676.97070	0.03179
2675.68493	0.03176
2674.39916	0.03177
2673.11339	0.03180
2671.82762	0.03180
2670.54185	0.03170
2669.25608	0.03155
2667.97032	0.03146
2666.68455	0.03154
2665.39878	0.03174
2664.11301	0.03191
2662.82724	0.03194
2661.54147	0.03186
2660.25570	0.03180
2658.96993	0.03180
2657.68417	0.03181
2656.39840	0.03173
2655.11263	0.03158
2653.82686	0.03146
2652.54109	0.03139
2651.25532	0.03127
2649.96955	0.03103
2648.68378	0.03072
2647.39801	0.03043
2646.11225	0.03022
2644.82648	0.03012
2643.54071	0.03009
2642.25494	0.03007
2640.96917	0.03000
2639.68340	0.02991
2638.39763	0.02985
2637.11186	0.02985
2635.82609	0.02986
2634.54033	0.02975
2633.25456	0.02945
2631.96879	0.02899
2630.68302	0.02849
2629.39725	0.02813
2628.11148	0.02794
2626.82571	0.02782
2625.53994	0.02771
2624.25418	0.02765
2622.96841	0.02771
2621.68264	0.02785
2620.39687	0.02795
2619.11110	0.02789
2617.82533	0.02768
2616.53956	0.02743
2615.25379	0.02725
2613.96802	0.02714
2612.68226	0.02711
2611.39649	0.02713
2610.11072	0.02714
2608.82495	0.02701
2607.53918	0.02682
2606.25341	0.02675
2604.96764	0.02695
2603.68187	0.02726
2602.39611	0.02739
2601.11034	0.02725
2599.82457	0.02696
2598.53880	0.02673
2597.25303	0.02660
2595.96726	0.02651
2594.68149	0.02633
2593.39572	0.02602
2592.10995	0.02567
2590.82419	0.02540
2589.53842	0.02523
2588.25265	0.02504
2586.96688	0.02475
2585.68111	0.02455
2584.39534	0.02473
2583.10957	0.02526
2581.82380	0.02570
2580.53804	0.02570
2579.25227	0.02533
2577.96650	0.02502
2576.68073	0.02502
2575.39496	0.02527
2574.10919	0.02553
2572.82342	0.02565
2571.53765	0.02559
2570.25188	0.02529
2568.96612	0.02481
2567.68035	0.02429
2566.39458	0.02388
2565.10881	0.02360
2563.82304	0.02343
2562.53727	0.02335
2561.25150	0.02339
2559.96573	0.02353
2558.67997	0.02365
2557.39420	0.02370
2556.10843	0.02373
2554.82266	0.02383
2553.53689	0.02404
2552.25112	0.02429
2550.96535	0.02440
2549.67958	0.02424
2548.39381	0.02390
2547.10805	0.02366
2545.82228	0.02369
2544.53651	0.02389
2543.25074	0.02401
2541.96497	0.02397
2540.67920	0.02388
2539.39343	0.02385
2538.10766	0.02386
2536.82190	0.02380
2535.53613	0.02355
2534.25036	0.02317
2532.96459	0.02274
2531.67882	0.02239
2530.39305	0.02224
2529.10728	0.02238
2527.82151	0.02277
2526.53574	0.02314
2525.24998	0.02315
2523.96421	0.02284
2522.67844	0.02257
2521.39267	0.02266
2520.10690	0.02304
2518.82113	0.02343
2517.53536	0.02362
2516.24959	0.02357
2514.96383	0.02340
2513.67806	0.02320
2512.39229	0.02305
2511.10652	0.02294
2509.82075	0.02286
2508.53498	0.02285
2507.24921	0.02288
2505.96344	0.02283
2504.67767	0.02262
2503.39191	0.02231
2502.10614	0.02210
2500.82037	0.02213
2499.53460	0.02233
2498.24883	0.02252
2496.96306	0.02257
2495.67729	0.02249
2494.39152	0.02232
2493.10576	0.02209
2491.81999	0.02191
2490.53422	0.02197
2489.24845	0.02235
2487.96268	0.02283
2486.67691	0.02312
2485.39114	0.02316
2484.10537	0.02304
2482.81960	0.02283
2481.53384	0.02255
2480.24807	0.02221
2478.96230	0.02189
2477.67653	0.02166
2476.39076	0.02159
2475.10499	0.02161
2473.81922	0.02162
2472.53345	0.02156
2471.24769	0.02143
2469.96192	0.02127
2468.67615	0.02119
2467.39038	0.02129
2466.10461	0.02155
2464.81884	0.02178
2463.53307	0.02181
2462.24730	0.02171
2460.96153	0.02166
2459.67577	0.02163
2458.39000	0.02152
2457.10423	0.02140
2455.81846	0.02147
2454.53269	0.02176
2453.24692	0.02201
2451.96115	0.02201
2450.67538	0.02193
2449.38962	0.02204
2448.10385	0.02231
2446.81808	0.02232
2445.53231	0.02187
2444.24654	0.02130
2442.96077	0.02105
2441.67500	0.02118
2440.38923	0.02136
2439.10346	0.02134
2437.81770	0.02117
2436.53193	0.02106
2435.24616	0.02112
2433.96039	0.02124
2432.67462	0.02126
2431.38885	0.02113
2430.10308	0.02098
2428.81731	0.02095
2427.53155	0.02103
2426.24578	0.02110
2424.96001	0.02108
2423.67424	0.02103
2422.38847	0.02109
2421.10270	0.02134
2419.81693	0.02164
2418.53116	0.02171
2417.24539	0.02145
2415.95963	0.02101
2414.67386	0.02060
2413.38809	0.02029
2412.10232	0.02007
2410.81655	0.01997
2409.53078	0.02003
2408.24501	0.02026
2406.95924	0.02057
2405.67347	0.02084
2404.38771	0.02096
2403.10194	0.02090
2401.81617	0.02069
2400.53040	0.02041
2399.24463	0.02025
2397.95886	0.02026
2396.67309	0.02037
2395.38732	0.02043
2394.10156	0.02039
2392.81579	0.02032
2391.53002	0.02036
2390.24425	0.02055
2388.95848	0.02078
2387.67271	0.02092
2386.38694	0.02086
2385.10117	0.02063
2383.81540	0.02038
2382.52964	0.02027
2381.24387	0.02036
2379.95810	0.02060
2378.67233	0.02084
2377.38656	0.02096
2376.10079	0.02093
2374.81502	0.02078
2373.52925	0.02053
2372.24349	0.02025
2370.95772	0.02009
2369.67195	0.02019
2368.38618	0.02054
2367.10041	0.02091
2365.81464	0.02109
2364.52887	0.02105
2363.24310	0.02094
2361.95733	0.02090
2360.67157	0.02096
2359.38580	0.02108
2358.10003	0.02122
2356.81426	0.02138
2355.52849	0.02150
2354.24272	0.02149
2352.95695	0.02136
2351.67118	0.02120
2350.38542	0.02113
2349.09965	0.02118
2347.81388	0.02128
2346.52811	0.02133
2345.24234	0.02131
2343.95657	0.02129
2342.67080	0.02133
2341.38503	0.02151
2340.09926	0.02179
2338.81350	0.02206
2337.52773	0.02219
2336.24196	0.02213
2334.95619	0.02190
2333.67042	0.02156
2332.38465	0.02118
2331.09888	0.02092
2329.81311	0.02097
2328.52735	0.02145
2327.24158	0.02224
2325.95581	0.02304
2324.67004	0.02354
2323.38427	0.02352
2322.09850	0.02305
2320.81273	0.02237
2319.52696	0.02182
2318.24119	0.02153
2316.95543	0.02140
2315.66966	0.02126
2314.38389	0.02107
2313.09812	0.02091
2311.81235	0.02088
2310.52658	0.02090
2309.24081	0.02085
2307.95504	0.02064
2306.66928	0.02029
2305.38351	0.01995
2304.09774	0.01974
2302.81197	0.01971
2301.52620	0.01978
2300.24043	0.01981
2298.95466	0.01971
2297.66889	0.01958
2296.38312	0.01961
2295.09736	0.01986
2293.81159	0.02017
2292.52582	0.02033
2291.24005	0.02028
2289.95428	0.02012
2288.66851	0.01994
2287.38274	0.01975
2286.09697	0.01951
2284.81121	0.01921
2283.52544	0.01891
2282.23967	0.01867
2280.95390	0.01851
2279.66813	0.01838
2278.38236	0.01815
2277.09659	0.01770
2275.81082	0.01712
2274.52505	0.01668
2273.23929	0.01663
2271.95352	0.01696
2270.66775	0.01735
2269.38198	0.01754
2268.09621	0.01744
2266.81044	0.01718
2265.52467	0.01695
2264.23890	0.01694
2262.95314	0.01717
2261.66737	0.01737
2260.38160	0.01719
2259.09583	0.01660
2257.81006	0.01597
2256.52429	0.01566
2255.23852	0.01562
2253.95275	0.01560
2252.66698	0.01550
2251.38122	0.01548
2250.09545	0.01561
2248.80968	0.01581
2247.52391	0.01585
2246.23814	0.01554
2244.95237	0.01498
2243.66660	0.01454
2242.38083	0.01453
2241.09507	0.01487
2239.80930	0.01507
2238.52353	0.01478
2237.23776	0.01413
2235.95199	0.01368
2234.66622	0.01374
2233.38045	0.01408
2232.09468	0.01413
2230.80891	0.01355
2229.52315	0.01251
2228.23738	0.01152
2226.95161	0.01099
2225.66584	0.01091
2224.38007	0.01096
2223.09430	0.01096
2221.80853	0.01104
2220.52276	0.01141
2219.23700	0.01194
2217.95123	0.01226
2216.66546	0.01227
2215.37969	0.01225
2214.09392	0.01236
2212.80815	0.01242
2211.52238	0.01222
2210.23661	0.01191
2208.95084	0.01180
2207.66508	0.01186
2206.37931	0.01176
2205.09354	0.01127
2203.80777	0.01066
2202.52200	0.01050
2201.23623	0.01105
2199.95046	0.01181
2198.66469	0.01187
2197.37893	0.01085
2196.09316	0.00934
2194.80739	0.00837
2193.52162	0.00850
2192.23585	0.00950
2190.95008	0.01068
2189.66431	0.01145
2188.37854	0.01162
2187.09277	0.01137
2185.80701	0.01097
2184.52124	0.01041
2183.23547	0.00953
2181.94970	0.00846
2180.66393	0.00768
2179.37816	0.00747
2178.09239	0.00748
2176.80662	0.00735
2175.52085	0.00722
2174.23509	0.00752
2172.94932	0.00822
2171.66355	0.00880
2170.37778	0.00883
2169.09201	0.00837
2167.80624	0.00781
2166.52047	0.00743
2165.23470	0.00712
2163.94894	0.00653
2162.66317	0.00541
2161.37740	0.00389
2160.09163	0.00243
2158.80586	0.00154
2157.52009	0.00146
2156.23432	0.00198
2154.94855	0.00268
2153.66278	0.00332
2152.37702	0.00405
2151.09125	0.00513
2149.80548	0.00657
2148.51971	0.00807
2147.23394	0.00929
2145.94817	0.01018
2144.66240	0.01087
2143.37663	0.01132
2142.09087	0.01125
2140.80510	0.01051
2139.51933	0.00948
2138.23356	0.00881
2136.94779	0.00879
2135.66202	0.00919
2134.37625	0.00964
2133.09048	0.01003
2131.80471	0.01045
2130.51895	0.01086
2129.23318	0.01115
2127.94741	0.01120
2126.66164	0.01104
2125.37587	0.01072
2124.09010	0.01024
2122.80433	0.00958
2121.51856	0.00895
2120.23280	0.00872
2118.94703	0.00908
2117.66126	0.00975
2116.37549	0.01033
2115.08972	0.01071
2113.80395	0.01108
2112.51818	0.01152
2111.23241	0.01175
2109.94664	0.01145
2108.66088	0.01070
2107.37511	0.00999
2106.08934	0.00982
2104.80357	0.01033
2103.51780	0.01111
2102.23203	0.01146
2100.94626	0.01100
2099.66049	0.01112
2098.37473	0.01061
2097.08896	0.00983
2095.80319	0.00920
2094.51742	0.00875
2093.23165	0.00852
2091.94588	0.00855
2090.66011	0.00874
2089.37434	0.00899
2088.08857	0.00928
2086.80281	0.00963
2085.51704	0.00997
2084.23127	0.01012
2082.94550	0.01004
2081.65973	0.00990
2080.37396	0.00990
2079.08819	0.01010
2077.80242	0.01043
2076.51666	0.01078
2075.23089	0.01106
2073.94512	0.01118
2072.65935	0.01105
2071.37358	0.01069
2070.08781	0.01024
2068.80204	0.00988
2067.51627	0.00973
2066.23050	0.00979
2064.94474	0.00990
2063.65897	0.00979
2062.37320	0.00930
2061.08743	0.00860
2059.80166	0.00804
2058.51589	0.00777
2057.23012	0.00761
2055.94435	0.00732
2054.65859	0.00697
2053.37282	0.00689
2052.08705	0.00722
2050.80128	0.00769
2049.51551	0.00783
2048.22974	0.00739
2046.94397	0.00663
2045.65820	0.00604
2044.37243	0.00590
2043.08667	0.00607
2041.80090	0.00607
2040.51513	0.00561
2039.22936	0.00482
2037.94359	0.00414
2036.65782	0.00389
2035.37205	0.00403
2034.08628	0.00432
2032.80052	0.00464
2031.51475	0.00500
2030.22898	0.00542
2028.94321	0.00587
2027.65744	0.00626
2026.37167	0.00644
2025.08590	0.00621
2023.80013	0.00563
2022.51436	0.00502
2021.22860	0.00467
2019.94283	0.00453
2018.65706	0.00427
2017.37129	0.00366
2016.08552	0.00281
2014.79975	0.00222
2013.51398	0.00243
2012.22821	0.00368
2010.94245	0.00556
2009.65668	0.00711
2008.37091	0.00748
2007.08514	0.00667
2005.79937	0.00551
2004.51360	0.00484
2003.22783	0.00475
2001.94206	0.00483
2000.65629	0.00483
1999.37053	0.00494
1998.08476	0.00542
1996.79899	0.00628
1995.51322	0.00725
1994.22745	0.00800
1992.94168	0.00838
1991.65591	0.00854
1990.37014	0.00871
1989.08438	0.00891
1987.79861	0.00891
1986.51284	0.00847
1985.22707	0.00778
1983.94130	0.00740
1982.65553	0.00778
1981.36976	0.00876
1980.08399	0.00969
1978.79822	0.01005
1977.51246	0.00990
1976.22669	0.00968
1974.94092	0.00961
1973.65515	0.00958
1972.36938	0.00942
1971.08361	0.00914
1969.79784	0.00885
1968.51207	0.00861
1967.22631	0.00837
1965.94054	0.00804
1964.65477	0.00759
1963.36900	0.00706
1962.08323	0.00660
1960.79746	0.00644
1959.51169	0.00680
1958.22592	0.00761
1956.94015	0.00855
1955.65439	0.00923
1954.36862	0.00947
1953.08285	0.00926
1951.79708	0.00882
1950.51131	0.00850
1949.22554	0.00854
1947.93977	0.00880
1946.65400	0.00888
1945.36823	0.00861
1944.08247	0.00829
1942.79670	0.00837
1941.51093	0.00894
1940.22516	0.00966
1938.93939	0.01021
1937.65362	0.01058
1936.36785	0.01090
1935.08208	0.01114
1933.79632	0.01116
1932.51055	0.01098
1931.22478	0.01082
1929.93901	0.01085
1928.65324	0.01104
1927.36747	0.01122
1926.08170	0.01124
1924.79593	0.01107
1923.51016	0.01081
1922.22440	0.01064
1920.93863	0.01064
1919.65286	0.01073
1918.36709	0.01084
1917.08132	0.01101
1915.79555	0.01134
1914.50978	0.01182
1913.22401	0.01231
1911.93825	0.01261
1910.65248	0.01261
1909.36671	0.01240
1908.08094	0.01215
1906.79517	0.01196
1905.50940	0.01183
1904.22363	0.01171
1902.93786	0.01158
1901.65209	0.01144
1900.36633	0.01135
1899.08056	0.01132
1897.79479	0.01132
1896.50902	0.01129
1895.22325	0.01124
1893.93748	0.01122
1892.65171	0.01124
1891.36594	0.01129
1890.08018	0.01137
1888.79441	0.01151
1887.50864	0.01158
1886.22287	0.01148
1884.93710	0.01119
1883.65133	0.01087
1882.36556	0.01071
1881.07979	0.01077
1879.79402	0.01098
1878.50826	0.01124
1877.22249	0.01143
1875.93672	0.01151
1874.65095	0.01149
1873.36518	0.01146
1872.07941	0.01152
1870.79364	0.01171
1869.50787	0.01196
1868.22211	0.01220
1866.93634	0.01237
1865.65057	0.01247
1864.36480	0.01254
1863.07903	0.01257
1861.79326	0.01252
1860.50749	0.01237
1859.22172	0.01218
1857.93595	0.01198
1856.65019	0.01182
1855.36442	0.01173
1854.07865	0.01175
1852.79288	0.01185
1851.50711	0.01197
1850.22134	0.01207
1848.93557	0.01213
1847.64980	0.01216
1846.36404	0.01208
1845.07827	0.01194
1843.79250	0.01185
1842.50673	0.01192
1841.22096	0.01205
1839.93519	0.01212
1838.64942	0.01209
1837.36365	0.01197
1836.07788	0.01185
1834.79212	0.01182
1833.50635	0.01194
1832.22058	0.01218
1830.93481	0.01243
1829.64904	0.01261
1828.36327	0.01272
1827.07750	0.01281
1825.79173	0.01294
1824.50597	0.01306
1823.22020	0.01306
1821.93443	0.01291
1820.64866	0.01270
1819.36289	0.01256
1818.07712	0.01248
1816.79135	0.01242
1815.50558	0.01233
1814.21981	0.01220
1812.93405	0.01205
1811.64828	0.01196
1810.36251	0.01196
1809.07674	0.01203
1807.79097	0.01209
1806.50520	0.01214
1805.21943	0.01222
1803.93366	0.01233
1802.64790	0.01246
1801.36213	0.01255
1800.07636	0.01259
1798.79059	0.01257
1797.50482	0.01253
1796.21905	0.01252
1794.93328	0.01255
1793.64751	0.01256
1792.36174	0.01257
1791.07598	0.01261
1789.79021	0.01267
1788.50444	0.01273
1787.21867	0.01276
1785.93290	0.01279
1784.64713	0.01283
1783.36136	0.01291
1782.07559	0.01301
1780.78983	0.01308
1779.50406	0.01310
1778.21829	0.01310
1776.93252	0.01312
1775.64675	0.01319
1774.36098	0.01325
1773.07521	0.01328
1771.78944	0.01331
1770.50367	0.01331
1769.21791	0.01325
1767.93214	0.01318
1766.64637	0.01318
1765.36060	0.01323
1764.07483	0.01323
1762.78906	0.01320
1761.50329	0.01321
1760.21752	0.01324
1758.93176	0.01323
1757.64599	0.01318
1756.36022	0.01313
1755.07445	0.01310
1753.78868	0.01297
1752.50291	0.01272
1751.21714	0.01246
1749.93137	0.01226
1748.64560	0.01208
1747.35984	0.01184
1746.07407	0.01154
1744.78830	0.01125
1743.50253	0.01102
1742.21676	0.01087
1740.93099	0.01076
1739.64522	0.01075
1738.35945	0.01095
1737.07369	0.01127
1735.78792	0.01158
1734.50215	0.01188
1733.21638	0.01222
1731.93061	0.01248
1730.64484	0.01250
1729.35907	0.01235
1728.07330	0.01229
1726.78753	0.01243
1725.50177	0.01276
1724.21600	0.01319
1722.93023	0.01370
1721.64446	0.01425
1720.35869	0.01475
1719.07292	0.01514
1717.78715	0.01548
1716.50138	0.01581
1715.21561	0.01610
1713.92985	0.01632
1712.64408	0.01656
1711.35831	0.01687
1710.07254	0.01726
1708.78677	0.01770
1707.50100	0.01817
1706.21523	0.01868
1704.92946	0.01927
1703.64370	0.01995
1702.35793	0.02058
1701.07216	0.02119
1699.78639	0.02191
1698.50062	0.02259
1697.21485	0.02296
1695.92908	0.02311
1694.64331	0.02333
1693.35754	0.02367
1692.07178	0.02400
1690.78601	0.02439
1689.50024	0.02500
1688.21447	0.02577
1686.92870	0.02652
1685.64293	0.02715
1684.35716	0.02777
1683.07139	0.02838
1681.78563	0.02886
1680.49986	0.02919
1679.21409	0.02958
1677.92832	0.03010
1676.64255	0.03063
1675.35678	0.03112
1674.07101	0.03160
1672.78524	0.03208
1671.49947	0.03254
1670.21371	0.03301
1668.92794	0.03348
1667.64217	0.03395
1666.35640	0.03438
1665.07063	0.03476
1663.78486	0.03511
1662.49909	0.03545
1661.21332	0.03578
1659.92756	0.03612
1658.64179	0.03655
1657.35602	0.03718
1656.07025	0.03790
1654.78448	0.03847
1653.49871	0.03883
1652.21294	0.03912
1650.92717	0.03934
1649.64140	0.03937
1648.35564	0.03928
1647.06987	0.03925
1645.78410	0.03933
1644.49833	0.03941
1643.21256	0.03941
1641.92679	0.03941
1640.64102	0.03955
1639.35525	0.03981
1638.06949	0.04003
1636.78372	0.04009
1635.49795	0.04006
1634.21218	0.04001
1632.92641	0.03995
1631.64064	0.03988
1630.35487	0.03986
1629.06910	0.03993
1627.78333	0.04007
1626.49757	0.04018
1625.21180	0.04021
1623.92603	0.04018
1622.64026	0.04020
1621.35449	0.04030
1620.06872	0.04045
1618.78295	0.04056
1617.49718	0.04064
1616.21142	0.04079
1614.92565	0.04099
1613.63988	0.04111
1612.35411	0.04117
1611.06834	0.04130
1609.78257	0.04154
1608.49680	0.04182
1607.21103	0.04211
1605.92526	0.04237
1604.63950	0.04261
1603.35373	0.04283
1602.06796	0.04303
1600.78219	0.04323
1599.49642	0.04344
1598.21065	0.04370
1596.92488	0.04397
1595.63911	0.04423
1594.35335	0.04451
1593.06758	0.04483
1591.78181	0.04522
1590.49604	0.04564
1589.21027	0.04605
1587.92450	0.04641
1586.63873	0.04674
1585.35296	0.04707
1584.06719	0.04737
1582.78143	0.04766
1581.49566	0.04799
1580.20989	0.04842
1578.92412	0.04891
1577.63835	0.04934
1576.35258	0.04972
1575.06681	0.05014
1573.78104	0.05055
1572.49528	0.05079
1571.20951	0.05089
1569.92374	0.05099
1568.63797	0.05119
1567.35220	0.05144
1566.06643	0.05167
1564.78066	0.05191
1563.49489	0.05224
1562.20912	0.05262
1560.92336	0.05292
1559.63759	0.05314
1558.35182	0.05334
1557.06605	0.05343
1555.78028	0.05328
1554.49451	0.05300
1553.20874	0.05280
1551.92297	0.05269
1550.63721	0.05256
1549.35144	0.05239
1548.06567	0.05223
1546.77990	0.05204
1545.49413	0.05183
1544.20836	0.05162
1542.92259	0.05141
1541.63682	0.05110
1540.35105	0.05070
1539.06529	0.05027
1537.77952	0.04987
1536.49375	0.04944
1535.20798	0.04898
1533.92221	0.04862
1532.63644	0.04844
1531.35067	0.04835
1530.06490	0.04831
1528.77914	0.04837
1527.49337	0.04855
1526.20760	0.04884
1524.92183	0.04921
1523.63606	0.04958
1522.35029	0.04991
1521.06452	0.05029
1519.77875	0.05076
1518.49298	0.05123
1517.20722	0.05172
1515.92145	0.05231
1514.63568	0.05301
1513.34991	0.05374
1512.06414	0.05454
1510.77837	0.05547
1509.49260	0.05646
1508.20683	0.05739
1506.92107	0.05826
1505.63530	0.05912
1504.34953	0.05991
1503.06376	0.06052
1501.77799	0.06103
1500.49222	0.06163
1499.20645	0.06232
1497.92068	0.06295
1496.63491	0.06346
1495.34915	0.06390
1494.06338	0.06433
1492.77761	0.06476
1491.49184	0.06523
1490.20607	0.06580
1488.92030	0.06645
1487.63453	0.06710
1486.34876	0.06773
1485.06299	0.06837
1483.77723	0.06907
1482.49146	0.06983
1481.20569	0.07064
1479.91992	0.07149
1478.63415	0.07232
1477.34838	0.07315
1476.06261	0.07396
1474.77684	0.07467
1473.49108	0.07524
1472.20531	0.07573
1470.91954	0.07619
1469.63377	0.07662
1468.34800	0.07699
1467.06223	0.07731
1465.77646	0.07762
1464.49069	0.07796
1463.20492	0.07841
1461.91916	0.07898
1460.63339	0.07968
1459.34762	0.08045
1458.06185	0.08122
1456.77608	0.08198
1455.49031	0.08268
1454.20454	0.08323
1452.91877	0.08363
1451.63301	0.08399
1450.34724	0.08434
1449.06147	0.08460
1447.77570	0.08473
1446.48993	0.08480
1445.20416	0.08482
1443.91839	0.08481
1442.63262	0.08476
1441.34685	0.08470
1440.06109	0.08464
1438.77532	0.08456
1437.48955	0.08452
1436.20378	0.08465
1434.91801	0.08498
1433.63224	0.08545
1432.34647	0.08600
1431.06070	0.08668
1429.77494	0.08752
1428.48917	0.08852
1427.20340	0.08963
1425.91763	0.09081
1424.63186	0.09203
1423.34609	0.09328
1422.06032	0.09448
1420.77455	0.09553
1419.48878	0.09645
1418.20302	0.09726
1416.91725	0.09791
1415.63148	0.09838
1414.34571	0.09870
1413.05994	0.09888
1411.77417	0.09888
1410.48840	0.09865
1409.20263	0.09820
1407.91687	0.09759
1406.63110	0.09682
1405.34533	0.09592
1404.05956	0.09487
1402.77379	0.09369
1401.48802	0.09232
1400.20225	0.09076
1398.91648	0.08904
1397.63071	0.08721
1396.34495	0.08529
1395.05918	0.08337
1393.77341	0.08152
1392.48764	0.07974
1391.20187	0.07796
1389.91610	0.07616
1388.63033	0.07436
1387.34456	0.07259
1386.05880	0.07086
1384.77303	0.06912
1383.48726	0.06733
1382.20149	0.06551
1380.91572	0.06366
1379.62995	0.06183
1378.34418	0.06006
1377.05841	0.05833
1375.77264	0.05663
1374.48688	0.05493
1373.20111	0.05325
1371.91534	0.05161
1370.62957	0.05002
1369.34380	0.04850
1368.05803	0.04707
1366.77226	0.04576
1365.48649	0.04454
1364.20073	0.04338
1362.91496	0.04224
1361.62919	0.04111
1360.34342	0.04002
1359.05765	0.03904
1357.77188	0.03819
1356.48611	0.03746
1355.20034	0.03679
1353.91457	0.03610
1352.62881	0.03541
1351.34304	0.03477
1350.05727	0.03422
1348.77150	0.03374
1347.48573	0.03326
1346.19996	0.03274
1344.91419	0.03218
1343.62842	0.03163
1342.34266	0.03111
1341.05689	0.03059
1339.77112	0.03009
1338.48535	0.02961
1337.19958	0.02920
1335.91381	0.02882
1334.62804	0.02846
1333.34227	0.02807
1332.05650	0.02768
1330.77074	0.02731
1329.48497	0.02696
1328.19920	0.02663
1326.91343	0.02630
1325.62766	0.02600
1324.34189	0.02573
1323.05612	0.02547
1321.77035	0.02521
1320.48459	0.02493
1319.19882	0.02463
1317.91305	0.02436
1316.62728	0.02414
1315.34151	0.02398
1314.05574	0.02385
1312.76997	0.02369
1311.48420	0.02349
1310.19843	0.02325
1308.91267	0.02302
1307.62690	0.02283
1306.34113	0.02268
1305.05536	0.02252
1303.76959	0.02231
1302.48382	0.02207
1301.19805	0.02184
1299.91228	0.02164
1298.62652	0.02146
1297.34075	0.02126
1296.05498	0.02105
1294.76921	0.02085
1293.48344	0.02070
1292.19767	0.02059
1290.91190	0.02052
1289.62613	0.02047
1288.34036	0.02042
1287.05460	0.02035
1285.76883	0.02026
1284.48306	0.02015
1283.19729	0.02005
1281.91152	0.01995
1280.62575	0.01984
1279.33998	0.01970
1278.05421	0.01955
1276.76845	0.01940
1275.48268	0.01928
1274.19691	0.01918
1272.91114	0.01910
1271.62537	0.01901
1270.33960	0.01888
1269.05383	0.01872
1267.76806	0.01853
1266.48229	0.01837
1265.19653	0.01825
1263.91076	0.01817
1262.62499	0.01808
1261.33922	0.01798
1260.05345	0.01787
1258.76768	0.01781
1257.48191	0.01781
1256.19614	0.01782
1254.91037	0.01782
1253.62461	0.01778
1252.33884	0.01773
1251.05307	0.01769
1249.76730	0.01767
1248.48153	0.01767
1247.19576	0.01768
1245.90999	0.01769
1244.62422	0.01770
1243.33846	0.01770
1242.05269	0.01766
1240.76692	0.01757
1239.48115	0.01742
1238.19538	0.01726
1236.90961	0.01715
1235.62384	0.01710
1234.33807	0.01707
1233.05230	0.01703
1231.76654	0.01697
1230.48077	0.01688
1229.19500	0.01679
1227.90923	0.01669
1226.62346	0.01659
1225.33769	0.01649
1224.05192	0.01643
1222.76615	0.01639
1221.48039	0.01634
1220.19462	0.01626
1218.90885	0.01615
1217.62308	0.01605
1216.33731	0.01595
1215.05154	0.01585
1213.76577	0.01572
1212.48000	0.01561
1211.19423	0.01555
1209.90847	0.01555
1208.62270	0.01558
1207.33693	0.01561
1206.05116	0.01565
1204.76539	0.01571
1203.47962	0.01575
1202.19385	0.01573
1200.90808	0.01558
1199.62232	0.01530
1198.33655	0.01524
1197.05078	0.01527
1195.76501	0.01535
1194.47924	0.01545
1193.19347	0.01555
1191.90770	0.01561
1190.62193	0.01557
1189.33616	0.01542
1188.05040	0.01523
1186.76463	0.01506
1185.47886	0.01496
1184.19309	0.01491
1182.90732	0.01487
1181.62155	0.01482
1180.33578	0.01477
1179.05001	0.01474
1177.76425	0.01478
1176.47848	0.01488
1175.19271	0.01502
1173.90694	0.01514
1172.62117	0.01525
1171.33540	0.01535
1170.04963	0.01549
1168.76386	0.01571
1167.47809	0.01600
1166.19233	0.01631
1164.90656	0.01656
1163.62079	0.01671
1162.33502	0.01682
1161.04925	0.01697
1159.76348	0.01718
1158.47771	0.01746
1157.19194	0.01776
1155.90618	0.01807
1154.62041	0.01841
1153.33464	0.01875
1152.04887	0.01907
1150.76310	0.01942
1149.47733	0.01985
1148.19156	0.02037
1146.90579	0.02097
1145.62002	0.02161
1144.33426	0.02233
1143.04849	0.02315
1141.76272	0.02407
1140.47695	0.02505
1139.19118	0.02608
1137.90541	0.02719
1136.61964	0.02839
1135.33387	0.02967
1134.04811	0.03106
1132.76234	0.03260
1131.47657	0.03430
1130.19080	0.03615
1128.90503	0.03813
1127.61926	0.04029
1126.33349	0.04267
1125.04772	0.04523
1123.76195	0.04790
1122.47619	0.05061
1121.19042	0.05340
1119.90465	0.05631
1118.61888	0.05934
1117.33311	0.06238
1116.04734	0.06531
1114.76157	0.06810
1113.47580	0.07086
1112.19004	0.07369
1110.90427	0.07658
1109.61850	0.07941
1108.33273	0.08210
1107.04696	0.08467
1105.76119	0.08720
1104.47542	0.08971
1103.18965	0.09223
1101.90388	0.09472
1100.61812	0.09714
1099.33235	0.09945
1098.04658	0.10168
1096.76081	0.10386
1095.47504	0.10599
1094.18927	0.10798
1092.90350	0.10978
1091.61773	0.11142
1090.33197	0.11293
1089.04620	0.11440
1087.76043	0.11589
1086.47466	0.11743
1085.18889	0.11901
1083.90312	0.12064
1082.61735	0.12234
1081.33158	0.12415
1080.04581	0.12607
1078.76005	0.12809
1077.47428	0.13019
1076.18851	0.13240
1074.90274	0.13473
1073.61697	0.13716
1072.33120	0.13966
1071.04543	0.14221
1069.75966	0.14482
1068.47390	0.14747
1067.18813	0.15016
1065.90236	0.15289
1064.61659	0.15569
1063.33082	0.15850
1062.04505	0.16125
1060.75928	0.16393
1059.47351	0.16662
1058.18774	0.16933
1056.90198	0.17200
1055.61621	0.17457
1054.33044	0.17703
1053.04467	0.17941
1051.75890	0.18181
1050.47313	0.18435
1049.18736	0.18709
1047.90159	0.18996
1046.61583	0.19283
1045.33006	0.19561
1044.04429	0.19833
1042.75852	0.20107
1041.47275	0.20387
1040.18698	0.20673
1038.90121	0.20961
1037.61544	0.21247
1036.32967	0.21526
1035.04391	0.21794
1033.75814	0.22048
1032.47237	0.22285
1031.18660	0.22502
1029.90083	0.22698
1028.61506	0.22868
1027.32929	0.23007
1026.04352	0.23116
1024.75775	0.23197
1023.47199	0.23249
1022.18622	0.23265
1020.90045	0.23243
1019.61468	0.23185
1018.32891	0.23102
1017.04314	0.22996
1015.75737	0.22862
1014.47160	0.22693
1013.18584	0.22485
1011.90007	0.22242
1010.61430	0.21968
1009.32853	0.21662
1008.04276	0.21324
1006.75699	0.20960
1005.47122	0.20571
1004.18545	0.20155
1002.89968	0.19710
1001.61392	0.19245
1000.32815	0.18770
999.04238	0.18284
997.75661	0.17778
996.47084	0.17249
995.18507	0.16706
993.89930	0.16166
992.61353	0.15636
991.32777	0.15116
990.04200	0.14606
988.75623	0.14107
987.47046	0.13619
986.18469	0.13139
984.89892	0.12667
983.61315	0.12211
982.32738	0.11777
981.04161	0.11369
979.75585	0.10986
978.47008	0.10630
977.18431	0.10302
975.89854	0.10005
974.61277	0.09743
973.32700	0.09517
972.04123	0.09332
970.75546	0.09196
969.46970	0.09111
968.18393	0.09076
966.89816	0.09082
965.61239	0.09120
964.32662	0.09182
963.04085	0.09251
961.75508	0.09301
960.46931	0.09311
959.18354	0.09269
957.89778	0.09173
956.61201	0.09029
955.32624	0.08847
954.04047	0.08646
952.75470	0.08439
951.46893	0.08230
950.18316	0.08019
948.89739	0.07808
947.61163	0.07603
946.32586	0.07406
945.04009	0.07216
943.75432	0.07035
942.46855	0.06858
941.18278	0.06681
939.89701	0.06503
938.61124	0.06331
937.32547	0.06174
936.03971	0.06029
934.75394	0.05887
933.46817	0.05743
932.18240	0.05602
930.89663	0.05474
929.61086	0.05364
928.32509	0.05268
927.03932	0.05181
925.75356	0.05099
924.46779	0.05020
923.18202	0.04942
921.89625	0.04862
920.61048	0.04785
919.32471	0.04720
918.03894	0.04670
916.75317	0.04633
915.46740	0.04596
914.18164	0.04546
912.89587	0.04479
911.61010	0.04405
910.32433	0.04343
909.03856	0.04298
907.75279	0.04266
906.46702	0.04235
905.18125	0.04199
903.89549	0.04159
902.60972	0.04117
901.32395	0.04077
900.03818	0.04041
898.75241	0.04007
897.46664	0.03972
896.18087	0.03933
894.89510	0.03895
893.60933	0.03868
892.32357	0.03859
891.03780	0.03867
889.75203	0.03889
888.46626	0.03923
887.18049	0.03980
885.89472	0.04076
884.60895	0.04227
883.32318	0.04441
882.03742	0.04698
880.75165	0.04957
879.46588	0.05173
878.18011	0.05335
876.89434	0.05469
875.60857	0.05604
874.32280	0.05743
873.03703	0.05862
871.75126	0.05928
870.46550	0.05921
869.17973	0.05841
867.89396	0.05700
866.60819	0.05516
865.32242	0.05309
864.03665	0.05093
862.75088	0.04885
861.46511	0.04698
860.17935	0.04536
858.89358	0.04396
857.60781	0.04276
856.32204	0.04171
855.03627	0.04080
853.75050	0.04001
852.46473	0.03933
851.17896	0.03876
849.89319	0.03830
848.60743	0.03791
847.32166	0.03752
846.03589	0.03711
844.75012	0.03673
843.46435	0.03642
842.17858	0.03615
840.89281	0.03592
839.60704	0.03570
838.32128	0.03550
837.03551	0.03528
835.74974	0.03505
834.46397	0.03484
833.17820	0.03463
831.89243	0.03445
830.60666	0.03428
829.32089	0.03417
828.03512	0.03412
826.74936	0.03406
825.46359	0.03393
824.17782	0.03374
822.89205	0.03350
821.60628	0.03327
820.32051	0.03308
819.03474	0.03295
817.74897	0.03287
816.46321	0.03282
815.17744	0.03281
813.89167	0.03285
812.60590	0.03290
811.32013	0.03291
810.03436	0.03284
808.74859	0.03274
807.46282	0.03270
806.17705	0.03270
804.89129	0.03268
803.60552	0.03258
802.31975	0.03246
801.03398	0.03239
799.74821	0.03238
798.46244	0.03238
797.17667	0.03235
795.89090	0.03232
794.60513	0.03230
793.31937	0.03231
792.03360	0.03229
790.74783	0.03221
789.46206	0.03208
788.17629	0.03200
786.89052	0.03203
785.60475	0.03210
784.31898	0.03209
783.03322	0.03201
781.74745	0.03196
780.46168	0.03198
779.17591	0.03203
777.89014	0.03200
776.60437	0.03187
775.31860	0.03168
774.03283	0.03150
772.74706	0.03143
771.46130	0.03151
770.17553	0.03169
768.88976	0.03188
767.60399	0.03197
766.31822	0.03194
765.03245	0.03185
763.74668	0.03178
762.46091	0.03179
761.17515	0.03187
759.88938	0.03197
758.60361	0.03206
757.31784	0.03214
756.03207	0.03222
754.74630	0.03226
753.46053	0.03225
752.17476	0.03221
750.88899	0.03215
749.60323	0.03206
748.31746	0.03193
747.03169	0.03177
745.74592	0.03163
744.46015	0.03157
743.17438	0.03159
741.88861	0.03163
740.60284	0.03164
739.31708	0.03159
738.03131	0.03145
736.74554	0.03121
735.45977	0.03096
734.17400	0.03082
732.88823	0.03087
731.60246	0.03105
730.31669	0.03128
729.03092	0.03147
727.74516	0.03160
726.45939	0.03168
725.17362	0.03174
723.88785	0.03173
722.60208	0.03163
721.31631	0.03147
720.03054	0.03132
718.74477	0.03126
717.45901	0.03130
716.17324	0.03140
714.88747	0.03150
713.60170	0.03153
712.31593	0.03149
711.03016	0.03140
709.74439	0.03129
708.45862	0.03119
707.17285	0.03110
705.88709	0.03104
704.60132	0.03101
703.31555	0.03100
702.02978	0.03100
700.74401	0.03100
699.45824	0.03098
698.17247	0.03097
696.88670	0.03098
695.60094	0.03099
694.31517	0.03098
693.02940	0.03098
691.74363	0.03101
690.45786	0.03110
689.17209	0.03122
687.88632	0.03133
686.60055	0.03135
685.31478	0.03128
684.02902	0.03114
682.74325	0.03098
681.45748	0.03085
680.17171	0.03077
678.88594	0.03073
677.60017	0.03073
676.31440	0.03076
675.02863	0.03085
673.74287	0.03097
672.45710	0.03110
671.17133	0.03120
669.88556	0.03132
668.59979	0.03150
667.31402	0.03172
666.02825	0.03187
664.74248	0.03186
663.45671	0.03166
662.17095	0.03135
660.88518	0.03101
659.59941	0.03072
658.31364	0.03047
657.02787	0.03026
655.74210	0.03011
654.45633	0.03001
653.17056	0.02996
651.88480	0.02995
650.59903	0.02993
649.31326	0.02988
648.02749	0.02981
646.74172	0.02973
645.45595	0.02967
644.17018	0.02966
642.88441	0.02974
641.59864	0.02991
640.31288	0.03016
639.02711	0.03043
637.74134	0.03068
636.45557	0.03091
635.16980	0.03115
633.88403	0.03139
632.59826	0.03162
631.31249	0.03202
630.02673	0.03327
628.74096	0.03501
627.45519	0.03473
626.16942	0.03729
624.88365	0.04208
623.59788	0.04712
622.31211	0.05112
621.02634	0.05345
619.74057	0.05466
618.45481	0.05581
617.16904	0.05738
615.88327	0.05908
614.59750	0.06057
613.31173	0.06211
612.02596	0.06454
610.74019	0.06878
609.45442	0.07481
608.16866	0.08142
606.88289	0.08713
605.59712	0.09118
604.31135	0.09353
603.02558	0.09444
601.73981	0.09420
600.45404	0.09302
599.16827	0.09100
597.88250	0.08836
596.59674	0.08542
595.31097	0.08258
594.02520	0.08017
592.73943	0.07839
591.45366	0.07724
590.16789	0.07662
588.88212	0.07641
587.59635	0.07656
586.31059	0.07719
585.02482	0.07835
583.73905	0.07998
582.45328	0.08185
581.16751	0.08382
579.88174	0.08588
578.59597	0.08806
577.31020	0.09030
576.02443	0.09246
574.73867	0.09448
573.45290	0.09650
572.16713	0.09876
570.88136	0.10143
569.59559	0.10440
568.30982	0.10745
567.02405	0.11040
565.73828	0.11314
564.45251	0.11549
563.16675	0.11707
561.88098	0.11756
560.59521	0.11682
559.30944	0.11493
558.02367	0.11199
556.73790	0.10814
555.45213	0.10361
554.16636	0.09873
552.88060	0.09377
551.59483	0.08894
550.30906	0.08437
549.02329	0.08017
547.73752	0.07640
546.45175	0.07309
545.16598	0.07023
543.88021	0.06775
542.59444	0.06550
541.30868	0.06335
540.02291	0.06127
538.73714	0.05931
537.45137	0.05749
536.16560	0.05578
534.87983	0.05416
533.59406	0.05260
532.30829	0.05117
531.02253	0.04988
529.73676	0.04873
528.45099	0.04761
527.16522	0.04649
525.87945	0.04539
524.59368	0.04441
523.30791	0.04356
522.02214	0.04273
520.73637	0.04180
519.45061	0.04082
518.16484	0.03992
516.87907	0.03915
515.59330	0.03848
514.30753	0.03781
513.02176	0.03713
511.73599	0.03645
510.45022	0.03580
509.16446	0.03519
507.87869	0.03462
506.59292	0.03407
505.30715	0.03350
504.02138	0.03291
502.73561	0.03233
501.44984	0.03182
500.16407	0.03144
498.87830	0.03112
497.59254	0.03085
496.30677	0.03060
495.02100	0.03037
493.73523	0.03015
492.44946	0.02990
491.16369	0.02963
489.87792	0.02939
488.59215	0.02918
487.30639	0.02902
486.02062	0.02891
484.73485	0.02888
483.44908	0.02889
482.16331	0.02891
480.87754	0.02894
479.59177	0.02902
478.30600	0.02920
477.02023	0.02946
475.73447	0.02974
474.44870	0.02997
473.16293	0.03010
471.87716	0.03015
470.59139	0.03011
469.30562	0.02995
468.01985	0.02967
466.73408	0.02930
465.44832	0.02891
464.16255	0.02854
462.87678	0.02819
461.59101	0.02787
460.30524	0.02757
459.01947	0.02725
457.73370	0.02693
456.44793	0.02666
455.16216	0.02644
453.87640	0.02626
452.59063	0.02607
451.30486	0.02583
450.01909	0.02559
448.73332	0.02540
447.44755	0.02530
446.16178	0.02525
444.87601	0.02518
443.59025	0.02506
442.30448	0.02487
441.01871	0.02465
439.73294	0.02442
438.44717	0.02423
437.16140	0.02412
435.87563	0.02409
434.58986	0.02411
433.30409	0.02411
432.01833	0.02406
430.73256	0.02394
429.44679	0.02377
428.16102	0.02359
426.87525	0.02341
425.58948	0.02325
424.30371	0.02312
423.01794	0.02301
421.73218	0.02290
420.44641	0.02278
419.16064	0.02269
417.87487	0.02263
416.58910	0.02257
415.30333	0.02248
414.01756	0.02241
412.73179	0.02236
411.44602	0.02234
410.16026	0.02232
408.87449	0.02235
407.58872	0.02248
406.30295	0.02267
405.01718	0.02284
403.73141	0.02288
402.44564	0.02281
401.15987	0.02274
399.87411	0.02275
