3997.45528 0.04344
3996.16951 0.04314
3994.88374 0.04320
3993.59798 0.04308
3992.31221 0.04270
3991.02644 0.04257
3989.74067 0.04323
3988.45490 0.04473
3987.16913 0.04648
3985.88336 0.04753
3984.59759 0.04726
3983.31183 0.04587
3982.02606 0.04411
3980.74029 0.04268
3979.45452 0.04187
3978.16875 0.04158
3976.88298 0.04166
3975.59721 0.04191
3974.31144 0.04212
3973.02567 0.04231
3971.73991 0.04259
3970.45414 0.04294
3969.16837 0.04311
3967.88260 0.04290
3966.59683 0.04244
3965.31106 0.04205
3964.02529 0.04190
3962.73952 0.04190
3961.45376 0.04186
3960.16799 0.04178
3958.88222 0.04197
3957.59645 0.04273
3956.31068 0.04383
3955.02491 0.04458
3953.73914 0.04451
3952.45337 0.04381
3951.16760 0.04298
3949.88184 0.04226
3948.59607 0.04173
3947.31030 0.04147
3946.02453 0.04157
3944.73876 0.04192
3943.45299 0.04212
3942.16722 0.04178
3940.88145 0.04073
3939.59569 0.03928
3938.30992 0.03825
3937.02415 0.03826
3935.73838 0.03918
3934.45261 0.04019
3933.16684 0.04065
3931.88107 0.04066
3930.59530 0.04076
3929.30953 0.04135
3928.02377 0.04231
3926.73800 0.04311
3925.45223 0.04330
3924.16646 0.04277
3922.88069 0.04184
3921.59492 0.04112
3920.30915 0.04126
3919.02338 0.04242
3917.73762 0.04399
3916.45185 0.04506
3915.16608 0.04505
3913.88031 0.04401
3912.59454 0.04252
3911.30877 0.04137
3910.02300 0.04112
3908.73723 0.04179
3907.45146 0.04289
3906.16570 0.04382
3904.87993 0.04427
3903.59416 0.04421
3902.30839 0.04364
3901.02262 0.04271
3899.73685 0.04181
3898.45108 0.04133
3897.16531 0.04127
3895.87955 0.04147
3894.59378 0.04184
3893.30801 0.04228
3892.02224 0.04251
3890.73647 0.04225
3889.45070 0.04141
3888.16493 0.04027
3886.87916 0.03940
3885.59339 0.03919
3884.30763 0.03939
3883.02186 0.03942
3881.73609 0.03918
3880.45032 0.03917
3879.16455 0.03983
3877.87878 0.04090
3876.59301 0.04177
3875.30724 0.04209
3874.02148 0.04189
3872.73571 0.04126
3871.44994 0.04027
3870.16417 0.03934
3868.87840 0.03890
3867.59263 0.03881
3866.30686 0.03866
3865.02109 0.03842
3863.73532 0.03821
3862.44956 0.03795
3861.16379 0.03756
3859.87802 0.03732
3858.59225 0.03767
3857.30648 0.03854
3856.02071 0.03931
3854.73494 0.03960
3853.44917 0.03984
3852.16341 0.04045
3850.87764 0.04115
3849.59187 0.04141
3848.30610 0.04111
3847.02033 0.04060
3845.73456 0.04019
3844.44879 0.03986
3843.16302 0.03958
3841.87725 0.03946
3840.59149 0.03956
3839.30572 0.03974
3838.01995 0.03987
3836.73418 0.03995
3835.44841 0.03989
3834.16264 0.03954
3832.87687 0.03894
3831.59110 0.03836
3830.30534 0.03811
3829.01957 0.03821
3827.73380 0.03863
3826.44803 0.03933
3825.16226 0.04013
3823.87649 0.04037
3822.59072 0.03961
3821.30495 0.03839
3820.01918 0.03778
3818.73342 0.03803
3817.44765 0.03853
3816.16188 0.03877
3814.87611 0.03884
3813.59034 0.03894
3812.30457 0.03922
3811.01880 0.03958
3809.73303 0.03963
3808.44726 0.03909
3807.16150 0.03838
3805.87573 0.03820
3804.58996 0.03858
3803.30419 0.03912
3802.01842 0.03976
3800.73265 0.04063
3799.44688 0.04128
3798.16111 0.04112
3796.87535 0.04032
3795.58958 0.03966
3794.30381 0.03955
3793.01804 0.03976
3791.73227 0.03990
3790.44650 0.03986
3789.16073 0.03982
3787.87496 0.03994
3786.58919 0.04009
3785.30343 0.03992
3784.01766 0.03931
3782.73189 0.03854
3781.44612 0.03801
3780.16035 0.03792
3778.87458 0.03808
3777.58881 0.03810
3776.30304 0.03775
3775.01728 0.03724
3773.73151 0.03712
3772.44574 0.03775
3771.15997 0.03904
3769.87420 0.04044
3768.58843 0.04121
3767.30266 0.04105
3766.01689 0.04046
3764.73112 0.04012
3763.44536 0.04001
3762.15959 0.03944
3760.87382 0.03807
3759.58805 0.03639
3758.30228 0.03535
3757.01651 0.03560
3755.73074 0.03694
3754.44497 0.03853
3753.15921 0.03960
3751.87344 0.03990
3750.58767 0.03966
3749.30190 0.03938
3748.01613 0.03925
3746.73036 0.03885
3745.44459 0.03809
3744.15882 0.03775
3742.87305 0.03834
3741.58729 0.03930
3740.30152 0.03985
3739.01575 0.03977
3737.72998 0.03925
3736.44421 0.03863
3735.15844 0.03810
3733.87267 0.03764
3732.58690 0.03737
3731.30114 0.03753
3730.01537 0.03786
3728.72960 0.03779
3727.44383 0.03723
3726.15806 0.03665
3724.87229 0.03634
3723.58652 0.03615
3722.30075 0.03592
3721.01498 0.03571
3719.72922 0.03561
3718.44345 0.03563
3717.15768 0.03582
3715.87191 0.03618
3714.58614 0.03648
3713.30037 0.03642
3712.01460 0.03591
3710.72883 0.03525
3709.44307 0.03499
3708.15730 0.03551
3706.87153 0.03660
3705.58576 0.03755
3704.29999 0.03789
3703.01422 0.03788
3701.72845 0.03815
3700.44268 0.03881
3699.15691 0.03923
3697.87115 0.03873
3696.58538 0.03743
3695.29961 0.03621
3694.01384 0.03590
3692.72807 0.03655
3691.44230 0.03738
3690.15653 0.03731
3688.87076 0.03591
3687.58500 0.03386
3686.29923 0.03215
3685.01346 0.03133
3683.72769 0.03140
3682.44192 0.03205
3681.15615 0.03294
3679.87038 0.03393
3678.58461 0.03484
3677.29884 0.03546
3676.01308 0.03596
3674.72731 0.03667
3673.44154 0.03737
3672.15577 0.03740
3670.87000 0.03668
3669.58423 0.03583
3668.29846 0.03536
3667.01269 0.03532
3665.72693 0.03559
3664.44116 0.03595
3663.15539 0.03625
3661.86962 0.03656
3660.58385 0.03708
3659.29808 0.03782
3658.01231 0.03838
3656.72654 0.03845
3655.44077 0.03818
3654.15501 0.03799
3652.86924 0.03803
3651.58347 0.03800
3650.29770 0.03755
3649.01193 0.03666
3647.72616 0.03572
3646.44039 0.03511
3645.15462 0.03485
3643.86886 0.03481
3642.58309 0.03503
3641.29732 0.03577
3640.01155 0.03710
3638.72578 0.03860
3637.44001 0.03948
3636.15424 0.03925
3634.86847 0.03827
3633.58270 0.03753
3632.29694 0.03771
3631.01117 0.03860
3629.72540 0.03957
3628.43963 0.04023
3627.15386 0.04049
3625.86809 0.04046
3624.58232 0.04033
3623.29655 0.04015
3622.01079 0.03966
3620.72502 0.03888
3619.43925 0.03839
3618.15348 0.03878
3616.86771 0.03987
3615.58194 0.04087
3614.29617 0.04123
3613.01040 0.04117
3611.72463 0.04114
3610.43887 0.04133
3609.15310 0.04168
3607.86733 0.04235
3606.58156 0.04349
3605.29579 0.04488
3604.01002 0.04589
3602.72425 0.04607
3601.43848 0.04556
3600.15272 0.04494
3598.86695 0.04462
3597.58118 0.04459
3596.29541 0.04459
3595.00964 0.04446
3593.72387 0.04437
3592.43810 0.04464
3591.15233 0.04542
3589.86656 0.04654
3588.58080 0.04749
3587.29503 0.04780
3586.00926 0.04740
3584.72349 0.04663
3583.43772 0.04592
3582.15195 0.04553
3580.86618 0.04553
3579.58041 0.04599
3578.29464 0.04699
3577.00888 0.04844
3575.72311 0.04989
3574.43734 0.05083
3573.15157 0.05106
3571.86580 0.05081
3570.58003 0.05033
3569.29426 0.04969
3568.00849 0.04903
3566.72273 0.04865
3565.43696 0.04873
3564.15119 0.04912
3562.86542 0.04953
3561.57965 0.04972
3560.29388 0.04962
3559.00811 0.04939
3557.72234 0.04934
3556.43657 0.04971
3555.15081 0.05045
3553.86504 0.05130
3552.57927 0.05190
3551.29350 0.05201
3550.00773 0.05162
3548.72196 0.05102
3547.43619 0.05073
3546.15042 0.05108
3544.86466 0.05206
3543.57889 0.05332
3542.29312 0.05441
3541.00735 0.05497
3539.72158 0.05481
3538.43581 0.05403
3537.15004 0.05296
3535.86427 0.05199
3534.57850 0.05144
3533.29274 0.05149
3532.00697 0.05228
3530.72120 0.05367
3529.43543 0.05522
3528.14966 0.05629
3526.86389 0.05660
3525.57812 0.05636
3524.29235 0.05607
3523.00659 0.05610
3521.72082 0.05645
3520.43505 0.05686
3519.14928 0.05711
3517.86351 0.05709
3516.57774 0.05690
3515.29197 0.05669
3514.00620 0.05673
3512.72043 0.05712
3511.43467 0.05766
3510.14890 0.05798
3508.86313 0.05786
3507.57736 0.05751
3506.29159 0.05727
3505.00582 0.05727
3503.72005 0.05737
3502.43428 0.05736
3501.14852 0.05712
3499.86275 0.05672
3498.57698 0.05644
3497.29121 0.05664
3496.00544 0.05749
3494.71967 0.05878
3493.43390 0.06000
3492.14813 0.06071
3490.86236 0.06084
3489.57660 0.06070
3488.29083 0.06065
3487.00506 0.06087
3485.71929 0.06144
3484.43352 0.06231
3483.14775 0.06321
3481.86198 0.06363
3480.57621 0.06323
3479.29045 0.06224
3478.00468 0.06136
3476.71891 0.06108
3475.43314 0.06143
3474.14737 0.06208
3472.86160 0.06283
3471.57583 0.06362
3470.29006 0.06440
3469.00429 0.06491
3467.71853 0.06500
3466.43276 0.06477
3465.14699 0.06456
3463.86122 0.06458
3462.57545 0.06477
3461.28968 0.06486
3460.00391 0.06469
3458.71814 0.06429
3457.43238 0.06383
3456.14661 0.06347
3454.86084 0.06335
3453.57507 0.06350
3452.28930 0.06379
3451.00353 0.06405
3449.71776 0.06427
3448.43199 0.06456
3447.14622 0.06502
3445.86046 0.06560
3444.57469 0.06614
3443.28892 0.06652
3442.00315 0.06674
3440.71738 0.06684
3439.43161 0.06686
3438.14584 0.06675
3436.86007 0.06652
3435.57431 0.06620
3434.28854 0.06593
3433.00277 0.06585
3431.71700 0.06616
3430.43123 0.06690
3429.14546 0.06785
3427.85969 0.06854
3426.57392 0.06871
3425.28815 0.06851
3424.00239 0.06833
3422.71662 0.06836
3421.43085 0.06849
3420.14508 0.06849
3418.85931 0.06827
3417.57354 0.06793
3416.28777 0.06775
3415.00200 0.06796
3413.71624 0.06859
3412.43047 0.06940
3411.14470 0.06998
3409.85893 0.07013
3408.57316 0.06997
3407.28739 0.06988
3406.00162 0.07013
3404.71585 0.07068
3403.43008 0.07128
3402.14432 0.07181
3400.85855 0.07224
3399.57278 0.07213
3398.28701 0.07163
3397.00124 0.07143
3395.71547 0.07139
3394.42970 0.07120
3393.14393 0.07079
3391.85817 0.07043
3390.57240 0.07049
3389.28663 0.07112
3388.00086 0.07202
3386.71509 0.07283
3385.42932 0.07343
3384.14355 0.07393
3382.85778 0.07442
3381.57201 0.07477
3380.28625 0.07483
3379.00048 0.07457
3377.71471 0.07415
3376.42894 0.07383
3375.14317 0.07382
3373.85740 0.07417
3372.57163 0.07472
3371.28586 0.07515
3370.00010 0.07516
3368.71433 0.07471
3367.42856 0.07414
3366.14279 0.07382
3364.85702 0.07387
3363.57125 0.07408
3362.28548 0.07428
3360.99971 0.07447
3359.71394 0.07468
3358.42818 0.07489
3357.14241 0.07505
3355.85664 0.07515
3354.57087 0.07521
3353.28510 0.07524
3351.99933 0.07521
3350.71356 0.07519
3349.42779 0.07517
3348.14202 0.07511
3346.85626 0.07502
3345.57049 0.07506
3344.28472 0.07547
3342.99895 0.07625
3341.71318 0.07701
3340.42741 0.07737
3339.14164 0.07722
3337.85587 0.07680
3336.57011 0.07640
3335.28434 0.07612
3333.99857 0.07598
3332.71280 0.07604
3331.42703 0.07634
3330.14126 0.07673
3328.85549 0.07685
3327.56972 0.07645
3326.28395 0.07572
3324.99819 0.07512
3323.71242 0.07504
3322.42665 0.07551
3321.14088 0.07627
3319.85511 0.07701
3318.56934 0.07753
3317.28357 0.07782
3315.99780 0.07806
3314.71204 0.07844
3313.42627 0.07893
3312.14050 0.07925
3310.85473 0.07920
3309.56896 0.07896
3308.28319 0.07890
3306.99742 0.07908
3305.71165 0.07919
3304.42588 0.07892
3303.14012 0.07837
3301.85435 0.07791
3300.56858 0.07787
3299.28281 0.07823
3297.99704 0.07867
3296.71127 0.07877
3295.42550 0.07835
3294.13973 0.07767
3292.85397 0.07719
3291.56820 0.07717
3290.28243 0.07750
3288.99666 0.07798
3287.71089 0.07852
3286.42512 0.07920
3285.13935 0.07996
3283.85358 0.08057
3282.56781 0.08080
3281.28205 0.08065
3279.99628 0.08029
3278.71051 0.07990
3277.42474 0.07952
3276.13897 0.07916
3274.85320 0.07885
3273.56743 0.07868
3272.28166 0.07867
3270.99590 0.07876
3269.71013 0.07884
3268.42436 0.07896
3267.13859 0.07924
3265.85282 0.07962
3264.56705 0.07987
3263.28128 0.07977
3261.99551 0.07945
3260.70974 0.07915
3259.42398 0.07902
3258.13821 0.07894
3256.85244 0.07884
3255.56667 0.07883
3254.28090 0.07905
3252.99513 0.07938
3251.70936 0.07953
3250.42359 0.07928
3249.13783 0.07868
3247.85206 0.07800
3246.56629 0.07745
3245.28052 0.07712
3243.99475 0.07704
3242.70898 0.07717
3241.42321 0.07750
3240.13744 0.07790
3238.85167 0.07816
3237.56591 0.07811
3236.28014 0.07778
3234.99437 0.07735
3233.70860 0.07690
3232.42283 0.07640
3231.13706 0.07590
3229.85129 0.07559
3228.56552 0.07553
3227.27976 0.07549
3225.99399 0.07516
3224.70822 0.07457
3223.42245 0.07410
3222.13668 0.07414
3220.85091 0.07479
3219.56514 0.07569
3218.27937 0.07638
3216.99360 0.07669
3215.70784 0.07680
3214.42207 0.07688
3213.13630 0.07684
3211.85053 0.07641
3210.56476 0.07563
3209.27899 0.07483
3207.99322 0.07433
3206.70745 0.07410
3205.42169 0.07407
3204.13592 0.07428
3202.85015 0.07485
3201.56438 0.07560
3200.27861 0.07605
3198.99284 0.07586
3197.70707 0.07513
3196.42130 0.07437
3195.13553 0.07402
3193.84977 0.07414
3192.56400 0.07451
3191.27823 0.07494
3189.99246 0.07541
3188.70669 0.07581
3187.42092 0.07594
3186.13515 0.07561
3184.84938 0.07485
3183.56362 0.07393
3182.27785 0.07317
3180.99208 0.07279
3179.70631 0.07279
3178.42054 0.07290
3177.13477 0.07281
3175.84900 0.07240
3174.56323 0.07185
3173.27746 0.07148
3171.99170 0.07133
3170.70593 0.07126
3169.42016 0.07122
3168.13439 0.07126
3166.84862 0.07141
3165.56285 0.07151
3164.27708 0.07139
3162.99131 0.07108
3161.70555 0.07069
3160.41978 0.07024
3159.13401 0.06975
3157.84824 0.06933
3156.56247 0.06910
3155.27670 0.06904
3153.99093 0.06899
3152.70516 0.06887
3151.41939 0.06875
3150.13363 0.06871
3148.84786 0.06876
3147.56209 0.06886
3146.27632 0.06905
3144.99055 0.06934
3143.70478 0.06963
3142.41901 0.06977
3141.13324 0.06965
3139.84748 0.06933
3138.56171 0.06896
3137.27594 0.06866
3135.99017 0.06846
3134.70440 0.06825
3133.41863 0.06802
3132.13286 0.06780
3130.84709 0.06762
3129.56132 0.06734
3128.27556 0.06680
3126.98979 0.06606
3125.70402 0.06547
3124.41825 0.06538
3123.13248 0.06583
3121.84671 0.06653
3120.56094 0.06711
3119.27517 0.06737
3117.98940 0.06736
3116.70364 0.06725
3115.41787 0.06720
3114.13210 0.06721
3112.84633 0.06722
3111.56056 0.06719
3110.27479 0.06711
3108.98902 0.06699
3107.70325 0.06681
3106.41749 0.06655
3105.13172 0.06620
3103.84595 0.06580
3102.56018 0.06549
3101.27441 0.06543
3099.98864 0.06561
3098.70287 0.06582
3097.41710 0.06586
3096.13133 0.06573
3094.84557 0.06562
3093.55980 0.06572
3092.27403 0.06600
3090.98826 0.06625
3089.70249 0.06632
3088.41672 0.06625
3087.13095 0.06610
3085.84518 0.06586
3084.55942 0.06552
3083.27365 0.06519
3081.98788 0.06499
3080.70211 0.06496
3079.41634 0.06506
3078.13057 0.06527
3076.84480 0.06554
3075.55903 0.06576
3074.27326 0.06579
3072.98750 0.06562
3071.70173 0.06542
3070.41596 0.06540
3069.13019 0.06558
3067.84442 0.06580
3066.55865 0.06594
3065.27288 0.06602
3063.98711 0.06607
3062.70135 0.06598
3061.41558 0.06564
3060.12981 0.06514
3058.84404 0.06467
3057.55827 0.06436
3056.27250 0.06417
3054.98673 0.06405
3053.70096 0.06399
3052.41519 0.06401
3051.12943 0.06401
3049.84366 0.06386
3048.55789 0.06348
3047.27212 0.06284
3045.98635 0.06208
3044.70058 0.06141
3043.41481 0.06102
3042.12904 0.06099
3040.84328 0.06125
3039.55751 0.06162
3038.27174 0.06196
3036.98597 0.06222
3035.70020 0.06237
3034.41443 0.06242
3033.12866 0.06234
3031.84289 0.06215
3030.55712 0.06195
3029.27136 0.06182
3027.98559 0.06174
3026.69982 0.06158
3025.41405 0.06127
3024.12828 0.06094
3022.84251 0.06081
3021.55674 0.06100
3020.27097 0.06142
3018.98521 0.06177
3017.69944 0.06181
3016.41367 0.06151
3015.12790 0.06105
3013.84213 0.06067
3012.55636 0.06044
3011.27059 0.06028
3009.98482 0.06008
3008.69905 0.05993
3007.41329 0.06000
3006.12752 0.06030
3004.84175 0.06054
3003.55598 0.06046
3002.27021 0.06019
3000.98444 0.05995
2999.69867 0.05949
2998.41290 0.05970
2997.12714 0.06000
2995.84137 0.06020
2994.55560 0.06025
2993.26983 0.06012
2991.98406 0.05980
2990.69829 0.05943
2989.41252 0.05918
2988.12675 0.05912
2986.84098 0.05918
2985.55522 0.05927
2984.26945 0.05948
2982.98368 0.05986
2981.69791 0.06035
2980.41214 0.06076
2979.12637 0.06095
2977.84060 0.06095
2976.55483 0.06091
2975.26907 0.06091
2973.98330 0.06095
2972.69753 0.06106
2971.41176 0.06138
2970.12599 0.06198
2968.84022 0.06268
2967.55445 0.06321
2966.26868 0.06349
2964.98291 0.06369
2963.69715 0.06399
2962.41138 0.06434
2961.12561 0.06455
2959.83984 0.06451
2958.55407 0.06434
2957.26830 0.06423
2955.98253 0.06431
2954.69676 0.06458
2953.41100 0.06497
2952.12523 0.06544
2950.83946 0.06591
2949.55369 0.06630
2948.26792 0.06651
2946.98215 0.06648
2945.69638 0.06620
2944.41061 0.06577
2943.12484 0.06543
2941.83908 0.06539
2940.55331 0.06566
2939.26754 0.06604
2937.98177 0.06631
2936.69600 0.06635
2935.41023 0.06625
2934.12446 0.06623
2932.83869 0.06652
2931.55293 0.06711
2930.26716 0.06771
2928.98139 0.06804
2927.69562 0.06807
2926.40985 0.06794
2925.12408 0.06776
2923.83831 0.06755
2922.55254 0.06742
2921.26677 0.06744
2919.98101 0.06746
2918.69524 0.06724
2917.40947 0.06676
2916.12370 0.06620
2914.83793 0.06564
2913.55216 0.06500
2912.26639 0.06428
2910.98062 0.06378
2909.69486 0.06369
2908.40909 0.06380
2907.12332 0.06374
2905.83755 0.06340
2904.55178 0.06305
2903.26601 0.06296
2901.98024 0.06314
2900.69447 0.06330
2899.40870 0.06312
2898.12294 0.06247
2896.83717 0.06154
2895.55140 0.06064
2894.26563 0.06001
2892.97986 0.05965
2891.69409 0.05943
2890.40832 0.05921
2889.12255 0.05897
2887.83678 0.05872
2886.55102 0.05851
2885.26525 0.05836
2883.97948 0.05829
2882.69371 0.05831
2881.40794 0.05846
2880.12217 0.05868
2878.83640 0.05883
2877.55063 0.05885
2876.26487 0.05887
2874.97910 0.05904
2873.69333 0.05926
2872.40756 0.05932
2871.12179 0.05916
2869.83602 0.05893
2868.55025 0.05875
2867.26448 0.05855
2865.97871 0.05823
2864.69295 0.05789
2863.40718 0.05765
2862.12141 0.05752
2860.83564 0.05743
2859.54987 0.05735
2858.26410 0.05731
2856.97833 0.05729
2855.69256 0.05728
2854.40680 0.05726
2853.12103 0.05726
2851.83526 0.05725
2850.54949 0.05711
2849.26372 0.05681
2847.97795 0.05646
2846.69218 0.05611
2845.40641 0.05577
2844.12064 0.05539
2842.83488 0.05497
2841.54911 0.05450
2840.26334 0.05399
2838.97757 0.05347
2837.69180 0.05303
2836.40603 0.05275
2835.12026 0.05257
2833.83449 0.05238
2832.54873 0.05211
2831.26296 0.05178
2829.97719 0.05145
2828.69142 0.05120
2827.40565 0.05108
2826.11988 0.05106
2824.83411 0.05110
2823.54834 0.05109
2822.26257 0.05099
2820.97681 0.05081
2819.69104 0.05054
2818.40527 0.05018
2817.11950 0.04976
2815.83373 0.04939
2814.54796 0.04914
2813.26219 0.04902
2811.97642 0.04896
2810.69066 0.04885
2809.40489 0.04866
2808.11912 0.04842
2806.83335 0.04823
2805.54758 0.04810
2804.26181 0.04801
2802.97604 0.04798
2801.69027 0.04805
2800.40450 0.04823
2799.11874 0.04842
2797.83297 0.04851
2796.54720 0.04847
2795.26143 0.04830
2793.97566 0.04808
2792.68989 0.04789
2791.40412 0.04783
2790.11835 0.04791
2788.83259 0.04804
2787.54682 0.04805
2786.26105 0.04787
2784.97528 0.04760
2783.68951 0.04743
2782.40374 0.04752
2781.11797 0.04780
2779.83220 0.04806
2778.54643 0.04811
2777.26067 0.04787
2775.97490 0.04741
2774.68913 0.04687
2773.40336 0.04638
2772.11759 0.04607
2770.83182 0.04600
2769.54605 0.04619
2768.26028 0.04652
2766.97452 0.04679
2765.68875 0.04694
2764.40298 0.04702
2763.11721 0.04711
2761.83144 0.04716
2760.54567 0.04708
2759.25990 0.04680
2757.97413 0.04635
2756.68836 0.04585
2755.40260 0.04549
2754.11683 0.04539
2752.83106 0.04552
2751.54529 0.04566
2750.25952 0.04564
2748.97375 0.04546
2747.68798 0.04519
2746.40221 0.04488
2745.11645 0.04456
2743.83068 0.04431
2742.54491 0.04427
2741.25914 0.04448
2739.97337 0.04477
2738.68760 0.04497
2737.40183 0.04503
2736.11606 0.04501
2734.83029 0.04492
2733.54453 0.04475
2732.25876 0.04457
2730.97299 0.04454
2729.68722 0.04467
2728.40145 0.04479
2727.11568 0.04473
2725.82991 0.04453
2724.54414 0.04435
2723.25838 0.04433
2721.97261 0.04441
2720.68684 0.04444
2719.40107 0.04435
2718.11530 0.04424
2716.82953 0.04415
2715.54376 0.04406
2714.25799 0.04392
2712.97222 0.04375
2711.68646 0.04355
2710.40069 0.04329
2709.11492 0.04300
2707.82915 0.04279
2706.54338 0.04275
2705.25761 0.04284
2703.97184 0.04299
2702.68607 0.04312
2701.40031 0.04322
2700.11454 0.04321
2698.82877 0.04303
2697.54300 0.04274
2696.25723 0.04252
2694.97146 0.04249
2693.68569 0.04257
2692.39992 0.04259
2691.11415 0.04240
2689.82839 0.04204
2688.54262 0.04164
2687.25685 0.04137
2685.97108 0.04127
2684.68531 0.04132
2683.39954 0.04147
2682.11377 0.04165
2680.82800 0.04178
2679.54224 0.04186
2678.25647 0.04189
2676.97070 0.04189
2675.68493 0.04182
2674.39916 0.04169
2673.11339 0.04152
2671.82762 0.04136
2670.54185 0.04125
2669.25608 0.04123
2667.97032 0.04125
2666.68455 0.04116
2665.39878 0.04092
2664.11301 0.04070
2662.82724 0.04074
2661.54147 0.04107
2660.25570 0.04153
2658.96993 0.04192
2657.68417 0.04220
2656.39840 0.04233
2655.11263 0.04232
2653.82686 0.04218
2652.54109 0.04198
2651.25532 0.04173
2649.96955 0.04141
2648.68378 0.04106
2647.39801 0.04081
2646.11225 0.04072
2644.82648 0.04075
2643.54071 0.04077
2642.25494 0.04072
2640.96917 0.04059
2639.68340 0.04045
2638.39763 0.04031
2637.11186 0.04016
2635.82609 0.03991
2634.54033 0.03954
2633.25456 0.03916
2631.96879 0.03897
2630.68302 0.03914
2629.39725 0.03962
2628.11148 0.04010
2626.82571 0.04018
2625.53994 0.03974
2624.25418 0.03905
2622.96841 0.03853
2621.68264 0.03830
2620.39687 0.03819
2619.11110 0.03803
2617.82533 0.03788
2616.53956 0.03784
2615.25379 0.03797
2613.96802 0.03816
2612.68226 0.03826
2611.39649 0.03815
2610.11072 0.03783
2608.82495 0.03742
2607.53918 0.03711
2606.25341 0.03706
2604.96764 0.03721
2603.68187 0.03740
2602.39611 0.03747
2601.11034 0.03736
2599.82457 0.03712
2598.53880 0.03671
2597.25303 0.03618
2595.96726 0.03561
2594.68149 0.03518
2593.39572 0.03498
2592.10995 0.03504
2590.82419 0.03527
2589.53842 0.03548
2588.25265 0.03553
2586.96688 0.03544
2585.68111 0.03531
2584.39534 0.03520
2583.10957 0.03507
2581.82380 0.03494
2580.53804 0.03482
2579.25227 0.03471
2577.96650 0.03458
2576.68073 0.03447
2575.39496 0.03442
2574.10919 0.03441
2572.82342 0.03432
2571.53765 0.03407
2570.25188 0.03375
2568.96612 0.03355
2567.68035 0.03366
2566.39458 0.03403
2565.10881 0.03432
2563.82304 0.03421
2562.53727 0.03368
2561.25150 0.03302
2559.96573 0.03255
2558.67997 0.03229
2557.39420 0.03214
2556.10843 0.03206
2554.82266 0.03210
2553.53689 0.03226
2552.25112 0.03241
2550.96535 0.03237
2549.67958 0.03208
2548.39381 0.03161
2547.10805 0.03120
2545.82228 0.03106
2544.53651 0.03122
2543.25074 0.03148
2541.96497 0.03163
2540.67920 0.03163
2539.39343 0.03156
2538.10766 0.03151
2536.82190 0.03143
2535.53613 0.03124
2534.25036 0.03098
2532.96459 0.03090
2531.67882 0.03115
2530.39305 0.03155
2529.10728 0.03168
2527.82151 0.03141
2526.53574 0.03102
2525.24998 0.03088
2523.96421 0.03111
2522.67844 0.03149
2521.39267 0.03171
2520.10690 0.03159
2518.82113 0.03121
2517.53536 0.03081
2516.24959 0.03060
2514.96383 0.03056
2513.67806 0.03050
2512.39229 0.03044
2511.10652 0.03056
2509.82075 0.03096
2508.53498 0.03131
2507.24921 0.03120
2505.96344 0.03062
2504.67767 0.03004
2503.39191 0.02984
2502.10614 0.02996
2500.82037 0.03010
2499.53460 0.03017
2498.24883 0.03024
2496.96306 0.03037
2495.67729 0.03051
2494.39152 0.03060
2493.10576 0.03064
2491.81999 0.03062
2490.53422 0.03052
2489.24845 0.03040
2487.96268 0.03039
2486.67691 0.03058
2485.39114 0.03080
2484.10537 0.03087
2482.81960 0.03075
2481.53384 0.03060
2480.24807 0.03048
2478.96230 0.03024
2477.67653 0.02985
2476.39076 0.02953
2475.10499 0.02957
2473.81922 0.02995
2472.53345 0.03032
2471.24769 0.03028
2469.96192 0.02977
2468.67615 0.02913
2467.39038 0.02881
2466.10461 0.02901
2464.81884 0.02964
2463.53307 0.03040
2462.24730 0.03100
2460.96153 0.03122
2459.67577 0.03103
2458.39000 0.03062
2457.10423 0.03027
2455.81846 0.03015
2454.53269 0.03023
2453.24692 0.03040
2451.96115 0.03062
2450.67538 0.03089
2449.38962 0.03108
2448.10385 0.03098
2446.81808 0.03057
2445.53231 0.03008
2444.24654 0.02973
2442.96077 0.02952
2441.67500 0.02935
2440.38923 0.02927
2439.10346 0.02928
2437.81770 0.02925
2436.53193 0.02901
2435.24616 0.02865
2433.96039 0.02842
2432.67462 0.02847
2431.38885 0.02874
2430.10308 0.02909
2428.81731 0.02941
2427.53155 0.02961
2426.24578 0.02957
2424.96001 0.02920
2423.67424 0.02865
2422.38847 0.02820
2421.10270 0.02803
2419.81693 0.02809
2418.53116 0.02819
2417.24539 0.02823
2415.95963 0.02824
2414.67386 0.02837
2413.38809 0.02866
2412.10232 0.02901
2410.81655 0.02920
2409.53078 0.02916
2408.24501 0.02893
2406.95924 0.02850
2405.67347 0.02790
2404.38771 0.02736
2403.10194 0.02726
2401.81617 0.02761
2400.53040 0.02812
2399.24463 0.02924
2397.95886 0.02859
2396.67309 0.02801
2395.38732 0.02801
2394.10156 0.02824
2392.81579 0.02845
2391.53002 0.02848
2390.24425 0.02835
2388.95848 0.02818
2387.67271 0.02805
2386.38694 0.02793
2385.10117 0.02773
2383.81540 0.02746
2382.52964 0.02719
2381.24387 0.02705
2379.95810 0.02706
2378.67233 0.02715
2377.38656 0.02724
2376.10079 0.02733
2374.81502 0.02753
2373.52925 0.02782
2372.24349 0.02809
2370.95772 0.02825
2369.67195 0.02836
2368.38618 0.02847
2367.10041 0.02859
2365.81464 0.02870
2364.52887 0.02884
2363.24310 0.02898
2361.95733 0.02905
2360.67157 0.02889
2359.38580 0.02864
2358.10003 0.02853
2356.81426 0.02864
2355.52849 0.02895
2354.24272 0.02928
2352.95695 0.02941
2351.67118 0.02917
2350.38542 0.02883
2349.09965 0.02877
2347.81388 0.02899
2346.52811 0.02908
2345.24234 0.02904
2343.95657 0.02927
2342.67080 0.02976
2341.38503 0.02984
2340.09926 0.02953
2338.81350 0.02973
2337.52773 0.03034
2336.24196 0.03007
2334.95619 0.02924
2333.67042 0.02928
2332.38465 0.02983
2331.09888 0.02955
2329.81311 0.02932
2328.52735 0.03014
2327.24158 0.03078
2325.95581 0.03134
2324.67004 0.03248
2323.38427 0.03300
2322.09850 0.03258
2320.81273 0.03229
2319.52696 0.03183
2318.24119 0.03129
2316.95543 0.03110
2315.66966 0.03067
2314.38389 0.03007
2313.09812 0.02968
2311.81235 0.02931
2310.52658 0.02915
2309.24081 0.02909
2307.95504 0.02893
2306.66928 0.02874
2305.38351 0.02842
2304.09774 0.02809
2302.81197 0.02792
2301.52620 0.02793
2300.24043 0.02805
2298.95466 0.02804
2297.66889 0.02784
2296.38312 0.02766
2295.09736 0.02771
2293.81159 0.02803
2292.52582 0.02841
2291.24005 0.02870
2289.95428 0.02886
2288.66851 0.02891
2287.38274 0.02880
2286.09697 0.02848
2284.81121 0.02800
2283.52544 0.02756
2282.23967 0.02735
2280.95390 0.02737
2279.66813 0.02744
2278.38236 0.02726
2277.09659 0.02673
2275.81082 0.02607
2274.52505 0.02567
2273.23929 0.02573
2271.95352 0.02607
2270.66775 0.02624
2269.38198 0.02587
2268.09621 0.02505
2266.81044 0.02432
2265.52467 0.02422
2264.23890 0.02479
2262.95314 0.02543
2261.66737 0.02542
2260.38160 0.02456
2259.09583 0.02324
2257.81006 0.02206
2256.52429 0.02133
2255.23852 0.02102
2253.95275 0.02096
2252.66698 0.02102
2251.38122 0.02089
2250.09545 0.02076
2248.80968 0.02178
2247.52391 0.02139
2246.23814 0.02079
2244.95237 0.02047
2243.66660 0.02057
2242.38083 0.02094
2241.09507 0.02133
2239.80930 0.02156
2238.52353 0.02159
2237.23776 0.02154
2235.95199 0.02169
2234.66622 0.02213
2233.38045 0.02268
2232.09468 0.02306
2230.80891 0.02311
2229.52315 0.02275
2228.23738 0.02196
2226.95161 0.02087
2225.66584 0.01984
2224.38007 0.01913
2223.09430 0.01875
2221.80853 0.01860
2220.52276 0.01866
2219.23700 0.01903
2217.95123 0.01969
2216.66546 0.02033
2215.37969 0.02048
2214.09392 0.01999
2212.80815 0.01932
2211.52238 0.01908
2210.23661 0.01941
2208.95084 0.01998
2207.66508 0.02037
2206.37931 0.02041
2205.09354 0.02008
2203.80777 0.01936
2202.52200 0.01829
2201.23623 0.01715
2199.95046 0.01642
2198.66469 0.01634
2197.37893 0.01656
2196.09316 0.01645
2194.80739 0.01590
2193.52162 0.01541
2192.23585 0.01543
2190.95008 0.01591
2189.66431 0.01643
2188.37854 0.01667
2187.09277 0.01638
2185.80701 0.01556
2184.52124 0.01461
2183.23547 0.01421
2181.94970 0.01466
2180.66393 0.01552
2179.37816 0.01603
2178.09239 0.01574
2176.80662 0.01474
2175.52085 0.01345
2174.23509 0.01237
2172.94932 0.01196
2171.66355 0.01234
2170.37778 0.01336
2169.09201 0.01465
2167.80624 0.01585
2166.52047 0.01660
2165.23470 0.01663
2163.94894 0.01582
2162.66317 0.01412
2161.37740 0.01153
2160.09163 0.00850
2158.80586 0.00604
2157.52009 0.00515
2156.23432 0.00581
2154.94855 0.00703
2153.66278 0.00773
2152.37702 0.00754
2151.09125 0.00688
2149.80548 0.00647
2148.51971 0.00676
2147.23394 0.00772
2145.94817 0.00889
2144.66240 0.00974
2143.37663 0.01004
2142.09087 0.01006
2140.80510 0.01021
2139.51933 0.01054
2138.23356 0.01075
2136.94779 0.01067
2135.66202 0.01053
2134.37625 0.01065
2133.09048 0.01106
2131.80471 0.01153
2130.51895 0.01195
2129.23318 0.01243
2127.94741 0.01312
2126.66164 0.01395
2125.37587 0.01464
2124.09010 0.01485
2122.80433 0.01455
2121.51856 0.01415
2120.23280 0.01413
2118.94703 0.01461
2117.66126 0.01531
2116.37549 0.01589
2115.08972 0.01630
2113.80395 0.01662
2112.51818 0.01691
2111.23241 0.01716
2109.94664 0.01734
2108.66088 0.01738
2107.37511 0.01719
2106.08934 0.01686
2104.80357 0.01670
2103.51780 0.01691
2102.23203 0.01736
2100.94626 0.01772
2099.66049 0.01841
2098.37473 0.01872
2097.08896 0.01817
2095.80319 0.01718
2094.51742 0.01619
2093.23165 0.01546
2091.94588 0.01515
2090.66011 0.01519
2089.37434 0.01532
2088.08857 0.01535
2086.80281 0.01523
2085.51704 0.01507
2084.23127 0.01511
2082.94550 0.01553
2081.65973 0.01630
2080.37396 0.01708
2079.08819 0.01752
2077.80242 0.01742
2076.51666 0.01688
2075.23089 0.01619
2073.94512 0.01582
2072.65935 0.01610
2071.37358 0.01686
2070.08781 0.01741
2068.80204 0.01713
2067.51627 0.01598
2066.23050 0.01453
2064.94474 0.01337
2063.65897 0.01271
2062.37320 0.01236
2061.08743 0.01206
2059.80166 0.01183
2058.51589 0.01179
2057.23012 0.01200
2055.94435 0.01238
2054.65859 0.01300
2053.37282 0.01403
2052.08705 0.01537
2050.80128 0.01635
2049.51551 0.01624
2048.22974 0.01495
2046.94397 0.01305
2045.65820 0.01117
2044.37243 0.00968
2043.08667 0.00885
2041.80090 0.00900
2040.51513 0.01012
2039.22936 0.01162
2037.94359 0.01270
2036.65782 0.01293
2035.37205 0.01248
2034.08628 0.01163
2032.80052 0.01049
2031.51475 0.00906
2030.22898 0.00755
2028.94321 0.00643
2027.65744 0.00617
2026.37167 0.00668
2025.08590 0.00734
2023.80013 0.00750
2022.51436 0.00707
2021.22860 0.00650
2019.94283 0.00616
2018.65706 0.00618
2017.37129 0.00653
2016.08552 0.00729
2014.79975 0.00840
2013.51398 0.00964
2012.22821 0.01052
2010.94245 0.01065
2009.65668 0.00994
2008.37091 0.00882
2007.08514 0.00793
2005.79937 0.00769
2004.51360 0.00812
2003.22783 0.00898
2001.94206 0.01002
2000.65629 0.01105
1999.37053 0.01193
1998.08476 0.01242
1996.79899 0.01233
1995.51322 0.01177
1994.22745 0.01124
1992.94168 0.01113
1991.65591 0.01126
1990.37014 0.01116
1989.08438 0.01069
1987.79861 0.01032
1986.51284 0.01053
1985.22707 0.01133
1983.94130 0.01230
1982.65553 0.01303
1981.36976 0.01340
1980.08399 0.01354
1978.79822 0.01358
1977.51246 0.01351
1976.22669 0.01322
1974.94092 0.01272
1973.65515 0.01224
1972.36938 0.01213
1971.08361 0.01257
1969.79784 0.01341
1968.51207 0.01424
1967.22631 0.01457
1965.94054 0.01421
1964.65477 0.01344
1963.36900 0.01267
1962.08323 0.01213
1960.79746 0.01180
1959.51169 0.01165
1958.22592 0.01169
1956.94015 0.01179
1955.65439 0.01175
1954.36862 0.01155
1953.08285 0.01141
1951.79708 0.01161
1950.51131 0.01221
1949.22554 0.01305
1947.93977 0.01381
1946.65400 0.01426
1945.36823 0.01429
1944.08247 0.01398
1942.79670 0.01354
1941.51093 0.01329
1940.22516 0.01346
1938.93939 0.01398
1937.65362 0.01457
1936.36785 0.01497
1935.08208 0.01514
1933.79632 0.01520
1932.51055 0.01526
1931.22478 0.01535
1929.93901 0.01548
1928.65324 0.01570
1927.36747 0.01597
1926.08170 0.01616
1924.79593 0.01619
1923.51016 0.01613
1922.22440 0.01622
1920.93863 0.01654
1919.65286 0.01692
1918.36709 0.01718
1917.08132 0.01728
1915.79555 0.01725
1914.50978 0.01710
1913.22401 0.01682
1911.93825 0.01649
1910.65248 0.01624
1909.36671 0.01614
1908.08094 0.01612
1906.79517 0.01600
1905.50940 0.01568
1904.22363 0.01524
1902.93786 0.01495
1901.65209 0.01497
1900.36633 0.01527
1899.08056 0.01565
1897.79479 0.01590
1896.50902 0.01599
1895.22325 0.01602
1893.93748 0.01611
1892.65171 0.01626
1891.36594 0.01638
1890.08018 0.01637
1888.79441 0.01621
1887.50864 0.01598
1886.22287 0.01575
1884.93710 0.01557
1883.65133 0.01543
1882.36556 0.01531
1881.07979 0.01524
1879.79402 0.01527
1878.50826 0.01540
1877.22249 0.01556
1875.93672 0.01565
1874.65095 0.01566
1873.36518 0.01569
1872.07941 0.01582
1870.79364 0.01600
1869.50787 0.01614
1868.22211 0.01623
1866.93634 0.01630
1865.65057 0.01633
1864.36480 0.01628
1863.07903 0.01612
1861.79326 0.01590
1860.50749 0.01569
1859.22172 0.01557
1857.93595 0.01556
1856.65019 0.01564
1855.36442 0.01578
1854.07865 0.01591
1852.79288 0.01599
1851.50711 0.01599
1850.22134 0.01594
1848.93557 0.01595
1847.64980 0.01608
1846.36404 0.01631
1845.07827 0.01653
1843.79250 0.01666
1842.50673 0.01666
1841.22096 0.01650
1839.93519 0.01626
1838.64942 0.01607
1837.36365 0.01597
1836.07788 0.01597
1834.79212 0.01607
1833.50635 0.01625
1832.22058 0.01639
1830.93481 0.01642
1829.64904 0.01643
1828.36327 0.01651
1827.07750 0.01668
1825.79173 0.01689
1824.50597 0.01709
1823.22020 0.01722
1821.93443 0.01722
1820.64866 0.01706
1819.36289 0.01677
1818.07712 0.01640
1816.79135 0.01605
1815.50558 0.01578
1814.21981 0.01561
1812.93405 0.01548
1811.64828 0.01541
1810.36251 0.01541
1809.07674 0.01548
1807.79097 0.01561
1806.50520 0.01579
1805.21943 0.01605
1803.93366 0.01631
1802.64790 0.01648
1801.36213 0.01650
1800.07636 0.01645
1798.79059 0.01646
1797.50482 0.01661
1796.21905 0.01684
1794.93328 0.01699
1793.64751 0.01696
1792.36174 0.01688
1791.07598 0.01693
1789.79021 0.01709
1788.50444 0.01720
1787.21867 0.01715
1785.93290 0.01698
1784.64713 0.01685
1783.36136 0.01685
1782.07559 0.01692
1780.78983 0.01697
1779.50406 0.01696
1778.21829 0.01691
1776.93252 0.01685
1775.64675 0.01676
1774.36098 0.01662
1773.07521 0.01650
1771.78944 0.01653
1770.50367 0.01665
1769.21791 0.01671
1767.93214 0.01671
1766.64637 0.01675
1765.36060 0.01688
1764.07483 0.01703
1762.78906 0.01715
1761.50329 0.01727
1760.21752 0.01737
1758.93176 0.01737
1757.64599 0.01729
1756.36022 0.01724
1755.07445 0.01726
1753.78868 0.01722
1752.50291 0.01711
1751.21714 0.01707
1749.93137 0.01721
1748.64560 0.01743
1747.35984 0.01761
1746.07407 0.01770
1744.78830 0.01774
1743.50253 0.01779
1742.21676 0.01781
1740.93099 0.01779
1739.64522 0.01781
1738.35945 0.01797
1737.07369 0.01814
1735.78792 0.01814
1734.50215 0.01801
1733.21638 0.01795
1731.93061 0.01799
1730.64484 0.01800
1729.35907 0.01797
1728.07330 0.01798
1726.78753 0.01804
1725.50177 0.01813
1724.21600 0.01827
1722.93023 0.01855
1721.64446 0.01895
1720.35869 0.01930
1719.07292 0.01949
1717.78715 0.01957
1716.50138 0.01972
1715.21561 0.01995
1713.92985 0.02025
1712.64408 0.02064
1711.35831 0.02114
1710.07254 0.02172
1708.78677 0.02236
1707.50100 0.02303
1706.21523 0.02375
1704.92946 0.02462
1703.64370 0.02561
1702.35793 0.02655
1701.07216 0.02746
1699.78639 0.02856
1698.50062 0.02979
1697.21485 0.03087
1695.92908 0.03184
1694.64331 0.03293
1693.35754 0.03411
1692.07178 0.03523
1690.78601 0.03639
1689.50024 0.03775
1688.21447 0.03924
1686.92870 0.04058
1685.64293 0.04166
1684.35716 0.04271
1683.07139 0.04394
1681.78563 0.04524
1680.49986 0.04648
1679.21409 0.04772
1677.92832 0.04898
1676.64255 0.05023
1675.35678 0.05153
1674.07101 0.05295
1672.78524 0.05434
1671.49947 0.05557
1670.21371 0.05667
1668.92794 0.05780
1667.64217 0.05897
1666.35640 0.06012
1665.07063 0.06117
1663.78486 0.06220
1662.49909 0.06327
1661.21332 0.06440
1659.92756 0.06552
1658.64179 0.06662
1657.35602 0.06774
1656.07025 0.06873
1654.78448 0.06942
1653.49871 0.06995
1652.21294 0.07062
1650.92717 0.07142
1649.64140 0.07202
1648.35564 0.07229
1647.06987 0.07243
1645.78410 0.07260
1644.49833 0.07276
1643.21256 0.07277
1641.92679 0.07264
1640.64102 0.07248
1639.35525 0.07234
1638.06949 0.07214
1636.78372 0.07175
1635.49795 0.07123
1634.21218 0.07065
1632.92641 0.06997
1631.64064 0.06915
1630.35487 0.06823
1629.06910 0.06730
1627.78333 0.06637
1626.49757 0.06537
1625.21180 0.06426
1623.92603 0.06306
1622.64026 0.06192
1621.35449 0.06093
1620.06872 0.05999
1618.78295 0.05894
1617.49718 0.05778
1616.21142 0.05667
1614.92565 0.05567
1613.63988 0.05467
1612.35411 0.05363
1611.06834 0.05266
1609.78257 0.05184
1608.49680 0.05114
1607.21103 0.05051
1605.92526 0.04992
1604.63950 0.04937
1603.35373 0.04889
1602.06796 0.04851
1600.78219 0.04824
1599.49642 0.04806
1598.21065 0.04795
1596.92488 0.04790
1595.63911 0.04789
1594.35335 0.04791
1593.06758 0.04795
1591.78181 0.04801
1590.49604 0.04813
1589.21027 0.04834
1587.92450 0.04864
1586.63873 0.04900
1585.35296 0.04937
1584.06719 0.04974
1582.78143 0.05015
1581.49566 0.05068
1580.20989 0.05137
1578.92412 0.05210
1577.63835 0.05272
1576.35258 0.05329
1575.06681 0.05399
1573.78104 0.05482
1572.49528 0.05561
1571.20951 0.05629
1569.92374 0.05693
1568.63797 0.05760
1567.35220 0.05827
1566.06643 0.05893
1564.78066 0.05969
1563.49489 0.06056
1562.20912 0.06136
1560.92336 0.06189
1559.63759 0.06224
1558.35182 0.06267
1557.06605 0.06318
1555.78028 0.06358
1554.49451 0.06383
1553.20874 0.06406
1551.92297 0.06430
1550.63721 0.06454
1549.35144 0.06480
1548.06567 0.06514
1546.77990 0.06552
1545.49413 0.06593
1544.20836 0.06632
1542.92259 0.06657
1541.63682 0.06654
1540.35105 0.06629
1539.06529 0.06603
1537.77952 0.06590
1536.49375 0.06577
1535.20798 0.06552
1533.92221 0.06527
1532.63644 0.06515
1531.35067 0.06517
1530.06490 0.06523
1528.77914 0.06529
1527.49337 0.06537
1526.20760 0.06550
1524.92183 0.06569
1523.63606 0.06583
1522.35029 0.06591
1521.06452 0.06602
1519.77875 0.06623
1518.49298 0.06642
1517.20722 0.06654
1515.92145 0.06667
1514.63568 0.06690
1513.34991 0.06723
1512.06414 0.06771
1510.77837 0.06834
1509.49260 0.06897
1508.20683 0.06940
1506.92107 0.06966
1505.63530 0.06993
1504.34953 0.07025
1503.06376 0.07052
1501.77799 0.07072
1500.49222 0.07094
1499.20645 0.07118
1497.92068 0.07135
1496.63491 0.07144
1495.34915 0.07150
1494.06338 0.07156
1492.77761 0.07158
1491.49184 0.07158
1490.20607 0.07170
1488.92030 0.07197
1487.63453 0.07235
1486.34876 0.07278
1485.06299 0.07322
1483.77723 0.07370
1482.49146 0.07423
1481.20569 0.07485
1479.91992 0.07559
1478.63415 0.07644
1477.34838 0.07738
1476.06261 0.07837
1474.77684 0.07930
1473.49108 0.08014
1472.20531 0.08095
1470.91954 0.08179
1469.63377 0.08258
1468.34800 0.08327
1467.06223 0.08383
1465.77646 0.08434
1464.49069 0.08489
1463.20492 0.08556
1461.91916 0.08640
1460.63339 0.08733
1459.34762 0.08826
1458.06185 0.08916
1456.77608 0.09011
1455.49031 0.09112
1454.20454 0.09202
1452.91877 0.09269
1451.63301 0.09320
1450.34724 0.09365
1449.06147 0.09405
1447.77570 0.09439
1446.48993 0.09469
1445.20416 0.09492
1443.91839 0.09504
1442.63262 0.09506
1441.34685 0.09501
1440.06109 0.09490
1438.77532 0.09468
1437.48955 0.09439
1436.20378 0.09417
1434.91801 0.09411
1433.63224 0.09421
1432.34647 0.09443
1431.06070 0.09478
1429.77494 0.09530
1428.48917 0.09596
1427.20340 0.09672
1425.91763 0.09756
1424.63186 0.09850
1423.34609 0.09953
1422.06032 0.10056
1420.77455 0.10147
1419.48878 0.10233
1418.20302 0.10318
1416.91725 0.10398
1415.63148 0.10460
1414.34571 0.10507
1413.05994 0.10542
1411.77417 0.10570
1410.48840 0.10587
1409.20263 0.10588
1407.91687 0.10568
1406.63110 0.10524
1405.34533 0.10456
1404.05956 0.10369
1402.77379 0.10265
1401.48802 0.10145
1400.20225 0.10012
1398.91648 0.09875
1397.63071 0.09736
1396.34495 0.09591
1395.05918 0.09435
1393.77341 0.09275
1392.48764 0.09111
1391.20187 0.08942
1389.91610 0.08769
1388.63033 0.08596
1387.34456 0.08429
1386.05880 0.08265
1384.77303 0.08099
1383.48726 0.07926
1382.20149 0.07747
1380.91572 0.07567
1379.62995 0.07389
1378.34418 0.07213
1377.05841 0.07038
1375.77264 0.06862
1374.48688 0.06685
1373.20111 0.06510
1371.91534 0.06340
1370.62957 0.06170
1369.34380 0.06003
1368.05803 0.05842
1366.77226 0.05690
1365.48649 0.05548
1364.20073 0.05414
1362.91496 0.05287
1361.62919 0.05166
1360.34342 0.05051
1359.05765 0.04945
1357.77188 0.04851
1356.48611 0.04769
1355.20034 0.04694
1353.91457 0.04624
1352.62881 0.04560
1351.34304 0.04503
1350.05727 0.04454
1348.77150 0.04409
1347.48573 0.04364
1346.19996 0.04320
1344.91419 0.04279
1343.62842 0.04246
1342.34266 0.04219
1341.05689 0.04193
1339.77112 0.04164
1338.48535 0.04131
1337.19958 0.04098
1335.91381 0.04064
1334.62804 0.04029
1333.34227 0.03993
1332.05650 0.03957
1330.77074 0.03922
1329.48497 0.03887
1328.19920 0.03849
1326.91343 0.03809
1325.62766 0.03773
1324.34189 0.03739
1323.05612 0.03707
1321.77035 0.03673
1320.48459 0.03641
1319.19882 0.03610
1317.91305 0.03580
1316.62728 0.03549
1315.34151 0.03517
1314.05574 0.03486
1312.76997 0.03460
1311.48420 0.03440
1310.19843 0.03421
1308.91267 0.03399
1307.62690 0.03370
1306.34113 0.03334
1305.05536 0.03291
1303.76959 0.03248
1302.48382 0.03209
1301.19805 0.03177
1299.91228 0.03149
1298.62652 0.03123
1297.34075 0.03098
1296.05498 0.03075
1294.76921 0.03056
1293.48344 0.03043
1292.19767 0.03036
1290.91190 0.03033
1289.62613 0.03030
1288.34036 0.03022
1287.05460 0.03010
1285.76883 0.02996
1284.48306 0.02985
1283.19729 0.02978
1281.91152 0.02974
1280.62575 0.02967
1279.33998 0.02953
1278.05421 0.02935
1276.76845 0.02917
1275.48268 0.02901
1274.19691 0.02889
1272.91114 0.02879
1271.62537 0.02871
1270.33960 0.02864
1269.05383 0.02859
1267.76806 0.02859
1266.48229 0.02862
1265.19653 0.02865
1263.91076 0.02861
1262.62499 0.02852
1261.33922 0.02843
1260.05345 0.02837
1258.76768 0.02836
1257.48191 0.02839
1256.19614 0.02841
1254.91037 0.02844
1253.62461 0.02846
1252.33884 0.02848
1251.05307 0.02852
1249.76730 0.02854
1248.48153 0.02853
1247.19576 0.02848
1245.90999 0.02843
1244.62422 0.02840
1243.33846 0.02840
1242.05269 0.02838
1240.76692 0.02832
1239.48115 0.02820
1238.19538 0.02804
1236.90961 0.02786
1235.62384 0.02766
1234.33807 0.02745
1233.05230 0.02724
1231.76654 0.02703
1230.48077 0.02682
1229.19500 0.02654
1227.90923 0.02621
1226.62346 0.02585
1225.33769 0.02553
1224.05192 0.02524
1222.76615 0.02493
1221.48039 0.02458
1220.19462 0.02423
1218.90885 0.02392
1217.62308 0.02367
1216.33731 0.02347
1215.05154 0.02329
1213.76577 0.02314
1212.48000 0.02302
1211.19423 0.02294
1209.90847 0.02290
1208.62270 0.02287
1207.33693 0.02283
1206.05116 0.02276
1204.76539 0.02268
1203.47962 0.02260
1202.19385 0.02248
1200.90808 0.02229
1199.62232 0.02226
1198.33655 0.02213
1197.05078 0.02194
1195.76501 0.02174
1194.47924 0.02157
1193.19347 0.02141
1191.90770 0.02124
1190.62193 0.02105
1189.33616 0.02086
1188.05040 0.02070
1186.76463 0.02059
1185.47886 0.02051
1184.19309 0.02042
1182.90732 0.02031
1181.62155 0.02021
1180.33578 0.02012
1179.05001 0.02004
1177.76425 0.01995
1176.47848 0.01991
1175.19271 0.01996
1173.90694 0.02009
1172.62117 0.02026
1171.33540 0.02043
1170.04963 0.02057
1168.76386 0.02069
1167.47809 0.02080
1166.19233 0.02092
1164.90656 0.02103
1163.62079 0.02112
1162.33502 0.02117
1161.04925 0.02118
1159.76348 0.02120
1158.47771 0.02126
1157.19194 0.02141
1155.90618 0.02163
1154.62041 0.02188
1153.33464 0.02215
1152.04887 0.02240
1150.76310 0.02265
1149.47733 0.02289
1148.19156 0.02317
1146.90579 0.02352
1145.62002 0.02396
1144.33426 0.02449
1143.04849 0.02508
1141.76272 0.02572
1140.47695 0.02640
1139.19118 0.02714
1137.90541 0.02799
1136.61964 0.02899
1135.33387 0.03017
1134.04811 0.03144
1132.76234 0.03275
1131.47657 0.03413
1130.19080 0.03568
1128.90503 0.03747
1127.61926 0.03953
1126.33349 0.04181
1125.04772 0.04429
1123.76195 0.04690
1122.47619 0.04959
1121.19042 0.05233
1119.90465 0.05510
1118.61888 0.05791
1117.33311 0.06076
1116.04734 0.06370
1114.76157 0.06670
1113.47580 0.06968
1112.19004 0.07257
1110.90427 0.07532
1109.61850 0.07799
1108.33273 0.08063
1107.04696 0.08323
1105.76119 0.08575
1104.47542 0.08818
1103.18965 0.09058
1101.90388 0.09297
1100.61812 0.09532
1099.33235 0.09760
1098.04658 0.09983
1096.76081 0.10202
1095.47504 0.10414
1094.18927 0.10609
1092.90350 0.10781
1091.61773 0.10934
1090.33197 0.11078
1089.04620 0.11225
1087.76043 0.11381
1086.47466 0.11542
1085.18889 0.11702
1083.90312 0.11860
1082.61735 0.12019
1081.33158 0.12187
1080.04581 0.12365
1078.76005 0.12556
1077.47428 0.12760
1076.18851 0.12977
1074.90274 0.13202
1073.61697 0.13432
1072.33120 0.13672
1071.04543 0.13927
1069.75966 0.14200
1068.47390 0.14483
1067.18813 0.14769
1065.90236 0.15052
1064.61659 0.15333
1063.33082 0.15620
1062.04505 0.15918
1060.75928 0.16226
1059.47351 0.16535
1058.18774 0.16834
1056.90198 0.17120
1055.61621 0.17396
1054.33044 0.17673
1053.04467 0.17951
1051.75890 0.18226
1050.47313 0.18498
1049.18736 0.18772
1047.90159 0.19054
1046.61583 0.19344
1045.33006 0.19637
1044.04429 0.19935
1042.75852 0.20236
1041.47275 0.20541
1040.18698 0.20848
1038.90121 0.21157
1037.61544 0.21470
1036.32967 0.21782
1035.04391 0.22092
1033.75814 0.22397
1032.47237 0.22692
1031.18660 0.22971
1029.90083 0.23232
1028.61506 0.23476
1027.32929 0.23700
1026.04352 0.23903
1024.75775 0.24082
1023.47199 0.24241
1022.18622 0.24380
1020.90045 0.24500
1019.61468 0.24594
1018.32891 0.24650
1017.04314 0.24661
1015.75737 0.24632
1014.47160 0.24574
1013.18584 0.24487
1011.90007 0.24365
1010.61430 0.24202
1009.32853 0.24001
1008.04276 0.23763
1006.75699 0.23488
1005.47122 0.23182
1004.18545 0.22853
1002.89968 0.22505
1001.61392 0.22135
1000.32815 0.21743
999.04238 0.21331
997.75661 0.20901
996.47084 0.20455
995.18507 0.19991
993.89930 0.19512
992.61353 0.19025
991.32777 0.18532
990.04200 0.18034
988.75623 0.17534
987.47046 0.17035
986.18469 0.16540
984.89892 0.16048
983.61315 0.15562
982.32738 0.15084
981.04161 0.14616
979.75585 0.14161
978.47008 0.13727
977.18431 0.13322
975.89854 0.12948
974.61277 0.12604
973.32700 0.12289
972.04123 0.12007
970.75546 0.11765
969.46970 0.11577
968.18393 0.11453
966.89816 0.11395
965.61239 0.11392
964.32662 0.11421
963.04085 0.11457
961.75508 0.11476
960.46931 0.11461
959.18354 0.11404
957.89778 0.11300
956.61201 0.11156
955.32624 0.10984
954.04047 0.10798
952.75470 0.10606
951.46893 0.10406
950.18316 0.10193
948.89739 0.09963
947.61163 0.09724
946.32586 0.09490
945.04009 0.09269
943.75432 0.09059
942.46855 0.08853
941.18278 0.08650
939.89701 0.08452
938.61124 0.08261
937.32547 0.08080
936.03971 0.07905
934.75394 0.07739
933.46817 0.07585
932.18240 0.07442
930.89663 0.07308
929.61086 0.07180
928.32509 0.07060
927.03932 0.06945
925.75356 0.06833
924.46779 0.06725
923.18202 0.06625
921.89625 0.06536
920.61048 0.06450
919.32471 0.06357
918.03894 0.06251
916.75317 0.06143
915.46740 0.06048
914.18164 0.05974
912.89587 0.05919
911.61010 0.05865
910.32433 0.05802
909.03856 0.05726
907.75279 0.05644
906.46702 0.05568
905.18125 0.05504
903.89549 0.05451
902.60972 0.05399
901.32395 0.05341
900.03818 0.05282
898.75241 0.05232
897.46664 0.05192
896.18087 0.05155
894.89510 0.05115
893.60933 0.05068
892.32357 0.05022
891.03780 0.04984
889.75203 0.04963
888.46626 0.04966
887.18049 0.05000
885.89472 0.05075
884.60895 0.05210
883.32318 0.05418
882.03742 0.05687
880.75165 0.05966
879.46588 0.06194
878.18011 0.06345
876.89434 0.06449
875.60857 0.06558
874.32280 0.06699
873.03703 0.06843
871.75126 0.06939
870.46550 0.06957
869.17973 0.06900
867.89396 0.06788
866.60819 0.06635
865.32242 0.06451
864.03665 0.06245
862.75088 0.06035
861.46511 0.05837
860.17935 0.05661
858.89358 0.05510
857.60781 0.05381
856.32204 0.05267
855.03627 0.05164
853.75050 0.05072
852.46473 0.04994
851.17896 0.04931
849.89319 0.04877
848.60743 0.04828
847.32166 0.04779
846.03589 0.04730
844.75012 0.04681
843.46435 0.04631
842.17858 0.04585
840.89281 0.04546
839.60704 0.04516
838.32128 0.04489
837.03551 0.04456
835.74974 0.04414
834.46397 0.04371
833.17820 0.04337
831.89243 0.04315
830.60666 0.04299
829.32089 0.04284
828.03512 0.04269
826.74936 0.04257
825.46359 0.04245
824.17782 0.04233
822.89205 0.04222
821.60628 0.04215
820.32051 0.04214
819.03474 0.04214
817.74897 0.04205
816.46321 0.04182
815.17744 0.04149
813.89167 0.04118
812.60590 0.04092
811.32013 0.04070
810.03436 0.04049
808.74859 0.04032
807.46282 0.04019
806.17705 0.04007
804.89129 0.03997
803.60552 0.03994
802.31975 0.04004
801.03398 0.04023
799.74821 0.04040
798.46244 0.04040
797.17667 0.04027
795.89090 0.04011
794.60513 0.04002
793.31937 0.03996
792.03360 0.03988
790.74783 0.03979
789.46206 0.03972
788.17629 0.03967
786.89052 0.03964
785.60475 0.03964
784.31898 0.03967
783.03322 0.03965
781.74745 0.03955
780.46168 0.03941
779.17591 0.03932
777.89014 0.03930
776.60437 0.03930
775.31860 0.03930
774.03283 0.03929
772.74706 0.03931
771.46130 0.03937
770.17553 0.03947
768.88976 0.03956
767.60399 0.03959
766.31822 0.03959
765.03245 0.03963
763.74668 0.03973
762.46091 0.03982
761.17515 0.03981
759.88938 0.03972
758.60361 0.03964
757.31784 0.03966
756.03207 0.03976
754.74630 0.03993
753.46053 0.04011
752.17476 0.04024
750.88899 0.04024
749.60323 0.04011
748.31746 0.03997
747.03169 0.03993
745.74592 0.04002
744.46015 0.04014
743.17438 0.04011
741.88861 0.03986
740.60284 0.03947
739.31708 0.03914
738.03131 0.03898
736.74554 0.03895
735.45977 0.03899
734.17400 0.03910
732.88823 0.03928
731.60246 0.03949
730.31669 0.03965
729.03092 0.03973
727.74516 0.03976
726.45939 0.03976
725.17362 0.03977
723.88785 0.04003
722.60208 0.03990
721.31631 0.03983
720.03054 0.03987
718.74477 0.03988
717.45901 0.03983
716.17324 0.03976
714.88747 0.03968
713.60170 0.03964
712.31593 0.03964
711.03016 0.03968
709.74439 0.03975
708.45862 0.03981
707.17285 0.03987
705.88709 0.03992
704.60132 0.03998
703.31555 0.04004
702.02978 0.04011
700.74401 0.04017
699.45824 0.04022
698.17247 0.04022
696.88670 0.04018
695.60094 0.04013
694.31517 0.04012
693.02940 0.04017
691.74363 0.04024
690.45786 0.04027
689.17209 0.04023
687.88632 0.04017
686.60055 0.04013
685.31478 0.04009
684.02902 0.04002
682.74325 0.03987
681.45748 0.03972
680.17171 0.03962
678.88594 0.03960
677.60017 0.03960
676.31440 0.03959
675.02863 0.03958
673.74287 0.03962
672.45710 0.03974
671.17133 0.03991
669.88556 0.04009
668.59979 0.04025
667.31402 0.04032
666.02825 0.04021
664.74248 0.04002
663.45671 0.03979
662.17095 0.03957
660.88518 0.03940
659.59941 0.03930
658.31364 0.03923
657.02787 0.03910
655.74210 0.03889
654.45633 0.03866
653.17056 0.03847
651.88480 0.03837
650.59903 0.03833
649.31326 0.03832
648.02749 0.03829
646.74172 0.03825
645.45595 0.03818
644.17018 0.03811
642.88441 0.03805
641.59864 0.03799
640.31288 0.03795
639.02711 0.03795
637.74134 0.03800
636.45557 0.03814
635.16980 0.03839
633.88403 0.03880
632.59826 0.03921
631.31249 0.03905
630.02673 0.03845
628.74096 0.04008
627.45519 0.04248
626.16942 0.04595
624.88365 0.04999
623.59788 0.05359
622.31211 0.05624
621.02634 0.05800
619.74057 0.05925
618.45481 0.06009
617.16904 0.06048
615.88327 0.06084
614.59750 0.06240
613.31173 0.06647
612.02596 0.07308
610.74019 0.08022
609.45442 0.08553
608.16866 0.08872
606.88289 0.09143
605.59712 0.09492
604.31135 0.09886
603.02558 0.10204
601.73981 0.10351
600.45404 0.10312
599.16827 0.10139
597.88250 0.09896
596.59674 0.09633
595.31097 0.09376
594.02520 0.09141
592.73943 0.08946
591.45366 0.08808
590.16789 0.08727
588.88212 0.08685
587.59635 0.08670
586.31059 0.08685
585.02482 0.08749
583.73905 0.08877
582.45328 0.09069
581.16751 0.09306
579.88174 0.09562
578.59597 0.09818
577.31020 0.10067
576.02443 0.10309
574.73867 0.10547
573.45290 0.10784
572.16713 0.11029
570.88136 0.11297
569.59559 0.11602
568.30982 0.11944
567.02405 0.12306
565.73828 0.12662
564.45251 0.12984
563.16675 0.13249
561.88098 0.13438
560.59521 0.13528
559.30944 0.13497
558.02367 0.13330
556.73790 0.13032
555.45213 0.12626
554.16636 0.12150
552.88060 0.11647
551.59483 0.11147
550.30906 0.10666
549.02329 0.10213
547.73752 0.09797
546.45175 0.09426
545.16598 0.09099
543.88021 0.08806
542.59444 0.08532
541.30868 0.08267
540.02291 0.08011
538.73714 0.07769
537.45137 0.07546
536.16560 0.07348
534.87983 0.07177
533.59406 0.07027
532.30829 0.06888
531.02253 0.06751
529.73676 0.06611
528.45099 0.06465
527.16522 0.06314
525.87945 0.06162
524.59368 0.06021
523.30791 0.05903
522.02214 0.05807
520.73637 0.05720
519.45061 0.05623
518.16484 0.05511
516.87907 0.05398
515.59330 0.05296
514.30753 0.05205
513.02176 0.05119
511.73599 0.05037
510.45022 0.04962
509.16446 0.04899
507.87869 0.04847
506.59292 0.04803
505.30715 0.04757
504.02138 0.04703
502.73561 0.04635
501.44984 0.04557
500.16407 0.04476
498.87830 0.04402
497.59254 0.04340
496.30677 0.04289
495.02100 0.04246
493.73523 0.04207
492.44946 0.04169
491.16369 0.04133
489.87792 0.04099
488.59215 0.04068
487.30639 0.04039
486.02062 0.04012
484.73485 0.03987
483.44908 0.03963
482.16331 0.03944
480.87754 0.03932
479.59177 0.03928
478.30600 0.03931
477.02023 0.03938
475.73447 0.03949
474.44870 0.03962
473.16293 0.03977
471.87716 0.03988
470.59139 0.03989
469.30562 0.03977
468.01985 0.03952
466.73408 0.03919
465.44832 0.03879
464.16255 0.03831
462.87678 0.03779
461.59101 0.03725
460.30524 0.03676
459.01947 0.03632
457.73370 0.03592
456.44793 0.03551
455.16216 0.03505
453.87640 0.03456
452.59063 0.03415
451.30486 0.03389
450.01909 0.03370
448.73332 0.03346
447.44755 0.03310
446.16178 0.03270
444.87601 0.03235
443.59025 0.03207
442.30448 0.03181
441.01871 0.03153
439.73294 0.03123
438.44717 0.03095
437.16140 0.03070
435.87563 0.03046
434.58986 0.03025
433.30409 0.03003
432.01833 0.02981
430.73256 0.02957
429.44679 0.02933
428.16102 0.02908
426.87525 0.02886
425.58948 0.02864
424.30371 0.02841
423.01794 0.02818
421.73218 0.02796
420.44641 0.02778
419.16064 0.02764
417.87487 0.02751
416.58910 0.02733
415.30333 0.02711
414.01756 0.02686
412.73179 0.02662
411.44602 0.02635
410.16026 0.02606
408.87449 0.02579
407.58872 0.02561
406.30295 0.02553
405.01718 0.02553
403.73141 0.02556
402.44564 0.02561
401.15987 0.02564
399.87411 0.02564
