3997.45528 0.04089
3996.16951 0.04111
3994.88374 0.04113
3993.59798 0.04094
3992.31221 0.04080
3991.02644 0.04088
3989.74067 0.04088
3988.45490 0.04046
3987.16913 0.03974
3985.88336 0.03927
3984.59759 0.03933
3983.31183 0.03963
3982.02606 0.03984
3980.74029 0.04014
3979.45452 0.04089
3978.16875 0.04191
3976.88298 0.04251
3975.59721 0.04222
3974.31144 0.04134
3973.02567 0.04053
3971.73991 0.04014
3970.45414 0.04016
3969.16837 0.04041
3967.88260 0.04072
3966.59683 0.04098
3965.31106 0.04124
3964.02529 0.04153
3962.73952 0.04168
3961.45376 0.04160
3960.16799 0.04149
3958.88222 0.04161
3957.59645 0.04189
3956.31068 0.04194
3955.02491 0.04153
3953.73914 0.04090
3952.45337 0.04058
3951.16760 0.04075
3949.88184 0.04092
3948.59607 0.04044
3947.31030 0.03930
3946.02453 0.03828
3944.73876 0.03813
3943.45299 0.03903
3942.16722 0.04056
3940.88145 0.04203
3939.59569 0.04288
3938.30992 0.04297
3937.02415 0.04270
3935.73838 0.04264
3934.45261 0.04295
3933.16684 0.04322
3931.88107 0.04299
3930.59530 0.04212
3929.30953 0.04082
3928.02377 0.03953
3926.73800 0.03867
3925.45223 0.03854
3924.16646 0.03908
3922.88069 0.03977
3921.59492 0.04007
3920.30915 0.03987
3919.02338 0.03944
3917.73762 0.03914
3916.45185 0.03911
3915.16608 0.03920
3913.88031 0.03902
3912.59454 0.03835
3911.30877 0.03752
3910.02300 0.03716
3908.73723 0.03752
3907.45146 0.03806
3906.16570 0.03805
3904.87993 0.03742
3903.59416 0.03687
3902.30839 0.03711
3901.02262 0.03823
3899.73685 0.03971
3898.45108 0.04094
3897.16531 0.04158
3895.87955 0.04172
3894.59378 0.04170
3893.30801 0.04181
3892.02224 0.04200
3890.73647 0.04189
3889.45070 0.04101
3888.16493 0.03935
3886.87916 0.03765
3885.59339 0.03701
3884.30763 0.03771
3883.02186 0.03904
3881.73609 0.04002
3880.45032 0.04027
3879.16455 0.04002
3877.87878 0.03947
3876.59301 0.03872
3875.30724 0.03797
3874.02148 0.03758
3872.73571 0.03783
3871.44994 0.03858
3870.16417 0.03936
3868.87840 0.03955
3867.59263 0.03879
3866.30686 0.03753
3865.02109 0.03669
3863.73532 0.03657
3862.44956 0.03673
3861.16379 0.03686
3859.87802 0.03709
3858.59225 0.03757
3857.30648 0.03809
3856.02071 0.03849
3854.73494 0.03898
3853.44917 0.03992
3852.16341 0.04106
3850.87764 0.04171
3849.59187 0.04157
3848.30610 0.04104
3847.02033 0.04058
3845.73456 0.04022
3844.44879 0.03976
3843.16302 0.03916
3841.87725 0.03847
3840.59149 0.03757
3839.30572 0.03637
3838.01995 0.03521
3836.73418 0.03465
3835.44841 0.03493
3834.16264 0.03577
3832.87687 0.03663
3831.59110 0.03702
3830.30534 0.03682
3829.01957 0.03627
3827.73380 0.03571
3826.44803 0.03532
3825.16226 0.03496
3823.87649 0.03446
3822.59072 0.03409
3821.30495 0.03440
3820.01918 0.03541
3818.73342 0.03631
3817.44765 0.03647
3816.16188 0.03633
3814.87611 0.03670
3813.59034 0.03758
3812.30457 0.03845
3811.01880 0.03898
3809.73303 0.03916
3808.44726 0.03905
3807.16150 0.03872
3805.87573 0.03818
3804.58996 0.03734
3803.30419 0.03639
3802.01842 0.03596
3800.73265 0.03648
3799.44688 0.03756
3798.16111 0.03837
3796.87535 0.03851
3795.58958 0.03798
3794.30381 0.03681
3793.01804 0.03522
3791.73227 0.03377
3790.44650 0.03299
3789.16073 0.03311
3787.87496 0.03399
3786.58919 0.03524
3785.30343 0.03628
3784.01766 0.03670
3782.73189 0.03645
3781.44612 0.03591
3780.16035 0.03558
3778.87458 0.03576
3777.58881 0.03636
3776.30304 0.03703
3775.01728 0.03747
3773.73151 0.03742
3772.44574 0.03688
3771.15997 0.03624
3769.87420 0.03624
3768.58843 0.03711
3767.30266 0.03819
3766.01689 0.03861
3764.73112 0.03818
3763.44536 0.03733
3762.15959 0.03659
3760.87382 0.03617
3759.58805 0.03596
3758.30228 0.03588
3757.01651 0.03609
3755.73074 0.03665
3754.44497 0.03721
3753.15921 0.03731
3751.87344 0.03691
3750.58767 0.03650
3749.30190 0.03668
3748.01613 0.03746
3746.73036 0.03800
3745.44459 0.03765
3744.15882 0.03681
3742.87305 0.03618
3741.58729 0.03608
3740.30152 0.03657
3739.01575 0.03744
3737.72998 0.03819
3736.44421 0.03849
3735.15844 0.03838
3733.87267 0.03798
3732.58690 0.03734
3731.30114 0.03648
3730.01537 0.03525
3728.72960 0.03370
3727.44383 0.03233
3726.15806 0.03187
3724.87229 0.03254
3723.58652 0.03394
3722.30075 0.03547
3721.01498 0.03669
3719.72922 0.03737
3718.44345 0.03749
3717.15768 0.03716
3715.87191 0.03651
3714.58614 0.03582
3713.30037 0.03542
3712.01460 0.03536
3710.72883 0.03522
3709.44307 0.03465
3708.15730 0.03394
3706.87153 0.03366
3705.58576 0.03397
3704.29999 0.03448
3703.01422 0.03484
3701.72845 0.03485
3700.44268 0.03442
3699.15691 0.03347
3697.87115 0.03248
3696.58538 0.03214
3695.29961 0.03264
3694.01384 0.03344
3692.72807 0.03387
3691.44230 0.03358
3690.15653 0.03271
3688.87076 0.03178
3687.58500 0.03149
3686.29923 0.03207
3685.01346 0.03320
3683.72769 0.03425
3682.44192 0.03465
3681.15615 0.03441
3679.87038 0.03411
3678.58461 0.03412
3677.29884 0.03422
3676.01308 0.03411
3674.72731 0.03388
3673.44154 0.03367
3672.15577 0.03347
3670.87000 0.03354
3669.58423 0.03424
3668.29846 0.03549
3667.01269 0.03678
3665.72693 0.03760
3664.44116 0.03768
3663.15539 0.03722
3661.86962 0.03677
3660.58385 0.03681
3659.29808 0.03732
3658.01231 0.03800
3656.72654 0.03867
3655.44077 0.03926
3654.15501 0.03941
3652.86924 0.03867
3651.58347 0.03718
3650.29770 0.03561
3649.01193 0.03460
3647.72616 0.03421
3646.44039 0.03409
3645.15462 0.03387
3643.86886 0.03352
3642.58309 0.03324
3641.29732 0.03320
3640.01155 0.03342
3638.72578 0.03400
3637.44001 0.03503
3636.15424 0.03621
3634.86847 0.03708
3633.58270 0.03745
3632.29694 0.03752
3631.01117 0.03747
3629.72540 0.03736
3628.43963 0.03726
3627.15386 0.03710
3625.86809 0.03675
3624.58232 0.03630
3623.29655 0.03609
3622.01079 0.03628
3620.72502 0.03668
3619.43925 0.03687
3618.15348 0.03649
3616.86771 0.03545
3615.58194 0.03422
3614.29617 0.03366
3613.01040 0.03431
3611.72463 0.03580
3610.43887 0.03727
3609.15310 0.03818
3607.86733 0.03853
3606.58156 0.03847
3605.29579 0.03821
3604.01002 0.03799
3602.72425 0.03795
3601.43848 0.03790
3600.15272 0.03777
3598.86695 0.03776
3597.58118 0.03812
3596.29541 0.03868
3595.00964 0.03897
3593.72387 0.03886
3592.43810 0.03871
3591.15233 0.03882
3589.86656 0.03894
3588.58080 0.03880
3587.29503 0.03863
3586.00926 0.03892
3584.72349 0.03975
3583.43772 0.04060
3582.15195 0.04086
3580.86618 0.04033
3579.58041 0.03937
3578.29464 0.03860
3577.00888 0.03850
3575.72311 0.03909
3574.43734 0.03999
3573.15157 0.04068
3571.86580 0.04097
3570.58003 0.04107
3569.29426 0.04123
3568.00849 0.04143
3566.72273 0.04159
3565.43696 0.04167
3564.15119 0.04165
3562.86542 0.04156
3561.57965 0.04148
3560.29388 0.04159
3559.00811 0.04195
3557.72234 0.04243
3556.43657 0.04269
3555.15081 0.04249
3553.86504 0.04195
3552.57927 0.04154
3551.29350 0.04165
3550.00773 0.04223
3548.72196 0.04282
3547.43619 0.04307
3546.15042 0.04296
3544.86466 0.04271
3543.57889 0.04250
3542.29312 0.04244
3541.00735 0.04251
3539.72158 0.04275
3538.43581 0.04324
3537.15004 0.04402
3535.86427 0.04489
3534.57850 0.04559
3533.29274 0.04607
3532.00697 0.04642
3530.72120 0.04665
3529.43543 0.04657
3528.14966 0.04611
3526.86389 0.04549
3525.57812 0.04503
3524.29235 0.04487
3523.00659 0.04493
3521.72082 0.04501
3520.43505 0.04496
3519.14928 0.04483
3517.86351 0.04475
3516.57774 0.04485
3515.29197 0.04517
3514.00620 0.04563
3512.72043 0.04596
3511.43467 0.04590
3510.14890 0.04544
3508.86313 0.04492
3507.57736 0.04467
3506.29159 0.04483
3505.00582 0.04535
3503.72005 0.04610
3502.43428 0.04684
3501.14852 0.04735
3499.86275 0.04761
3498.57698 0.04773
3497.29121 0.04776
3496.00544 0.04763
3494.71967 0.04742
3493.43390 0.04733
3492.14813 0.04743
3490.86236 0.04755
3489.57660 0.04751
3488.29083 0.04726
3487.00506 0.04695
3485.71929 0.04691
3484.43352 0.04740
3483.14775 0.04826
3481.86198 0.04896
3480.57621 0.04914
3479.29045 0.04901
3478.00468 0.04904
3476.71891 0.04941
3475.43314 0.04992
3474.14737 0.05024
3472.86160 0.05028
3471.57583 0.05022
3470.29006 0.05034
3469.00429 0.05073
3467.71853 0.05113
3466.43276 0.05112
3465.14699 0.05060
3463.86122 0.04984
3462.57545 0.04919
3461.28968 0.04875
3460.00391 0.04842
3458.71814 0.04817
3457.43238 0.04811
3456.14661 0.04828
3454.86084 0.04863
3453.57507 0.04904
3452.28930 0.04935
3451.00353 0.04941
3449.71776 0.04931
3448.43199 0.04921
3447.14622 0.04915
3445.86046 0.04901
3444.57469 0.04874
3443.28892 0.04854
3442.00315 0.04861
3440.71738 0.04897
3439.43161 0.04947
3438.14584 0.04997
3436.86007 0.05034
3435.57431 0.05054
3434.28854 0.05067
3433.00277 0.05087
3431.71700 0.05121
3430.43123 0.05156
3429.14546 0.05165
3427.85969 0.05133
3426.57392 0.05073
3425.28815 0.05023
3424.00239 0.05004
3422.71662 0.05011
3421.43085 0.05025
3420.14508 0.05038
3418.85931 0.05049
3417.57354 0.05053
3416.28777 0.05056
3415.00200 0.05082
3413.71624 0.05137
3412.43047 0.05191
3411.14470 0.05209
3409.85893 0.05198
3408.57316 0.05208
3407.28739 0.05277
3406.00162 0.05382
3404.71585 0.05464
3403.43008 0.05482
3402.14432 0.05462
3400.85855 0.05467
3399.57278 0.05528
3398.28701 0.05606
3397.00124 0.05626
3395.71547 0.05561
3394.42970 0.05470
3393.14393 0.05441
3391.85817 0.05505
3390.57240 0.05614
3389.28663 0.05687
3388.00086 0.05684
3386.71509 0.05626
3385.42932 0.05559
3384.14355 0.05522
3382.85778 0.05527
3381.57201 0.05561
3380.28625 0.05593
3379.00048 0.05602
3377.71471 0.05584
3376.42894 0.05544
3375.14317 0.05490
3373.85740 0.05436
3372.57163 0.05414
3371.28586 0.05440
3370.00010 0.05500
3368.71433 0.05561
3367.42856 0.05596
3366.14279 0.05603
3364.85702 0.05594
3363.57125 0.05589
3362.28548 0.05599
3360.99971 0.05622
3359.71394 0.05642
3358.42818 0.05654
3357.14241 0.05666
3355.85664 0.05687
3354.57087 0.05716
3353.28510 0.05743
3351.99933 0.05751
3350.71356 0.05732
3349.42779 0.05695
3348.14202 0.05656
3346.85626 0.05625
3345.57049 0.05602
3344.28472 0.05585
3342.99895 0.05578
3341.71318 0.05580
3340.42741 0.05584
3339.14164 0.05581
3337.85587 0.05576
3336.57011 0.05588
3335.28434 0.05633
3333.99857 0.05694
3332.71280 0.05733
3331.42703 0.05723
3330.14126 0.05671
3328.85549 0.05607
3327.56972 0.05553
3326.28395 0.05521
3324.99819 0.05523
3323.71242 0.05565
3322.42665 0.05631
3321.14088 0.05689
3319.85511 0.05715
3318.56934 0.05709
3317.28357 0.05687
3315.99780 0.05667
3314.71204 0.05664
3313.42627 0.05680
3312.14050 0.05695
3310.85473 0.05694
3309.56896 0.05685
3308.28319 0.05692
3306.99742 0.05719
3305.71165 0.05745
3304.42588 0.05750
3303.14012 0.05741
3301.85435 0.05738
3300.56858 0.05747
3299.28281 0.05761
3297.99704 0.05763
3296.71127 0.05742
3295.42550 0.05696
3294.13973 0.05644
3292.85397 0.05619
3291.56820 0.05640
3290.28243 0.05701
3288.99666 0.05766
3287.71089 0.05799
3286.42512 0.05793
3285.13935 0.05773
3283.85358 0.05765
3282.56781 0.05773
3281.28205 0.05788
3279.99628 0.05808
3278.71051 0.05837
3277.42474 0.05866
3276.13897 0.05880
3274.85320 0.05866
3273.56743 0.05831
3272.28166 0.05801
3270.99590 0.05807
3269.71013 0.05859
3268.42436 0.05928
3267.13859 0.05963
3265.85282 0.05939
3264.56705 0.05881
3263.28128 0.05839
3261.99551 0.05841
3260.70974 0.05877
3259.42398 0.05914
3258.13821 0.05920
3256.85244 0.05877
3255.56667 0.05782
3254.28090 0.05657
3252.99513 0.05549
3251.70936 0.05507
3250.42359 0.05537
3249.13783 0.05587
3247.85206 0.05595
3246.56629 0.05543
3245.28052 0.05473
3243.99475 0.05442
3242.70898 0.05475
3241.42321 0.05549
3240.13744 0.05619
3238.85167 0.05654
3237.56591 0.05650
3236.28014 0.05623
3234.99437 0.05590
3233.70860 0.05560
3232.42283 0.05540
3231.13706 0.05538
3229.85129 0.05554
3228.56552 0.05570
3227.27976 0.05568
3225.99399 0.05544
3224.70822 0.05518
3223.42245 0.05514
3222.13668 0.05529
3220.85091 0.05539
3219.56514 0.05523
3218.27937 0.05479
3216.99360 0.05424
3215.70784 0.05383
3214.42207 0.05371
3213.13630 0.05378
3211.85053 0.05377
3210.56476 0.05348
3209.27899 0.05298
3207.99322 0.05249
3206.70745 0.05223
3205.42169 0.05231
3204.13592 0.05269
3202.85015 0.05318
3201.56438 0.05350
3200.27861 0.05357
3198.99284 0.05356
3197.70707 0.05363
3196.42130 0.05369
3195.13553 0.05357
3193.84977 0.05319
3192.56400 0.05272
3191.27823 0.05229
3189.99246 0.05188
3188.70669 0.05139
3187.42092 0.05095
3186.13515 0.05090
3184.84938 0.05141
3183.56362 0.05222
3182.27785 0.05284
3180.99208 0.05300
3179.70631 0.05276
3178.42054 0.05232
3177.13477 0.05179
3175.84900 0.05122
3174.56323 0.05071
3173.27746 0.05035
3171.99170 0.05020
3170.70593 0.05022
3169.42016 0.05023
3168.13439 0.05002
3166.84862 0.04957
3165.56285 0.04909
3164.27708 0.04888
3162.99131 0.04900
3161.70555 0.04929
3160.41978 0.04957
3159.13401 0.04973
3157.84824 0.04973
3156.56247 0.04966
3155.27670 0.04965
3153.99093 0.04978
3152.70516 0.04990
3151.41939 0.04972
3150.13363 0.04920
3148.84786 0.04864
3147.56209 0.04835
3146.27632 0.04835
3144.99055 0.04843
3143.70478 0.04843
3142.41901 0.04841
3141.13324 0.04846
3139.84748 0.04858
3138.56171 0.04863
3137.27594 0.04848
3135.99017 0.04818
3134.70440 0.04790
3133.41863 0.04774
3132.13286 0.04765
3130.84709 0.04756
3129.56132 0.04758
3128.27556 0.04783
3126.98979 0.04822
3125.70402 0.04850
3124.41825 0.04850
3123.13248 0.04818
3121.84671 0.04759
3120.56094 0.04680
3119.27517 0.04603
3117.98940 0.04558
3116.70364 0.04562
3115.41787 0.04598
3114.13210 0.04644
3112.84633 0.04690
3111.56056 0.04738
3110.27479 0.04777
3108.98902 0.04782
3107.70325 0.04750
3106.41749 0.04699
3105.13172 0.04651
3103.84595 0.04612
3102.56018 0.04582
3101.27441 0.04567
3099.98864 0.04578
3098.70287 0.04613
3097.41710 0.04655
3096.13133 0.04685
3094.84557 0.04690
3093.55980 0.04668
3092.27403 0.04624
3090.98826 0.04569
3089.70249 0.04517
3088.41672 0.04481
3087.13095 0.04477
3085.84518 0.04506
3084.55942 0.04544
3083.27365 0.04557
3081.98788 0.04534
3080.70211 0.04491
3079.41634 0.04455
3078.13057 0.04436
3076.84480 0.04430
3075.55903 0.04442
3074.27326 0.04484
3072.98750 0.04558
3071.70173 0.04635
3070.41596 0.04679
3069.13019 0.04673
3067.84442 0.04633
3066.55865 0.04596
3065.27288 0.04585
3063.98711 0.04590
3062.70135 0.04592
3061.41558 0.04582
3060.12981 0.04576
3058.84404 0.04584
3057.55827 0.04594
3056.27250 0.04591
3054.98673 0.04575
3053.70096 0.04564
3052.41519 0.04565
3051.12943 0.04572
3049.84366 0.04577
3048.55789 0.04582
3047.27212 0.04581
3045.98635 0.04564
3044.70058 0.04528
3043.41481 0.04488
3042.12904 0.04469
3040.84328 0.04483
3039.55751 0.04513
3038.27174 0.04527
3036.98597 0.04504
3035.70020 0.04452
3034.41443 0.04399
3033.12866 0.04370
3031.84289 0.04367
3030.55712 0.04379
3029.27136 0.04390
3027.98559 0.04389
3026.69982 0.04367
3025.41405 0.04321
3024.12828 0.04269
3022.84251 0.04238
3021.55674 0.04241
3020.27097 0.04260
3018.98521 0.04264
3017.69944 0.04244
3016.41367 0.04218
3015.12790 0.04209
3013.84213 0.04222
3012.55636 0.04244
3011.27059 0.04250
3009.98482 0.04231
3008.69905 0.04197
3007.41329 0.04173
3006.12752 0.04175
3004.84175 0.04205
3003.55598 0.04249
3002.27021 0.04293
3000.98444 0.04320
2999.69867 0.04313
2998.41290 0.04266
2997.12714 0.04196
2995.84137 0.04139
2994.55560 0.04127
2993.26983 0.04163
2991.98406 0.04221
2990.69829 0.04267
2989.41252 0.04281
2988.12675 0.04267
2986.84098 0.04242
2985.55522 0.04221
2984.26945 0.04212
2982.98368 0.04217
2981.69791 0.04233
2980.41214 0.04258
2979.12637 0.04295
2977.84060 0.04344
2976.55483 0.04408
2975.26907 0.04475
2973.98330 0.04529
2972.69753 0.04561
2971.41176 0.04576
2970.12599 0.04589
2968.84022 0.04613
2967.55445 0.04658
2966.26868 0.04727
2964.98291 0.04813
2963.69715 0.04900
2962.41138 0.04976
2961.12561 0.05033
2959.83984 0.05067
2958.55407 0.05085
2957.26830 0.05105
2955.98253 0.05141
2954.69676 0.05188
2953.41100 0.05222
2952.12523 0.05221
2950.83946 0.05182
2949.55369 0.05125
2948.26792 0.05090
2946.98215 0.05110
2945.69638 0.05183
2944.41061 0.05267
2943.12484 0.05307
2941.83908 0.05288
2940.55331 0.05250
2939.26754 0.05246
2937.98177 0.05288
2936.69600 0.05344
2935.41023 0.05379
2934.12446 0.05399
2932.83869 0.05430
2931.55293 0.05478
2930.26716 0.05523
2928.98139 0.05546
2927.69562 0.05554
2926.40985 0.05559
2925.12408 0.05566
2923.83831 0.05569
2922.55254 0.05561
2921.26677 0.05540
2919.98101 0.05507
2918.69524 0.05465
2917.40947 0.05421
2916.12370 0.05383
2914.83793 0.05359
2913.55216 0.05350
2912.26639 0.05346
2910.98062 0.05335
2909.69486 0.05312
2908.40909 0.05278
2907.12332 0.05241
2905.83755 0.05215
2904.55178 0.05210
2903.26601 0.05211
2901.98024 0.05189
2900.69447 0.05127
2899.40870 0.05044
2898.12294 0.04978
2896.83717 0.04947
2895.55140 0.04942
2894.26563 0.04940
2892.97986 0.04929
2891.69409 0.04907
2890.40832 0.04873
2889.12255 0.04826
2887.83678 0.04775
2886.55102 0.04740
2885.26525 0.04727
2883.97948 0.04725
2882.69371 0.04722
2881.40794 0.04716
2880.12217 0.04705
2878.83640 0.04686
2877.55063 0.04666
2876.26487 0.04662
2874.97910 0.04678
2873.69333 0.04707
2872.40756 0.04739
2871.12179 0.04765
2869.83602 0.04776
2868.55025 0.04771
2867.26448 0.04759
2865.97871 0.04752
2864.69295 0.04754
2863.40718 0.04757
2862.12141 0.04750
2860.83564 0.04737
2859.54987 0.04725
2858.26410 0.04717
2856.97833 0.04707
2855.69256 0.04693
2854.40680 0.04677
2853.12103 0.04659
2851.83526 0.04633
2850.54949 0.04600
2849.26372 0.04561
2847.97795 0.04522
2846.69218 0.04491
2845.40641 0.04474
2844.12064 0.04465
2842.83488 0.04443
2841.54911 0.04396
2840.26334 0.04331
2838.97757 0.04269
2837.69180 0.04228
2836.40603 0.04207
2835.12026 0.04190
2833.83449 0.04157
2832.54873 0.04106
2831.26296 0.04057
2829.97719 0.04031
2828.69142 0.04027
2827.40565 0.04021
2826.11988 0.03988
2824.83411 0.03927
2823.54834 0.03864
2822.26257 0.03826
2820.97681 0.03824
2819.69104 0.03852
2818.40527 0.03888
2817.11950 0.03908
2815.83373 0.03893
2814.54796 0.03854
2813.26219 0.03811
2811.97642 0.03779
2810.69066 0.03753
2809.40489 0.03734
2808.11912 0.03725
2806.83335 0.03724
2805.54758 0.03723
2804.26181 0.03711
2802.97604 0.03688
2801.69027 0.03658
2800.40450 0.03625
2799.11874 0.03596
2797.83297 0.03576
2796.54720 0.03572
2795.26143 0.03586
2793.97566 0.03609
2792.68989 0.03619
2791.40412 0.03601
2790.11835 0.03560
2788.83259 0.03519
2787.54682 0.03506
2786.26105 0.03530
2784.97528 0.03569
2783.68951 0.03589
2782.40374 0.03576
2781.11797 0.03546
2779.83220 0.03523
2778.54643 0.03513
2777.26067 0.03509
2775.97490 0.03510
2774.68913 0.03518
2773.40336 0.03531
2772.11759 0.03540
2770.83182 0.03542
2769.54605 0.03540
2768.26028 0.03532
2766.97452 0.03517
2765.68875 0.03498
2764.40298 0.03485
2763.11721 0.03479
2761.83144 0.03471
2760.54567 0.03452
2759.25990 0.03429
2757.97413 0.03412
2756.68836 0.03410
2755.40260 0.03417
2754.11683 0.03425
2752.83106 0.03430
2751.54529 0.03434
2750.25952 0.03443
2748.97375 0.03458
2747.68798 0.03472
2746.40221 0.03472
2745.11645 0.03450
2743.83068 0.03420
2742.54491 0.03403
2741.25914 0.03404
2739.97337 0.03410
2738.68760 0.03407
2737.40183 0.03394
2736.11606 0.03377
2734.83029 0.03361
2733.54453 0.03351
2732.25876 0.03352
2730.97299 0.03357
2729.68722 0.03356
2728.40145 0.03343
2727.11568 0.03328
2725.82991 0.03323
2724.54414 0.03331
2723.25838 0.03345
2721.97261 0.03356
2720.68684 0.03354
2719.40107 0.03334
2718.11530 0.03302
2716.82953 0.03273
2715.54376 0.03259
2714.25799 0.03257
2712.97222 0.03253
2711.68646 0.03241
2710.40069 0.03228
2709.11492 0.03225
2707.82915 0.03235
2706.54338 0.03250
2705.25761 0.03259
2703.97184 0.03256
2702.68607 0.03246
2701.40031 0.03236
2700.11454 0.03222
2698.82877 0.03202
2697.54300 0.03175
2696.25723 0.03149
2694.97146 0.03125
2693.68569 0.03105
2692.39992 0.03092
2691.11415 0.03091
2689.82839 0.03106
2688.54262 0.03130
2687.25685 0.03151
2685.97108 0.03158
2684.68531 0.03147
2683.39954 0.03121
2682.11377 0.03090
2680.82800 0.03065
2679.54224 0.03054
2678.25647 0.03064
2676.97070 0.03097
2675.68493 0.03144
2674.39916 0.03186
2673.11339 0.03202
2671.82762 0.03188
2670.54185 0.03159
2669.25608 0.03135
2667.97032 0.03130
2666.68455 0.03142
2665.39878 0.03157
2664.11301 0.03155
2662.82724 0.03134
2661.54147 0.03107
2660.25570 0.03089
2658.96993 0.03083
2657.68417 0.03083
2656.39840 0.03090
2655.11263 0.03106
2653.82686 0.03122
2652.54109 0.03123
2651.25532 0.03107
2649.96955 0.03083
2648.68378 0.03064
2647.39801 0.03052
2646.11225 0.03049
2644.82648 0.03049
2643.54071 0.03049
2642.25494 0.03046
2640.96917 0.03042
2639.68340 0.03033
2638.39763 0.03005
2637.11186 0.02951
2635.82609 0.02883
2634.54033 0.02826
2633.25456 0.02800
2631.96879 0.02810
2630.68302 0.02845
2629.39725 0.02892
2628.11148 0.02926
2626.82571 0.02935
2625.53994 0.02920
2624.25418 0.02898
2622.96841 0.02876
2621.68264 0.02854
2620.39687 0.02829
2619.11110 0.02804
2617.82533 0.02775
2616.53956 0.02741
2615.25379 0.02713
2613.96802 0.02703
2612.68226 0.02711
2611.39649 0.02724
2610.11072 0.02732
2608.82495 0.02739
2607.53918 0.02749
2606.25341 0.02753
2604.96764 0.02731
2603.68187 0.02678
2602.39611 0.02611
2601.11034 0.02563
2599.82457 0.02549
2598.53880 0.02562
2597.25303 0.02586
2595.96726 0.02613
2594.68149 0.02645
2593.39572 0.02675
2592.10995 0.02690
2590.82419 0.02677
2589.53842 0.02645
2588.25265 0.02618
2586.96688 0.02613
2585.68111 0.02619
2584.39534 0.02612
2583.10957 0.02584
2581.82380 0.02554
2580.53804 0.02542
2579.25227 0.02551
2577.96650 0.02560
2576.68073 0.02552
2575.39496 0.02521
2574.10919 0.02476
2572.82342 0.02441
2571.53765 0.02432
2570.25188 0.02439
2568.96612 0.02435
2567.68035 0.02413
2566.39458 0.02401
2565.10881 0.02429
2563.82304 0.02496
2562.53727 0.02560
2561.25150 0.02579
2559.96573 0.02543
2558.67997 0.02472
2557.39420 0.02407
2556.10843 0.02389
2554.82266 0.02428
2553.53689 0.02491
2552.25112 0.02526
2550.96535 0.02505
2549.67958 0.02445
2548.39381 0.02397
2547.10805 0.02397
2545.82228 0.02442
2544.53651 0.02488
2543.25074 0.02494
2541.96497 0.02453
2540.67920 0.02390
2539.39343 0.02337
2538.10766 0.02311
2536.82190 0.02318
2535.53613 0.02358
2534.25036 0.02414
2532.96459 0.02454
2531.67882 0.02457
2530.39305 0.02425
2529.10728 0.02377
2527.82151 0.02340
2526.53574 0.02335
2525.24998 0.02369
2523.96421 0.02424
2522.67844 0.02465
2521.39267 0.02476
2520.10690 0.02463
2518.82113 0.02439
2517.53536 0.02404
2516.24959 0.02356
2514.96383 0.02302
2513.67806 0.02258
2512.39229 0.02238
2511.10652 0.02253
2509.82075 0.02297
2508.53498 0.02348
2507.24921 0.02380
2505.96344 0.02384
2504.67767 0.02370
2503.39191 0.02345
2502.10614 0.02307
2500.82037 0.02261
2499.53460 0.02227
2498.24883 0.02230
2496.96306 0.02270
2495.67729 0.02324
2494.39152 0.02370
2493.10576 0.02397
2491.81999 0.02406
2490.53422 0.02402
2489.24845 0.02393
2487.96268 0.02386
2486.67691 0.02378
2485.39114 0.02364
2484.10537 0.02352
2482.81960 0.02349
2481.53384 0.02350
2480.24807 0.02334
2478.96230 0.02298
2477.67653 0.02261
2476.39076 0.02238
2475.10499 0.02224
2473.81922 0.02206
2472.53345 0.02177
2471.24769 0.02144
2469.96192 0.02128
2468.67615 0.02156
2467.39038 0.02234
2466.10461 0.02316
2464.81884 0.02346
2463.53307 0.02315
2462.24730 0.02278
2460.96153 0.02290
2459.67577 0.02349
2458.39000 0.02402
2457.10423 0.02407
2455.81846 0.02370
2454.53269 0.02328
2453.24692 0.02304
2451.96115 0.02292
2450.67538 0.02278
2449.38962 0.02260
2448.10385 0.02254
2446.81808 0.02263
2445.53231 0.02268
2444.24654 0.02241
2442.96077 0.02193
2441.67500 0.02166
2440.38923 0.02190
2439.10346 0.02242
2437.81770 0.02270
2436.53193 0.02252
2435.24616 0.02222
2433.96039 0.02226
2432.67462 0.02266
2431.38885 0.02302
2430.10308 0.02297
2428.81731 0.02260
2427.53155 0.02223
2426.24578 0.02203
2424.96001 0.02190
2423.67424 0.02174
2422.38847 0.02163
2421.10270 0.02163
2419.81693 0.02172
2418.53116 0.02172
2417.24539 0.02157
2415.95963 0.02127
2414.67386 0.02095
2413.38809 0.02072
2412.10232 0.02064
2410.81655 0.02068
2409.53078 0.02081
2408.24501 0.02102
2406.95924 0.02126
2405.67347 0.02147
2404.38771 0.02161
2403.10194 0.02163
2401.81617 0.02156
2400.53040 0.02147
2399.24463 0.02146
2397.95886 0.02154
2396.67309 0.02160
2395.38732 0.02151
2394.10156 0.02131
2392.81579 0.02114
2391.53002 0.02114
2390.24425 0.02124
2388.95848 0.02124
2387.67271 0.02101
2386.38694 0.02060
2385.10117 0.02028
2383.81540 0.02020
2382.52964 0.02038
2381.24387 0.02074
2379.95810 0.02114
2378.67233 0.02172
2377.38656 0.02220
2376.10079 0.02220
2374.81502 0.02186
2373.52925 0.02192
2372.24349 0.02235
2370.95772 0.02255
2369.67195 0.02246
2368.38618 0.02230
2367.10041 0.02241
2365.81464 0.02275
2364.52887 0.02316
2363.24310 0.02340
2361.95733 0.02335
2360.67157 0.02311
2359.38580 0.02274
2358.10003 0.02245
2356.81426 0.02229
2355.52849 0.02201
2354.24272 0.02146
2352.95695 0.02085
2351.67118 0.02084
2350.38542 0.02110
2349.09965 0.02119
2347.81388 0.02141
2346.52811 0.02197
2345.24234 0.02240
2343.95657 0.02245
2342.67080 0.02191
2341.38503 0.02229
2340.09926 0.02315
2338.81350 0.02299
2337.52773 0.02220
2336.24196 0.02241
2334.95619 0.02283
2333.67042 0.02261
2332.38465 0.02184
2331.09888 0.02235
2329.81311 0.02219
2328.52735 0.02175
2327.24158 0.02223
2325.95581 0.02284
2324.67004 0.02324
2323.38427 0.02300
2322.09850 0.02298
2320.81273 0.02284
2319.52696 0.02257
2318.24119 0.02226
2316.95543 0.02205
2315.66966 0.02186
2314.38389 0.02142
2313.09812 0.02098
2311.81235 0.02068
2310.52658 0.02043
2309.24081 0.02030
2307.95504 0.02041
2306.66928 0.02060
2305.38351 0.02078
2304.09774 0.02080
2302.81197 0.02063
2301.52620 0.02036
2300.24043 0.02004
2298.95466 0.01973
2297.66889 0.01947
2296.38312 0.01920
2295.09736 0.01895
2293.81159 0.01883
2292.52582 0.01901
2291.24005 0.01943
2289.95428 0.01980
2288.66851 0.01990
2287.38274 0.01967
2286.09697 0.01929
2284.81121 0.01897
2283.52544 0.01886
2282.23967 0.01903
2280.95390 0.01932
2279.66813 0.01940
2278.38236 0.01905
2277.09659 0.01838
2275.81082 0.01773
2274.52505 0.01731
2273.23929 0.01705
2271.95352 0.01681
2270.66775 0.01662
2269.38198 0.01657
2268.09621 0.01668
2266.81044 0.01689
2265.52467 0.01710
2264.23890 0.01722
2262.95314 0.01721
2261.66737 0.01713
2260.38160 0.01721
2259.09583 0.01759
2257.81006 0.01796
2256.52429 0.01779
2255.23852 0.01695
2253.95275 0.01596
2252.66698 0.01545
2251.38122 0.01555
2250.09545 0.01588
2248.80968 0.01605
2247.52391 0.01598
2246.23814 0.01600
2244.95237 0.01616
2243.66660 0.01622
2242.38083 0.01607
2241.09507 0.01592
2239.80930 0.01610
2238.52353 0.01656
2237.23776 0.01688
2235.95199 0.01679
2234.66622 0.01649
2233.38045 0.01640
2232.09468 0.01654
2230.80891 0.01661
2229.52315 0.01638
2228.23738 0.01597
2226.95161 0.01551
2225.66584 0.01496
2224.38007 0.01421
2223.09430 0.01335
2221.80853 0.01257
2220.52276 0.01201
2219.23700 0.01177
2217.95123 0.01190
2216.66546 0.01235
2215.37969 0.01282
2214.09392 0.01289
2212.80815 0.01229
2211.52238 0.01130
2210.23661 0.01076
2208.95084 0.01144
2207.66508 0.01330
2206.37931 0.01537
2205.09354 0.01655
2203.80777 0.01657
2202.52200 0.01602
2201.23623 0.01564
2199.95046 0.01547
2198.66469 0.01497
2197.37893 0.01389
2196.09316 0.01266
2194.80739 0.01180
2193.52162 0.01129
2192.23585 0.01080
2190.95008 0.01035
2189.66431 0.01050
2188.37854 0.01171
2187.09277 0.01372
2185.80701 0.01552
2184.52124 0.01602
2183.23547 0.01480
2181.94970 0.01243
2180.66393 0.01010
2179.37816 0.00890
2178.09239 0.00920
2176.80662 0.01033
2175.52085 0.01111
2174.23509 0.01107
2172.94932 0.01093
2171.66355 0.01146
2170.37778 0.01229
2169.09201 0.01240
2167.80624 0.01141
2166.52047 0.01005
2165.23470 0.00922
2163.94894 0.00907
2162.66317 0.00901
2161.37740 0.00850
2160.09163 0.00770
2158.80586 0.00735
2157.52009 0.00804
2156.23432 0.00938
2154.94855 0.01013
2153.66278 0.00934
2152.37702 0.00733
2151.09125 0.00562
2149.80548 0.00554
2148.51971 0.00702
2147.23394 0.00877
2145.94817 0.00971
2144.66240 0.00991
2143.37663 0.01002
2142.09087 0.01028
2140.80510 0.01040
2139.51933 0.01030
2138.23356 0.01037
2136.94779 0.01097
2135.66202 0.01170
2134.37625 0.01185
2133.09048 0.01124
2131.80471 0.01050
2130.51895 0.01037
2129.23318 0.01105
2127.94741 0.01212
2126.66164 0.01299
2125.37587 0.01324
2124.09010 0.01291
2122.80433 0.01243
2121.51856 0.01222
2120.23280 0.01244
2118.94703 0.01291
2117.66126 0.01334
2116.37549 0.01367
2115.08972 0.01400
2113.80395 0.01438
2112.51818 0.01463
2111.23241 0.01447
2109.94664 0.01381
2108.66088 0.01294
2107.37511 0.01235
2106.08934 0.01235
2104.80357 0.01272
2103.51780 0.01285
2102.23203 0.01236
2100.94626 0.01150
2099.66049 0.01068
2098.37473 0.01056
2097.08896 0.01090
2095.80319 0.01110
2094.51742 0.01091
2093.23165 0.01054
2091.94588 0.01035
2090.66011 0.01053
2089.37434 0.01101
2088.08857 0.01154
2086.80281 0.01189
2085.51704 0.01189
2084.23127 0.01153
2082.94550 0.01092
2081.65973 0.01024
2080.37396 0.00961
2079.08819 0.00915
2077.80242 0.00900
2076.51666 0.00926
2075.23089 0.00980
2073.94512 0.01032
2072.65935 0.01051
2071.37358 0.01026
2070.08781 0.00972
2068.80204 0.00915
2067.51627 0.00875
2066.23050 0.00855
2064.94474 0.00848
2063.65897 0.00848
2062.37320 0.00850
2061.08743 0.00852
2059.80166 0.00861
2058.51589 0.00894
2057.23012 0.00960
2055.94435 0.01042
2054.65859 0.01112
2053.37282 0.01149
2052.08705 0.01152
2050.80128 0.01133
2049.51551 0.01104
2048.22974 0.01062
2046.94397 0.00986
2045.65820 0.00851
2044.37243 0.00673
2043.08667 0.00506
2041.80090 0.00397
2040.51513 0.00351
2039.22936 0.00356
2037.94359 0.00412
2036.65782 0.00506
2035.37205 0.00575
2034.08628 0.00547
2032.80052 0.00434
2031.51475 0.00340
2030.22898 0.00360
2028.94321 0.00482
2027.65744 0.00596
2026.37167 0.00612
2025.08590 0.00538
2023.80013 0.00455
2022.51436 0.00425
2021.22860 0.00453
2019.94283 0.00519
2018.65706 0.00593
2017.37129 0.00633
2016.08552 0.00608
2014.79975 0.00535
2013.51398 0.00479
2012.22821 0.00494
2010.94245 0.00575
2009.65668 0.00668
2008.37091 0.00714
2007.08514 0.00689
2005.79937 0.00621
2004.51360 0.00568
2003.22783 0.00567
2001.94206 0.00615
2000.65629 0.00687
1999.37053 0.00755
1998.08476 0.00803
1996.79899 0.00824
1995.51322 0.00823
1994.22745 0.00808
1992.94168 0.00788
1991.65591 0.00773
1990.37014 0.00769
1989.08438 0.00776
1987.79861 0.00783
1986.51284 0.00786
1985.22707 0.00788
1983.94130 0.00781
1982.65553 0.00748
1981.36976 0.00682
1980.08399 0.00610
1978.79822 0.00566
1977.51246 0.00552
1976.22669 0.00548
1974.94092 0.00548
1973.65515 0.00568
1972.36938 0.00615
1971.08361 0.00662
1969.79784 0.00684
1968.51207 0.00684
1967.22631 0.00681
1965.94054 0.00670
1964.65477 0.00639
1963.36900 0.00599
1962.08323 0.00590
1960.79746 0.00645
1959.51169 0.00755
1958.22592 0.00867
1956.94015 0.00932
1955.65439 0.00938
1954.36862 0.00928
1953.08285 0.00948
1951.79708 0.01006
1950.51131 0.01063
1949.22554 0.01081
1947.93977 0.01055
1946.65400 0.01011
1945.36823 0.00973
1944.08247 0.00954
1942.79670 0.00949
1941.51093 0.00950
1940.22516 0.00961
1938.93939 0.00992
1937.65362 0.01039
1936.36785 0.01069
1935.08208 0.01052
1933.79632 0.00997
1932.51055 0.00947
1931.22478 0.00943
1929.93901 0.00992
1928.65324 0.01065
1927.36747 0.01125
1926.08170 0.01151
1924.79593 0.01151
1923.51016 0.01145
1922.22440 0.01137
1920.93863 0.01114
1919.65286 0.01068
1918.36709 0.01022
1917.08132 0.01012
1915.79555 0.01046
1914.50978 0.01088
1913.22401 0.01090
1911.93825 0.01040
1910.65248 0.00973
1909.36671 0.00935
1908.08094 0.00941
1906.79517 0.00972
1905.50940 0.01005
1904.22363 0.01033
1902.93786 0.01058
1901.65209 0.01074
1900.36633 0.01068
1899.08056 0.01038
1897.79479 0.00995
1896.50902 0.00955
1895.22325 0.00936
1893.93748 0.00948
1892.65171 0.00993
1891.36594 0.01053
1890.08018 0.01100
1888.79441 0.01116
1887.50864 0.01108
1886.22287 0.01099
1884.93710 0.01105
1883.65133 0.01124
1882.36556 0.01138
1881.07979 0.01133
1879.79402 0.01117
1878.50826 0.01107
1877.22249 0.01113
1875.93672 0.01128
1874.65095 0.01136
1873.36518 0.01134
1872.07941 0.01130
1870.79364 0.01127
1869.50787 0.01129
1868.22211 0.01134
1866.93634 0.01137
1865.65057 0.01133
1864.36480 0.01122
1863.07903 0.01115
1861.79326 0.01122
1860.50749 0.01141
1859.22172 0.01163
1857.93595 0.01179
1856.65019 0.01187
1855.36442 0.01188
1854.07865 0.01181
1852.79288 0.01167
1851.50711 0.01154
1850.22134 0.01148
1848.93557 0.01154
1847.64980 0.01164
1846.36404 0.01165
1845.07827 0.01154
1843.79250 0.01142
1842.50673 0.01139
1841.22096 0.01139
1839.93519 0.01133
1838.64942 0.01121
1837.36365 0.01108
1836.07788 0.01100
1834.79212 0.01100
1833.50635 0.01112
1832.22058 0.01132
1830.93481 0.01150
1829.64904 0.01158
1828.36327 0.01153
1827.07750 0.01140
1825.79173 0.01128
1824.50597 0.01122
1823.22020 0.01117
1821.93443 0.01108
1820.64866 0.01104
1819.36289 0.01117
1818.07712 0.01143
1816.79135 0.01165
1815.50558 0.01172
1814.21981 0.01167
1812.93405 0.01162
1811.64828 0.01161
1810.36251 0.01166
1809.07674 0.01173
1807.79097 0.01181
1806.50520 0.01189
1805.21943 0.01196
1803.93366 0.01197
1802.64790 0.01192
1801.36213 0.01184
1800.07636 0.01177
1798.79059 0.01170
1797.50482 0.01161
1796.21905 0.01152
1794.93328 0.01149
1793.64751 0.01160
1792.36174 0.01185
1791.07598 0.01216
1789.79021 0.01237
1788.50444 0.01239
1787.21867 0.01230
1785.93290 0.01219
1784.64713 0.01214
1783.36136 0.01215
1782.07559 0.01215
1780.78983 0.01206
1779.50406 0.01193
1778.21829 0.01183
1776.93252 0.01181
1775.64675 0.01187
1774.36098 0.01193
1773.07521 0.01197
1771.78944 0.01206
1770.50367 0.01219
1769.21791 0.01225
1767.93214 0.01225
1766.64637 0.01225
1765.36060 0.01223
1764.07483 0.01218
1762.78906 0.01215
1761.50329 0.01219
1760.21752 0.01226
1758.93176 0.01227
1757.64599 0.01222
1756.36022 0.01222
1755.07445 0.01230
1753.78868 0.01235
1752.50291 0.01228
1751.21714 0.01215
1749.93137 0.01211
1748.64560 0.01215
1747.35984 0.01222
1746.07407 0.01227
1744.78830 0.01232
1743.50253 0.01238
1742.21676 0.01243
1740.93099 0.01246
1739.64522 0.01247
1738.35945 0.01250
1737.07369 0.01247
1735.78792 0.01232
1734.50215 0.01218
1733.21638 0.01221
1731.93061 0.01236
1730.64484 0.01245
1729.35907 0.01251
1728.07330 0.01263
1726.78753 0.01283
1725.50177 0.01302
1724.21600 0.01319
1722.93023 0.01337
1721.64446 0.01354
1720.35869 0.01362
1719.07292 0.01360
1717.78715 0.01368
1716.50138 0.01398
1715.21561 0.01442
1713.92985 0.01480
1712.64408 0.01507
1711.35831 0.01530
1710.07254 0.01560
1708.78677 0.01600
1707.50100 0.01644
1706.21523 0.01691
1704.92946 0.01746
1703.64370 0.01810
1702.35793 0.01871
1701.07216 0.01933
1699.78639 0.02011
1698.50062 0.02099
1697.21485 0.02172
1695.92908 0.02234
1694.64331 0.02305
1693.35754 0.02378
1692.07178 0.02438
1690.78601 0.02491
1689.50024 0.02556
1688.21447 0.02635
1686.92870 0.02710
1685.64293 0.02775
1684.35716 0.02841
1683.07139 0.02918
1681.78563 0.02993
1680.49986 0.03061
1679.21409 0.03129
1677.92832 0.03202
1676.64255 0.03276
1675.35678 0.03353
1674.07101 0.03438
1672.78524 0.03522
1671.49947 0.03592
1670.21371 0.03652
1668.92794 0.03715
1667.64217 0.03787
1666.35640 0.03865
1665.07063 0.03941
1663.78486 0.04013
1662.49909 0.04085
1661.21332 0.04156
1659.92756 0.04222
1658.64179 0.04282
1657.35602 0.04339
1656.07025 0.04385
1654.78448 0.04411
1653.49871 0.04437
1652.21294 0.04489
1650.92717 0.04555
1649.64140 0.04599
1648.35564 0.04607
1647.06987 0.04602
1645.78410 0.04609
1644.49833 0.04630
1643.21256 0.04653
1641.92679 0.04670
1640.64102 0.04679
1639.35525 0.04677
1638.06949 0.04657
1636.78372 0.04621
1635.49795 0.04583
1634.21218 0.04552
1632.92641 0.04522
1631.64064 0.04481
1630.35487 0.04430
1629.06910 0.04376
1627.78333 0.04322
1626.49757 0.04267
1625.21180 0.04205
1623.92603 0.04136
1622.64026 0.04069
1621.35449 0.04008
1620.06872 0.03948
1618.78295 0.03884
1617.49718 0.03823
1616.21142 0.03779
1614.92565 0.03749
1613.63988 0.03721
1612.35411 0.03689
1611.06834 0.03659
1609.78257 0.03631
1608.49680 0.03603
1607.21103 0.03575
1605.92526 0.03550
1604.63950 0.03531
1603.35373 0.03516
1602.06796 0.03505
1600.78219 0.03499
1599.49642 0.03501
1598.21065 0.03510
1596.92488 0.03522
1595.63911 0.03534
1594.35335 0.03543
1593.06758 0.03551
1591.78181 0.03562
1590.49604 0.03574
1589.21027 0.03584
1587.92450 0.03592
1586.63873 0.03603
1585.35296 0.03622
1584.06719 0.03651
1582.78143 0.03686
1581.49566 0.03729
1580.20989 0.03778
1578.92412 0.03823
1577.63835 0.03855
1576.35258 0.03881
1575.06681 0.03914
1573.78104 0.03952
1572.49528 0.03985
1571.20951 0.04014
1569.92374 0.04049
1568.63797 0.04094
1567.35220 0.04142
1566.06643 0.04185
1564.78066 0.04228
1563.49489 0.04274
1562.20912 0.04310
1560.92336 0.04330
1559.63759 0.04345
1558.35182 0.04372
1557.06605 0.04404
1555.78028 0.04425
1554.49451 0.04436
1553.20874 0.04453
1551.92297 0.04474
1550.63721 0.04488
1549.35144 0.04491
1548.06567 0.04486
1546.77990 0.04476
1545.49413 0.04465
1544.20836 0.04453
1542.92259 0.04435
1541.63682 0.04404
1540.35105 0.04364
1539.06529 0.04330
1537.77952 0.04304
1536.49375 0.04276
1535.20798 0.04236
1533.92221 0.04195
1532.63644 0.04167
1531.35067 0.04151
1530.06490 0.04139
1528.77914 0.04124
1527.49337 0.04110
1526.20760 0.04103
1524.92183 0.04103
1523.63606 0.04101
1522.35029 0.04095
1521.06452 0.04096
1519.77875 0.04110
1518.49298 0.04129
1517.20722 0.04145
1515.92145 0.04162
1514.63568 0.04181
1513.34991 0.04201
1512.06414 0.04224
1510.77837 0.04252
1509.49260 0.04280
1508.20683 0.04301
1506.92107 0.04327
1505.63530 0.04366
1504.34953 0.04412
1503.06376 0.04448
1501.77799 0.04472
1500.49222 0.04488
1499.20645 0.04501
1497.92068 0.04508
1496.63491 0.04515
1495.34915 0.04527
1494.06338 0.04544
1492.77761 0.04557
1491.49184 0.04570
1490.20607 0.04590
1488.92030 0.04620
1487.63453 0.04656
1486.34876 0.04697
1485.06299 0.04744
1483.77723 0.04795
1482.49146 0.04848
1481.20569 0.04902
1479.91992 0.04958
1478.63415 0.05018
1477.34838 0.05081
1476.06261 0.05142
1474.77684 0.05197
1473.49108 0.05242
1472.20531 0.05288
1470.91954 0.05343
1469.63377 0.05403
1468.34800 0.05462
1467.06223 0.05515
1465.77646 0.05565
1464.49069 0.05617
1463.20492 0.05673
1461.91916 0.05734
1460.63339 0.05796
1459.34762 0.05854
1458.06185 0.05909
1456.77608 0.05968
1455.49031 0.06035
1454.20454 0.06097
1452.91877 0.06143
1451.63301 0.06176
1450.34724 0.06202
1449.06147 0.06221
1447.77570 0.06232
1446.48993 0.06238
1445.20416 0.06237
1443.91839 0.06228
1442.63262 0.06217
1441.34685 0.06207
1440.06109 0.06196
1438.77532 0.06180
1437.48955 0.06163
1436.20378 0.06157
1434.91801 0.06163
1433.63224 0.06174
1432.34647 0.06190
1431.06070 0.06217
1429.77494 0.06261
1428.48917 0.06318
1427.20340 0.06379
1425.91763 0.06439
1424.63186 0.06496
1423.34609 0.06555
1422.06032 0.06612
1420.77455 0.06663
1419.48878 0.06712
1418.20302 0.06763
1416.91725 0.06813
1415.63148 0.06854
1414.34571 0.06887
1413.05994 0.06913
1411.77417 0.06930
1410.48840 0.06934
1409.20263 0.06924
1407.91687 0.06901
1406.63110 0.06866
1405.34533 0.06821
1404.05956 0.06770
1402.77379 0.06710
1401.48802 0.06640
1400.20225 0.06558
1398.91648 0.06468
1397.63071 0.06371
1396.34495 0.06264
1395.05918 0.06151
1393.77341 0.06037
1392.48764 0.05927
1391.20187 0.05817
1389.91610 0.05707
1388.63033 0.05600
1387.34456 0.05498
1386.05880 0.05397
1384.77303 0.05293
1383.48726 0.05187
1382.20149 0.05087
1380.91572 0.04998
1379.62995 0.04914
1378.34418 0.04825
1377.05841 0.04722
1375.77264 0.04604
1374.48688 0.04480
1373.20111 0.04356
1371.91534 0.04238
1370.62957 0.04126
1369.34380 0.04021
1368.05803 0.03924
1366.77226 0.03832
1365.48649 0.03742
1364.20073 0.03653
1362.91496 0.03570
1361.62919 0.03497
1360.34342 0.03430
1359.05765 0.03366
1357.77188 0.03306
1356.48611 0.03252
1355.20034 0.03209
1353.91457 0.03177
1352.62881 0.03153
1351.34304 0.03134
1350.05727 0.03114
1348.77150 0.03091
1347.48573 0.03063
1346.19996 0.03035
1344.91419 0.03013
1343.62842 0.03000
1342.34266 0.02990
1341.05689 0.02979
1339.77112 0.02959
1338.48535 0.02930
1337.19958 0.02895
1335.91381 0.02860
1334.62804 0.02830
1333.34227 0.02803
1332.05650 0.02777
1330.77074 0.02749
1329.48497 0.02719
1328.19920 0.02692
1326.91343 0.02670
1325.62766 0.02651
1324.34189 0.02630
1323.05612 0.02601
1321.77035 0.02569
1320.48459 0.02538
1319.19882 0.02513
1317.91305 0.02495
1316.62728 0.02480
1315.34151 0.02467
1314.05574 0.02453
1312.76997 0.02437
1311.48420 0.02419
1310.19843 0.02399
1308.91267 0.02378
1307.62690 0.02356
1306.34113 0.02334
1305.05536 0.02312
1303.76959 0.02293
1302.48382 0.02280
1301.19805 0.02271
1299.91228 0.02261
1298.62652 0.02249
1297.34075 0.02234
1296.05498 0.02218
1294.76921 0.02202
1293.48344 0.02187
1292.19767 0.02175
1290.91190 0.02165
1289.62613 0.02157
1288.34036 0.02149
1287.05460 0.02141
1285.76883 0.02132
1284.48306 0.02125
1283.19729 0.02118
1281.91152 0.02110
1280.62575 0.02103
1279.33998 0.02099
1278.05421 0.02099
1276.76845 0.02099
1275.48268 0.02098
1274.19691 0.02095
1272.91114 0.02093
1271.62537 0.02089
1270.33960 0.02081
1269.05383 0.02069
1267.76806 0.02056
1266.48229 0.02045
1265.19653 0.02038
1263.91076 0.02034
1262.62499 0.02034
1261.33922 0.02037
1260.05345 0.02042
1258.76768 0.02045
1257.48191 0.02046
1256.19614 0.02047
1254.91037 0.02049
1253.62461 0.02055
1252.33884 0.02062
1251.05307 0.02068
1249.76730 0.02071
1248.48153 0.02073
1247.19576 0.02074
1245.90999 0.02075
1244.62422 0.02075
1243.33846 0.02074
1242.05269 0.02073
1240.76692 0.02073
1239.48115 0.02075
1238.19538 0.02073
1236.90961 0.02065
1235.62384 0.02049
1234.33807 0.02030
1233.05230 0.02012
1231.76654 0.01998
1230.48077 0.01985
1229.19500 0.01973
1227.90923 0.01961
1226.62346 0.01947
1225.33769 0.01933
1224.05192 0.01918
1222.76615 0.01905
1221.48039 0.01893
1220.19462 0.01881
1218.90885 0.01868
1217.62308 0.01855
1216.33731 0.01840
1215.05154 0.01825
1213.76577 0.01811
1212.48000 0.01801
1211.19423 0.01795
1209.90847 0.01792
1208.62270 0.01789
1207.33693 0.01783
1206.05116 0.01775
1204.76539 0.01767
1203.47962 0.01758
1202.19385 0.01750
1200.90808 0.01746
1199.62232 0.01750
1198.33655 0.01754
1197.05078 0.01759
1195.76501 0.01757
1194.47924 0.01747
1193.19347 0.01734
1191.90770 0.01724
1190.62193 0.01716
1189.33616 0.01702
1188.05040 0.01682
1186.76463 0.01661
1185.47886 0.01643
1184.19309 0.01629
1182.90732 0.01620
1181.62155 0.01619
1180.33578 0.01624
1179.05001 0.01631
1177.76425 0.01635
1176.47848 0.01636
1175.19271 0.01636
1173.90694 0.01638
1172.62117 0.01643
1171.33540 0.01654
1170.04963 0.01669
1168.76386 0.01684
1167.47809 0.01696
1166.19233 0.01702
1164.90656 0.01702
1163.62079 0.01698
1162.33502 0.01691
1161.04925 0.01687
1159.76348 0.01687
1158.47771 0.01696
1157.19194 0.01713
1155.90618 0.01734
1154.62041 0.01750
1153.33464 0.01758
1152.04887 0.01760
1150.76310 0.01764
1149.47733 0.01773
1148.19156 0.01787
1146.90579 0.01807
1145.62002 0.01832
1144.33426 0.01862
1143.04849 0.01897
1141.76272 0.01934
1140.47695 0.01971
1139.19118 0.02010
1137.90541 0.02054
1136.61964 0.02105
1135.33387 0.02164
1134.04811 0.02237
1132.76234 0.02333
1131.47657 0.02451
1130.19080 0.02583
1128.90503 0.02724
1127.61926 0.02868
1126.33349 0.03017
1125.04772 0.03172
1123.76195 0.03334
1122.47619 0.03507
1121.19042 0.03693
1119.90465 0.03887
1118.61888 0.04080
1117.33311 0.04265
1116.04734 0.04441
1114.76157 0.04611
1113.47580 0.04778
1112.19004 0.04941
1110.90427 0.05100
1109.61850 0.05255
1108.33273 0.05408
1107.04696 0.05556
1105.76119 0.05695
1104.47542 0.05824
1103.18965 0.05947
1101.90388 0.06070
1100.61812 0.06196
1099.33235 0.06319
1098.04658 0.06433
1096.76081 0.06536
1095.47504 0.06633
1094.18927 0.06730
1092.90350 0.06822
1091.61773 0.06902
1090.33197 0.06972
1089.04620 0.07036
1087.76043 0.07104
1086.47466 0.07176
1085.18889 0.07247
1083.90312 0.07320
1082.61735 0.07395
1081.33158 0.07475
1080.04581 0.07559
1078.76005 0.07651
1077.47428 0.07751
1076.18851 0.07859
1074.90274 0.07974
1073.61697 0.08095
1072.33120 0.08220
1071.04543 0.08347
1069.75966 0.08475
1068.47390 0.08606
1067.18813 0.08743
1065.90236 0.08887
1064.61659 0.09037
1063.33082 0.09192
1062.04505 0.09350
1060.75928 0.09511
1059.47351 0.09676
1058.18774 0.09841
1056.90198 0.10001
1055.61621 0.10155
1054.33044 0.10302
1053.04467 0.10443
1051.75890 0.10578
1050.47313 0.10715
1049.18736 0.10860
1047.90159 0.11014
1046.61583 0.11173
1045.33006 0.11330
1044.04429 0.11483
1042.75852 0.11636
1041.47275 0.11794
1040.18698 0.11959
1038.90121 0.12132
1037.61544 0.12307
1036.32967 0.12478
1035.04391 0.12642
1033.75814 0.12798
1032.47237 0.12942
1031.18660 0.13075
1029.90083 0.13198
1028.61506 0.13313
1027.32929 0.13418
1026.04352 0.13512
1024.75775 0.13593
1023.47199 0.13664
1022.18622 0.13722
1020.90045 0.13760
1019.61468 0.13774
1018.32891 0.13767
1017.04314 0.13746
1015.75737 0.13714
1014.47160 0.13668
1013.18584 0.13605
1011.90007 0.13520
1010.61430 0.13414
1009.32853 0.13290
1008.04276 0.13149
1006.75699 0.12995
1005.47122 0.12830
1004.18545 0.12654
1002.89968 0.12467
1001.61392 0.12264
1000.32815 0.12043
999.04238 0.11808
997.75661 0.11563
996.47084 0.11309
995.18507 0.11047
993.89930 0.10778
992.61353 0.10504
991.32777 0.10228
990.04200 0.09956
988.75623 0.09690
987.47046 0.09427
986.18469 0.09168
984.89892 0.08910
983.61315 0.08656
982.32738 0.08406
981.04161 0.08165
979.75585 0.07942
978.47008 0.07741
977.18431 0.07559
975.89854 0.07389
974.61277 0.07231
973.32700 0.07088
972.04123 0.06966
970.75546 0.06873
969.46970 0.06810
968.18393 0.06778
966.89816 0.06780
965.61239 0.06815
964.32662 0.06871
963.04085 0.06927
961.75508 0.06962
960.46931 0.06963
959.18354 0.06924
957.89778 0.06850
956.61201 0.06750
955.32624 0.06631
954.04047 0.06499
952.75470 0.06357
951.46893 0.06211
950.18316 0.06068
948.89739 0.05935
947.61163 0.05812
946.32586 0.05693
945.04009 0.05575
943.75432 0.05461
942.46855 0.05352
941.18278 0.05246
939.89701 0.05140
938.61124 0.05038
937.32547 0.04946
936.03971 0.04866
934.75394 0.04795
933.46817 0.04725
932.18240 0.04651
930.89663 0.04572
929.61086 0.04493
928.32509 0.04418
927.03932 0.04350
925.75356 0.04293
924.46779 0.04244
923.18202 0.04197
921.89625 0.04147
920.61048 0.04095
919.32471 0.04043
918.03894 0.03993
916.75317 0.03947
915.46740 0.03903
914.18164 0.03860
912.89587 0.03817
911.61010 0.03772
910.32433 0.03728
909.03856 0.03684
907.75279 0.03641
906.46702 0.03607
905.18125 0.03583
903.89549 0.03564
902.60972 0.03538
901.32395 0.03500
900.03818 0.03458
898.75241 0.03423
897.46664 0.03400
896.18087 0.03385
894.89510 0.03370
893.60933 0.03351
892.32357 0.03328
891.03780 0.03303
889.75203 0.03279
888.46626 0.03267
887.18049 0.03276
885.89472 0.03317
884.60895 0.03391
883.32318 0.03497
882.03742 0.03632
880.75165 0.03782
879.46588 0.03923
878.18011 0.04039
876.89434 0.04127
875.60857 0.04206
874.32280 0.04287
873.03703 0.04367
871.75126 0.04423
870.46550 0.04435
869.17973 0.04399
867.89396 0.04323
866.60819 0.04219
865.32242 0.04097
864.03665 0.03960
862.75088 0.03818
861.46511 0.03682
860.17935 0.03558
858.89358 0.03449
857.60781 0.03353
856.32204 0.03272
855.03627 0.03212
853.75050 0.03173
852.46473 0.03145
851.17896 0.03115
849.89319 0.03075
848.60743 0.03031
847.32166 0.02994
846.03589 0.02967
844.75012 0.02943
843.46435 0.02919
842.17858 0.02894
840.89281 0.02867
839.60704 0.02840
838.32128 0.02816
837.03551 0.02798
835.74974 0.02786
834.46397 0.02775
833.17820 0.02761
831.89243 0.02743
830.60666 0.02720
829.32089 0.02695
828.03512 0.02676
826.74936 0.02672
825.46359 0.02681
824.17782 0.02690
822.89205 0.02688
821.60628 0.02670
820.32051 0.02642
819.03474 0.02614
817.74897 0.02594
816.46321 0.02586
815.17744 0.02590
813.89167 0.02600
812.60590 0.02612
811.32013 0.02617
810.03436 0.02609
808.74859 0.02590
807.46282 0.02574
806.17705 0.02576
804.89129 0.02597
803.60552 0.02626
802.31975 0.02648
801.03398 0.02658
799.74821 0.02658
798.46244 0.02654
797.17667 0.02648
795.89090 0.02637
794.60513 0.02625
793.31937 0.02623
792.03360 0.02633
790.74783 0.02643
789.46206 0.02638
788.17629 0.02619
786.89052 0.02599
785.60475 0.02591
784.31898 0.02598
783.03322 0.02610
781.74745 0.02621
780.46168 0.02629
779.17591 0.02639
777.89014 0.02649
776.60437 0.02655
775.31860 0.02650
774.03283 0.02635
772.74706 0.02620
771.46130 0.02612
770.17553 0.02612
768.88976 0.02615
767.60399 0.02619
766.31822 0.02622
765.03245 0.02626
763.74668 0.02630
762.46091 0.02634
761.17515 0.02635
759.88938 0.02637
758.60361 0.02639
757.31784 0.02640
756.03207 0.02637
754.74630 0.02634
753.46053 0.02632
752.17476 0.02629
750.88899 0.02627
749.60323 0.02625
748.31746 0.02625
747.03169 0.02620
745.74592 0.02608
744.46015 0.02591
743.17438 0.02579
741.88861 0.02578
740.60284 0.02584
739.31708 0.02589
738.03131 0.02583
736.74554 0.02570
735.45977 0.02561
734.17400 0.02560
732.88823 0.02561
731.60246 0.02556
730.31669 0.02546
729.03092 0.02541
727.74516 0.02542
726.45939 0.02543
725.17362 0.02537
723.88785 0.02526
722.60208 0.02518
721.31631 0.02520
720.03054 0.02529
718.74477 0.02541
717.45901 0.02551
716.17324 0.02554
714.88747 0.02549
713.60170 0.02537
712.31593 0.02523
711.03016 0.02512
709.74439 0.02504
708.45862 0.02499
707.17285 0.02496
705.88709 0.02495
704.60132 0.02494
703.31555 0.02493
702.02978 0.02491
700.74401 0.02489
699.45824 0.02489
698.17247 0.02492
696.88670 0.02496
695.60094 0.02500
694.31517 0.02501
693.02940 0.02496
691.74363 0.02486
690.45786 0.02476
689.17209 0.02473
687.88632 0.02475
686.60055 0.02478
685.31478 0.02476
684.02902 0.02466
682.74325 0.02450
681.45748 0.02430
680.17171 0.02412
678.88594 0.02401
677.60017 0.02402
676.31440 0.02415
675.02863 0.02434
673.74287 0.02455
672.45710 0.02475
671.17133 0.02489
669.88556 0.02498
668.59979 0.02500
667.31402 0.02493
666.02825 0.02484
664.74248 0.02471
663.45671 0.02455
662.17095 0.02440
660.88518 0.02426
659.59941 0.02415
658.31364 0.02408
657.02787 0.02404
655.74210 0.02403
654.45633 0.02402
653.17056 0.02397
651.88480 0.02384
650.59903 0.02368
649.31326 0.02352
648.02749 0.02341
646.74172 0.02335
645.45595 0.02329
644.17018 0.02319
642.88441 0.02310
641.59864 0.02307
640.31288 0.02310
639.02711 0.02310
637.74134 0.02302
636.45557 0.02286
635.16980 0.02271
633.88403 0.02266
632.59826 0.02274
631.31249 0.02290
630.02673 0.02291
628.74096 0.02280
627.45519 0.02317
626.16942 0.02290
624.88365 0.02240
623.59788 0.02262
622.31211 0.02407
621.02634 0.02635
619.74057 0.02821
618.45481 0.02884
617.16904 0.02903
615.88327 0.03052
614.59750 0.03428
613.31173 0.03946
612.02596 0.04415
610.74019 0.04712
609.45442 0.04881
608.16866 0.05055
606.88289 0.05297
605.59712 0.05553
604.31135 0.05727
603.02558 0.05780
601.73981 0.05755
600.45404 0.05710
599.16827 0.05654
597.88250 0.05562
596.59674 0.05422
595.31097 0.05254
594.02520 0.05095
592.73943 0.04974
591.45366 0.04898
590.16789 0.04857
588.88212 0.04840
587.59635 0.04848
586.31059 0.04890
585.02482 0.04970
583.73905 0.05075
582.45328 0.05187
581.16751 0.05296
579.88174 0.05409
578.59597 0.05536
577.31020 0.05671
576.02443 0.05796
574.73867 0.05894
573.45290 0.05967
572.16713 0.06034
570.88136 0.06125
569.59559 0.06257
568.30982 0.06437
567.02405 0.06654
565.73828 0.06883
564.45251 0.07094
563.16675 0.07257
561.88098 0.07349
560.59521 0.07360
559.30944 0.07291
558.02367 0.07148
556.73790 0.06941
555.45213 0.06682
554.16636 0.06393
552.88060 0.06098
551.59483 0.05822
550.30906 0.05574
549.02329 0.05355
547.73752 0.05159
546.45175 0.04978
545.16598 0.04807
543.88021 0.04646
542.59444 0.04496
541.30868 0.04355
540.02291 0.04228
538.73714 0.04122
537.45137 0.04040
536.16560 0.03974
534.87983 0.03911
533.59406 0.03840
532.30829 0.03761
531.02253 0.03680
529.73676 0.03605
528.45099 0.03537
527.16522 0.03476
525.87945 0.03418
524.59368 0.03368
523.30791 0.03327
522.02214 0.03289
520.73637 0.03247
519.45061 0.03198
518.16484 0.03149
516.87907 0.03106
515.59330 0.03066
514.30753 0.03022
513.02176 0.02974
511.73599 0.02929
510.45022 0.02893
509.16446 0.02866
507.87869 0.02843
506.59292 0.02820
505.30715 0.02797
504.02138 0.02772
502.73561 0.02743
501.44984 0.02708
500.16407 0.02672
498.87830 0.02636
497.59254 0.02600
496.30677 0.02565
495.02100 0.02533
493.73523 0.02512
492.44946 0.02502
491.16369 0.02495
489.87792 0.02475
488.59215 0.02444
487.30639 0.02417
486.02062 0.02409
484.73485 0.02423
483.44908 0.02450
482.16331 0.02476
480.87754 0.02492
479.59177 0.02496
478.30600 0.02496
477.02023 0.02498
475.73447 0.02505
474.44870 0.02511
473.16293 0.02514
471.87716 0.02512
470.59139 0.02506
469.30562 0.02493
468.01985 0.02477
466.73408 0.02463
465.44832 0.02456
464.16255 0.02448
462.87678 0.02433
461.59101 0.02409
460.30524 0.02379
459.01947 0.02345
457.73370 0.02313
456.44793 0.02282
455.16216 0.02253
453.87640 0.02225
452.59063 0.02200
451.30486 0.02180
450.01909 0.02163
448.73332 0.02139
447.44755 0.02107
446.16178 0.02075
444.87601 0.02055
443.59025 0.02047
442.30448 0.02043
441.01871 0.02029
439.73294 0.02002
438.44717 0.01971
437.16140 0.01947
435.87563 0.01937
434.58986 0.01938
433.30409 0.01943
432.01833 0.01944
430.73256 0.01937
429.44679 0.01924
428.16102 0.01908
426.87525 0.01893
425.58948 0.01883
424.30371 0.01875
423.01794 0.01866
421.73218 0.01852
420.44641 0.01834
419.16064 0.01816
417.87487 0.01801
416.58910 0.01788
415.30333 0.01776
414.01756 0.01765
412.73179 0.01754
411.44602 0.01740
410.16026 0.01724
408.87449 0.01711
407.58872 0.01707
406.30295 0.01710
405.01718 0.01719
403.73141 0.01728
402.44564 0.01733
401.15987 0.01733
399.87411 0.01730
