3997.45528	0.04955
3996.16951	0.04956
3994.88374	0.04951
3993.59798	0.04933
3992.31221	0.04885
3991.02644	0.04793
3989.74067	0.04685
3988.45490	0.04617
3987.16913	0.04621
3985.88336	0.04675
3984.59759	0.04742
3983.31183	0.04813
3982.02606	0.04898
3980.74029	0.04980
3979.45452	0.05013
3978.16875	0.04979
3976.88298	0.04920
3975.59721	0.04898
3974.31144	0.04925
3973.02567	0.04965
3971.73991	0.04975
3970.45414	0.04946
3969.16837	0.04893
3967.88260	0.04837
3966.59683	0.04805
3965.31106	0.04823
3964.02529	0.04881
3962.73952	0.04938
3961.45376	0.04957
3960.16799	0.04935
3958.88222	0.04890
3957.59645	0.04837
3956.31068	0.04791
3955.02491	0.04782
3953.73914	0.04835
3952.45337	0.04932
3951.16760	0.05019
3949.88184	0.05057
3948.59607	0.05057
3947.31030	0.05059
3946.02453	0.05074
3944.73876	0.05072
3943.45299	0.05028
3942.16722	0.04962
3940.88145	0.04919
3939.59569	0.04934
3938.30992	0.05000
3937.02415	0.05082
3935.73838	0.05132
3934.45261	0.05118
3933.16684	0.05040
3931.88107	0.04924
3930.59530	0.04806
3929.30953	0.04723
3928.02377	0.04700
3926.73800	0.04750
3925.45223	0.04856
3924.16646	0.04977
3922.88069	0.05066
3921.59492	0.05093
3920.30915	0.05056
3919.02338	0.04967
3917.73762	0.04854
3916.45185	0.04760
3915.16608	0.04732
3913.88031	0.04791
3912.59454	0.04910
3911.30877	0.05027
3910.02300	0.05084
3908.73723	0.05060
3907.45146	0.04984
3906.16570	0.04905
3904.87993	0.04852
3903.59416	0.04822
3902.30839	0.04802
3901.02262	0.04792
3899.73685	0.04794
3898.45108	0.04797
3897.16531	0.04783
3895.87955	0.04741
3894.59378	0.04684
3893.30801	0.04650
3892.02224	0.04675
3890.73647	0.04760
3889.45070	0.04877
3888.16493	0.04985
3886.87916	0.05039
3885.59339	0.04997
3884.30763	0.04863
3883.02186	0.04701
3881.73609	0.04584
3880.45032	0.04540
3879.16455	0.04544
3877.87878	0.04565
3876.59301	0.04589
3875.30724	0.04607
3874.02148	0.04614
3872.73571	0.04614
3871.44994	0.04623
3870.16417	0.04646
3868.87840	0.04673
3867.59263	0.04689
3866.30686	0.04689
3865.02109	0.04674
3863.73532	0.04651
3862.44956	0.04631
3861.16379	0.04610
3859.87802	0.04583
3858.59225	0.04560
3857.30648	0.04561
3856.02071	0.04593
3854.73494	0.04633
3853.44917	0.04641
3852.16341	0.04603
3850.87764	0.04549
3849.59187	0.04510
3848.30610	0.04499
3847.02033	0.04514
3845.73456	0.04546
3844.44879	0.04588
3843.16302	0.04624
3841.87725	0.04637
3840.59149	0.04618
3839.30572	0.04572
3838.01995	0.04509
3836.73418	0.04454
3835.44841	0.04439
3834.16264	0.04483
3832.87687	0.04569
3831.59110	0.04663
3830.30534	0.04735
3829.01957	0.04766
3827.73380	0.04740
3826.44803	0.04666
3825.16226	0.04590
3823.87649	0.04568
3822.59072	0.04607
3821.30495	0.04652
3820.01918	0.04649
3818.73342	0.04594
3817.44765	0.04512
3816.16188	0.04425
3814.87611	0.04366
3813.59034	0.04378
3812.30457	0.04466
3811.01880	0.04568
3809.73303	0.04620
3808.44726	0.04603
3807.16150	0.04540
3805.87573	0.04478
3804.58996	0.04469
3803.30419	0.04527
3802.01842	0.04599
3800.73265	0.04617
3799.44688	0.04573
3798.16111	0.04511
3796.87535	0.04464
3795.58958	0.04426
3794.30381	0.04380
3793.01804	0.04329
3791.73227	0.04294
3790.44650	0.04301
3789.16073	0.04355
3787.87496	0.04435
3786.58919	0.04499
3785.30343	0.04514
3784.01766	0.04487
3782.73189	0.04454
3781.44612	0.04444
3780.16035	0.04453
3778.87458	0.04458
3777.58881	0.04453
3776.30304	0.04446
3775.01728	0.04432
3773.73151	0.04412
3772.44574	0.04405
3771.15997	0.04432
3769.87420	0.04474
3768.58843	0.04482
3767.30266	0.04441
3766.01689	0.04381
3764.73112	0.04340
3763.44536	0.04332
3762.15959	0.04345
3760.87382	0.04353
3759.58805	0.04331
3758.30228	0.04279
3757.01651	0.04229
3755.73074	0.04216
3754.44497	0.04249
3753.15921	0.04309
3751.87344	0.04365
3750.58767	0.04393
3749.30190	0.04376
3748.01613	0.04326
3746.73036	0.04288
3745.44459	0.04288
3744.15882	0.04308
3742.87305	0.04331
3741.58729	0.04357
3740.30152	0.04370
3739.01575	0.04346
3737.72998	0.04287
3736.44421	0.04226
3735.15844	0.04195
3733.87267	0.04202
3732.58690	0.04222
3731.30114	0.04224
3730.01537	0.04216
3728.72960	0.04231
3727.44383	0.04271
3726.15806	0.04304
3724.87229	0.04314
3723.58652	0.04327
3722.30075	0.04364
3721.01498	0.04415
3719.72922	0.04452
3718.44345	0.04461
3717.15768	0.04448
3715.87191	0.04429
3714.58614	0.04419
3713.30037	0.04424
3712.01460	0.04443
3710.72883	0.04471
3709.44307	0.04498
3708.15730	0.04498
3706.87153	0.04448
3705.58576	0.04348
3704.29999	0.04238
3703.01422	0.04173
3701.72845	0.04182
3700.44268	0.04249
3699.15691	0.04330
3697.87115	0.04383
3696.58538	0.04400
3695.29961	0.04410
3694.01384	0.04438
3692.72807	0.04464
3691.44230	0.04471
3690.15653	0.04477
3688.87076	0.04490
3687.58500	0.04501
3686.29923	0.04498
3685.01346	0.04464
3683.72769	0.04397
3682.44192	0.04320
3681.15615	0.04254
3679.87038	0.04207
3678.58461	0.04168
3677.29884	0.04115
3676.01308	0.04047
3674.72731	0.03992
3673.44154	0.04003
3672.15577	0.04103
3670.87000	0.04234
3669.58423	0.04306
3668.29846	0.04284
3667.01269	0.04204
3665.72693	0.04125
3664.44116	0.04086
3663.15539	0.04092
3661.86962	0.04115
3660.58385	0.04135
3659.29808	0.04160
3658.01231	0.04215
3656.72654	0.04296
3655.44077	0.04371
3654.15501	0.04420
3652.86924	0.04455
3651.58347	0.04491
3650.29770	0.04526
3649.01193	0.04544
3647.72616	0.04528
3646.44039	0.04468
3645.15462	0.04384
3643.86886	0.04319
3642.58309	0.04312
3641.29732	0.04362
3640.01155	0.04435
3638.72578	0.04503
3637.44001	0.04561
3636.15424	0.04609
3634.86847	0.04637
3633.58270	0.04635
3632.29694	0.04623
3631.01117	0.04634
3629.72540	0.04672
3628.43963	0.04705
3627.15386	0.04701
3625.86809	0.04670
3624.58232	0.04647
3623.29655	0.04668
3622.01079	0.04732
3620.72502	0.04809
3619.43925	0.04859
3618.15348	0.04867
3616.86771	0.04849
3615.58194	0.04824
3614.29617	0.04799
3613.01040	0.04783
3611.72463	0.04794
3610.43887	0.04846
3609.15310	0.04920
3607.86733	0.04975
3606.58156	0.04983
3605.29579	0.04948
3604.01002	0.04902
3602.72425	0.04879
3601.43848	0.04891
3600.15272	0.04936
3598.86695	0.05007
3597.58118	0.05093
3596.29541	0.05160
3595.00964	0.05179
3593.72387	0.05159
3592.43810	0.05133
3591.15233	0.05137
3589.86656	0.05176
3588.58080	0.05218
3587.29503	0.05223
3586.00926	0.05194
3584.72349	0.05165
3583.43772	0.05163
3582.15195	0.05198
3580.86618	0.05264
3579.58041	0.05333
3578.29464	0.05370
3577.00888	0.05352
3575.72311	0.05288
3574.43734	0.05229
3573.15157	0.05218
3571.86580	0.05261
3570.58003	0.05335
3569.29426	0.05417
3568.00849	0.05494
3566.72273	0.05547
3565.43696	0.05562
3564.15119	0.05550
3562.86542	0.05536
3561.57965	0.05543
3560.29388	0.05571
3559.00811	0.05613
3557.72234	0.05652
3556.43657	0.05672
3555.15081	0.05666
3553.86504	0.05658
3552.57927	0.05686
3551.29350	0.05769
3550.00773	0.05880
3548.72196	0.05972
3547.43619	0.06016
3546.15042	0.06018
3544.86466	0.05999
3543.57889	0.05979
3542.29312	0.05965
3541.00735	0.05961
3539.72158	0.05965
3538.43581	0.05972
3537.15004	0.05975
3535.86427	0.05989
3534.57850	0.06034
3533.29274	0.06111
3532.00697	0.06182
3530.72120	0.06210
3529.43543	0.06196
3528.14966	0.06174
3526.86389	0.06178
3525.57812	0.06215
3524.29235	0.06262
3523.00659	0.06291
3521.72082	0.06286
3520.43505	0.06257
3519.14928	0.06228
3517.86351	0.06227
3516.57774	0.06257
3515.29197	0.06302
3514.00620	0.06340
3512.72043	0.06360
3511.43467	0.06365
3510.14890	0.06361
3508.86313	0.06345
3507.57736	0.06318
3506.29159	0.06295
3505.00582	0.06294
3503.72005	0.06323
3502.43428	0.06360
3501.14852	0.06370
3499.86275	0.06337
3498.57698	0.06287
3497.29121	0.06274
3496.00544	0.06329
3494.71967	0.06439
3493.43390	0.06550
3492.14813	0.06616
3490.86236	0.06629
3489.57660	0.06607
3488.29083	0.06577
3487.00506	0.06549
3485.71929	0.06532
3484.43352	0.06534
3483.14775	0.06553
3481.86198	0.06583
3480.57621	0.06622
3479.29045	0.06678
3478.00468	0.06745
3476.71891	0.06802
3475.43314	0.06839
3474.14737	0.06870
3472.86160	0.06904
3471.57583	0.06922
3470.29006	0.06906
3469.00429	0.06862
3467.71853	0.06821
3466.43276	0.06794
3465.14699	0.06776
3463.86122	0.06765
3462.57545	0.06772
3461.28968	0.06807
3460.00391	0.06861
3458.71814	0.06904
3457.43238	0.06915
3456.14661	0.06899
3454.86084	0.06881
3453.57507	0.06885
3452.28930	0.06919
3451.00353	0.06976
3449.71776	0.07045
3448.43199	0.07108
3447.14622	0.07150
3445.86046	0.07164
3444.57469	0.07163
3443.28892	0.07166
3442.00315	0.07178
3440.71738	0.07194
3439.43161	0.07207
3438.14584	0.07213
3436.86007	0.07211
3435.57431	0.07211
3434.28854	0.07227
3433.00277	0.07266
3431.71700	0.07301
3430.43123	0.07290
3429.14546	0.07225
3427.85969	0.07146
3426.57392	0.07115
3425.28815	0.07158
3424.00239	0.07247
3422.71662	0.07327
3421.43085	0.07358
3420.14508	0.07339
3418.85931	0.07305
3417.57354	0.07291
3416.28777	0.07311
3415.00200	0.07357
3413.71624	0.07410
3412.43047	0.07456
3411.14470	0.07485
3409.85893	0.07489
3408.57316	0.07472
3407.28739	0.07443
3406.00162	0.07415
3404.71585	0.07389
3403.43008	0.07360
3402.14432	0.07336
3400.85855	0.07342
3399.57278	0.07390
3398.28701	0.07461
3397.00124	0.07512
3395.71547	0.07519
3394.42970	0.07494
3393.14393	0.07479
3391.85817	0.07502
3390.57240	0.07558
3389.28663	0.07611
3388.00086	0.07636
3386.71509	0.07640
3385.42932	0.07641
3384.14355	0.07651
3382.85778	0.07670
3381.57201	0.07695
3380.28625	0.07723
3379.00048	0.07735
3377.71471	0.07720
3376.42894	0.07685
3375.14317	0.07653
3373.85740	0.07637
3372.57163	0.07640
3371.28586	0.07664
3370.00010	0.07708
3368.71433	0.07757
3367.42856	0.07792
3366.14279	0.07798
3364.85702	0.07777
3363.57125	0.07745
3362.28548	0.07716
3360.99971	0.07692
3359.71394	0.07665
3358.42818	0.07626
3357.14241	0.07578
3355.85664	0.07537
3354.57087	0.07530
3353.28510	0.07567
3351.99933	0.07626
3350.71356	0.07668
3349.42779	0.07675
3348.14202	0.07662
3346.85626	0.07649
3345.57049	0.07640
3344.28472	0.07627
3342.99895	0.07613
3341.71318	0.07610
3340.42741	0.07622
3339.14164	0.07639
3337.85587	0.07652
3336.57011	0.07665
3335.28434	0.07684
3333.99857	0.07705
3332.71280	0.07719
3331.42703	0.07723
3330.14126	0.07718
3328.85549	0.07707
3327.56972	0.07696
3326.28395	0.07694
3324.99819	0.07705
3323.71242	0.07721
3322.42665	0.07725
3321.14088	0.07707
3319.85511	0.07673
3318.56934	0.07637
3317.28357	0.07609
3315.99780	0.07595
3314.71204	0.07595
3313.42627	0.07602
3312.14050	0.07604
3310.85473	0.07594
3309.56896	0.07575
3308.28319	0.07563
3306.99742	0.07575
3305.71165	0.07616
3304.42588	0.07672
3303.14012	0.07712
3301.85435	0.07722
3300.56858	0.07716
3299.28281	0.07725
3297.99704	0.07756
3296.71127	0.07779
3295.42550	0.07758
3294.13973	0.07696
3292.85397	0.07634
3291.56820	0.07607
3290.28243	0.07618
3288.99666	0.07648
3287.71089	0.07674
3286.42512	0.07681
3285.13935	0.07665
3283.85358	0.07628
3282.56781	0.07579
3281.28205	0.07532
3279.99628	0.07497
3278.71051	0.07484
3277.42474	0.07494
3276.13897	0.07527
3274.85320	0.07572
3273.56743	0.07613
3272.28166	0.07632
3270.99590	0.07624
3269.71013	0.07604
3268.42436	0.07586
3267.13859	0.07579
3265.85282	0.07580
3264.56705	0.07590
3263.28128	0.07611
3261.99551	0.07634
3260.70974	0.07646
3259.42398	0.07637
3258.13821	0.07607
3256.85244	0.07555
3255.56667	0.07488
3254.28090	0.07428
3252.99513	0.07404
3251.70936	0.07420
3250.42359	0.07450
3249.13783	0.07467
3247.85206	0.07467
3246.56629	0.07457
3245.28052	0.07441
3243.99475	0.07415
3242.70898	0.07386
3241.42321	0.07369
3240.13744	0.07373
3238.85167	0.07391
3237.56591	0.07400
3236.28014	0.07380
3234.99437	0.07325
3233.70860	0.07259
3232.42283	0.07219
3231.13706	0.07226
3229.85129	0.07263
3228.56552	0.07291
3227.27976	0.07298
3225.99399	0.07301
3224.70822	0.07309
3223.42245	0.07302
3222.13668	0.07259
3220.85091	0.07193
3219.56514	0.07146
3218.27937	0.07145
3216.99360	0.07180
3215.70784	0.07213
3214.42207	0.07219
3213.13630	0.07199
3211.85053	0.07177
3210.56476	0.07175
3209.27899	0.07202
3207.99322	0.07246
3206.70745	0.07284
3205.42169	0.07300
3204.13592	0.07297
3202.85015	0.07291
3201.56438	0.07284
3200.27861	0.07271
3198.99284	0.07249
3197.70707	0.07221
3196.42130	0.07192
3195.13553	0.07162
3193.84977	0.07137
3192.56400	0.07119
3191.27823	0.07103
3189.99246	0.07086
3188.70669	0.07073
3187.42092	0.07072
3186.13515	0.07080
3184.84938	0.07085
3183.56362	0.07078
3182.27785	0.07063
3180.99208	0.07053
3179.70631	0.07051
3178.42054	0.07047
3177.13477	0.07030
3175.84900	0.07003
3174.56323	0.06986
3173.27746	0.06989
3171.99170	0.07005
3170.70593	0.07017
3169.42016	0.07017
3168.13439	0.07012
3166.84862	0.07015
3165.56285	0.07025
3164.27708	0.07025
3162.99131	0.07004
3161.70555	0.06968
3160.41978	0.06938
3159.13401	0.06926
3157.84824	0.06924
3156.56247	0.06921
3155.27670	0.06907
3153.99093	0.06886
3152.70516	0.06860
3151.41939	0.06832
3150.13363	0.06807
3148.84786	0.06789
3147.56209	0.06782
3146.27632	0.06781
3144.99055	0.06784
3143.70478	0.06799
3142.41901	0.06832
3141.13324	0.06874
3139.84748	0.06896
3138.56171	0.06883
3137.27594	0.06837
3135.99017	0.06770
3134.70440	0.06696
3133.41863	0.06635
3132.13286	0.06608
3130.84709	0.06625
3129.56132	0.06663
3128.27556	0.06685
3126.98979	0.06672
3125.70402	0.06634
3124.41825	0.06600
3123.13248	0.06591
3121.84671	0.06611
3120.56094	0.06644
3119.27517	0.06664
3117.98940	0.06655
3116.70364	0.06622
3115.41787	0.06587
3114.13210	0.06570
3112.84633	0.06571
3111.56056	0.06584
3110.27479	0.06598
3108.98902	0.06611
3107.70325	0.06613
3106.41749	0.06601
3105.13172	0.06575
3103.84595	0.06544
3102.56018	0.06510
3101.27441	0.06468
3099.98864	0.06425
3098.70287	0.06396
3097.41710	0.06394
3096.13133	0.06416
3094.84557	0.06446
3093.55980	0.06467
3092.27403	0.06474
3090.98826	0.06473
3089.70249	0.06474
3088.41672	0.06483
3087.13095	0.06489
3085.84518	0.06467
3084.55942	0.06408
3083.27365	0.06331
3081.98788	0.06279
3080.70211	0.06281
3079.41634	0.06328
3078.13057	0.06384
3076.84480	0.06415
3075.55903	0.06420
3074.27326	0.06413
3072.98750	0.06399
3071.70173	0.06373
3070.41596	0.06337
3069.13019	0.06313
3067.84442	0.06320
3066.55865	0.06353
3065.27288	0.06382
3063.98711	0.06378
3062.70135	0.06331
3061.41558	0.06262
3060.12981	0.06209
3058.84404	0.06193
3057.55827	0.06207
3056.27250	0.06225
3054.98673	0.06231
3053.70096	0.06231
3052.41519	0.06233
3051.12943	0.06239
3049.84366	0.06242
3048.55789	0.06241
3047.27212	0.06233
3045.98635	0.06218
3044.70058	0.06191
3043.41481	0.06154
3042.12904	0.06110
3040.84328	0.06066
3039.55751	0.06031
3038.27174	0.06017
3036.98597	0.06025
3035.70020	0.06040
3034.41443	0.06045
3033.12866	0.06032
3031.84289	0.06011
3030.55712	0.05998
3029.27136	0.06007
3027.98559	0.06030
3026.69982	0.06048
3025.41405	0.06043
3024.12828	0.06012
3022.84251	0.05973
3021.55674	0.05947
3020.27097	0.05941
3018.98521	0.05946
3017.69944	0.05945
3016.41367	0.05934
3015.12790	0.05918
3013.84213	0.05911
3012.55636	0.05913
3011.27059	0.05917
3009.98482	0.05917
3008.69905	0.05910
3007.41329	0.05893
3006.12752	0.05861
3004.84175	0.05818
3003.55598	0.05778
3002.27021	0.05752
3000.98444	0.05742
2999.69867	0.05741
2998.41290	0.05740
2997.12714	0.05743
2995.84137	0.05757
2994.55560	0.05782
2993.26983	0.05808
2991.98406	0.05823
2990.69829	0.05822
2989.41252	0.05815
2988.12675	0.05814
2986.84098	0.05819
2985.55522	0.05821
2984.26945	0.05817
2982.98368	0.05811
2981.69791	0.05818
2980.41214	0.05846
2979.12637	0.05897
2977.84060	0.05962
2976.55483	0.06032
2975.26907	0.06097
2973.98330	0.06152
2972.69753	0.06191
2971.41176	0.06217
2970.12599	0.06240
2968.84022	0.06283
2967.55445	0.06361
2966.26868	0.06467
2964.98291	0.06571
2963.69715	0.06649
2962.41138	0.06699
2961.12561	0.06740
2959.83984	0.06790
2958.55407	0.06842
2957.26830	0.06881
2955.98253	0.06894
2954.69676	0.06886
2953.41100	0.06877
2952.12523	0.06879
2950.83946	0.06893
2949.55369	0.06909
2948.26792	0.06925
2946.98215	0.06945
2945.69638	0.06971
2944.41061	0.06997
2943.12484	0.07014
2941.83908	0.07008
2940.55331	0.06980
2939.26754	0.06950
2937.98177	0.06947
2936.69600	0.06982
2935.41023	0.07047
2934.12446	0.07124
2932.83869	0.07197
2931.55293	0.07252
2930.26716	0.07285
2928.98139	0.07299
2927.69562	0.07307
2926.40985	0.07324
2925.12408	0.07358
2923.83831	0.07403
2922.55254	0.07440
2921.26677	0.07447
2919.98101	0.07414
2918.69524	0.07351
2917.40947	0.07275
2916.12370	0.07203
2914.83793	0.07142
2913.55216	0.07084
2912.26639	0.07022
2910.98062	0.06953
2909.69486	0.06885
2908.40909	0.06822
2907.12332	0.06770
2905.83755	0.06725
2904.55178	0.06685
2903.26601	0.06651
2901.98024	0.06626
2900.69447	0.06607
2899.40870	0.06586
2898.12294	0.06551
2896.83717	0.06492
2895.55140	0.06415
2894.26563	0.06340
2892.97986	0.06288
2891.69409	0.06262
2890.40832	0.06245
2889.12255	0.06226
2887.83678	0.06209
2886.55102	0.06199
2885.26525	0.06191
2883.97948	0.06173
2882.69371	0.06147
2881.40794	0.06133
2880.12217	0.06150
2878.83640	0.06189
2877.55063	0.06228
2876.26487	0.06256
2874.97910	0.06276
2873.69333	0.06293
2872.40756	0.06303
2871.12179	0.06304
2869.83602	0.06302
2868.55025	0.06306
2867.26448	0.06313
2865.97871	0.06315
2864.69295	0.06306
2863.40718	0.06289
2862.12141	0.06265
2860.83564	0.06238
2859.54987	0.06212
2858.26410	0.06203
2856.97833	0.06217
2855.69256	0.06243
2854.40680	0.06246
2853.12103	0.06207
2851.83526	0.06142
2850.54949	0.06083
2849.26372	0.06044
2847.97795	0.06014
2846.69218	0.05976
2845.40641	0.05927
2844.12064	0.05873
2842.83488	0.05820
2841.54911	0.05766
2840.26334	0.05701
2838.97757	0.05623
2837.69180	0.05540
2836.40603	0.05469
2835.12026	0.05427
2833.83449	0.05414
2832.54873	0.05406
2831.26296	0.05375
2829.97719	0.05313
2828.69142	0.05237
2827.40565	0.05172
2826.11988	0.05133
2824.83411	0.05117
2823.54834	0.05109
2822.26257	0.05098
2820.97681	0.05083
2819.69104	0.05074
2818.40527	0.05074
2817.11950	0.05076
2815.83373	0.05064
2814.54796	0.05034
2813.26219	0.04998
2811.97642	0.04974
2810.69066	0.04971
2809.40489	0.04984
2808.11912	0.04996
2806.83335	0.04991
2805.54758	0.04970
2804.26181	0.04949
2802.97604	0.04938
2801.69027	0.04939
2800.40450	0.04941
2799.11874	0.04930
2797.83297	0.04898
2796.54720	0.04851
2795.26143	0.04805
2793.97566	0.04774
2792.68989	0.04764
2791.40412	0.04770
2790.11835	0.04782
2788.83259	0.04791
2787.54682	0.04791
2786.26105	0.04785
2784.97528	0.04777
2783.68951	0.04770
2782.40374	0.04764
2781.11797	0.04762
2779.83220	0.04767
2778.54643	0.04771
2777.26067	0.04763
2775.97490	0.04736
2774.68913	0.04694
2773.40336	0.04648
2772.11759	0.04613
2770.83182	0.04596
2769.54605	0.04597
2768.26028	0.04608
2766.97452	0.04621
2765.68875	0.04628
2764.40298	0.04623
2763.11721	0.04608
2761.83144	0.04593
2760.54567	0.04582
2759.25990	0.04571
2757.97413	0.04557
2756.68836	0.04542
2755.40260	0.04534
2754.11683	0.04536
2752.83106	0.04547
2751.54529	0.04568
2750.25952	0.04596
2748.97375	0.04619
2747.68798	0.04629
2746.40221	0.04626
2745.11645	0.04618
2743.83068	0.04608
2742.54491	0.04595
2741.25914	0.04576
2739.97337	0.04555
2738.68760	0.04539
2737.40183	0.04536
2736.11606	0.04544
2734.83029	0.04551
2733.54453	0.04547
2732.25876	0.04531
2730.97299	0.04505
2729.68722	0.04481
2728.40145	0.04473
2727.11568	0.04485
2725.82991	0.04498
2724.54414	0.04488
2723.25838	0.04453
2721.97261	0.04419
2720.68684	0.04402
2719.40107	0.04398
2718.11530	0.04392
2716.82953	0.04382
2715.54376	0.04370
2714.25799	0.04359
2712.97222	0.04348
2711.68646	0.04340
2710.40069	0.04335
2709.11492	0.04331
2707.82915	0.04325
2706.54338	0.04323
2705.25761	0.04333
2703.97184	0.04353
2702.68607	0.04370
2701.40031	0.04376
2700.11454	0.04376
2698.82877	0.04374
2697.54300	0.04367
2696.25723	0.04345
2694.97146	0.04315
2693.68569	0.04292
2692.39992	0.04280
2691.11415	0.04270
2689.82839	0.04250
2688.54262	0.04221
2687.25685	0.04196
2685.97108	0.04188
2684.68531	0.04194
2683.39954	0.04210
2682.11377	0.04229
2680.82800	0.04243
2679.54224	0.04246
2678.25647	0.04237
2676.97070	0.04228
2675.68493	0.04226
2674.39916	0.04226
2673.11339	0.04217
2671.82762	0.04194
2670.54185	0.04169
2669.25608	0.04153
2667.97032	0.04153
2666.68455	0.04172
2665.39878	0.04205
2664.11301	0.04235
2662.82724	0.04239
2661.54147	0.04213
2660.25570	0.04172
2658.96993	0.04136
2657.68417	0.04113
2656.39840	0.04099
2655.11263	0.04092
2653.82686	0.04093
2652.54109	0.04098
2651.25532	0.04098
2649.96955	0.04087
2648.68378	0.04066
2647.39801	0.04038
2646.11225	0.04006
2644.82648	0.03974
2643.54071	0.03950
2642.25494	0.03939
2640.96917	0.03937
2639.68340	0.03933
2638.39763	0.03920
2637.11186	0.03898
2635.82609	0.03874
2634.54033	0.03854
2633.25456	0.03838
2631.96879	0.03829
2630.68302	0.03820
2629.39725	0.03804
2628.11148	0.03787
2626.82571	0.03781
2625.53994	0.03787
2624.25418	0.03789
2622.96841	0.03772
2621.68264	0.03738
2620.39687	0.03700
2619.11110	0.03663
2617.82533	0.03630
2616.53956	0.03617
2615.25379	0.03639
2613.96802	0.03690
2612.68226	0.03741
2611.39649	0.03759
2610.11072	0.03739
2608.82495	0.03698
2607.53918	0.03657
2606.25341	0.03622
2604.96764	0.03588
2603.68187	0.03559
2602.39611	0.03552
2601.11034	0.03577
2599.82457	0.03615
2598.53880	0.03630
2597.25303	0.03604
2595.96726	0.03548
2594.68149	0.03494
2593.39572	0.03467
2592.10995	0.03463
2590.82419	0.03463
2589.53842	0.03454
2588.25265	0.03442
2586.96688	0.03434
2585.68111	0.03427
2584.39534	0.03415
2583.10957	0.03404
2581.82380	0.03403
2580.53804	0.03413
2579.25227	0.03426
2577.96650	0.03436
2576.68073	0.03441
2575.39496	0.03440
2574.10919	0.03434
2572.82342	0.03426
2571.53765	0.03412
2570.25188	0.03387
2568.96612	0.03354
2567.68035	0.03321
2566.39458	0.03301
2565.10881	0.03303
2563.82304	0.03323
2562.53727	0.03343
2561.25150	0.03344
2559.96573	0.03326
2558.67997	0.03302
2557.39420	0.03282
2556.10843	0.03267
2554.82266	0.03257
2553.53689	0.03253
2552.25112	0.03249
2550.96535	0.03240
2549.67958	0.03229
2548.39381	0.03219
2547.10805	0.03206
2545.82228	0.03187
2544.53651	0.03173
2543.25074	0.03175
2541.96497	0.03195
2540.67920	0.03224
2539.39343	0.03249
2538.10766	0.03260
2536.82190	0.03252
2535.53613	0.03229
2534.25036	0.03204
2532.96459	0.03196
2531.67882	0.03220
2530.39305	0.03273
2529.10728	0.03326
2527.82151	0.03339
2526.53574	0.03295
2525.24998	0.03218
2523.96421	0.03156
2522.67844	0.03132
2521.39267	0.03133
2520.10690	0.03137
2518.82113	0.03136
2517.53536	0.03132
2516.24959	0.03131
2514.96383	0.03136
2513.67806	0.03149
2512.39229	0.03172
2511.10652	0.03195
2509.82075	0.03206
2508.53498	0.03196
2507.24921	0.03166
2505.96344	0.03125
2504.67767	0.03093
2503.39191	0.03087
2502.10614	0.03100
2500.82037	0.03109
2499.53460	0.03096
2498.24883	0.03070
2496.96306	0.03055
2495.67729	0.03067
2494.39152	0.03103
2493.10576	0.03146
2491.81999	0.03174
2490.53422	0.03172
2489.24845	0.03142
2487.96268	0.03107
2486.67691	0.03092
2485.39114	0.03101
2484.10537	0.03110
2482.81960	0.03094
2481.53384	0.03052
2480.24807	0.03010
2478.96230	0.02990
2477.67653	0.02991
2476.39076	0.03004
2475.10499	0.03022
2473.81922	0.03044
2472.53345	0.03060
2471.24769	0.03058
2469.96192	0.03035
2468.67615	0.03002
2467.39038	0.02967
2466.10461	0.02939
2464.81884	0.02928
2463.53307	0.02937
2462.24730	0.02950
2460.96153	0.02958
2459.67577	0.02979
2458.39000	0.03038
2457.10423	0.03123
2455.81846	0.03185
2454.53269	0.03192
2453.24692	0.03158
2451.96115	0.03112
2450.67538	0.03064
2449.38962	0.03011
2448.10385	0.02963
2446.81808	0.02941
2445.53231	0.02951
2444.24654	0.02978
2442.96077	0.03002
2441.67500	0.03007
2440.38923	0.02986
2439.10346	0.02952
2437.81770	0.02930
2436.53193	0.02935
2435.24616	0.02949
2433.96039	0.02954
2432.67462	0.02952
2431.38885	0.02959
2430.10308	0.02968
2428.81731	0.02954
2427.53155	0.02909
2426.24578	0.02851
2424.96001	0.02808
2423.67424	0.02794
2422.38847	0.02810
2421.10270	0.02841
2419.81693	0.02868
2418.53116	0.02879
2417.24539	0.02877
2415.95963	0.02873
2414.67386	0.02871
2413.38809	0.02866
2412.10232	0.02853
2410.81655	0.02841
2409.53078	0.02842
2408.24501	0.02865
2406.95924	0.02898
2405.67347	0.02919
2404.38771	0.02912
2403.10194	0.02883
2401.81617	0.02850
2400.53040	0.02830
2399.24463	0.02824
2397.95886	0.02833
2396.67309	0.02849
2395.38732	0.02863
2394.10156	0.02864
2392.81579	0.02853
2391.53002	0.02837
2390.24425	0.02824
2388.95848	0.02815
2387.67271	0.02807
2386.38694	0.02801
2385.10117	0.02809
2383.81540	0.02833
2382.52964	0.02864
2381.24387	0.02885
2379.95810	0.02888
2378.67233	0.02889
2377.38656	0.02909
2376.10079	0.02956
2374.81502	0.03019
2373.52925	0.03063
2372.24349	0.03082
2370.95772	0.03067
2369.67195	0.03059
2368.38618	0.03060
2367.10041	0.03058
2365.81464	0.03039
2364.52887	0.03047
2363.24310	0.03073
2361.95733	0.03096
2360.67157	0.03091
2359.38580	0.03109
2358.10003	0.03133
2356.81426	0.03144
2355.52849	0.03133
2354.24272	0.03095
2352.95695	0.03065
2351.67118	0.03030
2350.38542	0.02988
2349.09965	0.02983
2347.81388	0.03041
2346.52811	0.03076
2345.24234	0.03070
2343.95657	0.03076
2342.67080	0.03138
2341.38503	0.03166
2340.09926	0.03126
2338.81350	0.03119
2337.52773	0.03159
2336.24196	0.03128
2334.95619	0.03057
2333.67042	0.03085
2332.38465	0.03201
2331.09888	0.03171
2329.81311	0.03100
2328.52735	0.03173
2327.24158	0.03136
2325.95581	0.03055
2324.67004	0.03130
2323.38427	0.03139
2322.09850	0.03044
2320.81273	0.03076
2319.52696	0.03053
2318.24119	0.02996
2316.95543	0.03027
2315.66966	0.02988
2314.38389	0.02916
2313.09812	0.02890
2311.81235	0.02831
2310.52658	0.02823
2309.24081	0.02839
2307.95504	0.02841
2306.66928	0.02869
2305.38351	0.02868
2304.09774	0.02850
2302.81197	0.02829
2301.52620	0.02792
2300.24043	0.02760
2298.95466	0.02716
2297.66889	0.02669
2296.38312	0.02626
2295.09736	0.02600
2293.81159	0.02600
2292.52582	0.02607
2291.24005	0.02611
2289.95428	0.02606
2288.66851	0.02598
2287.38274	0.02589
2286.09697	0.02582
2284.81121	0.02586
2283.52544	0.02605
2282.23967	0.02622
2280.95390	0.02611
2279.66813	0.02570
2278.38236	0.02527
2277.09659	0.02515
2275.81082	0.02542
2274.52505	0.02586
2273.23929	0.02616
2271.95352	0.02610
2270.66775	0.02563
2269.38198	0.02494
2268.09621	0.02424
2266.81044	0.02358
2265.52467	0.02288
2264.23890	0.02216
2262.95314	0.02161
2261.66737	0.02147
2260.38160	0.02182
2259.09583	0.02239
2257.81006	0.02272
2256.52429	0.02261
2255.23852	0.02233
2253.95275	0.02225
2252.66698	0.02253
2251.38122	0.02285
2250.09545	0.02277
2248.80968	0.02219
2247.52391	0.02155
2246.23814	0.02122
2244.95237	0.02115
2243.66660	0.02115
2242.38083	0.02131
2241.09507	0.02182
2239.80930	0.02239
2238.52353	0.02227
2237.23776	0.02109
2235.95199	0.01942
2234.66622	0.01827
2233.38045	0.01823
2232.09468	0.01907
2230.80891	0.02017
2229.52315	0.02100
2228.23738	0.02138
2226.95161	0.02138
2225.66584	0.02115
2224.38007	0.02072
2223.09430	0.02005
2221.80853	0.01920
2220.52276	0.01851
2219.23700	0.01834
2217.95123	0.01861
2216.66546	0.01892
2215.37969	0.01894
2214.09392	0.01876
2212.80815	0.01856
2211.52238	0.01828
2210.23661	0.01768
2208.95084	0.01678
2207.66508	0.01596
2206.37931	0.01566
2205.09354	0.01601
2203.80777	0.01680
2202.52200	0.01766
2201.23623	0.01842
2199.95046	0.01908
2198.66469	0.01952
2197.37893	0.01933
2196.09316	0.01826
2194.80739	0.01674
2193.52162	0.01569
2192.23585	0.01575
2190.95008	0.01657
2189.66431	0.01708
2188.37854	0.01659
2187.09277	0.01543
2185.80701	0.01445
2184.52124	0.01410
2183.23547	0.01406
2181.94970	0.01386
2180.66393	0.01335
2179.37816	0.01271
2178.09239	0.01221
2176.80662	0.01202
2175.52085	0.01212
2174.23509	0.01219
2172.94932	0.01191
2171.66355	0.01146
2170.37778	0.01129
2169.09201	0.01157
2167.80624	0.01214
2166.52047	0.01298
2165.23470	0.01425
2163.94894	0.01565
2162.66317	0.01628
2161.37740	0.01541
2160.09163	0.01330
2158.80586	0.01106
2157.52009	0.00972
2156.23432	0.00945
2154.94855	0.00982
2153.66278	0.01036
2152.37702	0.01075
2151.09125	0.01078
2149.80548	0.01030
2148.51971	0.00941
2147.23394	0.00853
2145.94817	0.00820
2144.66240	0.00876
2143.37663	0.01007
2142.09087	0.01168
2140.80510	0.01312
2139.51933	0.01419
2138.23356	0.01477
2136.94779	0.01470
2135.66202	0.01390
2134.37625	0.01274
2133.09048	0.01196
2131.80471	0.01214
2130.51895	0.01309
2129.23318	0.01405
2127.94741	0.01442
2126.66164	0.01432
2125.37587	0.01424
2124.09010	0.01442
2122.80433	0.01478
2121.51856	0.01524
2120.23280	0.01582
2118.94703	0.01637
2117.66126	0.01664
2116.37549	0.01649
2115.08972	0.01606
2113.80395	0.01565
2112.51818	0.01556
2111.23241	0.01578
2109.94664	0.01600
2108.66088	0.01591
2107.37511	0.01567
2106.08934	0.01570
2104.80357	0.01606
2103.51780	0.01631
2102.23203	0.01600
2100.94626	0.01515
2099.66049	0.01345
2098.37473	0.01226
2097.08896	0.01173
2095.80319	0.01169
2094.51742	0.01212
2093.23165	0.01297
2091.94588	0.01402
2090.66011	0.01487
2089.37434	0.01523
2088.08857	0.01508
2086.80281	0.01468
2085.51704	0.01434
2084.23127	0.01416
2082.94550	0.01403
2081.65973	0.01378
2080.37396	0.01333
2079.08819	0.01273
2077.80242	0.01221
2076.51666	0.01205
2075.23089	0.01244
2073.94512	0.01327
2072.65935	0.01407
2071.37358	0.01443
2070.08781	0.01430
2068.80204	0.01395
2067.51627	0.01356
2066.23050	0.01312
2064.94474	0.01257
2063.65897	0.01196
2062.37320	0.01135
2061.08743	0.01089
2059.80166	0.01077
2058.51589	0.01105
2057.23012	0.01155
2055.94435	0.01201
2054.65859	0.01228
2053.37282	0.01231
2052.08705	0.01186
2050.80128	0.01059
2049.51551	0.00852
2048.22974	0.00631
2046.94397	0.00490
2045.65820	0.00474
2044.37243	0.00543
2043.08667	0.00606
2041.80090	0.00589
2040.51513	0.00497
2039.22936	0.00395
2037.94359	0.00338
2036.65782	0.00322
2035.37205	0.00307
2034.08628	0.00267
2032.80052	0.00213
2031.51475	0.00167
2030.22898	0.00140
2028.94321	0.00140
2027.65744	0.00189
2026.37167	0.00311
2025.08590	0.00482
2023.80013	0.00622
2022.51436	0.00665
2021.22860	0.00629
2019.94283	0.00597
2018.65706	0.00631
2017.37129	0.00712
2016.08552	0.00771
2014.79975	0.00767
2013.51398	0.00713
2012.22821	0.00651
2010.94245	0.00599
2009.65668	0.00542
2008.37091	0.00481
2007.08514	0.00460
2005.79937	0.00526
2004.51360	0.00669
2003.22783	0.00826
2001.94206	0.00922
2000.65629	0.00924
1999.37053	0.00858
1998.08476	0.00792
1996.79899	0.00791
1995.51322	0.00872
1994.22745	0.00996
1992.94168	0.01107
1991.65591	0.01158
1990.37014	0.01135
1989.08438	0.01056
1987.79861	0.00955
1986.51284	0.00869
1985.22707	0.00817
1983.94130	0.00793
1982.65553	0.00783
1981.36976	0.00784
1980.08399	0.00807
1978.79822	0.00849
1977.51246	0.00870
1976.22669	0.00840
1974.94092	0.00778
1973.65515	0.00741
1972.36938	0.00754
1971.08361	0.00792
1969.79784	0.00805
1968.51207	0.00764
1967.22631	0.00687
1965.94054	0.00638
1964.65477	0.00679
1963.36900	0.00817
1962.08323	0.00990
1960.79746	0.01126
1959.51169	0.01204
1958.22592	0.01254
1956.94015	0.01299
1955.65439	0.01324
1954.36862	0.01312
1953.08285	0.01278
1951.79708	0.01253
1950.51131	0.01247
1949.22554	0.01246
1947.93977	0.01247
1946.65400	0.01257
1945.36823	0.01282
1944.08247	0.01310
1942.79670	0.01318
1941.51093	0.01297
1940.22516	0.01253
1938.93939	0.01205
1937.65362	0.01166
1936.36785	0.01136
1935.08208	0.01122
1933.79632	0.01148
1932.51055	0.01231
1931.22478	0.01345
1929.93901	0.01427
1928.65324	0.01438
1927.36747	0.01391
1926.08170	0.01339
1924.79593	0.01329
1923.51016	0.01366
1922.22440	0.01426
1920.93863	0.01478
1919.65286	0.01507
1918.36709	0.01518
1917.08132	0.01521
1915.79555	0.01526
1914.50978	0.01536
1913.22401	0.01546
1911.93825	0.01551
1910.65248	0.01547
1909.36671	0.01534
1908.08094	0.01518
1906.79517	0.01514
1905.50940	0.01535
1904.22363	0.01572
1902.93786	0.01598
1901.65209	0.01598
1900.36633	0.01577
1899.08056	0.01557
1897.79479	0.01545
1896.50902	0.01530
1895.22325	0.01507
1893.93748	0.01486
1892.65171	0.01484
1891.36594	0.01505
1890.08018	0.01538
1888.79441	0.01571
1887.50864	0.01597
1886.22287	0.01615
1884.93710	0.01624
1883.65133	0.01624
1882.36556	0.01616
1881.07979	0.01603
1879.79402	0.01581
1878.50826	0.01550
1877.22249	0.01517
1875.93672	0.01495
1874.65095	0.01494
1873.36518	0.01508
1872.07941	0.01526
1870.79364	0.01533
1869.50787	0.01529
1868.22211	0.01517
1866.93634	0.01507
1865.65057	0.01507
1864.36480	0.01520
1863.07903	0.01540
1861.79326	0.01557
1860.50749	0.01567
1859.22172	0.01571
1857.93595	0.01575
1856.65019	0.01583
1855.36442	0.01591
1854.07865	0.01595
1852.79288	0.01593
1851.50711	0.01590
1850.22134	0.01588
1848.93557	0.01584
1847.64980	0.01579
1846.36404	0.01574
1845.07827	0.01569
1843.79250	0.01560
1842.50673	0.01546
1841.22096	0.01535
1839.93519	0.01534
1838.64942	0.01541
1837.36365	0.01554
1836.07788	0.01573
1834.79212	0.01593
1833.50635	0.01611
1832.22058	0.01624
1830.93481	0.01632
1829.64904	0.01633
1828.36327	0.01624
1827.07750	0.01609
1825.79173	0.01594
1824.50597	0.01583
1823.22020	0.01575
1821.93443	0.01568
1820.64866	0.01559
1819.36289	0.01552
1818.07712	0.01557
1816.79135	0.01578
1815.50558	0.01610
1814.21981	0.01642
1812.93405	0.01666
1811.64828	0.01681
1810.36251	0.01689
1809.07674	0.01693
1807.79097	0.01696
1806.50520	0.01700
1805.21943	0.01704
1803.93366	0.01707
1802.64790	0.01708
1801.36213	0.01704
1800.07636	0.01699
1798.79059	0.01697
1797.50482	0.01695
1796.21905	0.01688
1794.93328	0.01675
1793.64751	0.01661
1792.36174	0.01650
1791.07598	0.01643
1789.79021	0.01641
1788.50444	0.01647
1787.21867	0.01660
1785.93290	0.01678
1784.64713	0.01694
1783.36136	0.01707
1782.07559	0.01716
1780.78983	0.01718
1779.50406	0.01710
1778.21829	0.01694
1776.93252	0.01681
1775.64675	0.01682
1774.36098	0.01698
1773.07521	0.01724
1771.78944	0.01748
1770.50367	0.01764
1769.21791	0.01771
1767.93214	0.01769
1766.64637	0.01762
1765.36060	0.01760
1764.07483	0.01765
1762.78906	0.01772
1761.50329	0.01775
1760.21752	0.01778
1758.93176	0.01789
1757.64599	0.01805
1756.36022	0.01819
1755.07445	0.01826
1753.78868	0.01833
1752.50291	0.01843
1751.21714	0.01851
1749.93137	0.01851
1748.64560	0.01843
1747.35984	0.01835
1746.07407	0.01832
1744.78830	0.01836
1743.50253	0.01846
1742.21676	0.01860
1740.93099	0.01875
1739.64522	0.01886
1738.35945	0.01887
1737.07369	0.01883
1735.78792	0.01887
1734.50215	0.01901
1733.21638	0.01922
1731.93061	0.01950
1730.64484	0.01984
1729.35907	0.02012
1728.07330	0.02023
1726.78753	0.02022
1725.50177	0.02021
1724.21600	0.02027
1722.93023	0.02038
1721.64446	0.02051
1720.35869	0.02071
1719.07292	0.02101
1717.78715	0.02136
1716.50138	0.02170
1715.21561	0.02204
1713.92985	0.02244
1712.64408	0.02287
1711.35831	0.02326
1710.07254	0.02359
1708.78677	0.02389
1707.50100	0.02423
1706.21523	0.02461
1704.92946	0.02491
1703.64370	0.02511
1702.35793	0.02531
1701.07216	0.02559
1699.78639	0.02593
1698.50062	0.02635
1697.21485	0.02691
1695.92908	0.02753
1694.64331	0.02806
1693.35754	0.02850
1692.07178	0.02891
1690.78601	0.02927
1689.50024	0.02955
1688.21447	0.02981
1686.92870	0.03018
1685.64293	0.03071
1684.35716	0.03129
1683.07139	0.03182
1681.78563	0.03233
1680.49986	0.03288
1679.21409	0.03340
1677.92832	0.03390
1676.64255	0.03437
1675.35678	0.03481
1674.07101	0.03519
1672.78524	0.03554
1671.49947	0.03595
1670.21371	0.03642
1668.92794	0.03690
1667.64217	0.03734
1666.35640	0.03776
1665.07063	0.03819
1663.78486	0.03866
1662.49909	0.03912
1661.21332	0.03958
1659.92756	0.03999
1658.64179	0.04032
1657.35602	0.04051
1656.07025	0.04061
1654.78448	0.04076
1653.49871	0.04097
1652.21294	0.04118
1650.92717	0.04140
1649.64140	0.04170
1648.35564	0.04206
1647.06987	0.04233
1645.78410	0.04245
1644.49833	0.04246
1643.21256	0.04247
1641.92679	0.04254
1640.64102	0.04264
1639.35525	0.04276
1638.06949	0.04289
1636.78372	0.04305
1635.49795	0.04318
1634.21218	0.04328
1632.92641	0.04337
1631.64064	0.04351
1630.35487	0.04366
1629.06910	0.04381
1627.78333	0.04397
1626.49757	0.04414
1625.21180	0.04432
1623.92603	0.04449
1622.64026	0.04461
1621.35449	0.04470
1620.06872	0.04484
1618.78295	0.04508
1617.49718	0.04540
1616.21142	0.04574
1614.92565	0.04606
1613.63988	0.04642
1612.35411	0.04683
1611.06834	0.04722
1609.78257	0.04757
1608.49680	0.04787
1607.21103	0.04815
1605.92526	0.04842
1604.63950	0.04874
1603.35373	0.04912
1602.06796	0.04955
1600.78219	0.04997
1599.49642	0.05035
1598.21065	0.05067
1596.92488	0.05092
1595.63911	0.05112
1594.35335	0.05129
1593.06758	0.05147
1591.78181	0.05169
1590.49604	0.05196
1589.21027	0.05227
1587.92450	0.05259
1586.63873	0.05290
1585.35296	0.05314
1584.06719	0.05333
1582.78143	0.05349
1581.49566	0.05367
1580.20989	0.05387
1578.92412	0.05413
1577.63835	0.05444
1576.35258	0.05472
1575.06681	0.05492
1573.78104	0.05509
1572.49528	0.05530
1571.20951	0.05555
1569.92374	0.05577
1568.63797	0.05595
1567.35220	0.05610
1566.06643	0.05623
1564.78066	0.05629
1563.49489	0.05625
1562.20912	0.05618
1560.92336	0.05617
1559.63759	0.05620
1558.35182	0.05619
1557.06605	0.05618
1555.78028	0.05624
1554.49451	0.05636
1553.20874	0.05643
1551.92297	0.05639
1550.63721	0.05625
1549.35144	0.05601
1548.06567	0.05569
1546.77990	0.05534
1545.49413	0.05494
1544.20836	0.05447
1542.92259	0.05394
1541.63682	0.05342
1540.35105	0.05291
1539.06529	0.05238
1537.77952	0.05186
1536.49375	0.05143
1535.20798	0.05114
1533.92221	0.05092
1532.63644	0.05070
1531.35067	0.05053
1530.06490	0.05046
1528.77914	0.05049
1527.49337	0.05055
1526.20760	0.05062
1524.92183	0.05072
1523.63606	0.05092
1522.35029	0.05124
1521.06452	0.05160
1519.77875	0.05198
1518.49298	0.05247
1517.20722	0.05312
1515.92145	0.05387
1514.63568	0.05467
1513.34991	0.05551
1512.06414	0.05638
1510.77837	0.05728
1509.49260	0.05824
1508.20683	0.05924
1506.92107	0.06021
1505.63530	0.06107
1504.34953	0.06186
1503.06376	0.06265
1501.77799	0.06347
1500.49222	0.06424
1499.20645	0.06494
1497.92068	0.06557
1496.63491	0.06616
1495.34915	0.06673
1494.06338	0.06729
1492.77761	0.06787
1491.49184	0.06844
1490.20607	0.06899
1488.92030	0.06952
1487.63453	0.07014
1486.34876	0.07092
1485.06299	0.07187
1483.77723	0.07296
1482.49146	0.07414
1481.20569	0.07531
1479.91992	0.07641
1478.63415	0.07744
1477.34838	0.07841
1476.06261	0.07934
1474.77684	0.08024
1473.49108	0.08110
1472.20531	0.08192
1470.91954	0.08265
1469.63377	0.08330
1468.34800	0.08388
1467.06223	0.08438
1465.77646	0.08483
1464.49069	0.08527
1463.20492	0.08575
1461.91916	0.08629
1460.63339	0.08688
1459.34762	0.08752
1458.06185	0.08819
1456.77608	0.08882
1455.49031	0.08937
1454.20454	0.08986
1452.91877	0.09035
1451.63301	0.09082
1450.34724	0.09121
1449.06147	0.09148
1447.77570	0.09162
1446.48993	0.09163
1445.20416	0.09154
1443.91839	0.09138
1442.63262	0.09114
1441.34685	0.09082
1440.06109	0.09046
1438.77532	0.09016
1437.48955	0.09002
1436.20378	0.09009
1434.91801	0.09037
1433.63224	0.09083
1432.34647	0.09146
1431.06070	0.09222
1429.77494	0.09314
1428.48917	0.09424
1427.20340	0.09552
1425.91763	0.09690
1424.63186	0.09832
1423.34609	0.09969
1422.06032	0.10099
1420.77455	0.10221
1419.48878	0.10329
1418.20302	0.10421
1416.91725	0.10497
1415.63148	0.10556
1414.34571	0.10596
1413.05994	0.10614
1411.77417	0.10611
1410.48840	0.10587
1409.20263	0.10544
1407.91687	0.10479
1406.63110	0.10392
1405.34533	0.10285
1404.05956	0.10159
1402.77379	0.10018
1401.48802	0.09867
1400.20225	0.09703
1398.91648	0.09524
1397.63071	0.09331
1396.34495	0.09135
1395.05918	0.08942
1393.77341	0.08750
1392.48764	0.08557
1391.20187	0.08364
1389.91610	0.08179
1388.63033	0.08002
1387.34456	0.07831
1386.05880	0.07662
1384.77303	0.07495
1383.48726	0.07332
1382.20149	0.07173
1380.91572	0.07015
1379.62995	0.06857
1378.34418	0.06697
1377.05841	0.06533
1375.77264	0.06366
1374.48688	0.06193
1373.20111	0.06017
1371.91534	0.05841
1370.62957	0.05670
1369.34380	0.05508
1368.05803	0.05357
1366.77226	0.05216
1365.48649	0.05086
1364.20073	0.04963
1362.91496	0.04846
1361.62919	0.04735
1360.34342	0.04634
1359.05765	0.04544
1357.77188	0.04463
1356.48611	0.04386
1355.20034	0.04311
1353.91457	0.04240
1352.62881	0.04173
1351.34304	0.04109
1350.05727	0.04048
1348.77150	0.03988
1347.48573	0.03928
1346.19996	0.03867
1344.91419	0.03804
1343.62842	0.03742
1342.34266	0.03685
1341.05689	0.03636
1339.77112	0.03594
1338.48535	0.03553
1337.19958	0.03509
1335.91381	0.03464
1334.62804	0.03419
1333.34227	0.03375
1332.05650	0.03332
1330.77074	0.03289
1329.48497	0.03247
1328.19920	0.03209
1326.91343	0.03174
1325.62766	0.03141
1324.34189	0.03106
1323.05612	0.03072
1321.77035	0.03042
1320.48459	0.03018
1319.19882	0.02996
1317.91305	0.02973
1316.62728	0.02947
1315.34151	0.02917
1314.05574	0.02887
1312.76997	0.02858
1311.48420	0.02833
1310.19843	0.02810
1308.91267	0.02787
1307.62690	0.02761
1306.34113	0.02737
1305.05536	0.02717
1303.76959	0.02702
1302.48382	0.02689
1301.19805	0.02673
1299.91228	0.02653
1298.62652	0.02631
1297.34075	0.02611
1296.05498	0.02592
1294.76921	0.02574
1293.48344	0.02559
1292.19767	0.02547
1290.91190	0.02538
1289.62613	0.02528
1288.34036	0.02515
1287.05460	0.02501
1285.76883	0.02488
1284.48306	0.02477
1283.19729	0.02471
1281.91152	0.02468
1280.62575	0.02467
1279.33998	0.02462
1278.05421	0.02451
1276.76845	0.02434
1275.48268	0.02414
1274.19691	0.02397
1272.91114	0.02384
1271.62537	0.02375
1270.33960	0.02368
1269.05383	0.02364
1267.76806	0.02360
1266.48229	0.02352
1265.19653	0.02337
1263.91076	0.02316
1262.62499	0.02295
1261.33922	0.02278
1260.05345	0.02268
1258.76768	0.02264
1257.48191	0.02261
1256.19614	0.02256
1254.91037	0.02247
1253.62461	0.02233
1252.33884	0.02219
1251.05307	0.02206
1249.76730	0.02195
1248.48153	0.02187
1247.19576	0.02181
1245.90999	0.02176
1244.62422	0.02169
1243.33846	0.02160
1242.05269	0.02149
1240.76692	0.02139
1239.48115	0.02131
1238.19538	0.02128
1236.90961	0.02125
1235.62384	0.02120
1234.33807	0.02115
1233.05230	0.02111
1231.76654	0.02106
1230.48077	0.02098
1229.19500	0.02085
1227.90923	0.02069
1226.62346	0.02052
1225.33769	0.02037
1224.05192	0.02026
1222.76615	0.02017
1221.48039	0.02010
1220.19462	0.02002
1218.90885	0.01993
1217.62308	0.01984
1216.33731	0.01974
1215.05154	0.01965
1213.76577	0.01956
1212.48000	0.01948
1211.19423	0.01943
1209.90847	0.01940
1208.62270	0.01939
1207.33693	0.01936
1206.05116	0.01934
1204.76539	0.01933
1203.47962	0.01932
1202.19385	0.01928
1200.90808	0.01927
1199.62232	0.01931
1198.33655	0.01928
1197.05078	0.01924
1195.76501	0.01915
1194.47924	0.01905
1193.19347	0.01897
1191.90770	0.01894
1190.62193	0.01892
1189.33616	0.01887
1188.05040	0.01877
1186.76463	0.01864
1185.47886	0.01852
1184.19309	0.01843
1182.90732	0.01838
1181.62155	0.01838
1180.33578	0.01840
1179.05001	0.01846
1177.76425	0.01854
1176.47848	0.01867
1175.19271	0.01885
1173.90694	0.01905
1172.62117	0.01925
1171.33540	0.01944
1170.04963	0.01960
1168.76386	0.01972
1167.47809	0.01980
1166.19233	0.01986
1164.90656	0.01994
1163.62079	0.02003
1162.33502	0.02013
1161.04925	0.02028
1159.76348	0.02049
1158.47771	0.02074
1157.19194	0.02099
1155.90618	0.02124
1154.62041	0.02153
1153.33464	0.02184
1152.04887	0.02218
1150.76310	0.02254
1149.47733	0.02296
1148.19156	0.02346
1146.90579	0.02407
1145.62002	0.02474
1144.33426	0.02542
1143.04849	0.02611
1141.76272	0.02686
1140.47695	0.02773
1139.19118	0.02874
1137.90541	0.02992
1136.61964	0.03125
1135.33387	0.03275
1134.04811	0.03443
1132.76234	0.03625
1131.47657	0.03823
1130.19080	0.04038
1128.90503	0.04275
1127.61926	0.04537
1126.33349	0.04823
1125.04772	0.05126
1123.76195	0.05442
1122.47619	0.05770
1121.19042	0.06105
1119.90465	0.06446
1118.61888	0.06790
1117.33311	0.07139
1116.04734	0.07497
1114.76157	0.07856
1113.47580	0.08206
1112.19004	0.08540
1110.90427	0.08864
1109.61850	0.09187
1108.33273	0.09511
1107.04696	0.09829
1105.76119	0.10134
1104.47542	0.10426
1103.18965	0.10708
1101.90388	0.10984
1100.61812	0.11251
1099.33235	0.11505
1098.04658	0.11746
1096.76081	0.11977
1095.47504	0.12206
1094.18927	0.12433
1092.90350	0.12649
1091.61773	0.12846
1090.33197	0.13023
1089.04620	0.13190
1087.76043	0.13354
1086.47466	0.13519
1085.18889	0.13687
1083.90312	0.13862
1082.61735	0.14054
1081.33158	0.14264
1080.04581	0.14493
1078.76005	0.14736
1077.47428	0.14992
1076.18851	0.15258
1074.90274	0.15531
1073.61697	0.15813
1072.33120	0.16110
1071.04543	0.16424
1069.75966	0.16750
1068.47390	0.17082
1067.18813	0.17415
1065.90236	0.17754
1064.61659	0.18100
1063.33082	0.18453
1062.04505	0.18807
1060.75928	0.19161
1059.47351	0.19516
1058.18774	0.19870
1056.90198	0.20218
1055.61621	0.20560
1054.33044	0.20897
1053.04467	0.21234
1051.75890	0.21575
1050.47313	0.21921
1049.18736	0.22274
1047.90159	0.22638
1046.61583	0.23011
1045.33006	0.23390
1044.04429	0.23772
1042.75852	0.24158
1041.47275	0.24547
1040.18698	0.24938
1038.90121	0.25328
1037.61544	0.25717
1036.32967	0.26107
1035.04391	0.26496
1033.75814	0.26881
1032.47237	0.27254
1031.18660	0.27603
1029.90083	0.27918
1028.61506	0.28189
1027.32929	0.28414
1026.04352	0.28595
1024.75775	0.28740
1023.47199	0.28857
1022.18622	0.28948
1020.90045	0.29005
1019.61468	0.29012
1018.32891	0.28959
1017.04314	0.28846
1015.75737	0.28683
1014.47160	0.28473
1013.18584	0.28206
1011.90007	0.27875
1010.61430	0.27482
1009.32853	0.27039
1008.04276	0.26558
1006.75699	0.26041
1005.47122	0.25486
1004.18545	0.24892
1002.89968	0.24260
1001.61392	0.23594
1000.32815	0.22906
999.04238	0.22202
997.75661	0.21484
996.47084	0.20753
995.18507	0.20010
993.89930	0.19264
992.61353	0.18526
991.32777	0.17807
990.04200	0.17110
988.75623	0.16435
987.47046	0.15780
986.18469	0.15149
984.89892	0.14549
983.61315	0.13985
982.32738	0.13456
981.04161	0.12958
979.75585	0.12491
978.47008	0.12060
977.18431	0.11665
975.89854	0.11304
974.61277	0.10977
973.32700	0.10692
972.04123	0.10462
970.75546	0.10297
969.46970	0.10205
968.18393	0.10183
966.89816	0.10214
965.61239	0.10280
964.32662	0.10359
963.04085	0.10434
961.75508	0.10483
960.46931	0.10485
959.18354	0.10425
957.89778	0.10301
956.61201	0.10125
955.32624	0.09913
954.04047	0.09675
952.75470	0.09420
951.46893	0.09157
950.18316	0.08899
948.89739	0.08654
947.61163	0.08422
946.32586	0.08200
945.04009	0.07980
943.75432	0.07758
942.46855	0.07536
941.18278	0.07324
939.89701	0.07129
938.61124	0.06950
937.32547	0.06785
936.03971	0.06633
934.75394	0.06495
933.46817	0.06368
932.18240	0.06248
930.89663	0.06132
929.61086	0.06020
928.32509	0.05918
927.03932	0.05827
925.75356	0.05741
924.46779	0.05656
923.18202	0.05567
921.89625	0.05478
920.61048	0.05394
919.32471	0.05319
918.03894	0.05250
916.75317	0.05186
915.46740	0.05125
914.18164	0.05068
912.89587	0.05017
911.61010	0.04969
910.32433	0.04928
909.03856	0.04893
907.75279	0.04862
906.46702	0.04828
905.18125	0.04785
903.89549	0.04736
902.60972	0.04690
901.32395	0.04654
900.03818	0.04625
898.75241	0.04593
897.46664	0.04551
896.18087	0.04503
894.89510	0.04463
893.60933	0.04443
892.32357	0.04446
891.03780	0.04462
889.75203	0.04480
888.46626	0.04498
887.18049	0.04531
885.89472	0.04604
884.60895	0.04745
883.32318	0.04962
882.03742	0.05238
880.75165	0.05526
879.46588	0.05772
878.18011	0.05954
876.89434	0.06091
875.60857	0.06220
874.32280	0.06357
873.03703	0.06477
871.75126	0.06539
870.46550	0.06516
869.17973	0.06412
867.89396	0.06250
866.60819	0.06056
865.32242	0.05848
864.03665	0.05639
862.75088	0.05435
861.46511	0.05242
860.17935	0.05062
858.89358	0.04898
857.60781	0.04757
856.32204	0.04641
855.03627	0.04550
853.75050	0.04479
852.46473	0.04420
851.17896	0.04371
849.89319	0.04330
848.60743	0.04296
847.32166	0.04262
846.03589	0.04223
844.75012	0.04178
843.46435	0.04134
842.17858	0.04102
840.89281	0.04084
839.60704	0.04071
838.32128	0.04051
837.03551	0.04022
835.74974	0.03993
834.46397	0.03968
833.17820	0.03946
831.89243	0.03922
830.60666	0.03899
829.32089	0.03878
828.03512	0.03858
826.74936	0.03840
825.46359	0.03830
824.17782	0.03829
822.89205	0.03834
821.60628	0.03837
820.32051	0.03836
819.03474	0.03834
817.74897	0.03829
816.46321	0.03821
815.17744	0.03808
813.89167	0.03794
812.60590	0.03784
811.32013	0.03777
810.03436	0.03772
808.74859	0.03771
807.46282	0.03774
806.17705	0.03779
804.89129	0.03777
803.60552	0.03768
802.31975	0.03759
801.03398	0.03756
799.74821	0.03758
798.46244	0.03758
797.17667	0.03756
795.89090	0.03752
794.60513	0.03747
793.31937	0.03735
792.03360	0.03717
790.74783	0.03699
789.46206	0.03691
788.17629	0.03693
786.89052	0.03700
785.60475	0.03706
784.31898	0.03709
783.03322	0.03706
781.74745	0.03702
780.46168	0.03699
779.17591	0.03701
777.89014	0.03708
776.60437	0.03719
775.31860	0.03724
774.03283	0.03719
772.74706	0.03706
771.46130	0.03695
770.17553	0.03693
768.88976	0.03695
767.60399	0.03696
766.31822	0.03694
765.03245	0.03692
763.74668	0.03690
762.46091	0.03691
761.17515	0.03694
759.88938	0.03700
758.60361	0.03705
757.31784	0.03709
756.03207	0.03713
754.74630	0.03716
753.46053	0.03718
752.17476	0.03717
750.88899	0.03709
749.60323	0.03691
748.31746	0.03665
747.03169	0.03641
745.74592	0.03626
744.46015	0.03625
743.17438	0.03633
741.88861	0.03639
740.60284	0.03635
739.31708	0.03621
738.03131	0.03608
736.74554	0.03607
735.45977	0.03619
734.17400	0.03631
732.88823	0.03631
731.60246	0.03619
730.31669	0.03608
729.03092	0.03607
727.74516	0.03610
726.45939	0.03608
725.17362	0.03600
723.88785	0.03591
722.60208	0.03579
721.31631	0.03569
720.03054	0.03564
718.74477	0.03563
717.45901	0.03564
716.17324	0.03561
714.88747	0.03555
713.60170	0.03548
712.31593	0.03543
711.03016	0.03541
709.74439	0.03542
708.45862	0.03545
707.17285	0.03547
705.88709	0.03548
704.60132	0.03545
703.31555	0.03538
702.02978	0.03530
700.74401	0.03522
699.45824	0.03516
698.17247	0.03511
696.88670	0.03507
695.60094	0.03505
694.31517	0.03507
693.02940	0.03511
691.74363	0.03512
690.45786	0.03507
689.17209	0.03494
687.88632	0.03479
686.60055	0.03465
685.31478	0.03457
684.02902	0.03455
682.74325	0.03453
681.45748	0.03449
680.17171	0.03442
678.88594	0.03434
677.60017	0.03431
676.31440	0.03434
675.02863	0.03443
673.74287	0.03457
672.45710	0.03468
671.17133	0.03463
669.88556	0.03455
668.59979	0.03496
667.31402	0.03516
666.02825	0.03476
664.74248	0.03480
663.45671	0.03472
662.17095	0.03448
660.88518	0.03428
659.59941	0.03414
658.31364	0.03401
657.02787	0.03385
655.74210	0.03371
654.45633	0.03361
653.17056	0.03355
651.88480	0.03349
650.59903	0.03342
649.31326	0.03337
648.02749	0.03331
646.74172	0.03322
645.45595	0.03312
644.17018	0.03304
642.88441	0.03303
641.59864	0.03311
640.31288	0.03325
639.02711	0.03341
637.74134	0.03362
636.45557	0.03389
635.16980	0.03427
633.88403	0.03478
632.59826	0.03538
631.31249	0.03590
630.02673	0.03595
628.74096	0.03579
627.45519	0.03702
626.16942	0.03689
624.88365	0.03575
623.59788	0.03477
622.31211	0.03502
621.02634	0.03761
619.74057	0.04284
618.45481	0.04965
617.16904	0.05628
615.88327	0.06117
614.59750	0.06368
613.31173	0.06457
612.02596	0.06583
610.74019	0.06956
609.45442	0.07622
608.16866	0.08414
606.88289	0.09114
605.59712	0.09619
604.31135	0.09939
603.02558	0.10118
601.73981	0.10185
600.45404	0.10155
599.16827	0.10038
597.88250	0.09846
596.59674	0.09598
595.31097	0.09323
594.02520	0.09058
592.73943	0.08835
591.45366	0.08670
590.16789	0.08563
588.88212	0.08515
587.59635	0.08534
586.31059	0.08624
585.02482	0.08779
583.73905	0.08985
582.45328	0.09227
581.16751	0.09501
579.88174	0.09804
578.59597	0.10124
577.31020	0.10436
576.02443	0.10719
574.73867	0.10966
573.45290	0.11193
572.16713	0.11428
570.88136	0.11697
569.59559	0.12011
568.30982	0.12368
567.02405	0.12754
565.73828	0.13148
564.45251	0.13515
563.16675	0.13809
561.88098	0.13971
560.59521	0.13953
559.30944	0.13735
558.02367	0.13335
556.73790	0.12799
555.45213	0.12186
554.16636	0.11542
552.88060	0.10898
551.59483	0.10269
550.30906	0.09674
549.02329	0.09129
547.73752	0.08644
546.45175	0.08213
545.16598	0.07824
543.88021	0.07471
542.59444	0.07159
541.30868	0.06894
540.02291	0.06669
538.73714	0.06468
537.45137	0.06277
536.16560	0.06091
534.87983	0.05910
533.59406	0.05743
532.30829	0.05590
531.02253	0.05449
529.73676	0.05309
528.45099	0.05167
527.16522	0.05029
525.87945	0.04902
524.59368	0.04789
523.30791	0.04683
522.02214	0.04578
520.73637	0.04472
519.45061	0.04372
518.16484	0.04282
516.87907	0.04205
515.59330	0.04143
514.30753	0.04090
513.02176	0.04040
511.73599	0.03986
510.45022	0.03930
509.16446	0.03873
507.87869	0.03817
506.59292	0.03760
505.30715	0.03704
504.02138	0.03652
502.73561	0.03611
501.44984	0.03578
500.16407	0.03547
498.87830	0.03515
497.59254	0.03483
496.30677	0.03452
495.02100	0.03420
493.73523	0.03387
492.44946	0.03355
491.16369	0.03326
489.87792	0.03301
488.59215	0.03282
487.30639	0.03271
486.02062	0.03269
484.73485	0.03274
483.44908	0.03281
482.16331	0.03287
480.87754	0.03293
479.59177	0.03301
478.30600	0.03314
477.02023	0.03335
475.73447	0.03362
474.44870	0.03389
473.16293	0.03414
471.87716	0.03429
470.59139	0.03431
469.30562	0.03416
468.01985	0.03386
466.73408	0.03348
465.44832	0.03312
464.16255	0.03281
462.87678	0.03252
461.59101	0.03217
460.30524	0.03175
459.01947	0.03131
457.73370	0.03091
456.44793	0.03054
455.16216	0.03022
453.87640	0.02993
452.59063	0.02966
451.30486	0.02940
450.01909	0.02913
448.73332	0.02889
447.44755	0.02873
446.16178	0.02868
444.87601	0.02867
443.59025	0.02864
442.30448	0.02850
441.01871	0.02826
439.73294	0.02800
438.44717	0.02777
437.16140	0.02762
435.87563	0.02754
434.58986	0.02748
433.30409	0.02743
432.01833	0.02738
430.73256	0.02730
429.44679	0.02719
428.16102	0.02704
426.87525	0.02686
425.58948	0.02666
424.30371	0.02646
423.01794	0.02626
421.73218	0.02610
420.44641	0.02598
419.16064	0.02593
417.87487	0.02591
416.58910	0.02593
415.30333	0.02598
414.01756	0.02604
412.73179	0.02603
411.44602	0.02596
410.16026	0.02586
408.87449	0.02580
407.58872	0.02583
406.30295	0.02592
405.01718	0.02604
403.73141	0.02614
402.44564	0.02622
401.15987	0.02630
399.87411	0.02637
