3997.45528 0.06715
3996.16951 0.06845
3994.88374 0.06989
3993.59798 0.07115
3992.31221 0.07199
3991.02644 0.07239
3989.74067 0.07233
3988.45490 0.07183
3987.16913 0.07112
3985.88336 0.07057
3984.59759 0.07029
3983.31183 0.07018
3982.02606 0.07005
3980.74029 0.06978
3979.45452 0.06931
3978.16875 0.06874
3976.88298 0.06836
3975.59721 0.06838
3974.31144 0.06864
3973.02567 0.06863
3971.73991 0.06805
3970.45414 0.06728
3969.16837 0.06705
3967.88260 0.06772
3966.59683 0.06906
3965.31106 0.07048
3964.02529 0.07149
3962.73952 0.07185
3961.45376 0.07160
3960.16799 0.07097
3958.88222 0.07018
3957.59645 0.06931
3956.31068 0.06845
3955.02491 0.06778
3953.73914 0.06746
3952.45337 0.06756
3951.16760 0.06790
3949.88184 0.06824
3948.59607 0.06837
3947.31030 0.06837
3946.02453 0.06836
3944.73876 0.06838
3943.45299 0.06848
3942.16722 0.06882
3940.88145 0.06942
3939.59569 0.06997
3938.30992 0.07023
3937.02415 0.07032
3935.73838 0.07047
3934.45261 0.07060
3933.16684 0.07048
3931.88107 0.07015
3930.59530 0.06979
3929.30953 0.06948
3928.02377 0.06915
3926.73800 0.06888
3925.45223 0.06896
3924.16646 0.06944
3922.88069 0.06981
3921.59492 0.06954
3920.30915 0.06875
3919.02338 0.06801
3917.73762 0.06765
3916.45185 0.06749
3915.16608 0.06712
3913.88031 0.06637
3912.59454 0.06552
3911.30877 0.06506
3910.02300 0.06522
3908.73723 0.06585
3907.45146 0.06643
3906.16570 0.06655
3904.87993 0.06630
3903.59416 0.06616
3902.30839 0.06643
3901.02262 0.06701
3899.73685 0.06761
3898.45108 0.06804
3897.16531 0.06826
3895.87955 0.06840
3894.59378 0.06863
3893.30801 0.06898
3892.02224 0.06937
3890.73647 0.06963
3889.45070 0.06933
3888.16493 0.06795
3886.87916 0.06586
3885.59339 0.06437
3884.30763 0.06436
3883.02186 0.06535
3881.73609 0.06628
3880.45032 0.06665
3879.16455 0.06663
3877.87878 0.06641
3876.59301 0.06602
3875.30724 0.06566
3874.02148 0.06560
3872.73571 0.06592
3871.44994 0.06644
3870.16417 0.06711
3868.87840 0.06768
3867.59263 0.06751
3866.30686 0.06645
3865.02109 0.06530
3863.73532 0.06474
3862.44956 0.06459
3861.16379 0.06454
3859.87802 0.06465
3858.59225 0.06513
3857.30648 0.06581
3856.02071 0.06625
3854.73494 0.06643
3853.44917 0.06680
3852.16341 0.06749
3850.87764 0.06795
3849.59187 0.06792
3848.30610 0.06764
3847.02033 0.06729
3845.73456 0.06675
3844.44879 0.06594
3843.16302 0.06508
3841.87725 0.06442
3840.59149 0.06380
3839.30572 0.06298
3838.01995 0.06220
3836.73418 0.06188
3835.44841 0.06204
3834.16264 0.06254
3832.87687 0.06342
3831.59110 0.06455
3830.30534 0.06548
3829.01957 0.06574
3827.73380 0.06542
3826.44803 0.06495
3825.16226 0.06453
3823.87649 0.06397
3822.59072 0.06346
3821.30495 0.06374
3820.01918 0.06498
3818.73342 0.06613
3817.44765 0.06615
3816.16188 0.06546
3814.87611 0.06499
3813.59034 0.06502
3812.30457 0.06546
3811.01880 0.06628
3809.73303 0.06697
3808.44726 0.06674
3807.16150 0.06563
3805.87573 0.06444
3804.58996 0.06355
3803.30419 0.06291
3802.01842 0.06271
3800.73265 0.06326
3799.44688 0.06415
3798.16111 0.06477
3796.87535 0.06514
3795.58958 0.06543
3794.30381 0.06531
3793.01804 0.06439
3791.73227 0.06287
3790.44650 0.06131
3789.16073 0.06017
3787.87496 0.05975
3786.58919 0.06010
3785.30343 0.06098
3784.01766 0.06183
3782.73189 0.06208
3781.44612 0.06171
3780.16035 0.06135
3778.87458 0.06163
3777.58881 0.06242
3776.30304 0.06309
3775.01728 0.06328
3773.73151 0.06308
3772.44574 0.06274
3771.15997 0.06262
3769.87420 0.06297
3768.58843 0.06355
3767.30266 0.06373
3766.01689 0.06328
3764.73112 0.06261
3763.44536 0.06215
3762.15959 0.06185
3760.87382 0.06151
3759.58805 0.06117
3758.30228 0.06101
3757.01651 0.06123
3755.73074 0.06165
3754.44497 0.06178
3753.15921 0.06155
3751.87344 0.06141
3750.58767 0.06166
3749.30190 0.06238
3748.01613 0.06339
3746.73036 0.06401
3745.44459 0.06396
3744.15882 0.06375
3742.87305 0.06342
3741.58729 0.06245
3740.30152 0.06116
3739.01575 0.06042
3737.72998 0.06054
3736.44421 0.06124
3735.15844 0.06205
3733.87267 0.06237
3732.58690 0.06198
3731.30114 0.06119
3730.01537 0.06016
3728.72960 0.05876
3727.44383 0.05732
3726.15806 0.05665
3724.87229 0.05723
3723.58652 0.05871
3722.30075 0.06039
3721.01498 0.06175
3719.72922 0.06265
3718.44345 0.06319
3717.15768 0.06344
3715.87191 0.06327
3714.58614 0.06254
3713.30037 0.06145
3712.01460 0.06043
3710.72883 0.05965
3709.44307 0.05895
3708.15730 0.05843
3706.87153 0.05843
3705.58576 0.05884
3704.29999 0.05907
3703.01422 0.05869
3701.72845 0.05802
3700.44268 0.05765
3699.15691 0.05771
3697.87115 0.05798
3696.58538 0.05824
3695.29961 0.05825
3694.01384 0.05792
3692.72807 0.05763
3691.44230 0.05780
3690.15653 0.05840
3688.87076 0.05927
3687.58500 0.06018
3686.29923 0.06065
3685.01346 0.06040
3683.72769 0.05963
3682.44192 0.05878
3681.15615 0.05822
3679.87038 0.05827
3678.58461 0.05876
3677.29884 0.05917
3676.01308 0.05937
3674.72731 0.05969
3673.44154 0.05996
3672.15577 0.05968
3670.87000 0.05918
3669.58423 0.05921
3668.29846 0.05989
3667.01269 0.06070
3665.72693 0.06128
3664.44116 0.06146
3663.15539 0.06120
3661.86962 0.06066
3660.58385 0.06013
3659.29808 0.05980
3658.01231 0.05974
3656.72654 0.06006
3655.44077 0.06075
3654.15501 0.06135
3652.86924 0.06129
3651.58347 0.06056
3650.29770 0.05982
3649.01193 0.05978
3647.72616 0.06057
3646.44039 0.06164
3645.15462 0.06229
3643.86886 0.06238
3642.58309 0.06230
3641.29732 0.06232
3640.01155 0.06225
3638.72578 0.06183
3637.44001 0.06119
3636.15424 0.06066
3634.86847 0.06050
3633.58270 0.06083
3632.29694 0.06143
3631.01117 0.06191
3629.72540 0.06223
3628.43963 0.06262
3627.15386 0.06284
3625.86809 0.06241
3624.58232 0.06159
3623.29655 0.06115
3622.01079 0.06133
3620.72502 0.06172
3619.43925 0.06194
3618.15348 0.06188
3616.86771 0.06156
3615.58194 0.06104
3614.29617 0.06065
3613.01040 0.06075
3611.72463 0.06123
3610.43887 0.06164
3609.15310 0.06182
3607.86733 0.06210
3606.58156 0.06277
3605.29579 0.06362
3604.01002 0.06420
3602.72425 0.06417
3601.43848 0.06361
3600.15272 0.06310
3598.86695 0.06332
3597.58118 0.06441
3596.29541 0.06583
3595.00964 0.06674
3593.72387 0.06678
3592.43810 0.06639
3591.15233 0.06609
3589.86656 0.06595
3588.58080 0.06585
3587.29503 0.06584
3586.00926 0.06604
3584.72349 0.06633
3583.43772 0.06643
3582.15195 0.06613
3580.86618 0.06552
3579.58041 0.06504
3578.29464 0.06507
3577.00888 0.06567
3575.72311 0.06672
3574.43734 0.06788
3573.15157 0.06874
3571.86580 0.06898
3570.58003 0.06863
3569.29426 0.06806
3568.00849 0.06770
3566.72273 0.06766
3565.43696 0.06778
3564.15119 0.06788
3562.86542 0.06799
3561.57965 0.06829
3560.29388 0.06894
3559.00811 0.06998
3557.72234 0.07125
3556.43657 0.07237
3555.15081 0.07294
3553.86504 0.07291
3552.57927 0.07265
3551.29350 0.07255
3550.00773 0.07252
3548.72196 0.07219
3547.43619 0.07156
3546.15042 0.07106
3544.86466 0.07098
3543.57889 0.07111
3542.29312 0.07112
3541.00735 0.07097
3539.72158 0.07084
3538.43581 0.07085
3537.15004 0.07103
3535.86427 0.07128
3534.57850 0.07153
3533.29274 0.07180
3532.00697 0.07228
3530.72120 0.07313
3529.43543 0.07418
3528.14966 0.07503
3526.86389 0.07534
3525.57812 0.07510
3524.29235 0.07461
3523.00659 0.07424
3521.72082 0.07419
3520.43505 0.07441
3519.14928 0.07459
3517.86351 0.07450
3516.57774 0.07415
3515.29197 0.07385
3514.00620 0.07384
3512.72043 0.07406
3511.43467 0.07419
3510.14890 0.07412
3508.86313 0.07400
3507.57736 0.07396
3506.29159 0.07399
3505.00582 0.07415
3503.72005 0.07454
3502.43428 0.07517
3501.14852 0.07583
3499.86275 0.07643
3498.57698 0.07697
3497.29121 0.07742
3496.00544 0.07761
3494.71967 0.07745
3493.43390 0.07713
3492.14813 0.07701
3490.86236 0.07735
3489.57660 0.07803
3488.29083 0.07866
3487.00506 0.07894
3485.71929 0.07897
3484.43352 0.07899
3483.14775 0.07907
3481.86198 0.07907
3480.57621 0.07901
3479.29045 0.07914
3478.00468 0.07957
3476.71891 0.08001
3475.43314 0.08002
3474.14737 0.07951
3472.86160 0.07892
3471.57583 0.07874
3470.29006 0.07906
3469.00429 0.07951
3467.71853 0.07969
3466.43276 0.07954
3465.14699 0.07931
3463.86122 0.07924
3462.57545 0.07933
3461.28968 0.07936
3460.00391 0.07924
3458.71814 0.07904
3457.43238 0.07885
3456.14661 0.07873
3454.86084 0.07880
3453.57507 0.07915
3452.28930 0.07955
3451.00353 0.07962
3449.71776 0.07931
3448.43199 0.07908
3447.14622 0.07921
3445.86046 0.07940
3444.57469 0.07913
3443.28892 0.07842
3442.00315 0.07792
3440.71738 0.07820
3439.43161 0.07920
3438.14584 0.08042
3436.86007 0.08135
3435.57431 0.08183
3434.28854 0.08191
3433.00277 0.08178
3431.71700 0.08158
3430.43123 0.08149
3429.14546 0.08171
3427.85969 0.08222
3426.57392 0.08275
3425.28815 0.08297
3424.00239 0.08278
3422.71662 0.08233
3421.43085 0.08200
3420.14508 0.08209
3418.85931 0.08266
3417.57354 0.08339
3416.28777 0.08388
3415.00200 0.08399
3413.71624 0.08397
3412.43047 0.08405
3411.14470 0.08416
3409.85893 0.08409
3408.57316 0.08384
3407.28739 0.08376
3406.00162 0.08419
3404.71585 0.08505
3403.43008 0.08589
3402.14432 0.08641
3400.85855 0.08668
3399.57278 0.08695
3398.28701 0.08709
3397.00124 0.08686
3395.71547 0.08612
3394.42970 0.08521
3393.14393 0.08470
3391.85817 0.08485
3390.57240 0.08535
3389.28663 0.08573
3388.00086 0.08582
3386.71509 0.08583
3385.42932 0.08598
3384.14355 0.08631
3382.85778 0.08671
3381.57201 0.08703
3380.28625 0.08707
3379.00048 0.08670
3377.71471 0.08599
3376.42894 0.08525
3375.14317 0.08479
3373.85740 0.08475
3372.57163 0.08510
3371.28586 0.08568
3370.00010 0.08625
3368.71433 0.08661
3367.42856 0.08667
3366.14279 0.08648
3364.85702 0.08613
3363.57125 0.08566
3362.28548 0.08523
3360.99971 0.08503
3359.71394 0.08529
3358.42818 0.08605
3357.14241 0.08711
3355.85664 0.08819
3354.57087 0.08896
3353.28510 0.08919
3351.99933 0.08879
3350.71356 0.08802
3349.42779 0.08729
3348.14202 0.08692
3346.85626 0.08683
3345.57049 0.08671
3344.28472 0.08639
3342.99895 0.08598
3341.71318 0.08568
3340.42741 0.08559
3339.14164 0.08569
3337.85587 0.08598
3336.57011 0.08653
3335.28434 0.08725
3333.99857 0.08780
3332.71280 0.08786
3331.42703 0.08746
3330.14126 0.08692
3328.85549 0.08660
3327.56972 0.08663
3326.28395 0.08695
3324.99819 0.08747
3323.71242 0.08808
3322.42665 0.08860
3321.14088 0.08876
3319.85511 0.08842
3318.56934 0.08770
3317.28357 0.08686
3315.99780 0.08622
3314.71204 0.08602
3313.42627 0.08635
3312.14050 0.08704
3310.85473 0.08769
3309.56896 0.08804
3308.28319 0.08810
3306.99742 0.08811
3305.71165 0.08833
3304.42588 0.08879
3303.14012 0.08927
3301.85435 0.08950
3300.56858 0.08933
3299.28281 0.08896
3297.99704 0.08866
3296.71127 0.08847
3295.42550 0.08815
3294.13973 0.08750
3292.85397 0.08667
3291.56820 0.08603
3290.28243 0.08573
3288.99666 0.08565
3287.71089 0.08561
3286.42512 0.08561
3285.13935 0.08567
3283.85358 0.08579
3282.56781 0.08598
3281.28205 0.08637
3279.99628 0.08698
3278.71051 0.08749
3277.42474 0.08751
3276.13897 0.08708
3274.85320 0.08668
3273.56743 0.08678
3272.28166 0.08742
3270.99590 0.08819
3269.71013 0.08860
3268.42436 0.08844
3267.13859 0.08792
3265.85282 0.08754
3264.56705 0.08762
3263.28128 0.08798
3261.99551 0.08820
3260.70974 0.08803
3259.42398 0.08756
3258.13821 0.08697
3256.85244 0.08638
3255.56667 0.08581
3254.28090 0.08529
3252.99513 0.08492
3251.70936 0.08476
3250.42359 0.08481
3249.13783 0.08496
3247.85206 0.08505
3246.56629 0.08498
3245.28052 0.08486
3243.99475 0.08485
3242.70898 0.08506
3241.42321 0.08542
3240.13744 0.08581
3238.85167 0.08608
3237.56591 0.08618
3236.28014 0.08613
3234.99437 0.08608
3233.70860 0.08611
3232.42283 0.08615
3231.13706 0.08603
3229.85129 0.08574
3228.56552 0.08542
3227.27976 0.08517
3225.99399 0.08506
3224.70822 0.08515
3223.42245 0.08538
3222.13668 0.08553
3220.85091 0.08538
3219.56514 0.08484
3218.27937 0.08406
3216.99360 0.08330
3215.70784 0.08282
3214.42207 0.08273
3213.13630 0.08291
3211.85053 0.08315
3210.56476 0.08337
3209.27899 0.08363
3207.99322 0.08393
3206.70745 0.08413
3205.42169 0.08403
3204.13592 0.08365
3202.85015 0.08317
3201.56438 0.08281
3200.27861 0.08259
3198.99284 0.08243
3197.70707 0.08228
3196.42130 0.08222
3195.13553 0.08237
3193.84977 0.08266
3192.56400 0.08292
3191.27823 0.08295
3189.99246 0.08261
3188.70669 0.08196
3187.42092 0.08124
3186.13515 0.08081
3184.84938 0.08088
3183.56362 0.08130
3182.27785 0.08180
3180.99208 0.08220
3179.70631 0.08243
3178.42054 0.08248
3177.13477 0.08230
3175.84900 0.08189
3174.56323 0.08137
3173.27746 0.08094
3171.99170 0.08074
3170.70593 0.08072
3169.42016 0.08072
3168.13439 0.08061
3166.84862 0.08037
3165.56285 0.08007
3164.27708 0.07976
3162.99131 0.07949
3161.70555 0.07927
3160.41978 0.07904
3159.13401 0.07880
3157.84824 0.07862
3156.56247 0.07860
3155.27670 0.07873
3153.99093 0.07881
3152.70516 0.07866
3151.41939 0.07832
3150.13363 0.07807
3148.84786 0.07809
3147.56209 0.07822
3146.27632 0.07811
3144.99055 0.07762
3143.70478 0.07701
3142.41901 0.07670
3141.13324 0.07683
3139.84748 0.07717
3138.56171 0.07738
3137.27594 0.07735
3135.99017 0.07726
3134.70440 0.07735
3133.41863 0.07764
3132.13286 0.07789
3130.84709 0.07789
3129.56132 0.07770
3128.27556 0.07757
3126.98979 0.07767
3125.70402 0.07786
3124.41825 0.07787
3123.13248 0.07751
3121.84671 0.07686
3120.56094 0.07615
3119.27517 0.07558
3117.98940 0.07521
3116.70364 0.07500
3115.41787 0.07484
3114.13210 0.07469
3112.84633 0.07466
3111.56056 0.07487
3110.27479 0.07528
3108.98902 0.07564
3107.70325 0.07573
3106.41749 0.07556
3105.13172 0.07530
3103.84595 0.07510
3102.56018 0.07501
3101.27441 0.07498
3099.98864 0.07497
3098.70287 0.07499
3097.41710 0.07504
3096.13133 0.07508
3094.84557 0.07495
3093.55980 0.07459
3092.27403 0.07415
3090.98826 0.07389
3089.70249 0.07391
3088.41672 0.07411
3087.13095 0.07440
3085.84518 0.07480
3084.55942 0.07521
3083.27365 0.07539
3081.98788 0.07520
3080.70211 0.07471
3079.41634 0.07413
3078.13057 0.07360
3076.84480 0.07328
3075.55903 0.07333
3074.27326 0.07379
3072.98750 0.07446
3071.70173 0.07500
3070.41596 0.07520
3069.13019 0.07512
3067.84442 0.07488
3066.55865 0.07454
3065.27288 0.07410
3063.98711 0.07359
3062.70135 0.07311
3061.41558 0.07284
3060.12981 0.07286
3058.84404 0.07303
3057.55827 0.07312
3056.27250 0.07295
3054.98673 0.07261
3053.70096 0.07225
3052.41519 0.07197
3051.12943 0.07175
3049.84366 0.07157
3048.55789 0.07146
3047.27212 0.07145
3045.98635 0.07146
3044.70058 0.07146
3043.41481 0.07148
3042.12904 0.07163
3040.84328 0.07185
3039.55751 0.07193
3038.27174 0.07172
3036.98597 0.07133
3035.70020 0.07098
3034.41443 0.07081
3033.12866 0.07080
3031.84289 0.07084
3030.55712 0.07088
3029.27136 0.07088
3027.98559 0.07084
3026.69982 0.07075
3025.41405 0.07056
3024.12828 0.07027
3022.84251 0.07000
3021.55674 0.06989
3020.27097 0.07001
3018.98521 0.07025
3017.69944 0.07043
3016.41367 0.07042
3015.12790 0.07025
3013.84213 0.07008
3012.55636 0.06994
3011.27059 0.06974
3009.98482 0.06932
3008.69905 0.06868
3007.41329 0.06803
3006.12752 0.06769
3004.84175 0.06781
3003.55598 0.06828
3002.27021 0.06883
3000.98444 0.06912
2999.69867 0.06891
2998.41290 0.06819
2997.12714 0.06743
2995.84137 0.06702
2994.55560 0.06700
2993.26983 0.06715
2991.98406 0.06734
2990.69829 0.06759
2989.41252 0.06792
2988.12675 0.06817
2986.84098 0.06823
2985.55522 0.06821
2984.26945 0.06835
2982.98368 0.06868
2981.69791 0.06912
2980.41214 0.06963
2979.12637 0.07026
2977.84060 0.07100
2976.55483 0.07170
2975.26907 0.07220
2973.98330 0.07253
2972.69753 0.07289
2971.41176 0.07345
2970.12599 0.07417
2968.84022 0.07492
2967.55445 0.07578
2966.26868 0.07694
2964.98291 0.07849
2963.69715 0.08018
2962.41138 0.08169
2961.12561 0.08289
2959.83984 0.08389
2958.55407 0.08484
2957.26830 0.08578
2955.98253 0.08670
2954.69676 0.08748
2953.41100 0.08799
2952.12523 0.08806
2950.83946 0.08778
2949.55369 0.08742
2948.26792 0.08726
2946.98215 0.08740
2945.69638 0.08779
2944.41061 0.08824
2943.12484 0.08854
2941.83908 0.08854
2940.55331 0.08843
2939.26754 0.08855
2937.98177 0.08910
2936.69600 0.08993
2935.41023 0.09090
2934.12446 0.09203
2932.83869 0.09335
2931.55293 0.09471
2930.26716 0.09588
2928.98139 0.09680
2927.69562 0.09752
2926.40985 0.09806
2925.12408 0.09840
2923.83831 0.09857
2922.55254 0.09864
2921.26677 0.09862
2919.98101 0.09843
2918.69524 0.09803
2917.40947 0.09747
2916.12370 0.09676
2914.83793 0.09587
2913.55216 0.09487
2912.26639 0.09397
2910.98062 0.09338
2909.69486 0.09305
2908.40909 0.09270
2907.12332 0.09210
2905.83755 0.09132
2904.55178 0.09062
2903.26601 0.09004
2901.98024 0.08938
2900.69447 0.08861
2899.40870 0.08792
2898.12294 0.08748
2896.83717 0.08717
2895.55140 0.08680
2894.26563 0.08635
2892.97986 0.08595
2891.69409 0.08552
2890.40832 0.08490
2889.12255 0.08407
2887.83678 0.08328
2886.55102 0.08284
2885.26525 0.08274
2883.97948 0.08267
2882.69371 0.08235
2881.40794 0.08176
2880.12217 0.08114
2878.83640 0.08081
2877.55063 0.08093
2876.26487 0.08136
2874.97910 0.08181
2873.69333 0.08212
2872.40756 0.08238
2871.12179 0.08273
2869.83602 0.08304
2868.55025 0.08314
2867.26448 0.08300
2865.97871 0.08281
2864.69295 0.08278
2863.40718 0.08296
2862.12141 0.08322
2860.83564 0.08338
2859.54987 0.08336
2858.26410 0.08321
2856.97833 0.08302
2855.69256 0.08290
2854.40680 0.08291
2853.12103 0.08302
2851.83526 0.08304
2850.54949 0.08280
2849.26372 0.08223
2847.97795 0.08142
2846.69218 0.08051
2845.40641 0.07971
2844.12064 0.07913
2842.83488 0.07868
2841.54911 0.07815
2840.26334 0.07740
2838.97757 0.07648
2837.69180 0.07549
2836.40603 0.07449
2835.12026 0.07355
2833.83449 0.07279
2832.54873 0.07226
2831.26296 0.07184
2829.97719 0.07137
2828.69142 0.07081
2827.40565 0.07017
2826.11988 0.06947
2824.83411 0.06866
2823.54834 0.06783
2822.26257 0.06721
2820.97681 0.06694
2819.69104 0.06697
2818.40527 0.06711
2817.11950 0.06712
2815.83373 0.06688
2814.54796 0.06646
2813.26219 0.06598
2811.97642 0.06550
2810.69066 0.06502
2809.40489 0.06457
2808.11912 0.06426
2806.83335 0.06418
2805.54758 0.06432
2804.26181 0.06458
2802.97604 0.06481
2801.69027 0.06481
2800.40450 0.06448
2799.11874 0.06387
2797.83297 0.06319
2796.54720 0.06273
2795.26143 0.06266
2793.97566 0.06294
2792.68989 0.06324
2791.40412 0.06327
2790.11835 0.06294
2788.83259 0.06242
2787.54682 0.06193
2786.26105 0.06167
2784.97528 0.06165
2783.68951 0.06177
2782.40374 0.06191
2781.11797 0.06202
2779.83220 0.06207
2778.54643 0.06199
2777.26067 0.06180
2775.97490 0.06163
2774.68913 0.06153
2773.40336 0.06143
2772.11759 0.06121
2770.83182 0.06090
2769.54605 0.06066
2768.26028 0.06054
2766.97452 0.06045
2765.68875 0.06037
2764.40298 0.06038
2763.11721 0.06054
2761.83144 0.06073
2760.54567 0.06077
2759.25990 0.06059
2757.97413 0.06023
2756.68836 0.05980
2755.40260 0.05940
2754.11683 0.05909
2752.83106 0.05894
2751.54529 0.05902
2750.25952 0.05931
2748.97375 0.05965
2747.68798 0.05982
2746.40221 0.05973
2745.11645 0.05943
2743.83068 0.05911
2742.54491 0.05892
2741.25914 0.05891
2739.97337 0.05892
2738.68760 0.05881
2737.40183 0.05860
2736.11606 0.05841
2734.83029 0.05832
2733.54453 0.05831
2732.25876 0.05832
2730.97299 0.05832
2729.68722 0.05823
2728.40145 0.05803
2727.11568 0.05782
2725.82991 0.05771
2724.54414 0.05770
2723.25838 0.05770
2721.97261 0.05764
2720.68684 0.05758
2719.40107 0.05754
2718.11530 0.05752
2716.82953 0.05751
2715.54376 0.05750
2714.25799 0.05741
2712.97222 0.05715
2711.68646 0.05676
2710.40069 0.05641
2709.11492 0.05631
2707.82915 0.05647
2706.54338 0.05667
2705.25761 0.05670
2703.97184 0.05660
2702.68607 0.05657
2701.40031 0.05667
2700.11454 0.05672
2698.82877 0.05655
2697.54300 0.05618
2696.25723 0.05580
2694.97146 0.05555
2693.68569 0.05544
2692.39992 0.05536
2691.11415 0.05523
2689.82839 0.05508
2688.54262 0.05499
2687.25685 0.05502
2685.97108 0.05510
2684.68531 0.05515
2683.39954 0.05515
2682.11377 0.05508
2680.82800 0.05490
2679.54224 0.05465
2678.25647 0.05449
2676.97070 0.05456
2675.68493 0.05483
2674.39916 0.05514
2673.11339 0.05526
2671.82762 0.05507
2670.54185 0.05471
2669.25608 0.05444
2667.97032 0.05448
2666.68455 0.05478
2665.39878 0.05511
2664.11301 0.05528
2662.82724 0.05522
2661.54147 0.05495
2660.25570 0.05450
2658.96993 0.05390
2657.68417 0.05336
2656.39840 0.05310
2655.11263 0.05315
2653.82686 0.05329
2652.54109 0.05328
2651.25532 0.05312
2649.96955 0.05296
2648.68378 0.05284
2647.39801 0.05270
2646.11225 0.05249
2644.82648 0.05227
2643.54071 0.05217
2642.25494 0.05228
2640.96917 0.05251
2639.68340 0.05263
2638.39763 0.05239
2637.11186 0.05181
2635.82609 0.05111
2634.54033 0.05064
2633.25456 0.05052
2631.96879 0.05067
2630.68302 0.05085
2629.39725 0.05086
2628.11148 0.05059
2626.82571 0.05012
2625.53994 0.04967
2624.25418 0.04942
2622.96841 0.04932
2621.68264 0.04926
2620.39687 0.04916
2619.11110 0.04901
2617.82533 0.04875
2616.53956 0.04837
2615.25379 0.04801
2613.96802 0.04781
2612.68226 0.04777
2611.39649 0.04783
2610.11072 0.04800
2608.82495 0.04826
2607.53918 0.04847
2606.25341 0.04845
2604.96764 0.04807
2603.68187 0.04745
2602.39611 0.04683
2601.11034 0.04651
2599.82457 0.04656
2598.53880 0.04673
2597.25303 0.04673
2595.96726 0.04651
2594.68149 0.04624
2593.39572 0.04615
2592.10995 0.04627
2590.82419 0.04642
2589.53842 0.04642
2588.25265 0.04623
2586.96688 0.04595
2585.68111 0.04571
2584.39534 0.04552
2583.10957 0.04539
2581.82380 0.04540
2580.53804 0.04563
2579.25227 0.04596
2577.96650 0.04615
2576.68073 0.04607
2575.39496 0.04577
2574.10919 0.04539
2572.82342 0.04512
2571.53765 0.04509
2570.25188 0.04517
2568.96612 0.04511
2567.68035 0.04480
2566.39458 0.04442
2565.10881 0.04418
2563.82304 0.04405
2562.53727 0.04395
2561.25150 0.04388
2559.96573 0.04383
2558.67997 0.04363
2557.39420 0.04327
2556.10843 0.04301
2554.82266 0.04319
2553.53689 0.04367
2552.25112 0.04400
2550.96535 0.04385
2549.67958 0.04340
2548.39381 0.04309
2547.10805 0.04314
2545.82228 0.04338
2544.53651 0.04356
2543.25074 0.04354
2541.96497 0.04336
2540.67920 0.04316
2539.39343 0.04301
2538.10766 0.04292
2536.82190 0.04287
2535.53613 0.04283
2534.25036 0.04285
2532.96459 0.04297
2531.67882 0.04318
2530.39305 0.04342
2529.10728 0.04356
2527.82151 0.04349
2526.53574 0.04325
2525.24998 0.04304
2523.96421 0.04300
2522.67844 0.04303
2521.39267 0.04293
2520.10690 0.04261
2518.82113 0.04212
2517.53536 0.04158
2516.24959 0.04110
2514.96383 0.04081
2513.67806 0.04074
2512.39229 0.04084
2511.10652 0.04097
2509.82075 0.04110
2508.53498 0.04127
2507.24921 0.04157
2505.96344 0.04203
2504.67767 0.04248
2503.39191 0.04263
2502.10614 0.04226
2500.82037 0.04150
2499.53460 0.04081
2498.24883 0.04062
2496.96306 0.04097
2495.67729 0.04148
2494.39152 0.04176
2493.10576 0.04170
2491.81999 0.04148
2490.53422 0.04142
2489.24845 0.04174
2487.96268 0.04235
2486.67691 0.04289
2485.39114 0.04307
2484.10537 0.04292
2482.81960 0.04259
2481.53384 0.04213
2480.24807 0.04144
2478.96230 0.04059
2477.67653 0.03988
2476.39076 0.03963
2475.10499 0.03980
2473.81922 0.04009
2472.53345 0.04023
2471.24769 0.04025
2469.96192 0.04028
2468.67615 0.04036
2467.39038 0.04037
2466.10461 0.04016
2464.81884 0.03972
2463.53307 0.03928
2462.24730 0.03911
2460.96153 0.03941
2459.67577 0.04006
2458.39000 0.04073
2457.10423 0.04111
2455.81846 0.04120
2454.53269 0.04125
2453.24692 0.04139
2451.96115 0.04148
2450.67538 0.04137
2449.38962 0.04116
2448.10385 0.04100
2446.81808 0.04085
2445.53231 0.04052
2444.24654 0.04000
2442.96077 0.03952
2441.67500 0.03936
2440.38923 0.03957
2439.10346 0.03985
2437.81770 0.03986
2436.53193 0.03957
2435.24616 0.03939
2433.96039 0.03964
2432.67462 0.04028
2431.38885 0.04082
2430.10308 0.04083
2428.81731 0.04031
2427.53155 0.03963
2426.24578 0.03910
2424.96001 0.03874
2423.67424 0.03843
2422.38847 0.03818
2421.10270 0.03817
2419.81693 0.03853
2418.53116 0.03911
2417.24539 0.03953
2415.95963 0.03948
2414.67386 0.03899
2413.38809 0.03841
2412.10232 0.03801
2410.81655 0.03777
2409.53078 0.03757
2408.24501 0.03748
2406.95924 0.03762
2405.67347 0.03797
2404.38771 0.03828
2403.10194 0.03841
2401.81617 0.03841
2400.53040 0.03839
2399.24463 0.03837
2397.95886 0.03831
2396.67309 0.03820
2395.38732 0.03809
2394.10156 0.03811
2392.81579 0.03833
2391.53002 0.03869
2390.24425 0.03897
2388.95848 0.03897
2387.67271 0.03874
2386.38694 0.03857
2385.10117 0.03873
2383.81540 0.03918
2382.52964 0.03966
2381.24387 0.03986
2379.95810 0.03976
2378.67233 0.03950
2377.38656 0.03927
2376.10079 0.03920
2374.81502 0.03924
2373.52925 0.03939
2372.24349 0.03958
2370.95772 0.03965
2369.67195 0.03944
2368.38618 0.03914
2367.10041 0.03908
2365.81464 0.03940
2364.52887 0.03985
2363.24310 0.04022
2361.95733 0.04044
2360.67157 0.04058
2359.38580 0.04035
2358.10003 0.03978
2356.81426 0.03920
2355.52849 0.03892
2354.24272 0.03891
2352.95695 0.03903
2351.67118 0.03930
2350.38542 0.03949
2349.09965 0.03942
2347.81388 0.03935
2346.52811 0.03986
2345.24234 0.04045
2343.95657 0.04009
2342.67080 0.03908
2341.38503 0.03904
2340.09926 0.03997
2338.81350 0.03980
2337.52773 0.03855
2336.24196 0.03885
2334.95619 0.04029
2333.67042 0.04006
2332.38465 0.03879
2331.09888 0.03915
2329.81311 0.03958
2328.52735 0.03857
2327.24158 0.03896
2325.95581 0.04027
2324.67004 0.04017
2323.38427 0.04011
2322.09850 0.04051
2320.81273 0.03975
2319.52696 0.03931
2318.24119 0.03932
2316.95543 0.03877
2315.66966 0.03857
2314.38389 0.03855
2313.09812 0.03819
2311.81235 0.03813
2310.52658 0.03803
2309.24081 0.03794
2307.95504 0.03805
2306.66928 0.03800
2305.38351 0.03780
2304.09774 0.03720
2302.81197 0.03627
2301.52620 0.03556
2300.24043 0.03531
2298.95466 0.03553
2297.66889 0.03580
2296.38312 0.03577
2295.09736 0.03541
2293.81159 0.03488
2292.52582 0.03443
2291.24005 0.03419
2289.95428 0.03421
2288.66851 0.03434
2287.38274 0.03437
2286.09697 0.03419
2284.81121 0.03387
2283.52544 0.03365
2282.23967 0.03375
2280.95390 0.03409
2279.66813 0.03432
2278.38236 0.03410
2277.09659 0.03343
2275.81082 0.03263
2274.52505 0.03197
2273.23929 0.03151
2271.95352 0.03121
2270.66775 0.03097
2269.38198 0.03078
2268.09621 0.03065
2266.81044 0.03064
2265.52467 0.03068
2264.23890 0.03055
2262.95314 0.03021
2261.66737 0.02990
2260.38160 0.02995
2259.09583 0.03042
2257.81006 0.03102
2256.52429 0.03127
2255.23852 0.03089
2253.95275 0.03003
2252.66698 0.02908
2251.38122 0.02828
2250.09545 0.02765
2248.80968 0.02712
2247.52391 0.02669
2246.23814 0.02655
2244.95237 0.02672
2243.66660 0.02708
2242.38083 0.02753
2241.09507 0.02799
2239.80930 0.02838
2238.52353 0.02850
2237.23776 0.02813
2235.95199 0.02728
2234.66622 0.02639
2233.38045 0.02600
2232.09468 0.02618
2230.80891 0.02644
2229.52315 0.02633
2228.23738 0.02581
2226.95161 0.02517
2225.66584 0.02463
2224.38007 0.02422
2223.09430 0.02394
2221.80853 0.02386
2220.52276 0.02395
2219.23700 0.02401
2217.95123 0.02370
2216.66546 0.02289
2215.37969 0.02186
2214.09392 0.02111
2212.80815 0.02100
2211.52238 0.02144
2210.23661 0.02218
2208.95084 0.02319
2207.66508 0.02449
2206.37931 0.02578
2205.09354 0.02638
2203.80777 0.02598
2202.52200 0.02503
2201.23623 0.02424
2199.95046 0.02395
2198.66469 0.02395
2197.37893 0.02391
2196.09316 0.02352
2194.80739 0.02258
2193.52162 0.02105
2192.23585 0.01933
2190.95008 0.01819
2189.66431 0.01830
2188.37854 0.01960
2187.09277 0.02127
2185.80701 0.02224
2184.52124 0.02181
2183.23547 0.02008
2181.94970 0.01786
2180.66393 0.01636
2179.37816 0.01640
2178.09239 0.01774
2176.80662 0.01934
2175.52085 0.02029
2174.23509 0.02060
2172.94932 0.02077
2171.66355 0.02085
2170.37778 0.02042
2169.09201 0.01938
2167.80624 0.01826
2166.52047 0.01745
2165.23470 0.01679
2163.94894 0.01603
2162.66317 0.01530
2161.37740 0.01487
2160.09163 0.01488
2158.80586 0.01541
2157.52009 0.01643
2156.23432 0.01735
2154.94855 0.01743
2153.66278 0.01674
2152.37702 0.01617
2151.09125 0.01642
2149.80548 0.01733
2148.51971 0.01829
2147.23394 0.01890
2145.94817 0.01909
2144.66240 0.01902
2143.37663 0.01894
2142.09087 0.01907
2140.80510 0.01938
2139.51933 0.01964
2138.23356 0.01967
2136.94779 0.01956
2135.66202 0.01957
2134.37625 0.01984
2133.09048 0.02026
2131.80471 0.02069
2130.51895 0.02113
2129.23318 0.02158
2127.94741 0.02199
2126.66164 0.02228
2125.37587 0.02244
2124.09010 0.02255
2122.80433 0.02269
2121.51856 0.02295
2120.23280 0.02332
2118.94703 0.02375
2117.66126 0.02423
2116.37549 0.02472
2115.08972 0.02510
2113.80395 0.02514
2112.51818 0.02480
2111.23241 0.02428
2109.94664 0.02378
2108.66088 0.02330
2107.37511 0.02280
2106.08934 0.02240
2104.80357 0.02220
2103.51780 0.02206
2102.23203 0.02181
2100.94626 0.02165
2099.66049 0.02332
2098.37473 0.02462
2097.08896 0.02526
2095.80319 0.02541
2094.51742 0.02505
2093.23165 0.02443
2091.94588 0.02396
2090.66011 0.02384
2089.37434 0.02394
2088.08857 0.02392
2086.80281 0.02359
2085.51704 0.02310
2084.23127 0.02277
2082.94550 0.02276
2081.65973 0.02291
2080.37396 0.02286
2079.08819 0.02242
2077.80242 0.02177
2076.51666 0.02129
2075.23089 0.02116
2073.94512 0.02121
2072.65935 0.02121
2071.37358 0.02113
2070.08781 0.02112
2068.80204 0.02118
2067.51627 0.02108
2066.23050 0.02064
2064.94474 0.02001
2063.65897 0.01950
2062.37320 0.01921
2061.08743 0.01889
2059.80166 0.01834
2058.51589 0.01766
2057.23012 0.01716
2055.94435 0.01708
2054.65859 0.01749
2053.37282 0.01830
2052.08705 0.01926
2050.80128 0.01999
2049.51551 0.02020
2048.22974 0.01986
2046.94397 0.01917
2045.65820 0.01833
2044.37243 0.01749
2043.08667 0.01681
2041.80090 0.01642
2040.51513 0.01629
2039.22936 0.01636
2037.94359 0.01663
2036.65782 0.01708
2035.37205 0.01748
2034.08628 0.01746
2032.80052 0.01692
2031.51475 0.01618
2030.22898 0.01570
2028.94321 0.01565
2027.65744 0.01588
2026.37167 0.01620
2025.08590 0.01660
2023.80013 0.01700
2022.51436 0.01707
2021.22860 0.01637
2019.94283 0.01493
2018.65706 0.01332
2017.37129 0.01215
2016.08552 0.01175
2014.79975 0.01214
2013.51398 0.01325
2012.22821 0.01488
2010.94245 0.01658
2009.65668 0.01775
2008.37091 0.01789
2007.08514 0.01698
2005.79937 0.01557
2004.51360 0.01454
2003.22783 0.01437
2001.94206 0.01487
2000.65629 0.01540
1999.37053 0.01552
1998.08476 0.01522
1996.79899 0.01488
1995.51322 0.01483
1994.22745 0.01507
1992.94168 0.01541
1991.65591 0.01572
1990.37014 0.01600
1989.08438 0.01614
1987.79861 0.01599
1986.51284 0.01562
1985.22707 0.01544
1983.94130 0.01580
1982.65553 0.01673
1981.36976 0.01795
1980.08399 0.01913
1978.79822 0.02002
1977.51246 0.02033
1976.22669 0.01989
1974.94092 0.01886
1973.65515 0.01775
1972.36938 0.01720
1971.08361 0.01749
1969.79784 0.01841
1968.51207 0.01940
1967.22631 0.01999
1965.94054 0.02002
1964.65477 0.01959
1963.36900 0.01896
1962.08323 0.01840
1960.79746 0.01815
1959.51169 0.01830
1958.22592 0.01864
1956.94015 0.01881
1955.65439 0.01870
1954.36862 0.01855
1953.08285 0.01878
1951.79708 0.01944
1950.51131 0.02016
1949.22554 0.02055
1947.93977 0.02066
1946.65400 0.02086
1945.36823 0.02138
1944.08247 0.02211
1942.79670 0.02271
1941.51093 0.02287
1940.22516 0.02254
1938.93939 0.02203
1937.65362 0.02172
1936.36785 0.02172
1935.08208 0.02182
1933.79632 0.02189
1932.51055 0.02200
1931.22478 0.02230
1929.93901 0.02276
1928.65324 0.02316
1927.36747 0.02332
1926.08170 0.02319
1924.79593 0.02287
1923.51016 0.02255
1922.22440 0.02235
1920.93863 0.02223
1919.65286 0.02208
1918.36709 0.02196
1917.08132 0.02203
1915.79555 0.02236
1914.50978 0.02276
1913.22401 0.02296
1911.93825 0.02285
1910.65248 0.02257
1909.36671 0.02233
1908.08094 0.02227
1906.79517 0.02233
1905.50940 0.02238
1904.22363 0.02241
1902.93786 0.02244
1901.65209 0.02248
1900.36633 0.02248
1899.08056 0.02239
1897.79479 0.02226
1896.50902 0.02218
1895.22325 0.02227
1893.93748 0.02262
1892.65171 0.02316
1891.36594 0.02361
1890.08018 0.02374
1888.79441 0.02351
1887.50864 0.02312
1886.22287 0.02284
1884.93710 0.02280
1883.65133 0.02299
1882.36556 0.02326
1881.07979 0.02350
1879.79402 0.02365
1878.50826 0.02367
1877.22249 0.02355
1875.93672 0.02332
1874.65095 0.02312
1873.36518 0.02306
1872.07941 0.02314
1870.79364 0.02325
1869.50787 0.02332
1868.22211 0.02332
1866.93634 0.02328
1865.65057 0.02320
1864.36480 0.02309
1863.07903 0.02299
1861.79326 0.02298
1860.50749 0.02310
1859.22172 0.02331
1857.93595 0.02350
1856.65019 0.02364
1855.36442 0.02373
1854.07865 0.02375
1852.79288 0.02368
1851.50711 0.02357
1850.22134 0.02351
1848.93557 0.02354
1847.64980 0.02361
1846.36404 0.02358
1845.07827 0.02343
1843.79250 0.02329
1842.50673 0.02326
1841.22096 0.02326
1839.93519 0.02318
1838.64942 0.02301
1837.36365 0.02281
1836.07788 0.02271
1834.79212 0.02283
1833.50635 0.02316
1832.22058 0.02351
1830.93481 0.02375
1829.64904 0.02390
1828.36327 0.02401
1827.07750 0.02408
1825.79173 0.02413
1824.50597 0.02429
1823.22020 0.02455
1821.93443 0.02477
1820.64866 0.02484
1819.36289 0.02474
1818.07712 0.02449
1816.79135 0.02416
1815.50558 0.02385
1814.21981 0.02360
1812.93405 0.02341
1811.64828 0.02328
1810.36251 0.02323
1809.07674 0.02326
1807.79097 0.02331
1806.50520 0.02337
1805.21943 0.02340
1803.93366 0.02339
1802.64790 0.02336
1801.36213 0.02336
1800.07636 0.02343
1798.79059 0.02349
1797.50482 0.02350
1796.21905 0.02349
1794.93328 0.02354
1793.64751 0.02366
1792.36174 0.02389
1791.07598 0.02416
1789.79021 0.02432
1788.50444 0.02432
1787.21867 0.02425
1785.93290 0.02421
1784.64713 0.02424
1783.36136 0.02429
1782.07559 0.02429
1780.78983 0.02419
1779.50406 0.02405
1778.21829 0.02390
1776.93252 0.02382
1775.64675 0.02383
1774.36098 0.02387
1773.07521 0.02393
1771.78944 0.02406
1770.50367 0.02418
1769.21791 0.02419
1767.93214 0.02415
1766.64637 0.02420
1765.36060 0.02425
1764.07483 0.02418
1762.78906 0.02409
1761.50329 0.02412
1760.21752 0.02426
1758.93176 0.02431
1757.64599 0.02421
1756.36022 0.02417
1755.07445 0.02429
1753.78868 0.02444
1752.50291 0.02450
1751.21714 0.02449
1749.93137 0.02450
1748.64560 0.02447
1747.35984 0.02440
1746.07407 0.02432
1744.78830 0.02427
1743.50253 0.02424
1742.21676 0.02421
1740.93099 0.02415
1739.64522 0.02421
1738.35945 0.02449
1737.07369 0.02482
1735.78792 0.02492
1734.50215 0.02485
1733.21638 0.02482
1731.93061 0.02484
1730.64484 0.02474
1729.35907 0.02459
1728.07330 0.02453
1726.78753 0.02455
1725.50177 0.02456
1724.21600 0.02459
1722.93023 0.02480
1721.64446 0.02522
1720.35869 0.02566
1719.07292 0.02599
1717.78715 0.02629
1716.50138 0.02666
1715.21561 0.02698
1713.92985 0.02718
1712.64408 0.02734
1711.35831 0.02763
1710.07254 0.02807
1708.78677 0.02857
1707.50100 0.02904
1706.21523 0.02954
1704.92946 0.03027
1703.64370 0.03120
1702.35793 0.03204
1701.07216 0.03277
1699.78639 0.03366
1698.50062 0.03457
1697.21485 0.03507
1695.92908 0.03529
1694.64331 0.03567
1693.35754 0.03619
1692.07178 0.03655
1690.78601 0.03688
1689.50024 0.03749
1688.21447 0.03840
1686.92870 0.03929
1685.64293 0.03996
1684.35716 0.04059
1683.07139 0.04132
1681.78563 0.04197
1680.49986 0.04252
1679.21409 0.04317
1677.92832 0.04396
1676.64255 0.04471
1675.35678 0.04544
1674.07101 0.04628
1672.78524 0.04713
1671.49947 0.04784
1670.21371 0.04844
1668.92794 0.04906
1667.64217 0.04978
1666.35640 0.05051
1665.07063 0.05116
1663.78486 0.05171
1662.49909 0.05225
1661.21332 0.05278
1659.92756 0.05331
1658.64179 0.05397
1657.35602 0.05484
1656.07025 0.05575
1654.78448 0.05636
1653.49871 0.05673
1652.21294 0.05721
1650.92717 0.05768
1649.64140 0.05777
1648.35564 0.05749
1647.06987 0.05723
1645.78410 0.05722
1644.49833 0.05736
1643.21256 0.05741
1641.92679 0.05736
1640.64102 0.05737
1639.35525 0.05748
1638.06949 0.05755
1636.78372 0.05747
1635.49795 0.05730
1634.21218 0.05712
1632.92641 0.05683
1631.64064 0.05634
1630.35487 0.05580
1629.06910 0.05537
1627.78333 0.05507
1626.49757 0.05480
1625.21180 0.05439
1623.92603 0.05383
1622.64026 0.05328
1621.35449 0.05286
1620.06872 0.05252
1618.78295 0.05211
1617.49718 0.05165
1616.21142 0.05129
1614.92565 0.05101
1613.63988 0.05066
1612.35411 0.05026
1611.06834 0.04992
1609.78257 0.04967
1608.49680 0.04943
1607.21103 0.04920
1605.92526 0.04902
1604.63950 0.04891
1603.35373 0.04885
1602.06796 0.04882
1600.78219 0.04882
1599.49642 0.04884
1598.21065 0.04888
1596.92488 0.04893
1595.63911 0.04897
1594.35335 0.04904
1593.06758 0.04913
1591.78181 0.04923
1590.49604 0.04930
1589.21027 0.04933
1587.92450 0.04931
1586.63873 0.04929
1585.35296 0.04933
1584.06719 0.04946
1582.78143 0.04972
1581.49566 0.05013
1580.20989 0.05069
1578.92412 0.05118
1577.63835 0.05143
1576.35258 0.05157
1575.06681 0.05185
1573.78104 0.05221
1572.49528 0.05246
1571.20951 0.05264
1569.92374 0.05292
1568.63797 0.05333
1567.35220 0.05370
1566.06643 0.05395
1564.78066 0.05424
1563.49489 0.05476
1562.20912 0.05536
1560.92336 0.05584
1559.63759 0.05625
1558.35182 0.05672
1557.06605 0.05709
1555.78028 0.05709
1554.49451 0.05688
1553.20874 0.05679
1551.92297 0.05686
1550.63721 0.05692
1549.35144 0.05694
1548.06567 0.05692
1546.77990 0.05688
1545.49413 0.05687
1544.20836 0.05699
1542.92259 0.05717
1541.63682 0.05716
1540.35105 0.05692
1539.06529 0.05661
1537.77952 0.05637
1536.49375 0.05606
1535.20798 0.05558
1533.92221 0.05514
1532.63644 0.05495
1531.35067 0.05494
1530.06490 0.05500
1528.77914 0.05505
1527.49337 0.05516
1526.20760 0.05538
1524.92183 0.05572
1523.63606 0.05601
1522.35029 0.05620
1521.06452 0.05644
1519.77875 0.05683
1518.49298 0.05722
1517.20722 0.05754
1515.92145 0.05789
1514.63568 0.05832
1513.34991 0.05881
1512.06414 0.05944
1510.77837 0.06029
1509.49260 0.06117
1508.20683 0.06185
1506.92107 0.06235
1505.63530 0.06286
1504.34953 0.06340
1503.06376 0.06385
1501.77799 0.06426
1500.49222 0.06478
1499.20645 0.06535
1497.92068 0.06579
1496.63491 0.06604
1495.34915 0.06626
1494.06338 0.06650
1492.77761 0.06672
1491.49184 0.06693
1490.20607 0.06726
1488.92030 0.06770
1487.63453 0.06819
1486.34876 0.06871
1485.06299 0.06926
1483.77723 0.06985
1482.49146 0.07051
1481.20569 0.07129
1479.91992 0.07219
1478.63415 0.07318
1477.34838 0.07421
1476.06261 0.07520
1474.77684 0.07606
1473.49108 0.07678
1472.20531 0.07751
1470.91954 0.07833
1469.63377 0.07922
1468.34800 0.08009
1467.06223 0.08089
1465.77646 0.08162
1464.49069 0.08232
1463.20492 0.08302
1461.91916 0.08378
1460.63339 0.08462
1459.34762 0.08549
1458.06185 0.08627
1456.77608 0.08699
1455.49031 0.08768
1454.20454 0.08820
1452.91877 0.08851
1451.63301 0.08876
1450.34724 0.08899
1449.06147 0.08915
1447.77570 0.08918
1446.48993 0.08911
1445.20416 0.08895
1443.91839 0.08872
1442.63262 0.08847
1441.34685 0.08825
1440.06109 0.08806
1438.77532 0.08779
1437.48955 0.08751
1436.20378 0.08735
1434.91801 0.08737
1433.63224 0.08744
1432.34647 0.08756
1431.06070 0.08782
1429.77494 0.08828
1428.48917 0.08892
1427.20340 0.08964
1425.91763 0.09039
1424.63186 0.09122
1423.34609 0.09217
1422.06032 0.09310
1420.77455 0.09387
1419.48878 0.09454
1418.20302 0.09522
1416.91725 0.09590
1415.63148 0.09646
1414.34571 0.09692
1413.05994 0.09728
1411.77417 0.09750
1410.48840 0.09756
1409.20263 0.09745
1407.91687 0.09719
1406.63110 0.09675
1405.34533 0.09614
1404.05956 0.09540
1402.77379 0.09455
1401.48802 0.09358
1400.20225 0.09250
1398.91648 0.09137
1397.63071 0.09018
1396.34495 0.08888
1395.05918 0.08748
1393.77341 0.08606
1392.48764 0.08469
1391.20187 0.08336
1389.91610 0.08208
1388.63033 0.08083
1387.34456 0.07966
1386.05880 0.07856
1384.77303 0.07748
1383.48726 0.07636
1382.20149 0.07524
1380.91572 0.07416
1379.62995 0.07314
1378.34418 0.07213
1377.05841 0.07104
1375.77264 0.06978
1374.48688 0.06832
1373.20111 0.06675
1371.91534 0.06515
1370.62957 0.06357
1369.34380 0.06207
1368.05803 0.06067
1366.77226 0.05936
1365.48649 0.05807
1364.20073 0.05675
1362.91496 0.05544
1361.62919 0.05420
1360.34342 0.05308
1359.05765 0.05208
1357.77188 0.05116
1356.48611 0.05030
1355.20034 0.04951
1353.91457 0.04881
1352.62881 0.04820
1351.34304 0.04765
1350.05727 0.04716
1348.77150 0.04668
1347.48573 0.04621
1346.19996 0.04571
1344.91419 0.04518
1343.62842 0.04468
1342.34266 0.04423
1341.05689 0.04386
1339.77112 0.04354
1338.48535 0.04323
1337.19958 0.04290
1335.91381 0.04254
1334.62804 0.04217
1333.34227 0.04176
1332.05650 0.04132
1330.77074 0.04086
1329.48497 0.04041
1328.19920 0.04002
1326.91343 0.03970
1325.62766 0.03946
1324.34189 0.03927
1323.05612 0.03906
1321.77035 0.03878
1320.48459 0.03842
1319.19882 0.03804
1317.91305 0.03768
1316.62728 0.03737
1315.34151 0.03710
1314.05574 0.03684
1312.76997 0.03661
1311.48420 0.03638
1310.19843 0.03617
1308.91267 0.03597
1307.62690 0.03575
1306.34113 0.03552
1305.05536 0.03526
1303.76959 0.03503
1302.48382 0.03485
1301.19805 0.03471
1299.91228 0.03458
1298.62652 0.03440
1297.34075 0.03419
1296.05498 0.03397
1294.76921 0.03378
1293.48344 0.03361
1292.19767 0.03346
1290.91190 0.03328
1289.62613 0.03308
1288.34036 0.03286
1287.05460 0.03268
1285.76883 0.03254
1284.48306 0.03244
1283.19729 0.03236
1281.91152 0.03226
1280.62575 0.03213
1279.33998 0.03198
1278.05421 0.03184
1276.76845 0.03171
1275.48268 0.03157
1274.19691 0.03141
1272.91114 0.03126
1271.62537 0.03115
1270.33960 0.03105
1269.05383 0.03092
1267.76806 0.03075
1266.48229 0.03059
1265.19653 0.03051
1263.91076 0.03051
1262.62499 0.03053
1261.33922 0.03050
1260.05345 0.03042
1258.76768 0.03031
1257.48191 0.03020
1256.19614 0.03010
1254.91037 0.03004
1253.62461 0.03004
1252.33884 0.03009
1251.05307 0.03014
1249.76730 0.03015
1248.48153 0.03013
1247.19576 0.03008
1245.90999 0.03002
1244.62422 0.02996
1243.33846 0.02991
1242.05269 0.02987
1240.76692 0.02985
1239.48115 0.02982
1238.19538 0.02975
1236.90961 0.02962
1235.62384 0.02947
1234.33807 0.02933
1233.05230 0.02922
1231.76654 0.02911
1230.48077 0.02895
1229.19500 0.02870
1227.90923 0.02843
1226.62346 0.02821
1225.33769 0.02809
1224.05192 0.02808
1222.76615 0.02809
1221.48039 0.02806
1220.19462 0.02796
1218.90885 0.02780
1217.62308 0.02761
1216.33731 0.02741
1215.05154 0.02721
1213.76577 0.02703
1212.48000 0.02690
1211.19423 0.02684
1209.90847 0.02682
1208.62270 0.02681
1207.33693 0.02680
1206.05116 0.02678
1204.76539 0.02677
1203.47962 0.02677
1202.19385 0.02677
1200.90808 0.02667
1199.62232 0.02644
1198.33655 0.02643
1197.05078 0.02644
1195.76501 0.02642
1194.47924 0.02635
1193.19347 0.02625
1191.90770 0.02613
1190.62193 0.02602
1189.33616 0.02592
1188.05040 0.02582
1186.76463 0.02571
1185.47886 0.02560
1184.19309 0.02552
1182.90732 0.02549
1181.62155 0.02546
1180.33578 0.02541
1179.05001 0.02536
1177.76425 0.02536
1176.47848 0.02541
1175.19271 0.02551
1173.90694 0.02560
1172.62117 0.02569
1171.33540 0.02581
1170.04963 0.02598
1168.76386 0.02620
1167.47809 0.02646
1166.19233 0.02676
1164.90656 0.02703
1163.62079 0.02720
1162.33502 0.02725
1161.04925 0.02722
1159.76348 0.02720
1158.47771 0.02725
1157.19194 0.02739
1155.90618 0.02755
1154.62041 0.02768
1153.33464 0.02777
1152.04887 0.02789
1150.76310 0.02807
1149.47733 0.02833
1148.19156 0.02870
1146.90579 0.02916
1145.62002 0.02967
1144.33426 0.03021
1143.04849 0.03074
1141.76272 0.03130
1140.47695 0.03188
1139.19118 0.03251
1137.90541 0.03325
1136.61964 0.03410
1135.33387 0.03506
1134.04811 0.03618
1132.76234 0.03756
1131.47657 0.03924
1130.19080 0.04117
1128.90503 0.04322
1127.61926 0.04533
1126.33349 0.04754
1125.04772 0.04992
1123.76195 0.05247
1122.47619 0.05511
1121.19042 0.05774
1119.90465 0.06037
1118.61888 0.06302
1117.33311 0.06573
1116.04734 0.06846
1114.76157 0.07114
1113.47580 0.07367
1112.19004 0.07602
1110.90427 0.07828
1109.61850 0.08051
1108.33273 0.08272
1107.04696 0.08484
1105.76119 0.08681
1104.47542 0.08866
1103.18965 0.09046
1101.90388 0.09223
1100.61812 0.09399
1099.33235 0.09572
1098.04658 0.09740
1096.76081 0.09897
1095.47504 0.10039
1094.18927 0.10166
1092.90350 0.10277
1091.61773 0.10376
1090.33197 0.10472
1089.04620 0.10570
1087.76043 0.10676
1086.47466 0.10787
1085.18889 0.10903
1083.90312 0.11020
1082.61735 0.11135
1081.33158 0.11250
1080.04581 0.11371
1078.76005 0.11508
1077.47428 0.11666
1076.18851 0.11840
1074.90274 0.12021
1073.61697 0.12202
1072.33120 0.12382
1071.04543 0.12565
1069.75966 0.12756
1068.47390 0.12953
1067.18813 0.13157
1065.90236 0.13369
1064.61659 0.13591
1063.33082 0.13824
1062.04505 0.14067
1060.75928 0.14316
1059.47351 0.14566
1058.18774 0.14809
1056.90198 0.15045
1055.61621 0.15279
1054.33044 0.15513
1053.04467 0.15746
1051.75890 0.15974
1050.47313 0.16205
1049.18736 0.16447
1047.90159 0.16703
1046.61583 0.16967
1045.33006 0.17234
1044.04429 0.17501
1042.75852 0.17774
1041.47275 0.18060
1040.18698 0.18360
1038.90121 0.18670
1037.61544 0.18981
1036.32967 0.19288
1035.04391 0.19588
1033.75814 0.19878
1032.47237 0.20151
1031.18660 0.20404
1029.90083 0.20636
1028.61506 0.20850
1027.32929 0.21045
1026.04352 0.21223
1024.75775 0.21381
1023.47199 0.21521
1022.18622 0.21637
1020.90045 0.21723
1019.61468 0.21774
1018.32891 0.21794
1017.04314 0.21793
1015.75737 0.21774
1014.47160 0.21732
1013.18584 0.21657
1011.90007 0.21547
1010.61430 0.21400
1009.32853 0.21222
1008.04276 0.21016
1006.75699 0.20778
1005.47122 0.20508
1004.18545 0.20206
1002.89968 0.19878
1001.61392 0.19533
1000.32815 0.19173
999.04238 0.18796
997.75661 0.18398
996.47084 0.17981
995.18507 0.17548
993.89930 0.17105
992.61353 0.16658
991.32777 0.16217
990.04200 0.15788
988.75623 0.15372
987.47046 0.14966
986.18469 0.14570
984.89892 0.14187
983.61315 0.13813
982.32738 0.13447
981.04161 0.13095
979.75585 0.12768
978.47008 0.12467
977.18431 0.12187
975.89854 0.11920
974.61277 0.11668
973.32700 0.11439
972.04123 0.11244
970.75546 0.11087
969.46970 0.10966
968.18393 0.10878
966.89816 0.10824
965.61239 0.10808
964.32662 0.10827
963.04085 0.10862
961.75508 0.10892
960.46931 0.10894
959.18354 0.10852
957.89778 0.10760
956.61201 0.10625
955.32624 0.10459
954.04047 0.10277
952.75470 0.10087
951.46893 0.09897
950.18316 0.09712
948.89739 0.09535
947.61163 0.09362
946.32586 0.09190
945.04009 0.09019
943.75432 0.08852
942.46855 0.08691
941.18278 0.08536
939.89701 0.08386
938.61124 0.08239
937.32547 0.08097
936.03971 0.07959
934.75394 0.07830
933.46817 0.07714
932.18240 0.07609
930.89663 0.07510
929.61086 0.07410
928.32509 0.07305
927.03932 0.07197
925.75356 0.07094
924.46779 0.07003
923.18202 0.06927
921.89625 0.06861
920.61048 0.06799
919.32471 0.06732
918.03894 0.06658
916.75317 0.06580
915.46740 0.06509
914.18164 0.06444
912.89587 0.06380
911.61010 0.06308
910.32433 0.06230
909.03856 0.06151
907.75279 0.06080
906.46702 0.06021
905.18125 0.05974
903.89549 0.05935
902.60972 0.05892
901.32395 0.05838
900.03818 0.05777
898.75241 0.05716
897.46664 0.05667
896.18087 0.05630
894.89510 0.05601
893.60933 0.05573
892.32357 0.05538
891.03780 0.05499
889.75203 0.05467
888.46626 0.05456
887.18049 0.05470
885.89472 0.05515
884.60895 0.05598
883.32318 0.05732
882.03742 0.05918
880.75165 0.06131
879.46588 0.06327
878.18011 0.06473
876.89434 0.06575
875.60857 0.06672
874.32280 0.06788
873.03703 0.06905
871.75126 0.06980
870.46550 0.06986
869.17973 0.06922
867.89396 0.06807
866.60819 0.06655
865.32242 0.06482
864.03665 0.06304
862.75088 0.06131
861.46511 0.05968
860.17935 0.05816
858.89358 0.05677
857.60781 0.05551
856.32204 0.05441
855.03627 0.05347
853.75050 0.05269
852.46473 0.05200
851.17896 0.05134
849.89319 0.05068
848.60743 0.05012
847.32166 0.04969
846.03589 0.04937
844.75012 0.04904
843.46435 0.04866
842.17858 0.04822
840.89281 0.04777
839.60704 0.04736
838.32128 0.04704
837.03551 0.04681
835.74974 0.04663
834.46397 0.04642
833.17820 0.04620
831.89243 0.04597
830.60666 0.04570
829.32089 0.04533
828.03512 0.04490
826.74936 0.04459
825.46359 0.04446
824.17782 0.04443
822.89205 0.04438
821.60628 0.04423
820.32051 0.04402
819.03474 0.04380
817.74897 0.04362
816.46321 0.04352
815.17744 0.04347
813.89167 0.04347
812.60590 0.04347
811.32013 0.04341
810.03436 0.04325
808.74859 0.04304
807.46282 0.04294
806.17705 0.04305
804.89129 0.04330
803.60552 0.04358
802.31975 0.04378
801.03398 0.04386
799.74821 0.04387
798.46244 0.04385
797.17667 0.04382
795.89090 0.04377
794.60513 0.04371
793.31937 0.04366
792.03360 0.04363
790.74783 0.04355
789.46206 0.04335
788.17629 0.04306
786.89052 0.04277
785.60475 0.04258
784.31898 0.04254
783.03322 0.04256
781.74745 0.04257
780.46168 0.04255
779.17591 0.04254
777.89014 0.04259
776.60437 0.04269
775.31860 0.04280
774.03283 0.04287
772.74706 0.04287
771.46130 0.04277
770.17553 0.04257
768.88976 0.04236
767.60399 0.04222
766.31822 0.04214
765.03245 0.04208
763.74668 0.04203
762.46091 0.04201
761.17515 0.04205
759.88938 0.04213
758.60361 0.04218
757.31784 0.04214
756.03207 0.04203
754.74630 0.04195
753.46053 0.04195
752.17476 0.04202
750.88899 0.04206
749.60323 0.04202
748.31746 0.04191
747.03169 0.04175
745.74592 0.04163
744.46015 0.04161
743.17438 0.04169
741.88861 0.04180
740.60284 0.04183
739.31708 0.04174
738.03131 0.04153
736.74554 0.04126
735.45977 0.04099
734.17400 0.04072
732.88823 0.04047
731.60246 0.04026
730.31669 0.04012
729.03092 0.04005
727.74516 0.04000
726.45939 0.03992
725.17362 0.03978
723.88785 0.03960
722.60208 0.03949
721.31631 0.03950
720.03054 0.03959
718.74477 0.03966
717.45901 0.03966
716.17324 0.03956
714.88747 0.03942
713.60170 0.03926
712.31593 0.03913
711.03016 0.03904
709.74439 0.03901
708.45862 0.03900
707.17285 0.03899
705.88709 0.03898
704.60132 0.03896
703.31555 0.03893
702.02978 0.03891
700.74401 0.03891
699.45824 0.03894
698.17247 0.03900
696.88670 0.03906
695.60094 0.03908
694.31517 0.03905
693.02940 0.03896
691.74363 0.03881
690.45786 0.03865
689.17209 0.03853
687.88632 0.03843
686.60055 0.03831
685.31478 0.03814
684.02902 0.03792
682.74325 0.03770
681.45748 0.03751
680.17171 0.03735
678.88594 0.03723
677.60017 0.03713
676.31440 0.03709
675.02863 0.03713
673.74287 0.03724
672.45710 0.03737
671.17133 0.03750
669.88556 0.03761
668.59979 0.03764
667.31402 0.03759
666.02825 0.03758
664.74248 0.03740
663.45671 0.03709
662.17095 0.03674
660.88518 0.03643
659.59941 0.03620
658.31364 0.03607
657.02787 0.03600
655.74210 0.03596
654.45633 0.03593
653.17056 0.03585
651.88480 0.03571
650.59903 0.03550
649.31326 0.03527
648.02749 0.03505
646.74172 0.03490
645.45595 0.03482
644.17018 0.03481
642.88441 0.03484
641.59864 0.03489
640.31288 0.03494
639.02711 0.03494
637.74134 0.03486
636.45557 0.03475
635.16980 0.03470
633.88403 0.03475
632.59826 0.03487
631.31249 0.03518
630.02673 0.03642
628.74096 0.03821
627.45519 0.03736
626.16942 0.03974
624.88365 0.04470
623.59788 0.05022
622.31211 0.05519
621.02634 0.05835
619.74057 0.05868
618.45481 0.05648
617.16904 0.05346
615.88327 0.05179
614.59750 0.05280
613.31173 0.05655
612.02596 0.06218
610.74019 0.06865
609.45442 0.07509
608.16866 0.08067
606.88289 0.08476
605.59712 0.08724
604.31135 0.08846
603.02558 0.08889
601.73981 0.08878
600.45404 0.08807
599.16827 0.08664
597.88250 0.08449
596.59674 0.08189
595.31097 0.07927
594.02520 0.07705
592.73943 0.07540
591.45366 0.07428
590.16789 0.07359
588.88212 0.07324
587.59635 0.07326
586.31059 0.07370
585.02482 0.07457
583.73905 0.07578
582.45328 0.07719
581.16751 0.07872
579.88174 0.08035
578.59597 0.08207
577.31020 0.08385
576.02443 0.08565
574.73867 0.08743
573.45290 0.08918
572.16713 0.09099
570.88136 0.09303
569.59559 0.09548
568.30982 0.09836
567.02405 0.10144
565.73828 0.10449
564.45251 0.10733
563.16675 0.10978
561.88098 0.11154
560.59521 0.11218
559.30944 0.11146
558.02367 0.10942
556.73790 0.10633
555.45213 0.10258
554.16636 0.09854
552.88060 0.09452
551.59483 0.09071
550.30906 0.08718
549.02329 0.08394
547.73752 0.08102
546.45175 0.07840
545.16598 0.07606
543.88021 0.07390
542.59444 0.07186
541.30868 0.06993
540.02291 0.06817
538.73714 0.06662
537.45137 0.06530
536.16560 0.06417
534.87983 0.06315
533.59406 0.06216
532.30829 0.06115
531.02253 0.06014
529.73676 0.05919
528.45099 0.05832
527.16522 0.05749
525.87945 0.05671
524.59368 0.05604
523.30791 0.05547
522.02214 0.05486
520.73637 0.05404
519.45061 0.05301
518.16484 0.05194
516.87907 0.05102
515.59330 0.05028
514.30753 0.04966
513.02176 0.04912
511.73599 0.04864
510.45022 0.04821
509.16446 0.04778
507.87869 0.04732
506.59292 0.04686
505.30715 0.04639
504.02138 0.04586
502.73561 0.04527
501.44984 0.04472
500.16407 0.04429
498.87830 0.04402
497.59254 0.04388
496.30677 0.04378
495.02100 0.04367
493.73523 0.04350
492.44946 0.04322
491.16369 0.04278
489.87792 0.04224
488.59215 0.04173
487.30639 0.04141
486.02062 0.04137
484.73485 0.04155
483.44908 0.04185
482.16331 0.04210
480.87754 0.04225
479.59177 0.04233
478.30600 0.04247
477.02023 0.04274
475.73447 0.04312
474.44870 0.04350
473.16293 0.04385
471.87716 0.04419
470.59139 0.04452
469.30562 0.04475
468.01985 0.04480
466.73408 0.04469
465.44832 0.04451
464.16255 0.04431
462.87678 0.04408
461.59101 0.04376
460.30524 0.04335
459.01947 0.04286
457.73370 0.04239
456.44793 0.04203
455.16216 0.04175
453.87640 0.04150
452.59063 0.04127
451.30486 0.04102
450.01909 0.04071
448.73332 0.04033
447.44755 0.03991
446.16178 0.03956
444.87601 0.03932
443.59025 0.03914
442.30448 0.03893
441.01871 0.03868
439.73294 0.03842
438.44717 0.03817
437.16140 0.03797
435.87563 0.03782
434.58986 0.03769
433.30409 0.03755
432.01833 0.03740
430.73256 0.03725
429.44679 0.03711
428.16102 0.03694
426.87525 0.03673
425.58948 0.03650
424.30371 0.03630
423.01794 0.03615
421.73218 0.03600
420.44641 0.03581
419.16064 0.03559
417.87487 0.03535
416.58910 0.03509
415.30333 0.03477
414.01756 0.03440
412.73179 0.03401
411.44602 0.03356
410.16026 0.03309
408.87449 0.03267
407.58872 0.03236
406.30295 0.03220
405.01718 0.03217
403.73141 0.03220
402.44564 0.03226
401.15987 0.03234
399.87411 0.03242
