3997.45528	0.02822
3996.16951	0.02851
3994.88374	0.02887
3993.59798	0.02904
3992.31221	0.02875
3991.02644	0.02811
3989.74067	0.02750
3988.45490	0.02724
3987.16913	0.02727
3985.88336	0.02728
3984.59759	0.02705
3983.31183	0.02661
3982.02606	0.02618
3980.74029	0.02603
3979.45452	0.02635
3978.16875	0.02721
3976.88298	0.02834
3975.59721	0.02919
3974.31144	0.02931
3973.02567	0.02877
3971.73991	0.02821
3970.45414	0.02826
3969.16837	0.02888
3967.88260	0.02952
3966.59683	0.02965
3965.31106	0.02932
3964.02529	0.02893
3962.73952	0.02864
3961.45376	0.02817
3960.16799	0.02734
3958.88222	0.02652
3957.59645	0.02635
3956.31068	0.02705
3955.02491	0.02820
3953.73914	0.02927
3952.45337	0.02999
3951.16760	0.03036
3949.88184	0.03039
3948.59607	0.03011
3947.31030	0.02970
3946.02453	0.02935
3944.73876	0.02908
3943.45299	0.02871
3942.16722	0.02817
3940.88145	0.02759
3939.59569	0.02722
3938.30992	0.02710
3937.02415	0.02709
3935.73838	0.02705
3934.45261	0.02708
3933.16684	0.02740
3931.88107	0.02816
3930.59530	0.02921
3929.30953	0.03016
3928.02377	0.03062
3926.73800	0.03047
3925.45223	0.02990
3924.16646	0.02927
3922.88069	0.02885
3921.59492	0.02879
3920.30915	0.02905
3919.02338	0.02951
3917.73762	0.03000
3916.45185	0.03035
3915.16608	0.03040
3913.88031	0.03015
3912.59454	0.02978
3911.30877	0.02955
3910.02300	0.02957
3908.73723	0.02976
3907.45146	0.03000
3906.16570	0.03016
3904.87993	0.03003
3903.59416	0.02936
3902.30839	0.02808
3901.02262	0.02669
3899.73685	0.02599
3898.45108	0.02637
3897.16531	0.02747
3895.87955	0.02866
3894.59378	0.02964
3893.30801	0.03039
3892.02224	0.03092
3890.73647	0.03106
3889.45070	0.03062
3888.16493	0.02971
3886.87916	0.02892
3885.59339	0.02888
3884.30763	0.02940
3883.02186	0.02965
3881.73609	0.02913
3880.45032	0.02832
3879.16455	0.02798
3877.87878	0.02835
3876.59301	0.02916
3875.30724	0.02999
3874.02148	0.03052
3872.73571	0.03049
3871.44994	0.02987
3870.16417	0.02904
3868.87840	0.02835
3867.59263	0.02780
3866.30686	0.02730
3865.02109	0.02697
3863.73532	0.02684
3862.44956	0.02677
3861.16379	0.02666
3859.87802	0.02660
3858.59225	0.02676
3857.30648	0.02704
3856.02071	0.02716
3854.73494	0.02695
3853.44917	0.02656
3852.16341	0.02622
3850.87764	0.02611
3849.59187	0.02634
3848.30610	0.02701
3847.02033	0.02803
3845.73456	0.02913
3844.44879	0.02991
3843.16302	0.02999
3841.87725	0.02925
3840.59149	0.02795
3839.30572	0.02658
3838.01995	0.02568
3836.73418	0.02548
3835.44841	0.02586
3834.16264	0.02658
3832.87687	0.02746
3831.59110	0.02827
3830.30534	0.02867
3829.01957	0.02842
3827.73380	0.02768
3826.44803	0.02690
3825.16226	0.02637
3823.87649	0.02604
3822.59072	0.02593
3821.30495	0.02626
3820.01918	0.02709
3818.73342	0.02798
3817.44765	0.02846
3816.16188	0.02856
3814.87611	0.02865
3813.59034	0.02881
3812.30457	0.02894
3811.01880	0.02896
3809.73303	0.02876
3808.44726	0.02834
3807.16150	0.02794
3805.87573	0.02785
3804.58996	0.02806
3803.30419	0.02827
3802.01842	0.02835
3800.73265	0.02840
3799.44688	0.02842
3798.16111	0.02835
3796.87535	0.02829
3795.58958	0.02836
3794.30381	0.02838
3793.01804	0.02817
3791.73227	0.02776
3790.44650	0.02741
3789.16073	0.02722
3787.87496	0.02713
3786.58919	0.02710
3785.30343	0.02725
3784.01766	0.02767
3782.73189	0.02818
3781.44612	0.02851
3780.16035	0.02856
3778.87458	0.02832
3777.58881	0.02780
3776.30304	0.02711
3775.01728	0.02656
3773.73151	0.02638
3772.44574	0.02650
3771.15997	0.02676
3769.87420	0.02716
3768.58843	0.02771
3767.30266	0.02828
3766.01689	0.02866
3764.73112	0.02863
3763.44536	0.02805
3762.15959	0.02693
3760.87382	0.02555
3759.58805	0.02435
3758.30228	0.02364
3757.01651	0.02356
3755.73074	0.02395
3754.44497	0.02442
3753.15921	0.02473
3751.87344	0.02495
3750.58767	0.02527
3749.30190	0.02573
3748.01613	0.02616
3746.73036	0.02627
3745.44459	0.02607
3744.15882	0.02606
3742.87305	0.02656
3741.58729	0.02728
3740.30152	0.02775
3739.01575	0.02762
3737.72998	0.02695
3736.44421	0.02632
3735.15844	0.02621
3733.87267	0.02639
3732.58690	0.02636
3731.30114	0.02601
3730.01537	0.02563
3728.72960	0.02549
3727.44383	0.02575
3726.15806	0.02645
3724.87229	0.02734
3723.58652	0.02790
3722.30075	0.02769
3721.01498	0.02675
3719.72922	0.02562
3718.44345	0.02500
3717.15768	0.02525
3715.87191	0.02616
3714.58614	0.02717
3713.30037	0.02786
3712.01460	0.02818
3710.72883	0.02824
3709.44307	0.02811
3708.15730	0.02774
3706.87153	0.02708
3705.58576	0.02614
3704.29999	0.02515
3703.01422	0.02461
3701.72845	0.02494
3700.44268	0.02613
3699.15691	0.02761
3697.87115	0.02878
3696.58538	0.02936
3695.29961	0.02928
3694.01384	0.02860
3692.72807	0.02759
3691.44230	0.02658
3690.15653	0.02597
3688.87076	0.02612
3687.58500	0.02697
3686.29923	0.02779
3685.01346	0.02789
3683.72769	0.02728
3682.44192	0.02662
3681.15615	0.02654
3679.87038	0.02714
3678.58461	0.02789
3677.29884	0.02813
3676.01308	0.02762
3674.72731	0.02660
3673.44154	0.02544
3672.15577	0.02454
3670.87000	0.02441
3669.58423	0.02526
3668.29846	0.02658
3667.01269	0.02759
3665.72693	0.02776
3664.44116	0.02710
3663.15539	0.02601
3661.86962	0.02515
3660.58385	0.02500
3659.29808	0.02552
3658.01231	0.02626
3656.72654	0.02683
3655.44077	0.02720
3654.15501	0.02733
3652.86924	0.02704
3651.58347	0.02630
3650.29770	0.02546
3649.01193	0.02508
3647.72616	0.02546
3646.44039	0.02640
3645.15462	0.02736
3643.86886	0.02789
3642.58309	0.02784
3641.29732	0.02746
3640.01155	0.02712
3638.72578	0.02714
3637.44001	0.02756
3636.15424	0.02813
3634.86847	0.02856
3633.58270	0.02870
3632.29694	0.02849
3631.01117	0.02797
3629.72540	0.02750
3628.43963	0.02757
3627.15386	0.02822
3625.86809	0.02902
3624.58232	0.02958
3623.29655	0.02982
3622.01079	0.02982
3620.72502	0.02962
3619.43925	0.02934
3618.15348	0.02916
3616.86771	0.02920
3615.58194	0.02942
3614.29617	0.02959
3613.01040	0.02946
3611.72463	0.02897
3610.43887	0.02832
3609.15310	0.02789
3607.86733	0.02800
3606.58156	0.02863
3605.29579	0.02944
3604.01002	0.03012
3602.72425	0.03058
3601.43848	0.03097
3600.15272	0.03130
3598.86695	0.03141
3597.58118	0.03121
3596.29541	0.03092
3595.00964	0.03090
3593.72387	0.03123
3592.43810	0.03174
3591.15233	0.03225
3589.86656	0.03272
3588.58080	0.03314
3587.29503	0.03336
3586.00926	0.03303
3584.72349	0.03210
3583.43772	0.03103
3582.15195	0.03045
3580.86618	0.03061
3579.58041	0.03124
3578.29464	0.03191
3577.00888	0.03233
3575.72311	0.03245
3574.43734	0.03225
3573.15157	0.03177
3571.86580	0.03117
3570.58003	0.03078
3569.29426	0.03082
3568.00849	0.03127
3566.72273	0.03195
3565.43696	0.03273
3564.15119	0.03351
3562.86542	0.03402
3561.57965	0.03392
3560.29388	0.03321
3559.00811	0.03242
3557.72234	0.03216
3556.43657	0.03253
3555.15081	0.03304
3553.86504	0.03319
3552.57927	0.03287
3551.29350	0.03244
3550.00773	0.03228
3548.72196	0.03263
3547.43619	0.03354
3546.15042	0.03485
3544.86466	0.03616
3543.57889	0.03708
3542.29312	0.03743
3541.00735	0.03732
3539.72158	0.03701
3538.43581	0.03664
3537.15004	0.03626
3535.86427	0.03592
3534.57850	0.03579
3533.29274	0.03604
3532.00697	0.03664
3530.72120	0.03724
3529.43543	0.03741
3528.14966	0.03698
3526.86389	0.03624
3525.57812	0.03570
3524.29235	0.03568
3523.00659	0.03605
3521.72082	0.03650
3520.43505	0.03692
3519.14928	0.03734
3517.86351	0.03779
3516.57774	0.03813
3515.29197	0.03833
3514.00620	0.03850
3512.72043	0.03870
3511.43467	0.03875
3510.14890	0.03846
3508.86313	0.03788
3507.57736	0.03736
3506.29159	0.03712
3505.00582	0.03712
3503.72005	0.03720
3502.43428	0.03729
3501.14852	0.03734
3499.86275	0.03728
3498.57698	0.03700
3497.29121	0.03654
3496.00544	0.03620
3494.71967	0.03637
3493.43390	0.03710
3492.14813	0.03805
3490.86236	0.03872
3489.57660	0.03894
3488.29083	0.03889
3487.00506	0.03882
3485.71929	0.03886
3484.43352	0.03901
3483.14775	0.03922
3481.86198	0.03938
3480.57621	0.03940
3479.29045	0.03927
3478.00468	0.03911
3476.71891	0.03909
3475.43314	0.03926
3474.14737	0.03956
3472.86160	0.03985
3471.57583	0.04005
3470.29006	0.04013
3469.00429	0.04013
3467.71853	0.04013
3466.43276	0.04025
3465.14699	0.04055
3463.86122	0.04104
3462.57545	0.04163
3461.28968	0.04212
3460.00391	0.04237
3458.71814	0.04235
3457.43238	0.04214
3456.14661	0.04184
3454.86084	0.04156
3453.57507	0.04144
3452.28930	0.04161
3451.00353	0.04205
3449.71776	0.04254
3448.43199	0.04286
3447.14622	0.04295
3445.86046	0.04292
3444.57469	0.04290
3443.28892	0.04291
3442.00315	0.04291
3440.71738	0.04285
3439.43161	0.04279
3438.14584	0.04290
3436.86007	0.04330
3435.57431	0.04391
3434.28854	0.04443
3433.00277	0.04451
3431.71700	0.04406
3430.43123	0.04335
3429.14546	0.04278
3427.85969	0.04263
3426.57392	0.04285
3425.28815	0.04323
3424.00239	0.04358
3422.71662	0.04383
3421.43085	0.04396
3420.14508	0.04398
3418.85931	0.04400
3417.57354	0.04417
3416.28777	0.04454
3415.00200	0.04497
3413.71624	0.04522
3412.43047	0.04507
3411.14470	0.04457
3409.85893	0.04402
3408.57316	0.04383
3407.28739	0.04414
3406.00162	0.04474
3404.71585	0.04524
3403.43008	0.04545
3402.14432	0.04546
3400.85855	0.04547
3399.57278	0.04557
3398.28701	0.04567
3397.00124	0.04559
3395.71547	0.04532
3394.42970	0.04511
3393.14393	0.04511
3391.85817	0.04518
3390.57240	0.04506
3389.28663	0.04477
3388.00086	0.04462
3386.71509	0.04473
3385.42932	0.04491
3384.14355	0.04490
3382.85778	0.04477
3381.57201	0.04472
3380.28625	0.04478
3379.00048	0.04485
3377.71471	0.04490
3376.42894	0.04505
3375.14317	0.04529
3373.85740	0.04543
3372.57163	0.04542
3371.28586	0.04544
3370.00010	0.04572
3368.71433	0.04632
3367.42856	0.04703
3366.14279	0.04754
3364.85702	0.04764
3363.57125	0.04732
3362.28548	0.04669
3360.99971	0.04597
3359.71394	0.04538
3358.42818	0.04509
3357.14241	0.04520
3355.85664	0.04571
3354.57087	0.04651
3353.28510	0.04738
3351.99933	0.04803
3350.71356	0.04827
3349.42779	0.04809
3348.14202	0.04762
3346.85626	0.04706
3345.57049	0.04665
3344.28472	0.04659
3342.99895	0.04688
3341.71318	0.04726
3340.42741	0.04739
3339.14164	0.04708
3337.85587	0.04647
3336.57011	0.04586
3335.28434	0.04552
3333.99857	0.04549
3332.71280	0.04561
3331.42703	0.04569
3330.14126	0.04569
3328.85549	0.04571
3327.56972	0.04587
3326.28395	0.04610
3324.99819	0.04626
3323.71242	0.04632
3322.42665	0.04639
3321.14088	0.04652
3319.85511	0.04658
3318.56934	0.04634
3317.28357	0.04577
3315.99780	0.04517
3314.71204	0.04495
3313.42627	0.04530
3312.14050	0.04597
3310.85473	0.04649
3309.56896	0.04658
3308.28319	0.04628
3306.99742	0.04590
3305.71165	0.04577
3304.42588	0.04607
3303.14012	0.04666
3301.85435	0.04720
3300.56858	0.04735
3299.28281	0.04704
3297.99704	0.04645
3296.71127	0.04584
3295.42550	0.04537
3294.13973	0.04511
3292.85397	0.04503
3291.56820	0.04503
3290.28243	0.04505
3288.99666	0.04510
3287.71089	0.04529
3286.42512	0.04565
3285.13935	0.04609
3283.85358	0.04647
3282.56781	0.04668
3281.28205	0.04664
3279.99628	0.04641
3278.71051	0.04621
3277.42474	0.04617
3276.13897	0.04616
3274.85320	0.04584
3273.56743	0.04512
3272.28166	0.04436
3270.99590	0.04408
3269.71013	0.04449
3268.42436	0.04536
3267.13859	0.04626
3265.85282	0.04690
3264.56705	0.04719
3263.28128	0.04718
3261.99551	0.04693
3260.70974	0.04651
3259.42398	0.04599
3258.13821	0.04550
3256.85244	0.04516
3255.56667	0.04500
3254.28090	0.04490
3252.99513	0.04457
3251.70936	0.04392
3250.42359	0.04319
3249.13783	0.04280
3247.85206	0.04299
3246.56629	0.04353
3245.28052	0.04404
3243.99475	0.04432
3242.70898	0.04448
3241.42321	0.04465
3240.13744	0.04476
3238.85167	0.04473
3237.56591	0.04466
3236.28014	0.04477
3234.99437	0.04505
3233.70860	0.04523
3232.42283	0.04503
3231.13706	0.04451
3229.85129	0.04401
3228.56552	0.04377
3227.27976	0.04373
3225.99399	0.04368
3224.70822	0.04352
3223.42245	0.04332
3222.13668	0.04321
3220.85091	0.04318
3219.56514	0.04311
3218.27937	0.04297
3216.99360	0.04287
3215.70784	0.04291
3214.42207	0.04305
3213.13630	0.04307
3211.85053	0.04288
3210.56476	0.04258
3209.27899	0.04247
3207.99322	0.04276
3206.70745	0.04334
3205.42169	0.04382
3204.13592	0.04380
3202.85015	0.04327
3201.56438	0.04258
3200.27861	0.04218
3198.99284	0.04218
3197.70707	0.04239
3196.42130	0.04260
3195.13553	0.04277
3193.84977	0.04300
3192.56400	0.04331
3191.27823	0.04358
3189.99246	0.04364
3188.70669	0.04343
3187.42092	0.04308
3186.13515	0.04274
3184.84938	0.04249
3183.56362	0.04229
3182.27785	0.04215
3180.99208	0.04213
3179.70631	0.04230
3178.42054	0.04252
3177.13477	0.04256
3175.84900	0.04231
3174.56323	0.04186
3173.27746	0.04143
3171.99170	0.04116
3170.70593	0.04105
3169.42016	0.04100
3168.13439	0.04084
3166.84862	0.04050
3165.56285	0.04012
3164.27708	0.03997
3162.99131	0.04019
3161.70555	0.04064
3160.41978	0.04104
3159.13401	0.04129
3157.84824	0.04144
3156.56247	0.04153
3155.27670	0.04148
3153.99093	0.04117
3152.70516	0.04054
3151.41939	0.03976
3150.13363	0.03918
3148.84786	0.03915
3147.56209	0.03972
3146.27632	0.04056
3144.99055	0.04123
3143.70478	0.04140
3142.41901	0.04108
3141.13324	0.04056
3139.84748	0.04016
3138.56171	0.03994
3137.27594	0.03973
3135.99017	0.03939
3134.70440	0.03903
3133.41863	0.03883
3132.13286	0.03880
3130.84709	0.03885
3129.56132	0.03890
3128.27556	0.03894
3126.98979	0.03898
3125.70402	0.03904
3124.41825	0.03915
3123.13248	0.03932
3121.84671	0.03946
3120.56094	0.03940
3119.27517	0.03902
3117.98940	0.03842
3116.70364	0.03790
3115.41787	0.03774
3114.13210	0.03798
3112.84633	0.03845
3111.56056	0.03893
3110.27479	0.03923
3108.98902	0.03921
3107.70325	0.03885
3106.41749	0.03828
3105.13172	0.03779
3103.84595	0.03764
3102.56018	0.03796
3101.27441	0.03859
3099.98864	0.03920
3098.70287	0.03953
3097.41710	0.03945
3096.13133	0.03905
3094.84557	0.03848
3093.55980	0.03795
3092.27403	0.03757
3090.98826	0.03735
3089.70249	0.03725
3088.41672	0.03728
3087.13095	0.03739
3085.84518	0.03752
3084.55942	0.03758
3083.27365	0.03759
3081.98788	0.03765
3080.70211	0.03780
3079.41634	0.03790
3078.13057	0.03782
3076.84480	0.03764
3075.55903	0.03754
3074.27326	0.03764
3072.98750	0.03788
3071.70173	0.03806
3070.41596	0.03804
3069.13019	0.03781
3067.84442	0.03750
3066.55865	0.03729
3065.27288	0.03731
3063.98711	0.03756
3062.70135	0.03790
3061.41558	0.03812
3060.12981	0.03805
3058.84404	0.03773
3057.55827	0.03742
3056.27250	0.03733
3054.98673	0.03752
3053.70096	0.03780
3052.41519	0.03791
3051.12943	0.03763
3049.84366	0.03694
3048.55789	0.03612
3047.27212	0.03554
3045.98635	0.03545
3044.70058	0.03574
3043.41481	0.03607
3042.12904	0.03621
3040.84328	0.03614
3039.55751	0.03608
3038.27174	0.03620
3036.98597	0.03653
3035.70020	0.03689
3034.41443	0.03705
3033.12866	0.03688
3031.84289	0.03649
3030.55712	0.03602
3029.27136	0.03559
3027.98559	0.03524
3026.69982	0.03502
3025.41405	0.03493
3024.12828	0.03493
3022.84251	0.03496
3021.55674	0.03500
3020.27097	0.03503
3018.98521	0.03504
3017.69944	0.03497
3016.41367	0.03479
3015.12790	0.03453
3013.84213	0.03426
3012.55636	0.03409
3011.27059	0.03412
3009.98482	0.03428
3008.69905	0.03445
3007.41329	0.03456
3006.12752	0.03469
3004.84175	0.03488
3003.55598	0.03510
3002.27021	0.03520
3000.98444	0.03512
2999.69867	0.03493
2998.41290	0.03472
2997.12714	0.03447
2995.84137	0.03418
2994.55560	0.03389
2993.26983	0.03363
2991.98406	0.03346
2990.69829	0.03339
2989.41252	0.03340
2988.12675	0.03341
2986.84098	0.03337
2985.55522	0.03328
2984.26945	0.03320
2982.98368	0.03315
2981.69791	0.03309
2980.41214	0.03304
2979.12637	0.03310
2977.84060	0.03327
2976.55483	0.03345
2975.26907	0.03355
2973.98330	0.03357
2972.69753	0.03357
2971.41176	0.03364
2970.12599	0.03386
2968.84022	0.03422
2967.55445	0.03464
2966.26868	0.03501
2964.98291	0.03533
2963.69715	0.03562
2962.41138	0.03584
2961.12561	0.03598
2959.83984	0.03602
2958.55407	0.03604
2957.26830	0.03619
2955.98253	0.03658
2954.69676	0.03719
2953.41100	0.03779
2952.12523	0.03813
2950.83946	0.03813
2949.55369	0.03791
2948.26792	0.03762
2946.98215	0.03736
2945.69638	0.03723
2944.41061	0.03724
2943.12484	0.03735
2941.83908	0.03742
2940.55331	0.03730
2939.26754	0.03696
2937.98177	0.03655
2936.69600	0.03627
2935.41023	0.03621
2934.12446	0.03627
2932.83869	0.03625
2931.55293	0.03600
2930.26716	0.03548
2928.98139	0.03482
2927.69562	0.03417
2926.40985	0.03358
2925.12408	0.03296
2923.83831	0.03225
2922.55254	0.03143
2921.26677	0.03056
2919.98101	0.02969
2918.69524	0.02892
2917.40947	0.02852
2916.12370	0.02871
2914.83793	0.02952
2913.55216	0.03075
2912.26639	0.03215
2910.98062	0.03349
2909.69486	0.03457
2908.40909	0.03533
2907.12332	0.03583
2905.83755	0.03617
2904.55178	0.03638
2903.26601	0.03646
2901.98024	0.03653
2900.69447	0.03670
2899.40870	0.03694
2898.12294	0.03714
2896.83717	0.03726
2895.55140	0.03737
2894.26563	0.03749
2892.97986	0.03757
2891.69409	0.03751
2890.40832	0.03730
2889.12255	0.03696
2887.83678	0.03656
2886.55102	0.03617
2885.26525	0.03588
2883.97948	0.03581
2882.69371	0.03595
2881.40794	0.03615
2880.12217	0.03627
2878.83640	0.03634
2877.55063	0.03645
2876.26487	0.03659
2874.97910	0.03670
2873.69333	0.03674
2872.40756	0.03678
2871.12179	0.03679
2869.83602	0.03670
2868.55025	0.03649
2867.26448	0.03624
2865.97871	0.03603
2864.69295	0.03585
2863.40718	0.03570
2862.12141	0.03560
2860.83564	0.03559
2859.54987	0.03562
2858.26410	0.03544
2856.97833	0.03480
2855.69256	0.03368
2854.40680	0.03228
2853.12103	0.03087
2851.83526	0.02967
2850.54949	0.02889
2849.26372	0.02875
2847.97795	0.02934
2846.69218	0.03048
2845.40641	0.03182
2844.12064	0.03304
2842.83488	0.03396
2841.54911	0.03454
2840.26334	0.03479
2838.97757	0.03481
2837.69180	0.03470
2836.40603	0.03455
2835.12026	0.03435
2833.83449	0.03412
2832.54873	0.03385
2831.26296	0.03362
2829.97719	0.03351
2828.69142	0.03357
2827.40565	0.03371
2826.11988	0.03380
2824.83411	0.03374
2823.54834	0.03359
2822.26257	0.03338
2820.97681	0.03309
2819.69104	0.03276
2818.40527	0.03250
2817.11950	0.03240
2815.83373	0.03245
2814.54796	0.03254
2813.26219	0.03260
2811.97642	0.03264
2810.69066	0.03269
2809.40489	0.03271
2808.11912	0.03264
2806.83335	0.03246
2805.54758	0.03228
2804.26181	0.03218
2802.97604	0.03209
2801.69027	0.03192
2800.40450	0.03168
2799.11874	0.03148
2797.83297	0.03132
2796.54720	0.03122
2795.26143	0.03121
2793.97566	0.03136
2792.68989	0.03159
2791.40412	0.03174
2790.11835	0.03174
2788.83259	0.03166
2787.54682	0.03161
2786.26105	0.03153
2784.97528	0.03132
2783.68951	0.03097
2782.40374	0.03067
2781.11797	0.03063
2779.83220	0.03091
2778.54643	0.03136
2777.26067	0.03178
2775.97490	0.03199
2774.68913	0.03193
2773.40336	0.03170
2772.11759	0.03144
2770.83182	0.03128
2769.54605	0.03117
2768.26028	0.03100
2766.97452	0.03076
2765.68875	0.03053
2764.40298	0.03042
2763.11721	0.03039
2761.83144	0.03037
2760.54567	0.03030
2759.25990	0.03016
2757.97413	0.02996
2756.68836	0.02974
2755.40260	0.02960
2754.11683	0.02961
2752.83106	0.02973
2751.54529	0.02982
2750.25952	0.02979
2748.97375	0.02969
2747.68798	0.02958
2746.40221	0.02949
2745.11645	0.02946
2743.83068	0.02952
2742.54491	0.02966
2741.25914	0.02979
2739.97337	0.02984
2738.68760	0.02978
2737.40183	0.02964
2736.11606	0.02948
2734.83029	0.02939
2733.54453	0.02942
2732.25876	0.02955
2730.97299	0.02966
2729.68722	0.02968
2728.40145	0.02961
2727.11568	0.02957
2725.82991	0.02963
2724.54414	0.02974
2723.25838	0.02980
2721.97261	0.02974
2720.68684	0.02964
2719.40107	0.02955
2718.11530	0.02946
2716.82953	0.02931
2715.54376	0.02908
2714.25799	0.02883
2712.97222	0.02866
2711.68646	0.02863
2710.40069	0.02876
2709.11492	0.02896
2707.82915	0.02910
2706.54338	0.02910
2705.25761	0.02903
2703.97184	0.02900
2702.68607	0.02902
2701.40031	0.02905
2700.11454	0.02901
2698.82877	0.02891
2697.54300	0.02874
2696.25723	0.02853
2694.97146	0.02834
2693.68569	0.02828
2692.39992	0.02837
2691.11415	0.02852
2689.82839	0.02866
2688.54262	0.02877
2687.25685	0.02880
2685.97108	0.02866
2684.68531	0.02839
2683.39954	0.02816
2682.11377	0.02814
2680.82800	0.02825
2679.54224	0.02826
2678.25647	0.02813
2676.97070	0.02798
2675.68493	0.02799
2674.39916	0.02814
2673.11339	0.02828
2671.82762	0.02826
2670.54185	0.02809
2669.25608	0.02792
2667.97032	0.02789
2666.68455	0.02803
2665.39878	0.02824
2664.11301	0.02837
2662.82724	0.02831
2661.54147	0.02809
2660.25570	0.02788
2658.96993	0.02784
2657.68417	0.02794
2656.39840	0.02801
2655.11263	0.02797
2653.82686	0.02789
2652.54109	0.02778
2651.25532	0.02761
2649.96955	0.02734
2648.68378	0.02709
2647.39801	0.02697
2646.11225	0.02698
2644.82648	0.02706
2643.54071	0.02715
2642.25494	0.02717
2640.96917	0.02706
2639.68340	0.02686
2638.39763	0.02666
2637.11186	0.02649
2635.82609	0.02629
2634.54033	0.02601
2633.25456	0.02572
2631.96879	0.02552
2630.68302	0.02544
2629.39725	0.02538
2628.11148	0.02526
2626.82571	0.02506
2625.53994	0.02491
2624.25418	0.02493
2622.96841	0.02516
2621.68264	0.02550
2620.39687	0.02582
2619.11110	0.02595
2617.82533	0.02581
2616.53956	0.02544
2615.25379	0.02504
2613.96802	0.02480
2612.68226	0.02478
2611.39649	0.02478
2610.11072	0.02465
2608.82495	0.02442
2607.53918	0.02428
2606.25341	0.02440
2604.96764	0.02475
2603.68187	0.02512
2602.39611	0.02533
2601.11034	0.02533
2599.82457	0.02513
2598.53880	0.02487
2597.25303	0.02472
2595.96726	0.02472
2594.68149	0.02473
2593.39572	0.02463
2592.10995	0.02444
2590.82419	0.02427
2589.53842	0.02415
2588.25265	0.02395
2586.96688	0.02365
2585.68111	0.02341
2584.39534	0.02344
2583.10957	0.02373
2581.82380	0.02399
2580.53804	0.02386
2579.25227	0.02329
2577.96650	0.02260
2576.68073	0.02225
2575.39496	0.02241
2574.10919	0.02295
2572.82342	0.02357
2571.53765	0.02404
2570.25188	0.02419
2568.96612	0.02401
2567.68035	0.02361
2566.39458	0.02318
2565.10881	0.02288
2563.82304	0.02274
2562.53727	0.02272
2561.25150	0.02277
2559.96573	0.02283
2558.67997	0.02287
2557.39420	0.02293
2556.10843	0.02298
2554.82266	0.02294
2553.53689	0.02275
2552.25112	0.02247
2550.96535	0.02222
2549.67958	0.02202
2548.39381	0.02185
2547.10805	0.02173
2545.82228	0.02175
2544.53651	0.02189
2543.25074	0.02198
2541.96497	0.02190
2540.67920	0.02173
2539.39343	0.02169
2538.10766	0.02185
2536.82190	0.02210
2535.53613	0.02226
2534.25036	0.02227
2532.96459	0.02220
2531.67882	0.02210
2530.39305	0.02200
2529.10728	0.02200
2527.82151	0.02214
2526.53574	0.02232
2525.24998	0.02233
2523.96421	0.02209
2522.67844	0.02176
2521.39267	0.02155
2520.10690	0.02152
2518.82113	0.02161
2517.53536	0.02178
2516.24959	0.02202
2514.96383	0.02230
2513.67806	0.02250
2512.39229	0.02251
2511.10652	0.02236
2509.82075	0.02220
2508.53498	0.02218
2507.24921	0.02231
2505.96344	0.02239
2504.67767	0.02217
2503.39191	0.02164
2502.10614	0.02112
2500.82037	0.02096
2499.53460	0.02120
2498.24883	0.02147
2496.96306	0.02148
2495.67729	0.02135
2494.39152	0.02140
2493.10576	0.02177
2491.81999	0.02226
2490.53422	0.02261
2489.24845	0.02271
2487.96268	0.02260
2486.67691	0.02234
2485.39114	0.02200
2484.10537	0.02163
2482.81960	0.02138
2481.53384	0.02138
2480.24807	0.02156
2478.96230	0.02164
2477.67653	0.02142
2476.39076	0.02105
2475.10499	0.02083
2473.81922	0.02084
2472.53345	0.02096
2471.24769	0.02102
2469.96192	0.02098
2468.67615	0.02088
2467.39038	0.02077
2466.10461	0.02067
2464.81884	0.02057
2463.53307	0.02057
2462.24730	0.02074
2460.96153	0.02101
2459.67577	0.02118
2458.39000	0.02110
2457.10423	0.02092
2455.81846	0.02093
2454.53269	0.02116
2453.24692	0.02134
2451.96115	0.02123
2450.67538	0.02095
2449.38962	0.02085
2448.10385	0.02100
2446.81808	0.02119
2445.53231	0.02118
2444.24654	0.02101
2442.96077	0.02088
2441.67500	0.02079
2440.38923	0.02056
2439.10346	0.02014
2437.81770	0.01973
2436.53193	0.01960
2435.24616	0.01980
2433.96039	0.02014
2432.67462	0.02044
2431.38885	0.02069
2430.10308	0.02091
2428.81731	0.02112
2427.53155	0.02130
2426.24578	0.02143
2424.96001	0.02144
2423.67424	0.02133
2422.38847	0.02118
2421.10270	0.02113
2419.81693	0.02116
2418.53116	0.02112
2417.24539	0.02085
2415.95963	0.02045
2414.67386	0.02009
2413.38809	0.01987
2412.10232	0.01971
2410.81655	0.01952
2409.53078	0.01936
2408.24501	0.01934
2406.95924	0.01957
2405.67347	0.01996
2404.38771	0.02035
2403.10194	0.02054
2401.81617	0.02051
2400.53040	0.02041
2399.24463	0.02045
2397.95886	0.02066
2396.67309	0.02091
2395.38732	0.02102
2394.10156	0.02095
2392.81579	0.02083
2391.53002	0.02076
2390.24425	0.02074
2388.95848	0.02072
2387.67271	0.02063
2386.38694	0.02046
2385.10117	0.02026
2383.81540	0.02008
2382.52964	0.01999
2381.24387	0.02004
2379.95810	0.02023
2378.67233	0.02049
2377.38656	0.02071
2376.10079	0.02084
2374.81502	0.02089
2373.52925	0.02101
2372.24349	0.02125
2370.95772	0.02167
2369.67195	0.02216
2368.38618	0.02267
2367.10041	0.02312
2365.81464	0.02347
2364.52887	0.02356
2363.24310	0.02358
2361.95733	0.02375
2360.67157	0.02411
2359.38580	0.02424
2358.10003	0.02403
2356.81426	0.02362
2355.52849	0.02316
2354.24272	0.02272
2352.95695	0.02230
2351.67118	0.02207
2350.38542	0.02206
2349.09965	0.02206
2347.81388	0.02195
2346.52811	0.02206
2345.24234	0.02235
2343.95657	0.02242
2342.67080	0.02220
2341.38503	0.02232
2340.09926	0.02282
2338.81350	0.02285
2337.52773	0.02241
2336.24196	0.02263
2334.95619	0.02331
2333.67042	0.02327
2332.38465	0.02267
2331.09888	0.02292
2329.81311	0.02329
2328.52735	0.02291
2327.24158	0.02339
2325.95581	0.02423
2324.67004	0.02400
2323.38427	0.02370
2322.09850	0.02363
2320.81273	0.02280
2319.52696	0.02235
2318.24119	0.02221
2316.95543	0.02162
2315.66966	0.02128
2314.38389	0.02101
2313.09812	0.02048
2311.81235	0.02022
2310.52658	0.01990
2309.24081	0.01960
2307.95504	0.01945
2306.66928	0.01923
2305.38351	0.01919
2304.09774	0.01928
2302.81197	0.01942
2301.52620	0.01964
2300.24043	0.01975
2298.95466	0.01978
2297.66889	0.01970
2296.38312	0.01957
2295.09736	0.01946
2293.81159	0.01933
2292.52582	0.01921
2291.24005	0.01909
2289.95428	0.01901
2288.66851	0.01897
2287.38274	0.01902
2286.09697	0.01920
2284.81121	0.01944
2283.52544	0.01956
2282.23967	0.01941
2280.95390	0.01903
2279.66813	0.01860
2278.38236	0.01820
2277.09659	0.01775
2275.81082	0.01718
2274.52505	0.01662
2273.23929	0.01628
2271.95352	0.01628
2270.66775	0.01651
2269.38198	0.01675
2268.09621	0.01686
2266.81044	0.01681
2265.52467	0.01670
2264.23890	0.01667
2262.95314	0.01678
2261.66737	0.01695
2260.38160	0.01695
2259.09583	0.01662
2257.81006	0.01607
2256.52429	0.01559
2255.23852	0.01539
2253.95275	0.01543
2252.66698	0.01552
2251.38122	0.01561
2250.09545	0.01578
2248.80968	0.01601
2247.52391	0.01614
2246.23814	0.01571
2244.95237	0.01483
2243.66660	0.01404
2242.38083	0.01381
2241.09507	0.01406
2239.80930	0.01432
2238.52353	0.01425
2237.23776	0.01398
2235.95199	0.01380
2234.66622	0.01385
2233.38045	0.01397
2232.09468	0.01389
2230.80891	0.01339
2229.52315	0.01252
2228.23738	0.01162
2226.95161	0.01109
2225.66584	0.01100
2224.38007	0.01107
2223.09430	0.01110
2221.80853	0.01122
2220.52276	0.01164
2219.23700	0.01228
2217.95123	0.01282
2216.66546	0.01302
2215.37969	0.01291
2214.09392	0.01266
2212.80815	0.01246
2211.52238	0.01247
2210.23661	0.01293
2208.95084	0.01389
2207.66508	0.01489
2206.37931	0.01517
2205.09354	0.01453
2203.80777	0.01365
2202.52200	0.01334
2201.23623	0.01370
2199.95046	0.01405
2198.66469	0.01379
2197.37893	0.01293
2196.09316	0.01201
2194.80739	0.01155
2193.52162	0.01169
2192.23585	0.01217
2190.95008	0.01254
2189.66431	0.01244
2188.37854	0.01190
2187.09277	0.01141
2185.80701	0.01142
2184.52124	0.01187
2183.23547	0.01213
2181.94970	0.01171
2180.66393	0.01085
2179.37816	0.01017
2178.09239	0.01001
2176.80662	0.01022
2175.52085	0.01048
2174.23509	0.01064
2172.94932	0.01069
2171.66355	0.01070
2170.37778	0.01083
2169.09201	0.01115
2167.80624	0.01157
2166.52047	0.01171
2165.23470	0.01117
2163.94894	0.00984
2162.66317	0.00819
2161.37740	0.00706
2160.09163	0.00700
2158.80586	0.00776
2157.52009	0.00851
2156.23432	0.00871
2154.94855	0.00846
2153.66278	0.00819
2152.37702	0.00814
2151.09125	0.00828
2149.80548	0.00852
2148.51971	0.00892
2147.23394	0.00964
2145.94817	0.01066
2144.66240	0.01153
2143.37663	0.01162
2142.09087	0.01074
2140.80510	0.00944
2139.51933	0.00853
2138.23356	0.00837
2136.94779	0.00871
2135.66202	0.00909
2134.37625	0.00934
2133.09048	0.00954
2131.80471	0.00983
2130.51895	0.01030
2129.23318	0.01083
2127.94741	0.01115
2126.66164	0.01114
2125.37587	0.01100
2124.09010	0.01101
2122.80433	0.01121
2121.51856	0.01145
2120.23280	0.01161
2118.94703	0.01172
2117.66126	0.01176
2116.37549	0.01171
2115.08972	0.01178
2113.80395	0.01214
2112.51818	0.01266
2111.23241	0.01288
2109.94664	0.01254
2108.66088	0.01198
2107.37511	0.01167
2106.08934	0.01176
2104.80357	0.01196
2103.51780	0.01201
2102.23203	0.01187
2100.94626	0.01153
2099.66049	0.01011
2098.37473	0.00905
2097.08896	0.00855
2095.80319	0.00850
2094.51742	0.00888
2093.23165	0.00960
2091.94588	0.01041
2090.66011	0.01105
2089.37434	0.01138
2088.08857	0.01148
2086.80281	0.01154
2085.51704	0.01160
2084.23127	0.01150
2082.94550	0.01107
2081.65973	0.01027
2080.37396	0.00937
2079.08819	0.00870
2077.80242	0.00845
2076.51666	0.00856
2075.23089	0.00883
2073.94512	0.00908
2072.65935	0.00918
2071.37358	0.00906
2070.08781	0.00878
2068.80204	0.00852
2067.51627	0.00852
2066.23050	0.00888
2064.94474	0.00944
2063.65897	0.00986
2062.37320	0.00985
2061.08743	0.00938
2059.80166	0.00875
2058.51589	0.00825
2057.23012	0.00801
2055.94435	0.00800
2054.65859	0.00812
2053.37282	0.00816
2052.08705	0.00789
2050.80128	0.00714
2049.51551	0.00597
2048.22974	0.00470
2046.94397	0.00384
2045.65820	0.00377
2044.37243	0.00438
2043.08667	0.00502
2041.80090	0.00501
2040.51513	0.00424
2039.22936	0.00314
2037.94359	0.00223
2036.65782	0.00179
2035.37205	0.00185
2034.08628	0.00227
2032.80052	0.00283
2031.51475	0.00339
2030.22898	0.00404
2028.94321	0.00493
2027.65744	0.00588
2026.37167	0.00648
2025.08590	0.00643
2023.80013	0.00581
2022.51436	0.00499
2021.22860	0.00435
2019.94283	0.00408
2018.65706	0.00398
2017.37129	0.00360
2016.08552	0.00266
2014.79975	0.00149
2013.51398	0.00080
2012.22821	0.00110
2010.94245	0.00220
2009.65668	0.00331
2008.37091	0.00373
2007.08514	0.00348
2005.79937	0.00316
2004.51360	0.00330
2003.22783	0.00391
2001.94206	0.00482
2000.65629	0.00601
1999.37053	0.00755
1998.08476	0.00915
1996.79899	0.01028
1995.51322	0.01059
1994.22745	0.01039
1992.94168	0.01037
1991.65591	0.01097
1990.37014	0.01194
1989.08438	0.01255
1987.79861	0.01220
1986.51284	0.01092
1985.22707	0.00932
1983.94130	0.00811
1982.65553	0.00754
1981.36976	0.00719
1980.08399	0.00647
1978.79822	0.00531
1977.51246	0.00433
1976.22669	0.00419
1974.94092	0.00489
1973.65515	0.00577
1972.36938	0.00617
1971.08361	0.00602
1969.79784	0.00577
1968.51207	0.00583
1967.22631	0.00619
1965.94054	0.00647
1964.65477	0.00633
1963.36900	0.00573
1962.08323	0.00490
1960.79746	0.00420
1959.51169	0.00397
1958.22592	0.00447
1956.94015	0.00573
1955.65439	0.00734
1954.36862	0.00866
1953.08285	0.00914
1951.79708	0.00882
1950.51131	0.00834
1949.22554	0.00831
1947.93977	0.00872
1946.65400	0.00904
1945.36823	0.00889
1944.08247	0.00851
1942.79670	0.00843
1941.51093	0.00892
1940.22516	0.00976
1938.93939	0.01055
1937.65362	0.01104
1936.36785	0.01116
1935.08208	0.01093
1933.79632	0.01047
1932.51055	0.01002
1931.22478	0.00986
1929.93901	0.01003
1928.65324	0.01033
1927.36747	0.01057
1926.08170	0.01068
1924.79593	0.01068
1923.51016	0.01064
1922.22440	0.01058
1920.93863	0.01049
1919.65286	0.01042
1918.36709	0.01048
1917.08132	0.01082
1915.79555	0.01139
1914.50978	0.01201
1913.22401	0.01241
1911.93825	0.01248
1910.65248	0.01231
1909.36671	0.01207
1908.08094	0.01186
1906.79517	0.01163
1905.50940	0.01136
1904.22363	0.01115
1902.93786	0.01106
1901.65209	0.01103
1900.36633	0.01098
1899.08056	0.01091
1897.79479	0.01091
1896.50902	0.01107
1895.22325	0.01134
1893.93748	0.01157
1892.65171	0.01164
1891.36594	0.01159
1890.08018	0.01158
1888.79441	0.01172
1887.50864	0.01195
1886.22287	0.01211
1884.93710	0.01209
1883.65133	0.01189
1882.36556	0.01161
1881.07979	0.01137
1879.79402	0.01122
1878.50826	0.01116
1877.22249	0.01119
1875.93672	0.01131
1874.65095	0.01151
1873.36518	0.01176
1872.07941	0.01204
1870.79364	0.01231
1869.50787	0.01249
1868.22211	0.01249
1866.93634	0.01232
1865.65057	0.01211
1864.36480	0.01205
1863.07903	0.01221
1861.79326	0.01246
1860.50749	0.01262
1859.22172	0.01253
1857.93595	0.01221
1856.65019	0.01180
1855.36442	0.01150
1854.07865	0.01140
1852.79288	0.01150
1851.50711	0.01172
1850.22134	0.01198
1848.93557	0.01217
1847.64980	0.01221
1846.36404	0.01212
1845.07827	0.01204
1843.79250	0.01213
1842.50673	0.01236
1841.22096	0.01253
1839.93519	0.01251
1838.64942	0.01235
1837.36365	0.01220
1836.07788	0.01216
1834.79212	0.01219
1833.50635	0.01225
1832.22058	0.01233
1830.93481	0.01245
1829.64904	0.01260
1828.36327	0.01271
1827.07750	0.01271
1825.79173	0.01255
1824.50597	0.01229
1823.22020	0.01201
1821.93443	0.01178
1820.64866	0.01167
1819.36289	0.01170
1818.07712	0.01188
1816.79135	0.01216
1815.50558	0.01248
1814.21981	0.01273
1812.93405	0.01285
1811.64828	0.01288
1810.36251	0.01290
1809.07674	0.01295
1807.79097	0.01300
1806.50520	0.01305
1805.21943	0.01307
1803.93366	0.01306
1802.64790	0.01298
1801.36213	0.01286
1800.07636	0.01269
1798.79059	0.01249
1797.50482	0.01233
1796.21905	0.01226
1794.93328	0.01225
1793.64751	0.01226
1792.36174	0.01229
1791.07598	0.01236
1789.79021	0.01245
1788.50444	0.01255
1787.21867	0.01265
1785.93290	0.01276
1784.64713	0.01285
1783.36136	0.01286
1782.07559	0.01273
1780.78983	0.01250
1779.50406	0.01231
1778.21829	0.01225
1776.93252	0.01233
1775.64675	0.01247
1774.36098	0.01253
1773.07521	0.01249
1771.78944	0.01246
1770.50367	0.01251
1769.21791	0.01260
1767.93214	0.01270
1766.64637	0.01278
1765.36060	0.01279
1764.07483	0.01270
1762.78906	0.01256
1761.50329	0.01246
1760.21752	0.01242
1758.93176	0.01237
1757.64599	0.01230
1756.36022	0.01228
1755.07445	0.01228
1753.78868	0.01219
1752.50291	0.01196
1751.21714	0.01167
1749.93137	0.01143
1748.64560	0.01120
1747.35984	0.01092
1746.07407	0.01057
1744.78830	0.01022
1743.50253	0.00994
1742.21676	0.00972
1740.93099	0.00953
1739.64522	0.00944
1738.35945	0.00950
1737.07369	0.00966
1735.78792	0.00982
1734.50215	0.01003
1733.21638	0.01040
1731.93061	0.01087
1730.64484	0.01126
1729.35907	0.01147
1728.07330	0.01160
1726.78753	0.01173
1725.50177	0.01194
1724.21600	0.01222
1722.93023	0.01256
1721.64446	0.01286
1720.35869	0.01303
1719.07292	0.01308
1717.78715	0.01315
1716.50138	0.01339
1715.21561	0.01378
1713.92985	0.01420
1712.64408	0.01459
1711.35831	0.01493
1710.07254	0.01523
1708.78677	0.01552
1707.50100	0.01580
1706.21523	0.01608
1704.92946	0.01638
1703.64370	0.01667
1702.35793	0.01690
1701.07216	0.01719
1699.78639	0.01764
1698.50062	0.01812
1697.21485	0.01844
1695.92908	0.01864
1694.64331	0.01895
1693.35754	0.01939
1692.07178	0.01982
1690.78601	0.02022
1689.50024	0.02063
1688.21447	0.02100
1686.92870	0.02123
1685.64293	0.02137
1684.35716	0.02164
1683.07139	0.02214
1681.78563	0.02276
1680.49986	0.02333
1679.21409	0.02385
1677.92832	0.02431
1676.64255	0.02467
1675.35678	0.02496
1674.07101	0.02525
1672.78524	0.02556
1671.49947	0.02588
1670.21371	0.02623
1668.92794	0.02665
1667.64217	0.02710
1666.35640	0.02748
1665.07063	0.02776
1663.78486	0.02800
1662.49909	0.02831
1661.21332	0.02868
1659.92756	0.02901
1658.64179	0.02925
1657.35602	0.02942
1656.07025	0.02947
1654.78448	0.02941
1653.49871	0.02941
1652.21294	0.02965
1650.92717	0.03006
1649.64140	0.03037
1648.35564	0.03049
1647.06987	0.03055
1645.78410	0.03068
1644.49833	0.03085
1643.21256	0.03100
1641.92679	0.03107
1640.64102	0.03109
1639.35525	0.03107
1638.06949	0.03095
1636.78372	0.03076
1635.49795	0.03060
1634.21218	0.03056
1632.92641	0.03057
1631.64064	0.03053
1630.35487	0.03045
1629.06910	0.03032
1627.78333	0.03013
1626.49757	0.02990
1625.21180	0.02965
1623.92603	0.02948
1622.64026	0.02940
1621.35449	0.02931
1620.06872	0.02906
1618.78295	0.02863
1617.49718	0.02819
1616.21142	0.02794
1614.92565	0.02792
1613.63988	0.02795
1612.35411	0.02791
1611.06834	0.02784
1609.78257	0.02777
1608.49680	0.02773
1607.21103	0.02772
1605.92526	0.02769
1604.63950	0.02761
1603.35373	0.02746
1602.06796	0.02728
1600.78219	0.02713
1599.49642	0.02708
1598.21065	0.02712
1596.92488	0.02719
1595.63911	0.02726
1594.35335	0.02734
1593.06758	0.02746
1591.78181	0.02762
1590.49604	0.02777
1589.21027	0.02784
1587.92450	0.02784
1586.63873	0.02785
1585.35296	0.02791
1584.06719	0.02803
1582.78143	0.02819
1581.49566	0.02833
1580.20989	0.02841
1578.92412	0.02840
1577.63835	0.02833
1576.35258	0.02838
1575.06681	0.02865
1573.78104	0.02902
1572.49528	0.02926
1571.20951	0.02935
1569.92374	0.02940
1568.63797	0.02953
1567.35220	0.02970
1566.06643	0.02983
1564.78066	0.02994
1563.49489	0.03005
1562.20912	0.03014
1560.92336	0.03013
1559.63759	0.03014
1558.35182	0.03032
1557.06605	0.03064
1555.78028	0.03090
1554.49451	0.03104
1553.20874	0.03111
1551.92297	0.03114
1550.63721	0.03111
1549.35144	0.03106
1548.06567	0.03103
1546.77990	0.03099
1545.49413	0.03089
1544.20836	0.03071
1542.92259	0.03045
1541.63682	0.03013
1540.35105	0.02988
1539.06529	0.02982
1537.77952	0.02996
1536.49375	0.03011
1535.20798	0.03017
1533.92221	0.03019
1532.63644	0.03023
1531.35067	0.03026
1530.06490	0.03026
1528.77914	0.03027
1527.49337	0.03036
1526.20760	0.03053
1524.92183	0.03075
1523.63606	0.03093
1522.35029	0.03107
1521.06452	0.03127
1519.77875	0.03156
1518.49298	0.03187
1517.20722	0.03218
1515.92145	0.03254
1514.63568	0.03296
1513.34991	0.03339
1512.06414	0.03382
1510.77837	0.03426
1509.49260	0.03467
1508.20683	0.03504
1506.92107	0.03548
1505.63530	0.03610
1504.34953	0.03682
1503.06376	0.03745
1501.77799	0.03789
1500.49222	0.03820
1499.20645	0.03842
1497.92068	0.03859
1496.63491	0.03874
1495.34915	0.03896
1494.06338	0.03924
1492.77761	0.03951
1491.49184	0.03976
1490.20607	0.04007
1488.92030	0.04048
1487.63453	0.04095
1486.34876	0.04146
1485.06299	0.04199
1483.77723	0.04256
1482.49146	0.04315
1481.20569	0.04375
1479.91992	0.04431
1478.63415	0.04478
1477.34838	0.04517
1476.06261	0.04550
1474.77684	0.04579
1473.49108	0.04606
1472.20531	0.04638
1470.91954	0.04680
1469.63377	0.04724
1468.34800	0.04760
1467.06223	0.04787
1465.77646	0.04812
1464.49069	0.04839
1463.20492	0.04868
1461.91916	0.04895
1460.63339	0.04918
1459.34762	0.04939
1458.06185	0.04961
1456.77608	0.04997
1455.49031	0.05046
1454.20454	0.05097
1452.91877	0.05138
1451.63301	0.05168
1450.34724	0.05189
1449.06147	0.05203
1447.77570	0.05211
1446.48993	0.05219
1445.20416	0.05224
1443.91839	0.05219
1442.63262	0.05201
1441.34685	0.05177
1440.06109	0.05151
1438.77532	0.05124
1437.48955	0.05100
1436.20378	0.05088
1434.91801	0.05094
1433.63224	0.05111
1432.34647	0.05135
1431.06070	0.05166
1429.77494	0.05206
1428.48917	0.05255
1427.20340	0.05311
1425.91763	0.05370
1424.63186	0.05429
1423.34609	0.05489
1422.06032	0.05543
1420.77455	0.05587
1419.48878	0.05624
1418.20302	0.05658
1416.91725	0.05690
1415.63148	0.05718
1414.34571	0.05744
1413.05994	0.05766
1411.77417	0.05777
1410.48840	0.05776
1409.20263	0.05763
1407.91687	0.05739
1406.63110	0.05701
1405.34533	0.05651
1404.05956	0.05591
1402.77379	0.05525
1401.48802	0.05454
1400.20225	0.05376
1398.91648	0.05290
1397.63071	0.05199
1396.34495	0.05107
1395.05918	0.05018
1393.77341	0.04935
1392.48764	0.04852
1391.20187	0.04766
1389.91610	0.04679
1388.63033	0.04596
1387.34456	0.04521
1386.05880	0.04454
1384.77303	0.04389
1383.48726	0.04319
1382.20149	0.04241
1380.91572	0.04159
1379.62995	0.04080
1378.34418	0.04005
1377.05841	0.03932
1375.77264	0.03856
1374.48688	0.03774
1373.20111	0.03689
1371.91534	0.03602
1370.62957	0.03514
1369.34380	0.03428
1368.05803	0.03347
1366.77226	0.03271
1365.48649	0.03196
1364.20073	0.03121
1362.91496	0.03051
1361.62919	0.02986
1360.34342	0.02928
1359.05765	0.02875
1357.77188	0.02825
1356.48611	0.02779
1355.20034	0.02737
1353.91457	0.02698
1352.62881	0.02663
1351.34304	0.02633
1350.05727	0.02608
1348.77150	0.02587
1347.48573	0.02564
1346.19996	0.02538
1344.91419	0.02510
1343.62842	0.02484
1342.34266	0.02461
1341.05689	0.02439
1339.77112	0.02417
1338.48535	0.02397
1337.19958	0.02380
1335.91381	0.02363
1334.62804	0.02346
1333.34227	0.02328
1332.05650	0.02311
1330.77074	0.02295
1329.48497	0.02278
1328.19920	0.02258
1326.91343	0.02237
1325.62766	0.02218
1324.34189	0.02203
1323.05612	0.02190
1321.77035	0.02177
1320.48459	0.02163
1319.19882	0.02148
1317.91305	0.02131
1316.62728	0.02116
1315.34151	0.02103
1314.05574	0.02088
1312.76997	0.02070
1311.48420	0.02051
1310.19843	0.02032
1308.91267	0.02017
1307.62690	0.02005
1306.34113	0.01995
1305.05536	0.01984
1303.76959	0.01970
1302.48382	0.01951
1301.19805	0.01933
1299.91228	0.01918
1298.62652	0.01908
1297.34075	0.01902
1296.05498	0.01896
1294.76921	0.01888
1293.48344	0.01879
1292.19767	0.01873
1290.91190	0.01869
1289.62613	0.01864
1288.34036	0.01857
1287.05460	0.01850
1285.76883	0.01844
1284.48306	0.01843
1283.19729	0.01845
1281.91152	0.01845
1280.62575	0.01837
1279.33998	0.01823
1278.05421	0.01809
1276.76845	0.01799
1275.48268	0.01796
1274.19691	0.01796
1272.91114	0.01795
1271.62537	0.01791
1270.33960	0.01781
1269.05383	0.01767
1267.76806	0.01750
1266.48229	0.01733
1265.19653	0.01718
1263.91076	0.01704
1262.62499	0.01690
1261.33922	0.01680
1260.05345	0.01678
1258.76768	0.01683
1257.48191	0.01694
1256.19614	0.01705
1254.91037	0.01711
1253.62461	0.01711
1252.33884	0.01708
1251.05307	0.01706
1249.76730	0.01708
1248.48153	0.01712
1247.19576	0.01718
1245.90999	0.01726
1244.62422	0.01733
1243.33846	0.01739
1242.05269	0.01742
1240.76692	0.01743
1239.48115	0.01742
1238.19538	0.01739
1236.90961	0.01734
1235.62384	0.01728
1234.33807	0.01725
1233.05230	0.01726
1231.76654	0.01730
1230.48077	0.01733
1229.19500	0.01732
1227.90923	0.01725
1226.62346	0.01715
1225.33769	0.01706
1224.05192	0.01700
1222.76615	0.01698
1221.48039	0.01698
1220.19462	0.01700
1218.90885	0.01702
1217.62308	0.01703
1216.33731	0.01703
1215.05154	0.01700
1213.76577	0.01697
1212.48000	0.01698
1211.19423	0.01701
1209.90847	0.01705
1208.62270	0.01708
1207.33693	0.01711
1206.05116	0.01717
1204.76539	0.01725
1203.47962	0.01735
1202.19385	0.01745
1200.90808	0.01759
1199.62232	0.01778
1198.33655	0.01782
1197.05078	0.01784
1195.76501	0.01787
1194.47924	0.01793
1193.19347	0.01804
1191.90770	0.01815
1190.62193	0.01820
1189.33616	0.01816
1188.05040	0.01805
1186.76463	0.01794
1185.47886	0.01788
1184.19309	0.01787
1182.90732	0.01790
1181.62155	0.01791
1180.33578	0.01792
1179.05001	0.01797
1177.76425	0.01809
1176.47848	0.01826
1175.19271	0.01840
1173.90694	0.01848
1172.62117	0.01853
1171.33540	0.01861
1170.04963	0.01874
1168.76386	0.01894
1167.47809	0.01918
1166.19233	0.01941
1164.90656	0.01959
1163.62079	0.01969
1162.33502	0.01973
1161.04925	0.01976
1159.76348	0.01980
1158.47771	0.01989
1157.19194	0.02003
1155.90618	0.02023
1154.62041	0.02043
1153.33464	0.02061
1152.04887	0.02073
1150.76310	0.02085
1149.47733	0.02101
1148.19156	0.02126
1146.90579	0.02161
1145.62002	0.02200
1144.33426	0.02239
1143.04849	0.02274
1141.76272	0.02310
1140.47695	0.02349
1139.19118	0.02395
1137.90541	0.02450
1136.61964	0.02512
1135.33387	0.02584
1134.04811	0.02663
1132.76234	0.02750
1131.47657	0.02844
1130.19080	0.02947
1128.90503	0.03061
1127.61926	0.03193
1126.33349	0.03344
1125.04772	0.03509
1123.76195	0.03680
1122.47619	0.03850
1121.19042	0.04022
1119.90465	0.04201
1118.61888	0.04388
1117.33311	0.04578
1116.04734	0.04764
1114.76157	0.04941
1113.47580	0.05114
1112.19004	0.05289
1110.90427	0.05466
1109.61850	0.05636
1108.33273	0.05794
1107.04696	0.05942
1105.76119	0.06085
1104.47542	0.06223
1103.18965	0.06355
1101.90388	0.06481
1100.61812	0.06601
1099.33235	0.06719
1098.04658	0.06833
1096.76081	0.06940
1095.47504	0.07039
1094.18927	0.07134
1092.90350	0.07228
1091.61773	0.07323
1090.33197	0.07412
1089.04620	0.07493
1087.76043	0.07565
1086.47466	0.07632
1085.18889	0.07700
1083.90312	0.07771
1082.61735	0.07847
1081.33158	0.07930
1080.04581	0.08021
1078.76005	0.08123
1077.47428	0.08235
1076.18851	0.08353
1074.90274	0.08474
1073.61697	0.08598
1072.33120	0.08731
1071.04543	0.08875
1069.75966	0.09025
1068.47390	0.09178
1067.18813	0.09333
1065.90236	0.09491
1064.61659	0.09654
1063.33082	0.09816
1062.04505	0.09972
1060.75928	0.10128
1059.47351	0.10286
1058.18774	0.10448
1056.90198	0.10607
1055.61621	0.10758
1054.33044	0.10906
1053.04467	0.11060
1051.75890	0.11227
1050.47313	0.11406
1049.18736	0.11591
1047.90159	0.11776
1046.61583	0.11957
1045.33006	0.12136
1044.04429	0.12319
1042.75852	0.12510
1041.47275	0.12708
1040.18698	0.12906
1038.90121	0.13100
1037.61544	0.13291
1036.32967	0.13485
1035.04391	0.13681
1033.75814	0.13870
1032.47237	0.14041
1031.18660	0.14192
1029.90083	0.14328
1028.61506	0.14448
1027.32929	0.14548
1026.04352	0.14625
1024.75775	0.14680
1023.47199	0.14711
1022.18622	0.14720
1020.90045	0.14711
1019.61468	0.14689
1018.32891	0.14653
1017.04314	0.14596
1015.75737	0.14512
1014.47160	0.14397
1013.18584	0.14257
1011.90007	0.14100
1010.61430	0.13930
1009.32853	0.13740
1008.04276	0.13521
1006.75699	0.13268
1005.47122	0.12982
1004.18545	0.12674
1002.89968	0.12358
1001.61392	0.12041
1000.32815	0.11721
999.04238	0.11392
997.75661	0.11047
996.47084	0.10691
995.18507	0.10336
993.89930	0.09990
992.61353	0.09656
991.32777	0.09335
990.04200	0.09030
988.75623	0.08742
987.47046	0.08471
986.18469	0.08213
984.89892	0.07964
983.61315	0.07724
982.32738	0.07495
981.04161	0.07279
979.75585	0.07081
978.47008	0.06901
977.18431	0.06738
975.89854	0.06588
974.61277	0.06451
973.32700	0.06332
972.04123	0.06232
970.75546	0.06150
969.46970	0.06088
968.18393	0.06051
966.89816	0.06041
965.61239	0.06053
964.32662	0.06078
963.04085	0.06103
961.75508	0.06116
960.46931	0.06111
959.18354	0.06079
957.89778	0.06015
956.61201	0.05919
955.32624	0.05803
954.04047	0.05681
952.75470	0.05563
951.46893	0.05449
950.18316	0.05340
948.89739	0.05234
947.61163	0.05131
946.32586	0.05032
945.04009	0.04936
943.75432	0.04846
942.46855	0.04758
941.18278	0.04668
939.89701	0.04574
938.61124	0.04483
937.32547	0.04401
936.03971	0.04330
934.75394	0.04260
933.46817	0.04183
932.18240	0.04104
930.89663	0.04033
929.61086	0.03979
928.32509	0.03936
927.03932	0.03897
925.75356	0.03858
924.46779	0.03822
923.18202	0.03790
921.89625	0.03760
920.61048	0.03729
919.32471	0.03699
918.03894	0.03671
916.75317	0.03646
915.46740	0.03618
914.18164	0.03583
912.89587	0.03542
911.61010	0.03500
910.32433	0.03466
909.03856	0.03438
907.75279	0.03409
906.46702	0.03372
905.18125	0.03326
903.89549	0.03280
902.60972	0.03243
901.32395	0.03218
900.03818	0.03202
898.75241	0.03185
897.46664	0.03156
896.18087	0.03114
894.89510	0.03071
893.60933	0.03037
892.32357	0.03017
891.03780	0.03009
889.75203	0.03009
888.46626	0.03021
887.18049	0.03046
885.89472	0.03091
884.60895	0.03164
883.32318	0.03274
882.03742	0.03413
880.75165	0.03553
879.46588	0.03665
878.18011	0.03741
876.89434	0.03802
875.60857	0.03875
874.32280	0.03964
873.03703	0.04047
871.75126	0.04096
870.46550	0.04090
869.17973	0.04026
867.89396	0.03918
866.60819	0.03788
865.32242	0.03657
864.03665	0.03534
862.75088	0.03420
861.46511	0.03315
860.17935	0.03222
858.89358	0.03144
857.60781	0.03076
856.32204	0.03014
855.03627	0.02960
853.75050	0.02917
852.46473	0.02888
851.17896	0.02871
849.89319	0.02860
848.60743	0.02850
847.32166	0.02837
846.03589	0.02820
844.75012	0.02801
843.46435	0.02777
842.17858	0.02749
840.89281	0.02720
839.60704	0.02697
838.32128	0.02684
837.03551	0.02679
835.74974	0.02671
834.46397	0.02658
833.17820	0.02646
831.89243	0.02639
830.60666	0.02639
829.32089	0.02641
828.03512	0.02640
826.74936	0.02632
825.46359	0.02616
824.17782	0.02590
822.89205	0.02562
821.60628	0.02537
820.32051	0.02521
819.03474	0.02518
817.74897	0.02524
816.46321	0.02538
815.17744	0.02553
813.89167	0.02565
812.60590	0.02569
811.32013	0.02569
810.03436	0.02569
808.74859	0.02571
807.46282	0.02572
806.17705	0.02572
804.89129	0.02575
803.60552	0.02583
802.31975	0.02597
801.03398	0.02610
799.74821	0.02615
798.46244	0.02613
797.17667	0.02612
795.89090	0.02618
794.60513	0.02629
793.31937	0.02637
792.03360	0.02635
790.74783	0.02623
789.46206	0.02610
788.17629	0.02599
786.89052	0.02592
785.60475	0.02586
784.31898	0.02579
783.03322	0.02571
781.74745	0.02568
780.46168	0.02574
779.17591	0.02587
777.89014	0.02599
776.60437	0.02601
775.31860	0.02591
774.03283	0.02575
772.74706	0.02561
771.46130	0.02556
770.17553	0.02558
768.88976	0.02558
767.60399	0.02552
766.31822	0.02538
765.03245	0.02519
763.74668	0.02504
762.46091	0.02502
761.17515	0.02515
759.88938	0.02541
758.60361	0.02566
757.31784	0.02575
756.03207	0.02564
754.74630	0.02540
753.46053	0.02518
752.17476	0.02507
750.88899	0.02507
749.60323	0.02512
748.31746	0.02511
747.03169	0.02497
745.74592	0.02473
744.46015	0.02447
743.17438	0.02429
741.88861	0.02421
740.60284	0.02422
739.31708	0.02432
738.03131	0.02446
736.74554	0.02457
735.45977	0.02460
734.17400	0.02456
732.88823	0.02449
731.60246	0.02440
730.31669	0.02432
729.03092	0.02428
727.74516	0.02432
726.45939	0.02444
725.17362	0.02460
723.88785	0.02475
722.60208	0.02472
721.31631	0.02453
720.03054	0.02426
718.74477	0.02404
717.45901	0.02395
716.17324	0.02399
714.88747	0.02407
713.60170	0.02413
712.31593	0.02412
711.03016	0.02405
709.74439	0.02395
708.45862	0.02386
707.17285	0.02382
705.88709	0.02381
704.60132	0.02382
703.31555	0.02386
702.02978	0.02394
700.74401	0.02402
699.45824	0.02407
698.17247	0.02408
696.88670	0.02408
695.60094	0.02408
694.31517	0.02409
693.02940	0.02406
691.74363	0.02402
690.45786	0.02399
689.17209	0.02400
687.88632	0.02403
686.60055	0.02401
685.31478	0.02393
684.02902	0.02378
682.74325	0.02361
681.45748	0.02347
680.17171	0.02336
678.88594	0.02329
677.60017	0.02324
676.31440	0.02324
675.02863	0.02326
673.74287	0.02334
672.45710	0.02348
671.17133	0.02370
669.88556	0.02397
668.59979	0.02407
667.31402	0.02411
666.02825	0.02419
664.74248	0.02397
663.45671	0.02371
662.17095	0.02355
660.88518	0.02346
659.59941	0.02339
658.31364	0.02330
657.02787	0.02317
655.74210	0.02307
654.45633	0.02305
653.17056	0.02313
651.88480	0.02327
650.59903	0.02341
649.31326	0.02352
648.02749	0.02357
646.74172	0.02356
645.45595	0.02351
644.17018	0.02347
642.88441	0.02347
641.59864	0.02354
640.31288	0.02368
639.02711	0.02387
637.74134	0.02404
636.45557	0.02415
635.16980	0.02417
633.88403	0.02417
632.59826	0.02421
631.31249	0.02422
630.02673	0.02372
628.74096	0.02297
627.45519	0.02383
626.16942	0.02274
624.88365	0.02039
623.59788	0.01871
622.31211	0.01894
621.02634	0.02132
619.74057	0.02499
618.45481	0.02887
617.16904	0.03247
615.88327	0.03576
614.59750	0.03867
613.31173	0.04096
612.02596	0.04257
610.74019	0.04395
609.45442	0.04574
608.16866	0.04804
606.88289	0.05039
605.59712	0.05238
604.31135	0.05391
603.02558	0.05495
601.73981	0.05538
600.45404	0.05511
599.16827	0.05423
597.88250	0.05298
596.59674	0.05164
595.31097	0.05038
594.02520	0.04926
592.73943	0.04824
591.45366	0.04740
590.16789	0.04688
588.88212	0.04675
587.59635	0.04698
586.31059	0.04746
585.02482	0.04812
583.73905	0.04898
582.45328	0.05000
581.16751	0.05111
579.88174	0.05226
578.59597	0.05343
577.31020	0.05463
576.02443	0.05583
574.73867	0.05699
573.45290	0.05810
572.16713	0.05924
570.88136	0.06049
569.59559	0.06191
568.30982	0.06356
567.02405	0.06552
565.73828	0.06778
564.45251	0.07008
563.16675	0.07194
561.88098	0.07292
560.59521	0.07281
559.30944	0.07165
558.02367	0.06963
556.73790	0.06699
555.45213	0.06396
554.16636	0.06078
552.88060	0.05762
551.59483	0.05460
550.30906	0.05183
549.02329	0.04938
547.73752	0.04728
546.45175	0.04555
545.16598	0.04416
543.88021	0.04306
542.59444	0.04215
541.30868	0.04138
540.02291	0.04067
538.73714	0.04000
537.45137	0.03934
536.16560	0.03868
534.87983	0.03805
533.59406	0.03747
532.30829	0.03697
531.02253	0.03653
529.73676	0.03608
528.45099	0.03556
527.16522	0.03496
525.87945	0.03438
524.59368	0.03393
523.30791	0.03364
522.02214	0.03340
520.73637	0.03307
519.45061	0.03263
518.16484	0.03218
516.87907	0.03180
515.59330	0.03149
514.30753	0.03124
513.02176	0.03103
511.73599	0.03085
510.45022	0.03065
509.16446	0.03043
507.87869	0.03021
506.59292	0.03006
505.30715	0.02996
504.02138	0.02986
502.73561	0.02974
501.44984	0.02959
500.16407	0.02941
498.87830	0.02922
497.59254	0.02903
496.30677	0.02883
495.02100	0.02864
493.73523	0.02845
492.44946	0.02828
491.16369	0.02818
489.87792	0.02820
488.59215	0.02832
487.30639	0.02846
486.02062	0.02861
484.73485	0.02877
483.44908	0.02898
482.16331	0.02926
480.87754	0.02963
479.59177	0.03009
478.30600	0.03064
477.02023	0.03120
475.73447	0.03169
474.44870	0.03202
473.16293	0.03222
471.87716	0.03234
470.59139	0.03242
469.30562	0.03243
468.01985	0.03231
466.73408	0.03209
465.44832	0.03184
464.16255	0.03160
462.87678	0.03136
461.59101	0.03109
460.30524	0.03077
459.01947	0.03042
457.73370	0.03007
456.44793	0.02975
455.16216	0.02949
453.87640	0.02922
452.59063	0.02892
451.30486	0.02860
450.01909	0.02831
448.73332	0.02809
447.44755	0.02793
446.16178	0.02781
444.87601	0.02768
443.59025	0.02752
442.30448	0.02732
441.01871	0.02707
439.73294	0.02678
438.44717	0.02646
437.16140	0.02617
435.87563	0.02601
434.58986	0.02601
433.30409	0.02612
432.01833	0.02623
430.73256	0.02626
429.44679	0.02620
428.16102	0.02608
426.87525	0.02590
425.58948	0.02568
424.30371	0.02544
423.01794	0.02521
421.73218	0.02497
420.44641	0.02474
419.16064	0.02451
417.87487	0.02429
416.58910	0.02403
415.30333	0.02373
414.01756	0.02344
412.73179	0.02318
411.44602	0.02294
410.16026	0.02274
408.87449	0.02260
407.58872	0.02252
406.30295	0.02250
405.01718	0.02246
403.73141	0.02239
402.44564	0.02230
401.15987	0.02227
399.87411	0.02231
