3997.45528 0.05639
3996.16951 0.05589
3994.88374 0.05589
3993.59798 0.05660
3992.31221 0.05772
3991.02644 0.05859
3989.74067 0.05868
3988.45490 0.05805
3987.16913 0.05720
3985.88336 0.05662
3984.59759 0.05655
3983.31183 0.05704
3982.02606 0.05799
3980.74029 0.05897
3979.45452 0.05942
3978.16875 0.05917
3976.88298 0.05856
3975.59721 0.05802
3974.31144 0.05762
3973.02567 0.05734
3971.73991 0.05729
3970.45414 0.05758
3969.16837 0.05800
3967.88260 0.05815
3966.59683 0.05785
3965.31106 0.05729
3964.02529 0.05683
3962.73952 0.05662
3961.45376 0.05653
3960.16799 0.05636
3958.88222 0.05605
3957.59645 0.05574
3956.31068 0.05569
3955.02491 0.05592
3953.73914 0.05611
3952.45337 0.05604
3951.16760 0.05602
3949.88184 0.05654
3948.59607 0.05766
3947.31030 0.05883
3946.02453 0.05951
3944.73876 0.05958
3943.45299 0.05936
3942.16722 0.05919
3940.88145 0.05912
3939.59569 0.05903
3938.30992 0.05884
3937.02415 0.05854
3935.73838 0.05812
3934.45261 0.05769
3933.16684 0.05755
3931.88107 0.05787
3930.59530 0.05842
3929.30953 0.05868
3928.02377 0.05840
3926.73800 0.05765
3925.45223 0.05675
3924.16646 0.05600
3922.88069 0.05555
3921.59492 0.05541
3920.30915 0.05549
3919.02338 0.05569
3917.73762 0.05593
3916.45185 0.05611
3915.16608 0.05609
3913.88031 0.05589
3912.59454 0.05576
3911.30877 0.05593
3910.02300 0.05648
3908.73723 0.05742
3907.45146 0.05865
3906.16570 0.05987
3904.87993 0.06060
3903.59416 0.06056
3902.30839 0.05991
3901.02262 0.05924
3899.73685 0.05918
3898.45108 0.05991
3897.16531 0.06103
3895.87955 0.06197
3894.59378 0.06227
3893.30801 0.06180
3892.02224 0.06083
3890.73647 0.05992
3889.45070 0.05942
3888.16493 0.05916
3886.87916 0.05887
3885.59339 0.05851
3884.30763 0.05802
3883.02186 0.05735
3881.73609 0.05669
3880.45032 0.05642
3879.16455 0.05654
3877.87878 0.05664
3876.59301 0.05646
3875.30724 0.05617
3874.02148 0.05603
3872.73571 0.05589
3871.44994 0.05544
3870.16417 0.05492
3868.87840 0.05494
3867.59263 0.05567
3866.30686 0.05674
3865.02109 0.05765
3863.73532 0.05790
3862.44956 0.05726
3861.16379 0.05623
3859.87802 0.05564
3858.59225 0.05596
3857.30648 0.05689
3856.02071 0.05766
3854.73494 0.05777
3853.44917 0.05734
3852.16341 0.05672
3850.87764 0.05625
3849.59187 0.05626
3848.30610 0.05667
3847.02033 0.05681
3845.73456 0.05627
3844.44879 0.05551
3843.16302 0.05535
3841.87725 0.05594
3840.59149 0.05658
3839.30572 0.05670
3838.01995 0.05658
3836.73418 0.05683
3835.44841 0.05743
3834.16264 0.05784
3832.87687 0.05769
3831.59110 0.05713
3830.30534 0.05658
3829.01957 0.05630
3827.73380 0.05610
3826.44803 0.05567
3825.16226 0.05490
3823.87649 0.05404
3822.59072 0.05359
3821.30495 0.05399
3820.01918 0.05500
3818.73342 0.05571
3817.44765 0.05552
3816.16188 0.05470
3814.87611 0.05367
3813.59034 0.05249
3812.30457 0.05167
3811.01880 0.05202
3809.73303 0.05334
3808.44726 0.05433
3807.16150 0.05417
3805.87573 0.05329
3804.58996 0.05254
3803.30419 0.05246
3802.01842 0.05331
3800.73265 0.05486
3799.44688 0.05616
3798.16111 0.05630
3796.87535 0.05547
3795.58958 0.05459
3794.30381 0.05412
3793.01804 0.05387
3791.73227 0.05347
3790.44650 0.05282
3789.16073 0.05209
3787.87496 0.05139
3786.58919 0.05073
3785.30343 0.05026
3784.01766 0.05020
3782.73189 0.05045
3781.44612 0.05063
3780.16035 0.05061
3778.87458 0.05060
3777.58881 0.05069
3776.30304 0.05072
3775.01728 0.05070
3773.73151 0.05089
3772.44574 0.05138
3771.15997 0.05204
3769.87420 0.05276
3768.58843 0.05342
3767.30266 0.05378
3766.01689 0.05373
3764.73112 0.05340
3763.44536 0.05298
3762.15959 0.05270
3760.87382 0.05274
3759.58805 0.05308
3758.30228 0.05342
3757.01651 0.05360
3755.73074 0.05362
3754.44497 0.05336
3753.15921 0.05273
3751.87344 0.05207
3750.58767 0.05179
3749.30190 0.05213
3748.01613 0.05280
3746.73036 0.05305
3745.44459 0.05282
3744.15882 0.05298
3742.87305 0.05376
3741.58729 0.05424
3740.30152 0.05391
3739.01575 0.05294
3737.72998 0.05173
3736.44421 0.05091
3735.15844 0.05098
3733.87267 0.05179
3732.58690 0.05271
3731.30114 0.05319
3730.01537 0.05280
3728.72960 0.05143
3727.44383 0.04970
3726.15806 0.04850
3724.87229 0.04819
3723.58652 0.04850
3722.30075 0.04907
3721.01498 0.04969
3719.72922 0.05024
3718.44345 0.05069
3717.15768 0.05102
3715.87191 0.05109
3714.58614 0.05068
3713.30037 0.04997
3712.01460 0.04943
3710.72883 0.04933
3709.44307 0.04953
3708.15730 0.04971
3706.87153 0.04961
3705.58576 0.04910
3704.29999 0.04826
3703.01422 0.04755
3701.72845 0.04740
3700.44268 0.04762
3699.15691 0.04753
3697.87115 0.04703
3696.58538 0.04686
3695.29961 0.04767
3694.01384 0.04927
3692.72807 0.05091
3691.44230 0.05186
3690.15653 0.05191
3688.87076 0.05158
3687.58500 0.05163
3686.29923 0.05193
3685.01346 0.05178
3683.72769 0.05094
3682.44192 0.04989
3681.15615 0.04933
3679.87038 0.04961
3678.58461 0.05034
3677.29884 0.05086
3676.01308 0.05114
3674.72731 0.05161
3673.44154 0.05226
3672.15577 0.05263
3670.87000 0.05267
3669.58423 0.05250
3668.29846 0.05199
3667.01269 0.05119
3665.72693 0.05067
3664.44116 0.05085
3663.15539 0.05159
3661.86962 0.05239
3660.58385 0.05292
3659.29808 0.05296
3658.01231 0.05251
3656.72654 0.05192
3655.44077 0.05172
3654.15501 0.05194
3652.86924 0.05220
3651.58347 0.05225
3650.29770 0.05229
3649.01193 0.05262
3647.72616 0.05330
3646.44039 0.05413
3645.15462 0.05471
3643.86886 0.05467
3642.58309 0.05396
3641.29732 0.05307
3640.01155 0.05272
3638.72578 0.05329
3637.44001 0.05441
3636.15424 0.05524
3634.86847 0.05528
3633.58270 0.05490
3632.29694 0.05489
3631.01117 0.05558
3629.72540 0.05673
3628.43963 0.05786
3627.15386 0.05845
3625.86809 0.05843
3624.58232 0.05827
3623.29655 0.05825
3622.01079 0.05807
3620.72502 0.05744
3619.43925 0.05671
3618.15348 0.05641
3616.86771 0.05654
3615.58194 0.05670
3614.29617 0.05666
3613.01040 0.05660
3611.72463 0.05681
3610.43887 0.05743
3609.15310 0.05833
3607.86733 0.05911
3606.58156 0.05923
3605.29579 0.05861
3604.01002 0.05772
3602.72425 0.05720
3601.43848 0.05727
3600.15272 0.05764
3598.86695 0.05776
3597.58118 0.05748
3596.29541 0.05705
3595.00964 0.05690
3593.72387 0.05721
3592.43810 0.05808
3591.15233 0.05950
3589.86656 0.06106
3588.58080 0.06221
3587.29503 0.06266
3586.00926 0.06253
3584.72349 0.06204
3583.43772 0.06139
3582.15195 0.06081
3580.86618 0.06056
3579.58041 0.06080
3578.29464 0.06153
3577.00888 0.06258
3575.72311 0.06372
3574.43734 0.06466
3573.15157 0.06510
3571.86580 0.06498
3570.58003 0.06453
3569.29426 0.06411
3568.00849 0.06385
3566.72273 0.06358
3565.43696 0.06311
3564.15119 0.06268
3562.86542 0.06287
3561.57965 0.06389
3560.29388 0.06524
3559.00811 0.06622
3557.72234 0.06672
3556.43657 0.06716
3555.15081 0.06782
3553.86504 0.06840
3552.57927 0.06848
3551.29350 0.06812
3550.00773 0.06778
3548.72196 0.06789
3547.43619 0.06850
3546.15042 0.06946
3544.86466 0.07045
3543.57889 0.07111
3542.29312 0.07114
3541.00735 0.07055
3539.72158 0.06973
3538.43581 0.06915
3537.15004 0.06902
3535.86427 0.06926
3534.57850 0.06975
3533.29274 0.07055
3532.00697 0.07168
3530.72120 0.07280
3529.43543 0.07329
3528.14966 0.07292
3526.86389 0.07219
3525.57812 0.07191
3524.29235 0.07241
3523.00659 0.07323
3521.72082 0.07365
3520.43505 0.07343
3519.14928 0.07303
3517.86351 0.07306
3516.57774 0.07369
3515.29197 0.07447
3514.00620 0.07483
3512.72043 0.07458
3511.43467 0.07399
3510.14890 0.07358
3508.86313 0.07373
3507.57736 0.07442
3506.29159 0.07528
3505.00582 0.07588
3503.72005 0.07616
3502.43428 0.07635
3501.14852 0.07661
3499.86275 0.07690
3498.57698 0.07720
3497.29121 0.07772
3496.00544 0.07859
3494.71967 0.07962
3493.43390 0.08031
3492.14813 0.08034
3490.86236 0.07970
3489.57660 0.07867
3488.29083 0.07771
3487.00506 0.07734
3485.71929 0.07777
3484.43352 0.07861
3483.14775 0.07921
3481.86198 0.07918
3480.57621 0.07879
3479.29045 0.07868
3478.00468 0.07930
3476.71891 0.08054
3475.43314 0.08181
3474.14737 0.08254
3472.86160 0.08258
3471.57583 0.08207
3470.29006 0.08122
3469.00429 0.08033
3467.71853 0.07987
3466.43276 0.08016
3465.14699 0.08095
3463.86122 0.08152
3462.57545 0.08144
3461.28968 0.08101
3460.00391 0.08082
3458.71814 0.08112
3457.43238 0.08161
3456.14661 0.08197
3454.86084 0.08218
3453.57507 0.08247
3452.28930 0.08292
3451.00353 0.08340
3449.71776 0.08377
3448.43199 0.08408
3447.14622 0.08443
3445.86046 0.08479
3444.57469 0.08486
3443.28892 0.08449
3442.00315 0.08387
3440.71738 0.08345
3439.43161 0.08349
3438.14584 0.08393
3436.86007 0.08457
3435.57431 0.08527
3434.28854 0.08587
3433.00277 0.08616
3431.71700 0.08611
3430.43123 0.08603
3429.14546 0.08634
3427.85969 0.08718
3426.57392 0.08834
3425.28815 0.08944
3424.00239 0.09017
3422.71662 0.09032
3421.43085 0.08981
3420.14508 0.08888
3418.85931 0.08809
3417.57354 0.08784
3416.28777 0.08806
3415.00200 0.08831
3413.71624 0.08833
3412.43047 0.08831
3411.14470 0.08862
3409.85893 0.08937
3408.57316 0.09028
3407.28739 0.09093
3406.00162 0.09106
3404.71585 0.09079
3403.43008 0.09047
3402.14432 0.09035
3400.85855 0.09035
3399.57278 0.09028
3398.28701 0.09020
3397.00124 0.09020
3395.71547 0.09041
3394.42970 0.09087
3393.14393 0.09165
3391.85817 0.09277
3390.57240 0.09402
3389.28663 0.09493
3388.00086 0.09499
3386.71509 0.09422
3385.42932 0.09315
3384.14355 0.09243
3382.85778 0.09238
3381.57201 0.09283
3380.28625 0.09335
3379.00048 0.09351
3377.71471 0.09323
3376.42894 0.09279
3375.14317 0.09261
3373.85740 0.09294
3372.57163 0.09370
3371.28586 0.09460
3370.00010 0.09518
3368.71433 0.09515
3367.42856 0.09454
3366.14279 0.09373
3364.85702 0.09321
3363.57125 0.09315
3362.28548 0.09337
3360.99971 0.09359
3359.71394 0.09377
3358.42818 0.09415
3357.14241 0.09487
3355.85664 0.09572
3354.57087 0.09617
3353.28510 0.09589
3351.99933 0.09496
3350.71356 0.09380
3349.42779 0.09281
3348.14202 0.09220
3346.85626 0.09197
3345.57049 0.09216
3344.28472 0.09282
3342.99895 0.09380
3341.71318 0.09467
3340.42741 0.09496
3339.14164 0.09463
3337.85587 0.09418
3336.57011 0.09411
3335.28434 0.09442
3333.99857 0.09484
3332.71280 0.09525
3331.42703 0.09572
3330.14126 0.09619
3328.85549 0.09638
3327.56972 0.09612
3326.28395 0.09556
3324.99819 0.09509
3323.71242 0.09508
3322.42665 0.09569
3321.14088 0.09670
3319.85511 0.09752
3318.56934 0.09761
3317.28357 0.09696
3315.99780 0.09611
3314.71204 0.09578
3313.42627 0.09622
3312.14050 0.09707
3310.85473 0.09773
3309.56896 0.09786
3308.28319 0.09758
3306.99742 0.09725
3305.71165 0.09721
3304.42588 0.09753
3303.14012 0.09793
3301.85435 0.09809
3300.56858 0.09792
3299.28281 0.09769
3297.99704 0.09760
3296.71127 0.09755
3295.42550 0.09724
3294.13973 0.09662
3292.85397 0.09601
3291.56820 0.09583
3290.28243 0.09609
3288.99666 0.09647
3287.71089 0.09664
3286.42512 0.09654
3285.13935 0.09623
3283.85358 0.09576
3282.56781 0.09521
3281.28205 0.09482
3279.99628 0.09479
3278.71051 0.09503
3277.42474 0.09526
3276.13897 0.09538
3274.85320 0.09550
3273.56743 0.09573
3272.28166 0.09598
3270.99590 0.09600
3269.71013 0.09564
3268.42436 0.09511
3267.13859 0.09478
3265.85282 0.09492
3264.56705 0.09557
3263.28128 0.09655
3261.99551 0.09754
3260.70974 0.09804
3259.42398 0.09767
3258.13821 0.09659
3256.85244 0.09542
3255.56667 0.09479
3254.28090 0.09480
3252.99513 0.09500
3251.70936 0.09495
3250.42359 0.09463
3249.13783 0.09438
3247.85206 0.09442
3246.56629 0.09465
3245.28052 0.09483
3243.99475 0.09487
3242.70898 0.09481
3241.42321 0.09462
3240.13744 0.09429
3238.85167 0.09387
3237.56591 0.09347
3236.28014 0.09315
3234.99437 0.09292
3233.70860 0.09276
3232.42283 0.09264
3231.13706 0.09250
3229.85129 0.09232
3228.56552 0.09221
3227.27976 0.09230
3225.99399 0.09249
3224.70822 0.09254
3223.42245 0.09233
3222.13668 0.09199
3220.85091 0.09174
3219.56514 0.09171
3218.27937 0.09191
3216.99360 0.09227
3215.70784 0.09267
3214.42207 0.09288
3213.13630 0.09271
3211.85053 0.09220
3210.56476 0.09164
3209.27899 0.09126
3207.99322 0.09111
3206.70745 0.09118
3205.42169 0.09147
3204.13592 0.09189
3202.85015 0.09212
3201.56438 0.09188
3200.27861 0.09129
3198.99284 0.09078
3197.70707 0.09065
3196.42130 0.09079
3195.13553 0.09088
3193.84977 0.09071
3192.56400 0.09028
3191.27823 0.08971
3189.99246 0.08912
3188.70669 0.08857
3187.42092 0.08815
3186.13515 0.08796
3184.84938 0.08804
3183.56362 0.08822
3182.27785 0.08823
3180.99208 0.08794
3179.70631 0.08751
3178.42054 0.08724
3177.13477 0.08730
3175.84900 0.08758
3174.56323 0.08781
3173.27746 0.08780
3171.99170 0.08763
3170.70593 0.08757
3169.42016 0.08774
3168.13439 0.08803
3166.84862 0.08820
3165.56285 0.08818
3164.27708 0.08799
3162.99131 0.08758
3161.70555 0.08690
3160.41978 0.08605
3159.13401 0.08533
3157.84824 0.08499
3156.56247 0.08505
3155.27670 0.08526
3153.99093 0.08528
3152.70516 0.08495
3151.41939 0.08444
3150.13363 0.08396
3148.84786 0.08357
3147.56209 0.08318
3146.27632 0.08278
3144.99055 0.08238
3143.70478 0.08197
3142.41901 0.08156
3141.13324 0.08134
3139.84748 0.08147
3138.56171 0.08180
3137.27594 0.08204
3135.99017 0.08205
3134.70440 0.08199
3133.41863 0.08197
3132.13286 0.08188
3130.84709 0.08153
3129.56132 0.08091
3128.27556 0.08030
3126.98979 0.07998
3125.70402 0.08004
3124.41825 0.08027
3123.13248 0.08045
3121.84671 0.08053
3120.56094 0.08055
3119.27517 0.08045
3117.98940 0.08010
3116.70364 0.07960
3115.41787 0.07927
3114.13210 0.07931
3112.84633 0.07952
3111.56056 0.07964
3110.27479 0.07961
3108.98902 0.07959
3107.70325 0.07966
3106.41749 0.07977
3105.13172 0.07980
3103.84595 0.07972
3102.56018 0.07965
3101.27441 0.07976
3099.98864 0.07996
3098.70287 0.07995
3097.41710 0.07955
3096.13133 0.07892
3094.84557 0.07838
3093.55980 0.07810
3092.27403 0.07805
3090.98826 0.07815
3089.70249 0.07832
3088.41672 0.07848
3087.13095 0.07859
3085.84518 0.07867
3084.55942 0.07872
3083.27365 0.07871
3081.98788 0.07863
3080.70211 0.07855
3079.41634 0.07857
3078.13057 0.07860
3076.84480 0.07847
3075.55903 0.07808
3074.27326 0.07759
3072.98750 0.07728
3071.70173 0.07720
3070.41596 0.07722
3069.13019 0.07722
3067.84442 0.07724
3066.55865 0.07729
3065.27288 0.07731
3063.98711 0.07723
3062.70135 0.07708
3061.41558 0.07699
3060.12981 0.07703
3058.84404 0.07707
3057.55827 0.07689
3056.27250 0.07636
3054.98673 0.07561
3053.70096 0.07488
3052.41519 0.07439
3051.12943 0.07417
3049.84366 0.07414
3048.55789 0.07424
3047.27212 0.07436
3045.98635 0.07440
3044.70058 0.07430
3043.41481 0.07409
3042.12904 0.07380
3040.84328 0.07352
3039.55751 0.07332
3038.27174 0.07326
3036.98597 0.07333
3035.70020 0.07341
3034.41443 0.07346
3033.12866 0.07348
3031.84289 0.07349
3030.55712 0.07344
3029.27136 0.07325
3027.98559 0.07300
3026.69982 0.07278
3025.41405 0.07260
3024.12828 0.07239
3022.84251 0.07215
3021.55674 0.07199
3020.27097 0.07195
3018.98521 0.07194
3017.69944 0.07181
3016.41367 0.07157
3015.12790 0.07131
3013.84213 0.07117
3012.55636 0.07115
3011.27059 0.07117
3009.98482 0.07116
3008.69905 0.07110
3007.41329 0.07108
3006.12752 0.07112
3004.84175 0.07111
3003.55598 0.07090
3002.27021 0.07047
3000.98444 0.06990
2999.69867 0.06936
2998.41290 0.06912
2997.12714 0.06914
2995.84137 0.06922
2994.55560 0.06912
2993.26983 0.06884
2991.98406 0.06858
2990.69829 0.06850
2989.41252 0.06860
2988.12675 0.06893
2986.84098 0.06954
2985.55522 0.07034
2984.26945 0.07105
2982.98368 0.07134
2981.69791 0.07116
2980.41214 0.07078
2979.12637 0.07060
2977.84060 0.07084
2976.55483 0.07146
2975.26907 0.07225
2973.98330 0.07298
2972.69753 0.07351
2971.41176 0.07378
2970.12599 0.07389
2968.84022 0.07401
2967.55445 0.07431
2966.26868 0.07482
2964.98291 0.07546
2963.69715 0.07612
2962.41138 0.07666
2961.12561 0.07694
2959.83984 0.07696
2958.55407 0.07696
2957.26830 0.07733
2955.98253 0.07826
2954.69676 0.07956
2953.41100 0.08082
2952.12523 0.08176
2950.83946 0.08229
2949.55369 0.08248
2948.26792 0.08250
2946.98215 0.08251
2945.69638 0.08266
2944.41061 0.08294
2943.12484 0.08327
2941.83908 0.08352
2940.55331 0.08360
2939.26754 0.08339
2937.98177 0.08291
2936.69600 0.08233
2935.41023 0.08184
2934.12446 0.08156
2932.83869 0.08145
2931.55293 0.08135
2930.26716 0.08101
2928.98139 0.08020
2927.69562 0.07890
2926.40985 0.07719
2925.12408 0.07504
2923.83831 0.07228
2922.55254 0.06876
2921.26677 0.06458
2919.98101 0.06022
2918.69524 0.05640
2917.40947 0.05397
2916.12370 0.05369
2914.83793 0.05576
2913.55216 0.05956
2912.26639 0.06391
2910.98062 0.06781
2909.69486 0.07082
2908.40909 0.07296
2907.12332 0.07441
2905.83755 0.07531
2904.55178 0.07584
2903.26601 0.07609
2901.98024 0.07604
2900.69447 0.07572
2899.40870 0.07534
2898.12294 0.07514
2896.83717 0.07519
2895.55140 0.07536
2894.26563 0.07550
2892.97986 0.07553
2891.69409 0.07542
2890.40832 0.07517
2889.12255 0.07478
2887.83678 0.07434
2886.55102 0.07400
2885.26525 0.07391
2883.97948 0.07404
2882.69371 0.07414
2881.40794 0.07411
2880.12217 0.07401
2878.83640 0.07397
2877.55063 0.07398
2876.26487 0.07398
2874.97910 0.07403
2873.69333 0.07432
2872.40756 0.07496
2871.12179 0.07585
2869.83602 0.07670
2868.55025 0.07721
2867.26448 0.07725
2865.97871 0.07687
2864.69295 0.07617
2863.40718 0.07524
2862.12141 0.07420
2860.83564 0.07323
2859.54987 0.07244
2858.26410 0.07170
2856.97833 0.07057
2855.69256 0.06861
2854.40680 0.06559
2853.12103 0.06165
2851.83526 0.05737
2850.54949 0.05390
2849.26372 0.05261
2847.97795 0.05414
2846.69218 0.05774
2845.40641 0.06181
2844.12064 0.06502
2842.83488 0.06695
2841.54911 0.06781
2840.26334 0.06800
2838.97757 0.06789
2837.69180 0.06775
2836.40603 0.06768
2835.12026 0.06765
2833.83449 0.06755
2832.54873 0.06732
2831.26296 0.06699
2829.97719 0.06666
2828.69142 0.06647
2827.40565 0.06639
2826.11988 0.06624
2824.83411 0.06585
2823.54834 0.06519
2822.26257 0.06439
2820.97681 0.06364
2819.69104 0.06304
2818.40527 0.06260
2817.11950 0.06232
2815.83373 0.06217
2814.54796 0.06212
2813.26219 0.06209
2811.97642 0.06200
2810.69066 0.06179
2809.40489 0.06149
2808.11912 0.06126
2806.83335 0.06120
2805.54758 0.06125
2804.26181 0.06128
2802.97604 0.06120
2801.69027 0.06108
2800.40450 0.06100
2799.11874 0.06092
2797.83297 0.06072
2796.54720 0.06036
2795.26143 0.05990
2793.97566 0.05946
2792.68989 0.05920
2791.40412 0.05923
2790.11835 0.05946
2788.83259 0.05967
2787.54682 0.05964
2786.26105 0.05941
2784.97528 0.05916
2783.68951 0.05901
2782.40374 0.05897
2781.11797 0.05902
2779.83220 0.05922
2778.54643 0.05957
2777.26067 0.05990
2775.97490 0.05994
2774.68913 0.05955
2773.40336 0.05890
2772.11759 0.05829
2770.83182 0.05794
2769.54605 0.05780
2768.26028 0.05768
2766.97452 0.05748
2765.68875 0.05731
2764.40298 0.05728
2763.11721 0.05735
2761.83144 0.05739
2760.54567 0.05735
2759.25990 0.05728
2757.97413 0.05727
2756.68836 0.05732
2755.40260 0.05738
2754.11683 0.05732
2752.83106 0.05707
2751.54529 0.05666
2750.25952 0.05622
2748.97375 0.05589
2747.68798 0.05571
2746.40221 0.05568
2745.11645 0.05575
2743.83068 0.05587
2742.54491 0.05604
2741.25914 0.05622
2739.97337 0.05638
2738.68760 0.05641
2737.40183 0.05626
2736.11606 0.05601
2734.83029 0.05581
2733.54453 0.05574
2732.25876 0.05573
2730.97299 0.05566
2729.68722 0.05552
2728.40145 0.05537
2727.11568 0.05521
2725.82991 0.05503
2724.54414 0.05490
2723.25838 0.05492
2721.97261 0.05512
2720.68684 0.05536
2719.40107 0.05548
2718.11530 0.05547
2716.82953 0.05532
2715.54376 0.05503
2714.25799 0.05465
2712.97222 0.05430
2711.68646 0.05409
2710.40069 0.05404
2709.11492 0.05408
2707.82915 0.05412
2706.54338 0.05408
2705.25761 0.05391
2703.97184 0.05360
2702.68607 0.05325
2701.40031 0.05300
2700.11454 0.05287
2698.82877 0.05284
2697.54300 0.05285
2696.25723 0.05293
2694.97146 0.05313
2693.68569 0.05347
2692.39992 0.05386
2691.11415 0.05412
2689.82839 0.05415
2688.54262 0.05397
2687.25685 0.05372
2685.97108 0.05351
2684.68531 0.05338
2683.39954 0.05324
2682.11377 0.05306
2680.82800 0.05282
2679.54224 0.05256
2678.25647 0.05227
2676.97070 0.05195
2675.68493 0.05161
2674.39916 0.05132
2673.11339 0.05118
2671.82762 0.05125
2670.54185 0.05144
2669.25608 0.05161
2667.97032 0.05170
2666.68455 0.05173
2665.39878 0.05178
2664.11301 0.05185
2662.82724 0.05194
2661.54147 0.05207
2660.25570 0.05224
2658.96993 0.05239
2657.68417 0.05239
2656.39840 0.05216
2655.11263 0.05179
2653.82686 0.05143
2652.54109 0.05116
2651.25532 0.05094
2649.96955 0.05073
2648.68378 0.05045
2647.39801 0.05010
2646.11225 0.04976
2644.82648 0.04958
2643.54071 0.04962
2642.25494 0.04976
2640.96917 0.04984
2639.68340 0.04977
2638.39763 0.04954
2637.11186 0.04919
2635.82609 0.04875
2634.54033 0.04828
2633.25456 0.04783
2631.96879 0.04750
2630.68302 0.04735
2629.39725 0.04744
2628.11148 0.04766
2626.82571 0.04787
2625.53994 0.04794
2624.25418 0.04786
2622.96841 0.04766
2621.68264 0.04737
2620.39687 0.04712
2619.11110 0.04703
2617.82533 0.04698
2616.53956 0.04674
2615.25379 0.04624
2613.96802 0.04566
2612.68226 0.04521
2611.39649 0.04499
2610.11072 0.04495
2608.82495 0.04504
2607.53918 0.04524
2606.25341 0.04554
2604.96764 0.04581
2603.68187 0.04576
2602.39611 0.04527
2601.11034 0.04457
2599.82457 0.04404
2598.53880 0.04384
2597.25303 0.04376
2595.96726 0.04363
2594.68149 0.04353
2593.39572 0.04365
2592.10995 0.04401
2590.82419 0.04445
2589.53842 0.04462
2588.25265 0.04433
2586.96688 0.04370
2585.68111 0.04317
2584.39534 0.04303
2583.10957 0.04311
2581.82380 0.04301
2580.53804 0.04256
2579.25227 0.04200
2577.96650 0.04169
2576.68073 0.04179
2575.39496 0.04215
2574.10919 0.04254
2572.82342 0.04277
2571.53765 0.04276
2570.25188 0.04258
2568.96612 0.04238
2567.68035 0.04234
2566.39458 0.04246
2565.10881 0.04255
2563.82304 0.04241
2562.53727 0.04195
2561.25150 0.04127
2559.96573 0.04057
2558.67997 0.04009
2557.39420 0.04001
2556.10843 0.04030
2554.82266 0.04070
2553.53689 0.04098
2552.25112 0.04110
2550.96535 0.04119
2549.67958 0.04135
2548.39381 0.04155
2547.10805 0.04164
2545.82228 0.04157
2544.53651 0.04137
2543.25074 0.04112
2541.96497 0.04092
2540.67920 0.04081
2539.39343 0.04079
2538.10766 0.04073
2536.82190 0.04043
2535.53613 0.03986
2534.25036 0.03929
2532.96459 0.03908
2531.67882 0.03945
2530.39305 0.04024
2529.10728 0.04106
2527.82151 0.04153
2526.53574 0.04152
2525.24998 0.04114
2523.96421 0.04065
2522.67844 0.04031
2521.39267 0.04015
2520.10690 0.04008
2518.82113 0.03998
2517.53536 0.03983
2516.24959 0.03965
2514.96383 0.03940
2513.67806 0.03907
2512.39229 0.03877
2511.10652 0.03866
2509.82075 0.03881
2508.53498 0.03912
2507.24921 0.03935
2505.96344 0.03934
2504.67767 0.03913
2503.39191 0.03901
2502.10614 0.03927
2500.82037 0.03984
2499.53460 0.04036
2498.24883 0.04049
2496.96306 0.04016
2495.67729 0.03954
2494.39152 0.03889
2493.10576 0.03846
2491.81999 0.03841
2490.53422 0.03868
2489.24845 0.03908
2487.96268 0.03938
2486.67691 0.03946
2485.39114 0.03932
2484.10537 0.03904
2482.81960 0.03876
2481.53384 0.03855
2480.24807 0.03837
2478.96230 0.03819
2477.67653 0.03807
2476.39076 0.03806
2475.10499 0.03805
2473.81922 0.03791
2472.53345 0.03774
2471.24769 0.03773
2469.96192 0.03789
2468.67615 0.03811
2467.39038 0.03841
2466.10461 0.03893
2464.81884 0.03967
2463.53307 0.04032
2462.24730 0.04047
2460.96153 0.03995
2459.67577 0.03899
2458.39000 0.03807
2457.10423 0.03756
2455.81846 0.03746
2454.53269 0.03758
2453.24692 0.03773
2451.96115 0.03791
2450.67538 0.03810
2449.38962 0.03827
2448.10385 0.03834
2446.81808 0.03820
2445.53231 0.03774
2444.24654 0.03705
2442.96077 0.03646
2441.67500 0.03624
2440.38923 0.03636
2439.10346 0.03658
2437.81770 0.03681
2436.53193 0.03712
2435.24616 0.03744
2433.96039 0.03753
2432.67462 0.03728
2431.38885 0.03691
2430.10308 0.03663
2428.81731 0.03648
2427.53155 0.03635
2426.24578 0.03624
2424.96001 0.03623
2423.67424 0.03633
2422.38847 0.03645
2421.10270 0.03653
2419.81693 0.03661
2418.53116 0.03675
2417.24539 0.03695
2415.95963 0.03711
2414.67386 0.03723
2413.38809 0.03735
2412.10232 0.03752
2410.81655 0.03769
2409.53078 0.03779
2408.24501 0.03783
2406.95924 0.03778
2405.67347 0.03758
2404.38771 0.03718
2403.10194 0.03671
2401.81617 0.03631
2400.53040 0.03595
2399.24463 0.03542
2397.95886 0.03484
2396.67309 0.03439
2395.38732 0.03433
2394.10156 0.03486
2392.81579 0.03583
2391.53002 0.03678
2390.24425 0.03725
2388.95848 0.03710
2387.67271 0.03659
2386.38694 0.03608
2385.10117 0.03579
2383.81540 0.03574
2382.52964 0.03579
2381.24387 0.03586
2379.95810 0.03585
2378.67233 0.03593
2377.38656 0.03598
2376.10079 0.03577
2374.81502 0.03542
2373.52925 0.03572
2372.24349 0.03643
2370.95772 0.03691
2369.67195 0.03705
2368.38618 0.03693
2367.10041 0.03678
2365.81464 0.03668
2364.52887 0.03670
2363.24310 0.03681
2361.95733 0.03703
2360.67157 0.03744
2359.38580 0.03786
2358.10003 0.03820
2356.81426 0.03840
2355.52849 0.03829
2354.24272 0.03764
2352.95695 0.03674
2351.67118 0.03657
2350.38542 0.03682
2349.09965 0.03682
2347.81388 0.03684
2346.52811 0.03729
2345.24234 0.03765
2343.95657 0.03720
2342.67080 0.03600
2341.38503 0.03627
2340.09926 0.03743
2338.81350 0.03731
2337.52773 0.03628
2336.24196 0.03675
2334.95619 0.03763
2333.67042 0.03705
2332.38465 0.03560
2331.09888 0.03636
2329.81311 0.03663
2328.52735 0.03597
2327.24158 0.03675
2325.95581 0.03794
2324.67004 0.03822
2323.38427 0.03785
2322.09850 0.03788
2320.81273 0.03741
2319.52696 0.03700
2318.24119 0.03669
2316.95543 0.03620
2315.66966 0.03596
2314.38389 0.03584
2313.09812 0.03577
2311.81235 0.03594
2310.52658 0.03597
2309.24081 0.03594
2307.95504 0.03606
2306.66928 0.03607
2305.38351 0.03591
2304.09774 0.03544
2302.81197 0.03476
2301.52620 0.03425
2300.24043 0.03409
2298.95466 0.03432
2297.66889 0.03468
2296.38312 0.03484
2295.09736 0.03466
2293.81159 0.03426
2292.52582 0.03395
2291.24005 0.03385
2289.95428 0.03387
2288.66851 0.03382
2287.38274 0.03354
2286.09697 0.03301
2284.81121 0.03224
2283.52544 0.03138
2282.23967 0.03070
2280.95390 0.03047
2279.66813 0.03074
2278.38236 0.03120
2277.09659 0.03136
2275.81082 0.03103
2274.52505 0.03038
2273.23929 0.02984
2271.95352 0.02963
2270.66775 0.02969
2269.38198 0.02978
2268.09621 0.02976
2266.81044 0.02968
2265.52467 0.02967
2264.23890 0.02975
2262.95314 0.02981
2261.66737 0.02964
2260.38160 0.02908
2259.09583 0.02825
2257.81006 0.02746
2256.52429 0.02697
2255.23852 0.02686
2253.95275 0.02693
2252.66698 0.02677
2251.38122 0.02608
2250.09545 0.02508
2248.80968 0.02449
2247.52391 0.02471
2246.23814 0.02577
2244.95237 0.02683
2243.66660 0.02720
2242.38083 0.02685
2241.09507 0.02616
2239.80930 0.02544
2238.52353 0.02488
2237.23776 0.02468
2235.95199 0.02500
2234.66622 0.02573
2233.38045 0.02643
2232.09468 0.02664
2230.80891 0.02628
2229.52315 0.02567
2228.23738 0.02519
2226.95161 0.02502
2225.66584 0.02515
2224.38007 0.02547
2223.09430 0.02581
2221.80853 0.02596
2220.52276 0.02584
2219.23700 0.02557
2217.95123 0.02529
2216.66546 0.02509
2215.37969 0.02492
2214.09392 0.02468
2212.80815 0.02415
2211.52238 0.02316
2210.23661 0.02193
2208.95084 0.02113
2207.66508 0.02140
2206.37931 0.02256
2205.09354 0.02365
2203.80777 0.02376
2202.52200 0.02290
2201.23623 0.02195
2199.95046 0.02160
2198.66469 0.02182
2197.37893 0.02219
2196.09316 0.02237
2194.80739 0.02219
2193.52162 0.02145
2192.23585 0.02026
2190.95008 0.01923
2189.66431 0.01889
2188.37854 0.01900
2187.09277 0.01895
2185.80701 0.01858
2184.52124 0.01841
2183.23547 0.01890
2181.94970 0.01986
2180.66393 0.02077
2179.37816 0.02125
2178.09239 0.02127
2176.80662 0.02088
2175.52085 0.02000
2174.23509 0.01842
2172.94932 0.01610
2171.66355 0.01368
2170.37778 0.01221
2169.09201 0.01238
2167.80624 0.01377
2166.52047 0.01524
2165.23470 0.01599
2163.94894 0.01617
2162.66317 0.01627
2161.37740 0.01633
2160.09163 0.01597
2158.80586 0.01517
2157.52009 0.01437
2156.23432 0.01382
2154.94855 0.01340
2153.66278 0.01321
2152.37702 0.01362
2151.09125 0.01479
2149.80548 0.01633
2148.51971 0.01767
2147.23394 0.01851
2145.94817 0.01880
2144.66240 0.01859
2143.37663 0.01811
2142.09087 0.01775
2140.80510 0.01790
2139.51933 0.01855
2138.23356 0.01916
2136.94779 0.01915
2135.66202 0.01852
2134.37625 0.01798
2133.09048 0.01826
2131.80471 0.01935
2130.51895 0.02056
2129.23318 0.02140
2127.94741 0.02195
2126.66164 0.02247
2125.37587 0.02288
2124.09010 0.02288
2122.80433 0.02240
2121.51856 0.02182
2120.23280 0.02161
2118.94703 0.02196
2117.66126 0.02263
2116.37549 0.02319
2115.08972 0.02337
2113.80395 0.02322
2112.51818 0.02299
2111.23241 0.02280
2109.94664 0.02257
2108.66088 0.02216
2107.37511 0.02155
2106.08934 0.02087
2104.80357 0.02034
2103.51780 0.02014
2102.23203 0.02022
2100.94626 0.02047
2099.66049 0.02232
2098.37473 0.02321
2097.08896 0.02315
2095.80319 0.02282
2094.51742 0.02239
2093.23165 0.02190
2091.94588 0.02139
2090.66011 0.02099
2089.37434 0.02082
2088.08857 0.02091
2086.80281 0.02116
2085.51704 0.02149
2084.23127 0.02178
2082.94550 0.02197
2081.65973 0.02210
2080.37396 0.02225
2079.08819 0.02242
2077.80242 0.02247
2076.51666 0.02233
2075.23089 0.02209
2073.94512 0.02194
2072.65935 0.02203
2071.37358 0.02232
2070.08781 0.02263
2068.80204 0.02268
2067.51627 0.02234
2066.23050 0.02182
2064.94474 0.02146
2063.65897 0.02127
2062.37320 0.02098
2061.08743 0.02034
2059.80166 0.01944
2058.51589 0.01847
2057.23012 0.01759
2055.94435 0.01685
2054.65859 0.01636
2053.37282 0.01632
2052.08705 0.01690
2050.80128 0.01810
2049.51551 0.01957
2048.22974 0.02070
2046.94397 0.02103
2045.65820 0.02053
2044.37243 0.01950
2043.08667 0.01822
2041.80090 0.01691
2040.51513 0.01578
2039.22936 0.01498
2037.94359 0.01456
2036.65782 0.01440
2035.37205 0.01439
2034.08628 0.01452
2032.80052 0.01485
2031.51475 0.01533
2030.22898 0.01568
2028.94321 0.01554
2027.65744 0.01485
2026.37167 0.01408
2025.08590 0.01377
2023.80013 0.01399
2022.51436 0.01442
2021.22860 0.01482
2019.94283 0.01525
2018.65706 0.01576
2017.37129 0.01628
2016.08552 0.01672
2014.79975 0.01709
2013.51398 0.01732
2012.22821 0.01729
2010.94245 0.01700
2009.65668 0.01667
2008.37091 0.01651
2007.08514 0.01649
2005.79937 0.01642
2004.51360 0.01618
2003.22783 0.01590
2001.94206 0.01572
2000.65629 0.01565
1999.37053 0.01564
1998.08476 0.01568
1996.79899 0.01575
1995.51322 0.01569
1994.22745 0.01540
1992.94168 0.01509
1991.65591 0.01515
1990.37014 0.01575
1989.08438 0.01653
1987.79861 0.01691
1986.51284 0.01665
1985.22707 0.01607
1983.94130 0.01576
1982.65553 0.01609
1981.36976 0.01696
1980.08399 0.01796
1978.79822 0.01870
1977.51246 0.01897
1976.22669 0.01892
1974.94092 0.01895
1973.65515 0.01943
1972.36938 0.02028
1971.08361 0.02112
1969.79784 0.02160
1968.51207 0.02166
1967.22631 0.02140
1965.94054 0.02088
1964.65477 0.02013
1963.36900 0.01939
1962.08323 0.01903
1960.79746 0.01914
1959.51169 0.01941
1958.22592 0.01946
1956.94015 0.01916
1955.65439 0.01867
1954.36862 0.01816
1953.08285 0.01779
1951.79708 0.01769
1950.51131 0.01780
1949.22554 0.01791
1947.93977 0.01792
1946.65400 0.01800
1945.36823 0.01840
1944.08247 0.01910
1942.79670 0.01975
1941.51093 0.02006
1940.22516 0.01996
1938.93939 0.01959
1937.65362 0.01916
1936.36785 0.01891
1935.08208 0.01901
1933.79632 0.01942
1932.51055 0.01992
1931.22478 0.02021
1929.93901 0.02020
1928.65324 0.02006
1927.36747 0.02006
1926.08170 0.02036
1924.79593 0.02083
1923.51016 0.02115
1922.22440 0.02108
1920.93863 0.02063
1919.65286 0.02007
1918.36709 0.01970
1917.08132 0.01971
1915.79555 0.02005
1914.50978 0.02061
1913.22401 0.02124
1911.93825 0.02172
1910.65248 0.02188
1909.36671 0.02172
1908.08094 0.02145
1906.79517 0.02131
1905.50940 0.02139
1904.22363 0.02156
1902.93786 0.02171
1901.65209 0.02183
1900.36633 0.02196
1899.08056 0.02205
1897.79479 0.02198
1896.50902 0.02176
1895.22325 0.02150
1893.93748 0.02137
1892.65171 0.02142
1891.36594 0.02155
1890.08018 0.02160
1888.79441 0.02153
1887.50864 0.02138
1886.22287 0.02126
1884.93710 0.02125
1883.65133 0.02135
1882.36556 0.02143
1881.07979 0.02132
1879.79402 0.02093
1878.50826 0.02042
1877.22249 0.02008
1875.93672 0.02011
1874.65095 0.02049
1873.36518 0.02098
1872.07941 0.02135
1870.79364 0.02149
1869.50787 0.02142
1868.22211 0.02125
1866.93634 0.02112
1865.65057 0.02113
1864.36480 0.02130
1863.07903 0.02159
1861.79326 0.02187
1860.50749 0.02202
1859.22172 0.02201
1857.93595 0.02184
1856.65019 0.02163
1855.36442 0.02153
1854.07865 0.02165
1852.79288 0.02196
1851.50711 0.02226
1850.22134 0.02234
1848.93557 0.02213
1847.64980 0.02176
1846.36404 0.02139
1845.07827 0.02120
1843.79250 0.02124
1842.50673 0.02140
1841.22096 0.02149
1839.93519 0.02140
1838.64942 0.02123
1837.36365 0.02105
1836.07788 0.02091
1834.79212 0.02086
1833.50635 0.02091
1832.22058 0.02098
1830.93481 0.02105
1829.64904 0.02118
1828.36327 0.02142
1827.07750 0.02173
1825.79173 0.02200
1824.50597 0.02221
1823.22020 0.02237
1821.93443 0.02252
1820.64866 0.02265
1819.36289 0.02267
1818.07712 0.02245
1816.79135 0.02205
1815.50558 0.02164
1814.21981 0.02135
1812.93405 0.02115
1811.64828 0.02094
1810.36251 0.02074
1809.07674 0.02066
1807.79097 0.02077
1806.50520 0.02097
1805.21943 0.02111
1803.93366 0.02114
1802.64790 0.02111
1801.36213 0.02112
1800.07636 0.02116
1798.79059 0.02120
1797.50482 0.02125
1796.21905 0.02134
1794.93328 0.02145
1793.64751 0.02152
1792.36174 0.02160
1791.07598 0.02173
1789.79021 0.02187
1788.50444 0.02194
1787.21867 0.02191
1785.93290 0.02183
1784.64713 0.02175
1783.36136 0.02172
1782.07559 0.02171
1780.78983 0.02174
1779.50406 0.02181
1778.21829 0.02189
1776.93252 0.02195
1775.64675 0.02201
1774.36098 0.02202
1773.07521 0.02201
1771.78944 0.02204
1770.50367 0.02207
1769.21791 0.02203
1767.93214 0.02197
1766.64637 0.02202
1765.36060 0.02212
1764.07483 0.02216
1762.78906 0.02209
1761.50329 0.02200
1760.21752 0.02197
1758.93176 0.02198
1757.64599 0.02205
1756.36022 0.02225
1755.07445 0.02251
1753.78868 0.02262
1752.50291 0.02254
1751.21714 0.02239
1749.93137 0.02234
1748.64560 0.02235
1747.35984 0.02238
1746.07407 0.02242
1744.78830 0.02250
1743.50253 0.02263
1742.21676 0.02277
1740.93099 0.02286
1739.64522 0.02295
1738.35945 0.02316
1737.07369 0.02341
1735.78792 0.02354
1734.50215 0.02358
1733.21638 0.02367
1731.93061 0.02378
1730.64484 0.02378
1729.35907 0.02374
1728.07330 0.02379
1726.78753 0.02389
1725.50177 0.02399
1724.21600 0.02412
1722.93023 0.02438
1721.64446 0.02477
1720.35869 0.02517
1719.07292 0.02546
1717.78715 0.02572
1716.50138 0.02605
1715.21561 0.02637
1713.92985 0.02663
1712.64408 0.02693
1711.35831 0.02736
1710.07254 0.02794
1708.78677 0.02859
1707.50100 0.02922
1706.21523 0.02987
1704.92946 0.03073
1703.64370 0.03182
1702.35793 0.03296
1701.07216 0.03406
1699.78639 0.03525
1698.50062 0.03638
1697.21485 0.03716
1695.92908 0.03772
1694.64331 0.03847
1693.35754 0.03938
1692.07178 0.04026
1690.78601 0.04118
1689.50024 0.04234
1688.21447 0.04369
1686.92870 0.04501
1685.64293 0.04617
1684.35716 0.04733
1683.07139 0.04853
1681.78563 0.04958
1680.49986 0.05043
1679.21409 0.05131
1677.92832 0.05230
1676.64255 0.05331
1675.35678 0.05437
1674.07101 0.05557
1672.78524 0.05684
1671.49947 0.05808
1670.21371 0.05925
1668.92794 0.06039
1667.64217 0.06148
1666.35640 0.06250
1665.07063 0.06344
1663.78486 0.06439
1662.49909 0.06539
1661.21332 0.06639
1659.92756 0.06733
1658.64179 0.06830
1657.35602 0.06942
1656.07025 0.07057
1654.78448 0.07148
1653.49871 0.07216
1652.21294 0.07285
1650.92717 0.07355
1649.64140 0.07406
1648.35564 0.07437
1647.06987 0.07469
1645.78410 0.07507
1644.49833 0.07539
1643.21256 0.07552
1641.92679 0.07553
1640.64102 0.07557
1639.35525 0.07571
1638.06949 0.07579
1636.78372 0.07568
1635.49795 0.07539
1634.21218 0.07498
1632.92641 0.07443
1631.64064 0.07374
1630.35487 0.07303
1629.06910 0.07238
1627.78333 0.07178
1626.49757 0.07118
1625.21180 0.07048
1623.92603 0.06968
1622.64026 0.06892
1621.35449 0.06828
1620.06872 0.06772
1618.78295 0.06714
1617.49718 0.06653
1616.21142 0.06601
1614.92565 0.06550
1613.63988 0.06485
1612.35411 0.06409
1611.06834 0.06342
1609.78257 0.06295
1608.49680 0.06266
1607.21103 0.06246
1605.92526 0.06226
1604.63950 0.06207
1603.35373 0.06188
1602.06796 0.06173
1600.78219 0.06164
1599.49642 0.06158
1598.21065 0.06156
1596.92488 0.06155
1595.63911 0.06154
1594.35335 0.06154
1593.06758 0.06156
1591.78181 0.06161
1590.49604 0.06170
1589.21027 0.06183
1587.92450 0.06197
1586.63873 0.06209
1585.35296 0.06217
1584.06719 0.06222
1582.78143 0.06231
1581.49566 0.06252
1580.20989 0.06290
1578.92412 0.06338
1577.63835 0.06382
1576.35258 0.06429
1575.06681 0.06491
1573.78104 0.06559
1572.49528 0.06616
1571.20951 0.06663
1569.92374 0.06715
1568.63797 0.06773
1567.35220 0.06826
1566.06643 0.06870
1564.78066 0.06917
1563.49489 0.06979
1562.20912 0.07040
1560.92336 0.07079
1559.63759 0.07103
1558.35182 0.07128
1557.06605 0.07150
1555.78028 0.07150
1554.49451 0.07134
1553.20874 0.07121
1551.92297 0.07112
1550.63721 0.07092
1549.35144 0.07062
1548.06567 0.07026
1546.77990 0.06985
1545.49413 0.06945
1544.20836 0.06912
1542.92259 0.06879
1541.63682 0.06838
1540.35105 0.06791
1539.06529 0.06756
1537.77952 0.06739
1536.49375 0.06727
1535.20798 0.06709
1533.92221 0.06695
1532.63644 0.06692
1531.35067 0.06689
1530.06490 0.06681
1528.77914 0.06673
1527.49337 0.06673
1526.20760 0.06686
1524.92183 0.06709
1523.63606 0.06730
1522.35029 0.06744
1521.06452 0.06763
1519.77875 0.06794
1518.49298 0.06825
1517.20722 0.06851
1515.92145 0.06881
1514.63568 0.06917
1513.34991 0.06954
1512.06414 0.07003
1510.77837 0.07074
1509.49260 0.07156
1508.20683 0.07230
1506.92107 0.07288
1505.63530 0.07339
1504.34953 0.07385
1503.06376 0.07419
1501.77799 0.07446
1500.49222 0.07477
1499.20645 0.07510
1497.92068 0.07539
1496.63491 0.07564
1495.34915 0.07592
1494.06338 0.07619
1492.77761 0.07636
1491.49184 0.07648
1490.20607 0.07670
1488.92030 0.07710
1487.63453 0.07762
1486.34876 0.07822
1485.06299 0.07886
1483.77723 0.07949
1482.49146 0.08013
1481.20569 0.08082
1479.91992 0.08158
1478.63415 0.08236
1477.34838 0.08311
1476.06261 0.08378
1474.77684 0.08436
1473.49108 0.08493
1472.20531 0.08566
1470.91954 0.08655
1469.63377 0.08747
1468.34800 0.08826
1467.06223 0.08893
1465.77646 0.08954
1464.49069 0.09026
1463.20492 0.09119
1461.91916 0.09236
1460.63339 0.09372
1459.34762 0.09509
1458.06185 0.09629
1456.77608 0.09736
1455.49031 0.09832
1454.20454 0.09908
1452.91877 0.09960
1451.63301 0.10003
1450.34724 0.10045
1449.06147 0.10082
1447.77570 0.10111
1446.48993 0.10129
1445.20416 0.10134
1443.91839 0.10126
1442.63262 0.10108
1441.34685 0.10088
1440.06109 0.10068
1438.77532 0.10044
1437.48955 0.10021
1436.20378 0.10012
1434.91801 0.10020
1433.63224 0.10039
1432.34647 0.10067
1431.06070 0.10112
1429.77494 0.10179
1428.48917 0.10263
1427.20340 0.10355
1425.91763 0.10448
1424.63186 0.10546
1423.34609 0.10655
1422.06032 0.10772
1420.77455 0.10885
1419.48878 0.10993
1418.20302 0.11097
1416.91725 0.11190
1415.63148 0.11265
1414.34571 0.11324
1413.05994 0.11370
1411.77417 0.11403
1410.48840 0.11420
1409.20263 0.11422
1407.91687 0.11406
1406.63110 0.11370
1405.34533 0.11315
1404.05956 0.11246
1402.77379 0.11165
1401.48802 0.11071
1400.20225 0.10961
1398.91648 0.10838
1397.63071 0.10700
1396.34495 0.10547
1395.05918 0.10386
1393.77341 0.10228
1392.48764 0.10077
1391.20187 0.09927
1389.91610 0.09772
1388.63033 0.09615
1387.34456 0.09462
1386.05880 0.09314
1384.77303 0.09167
1383.48726 0.09016
1382.20149 0.08864
1380.91572 0.08715
1379.62995 0.08567
1378.34418 0.08419
1377.05841 0.08267
1375.77264 0.08106
1374.48688 0.07932
1373.20111 0.07747
1371.91534 0.07556
1370.62957 0.07369
1369.34380 0.07195
1368.05803 0.07039
1366.77226 0.06897
1365.48649 0.06757
1364.20073 0.06613
1362.91496 0.06467
1361.62919 0.06324
1360.34342 0.06190
1359.05765 0.06067
1357.77188 0.05957
1356.48611 0.05858
1355.20034 0.05768
1353.91457 0.05687
1352.62881 0.05613
1351.34304 0.05545
1350.05727 0.05480
1348.77150 0.05417
1347.48573 0.05358
1346.19996 0.05306
1344.91419 0.05259
1343.62842 0.05215
1342.34266 0.05169
1341.05689 0.05121
1339.77112 0.05075
1338.48535 0.05033
1337.19958 0.04995
1335.91381 0.04956
1334.62804 0.04912
1333.34227 0.04862
1332.05650 0.04807
1330.77074 0.04750
1329.48497 0.04694
1328.19920 0.04641
1326.91343 0.04593
1325.62766 0.04552
1324.34189 0.04518
1323.05612 0.04490
1321.77035 0.04465
1320.48459 0.04438
1319.19882 0.04407
1317.91305 0.04372
1316.62728 0.04334
1315.34151 0.04294
1314.05574 0.04254
1312.76997 0.04213
1311.48420 0.04175
1310.19843 0.04140
1308.91267 0.04108
1307.62690 0.04078
1306.34113 0.04052
1305.05536 0.04026
1303.76959 0.04002
1302.48382 0.03977
1301.19805 0.03952
1299.91228 0.03925
1298.62652 0.03897
1297.34075 0.03870
1296.05498 0.03845
1294.76921 0.03823
1293.48344 0.03809
1292.19767 0.03801
1290.91190 0.03795
1289.62613 0.03783
1288.34036 0.03763
1287.05460 0.03740
1285.76883 0.03721
1284.48306 0.03706
1283.19729 0.03693
1281.91152 0.03679
1280.62575 0.03664
1279.33998 0.03649
1278.05421 0.03634
1276.76845 0.03618
1275.48268 0.03601
1274.19691 0.03584
1272.91114 0.03568
1271.62537 0.03553
1270.33960 0.03541
1269.05383 0.03530
1267.76806 0.03521
1266.48229 0.03510
1265.19653 0.03498
1263.91076 0.03488
1262.62499 0.03482
1261.33922 0.03478
1260.05345 0.03474
1258.76768 0.03472
1257.48191 0.03469
1256.19614 0.03467
1254.91037 0.03464
1253.62461 0.03460
1252.33884 0.03455
1251.05307 0.03451
1249.76730 0.03448
1248.48153 0.03446
1247.19576 0.03441
1245.90999 0.03434
1244.62422 0.03425
1243.33846 0.03417
1242.05269 0.03409
1240.76692 0.03398
1239.48115 0.03381
1238.19538 0.03362
1236.90961 0.03341
1235.62384 0.03320
1234.33807 0.03301
1233.05230 0.03282
1231.76654 0.03261
1230.48077 0.03239
1229.19500 0.03214
1227.90923 0.03189
1226.62346 0.03165
1225.33769 0.03139
1224.05192 0.03110
1222.76615 0.03076
1221.48039 0.03041
1220.19462 0.03008
1218.90885 0.02977
1217.62308 0.02947
1216.33731 0.02919
1215.05154 0.02895
1213.76577 0.02877
1212.48000 0.02860
1211.19423 0.02842
1209.90847 0.02825
1208.62270 0.02811
1207.33693 0.02806
1206.05116 0.02806
1204.76539 0.02810
1203.47962 0.02812
1202.19385 0.02809
1200.90808 0.02791
1199.62232 0.02756
1198.33655 0.02742
1197.05078 0.02725
1195.76501 0.02702
1194.47924 0.02677
1193.19347 0.02651
1191.90770 0.02622
1190.62193 0.02592
1189.33616 0.02565
1188.05040 0.02543
1186.76463 0.02524
1185.47886 0.02504
1184.19309 0.02483
1182.90732 0.02464
1181.62155 0.02452
1180.33578 0.02445
1179.05001 0.02438
1177.76425 0.02429
1176.47848 0.02420
1175.19271 0.02417
1173.90694 0.02420
1172.62117 0.02422
1171.33540 0.02420
1170.04963 0.02414
1168.76386 0.02406
1167.47809 0.02401
1166.19233 0.02398
1164.90656 0.02401
1163.62079 0.02408
1162.33502 0.02418
1161.04925 0.02426
1159.76348 0.02427
1158.47771 0.02424
1157.19194 0.02421
1155.90618 0.02421
1154.62041 0.02425
1153.33464 0.02432
1152.04887 0.02445
1150.76310 0.02463
1149.47733 0.02489
1148.19156 0.02519
1146.90579 0.02553
1145.62002 0.02591
1144.33426 0.02632
1143.04849 0.02682
1141.76272 0.02745
1140.47695 0.02820
1139.19118 0.02902
1137.90541 0.02987
1136.61964 0.03076
1135.33387 0.03179
1134.04811 0.03301
1132.76234 0.03443
1131.47657 0.03606
1130.19080 0.03791
1128.90503 0.04000
1127.61926 0.04234
1126.33349 0.04493
1125.04772 0.04772
1123.76195 0.05068
1122.47619 0.05377
1121.19042 0.05697
1119.90465 0.06025
1118.61888 0.06355
1117.33311 0.06683
1116.04734 0.07003
1114.76157 0.07313
1113.47580 0.07613
1112.19004 0.07904
1110.90427 0.08186
1109.61850 0.08459
1108.33273 0.08722
1107.04696 0.08977
1105.76119 0.09223
1104.47542 0.09462
1103.18965 0.09691
1101.90388 0.09905
1100.61812 0.10104
1099.33235 0.10291
1098.04658 0.10475
1096.76081 0.10658
1095.47504 0.10835
1094.18927 0.11002
1092.90350 0.11159
1091.61773 0.11305
1090.33197 0.11438
1089.04620 0.11557
1087.76043 0.11666
1086.47466 0.11776
1085.18889 0.11894
1083.90312 0.12024
1082.61735 0.12164
1081.33158 0.12317
1080.04581 0.12482
1078.76005 0.12659
1077.47428 0.12844
1076.18851 0.13035
1074.90274 0.13232
1073.61697 0.13441
1072.33120 0.13666
1071.04543 0.13907
1069.75966 0.14161
1068.47390 0.14425
1067.18813 0.14692
1065.90236 0.14959
1064.61659 0.15224
1063.33082 0.15489
1062.04505 0.15756
1060.75928 0.16024
1059.47351 0.16291
1058.18774 0.16557
1056.90198 0.16825
1055.61621 0.17095
1054.33044 0.17364
1053.04467 0.17634
1051.75890 0.17908
1050.47313 0.18189
1049.18736 0.18478
1047.90159 0.18774
1046.61583 0.19076
1045.33006 0.19385
1044.04429 0.19700
1042.75852 0.20022
1041.47275 0.20349
1040.18698 0.20681
1038.90121 0.21019
1037.61544 0.21363
1036.32967 0.21705
1035.04391 0.22041
1033.75814 0.22371
1032.47237 0.22691
1031.18660 0.22993
1029.90083 0.23262
1028.61506 0.23498
1027.32929 0.23709
1026.04352 0.23900
1024.75775 0.24070
1023.47199 0.24214
1022.18622 0.24328
1020.90045 0.24408
1019.61468 0.24447
1018.32891 0.24441
1017.04314 0.24396
1015.75737 0.24318
1014.47160 0.24209
1013.18584 0.24064
1011.90007 0.23876
1010.61430 0.23644
1009.32853 0.23372
1008.04276 0.23067
1006.75699 0.22732
1005.47122 0.22368
1004.18545 0.21977
1002.89968 0.21562
1001.61392 0.21127
1000.32815 0.20670
999.04238 0.20194
997.75661 0.19704
996.47084 0.19207
995.18507 0.18699
993.89930 0.18175
992.61353 0.17633
991.32777 0.17082
990.04200 0.16534
988.75623 0.16000
987.47046 0.15486
986.18469 0.14997
984.89892 0.14530
983.61315 0.14083
982.32738 0.13656
981.04161 0.13249
979.75585 0.12862
978.47008 0.12494
977.18431 0.12149
975.89854 0.11829
974.61277 0.11540
973.32700 0.11288
972.04123 0.11083
970.75546 0.10930
969.46970 0.10834
968.18393 0.10795
966.89816 0.10804
965.61239 0.10847
964.32662 0.10900
963.04085 0.10949
961.75508 0.10982
960.46931 0.10983
959.18354 0.10936
957.89778 0.10832
956.61201 0.10682
955.32624 0.10502
954.04047 0.10303
952.75470 0.10089
951.46893 0.09866
950.18316 0.09641
948.89739 0.09421
947.61163 0.09208
946.32586 0.09002
945.04009 0.08801
943.75432 0.08604
942.46855 0.08409
941.18278 0.08221
939.89701 0.08043
938.61124 0.07876
937.32547 0.07718
936.03971 0.07568
934.75394 0.07430
933.46817 0.07305
932.18240 0.07188
930.89663 0.07074
929.61086 0.06959
928.32509 0.06850
927.03932 0.06751
925.75356 0.06660
924.46779 0.06571
923.18202 0.06482
921.89625 0.06397
920.61048 0.06318
919.32471 0.06245
918.03894 0.06171
916.75317 0.06096
915.46740 0.06019
914.18164 0.05944
912.89587 0.05877
911.61010 0.05823
910.32433 0.05780
909.03856 0.05739
907.75279 0.05691
906.46702 0.05635
905.18125 0.05576
903.89549 0.05520
902.60972 0.05467
901.32395 0.05415
900.03818 0.05361
898.75241 0.05307
897.46664 0.05259
896.18087 0.05219
894.89510 0.05183
893.60933 0.05146
892.32357 0.05107
891.03780 0.05074
889.75203 0.05054
888.46626 0.05055
887.18049 0.05084
885.89472 0.05151
884.60895 0.05274
883.32318 0.05464
882.03742 0.05709
880.75165 0.05971
879.46588 0.06198
878.18011 0.06369
876.89434 0.06503
875.60857 0.06633
874.32280 0.06775
873.03703 0.06915
871.75126 0.07015
870.46550 0.07045
869.17973 0.06998
867.89396 0.06888
866.60819 0.06731
865.32242 0.06538
864.03665 0.06326
862.75088 0.06113
861.46511 0.05919
860.17935 0.05751
858.89358 0.05608
857.60781 0.05484
856.32204 0.05378
855.03627 0.05291
853.75050 0.05218
852.46473 0.05157
851.17896 0.05106
849.89319 0.05057
848.60743 0.05004
847.32166 0.04944
846.03589 0.04889
844.75012 0.04847
843.46435 0.04815
842.17858 0.04786
840.89281 0.04756
839.60704 0.04727
838.32128 0.04702
837.03551 0.04683
835.74974 0.04668
834.46397 0.04654
833.17820 0.04638
831.89243 0.04620
830.60666 0.04600
829.32089 0.04579
828.03512 0.04555
826.74936 0.04530
825.46359 0.04512
824.17782 0.04504
822.89205 0.04503
821.60628 0.04504
820.32051 0.04507
819.03474 0.04509
817.74897 0.04506
816.46321 0.04495
815.17744 0.04480
813.89167 0.04470
812.60590 0.04464
811.32013 0.04452
810.03436 0.04430
808.74859 0.04405
807.46282 0.04389
806.17705 0.04385
804.89129 0.04386
803.60552 0.04386
802.31975 0.04385
801.03398 0.04386
799.74821 0.04383
798.46244 0.04372
797.17667 0.04353
795.89090 0.04338
794.60513 0.04331
793.31937 0.04330
792.03360 0.04328
790.74783 0.04324
789.46206 0.04323
788.17629 0.04323
786.89052 0.04322
785.60475 0.04317
784.31898 0.04304
783.03322 0.04286
781.74745 0.04269
780.46168 0.04259
779.17591 0.04260
777.89014 0.04267
776.60437 0.04272
775.31860 0.04272
774.03283 0.04267
772.74706 0.04261
771.46130 0.04253
770.17553 0.04245
768.88976 0.04243
767.60399 0.04249
766.31822 0.04261
765.03245 0.04270
763.74668 0.04264
762.46091 0.04242
761.17515 0.04219
759.88938 0.04215
758.60361 0.04236
757.31784 0.04271
756.03207 0.04297
754.74630 0.04304
753.46053 0.04296
752.17476 0.04286
750.88899 0.04284
749.60323 0.04290
748.31746 0.04295
747.03169 0.04296
745.74592 0.04293
744.46015 0.04284
743.17438 0.04269
741.88861 0.04251
740.60284 0.04238
739.31708 0.04234
738.03131 0.04234
736.74554 0.04229
735.45977 0.04218
734.17400 0.04207
732.88823 0.04200
731.60246 0.04196
730.31669 0.04194
729.03092 0.04192
727.74516 0.04194
726.45939 0.04199
725.17362 0.04199
723.88785 0.04182
722.60208 0.04171
721.31631 0.04171
720.03054 0.04179
718.74477 0.04191
717.45901 0.04202
716.17324 0.04210
714.88747 0.04214
713.60170 0.04217
712.31593 0.04214
711.03016 0.04207
709.74439 0.04197
708.45862 0.04188
707.17285 0.04185
705.88709 0.04187
704.60132 0.04192
703.31555 0.04194
702.02978 0.04194
700.74401 0.04192
699.45824 0.04188
698.17247 0.04185
696.88670 0.04181
695.60094 0.04178
694.31517 0.04175
693.02940 0.04171
691.74363 0.04168
690.45786 0.04167
689.17209 0.04168
687.88632 0.04165
686.60055 0.04151
685.31478 0.04129
684.02902 0.04106
682.74325 0.04090
681.45748 0.04080
680.17171 0.04074
678.88594 0.04067
677.60017 0.04061
676.31440 0.04062
675.02863 0.04069
673.74287 0.04080
672.45710 0.04094
671.17133 0.04113
669.88556 0.04134
668.59979 0.04149
667.31402 0.04150
666.02825 0.04145
664.74248 0.04128
663.45671 0.04102
662.17095 0.04073
660.88518 0.04046
659.59941 0.04023
658.31364 0.04007
657.02787 0.03995
655.74210 0.03981
654.45633 0.03964
653.17056 0.03944
651.88480 0.03925
650.59903 0.03912
649.31326 0.03905
648.02749 0.03900
646.74172 0.03892
645.45595 0.03883
644.17018 0.03872
642.88441 0.03855
641.59864 0.03832
640.31288 0.03806
639.02711 0.03783
637.74134 0.03772
636.45557 0.03771
635.16980 0.03777
633.88403 0.03784
632.59826 0.03788
631.31249 0.03819
630.02673 0.03977
628.74096 0.04223
627.45519 0.04179
626.16942 0.04522
624.88365 0.05126
623.59788 0.05682
622.31211 0.06029
621.02634 0.06148
619.74057 0.06142
618.45481 0.06143
617.16904 0.06196
615.88327 0.06272
614.59750 0.06357
613.31173 0.06527
612.02596 0.06909
610.74019 0.07549
609.45442 0.08325
608.16866 0.09043
606.88289 0.09605
605.59712 0.10030
604.31135 0.10361
603.02558 0.10595
601.73981 0.10691
600.45404 0.10621
599.16827 0.10404
597.88250 0.10091
596.59674 0.09746
595.31097 0.09415
594.02520 0.09127
592.73943 0.08884
591.45366 0.08682
590.16789 0.08529
588.88212 0.08445
587.59635 0.08440
586.31059 0.08505
585.02482 0.08615
583.73905 0.08752
582.45328 0.08912
581.16751 0.09097
579.88174 0.09310
578.59597 0.09545
577.31020 0.09788
576.02443 0.10024
574.73867 0.10244
573.45290 0.10454
572.16713 0.10673
570.88136 0.10915
569.59559 0.11191
568.30982 0.11505
567.02405 0.11855
565.73828 0.12226
564.45251 0.12587
563.16675 0.12896
561.88098 0.13105
560.59521 0.13172
559.30944 0.13080
558.02367 0.12834
556.73790 0.12469
555.45213 0.12023
554.16636 0.11534
552.88060 0.11028
551.59483 0.10527
550.30906 0.10050
549.02329 0.09609
547.73752 0.09209
546.45175 0.08851
545.16598 0.08540
543.88021 0.08277
542.59444 0.08046
541.30868 0.07825
540.02291 0.07599
538.73714 0.07373
537.45137 0.07160
536.16560 0.06969
534.87983 0.06800
533.59406 0.06650
532.30829 0.06518
531.02253 0.06399
529.73676 0.06287
528.45099 0.06176
527.16522 0.06059
525.87945 0.05936
524.59368 0.05813
523.30791 0.05701
522.02214 0.05605
520.73637 0.05524
519.45061 0.05449
518.16484 0.05370
516.87907 0.05285
515.59330 0.05200
514.30753 0.05122
513.02176 0.05053
511.73599 0.04988
510.45022 0.04921
509.16446 0.04851
507.87869 0.04779
506.59292 0.04709
505.30715 0.04638
504.02138 0.04566
502.73561 0.04496
501.44984 0.04435
500.16407 0.04392
498.87830 0.04363
497.59254 0.04334
496.30677 0.04295
495.02100 0.04245
493.73523 0.04191
492.44946 0.04140
491.16369 0.04094
489.87792 0.04054
488.59215 0.04019
487.30639 0.03990
486.02062 0.03964
484.73485 0.03938
483.44908 0.03911
482.16331 0.03880
480.87754 0.03852
479.59177 0.03834
478.30600 0.03831
477.02023 0.03843
475.73447 0.03861
474.44870 0.03879
473.16293 0.03894
471.87716 0.03902
470.59139 0.03898
469.30562 0.03882
468.01985 0.03858
466.73408 0.03829
465.44832 0.03799
464.16255 0.03768
462.87678 0.03737
461.59101 0.03702
460.30524 0.03659
459.01947 0.03609
457.73370 0.03561
456.44793 0.03521
455.16216 0.03488
453.87640 0.03452
452.59063 0.03409
451.30486 0.03362
450.01909 0.03318
448.73332 0.03282
447.44755 0.03256
446.16178 0.03237
444.87601 0.03217
443.59025 0.03193
442.30448 0.03162
441.01871 0.03129
439.73294 0.03098
438.44717 0.03073
437.16140 0.03054
435.87563 0.03040
434.58986 0.03030
433.30409 0.03023
432.01833 0.03017
430.73256 0.03006
429.44679 0.02980
428.16102 0.02943
426.87525 0.02905
425.58948 0.02880
424.30371 0.02866
423.01794 0.02855
421.73218 0.02840
420.44641 0.02820
419.16064 0.02800
417.87487 0.02782
416.58910 0.02762
415.30333 0.02737
414.01756 0.02712
412.73179 0.02691
411.44602 0.02675
410.16026 0.02663
408.87449 0.02656
407.58872 0.02651
406.30295 0.02647
405.01718 0.02642
403.73141 0.02638
402.44564 0.02631
401.15987 0.02622
399.87411 0.02612
