3997.45528 0.06612
3996.16951 0.06537
3994.88374 0.06523
3993.59798 0.06525
3992.31221 0.06501
3991.02644 0.06453
3989.74067 0.06421
3988.45490 0.06441
3987.16913 0.06501
3985.88336 0.06534
3984.59759 0.06481
3983.31183 0.06348
3982.02606 0.06197
3980.74029 0.06085
3979.45452 0.06034
3978.16875 0.06032
3976.88298 0.06058
3975.59721 0.06088
3974.31144 0.06104
3973.02567 0.06111
3971.73991 0.06130
3970.45414 0.06172
3969.16837 0.06217
3967.88260 0.06233
3966.59683 0.06203
3965.31106 0.06137
3964.02529 0.06057
3962.73952 0.05991
3961.45376 0.05969
3960.16799 0.06019
3958.88222 0.06144
3957.59645 0.06313
3956.31068 0.06453
3955.02491 0.06487
3953.73914 0.06385
3952.45337 0.06192
3951.16760 0.06008
3949.88184 0.05925
3948.59607 0.05982
3947.31030 0.06151
3946.02453 0.06355
3944.73876 0.06502
3943.45299 0.06536
3942.16722 0.06453
3940.88145 0.06302
3939.59569 0.06155
3938.30992 0.06075
3937.02415 0.06066
3935.73838 0.06078
3934.45261 0.06067
3933.16684 0.06040
3931.88107 0.06022
3930.59530 0.06017
3929.30953 0.06006
3928.02377 0.05976
3926.73800 0.05929
3925.45223 0.05882
3924.16646 0.05859
3922.88069 0.05872
3921.59492 0.05929
3920.30915 0.06042
3919.02338 0.06196
3917.73762 0.06339
3916.45185 0.06423
3915.16608 0.06448
3913.88031 0.06457
3912.59454 0.06502
3911.30877 0.06593
3910.02300 0.06679
3908.73723 0.06702
3907.45146 0.06646
3906.16570 0.06544
3904.87993 0.06449
3903.59416 0.06375
3902.30839 0.06288
3901.02262 0.06168
3899.73685 0.06062
3898.45108 0.06034
3897.16531 0.06080
3895.87955 0.06136
3894.59378 0.06148
3893.30801 0.06107
3892.02224 0.06044
3890.73647 0.06001
3889.45070 0.05982
3888.16493 0.05954
3886.87916 0.05937
3885.59339 0.05979
3884.30763 0.06054
3883.02186 0.06066
3881.73609 0.05992
3880.45032 0.05927
3879.16455 0.05957
3877.87878 0.06057
3876.59301 0.06151
3875.30724 0.06203
3874.02148 0.06202
3872.73571 0.06118
3871.44994 0.05954
3870.16417 0.05824
3868.87840 0.05829
3867.59263 0.05908
3866.30686 0.05946
3865.02109 0.05933
3863.73532 0.05912
3862.44956 0.05884
3861.16379 0.05860
3859.87802 0.05889
3858.59225 0.06001
3857.30648 0.06140
3856.02071 0.06207
3854.73494 0.06186
3853.44917 0.06176
3852.16341 0.06231
3850.87764 0.06288
3849.59187 0.06277
3848.30610 0.06198
3847.02033 0.06084
3845.73456 0.05976
3844.44879 0.05915
3843.16302 0.05921
3841.87725 0.05977
3840.59149 0.06026
3839.30572 0.06029
3838.01995 0.06009
3836.73418 0.06010
3835.44841 0.06027
3834.16264 0.06032
3832.87687 0.06015
3831.59110 0.05971
3830.30534 0.05887
3829.01957 0.05760
3827.73380 0.05627
3826.44803 0.05559
3825.16226 0.05605
3823.87649 0.05719
3822.59072 0.05827
3821.30495 0.05910
3820.01918 0.05972
3818.73342 0.05972
3817.44765 0.05890
3816.16188 0.05806
3814.87611 0.05783
3813.59034 0.05765
3812.30457 0.05705
3811.01880 0.05651
3809.73303 0.05635
3808.44726 0.05640
3807.16150 0.05691
3805.87573 0.05808
3804.58996 0.05911
3803.30419 0.05907
3802.01842 0.05843
3800.73265 0.05833
3799.44688 0.05862
3798.16111 0.05828
3796.87535 0.05722
3795.58958 0.05619
3794.30381 0.05550
3793.01804 0.05512
3791.73227 0.05507
3790.44650 0.05532
3789.16073 0.05566
3787.87496 0.05589
3786.58919 0.05590
3785.30343 0.05566
3784.01766 0.05525
3782.73189 0.05486
3781.44612 0.05477
3780.16035 0.05517
3778.87458 0.05604
3777.58881 0.05691
3776.30304 0.05728
3775.01728 0.05706
3773.73151 0.05656
3772.44574 0.05613
3771.15997 0.05601
3769.87420 0.05628
3768.58843 0.05658
3767.30266 0.05648
3766.01689 0.05624
3764.73112 0.05643
3763.44536 0.05686
3762.15959 0.05666
3760.87382 0.05548
3759.58805 0.05407
3758.30228 0.05348
3757.01651 0.05426
3755.73074 0.05601
3754.44497 0.05760
3753.15921 0.05821
3751.87344 0.05786
3750.58767 0.05700
3749.30190 0.05644
3748.01613 0.05652
3746.73036 0.05639
3745.44459 0.05565
3744.15882 0.05553
3742.87305 0.05657
3741.58729 0.05756
3740.30152 0.05780
3739.01575 0.05763
3737.72998 0.05733
3736.44421 0.05685
3735.15844 0.05599
3733.87267 0.05451
3732.58690 0.05292
3731.30114 0.05226
3730.01537 0.05266
3728.72960 0.05313
3727.44383 0.05313
3726.15806 0.05304
3724.87229 0.05313
3723.58652 0.05314
3722.30075 0.05287
3721.01498 0.05239
3719.72922 0.05194
3718.44345 0.05174
3717.15768 0.05195
3715.87191 0.05243
3714.58614 0.05287
3713.30037 0.05333
3712.01460 0.05417
3710.72883 0.05537
3709.44307 0.05629
3708.15730 0.05653
3706.87153 0.05635
3705.58576 0.05620
3704.29999 0.05620
3703.01422 0.05625
3701.72845 0.05627
3700.44268 0.05615
3699.15691 0.05559
3697.87115 0.05450
3696.58538 0.05343
3695.29961 0.05307
3694.01384 0.05352
3692.72807 0.05427
3691.44230 0.05447
3690.15653 0.05346
3688.87076 0.05152
3687.58500 0.04977
3686.29923 0.04900
3685.01346 0.04924
3683.72769 0.05032
3682.44192 0.05189
3681.15615 0.05345
3679.87038 0.05481
3678.58461 0.05582
3677.29884 0.05623
3676.01308 0.05640
3674.72731 0.05688
3673.44154 0.05728
3672.15577 0.05669
3670.87000 0.05540
3669.58423 0.05443
3668.29846 0.05389
3667.01269 0.05330
3665.72693 0.05265
3664.44116 0.05223
3663.15539 0.05217
3661.86962 0.05245
3660.58385 0.05304
3659.29808 0.05373
3658.01231 0.05427
3656.72654 0.05489
3655.44077 0.05602
3654.15501 0.05755
3652.86924 0.05873
3651.58347 0.05901
3650.29770 0.05845
3649.01193 0.05747
3647.72616 0.05647
3646.44039 0.05572
3645.15462 0.05531
3643.86886 0.05526
3642.58309 0.05562
3641.29732 0.05636
3640.01155 0.05722
3638.72578 0.05792
3637.44001 0.05816
3636.15424 0.05769
3634.86847 0.05670
3633.58270 0.05592
3632.29694 0.05586
3631.01117 0.05629
3629.72540 0.05685
3628.43963 0.05755
3627.15386 0.05815
3625.86809 0.05820
3624.58232 0.05785
3623.29655 0.05766
3622.01079 0.05780
3620.72502 0.05812
3619.43925 0.05864
3618.15348 0.05950
3616.86771 0.06053
3615.58194 0.06137
3614.29617 0.06183
3613.01040 0.06200
3611.72463 0.06206
3610.43887 0.06219
3609.15310 0.06260
3607.86733 0.06334
3606.58156 0.06404
3605.29579 0.06424
3604.01002 0.06395
3602.72425 0.06366
3601.43848 0.06384
3600.15272 0.06461
3598.86695 0.06565
3597.58118 0.06643
3596.29541 0.06663
3595.00964 0.06631
3593.72387 0.06589
3592.43810 0.06582
3591.15233 0.06626
3589.86656 0.06695
3588.58080 0.06753
3587.29503 0.06781
3586.00926 0.06772
3584.72349 0.06731
3583.43772 0.06674
3582.15195 0.06628
3580.86618 0.06619
3579.58041 0.06656
3578.29464 0.06730
3577.00888 0.06819
3575.72311 0.06900
3574.43734 0.06950
3573.15157 0.06963
3571.86580 0.06951
3570.58003 0.06936
3569.29426 0.06945
3568.00849 0.06995
3566.72273 0.07079
3565.43696 0.07159
3564.15119 0.07202
3562.86542 0.07208
3561.57965 0.07188
3560.29388 0.07148
3559.00811 0.07100
3557.72234 0.07072
3556.43657 0.07079
3555.15081 0.07103
3553.86504 0.07119
3552.57927 0.07119
3551.29350 0.07109
3550.00773 0.07096
3548.72196 0.07090
3547.43619 0.07105
3546.15042 0.07145
3544.86466 0.07206
3543.57889 0.07295
3542.29312 0.07418
3541.00735 0.07552
3539.72158 0.07648
3538.43581 0.07682
3537.15004 0.07667
3535.86427 0.07631
3534.57850 0.07590
3533.29274 0.07554
3532.00697 0.07543
3530.72120 0.07575
3529.43543 0.07648
3528.14966 0.07735
3526.86389 0.07810
3525.57812 0.07878
3524.29235 0.07957
3523.00659 0.08049
3521.72082 0.08113
3520.43505 0.08106
3519.14928 0.08023
3517.86351 0.07918
3516.57774 0.07855
3515.29197 0.07864
3514.00620 0.07930
3512.72043 0.08021
3511.43467 0.08112
3510.14890 0.08184
3508.86313 0.08222
3507.57736 0.08218
3506.29159 0.08182
3505.00582 0.08130
3503.72005 0.08071
3502.43428 0.08007
3501.14852 0.07958
3499.86275 0.07959
3498.57698 0.08026
3497.29121 0.08138
3496.00544 0.08246
3494.71967 0.08318
3493.43390 0.08347
3492.14813 0.08337
3490.86236 0.08299
3489.57660 0.08259
3488.29083 0.08259
3487.00506 0.08318
3485.71929 0.08414
3484.43352 0.08497
3483.14775 0.08538
3481.86198 0.08543
3480.57621 0.08541
3479.29045 0.08547
3478.00468 0.08564
3476.71891 0.08586
3475.43314 0.08605
3474.14737 0.08613
3472.86160 0.08614
3471.57583 0.08620
3470.29006 0.08636
3469.00429 0.08644
3467.71853 0.08617
3466.43276 0.08545
3465.14699 0.08462
3463.86122 0.08422
3462.57545 0.08452
3461.28968 0.08530
3460.00391 0.08604
3458.71814 0.08645
3457.43238 0.08659
3456.14661 0.08668
3454.86084 0.08674
3453.57507 0.08670
3452.28930 0.08671
3451.00353 0.08703
3449.71776 0.08770
3448.43199 0.08840
3447.14622 0.08876
3445.86046 0.08872
3444.57469 0.08850
3443.28892 0.08848
3442.00315 0.08895
3440.71738 0.08986
3439.43161 0.09082
3438.14584 0.09130
3436.86007 0.09099
3435.57431 0.09002
3434.28854 0.08887
3433.00277 0.08812
3431.71700 0.08826
3430.43123 0.08934
3429.14546 0.09085
3427.85969 0.09199
3426.57392 0.09222
3425.28815 0.09161
3424.00239 0.09075
3422.71662 0.09023
3421.43085 0.09021
3420.14508 0.09046
3418.85931 0.09070
3417.57354 0.09093
3416.28777 0.09138
3415.00200 0.09225
3413.71624 0.09341
3412.43047 0.09435
3411.14470 0.09460
3409.85893 0.09413
3408.57316 0.09334
3407.28739 0.09280
3406.00162 0.09272
3404.71585 0.09293
3403.43008 0.09312
3402.14432 0.09326
3400.85855 0.09348
3399.57278 0.09340
3398.28701 0.09306
3397.00124 0.09302
3395.71547 0.09306
3394.42970 0.09279
3393.14393 0.09222
3391.85817 0.09173
3390.57240 0.09179
3389.28663 0.09254
3388.00086 0.09372
3386.71509 0.09497
3385.42932 0.09604
3384.14355 0.09676
3382.85778 0.09697
3381.57201 0.09668
3380.28625 0.09611
3379.00048 0.09553
3377.71471 0.09514
3376.42894 0.09505
3375.14317 0.09528
3373.85740 0.09581
3372.57163 0.09649
3371.28586 0.09702
3370.00010 0.09701
3368.71433 0.09633
3367.42856 0.09532
3366.14279 0.09458
3364.85702 0.09442
3363.57125 0.09472
3362.28548 0.09520
3360.99971 0.09570
3359.71394 0.09611
3358.42818 0.09625
3357.14241 0.09601
3355.85664 0.09546
3354.57087 0.09484
3353.28510 0.09438
3351.99933 0.09415
3350.71356 0.09411
3349.42779 0.09415
3348.14202 0.09409
3346.85626 0.09387
3345.57049 0.09364
3344.28472 0.09367
3342.99895 0.09399
3341.71318 0.09433
3340.42741 0.09444
3339.14164 0.09437
3337.85587 0.09440
3336.57011 0.09470
3335.28434 0.09517
3333.99857 0.09559
3332.71280 0.09586
3331.42703 0.09600
3330.14126 0.09596
3328.85549 0.09563
3327.56972 0.09498
3326.28395 0.09420
3324.99819 0.09357
3323.71242 0.09328
3322.42665 0.09336
3321.14088 0.09367
3319.85511 0.09408
3318.56934 0.09449
3317.28357 0.09478
3315.99780 0.09489
3314.71204 0.09489
3313.42627 0.09493
3312.14050 0.09511
3310.85473 0.09539
3309.56896 0.09569
3308.28319 0.09590
3306.99742 0.09584
3305.71165 0.09540
3304.42588 0.09477
3303.14012 0.09436
3301.85435 0.09447
3300.56858 0.09503
3299.28281 0.09564
3297.99704 0.09590
3296.71127 0.09572
3295.42550 0.09530
3294.13973 0.09499
3292.85397 0.09500
3291.56820 0.09529
3290.28243 0.09562
3288.99666 0.09578
3287.71089 0.09569
3286.42512 0.09546
3285.13935 0.09524
3283.85358 0.09514
3282.56781 0.09511
3281.28205 0.09501
3279.99628 0.09471
3278.71051 0.09422
3277.42474 0.09376
3276.13897 0.09355
3274.85320 0.09359
3273.56743 0.09379
3272.28166 0.09411
3270.99590 0.09457
3269.71013 0.09513
3268.42436 0.09567
3267.13859 0.09610
3265.85282 0.09647
3264.56705 0.09680
3263.28128 0.09699
3261.99551 0.09693
3260.70974 0.09667
3259.42398 0.09635
3258.13821 0.09598
3256.85244 0.09548
3255.56667 0.09486
3254.28090 0.09429
3252.99513 0.09402
3251.70936 0.09422
3250.42359 0.09489
3249.13783 0.09575
3247.85206 0.09629
3246.56629 0.09615
3245.28052 0.09539
3243.99475 0.09444
3242.70898 0.09368
3241.42321 0.09326
3240.13744 0.09316
3238.85167 0.09331
3237.56591 0.09353
3236.28014 0.09362
3234.99437 0.09342
3233.70860 0.09291
3232.42283 0.09230
3231.13706 0.09195
3229.85129 0.09204
3228.56552 0.09245
3227.27976 0.09285
3225.99399 0.09302
3224.70822 0.09299
3223.42245 0.09289
3222.13668 0.09283
3220.85091 0.09286
3219.56514 0.09296
3218.27937 0.09301
3216.99360 0.09290
3215.70784 0.09266
3214.42207 0.09247
3213.13630 0.09253
3211.85053 0.09281
3210.56476 0.09310
3209.27899 0.09327
3207.99322 0.09331
3206.70745 0.09328
3205.42169 0.09322
3204.13592 0.09320
3202.85015 0.09328
3201.56438 0.09346
3200.27861 0.09359
3198.99284 0.09351
3197.70707 0.09329
3196.42130 0.09313
3195.13553 0.09309
3193.84977 0.09296
3192.56400 0.09259
3191.27823 0.09212
3189.99246 0.09186
3188.70669 0.09199
3187.42092 0.09244
3186.13515 0.09296
3184.84938 0.09331
3183.56362 0.09341
3182.27785 0.09336
3180.99208 0.09325
3179.70631 0.09296
3178.42054 0.09234
3177.13477 0.09143
3175.84900 0.09052
3174.56323 0.08995
3173.27746 0.08985
3171.99170 0.09003
3170.70593 0.09016
3169.42016 0.09006
3168.13439 0.08990
3166.84862 0.08988
3165.56285 0.08999
3164.27708 0.08998
3162.99131 0.08977
3161.70555 0.08955
3160.41978 0.08950
3159.13401 0.08956
3157.84824 0.08958
3156.56247 0.08948
3155.27670 0.08932
3153.99093 0.08917
3152.70516 0.08908
3151.41939 0.08899
3150.13363 0.08884
3148.84786 0.08857
3147.56209 0.08827
3146.27632 0.08810
3144.99055 0.08818
3143.70478 0.08846
3142.41901 0.08881
3141.13324 0.08908
3139.84748 0.08916
3138.56171 0.08904
3137.27594 0.08881
3135.99017 0.08862
3134.70440 0.08859
3133.41863 0.08873
3132.13286 0.08894
3130.84709 0.08900
3129.56132 0.08867
3128.27556 0.08791
3126.98979 0.08700
3125.70402 0.08626
3124.41825 0.08594
3123.13248 0.08599
3121.84671 0.08618
3120.56094 0.08617
3119.27517 0.08584
3117.98940 0.08537
3116.70364 0.08511
3115.41787 0.08521
3114.13210 0.08553
3112.84633 0.08584
3111.56056 0.08600
3110.27479 0.08603
3108.98902 0.08594
3107.70325 0.08566
3106.41749 0.08518
3105.13172 0.08461
3103.84595 0.08421
3102.56018 0.08412
3101.27441 0.08427
3099.98864 0.08435
3098.70287 0.08418
3097.41710 0.08381
3096.13133 0.08344
3094.84557 0.08323
3093.55980 0.08324
3092.27403 0.08343
3090.98826 0.08367
3089.70249 0.08375
3088.41672 0.08353
3087.13095 0.08309
3085.84518 0.08266
3084.55942 0.08238
3083.27365 0.08223
3081.98788 0.08214
3080.70211 0.08208
3079.41634 0.08206
3078.13057 0.08209
3076.84480 0.08223
3075.55903 0.08252
3074.27326 0.08290
3072.98750 0.08321
3071.70173 0.08328
3070.41596 0.08313
3069.13019 0.08289
3067.84442 0.08259
3066.55865 0.08222
3065.27288 0.08182
3063.98711 0.08150
3062.70135 0.08128
3061.41558 0.08105
3060.12981 0.08076
3058.84404 0.08042
3057.55827 0.08008
3056.27250 0.07971
3054.98673 0.07933
3053.70096 0.07909
3052.41519 0.07918
3051.12943 0.07961
3049.84366 0.08016
3048.55789 0.08045
3047.27212 0.08023
3045.98635 0.07956
3044.70058 0.07874
3043.41481 0.07814
3042.12904 0.07797
3040.84328 0.07819
3039.55751 0.07857
3038.27174 0.07886
3036.98597 0.07895
3035.70020 0.07887
3034.41443 0.07869
3033.12866 0.07843
3031.84289 0.07814
3030.55712 0.07788
3029.27136 0.07779
3027.98559 0.07790
3026.69982 0.07805
3025.41405 0.07801
3024.12828 0.07764
3022.84251 0.07705
3021.55674 0.07648
3020.27097 0.07613
3018.98521 0.07611
3017.69944 0.07631
3016.41367 0.07649
3015.12790 0.07644
3013.84213 0.07619
3012.55636 0.07589
3011.27059 0.07569
3009.98482 0.07561
3008.69905 0.07567
3007.41329 0.07581
3006.12752 0.07593
3004.84175 0.07584
3003.55598 0.07555
3002.27021 0.07537
3000.98444 0.07542
2999.69867 0.07514
2998.41290 0.07526
2997.12714 0.07536
2995.84137 0.07548
2994.55560 0.07559
2993.26983 0.07550
2991.98406 0.07512
2990.69829 0.07468
2989.41252 0.07442
2988.12675 0.07428
2986.84098 0.07408
2985.55522 0.07388
2984.26945 0.07400
2982.98368 0.07466
2981.69791 0.07562
2980.41214 0.07652
2979.12637 0.07724
2977.84060 0.07787
2976.55483 0.07849
2975.26907 0.07906
2973.98330 0.07961
2972.69753 0.08027
2971.41176 0.08115
2970.12599 0.08223
2968.84022 0.08341
2967.55445 0.08462
2966.26868 0.08591
2964.98291 0.08735
2963.69715 0.08891
2962.41138 0.09037
2961.12561 0.09156
2959.83984 0.09251
2958.55407 0.09336
2957.26830 0.09415
2955.98253 0.09482
2954.69676 0.09528
2953.41100 0.09558
2952.12523 0.09586
2950.83946 0.09619
2949.55369 0.09651
2948.26792 0.09665
2946.98215 0.09649
2945.69638 0.09600
2944.41061 0.09525
2943.12484 0.09449
2941.83908 0.09412
2940.55331 0.09443
2939.26754 0.09538
2937.98177 0.09662
2936.69600 0.09778
2935.41023 0.09879
2934.12446 0.09980
2932.83869 0.10089
2931.55293 0.10194
2930.26716 0.10281
2928.98139 0.10355
2927.69562 0.10434
2926.40985 0.10520
2925.12408 0.10588
2923.83831 0.10615
2922.55254 0.10610
2921.26677 0.10594
2919.98101 0.10568
2918.69524 0.10510
2917.40947 0.10411
2916.12370 0.10290
2914.83793 0.10171
2913.55216 0.10059
2912.26639 0.09951
2910.98062 0.09856
2909.69486 0.09782
2908.40909 0.09721
2907.12332 0.09653
2905.83755 0.09570
2904.55178 0.09488
2903.26601 0.09419
2901.98024 0.09361
2900.69447 0.09300
2899.40870 0.09226
2898.12294 0.09138
2896.83717 0.09045
2895.55140 0.08954
2894.26563 0.08868
2892.97986 0.08782
2891.69409 0.08689
2890.40832 0.08587
2889.12255 0.08482
2887.83678 0.08389
2886.55102 0.08317
2885.26525 0.08269
2883.97948 0.08246
2882.69371 0.08251
2881.40794 0.08282
2880.12217 0.08319
2878.83640 0.08339
2877.55063 0.08341
2876.26487 0.08351
2874.97910 0.08401
2873.69333 0.08489
2872.40756 0.08581
2871.12179 0.08649
2869.83602 0.08690
2868.55025 0.08713
2867.26448 0.08714
2865.97871 0.08687
2864.69295 0.08642
2863.40718 0.08599
2862.12141 0.08571
2860.83564 0.08556
2859.54987 0.08551
2858.26410 0.08551
2856.97833 0.08554
2855.69256 0.08549
2854.40680 0.08526
2853.12103 0.08485
2851.83526 0.08431
2850.54949 0.08366
2849.26372 0.08288
2847.97795 0.08200
2846.69218 0.08109
2845.40641 0.08021
2844.12064 0.07930
2842.83488 0.07830
2841.54911 0.07722
2840.26334 0.07613
2838.97757 0.07508
2837.69180 0.07401
2836.40603 0.07283
2835.12026 0.07161
2833.83449 0.07053
2832.54873 0.06974
2831.26296 0.06918
2829.97719 0.06873
2828.69142 0.06832
2827.40565 0.06798
2826.11988 0.06768
2824.83411 0.06732
2823.54834 0.06681
2822.26257 0.06619
2820.97681 0.06556
2819.69104 0.06506
2818.40527 0.06475
2817.11950 0.06463
2815.83373 0.06459
2814.54796 0.06449
2813.26219 0.06428
2811.97642 0.06402
2810.69066 0.06377
2809.40489 0.06352
2808.11912 0.06321
2806.83335 0.06281
2805.54758 0.06240
2804.26181 0.06204
2802.97604 0.06175
2801.69027 0.06155
2800.40450 0.06152
2799.11874 0.06166
2797.83297 0.06187
2796.54720 0.06201
2795.26143 0.06200
2793.97566 0.06190
2792.68989 0.06177
2791.40412 0.06165
2790.11835 0.06155
2788.83259 0.06146
2787.54682 0.06129
2786.26105 0.06096
2784.97528 0.06047
2783.68951 0.06001
2782.40374 0.05975
2781.11797 0.05973
2779.83220 0.05986
2778.54643 0.06000
2777.26067 0.06005
2775.97490 0.05993
2774.68913 0.05967
2773.40336 0.05939
2772.11759 0.05918
2770.83182 0.05914
2769.54605 0.05925
2768.26028 0.05939
2766.97452 0.05942
2765.68875 0.05932
2764.40298 0.05916
2763.11721 0.05899
2761.83144 0.05882
2760.54567 0.05867
2759.25990 0.05854
2757.97413 0.05836
2756.68836 0.05811
2755.40260 0.05791
2754.11683 0.05789
2752.83106 0.05799
2751.54529 0.05801
2750.25952 0.05788
2748.97375 0.05768
2747.68798 0.05745
2746.40221 0.05714
2745.11645 0.05676
2743.83068 0.05648
2742.54491 0.05645
2741.25914 0.05666
2739.97337 0.05692
2738.68760 0.05707
2737.40183 0.05706
2736.11606 0.05691
2734.83029 0.05666
2733.54453 0.05639
2732.25876 0.05617
2730.97299 0.05604
2729.68722 0.05594
2728.40145 0.05575
2727.11568 0.05548
2725.82991 0.05522
2724.54414 0.05508
2723.25838 0.05510
2721.97261 0.05520
2720.68684 0.05526
2719.40107 0.05521
2718.11530 0.05507
2716.82953 0.05492
2715.54376 0.05484
2714.25799 0.05484
2712.97222 0.05483
2711.68646 0.05471
2710.40069 0.05447
2709.11492 0.05421
2707.82915 0.05410
2706.54338 0.05413
2705.25761 0.05413
2703.97184 0.05403
2702.68607 0.05394
2701.40031 0.05392
2700.11454 0.05388
2698.82877 0.05362
2697.54300 0.05313
2696.25723 0.05269
2694.97146 0.05258
2693.68569 0.05282
2692.39992 0.05311
2691.11415 0.05315
2689.82839 0.05290
2688.54262 0.05257
2687.25685 0.05238
2685.97108 0.05232
2684.68531 0.05223
2683.39954 0.05204
2682.11377 0.05183
2680.82800 0.05173
2679.54224 0.05178
2678.25647 0.05191
2676.97070 0.05204
2675.68493 0.05212
2674.39916 0.05217
2673.11339 0.05219
2671.82762 0.05220
2670.54185 0.05218
2669.25608 0.05209
2667.97032 0.05187
2666.68455 0.05152
2665.39878 0.05117
2664.11301 0.05103
2662.82724 0.05118
2661.54147 0.05149
2660.25570 0.05174
2658.96993 0.05184
2657.68417 0.05185
2656.39840 0.05186
2655.11263 0.05190
2653.82686 0.05193
2652.54109 0.05190
2651.25532 0.05172
2649.96955 0.05134
2648.68378 0.05079
2647.39801 0.05017
2646.11225 0.04964
2644.82648 0.04935
2643.54071 0.04940
2642.25494 0.04966
2640.96917 0.04985
2639.68340 0.04977
2638.39763 0.04950
2637.11186 0.04926
2635.82609 0.04913
2634.54033 0.04908
2633.25456 0.04907
2631.96879 0.04915
2630.68302 0.04936
2629.39725 0.04959
2628.11148 0.04967
2626.82571 0.04944
2625.53994 0.04896
2624.25418 0.04839
2622.96841 0.04788
2621.68264 0.04746
2620.39687 0.04713
2619.11110 0.04692
2617.82533 0.04681
2616.53956 0.04673
2615.25379 0.04669
2613.96802 0.04671
2612.68226 0.04672
2611.39649 0.04654
2610.11072 0.04610
2608.82495 0.04555
2607.53918 0.04513
2606.25341 0.04494
2604.96764 0.04490
2603.68187 0.04481
2602.39611 0.04466
2601.11034 0.04455
2599.82457 0.04454
2598.53880 0.04449
2597.25303 0.04420
2595.96726 0.04361
2594.68149 0.04284
2593.39572 0.04213
2592.10995 0.04177
2590.82419 0.04195
2589.53842 0.04255
2588.25265 0.04321
2586.96688 0.04355
2585.68111 0.04340
2584.39534 0.04288
2583.10957 0.04221
2581.82380 0.04160
2580.53804 0.04115
2579.25227 0.04094
2577.96650 0.04103
2576.68073 0.04132
2575.39496 0.04160
2574.10919 0.04175
2572.82342 0.04185
2571.53765 0.04197
2570.25188 0.04205
2568.96612 0.04200
2567.68035 0.04181
2566.39458 0.04156
2565.10881 0.04128
2563.82304 0.04093
2562.53727 0.04050
2561.25150 0.04008
2559.96573 0.03976
2558.67997 0.03956
2557.39420 0.03935
2556.10843 0.03914
2554.82266 0.03916
2553.53689 0.03960
2552.25112 0.04030
2550.96535 0.04086
2549.67958 0.04098
2548.39381 0.04068
2547.10805 0.04025
2545.82228 0.03990
2544.53651 0.03970
2543.25074 0.03962
2541.96497 0.03966
2540.67920 0.03979
2539.39343 0.03986
2538.10766 0.03973
2536.82190 0.03949
2535.53613 0.03940
2534.25036 0.03957
2532.96459 0.03987
2531.67882 0.04001
2530.39305 0.03978
2529.10728 0.03922
2527.82151 0.03864
2526.53574 0.03843
2525.24998 0.03869
2523.96421 0.03917
2522.67844 0.03951
2521.39267 0.03955
2520.10690 0.03939
2518.82113 0.03918
2517.53536 0.03903
2516.24959 0.03899
2514.96383 0.03906
2513.67806 0.03920
2512.39229 0.03930
2511.10652 0.03927
2509.82075 0.03910
2508.53498 0.03877
2507.24921 0.03829
2505.96344 0.03774
2504.67767 0.03730
2503.39191 0.03711
2502.10614 0.03709
2500.82037 0.03713
2499.53460 0.03723
2498.24883 0.03742
2496.96306 0.03765
2495.67729 0.03780
2494.39152 0.03793
2493.10576 0.03812
2491.81999 0.03829
2490.53422 0.03830
2489.24845 0.03813
2487.96268 0.03791
2486.67691 0.03773
2485.39114 0.03764
2484.10537 0.03764
2482.81960 0.03767
2481.53384 0.03765
2480.24807 0.03745
2478.96230 0.03707
2477.67653 0.03670
2476.39076 0.03659
2475.10499 0.03682
2473.81922 0.03724
2472.53345 0.03755
2471.24769 0.03755
2469.96192 0.03727
2468.67615 0.03690
2467.39038 0.03663
2466.10461 0.03654
2464.81884 0.03658
2463.53307 0.03660
2462.24730 0.03656
2460.96153 0.03668
2459.67577 0.03714
2458.39000 0.03781
2457.10423 0.03824
2455.81846 0.03804
2454.53269 0.03726
2453.24692 0.03636
2451.96115 0.03581
2450.67538 0.03579
2449.38962 0.03609
2448.10385 0.03642
2446.81808 0.03659
2445.53231 0.03664
2444.24654 0.03667
2442.96077 0.03665
2441.67500 0.03652
2440.38923 0.03630
2439.10346 0.03608
2437.81770 0.03586
2436.53193 0.03553
2435.24616 0.03515
2433.96039 0.03502
2432.67462 0.03540
2431.38885 0.03617
2430.10308 0.03695
2428.81731 0.03737
2427.53155 0.03732
2426.24578 0.03691
2424.96001 0.03628
2423.67424 0.03558
2422.38847 0.03500
2421.10270 0.03474
2419.81693 0.03485
2418.53116 0.03517
2417.24539 0.03537
2415.95963 0.03532
2414.67386 0.03521
2413.38809 0.03528
2412.10232 0.03548
2410.81655 0.03549
2409.53078 0.03517
2408.24501 0.03468
2406.95924 0.03427
2405.67347 0.03409
2404.38771 0.03415
2403.10194 0.03437
2401.81617 0.03459
2400.53040 0.03468
2399.24463 0.03555
2397.95886 0.03490
2396.67309 0.03450
2395.38732 0.03466
2394.10156 0.03490
2392.81579 0.03497
2391.53002 0.03483
2390.24425 0.03458
2388.95848 0.03439
2387.67271 0.03433
2386.38694 0.03439
2385.10117 0.03445
2383.81540 0.03445
2382.52964 0.03434
2381.24387 0.03414
2379.95810 0.03387
2378.67233 0.03360
2377.38656 0.03344
2376.10079 0.03347
2374.81502 0.03373
2373.52925 0.03409
2372.24349 0.03443
2370.95772 0.03468
2369.67195 0.03493
2368.38618 0.03518
2367.10041 0.03536
2365.81464 0.03535
2364.52887 0.03521
2363.24310 0.03503
2361.95733 0.03493
2360.67157 0.03491
2359.38580 0.03505
2358.10003 0.03525
2356.81426 0.03541
2355.52849 0.03550
2354.24272 0.03557
2352.95695 0.03563
2351.67118 0.03558
2350.38542 0.03543
2349.09965 0.03535
2347.81388 0.03537
2346.52811 0.03527
2345.24234 0.03507
2343.95657 0.03512
2342.67080 0.03551
2341.38503 0.03580
2340.09926 0.03586
2338.81350 0.03617
2337.52773 0.03664
2336.24196 0.03647
2334.95619 0.03593
2333.67042 0.03597
2332.38465 0.03638
2331.09888 0.03609
2329.81311 0.03567
2328.52735 0.03603
2327.24158 0.03633
2325.95581 0.03673
2324.67004 0.03769
2323.38427 0.03817
2322.09850 0.03791
2320.81273 0.03778
2319.52696 0.03735
2318.24119 0.03679
2316.95543 0.03657
2315.66966 0.03621
2314.38389 0.03571
2313.09812 0.03530
2311.81235 0.03479
2310.52658 0.03447
2309.24081 0.03432
2307.95504 0.03416
2306.66928 0.03404
2305.38351 0.03380
2304.09774 0.03355
2302.81197 0.03342
2301.52620 0.03337
2300.24043 0.03336
2298.95466 0.03330
2297.66889 0.03320
2296.38312 0.03314
2295.09736 0.03313
2293.81159 0.03311
2292.52582 0.03298
2291.24005 0.03278
2289.95428 0.03264
2288.66851 0.03263
2287.38274 0.03264
2286.09697 0.03250
2284.81121 0.03219
2283.52544 0.03183
2282.23967 0.03158
2280.95390 0.03148
2279.66813 0.03141
2278.38236 0.03110
2277.09659 0.03044
2275.81082 0.02958
2274.52505 0.02890
2273.23929 0.02861
2271.95352 0.02853
2270.66775 0.02831
2269.38198 0.02774
2268.09621 0.02697
2266.81044 0.02638
2265.52467 0.02625
2264.23890 0.02655
2262.95314 0.02688
2261.66737 0.02682
2260.38160 0.02629
2259.09583 0.02562
2257.81006 0.02521
2256.52429 0.02513
2255.23852 0.02509
2253.95275 0.02495
2252.66698 0.02481
2251.38122 0.02459
2250.09545 0.02450
2248.80968 0.02562
2247.52391 0.02542
2246.23814 0.02509
2244.95237 0.02493
2243.66660 0.02488
2242.38083 0.02476
2241.09507 0.02456
2239.80930 0.02447
2238.52353 0.02465
2237.23776 0.02507
2235.95199 0.02559
2234.66622 0.02609
2233.38045 0.02638
2232.09468 0.02626
2230.80891 0.02566
2229.52315 0.02470
2228.23738 0.02355
2226.95161 0.02241
2225.66584 0.02158
2224.38007 0.02128
2223.09430 0.02145
2221.80853 0.02188
2220.52276 0.02256
2219.23700 0.02352
2217.95123 0.02441
2216.66546 0.02446
2215.37969 0.02322
2214.09392 0.02132
2212.80815 0.02004
2211.52238 0.02008
2210.23661 0.02089
2208.95084 0.02134
2207.66508 0.02084
2206.37931 0.01979
2205.09354 0.01896
2203.80777 0.01867
2202.52200 0.01866
2201.23623 0.01854
2199.95046 0.01833
2198.66469 0.01836
2197.37893 0.01870
2196.09316 0.01894
2194.80739 0.01876
2193.52162 0.01839
2192.23585 0.01834
2190.95008 0.01880
2189.66431 0.01949
2188.37854 0.01983
2187.09277 0.01939
2185.80701 0.01827
2184.52124 0.01717
2183.23547 0.01670
2181.94970 0.01685
2180.66393 0.01709
2179.37816 0.01706
2178.09239 0.01671
2176.80662 0.01614
2175.52085 0.01551
2174.23509 0.01499
2172.94932 0.01466
2171.66355 0.01465
2170.37778 0.01531
2169.09201 0.01683
2167.80624 0.01856
2166.52047 0.01918
2165.23470 0.01784
2163.94894 0.01492
2162.66317 0.01153
2161.37740 0.00853
2160.09163 0.00637
2158.80586 0.00546
2157.52009 0.00596
2156.23432 0.00732
2154.94855 0.00837
2153.66278 0.00835
2152.37702 0.00765
2151.09125 0.00740
2149.80548 0.00832
2148.51971 0.01014
2147.23394 0.01201
2145.94817 0.01340
2144.66240 0.01426
2143.37663 0.01472
2142.09087 0.01477
2140.80510 0.01447
2139.51933 0.01404
2138.23356 0.01371
2136.94779 0.01360
2135.66202 0.01370
2134.37625 0.01401
2133.09048 0.01446
2131.80471 0.01497
2130.51895 0.01543
2129.23318 0.01577
2127.94741 0.01600
2126.66164 0.01619
2125.37587 0.01649
2124.09010 0.01701
2122.80433 0.01765
2121.51856 0.01825
2120.23280 0.01870
2118.94703 0.01903
2117.66126 0.01927
2116.37549 0.01936
2115.08972 0.01925
2113.80395 0.01901
2112.51818 0.01879
2111.23241 0.01870
2109.94664 0.01876
2108.66088 0.01893
2107.37511 0.01917
2106.08934 0.01942
2104.80357 0.01960
2103.51780 0.01968
2102.23203 0.01958
2100.94626 0.01932
2099.66049 0.02029
2098.37473 0.02081
2097.08896 0.02035
2095.80319 0.01942
2094.51742 0.01846
2093.23165 0.01784
2091.94588 0.01780
2090.66011 0.01821
2089.37434 0.01862
2088.08857 0.01862
2086.80281 0.01818
2085.51704 0.01761
2084.23127 0.01725
2082.94550 0.01729
2081.65973 0.01767
2080.37396 0.01819
2079.08819 0.01863
2077.80242 0.01884
2076.51666 0.01875
2075.23089 0.01855
2073.94512 0.01852
2072.65935 0.01881
2071.37358 0.01918
2070.08781 0.01929
2068.80204 0.01898
2067.51627 0.01832
2066.23050 0.01743
2064.94474 0.01642
2063.65897 0.01542
2062.37320 0.01462
2061.08743 0.01419
2059.80166 0.01430
2058.51589 0.01495
2057.23012 0.01577
2055.94435 0.01619
2054.65859 0.01605
2053.37282 0.01587
2052.08705 0.01625
2050.80128 0.01715
2049.51551 0.01786
2048.22974 0.01773
2046.94397 0.01678
2045.65820 0.01551
2044.37243 0.01445
2043.08667 0.01390
2041.80090 0.01392
2040.51513 0.01438
2039.22936 0.01493
2037.94359 0.01519
2036.65782 0.01492
2035.37205 0.01416
2034.08628 0.01318
2032.80052 0.01223
2031.51475 0.01130
2030.22898 0.01014
2028.94321 0.00871
2027.65744 0.00742
2026.37167 0.00686
2025.08590 0.00720
2023.80013 0.00807
2022.51436 0.00902
2021.22860 0.00980
2019.94283 0.01024
2018.65706 0.01023
2017.37129 0.00998
2016.08552 0.01001
2014.79975 0.01064
2013.51398 0.01164
2012.22821 0.01245
2010.94245 0.01281
2009.65668 0.01282
2008.37091 0.01271
2007.08514 0.01261
2005.79937 0.01238
2004.51360 0.01180
2003.22783 0.01084
2001.94206 0.00987
2000.65629 0.00946
1999.37053 0.00987
1998.08476 0.01071
1996.79899 0.01138
1995.51322 0.01172
1994.22745 0.01208
1992.94168 0.01280
1991.65591 0.01365
1990.37014 0.01402
1989.08438 0.01359
1987.79861 0.01278
1986.51284 0.01232
1985.22707 0.01260
1983.94130 0.01348
1982.65553 0.01458
1981.36976 0.01557
1980.08399 0.01624
1978.79822 0.01650
1977.51246 0.01637
1976.22669 0.01599
1974.94092 0.01563
1973.65515 0.01550
1972.36938 0.01570
1971.08361 0.01617
1969.79784 0.01675
1968.51207 0.01712
1967.22631 0.01696
1965.94054 0.01629
1964.65477 0.01565
1963.36900 0.01564
1962.08323 0.01628
1960.79746 0.01691
1959.51169 0.01695
1958.22592 0.01640
1956.94015 0.01563
1955.65439 0.01494
1954.36862 0.01448
1953.08285 0.01438
1951.79708 0.01473
1950.51131 0.01543
1949.22554 0.01630
1947.93977 0.01719
1946.65400 0.01798
1945.36823 0.01852
1944.08247 0.01869
1942.79670 0.01859
1941.51093 0.01850
1940.22516 0.01863
1938.93939 0.01895
1937.65362 0.01921
1936.36785 0.01913
1935.08208 0.01861
1933.79632 0.01791
1932.51055 0.01744
1931.22478 0.01745
1929.93901 0.01795
1928.65324 0.01867
1927.36747 0.01929
1926.08170 0.01960
1924.79593 0.01962
1923.51016 0.01966
1922.22440 0.02003
1920.93863 0.02065
1919.65286 0.02112
1918.36709 0.02112
1917.08132 0.02070
1915.79555 0.02013
1914.50978 0.01969
1913.22401 0.01952
1911.93825 0.01950
1910.65248 0.01952
1909.36671 0.01963
1908.08094 0.01991
1906.79517 0.02022
1905.50940 0.02022
1904.22363 0.01981
1902.93786 0.01925
1901.65209 0.01893
1900.36633 0.01902
1899.08056 0.01938
1897.79479 0.01978
1896.50902 0.02007
1895.22325 0.02019
1893.93748 0.02019
1892.65171 0.02012
1891.36594 0.02000
1890.08018 0.01989
1888.79441 0.01986
1887.50864 0.01992
1886.22287 0.02003
1884.93710 0.02011
1883.65133 0.02009
1882.36556 0.01998
1881.07979 0.01983
1879.79402 0.01966
1878.50826 0.01946
1877.22249 0.01921
1875.93672 0.01894
1874.65095 0.01877
1873.36518 0.01882
1872.07941 0.01908
1870.79364 0.01938
1869.50787 0.01954
1868.22211 0.01950
1866.93634 0.01936
1865.65057 0.01926
1864.36480 0.01923
1863.07903 0.01923
1861.79326 0.01923
1860.50749 0.01923
1859.22172 0.01924
1857.93595 0.01923
1856.65019 0.01918
1855.36442 0.01914
1854.07865 0.01921
1852.79288 0.01940
1851.50711 0.01962
1850.22134 0.01975
1848.93557 0.01983
1847.64980 0.01994
1846.36404 0.02001
1845.07827 0.02000
1843.79250 0.02001
1842.50673 0.02009
1841.22096 0.02019
1839.93519 0.02022
1838.64942 0.02022
1837.36365 0.02018
1836.07788 0.02013
1834.79212 0.02013
1833.50635 0.02024
1832.22058 0.02036
1830.93481 0.02039
1829.64904 0.02041
1828.36327 0.02055
1827.07750 0.02076
1825.79173 0.02104
1824.50597 0.02136
1823.22020 0.02160
1821.93443 0.02163
1820.64866 0.02146
1819.36289 0.02119
1818.07712 0.02085
1816.79135 0.02046
1815.50558 0.02007
1814.21981 0.01973
1812.93405 0.01944
1811.64828 0.01927
1810.36251 0.01926
1809.07674 0.01943
1807.79097 0.01972
1806.50520 0.02005
1805.21943 0.02038
1803.93366 0.02062
1802.64790 0.02073
1801.36213 0.02074
1800.07636 0.02076
1798.79059 0.02083
1797.50482 0.02092
1796.21905 0.02101
1794.93328 0.02103
1793.64751 0.02101
1792.36174 0.02107
1791.07598 0.02128
1789.79021 0.02150
1788.50444 0.02155
1787.21867 0.02146
1785.93290 0.02138
1784.64713 0.02146
1783.36136 0.02165
1782.07559 0.02178
1780.78983 0.02179
1779.50406 0.02175
1778.21829 0.02173
1776.93252 0.02175
1775.64675 0.02175
1774.36098 0.02164
1773.07521 0.02152
1771.78944 0.02158
1770.50367 0.02174
1769.21791 0.02177
1767.93214 0.02171
1766.64637 0.02179
1765.36060 0.02199
1764.07483 0.02216
1762.78906 0.02230
1761.50329 0.02252
1760.21752 0.02276
1758.93176 0.02283
1757.64599 0.02274
1756.36022 0.02270
1755.07445 0.02278
1753.78868 0.02279
1752.50291 0.02267
1751.21714 0.02264
1749.93137 0.02283
1748.64560 0.02306
1747.35984 0.02316
1746.07407 0.02313
1744.78830 0.02310
1743.50253 0.02312
1742.21676 0.02318
1740.93099 0.02325
1739.64522 0.02346
1738.35945 0.02391
1737.07369 0.02432
1735.78792 0.02434
1734.50215 0.02419
1733.21638 0.02426
1731.93061 0.02447
1730.64484 0.02447
1729.35907 0.02433
1728.07330 0.02432
1726.78753 0.02450
1725.50177 0.02469
1724.21600 0.02491
1722.93023 0.02531
1721.64446 0.02591
1720.35869 0.02646
1719.07292 0.02673
1717.78715 0.02689
1716.50138 0.02716
1715.21561 0.02748
1713.92985 0.02773
1712.64408 0.02798
1711.35831 0.02833
1710.07254 0.02878
1708.78677 0.02928
1707.50100 0.02976
1706.21523 0.03024
1704.92946 0.03089
1703.64370 0.03156
1702.35793 0.03189
1701.07216 0.03203
1699.78639 0.03252
1698.50062 0.03322
1697.21485 0.03349
1695.92908 0.03346
1694.64331 0.03375
1693.35754 0.03422
1692.07178 0.03442
1690.78601 0.03451
1689.50024 0.03491
1688.21447 0.03557
1686.92870 0.03599
1685.64293 0.03599
1684.35716 0.03604
1683.07139 0.03649
1681.78563 0.03702
1680.49986 0.03736
1679.21409 0.03765
1677.92832 0.03796
1676.64255 0.03818
1675.35678 0.03846
1674.07101 0.03897
1672.78524 0.03953
1671.49947 0.03989
1670.21371 0.04012
1668.92794 0.04046
1667.64217 0.04093
1666.35640 0.04136
1665.07063 0.04165
1663.78486 0.04191
1662.49909 0.04228
1661.21332 0.04271
1659.92756 0.04309
1658.64179 0.04351
1657.35602 0.04413
1656.07025 0.04474
1654.78448 0.04497
1653.49871 0.04508
1652.21294 0.04563
1650.92717 0.04643
1649.64140 0.04674
1648.35564 0.04641
1647.06987 0.04604
1645.78410 0.04605
1644.49833 0.04629
1643.21256 0.04643
1641.92679 0.04640
1640.64102 0.04645
1639.35525 0.04669
1638.06949 0.04693
1636.78372 0.04702
1635.49795 0.04713
1634.21218 0.04739
1632.92641 0.04763
1631.64064 0.04767
1630.35487 0.04763
1629.06910 0.04773
1627.78333 0.04800
1626.49757 0.04834
1625.21180 0.04856
1623.92603 0.04866
1622.64026 0.04884
1621.35449 0.04922
1620.06872 0.04959
1618.78295 0.04972
1617.49718 0.04972
1616.21142 0.04993
1614.92565 0.05038
1613.63988 0.05075
1612.35411 0.05090
1611.06834 0.05102
1609.78257 0.05124
1608.49680 0.05151
1607.21103 0.05181
1605.92526 0.05210
1604.63950 0.05237
1603.35373 0.05262
1602.06796 0.05287
1600.78219 0.05313
1599.49642 0.05338
1598.21065 0.05362
1596.92488 0.05384
1595.63911 0.05406
1594.35335 0.05430
1593.06758 0.05454
1591.78181 0.05475
1590.49604 0.05496
1589.21027 0.05522
1587.92450 0.05552
1586.63873 0.05582
1585.35296 0.05611
1584.06719 0.05635
1582.78143 0.05661
1581.49566 0.05700
1580.20989 0.05757
1578.92412 0.05810
1577.63835 0.05834
1576.35258 0.05850
1575.06681 0.05892
1573.78104 0.05947
1572.49528 0.05978
1571.20951 0.05984
1569.92374 0.05993
1568.63797 0.06021
1567.35220 0.06050
1566.06643 0.06067
1564.78066 0.06090
1563.49489 0.06134
1562.20912 0.06174
1560.92336 0.06181
1559.63759 0.06176
1558.35182 0.06203
1557.06605 0.06246
1555.78028 0.06254
1554.49451 0.06228
1553.20874 0.06206
1551.92297 0.06197
1550.63721 0.06189
1549.35144 0.06184
1548.06567 0.06186
1546.77990 0.06190
1545.49413 0.06196
1544.20836 0.06211
1542.92259 0.06222
1541.63682 0.06206
1540.35105 0.06166
1539.06529 0.06140
1537.77952 0.06141
1536.49375 0.06140
1535.20798 0.06118
1533.92221 0.06100
1532.63644 0.06117
1531.35067 0.06162
1530.06490 0.06210
1528.77914 0.06255
1527.49337 0.06307
1526.20760 0.06378
1524.92183 0.06469
1523.63606 0.06558
1522.35029 0.06636
1521.06452 0.06728
1519.77875 0.06847
1518.49298 0.06968
1517.20722 0.07082
1515.92145 0.07206
1514.63568 0.07348
1513.34991 0.07498
1512.06414 0.07665
1510.77837 0.07859
1509.49260 0.08052
1508.20683 0.08214
1506.92107 0.08354
1505.63530 0.08506
1504.34953 0.08669
1503.06376 0.08813
1501.77799 0.08932
1500.49222 0.09047
1499.20645 0.09160
1497.92068 0.09259
1496.63491 0.09347
1495.34915 0.09445
1494.06338 0.09556
1492.77761 0.09660
1491.49184 0.09756
1490.20607 0.09857
1488.92030 0.09968
1487.63453 0.10084
1486.34876 0.10203
1485.06299 0.10327
1483.77723 0.10454
1482.49146 0.10582
1481.20569 0.10715
1479.91992 0.10857
1478.63415 0.11007
1477.34838 0.11160
1476.06261 0.11310
1474.77684 0.11445
1473.49108 0.11562
1472.20531 0.11677
1470.91954 0.11797
1469.63377 0.11909
1468.34800 0.11998
1467.06223 0.12064
1465.77646 0.12120
1464.49069 0.12183
1463.20492 0.12262
1461.91916 0.12354
1460.63339 0.12449
1459.34762 0.12525
1458.06185 0.12577
1456.77608 0.12628
1455.49031 0.12688
1454.20454 0.12730
1452.91877 0.12740
1451.63301 0.12737
1450.34724 0.12741
1449.06147 0.12745
1447.77570 0.12744
1446.48993 0.12736
1445.20416 0.12718
1443.91839 0.12692
1442.63262 0.12667
1441.34685 0.12655
1440.06109 0.12653
1438.77532 0.12649
1437.48955 0.12651
1436.20378 0.12686
1434.91801 0.12763
1433.63224 0.12861
1432.34647 0.12964
1431.06070 0.13082
1429.77494 0.13226
1428.48917 0.13396
1427.20340 0.13580
1425.91763 0.13768
1424.63186 0.13961
1423.34609 0.14163
1422.06032 0.14356
1420.77455 0.14522
1419.48878 0.14665
1418.20302 0.14797
1416.91725 0.14909
1415.63148 0.14987
1414.34571 0.15034
1413.05994 0.15058
1411.77417 0.15059
1410.48840 0.15036
1409.20263 0.14987
1407.91687 0.14909
1406.63110 0.14797
1405.34533 0.14655
1404.05956 0.14487
1402.77379 0.14298
1401.48802 0.14088
1400.20225 0.13862
1398.91648 0.13628
1397.63071 0.13389
1396.34495 0.13133
1395.05918 0.12858
1393.77341 0.12579
1392.48764 0.12304
1391.20187 0.12031
1389.91610 0.11758
1388.63033 0.11487
1387.34456 0.11222
1386.05880 0.10963
1384.77303 0.10704
1383.48726 0.10440
1382.20149 0.10179
1380.91572 0.09925
1379.62995 0.09677
1378.34418 0.09431
1377.05841 0.09179
1375.77264 0.08914
1374.48688 0.08636
1373.20111 0.08355
1371.91534 0.08077
1370.62957 0.07808
1369.34380 0.07552
1368.05803 0.07313
1366.77226 0.07092
1365.48649 0.06879
1364.20073 0.06670
1362.91496 0.06463
1361.62919 0.06264
1360.34342 0.06078
1359.05765 0.05908
1357.77188 0.05756
1356.48611 0.05617
1355.20034 0.05485
1353.91457 0.05358
1352.62881 0.05236
1351.34304 0.05121
1350.05727 0.05015
1348.77150 0.04913
1347.48573 0.04815
1346.19996 0.04720
1344.91419 0.04632
1343.62842 0.04555
1342.34266 0.04485
1341.05689 0.04413
1339.77112 0.04340
1338.48535 0.04269
1337.19958 0.04203
1335.91381 0.04141
1334.62804 0.04081
1333.34227 0.04022
1332.05650 0.03967
1330.77074 0.03917
1329.48497 0.03873
1328.19920 0.03835
1326.91343 0.03800
1325.62766 0.03768
1324.34189 0.03735
1323.05612 0.03701
1321.77035 0.03666
1320.48459 0.03630
1319.19882 0.03596
1317.91305 0.03564
1316.62728 0.03538
1315.34151 0.03514
1314.05574 0.03491
1312.76997 0.03466
1311.48420 0.03439
1310.19843 0.03411
1308.91267 0.03383
1307.62690 0.03355
1306.34113 0.03330
1305.05536 0.03308
1303.76959 0.03287
1302.48382 0.03266
1301.19805 0.03243
1299.91228 0.03218
1298.62652 0.03193
1297.34075 0.03169
1296.05498 0.03143
1294.76921 0.03118
1293.48344 0.03093
1292.19767 0.03073
1290.91190 0.03058
1289.62613 0.03045
1288.34036 0.03027
1287.05460 0.03001
1285.76883 0.02972
1284.48306 0.02946
1283.19729 0.02929
1281.91152 0.02916
1280.62575 0.02904
1279.33998 0.02889
1278.05421 0.02869
1276.76845 0.02848
1275.48268 0.02829
1274.19691 0.02813
1272.91114 0.02798
1271.62537 0.02781
1270.33960 0.02764
1269.05383 0.02752
1267.76806 0.02745
1266.48229 0.02742
1265.19653 0.02739
1263.91076 0.02731
1262.62499 0.02716
1261.33922 0.02696
1260.05345 0.02674
1258.76768 0.02656
1257.48191 0.02641
1256.19614 0.02631
1254.91037 0.02623
1253.62461 0.02616
1252.33884 0.02605
1251.05307 0.02591
1249.76730 0.02575
1248.48153 0.02561
1247.19576 0.02549
1245.90999 0.02539
1244.62422 0.02529
1243.33846 0.02521
1242.05269 0.02513
1240.76692 0.02505
1239.48115 0.02495
1238.19538 0.02486
1236.90961 0.02478
1235.62384 0.02470
1234.33807 0.02461
1233.05230 0.02453
1231.76654 0.02449
1230.48077 0.02445
1229.19500 0.02437
1227.90923 0.02425
1226.62346 0.02414
1225.33769 0.02409
1224.05192 0.02408
1222.76615 0.02405
1221.48039 0.02397
1220.19462 0.02385
1218.90885 0.02371
1217.62308 0.02358
1216.33731 0.02347
1215.05154 0.02339
1213.76577 0.02334
1212.48000 0.02333
1211.19423 0.02332
1209.90847 0.02332
1208.62270 0.02330
1207.33693 0.02328
1206.05116 0.02325
1204.76539 0.02324
1203.47962 0.02326
1202.19385 0.02322
1200.90808 0.02306
1199.62232 0.02301
1198.33655 0.02300
1197.05078 0.02297
1195.76501 0.02294
1194.47924 0.02290
1193.19347 0.02287
1191.90770 0.02283
1190.62193 0.02281
1189.33616 0.02281
1188.05040 0.02285
1186.76463 0.02293
1185.47886 0.02299
1184.19309 0.02301
1182.90732 0.02302
1181.62155 0.02307
1180.33578 0.02316
1179.05001 0.02326
1177.76425 0.02334
1176.47848 0.02341
1175.19271 0.02351
1173.90694 0.02366
1172.62117 0.02387
1171.33540 0.02410
1170.04963 0.02433
1168.76386 0.02456
1167.47809 0.02480
1166.19233 0.02508
1164.90656 0.02533
1163.62079 0.02554
1162.33502 0.02570
1161.04925 0.02584
1159.76348 0.02600
1158.47771 0.02622
1157.19194 0.02657
1155.90618 0.02709
1154.62041 0.02773
1153.33464 0.02837
1152.04887 0.02894
1150.76310 0.02945
1149.47733 0.02994
1148.19156 0.03047
1146.90579 0.03109
1145.62002 0.03184
1144.33426 0.03272
1143.04849 0.03375
1141.76272 0.03491
1140.47695 0.03616
1139.19118 0.03749
1137.90541 0.03894
1136.61964 0.04059
1135.33387 0.04247
1134.04811 0.04455
1132.76234 0.04675
1131.47657 0.04908
1130.19080 0.05163
1128.90503 0.05451
1127.61926 0.05778
1126.33349 0.06138
1125.04772 0.06520
1123.76195 0.06916
1122.47619 0.07324
1121.19042 0.07745
1119.90465 0.08177
1118.61888 0.08614
1117.33311 0.09052
1116.04734 0.09493
1114.76157 0.09937
1113.47580 0.10378
1112.19004 0.10808
1110.90427 0.11225
1109.61850 0.11634
1108.33273 0.12042
1107.04696 0.12450
1105.76119 0.12850
1104.47542 0.13236
1103.18965 0.13605
1101.90388 0.13956
1100.61812 0.14292
1099.33235 0.14619
1098.04658 0.14947
1096.76081 0.15281
1095.47504 0.15612
1094.18927 0.15925
1092.90350 0.16210
1091.61773 0.16466
1090.33197 0.16702
1089.04620 0.16927
1087.76043 0.17148
1086.47466 0.17373
1085.18889 0.17607
1083.90312 0.17854
1082.61735 0.18120
1081.33158 0.18407
1080.04581 0.18713
1078.76005 0.19035
1077.47428 0.19371
1076.18851 0.19726
1074.90274 0.20095
1073.61697 0.20474
1072.33120 0.20863
1071.04543 0.21267
1069.75966 0.21688
1068.47390 0.22124
1067.18813 0.22566
1065.90236 0.23012
1064.61659 0.23462
1063.33082 0.23919
1062.04505 0.24387
1060.75928 0.24866
1059.47351 0.25348
1058.18774 0.25823
1056.90198 0.26285
1055.61621 0.26740
1054.33044 0.27197
1053.04467 0.27664
1051.75890 0.28143
1050.47313 0.28636
1049.18736 0.29142
1047.90159 0.29658
1046.61583 0.30183
1045.33006 0.30721
1044.04429 0.31271
1042.75852 0.31829
1041.47275 0.32389
1040.18698 0.32959
1038.90121 0.33551
1037.61544 0.34165
1036.32967 0.34783
1035.04391 0.35381
1033.75814 0.35950
1032.47237 0.36487
1031.18660 0.36995
1029.90083 0.37468
1028.61506 0.37898
1027.32929 0.38278
1026.04352 0.38605
1024.75775 0.38881
1023.47199 0.39104
1022.18622 0.39273
1020.90045 0.39386
1019.61468 0.39434
1018.32891 0.39405
1017.04314 0.39289
1015.75737 0.39092
1014.47160 0.38824
1013.18584 0.38489
1011.90007 0.38077
1010.61430 0.37580
1009.32853 0.37001
1008.04276 0.36354
1006.75699 0.35650
1005.47122 0.34898
1004.18545 0.34104
1002.89968 0.33271
1001.61392 0.32397
1000.32815 0.31478
999.04238 0.30513
997.75661 0.29514
996.47084 0.28495
995.18507 0.27469
993.89930 0.26445
992.61353 0.25432
991.32777 0.24438
990.04200 0.23476
988.75623 0.22554
987.47046 0.21672
986.18469 0.20821
984.89892 0.19996
983.61315 0.19201
982.32738 0.18445
981.04161 0.17734
979.75585 0.17073
978.47008 0.16463
977.18431 0.15907
975.89854 0.15409
974.61277 0.14976
973.32700 0.14612
972.04123 0.14322
970.75546 0.14110
969.46970 0.13981
968.18393 0.13937
966.89816 0.13967
965.61239 0.14049
964.32662 0.14147
963.04085 0.14224
961.75508 0.14247
960.46931 0.14191
959.18354 0.14047
957.89778 0.13820
956.61201 0.13532
955.32624 0.13210
954.04047 0.12876
952.75470 0.12544
951.46893 0.12218
950.18316 0.11887
948.89739 0.11549
947.61163 0.11208
946.32586 0.10876
945.04009 0.10561
943.75432 0.10259
942.46855 0.09967
941.18278 0.09684
939.89701 0.09418
938.61124 0.09173
937.32547 0.08947
936.03971 0.08734
934.75394 0.08529
933.46817 0.08336
932.18240 0.08159
930.89663 0.07996
929.61086 0.07843
928.32509 0.07700
927.03932 0.07568
925.75356 0.07448
924.46779 0.07337
923.18202 0.07230
921.89625 0.07125
920.61048 0.07018
919.32471 0.06905
918.03894 0.06790
916.75317 0.06680
915.46740 0.06589
914.18164 0.06523
912.89587 0.06477
911.61010 0.06433
910.32433 0.06379
909.03856 0.06312
907.75279 0.06239
906.46702 0.06167
905.18125 0.06103
903.89549 0.06047
902.60972 0.06000
901.32395 0.05955
900.03818 0.05907
898.75241 0.05858
897.46664 0.05813
896.18087 0.05775
894.89510 0.05740
893.60933 0.05707
892.32357 0.05685
891.03780 0.05683
889.75203 0.05707
888.46626 0.05758
887.18049 0.05846
885.89472 0.05991
884.60895 0.06217
883.32318 0.06526
882.03742 0.06892
880.75165 0.07260
879.46588 0.07583
878.18011 0.07850
876.89434 0.08093
875.60857 0.08345
874.32280 0.08604
873.03703 0.08824
871.75126 0.08949
870.46550 0.08951
869.17973 0.08837
867.89396 0.08634
866.60819 0.08367
865.32242 0.08060
864.03665 0.07733
862.75088 0.07405
861.46511 0.07090
860.17935 0.06800
858.89358 0.06550
857.60781 0.06346
856.32204 0.06179
855.03627 0.06037
853.75050 0.05915
852.46473 0.05813
851.17896 0.05728
849.89319 0.05651
848.60743 0.05579
847.32166 0.05514
846.03589 0.05459
844.75012 0.05409
843.46435 0.05359
842.17858 0.05306
840.89281 0.05255
839.60704 0.05213
838.32128 0.05176
837.03551 0.05139
835.74974 0.05096
834.46397 0.05053
833.17820 0.05016
831.89243 0.04989
830.60666 0.04970
829.32089 0.04958
828.03512 0.04949
826.74936 0.04941
825.46359 0.04935
824.17782 0.04928
822.89205 0.04920
821.60628 0.04909
820.32051 0.04896
819.03474 0.04885
817.74897 0.04874
816.46321 0.04858
815.17744 0.04835
813.89167 0.04810
812.60590 0.04790
811.32013 0.04776
810.03436 0.04762
808.74859 0.04745
807.46282 0.04729
806.17705 0.04720
804.89129 0.04720
803.60552 0.04721
802.31975 0.04721
801.03398 0.04724
799.74821 0.04726
798.46244 0.04724
797.17667 0.04714
795.89090 0.04696
794.60513 0.04676
793.31937 0.04654
792.03360 0.04631
790.74783 0.04612
789.46206 0.04602
788.17629 0.04602
786.89052 0.04609
785.60475 0.04614
784.31898 0.04613
783.03322 0.04604
781.74745 0.04593
780.46168 0.04586
779.17591 0.04583
777.89014 0.04581
776.60437 0.04579
775.31860 0.04576
774.03283 0.04573
772.74706 0.04571
771.46130 0.04574
770.17553 0.04582
768.88976 0.04588
767.60399 0.04585
766.31822 0.04574
765.03245 0.04566
763.74668 0.04568
762.46091 0.04580
761.17515 0.04593
759.88938 0.04599
758.60361 0.04596
757.31784 0.04585
756.03207 0.04571
754.74630 0.04567
753.46053 0.04579
752.17476 0.04599
750.88899 0.04605
749.60323 0.04586
748.31746 0.04557
747.03169 0.04536
745.74592 0.04529
744.46015 0.04525
743.17438 0.04512
741.88861 0.04489
740.60284 0.04465
739.31708 0.04453
738.03131 0.04455
736.74554 0.04461
735.45977 0.04461
734.17400 0.04453
732.88823 0.04442
731.60246 0.04438
730.31669 0.04442
729.03092 0.04452
727.74516 0.04464
726.45939 0.04472
725.17362 0.04478
723.88785 0.04507
722.60208 0.04498
721.31631 0.04498
720.03054 0.04508
718.74477 0.04512
717.45901 0.04503
716.17324 0.04480
714.88747 0.04450
713.60170 0.04420
712.31593 0.04398
711.03016 0.04385
709.74439 0.04379
708.45862 0.04374
707.17285 0.04367
705.88709 0.04362
704.60132 0.04362
703.31555 0.04369
702.02978 0.04380
700.74401 0.04387
699.45824 0.04386
698.17247 0.04382
696.88670 0.04380
695.60094 0.04381
694.31517 0.04380
693.02940 0.04374
691.74363 0.04364
690.45786 0.04352
689.17209 0.04343
687.88632 0.04336
686.60055 0.04328
685.31478 0.04311
684.02902 0.04284
682.74325 0.04248
681.45748 0.04215
680.17171 0.04191
678.88594 0.04176
677.60017 0.04164
676.31440 0.04156
675.02863 0.04156
673.74287 0.04166
672.45710 0.04179
671.17133 0.04188
669.88556 0.04192
668.59979 0.04199
667.31402 0.04201
666.02825 0.04184
664.74248 0.04165
663.45671 0.04134
662.17095 0.04096
660.88518 0.04059
659.59941 0.04031
658.31364 0.04013
657.02787 0.04001
655.74210 0.03987
654.45633 0.03967
653.17056 0.03944
651.88480 0.03926
650.59903 0.03916
649.31326 0.03914
648.02749 0.03916
646.74172 0.03917
645.45595 0.03918
644.17018 0.03921
642.88441 0.03929
641.59864 0.03938
640.31288 0.03948
639.02711 0.03958
637.74134 0.03969
636.45557 0.03987
635.16980 0.04019
633.88403 0.04068
632.59826 0.04121
631.31249 0.04125
630.02673 0.04135
628.74096 0.04400
627.45519 0.04613
626.16942 0.05069
624.88365 0.05674
623.59788 0.06231
622.31211 0.06661
621.02634 0.06969
619.74057 0.07188
618.45481 0.07352
617.16904 0.07478
615.88327 0.07599
614.59750 0.07803
613.31173 0.08238
612.02596 0.09002
610.74019 0.10030
609.45442 0.11108
608.16866 0.12039
606.88289 0.12766
605.59712 0.13331
604.31135 0.13763
603.02558 0.14031
601.73981 0.14077
600.45404 0.13894
599.16827 0.13546
597.88250 0.13120
596.59674 0.12682
595.31097 0.12263
594.02520 0.11880
592.73943 0.11554
591.45366 0.11305
590.16789 0.11147
588.88212 0.11087
587.59635 0.11123
586.31059 0.11251
585.02482 0.11464
583.73905 0.11750
582.45328 0.12094
581.16751 0.12472
579.88174 0.12861
578.59597 0.13242
577.31020 0.13605
576.02443 0.13949
574.73867 0.14277
573.45290 0.14600
572.16713 0.14940
570.88136 0.15321
569.59559 0.15764
568.30982 0.16269
567.02405 0.16813
565.73828 0.17352
564.45251 0.17828
563.16675 0.18174
561.88098 0.18329
560.59521 0.18251
559.30944 0.17930
558.02367 0.17387
556.73790 0.16676
555.45213 0.15862
554.16636 0.15010
552.88060 0.14164
551.59483 0.13349
550.30906 0.12580
549.02329 0.11873
547.73752 0.11240
546.45175 0.10685
545.16598 0.10201
543.88021 0.09772
542.59444 0.09381
541.30868 0.09019
540.02291 0.08682
538.73714 0.08367
537.45137 0.08073
536.16560 0.07801
534.87983 0.07556
533.59406 0.07341
532.30829 0.07148
531.02253 0.06967
529.73676 0.06787
528.45099 0.06604
527.16522 0.06419
525.87945 0.06244
524.59368 0.06091
523.30791 0.05966
522.02214 0.05857
520.73637 0.05746
519.45061 0.05623
518.16484 0.05495
516.87907 0.05375
515.59330 0.05268
514.30753 0.05168
513.02176 0.05070
511.73599 0.04980
510.45022 0.04902
509.16446 0.04830
507.87869 0.04762
506.59292 0.04696
505.30715 0.04639
504.02138 0.04587
502.73561 0.04535
501.44984 0.04478
500.16407 0.04419
498.87830 0.04361
497.59254 0.04304
496.30677 0.04246
495.02100 0.04192
493.73523 0.04150
492.44946 0.04124
491.16369 0.04112
489.87792 0.04103
488.59215 0.04084
487.30639 0.04056
486.02062 0.04025
484.73485 0.04005
483.44908 0.03997
482.16331 0.03999
480.87754 0.04007
479.59177 0.04025
478.30600 0.04053
477.02023 0.04091
475.73447 0.04131
474.44870 0.04167
473.16293 0.04196
471.87716 0.04218
470.59139 0.04231
469.30562 0.04229
468.01985 0.04212
466.73408 0.04185
465.44832 0.04147
464.16255 0.04099
462.87678 0.04044
461.59101 0.03988
460.30524 0.03938
459.01947 0.03899
457.73370 0.03870
456.44793 0.03840
455.16216 0.03799
453.87640 0.03746
452.59063 0.03695
451.30486 0.03656
450.01909 0.03630
448.73332 0.03606
447.44755 0.03576
446.16178 0.03540
444.87601 0.03501
443.59025 0.03467
442.30448 0.03444
441.01871 0.03433
439.73294 0.03429
438.44717 0.03425
437.16140 0.03417
435.87563 0.03405
434.58986 0.03394
433.30409 0.03385
432.01833 0.03377
430.73256 0.03365
429.44679 0.03347
428.16102 0.03325
426.87525 0.03305
425.58948 0.03291
424.30371 0.03282
423.01794 0.03275
421.73218 0.03268
420.44641 0.03256
419.16064 0.03241
417.87487 0.03220
416.58910 0.03192
415.30333 0.03159
414.01756 0.03132
412.73179 0.03118
411.44602 0.03115
410.16026 0.03119
408.87449 0.03123
407.58872 0.03124
406.30295 0.03125
405.01718 0.03130
403.73141 0.03139
402.44564 0.03151
401.15987 0.03163
399.87411 0.03171
