3997.45528 0.03445
3996.16951 0.03615
3994.88374 0.03707
3993.59798 0.03675
3992.31221 0.03559
3991.02644 0.03463
3989.74067 0.03465
3988.45490 0.03554
3987.16913 0.03635
3985.88336 0.03609
3984.59759 0.03456
3983.31183 0.03257
3982.02606 0.03134
3980.74029 0.03158
3979.45452 0.03292
3978.16875 0.03429
3976.88298 0.03488
3975.59721 0.03477
3974.31144 0.03459
3973.02567 0.03470
3971.73991 0.03489
3970.45414 0.03472
3969.16837 0.03415
3967.88260 0.03361
3966.59683 0.03363
3965.31106 0.03429
3964.02529 0.03504
3962.73952 0.03510
3961.45376 0.03427
3960.16799 0.03315
3958.88222 0.03264
3957.59645 0.03305
3956.31068 0.03391
3955.02491 0.03448
3953.73914 0.03455
3952.45337 0.03460
3951.16760 0.03511
3949.88184 0.03584
3948.59607 0.03603
3947.31030 0.03533
3946.02453 0.03433
3944.73876 0.03397
3943.45299 0.03466
3942.16722 0.03599
3940.88145 0.03708
3939.59569 0.03723
3938.30992 0.03648
3937.02415 0.03537
3935.73838 0.03436
3934.45261 0.03351
3933.16684 0.03274
3931.88107 0.03215
3930.59530 0.03197
3929.30953 0.03230
3928.02377 0.03289
3926.73800 0.03348
3925.45223 0.03405
3924.16646 0.03473
3922.88069 0.03541
3921.59492 0.03569
3920.30915 0.03521
3919.02338 0.03391
3917.73762 0.03225
3916.45185 0.03101
3915.16608 0.03060
3913.88031 0.03064
3912.59454 0.03053
3911.30877 0.03031
3910.02300 0.03052
3908.73723 0.03141
3907.45146 0.03246
3906.16570 0.03299
3904.87993 0.03302
3903.59416 0.03304
3902.30839 0.03326
3901.02262 0.03352
3899.73685 0.03378
3898.45108 0.03424
3897.16531 0.03489
3895.87955 0.03550
3894.59378 0.03587
3893.30801 0.03596
3892.02224 0.03594
3890.73647 0.03602
3889.45070 0.03596
3888.16493 0.03525
3886.87916 0.03410
3885.59339 0.03355
3884.30763 0.03412
3883.02186 0.03517
3881.73609 0.03579
3880.45032 0.03587
3879.16455 0.03568
3877.87878 0.03523
3876.59301 0.03443
3875.30724 0.03356
3874.02148 0.03307
3872.73571 0.03299
3871.44994 0.03304
3870.16417 0.03313
3868.87840 0.03317
3867.59263 0.03275
3866.30686 0.03193
3865.02109 0.03151
3863.73532 0.03185
3862.44956 0.03241
3861.16379 0.03272
3859.87802 0.03297
3858.59225 0.03342
3857.30648 0.03377
3856.02071 0.03354
3854.73494 0.03296
3853.44917 0.03291
3852.16341 0.03368
3850.87764 0.03453
3849.59187 0.03490
3848.30610 0.03496
3847.02033 0.03497
3845.73456 0.03491
3844.44879 0.03468
3843.16302 0.03429
3841.87725 0.03367
3840.59149 0.03255
3839.30572 0.03104
3838.01995 0.02988
3836.73418 0.02971
3835.44841 0.03029
3834.16264 0.03100
3832.87687 0.03162
3831.59110 0.03215
3830.30534 0.03243
3829.01957 0.03233
3827.73380 0.03197
3826.44803 0.03164
3825.16226 0.03140
3823.87649 0.03101
3822.59072 0.03054
3821.30495 0.03057
3820.01918 0.03131
3818.73342 0.03202
3817.44765 0.03208
3816.16188 0.03200
3814.87611 0.03235
3813.59034 0.03276
3812.30457 0.03285
3811.01880 0.03298
3809.73303 0.03328
3808.44726 0.03335
3807.16150 0.03299
3805.87573 0.03244
3804.58996 0.03180
3803.30419 0.03126
3802.01842 0.03145
3800.73265 0.03262
3799.44688 0.03370
3798.16111 0.03358
3796.87535 0.03259
3795.58958 0.03175
3794.30381 0.03133
3793.01804 0.03089
3791.73227 0.03033
3790.44650 0.02993
3789.16073 0.02990
3787.87496 0.03012
3786.58919 0.03033
3785.30343 0.03048
3784.01766 0.03071
3782.73189 0.03087
3781.44612 0.03072
3780.16035 0.03040
3778.87458 0.03035
3777.58881 0.03068
3776.30304 0.03100
3775.01728 0.03112
3773.73151 0.03133
3772.44574 0.03187
3771.15997 0.03268
3769.87420 0.03350
3768.58843 0.03389
3767.30266 0.03357
3766.01689 0.03283
3764.73112 0.03229
3763.44536 0.03215
3762.15959 0.03209
3760.87382 0.03189
3759.58805 0.03165
3758.30228 0.03157
3757.01651 0.03181
3755.73074 0.03224
3754.44497 0.03240
3753.15921 0.03206
3751.87344 0.03146
3750.58767 0.03098
3749.30190 0.03097
3748.01613 0.03131
3746.73036 0.03112
3745.44459 0.03007
3744.15882 0.02906
3742.87305 0.02851
3741.58729 0.02783
3740.30152 0.02709
3739.01575 0.02701
3737.72998 0.02785
3736.44421 0.02943
3735.15844 0.03139
3733.87267 0.03309
3732.58690 0.03405
3731.30114 0.03421
3730.01537 0.03352
3728.72960 0.03196
3727.44383 0.03001
3726.15806 0.02857
3724.87229 0.02802
3723.58652 0.02821
3722.30075 0.02889
3721.01498 0.02977
3719.72922 0.03054
3718.44345 0.03092
3717.15768 0.03089
3715.87191 0.03055
3714.58614 0.03000
3713.30037 0.02960
3712.01460 0.02959
3710.72883 0.02974
3709.44307 0.02957
3708.15730 0.02911
3706.87153 0.02893
3705.58576 0.02930
3704.29999 0.02972
3703.01422 0.02969
3701.72845 0.02924
3700.44268 0.02887
3699.15691 0.02872
3697.87115 0.02861
3696.58538 0.02835
3695.29961 0.02786
3694.01384 0.02739
3692.72807 0.02753
3691.44230 0.02864
3690.15653 0.03018
3688.87076 0.03127
3687.58500 0.03161
3686.29923 0.03149
3685.01346 0.03144
3683.72769 0.03183
3682.44192 0.03234
3681.15615 0.03234
3679.87038 0.03177
3678.58461 0.03112
3677.29884 0.03077
3676.01308 0.03103
3674.72731 0.03184
3673.44154 0.03245
3672.15577 0.03223
3670.87000 0.03189
3669.58423 0.03250
3668.29846 0.03381
3667.01269 0.03473
3665.72693 0.03455
3664.44116 0.03328
3663.15539 0.03142
3661.86962 0.02982
3660.58385 0.02926
3659.29808 0.02992
3658.01231 0.03143
3656.72654 0.03341
3655.44077 0.03553
3654.15501 0.03708
3652.86924 0.03735
3651.58347 0.03642
3650.29770 0.03505
3649.01193 0.03388
3647.72616 0.03303
3646.44039 0.03233
3645.15462 0.03173
3643.86886 0.03148
3642.58309 0.03188
3641.29732 0.03291
3640.01155 0.03416
3638.72578 0.03521
3637.44001 0.03585
3636.15424 0.03600
3634.86847 0.03578
3633.58270 0.03555
3632.29694 0.03546
3631.01117 0.03538
3629.72540 0.03544
3628.43963 0.03605
3627.15386 0.03697
3625.86809 0.03730
3624.58232 0.03672
3623.29655 0.03581
3622.01079 0.03522
3620.72502 0.03510
3619.43925 0.03525
3618.15348 0.03536
3616.86771 0.03526
3615.58194 0.03505
3614.29617 0.03519
3613.01040 0.03598
3611.72463 0.03713
3610.43887 0.03802
3609.15310 0.03848
3607.86733 0.03879
3606.58156 0.03918
3605.29579 0.03956
3604.01002 0.03978
3602.72425 0.03978
3601.43848 0.03969
3600.15272 0.03996
3598.86695 0.04088
3597.58118 0.04226
3596.29541 0.04339
3595.00964 0.04361
3593.72387 0.04286
3592.43810 0.04183
3591.15233 0.04123
3589.86656 0.04129
3588.58080 0.04184
3587.29503 0.04260
3586.00926 0.04325
3584.72349 0.04356
3583.43772 0.04342
3582.15195 0.04295
3580.86618 0.04240
3579.58041 0.04215
3578.29464 0.04253
3577.00888 0.04367
3575.72311 0.04521
3574.43734 0.04642
3573.15157 0.04678
3571.86580 0.04636
3570.58003 0.04575
3569.29426 0.04537
3568.00849 0.04527
3566.72273 0.04529
3565.43696 0.04535
3564.15119 0.04551
3562.86542 0.04585
3561.57965 0.04630
3560.29388 0.04680
3559.00811 0.04742
3557.72234 0.04819
3556.43657 0.04887
3555.15081 0.04914
3553.86504 0.04904
3552.57927 0.04900
3551.29350 0.04934
3550.00773 0.04978
3548.72196 0.04983
3547.43619 0.04948
3546.15042 0.04924
3544.86466 0.04937
3543.57889 0.04955
3542.29312 0.04941
3541.00735 0.04916
3539.72158 0.04927
3538.43581 0.04983
3537.15004 0.05040
3535.86427 0.05054
3534.57850 0.05027
3533.29274 0.05001
3532.00697 0.05017
3530.72120 0.05075
3529.43543 0.05132
3528.14966 0.05146
3526.86389 0.05113
3525.57812 0.05071
3524.29235 0.05069
3523.00659 0.05128
3521.72082 0.05218
3520.43505 0.05287
3519.14928 0.05303
3517.86351 0.05285
3516.57774 0.05276
3515.29197 0.05289
3514.00620 0.05294
3512.72043 0.05250
3511.43467 0.05154
3510.14890 0.05055
3508.86313 0.05019
3507.57736 0.05070
3506.29159 0.05186
3505.00582 0.05319
3503.72005 0.05432
3502.43428 0.05501
3501.14852 0.05513
3499.86275 0.05481
3498.57698 0.05430
3497.29121 0.05381
3496.00544 0.05344
3494.71967 0.05325
3493.43390 0.05335
3492.14813 0.05379
3490.86236 0.05442
3489.57660 0.05501
3488.29083 0.05548
3487.00506 0.05594
3485.71929 0.05652
3484.43352 0.05716
3483.14775 0.05760
3481.86198 0.05768
3480.57621 0.05748
3479.29045 0.05735
3478.00468 0.05755
3476.71891 0.05806
3475.43314 0.05862
3474.14737 0.05900
3472.86160 0.05911
3471.57583 0.05902
3470.29006 0.05887
3469.00429 0.05886
3467.71853 0.05909
3466.43276 0.05939
3465.14699 0.05945
3463.86122 0.05908
3462.57545 0.05842
3461.28968 0.05777
3460.00391 0.05739
3458.71814 0.05743
3457.43238 0.05770
3456.14661 0.05789
3454.86084 0.05790
3453.57507 0.05791
3452.28930 0.05809
3451.00353 0.05825
3449.71776 0.05817
3448.43199 0.05794
3447.14622 0.05785
3445.86046 0.05798
3444.57469 0.05810
3443.28892 0.05804
3442.00315 0.05798
3440.71738 0.05815
3439.43161 0.05855
3438.14584 0.05888
3436.86007 0.05889
3435.57431 0.05868
3434.28854 0.05860
3433.00277 0.05890
3431.71700 0.05944
3430.43123 0.05994
3429.14546 0.06014
3427.85969 0.05987
3426.57392 0.05920
3425.28815 0.05850
3424.00239 0.05826
3422.71662 0.05870
3421.43085 0.05954
3420.14508 0.06038
3418.85931 0.06092
3417.57354 0.06108
3416.28777 0.06102
3415.00200 0.06104
3413.71624 0.06136
3412.43047 0.06187
3411.14470 0.06221
3409.85893 0.06211
3408.57316 0.06170
3407.28739 0.06136
3406.00162 0.06142
3404.71585 0.06191
3403.43008 0.06259
3402.14432 0.06321
3400.85855 0.06376
3399.57278 0.06422
3398.28701 0.06437
3397.00124 0.06412
3395.71547 0.06352
3394.42970 0.06281
3393.14393 0.06231
3391.85817 0.06218
3390.57240 0.06232
3389.28663 0.06255
3388.00086 0.06280
3386.71509 0.06309
3385.42932 0.06335
3384.14355 0.06341
3382.85778 0.06319
3381.57201 0.06281
3380.28625 0.06252
3379.00048 0.06243
3377.71471 0.06243
3376.42894 0.06231
3375.14317 0.06202
3373.85740 0.06176
3372.57163 0.06181
3371.28586 0.06223
3370.00010 0.06276
3368.71433 0.06307
3367.42856 0.06308
3366.14279 0.06295
3364.85702 0.06282
3363.57125 0.06271
3362.28548 0.06256
3360.99971 0.06240
3359.71394 0.06229
3358.42818 0.06226
3357.14241 0.06226
3355.85664 0.06231
3354.57087 0.06248
3353.28510 0.06277
3351.99933 0.06295
3350.71356 0.06272
3349.42779 0.06199
3348.14202 0.06102
3346.85626 0.06021
3345.57049 0.05985
3344.28472 0.06009
3342.99895 0.06084
3341.71318 0.06166
3340.42741 0.06207
3339.14164 0.06192
3337.85587 0.06158
3336.57011 0.06149
3335.28434 0.06169
3333.99857 0.06184
3332.71280 0.06169
3331.42703 0.06134
3330.14126 0.06103
3328.85549 0.06078
3327.56972 0.06052
3326.28395 0.06029
3324.99819 0.06031
3323.71242 0.06072
3322.42665 0.06138
3321.14088 0.06191
3319.85511 0.06200
3318.56934 0.06162
3317.28357 0.06102
3315.99780 0.06054
3314.71204 0.06042
3313.42627 0.06069
3312.14050 0.06120
3310.85473 0.06174
3309.56896 0.06208
3308.28319 0.06211
3306.99742 0.06182
3305.71165 0.06136
3304.42588 0.06097
3303.14012 0.06082
3301.85435 0.06087
3300.56858 0.06085
3299.28281 0.06058
3297.99704 0.06021
3296.71127 0.05998
3295.42550 0.05995
3294.13973 0.05998
3292.85397 0.06005
3291.56820 0.06028
3290.28243 0.06062
3288.99666 0.06075
3287.71089 0.06035
3286.42512 0.05958
3285.13935 0.05882
3283.85358 0.05827
3282.56781 0.05794
3281.28205 0.05792
3279.99628 0.05842
3278.71051 0.05925
3277.42474 0.05986
3276.13897 0.05990
3274.85320 0.05957
3273.56743 0.05934
3272.28166 0.05944
3270.99590 0.05986
3269.71013 0.06042
3268.42436 0.06085
3267.13859 0.06093
3265.85282 0.06075
3264.56705 0.06061
3263.28128 0.06066
3261.99551 0.06078
3260.70974 0.06074
3259.42398 0.06050
3258.13821 0.06007
3256.85244 0.05949
3255.56667 0.05876
3254.28090 0.05801
3252.99513 0.05749
3251.70936 0.05736
3250.42359 0.05756
3249.13783 0.05783
3247.85206 0.05791
3246.56629 0.05776
3245.28052 0.05755
3243.99475 0.05753
3242.70898 0.05779
3241.42321 0.05816
3240.13744 0.05843
3238.85167 0.05849
3237.56591 0.05845
3236.28014 0.05842
3234.99437 0.05841
3233.70860 0.05834
3232.42283 0.05811
3231.13706 0.05776
3229.85129 0.05739
3228.56552 0.05712
3227.27976 0.05695
3225.99399 0.05685
3224.70822 0.05677
3223.42245 0.05664
3222.13668 0.05644
3220.85091 0.05624
3219.56514 0.05624
3218.27937 0.05653
3216.99360 0.05695
3215.70784 0.05726
3214.42207 0.05736
3213.13630 0.05729
3211.85053 0.05718
3210.56476 0.05709
3209.27899 0.05700
3207.99322 0.05687
3206.70745 0.05664
3205.42169 0.05631
3204.13592 0.05592
3202.85015 0.05551
3201.56438 0.05510
3200.27861 0.05478
3198.99284 0.05467
3197.70707 0.05485
3196.42130 0.05522
3195.13553 0.05559
3193.84977 0.05579
3192.56400 0.05580
3191.27823 0.05572
3189.99246 0.05554
3188.70669 0.05519
3187.42092 0.05479
3186.13515 0.05464
3184.84938 0.05498
3183.56362 0.05570
3182.27785 0.05635
3180.99208 0.05648
3179.70631 0.05602
3178.42054 0.05530
3177.13477 0.05479
3175.84900 0.05462
3174.56323 0.05454
3173.27746 0.05427
3171.99170 0.05379
3170.70593 0.05333
3169.42016 0.05307
3168.13439 0.05299
3166.84862 0.05299
3165.56285 0.05300
3164.27708 0.05305
3162.99131 0.05313
3161.70555 0.05317
3160.41978 0.05305
3159.13401 0.05277
3157.84824 0.05254
3156.56247 0.05256
3155.27670 0.05284
3153.99093 0.05316
3152.70516 0.05329
3151.41939 0.05315
3150.13363 0.05289
3148.84786 0.05268
3147.56209 0.05256
3146.27632 0.05246
3144.99055 0.05235
3143.70478 0.05230
3142.41901 0.05235
3141.13324 0.05241
3139.84748 0.05237
3138.56171 0.05221
3137.27594 0.05197
3135.99017 0.05174
3134.70440 0.05154
3133.41863 0.05135
3132.13286 0.05119
3130.84709 0.05114
3129.56132 0.05131
3128.27556 0.05166
3126.98979 0.05194
3125.70402 0.05196
3124.41825 0.05175
3123.13248 0.05143
3121.84671 0.05103
3120.56094 0.05048
3119.27517 0.04978
3117.98940 0.04905
3116.70364 0.04841
3115.41787 0.04785
3114.13210 0.04743
3112.84633 0.04735
3111.56056 0.04772
3110.27479 0.04836
3108.98902 0.04888
3107.70325 0.04906
3106.41749 0.04896
3105.13172 0.04871
3103.84595 0.04833
3102.56018 0.04785
3101.27441 0.04748
3099.98864 0.04745
3098.70287 0.04787
3097.41710 0.04861
3096.13133 0.04937
3094.84557 0.04981
3093.55980 0.04977
3092.27403 0.04925
3090.98826 0.04836
3089.70249 0.04731
3088.41672 0.04646
3087.13095 0.04615
3085.84518 0.04645
3084.55942 0.04699
3083.27365 0.04735
3081.98788 0.04741
3080.70211 0.04728
3079.41634 0.04707
3078.13057 0.04684
3076.84480 0.04665
3075.55903 0.04669
3074.27326 0.04705
3072.98750 0.04758
3071.70173 0.04799
3070.41596 0.04809
3069.13019 0.04789
3067.84442 0.04750
3066.55865 0.04702
3065.27288 0.04650
3063.98711 0.04597
3062.70135 0.04554
3061.41558 0.04535
3060.12981 0.04549
3058.84404 0.04580
3057.55827 0.04592
3056.27250 0.04566
3054.98673 0.04513
3053.70096 0.04468
3052.41519 0.04458
3051.12943 0.04481
3049.84366 0.04516
3048.55789 0.04541
3047.27212 0.04551
3045.98635 0.04545
3044.70058 0.04529
3043.41481 0.04508
3042.12904 0.04499
3040.84328 0.04512
3039.55751 0.04537
3038.27174 0.04548
3036.98597 0.04527
3035.70020 0.04476
3034.41443 0.04422
3033.12866 0.04389
3031.84289 0.04382
3030.55712 0.04387
3029.27136 0.04389
3027.98559 0.04380
3026.69982 0.04361
3025.41405 0.04335
3024.12828 0.04306
3022.84251 0.04283
3021.55674 0.04274
3020.27097 0.04280
3018.98521 0.04291
3017.69944 0.04299
3016.41367 0.04303
3015.12790 0.04303
3013.84213 0.04305
3012.55636 0.04306
3011.27059 0.04300
3009.98482 0.04272
3008.69905 0.04222
3007.41329 0.04173
3006.12752 0.04158
3004.84175 0.04187
3003.55598 0.04236
3002.27021 0.04274
3000.98444 0.04287
2999.69867 0.04279
2998.41290 0.04264
2997.12714 0.04241
2995.84137 0.04203
2994.55560 0.04156
2993.26983 0.04122
2991.98406 0.04120
2990.69829 0.04149
2989.41252 0.04189
2988.12675 0.04225
2986.84098 0.04252
2985.55522 0.04272
2984.26945 0.04283
2982.98368 0.04283
2981.69791 0.04270
2980.41214 0.04246
2979.12637 0.04217
2977.84060 0.04199
2976.55483 0.04212
2975.26907 0.04270
2973.98330 0.04361
2972.69753 0.04447
2971.41176 0.04487
2970.12599 0.04472
2968.84022 0.04427
2967.55445 0.04400
2966.26868 0.04415
2964.98291 0.04460
2963.69715 0.04508
2962.41138 0.04545
2961.12561 0.04573
2959.83984 0.04600
2958.55407 0.04632
2957.26830 0.04665
2955.98253 0.04691
2954.69676 0.04696
2953.41100 0.04672
2952.12523 0.04621
2950.83946 0.04556
2949.55369 0.04499
2948.26792 0.04471
2946.98215 0.04480
2945.69638 0.04524
2944.41061 0.04580
2943.12484 0.04617
2941.83908 0.04614
2940.55331 0.04577
2939.26754 0.04539
2937.98177 0.04529
2936.69600 0.04553
2935.41023 0.04602
2934.12446 0.04667
2932.83869 0.04735
2931.55293 0.04787
2930.26716 0.04804
2928.98139 0.04790
2927.69562 0.04764
2926.40985 0.04744
2925.12408 0.04732
2923.83831 0.04722
2922.55254 0.04711
2921.26677 0.04698
2919.98101 0.04676
2918.69524 0.04647
2917.40947 0.04612
2916.12370 0.04573
2914.83793 0.04529
2913.55216 0.04484
2912.26639 0.04445
2910.98062 0.04418
2909.69486 0.04394
2908.40909 0.04368
2907.12332 0.04343
2905.83755 0.04329
2904.55178 0.04329
2903.26601 0.04333
2901.98024 0.04325
2900.69447 0.04294
2899.40870 0.04250
2898.12294 0.04215
2896.83717 0.04204
2895.55140 0.04211
2894.26563 0.04213
2892.97986 0.04195
2891.69409 0.04157
2890.40832 0.04107
2889.12255 0.04057
2887.83678 0.04023
2886.55102 0.04016
2885.26525 0.04027
2883.97948 0.04032
2882.69371 0.04016
2881.40794 0.03984
2880.12217 0.03954
2878.83640 0.03941
2877.55063 0.03953
2876.26487 0.03987
2874.97910 0.04024
2873.69333 0.04048
2872.40756 0.04055
2871.12179 0.04044
2869.83602 0.04015
2868.55025 0.03970
2867.26448 0.03927
2865.97871 0.03902
2864.69295 0.03897
2863.40718 0.03902
2862.12141 0.03904
2860.83564 0.03898
2859.54987 0.03893
2858.26410 0.03896
2856.97833 0.03906
2855.69256 0.03913
2854.40680 0.03911
2853.12103 0.03905
2851.83526 0.03895
2850.54949 0.03874
2849.26372 0.03830
2847.97795 0.03765
2846.69218 0.03694
2845.40641 0.03637
2844.12064 0.03605
2842.83488 0.03585
2841.54911 0.03561
2840.26334 0.03532
2838.97757 0.03510
2837.69180 0.03499
2836.40603 0.03494
2835.12026 0.03489
2833.83449 0.03483
2832.54873 0.03479
2831.26296 0.03470
2829.97719 0.03452
2828.69142 0.03430
2827.40565 0.03414
2826.11988 0.03400
2824.83411 0.03374
2823.54834 0.03334
2822.26257 0.03299
2820.97681 0.03290
2819.69104 0.03306
2818.40527 0.03333
2817.11950 0.03350
2815.83373 0.03345
2814.54796 0.03319
2813.26219 0.03283
2811.97642 0.03245
2810.69066 0.03210
2809.40489 0.03187
2808.11912 0.03182
2806.83335 0.03189
2805.54758 0.03191
2804.26181 0.03184
2802.97604 0.03176
2801.69027 0.03174
2800.40450 0.03170
2799.11874 0.03152
2797.83297 0.03119
2796.54720 0.03090
2795.26143 0.03082
2793.97566 0.03101
2792.68989 0.03137
2791.40412 0.03165
2790.11835 0.03167
2788.83259 0.03137
2787.54682 0.03095
2786.26105 0.03066
2784.97528 0.03063
2783.68951 0.03073
2782.40374 0.03084
2781.11797 0.03091
2779.83220 0.03091
2778.54643 0.03079
2777.26067 0.03058
2775.97490 0.03043
2774.68913 0.03042
2773.40336 0.03047
2772.11759 0.03043
2770.83182 0.03036
2769.54605 0.03033
2768.26028 0.03029
2766.97452 0.03014
2765.68875 0.02991
2764.40298 0.02976
2763.11721 0.02978
2761.83144 0.02986
2760.54567 0.02983
2759.25990 0.02968
2757.97413 0.02954
2756.68836 0.02946
2755.40260 0.02938
2754.11683 0.02927
2752.83106 0.02926
2751.54529 0.02950
2750.25952 0.02998
2748.97375 0.03044
2747.68798 0.03061
2746.40221 0.03045
2745.11645 0.03013
2743.83068 0.02986
2742.54491 0.02966
2741.25914 0.02949
2739.97337 0.02930
2738.68760 0.02914
2737.40183 0.02907
2736.11606 0.02906
2734.83029 0.02902
2733.54453 0.02891
2732.25876 0.02877
2730.97299 0.02864
2729.68722 0.02851
2728.40145 0.02836
2727.11568 0.02827
2725.82991 0.02830
2724.54414 0.02840
2723.25838 0.02850
2721.97261 0.02859
2720.68684 0.02869
2719.40107 0.02878
2718.11530 0.02877
2716.82953 0.02862
2715.54376 0.02835
2714.25799 0.02799
2712.97222 0.02757
2711.68646 0.02721
2710.40069 0.02701
2709.11492 0.02706
2707.82915 0.02732
2706.54338 0.02763
2705.25761 0.02784
2703.97184 0.02791
2702.68607 0.02791
2701.40031 0.02791
2700.11454 0.02792
2698.82877 0.02787
2697.54300 0.02771
2696.25723 0.02742
2694.97146 0.02705
2693.68569 0.02672
2692.39992 0.02659
2691.11415 0.02670
2689.82839 0.02691
2688.54262 0.02705
2687.25685 0.02703
2685.97108 0.02696
2684.68531 0.02692
2683.39954 0.02687
2682.11377 0.02671
2680.82800 0.02643
2679.54224 0.02613
2678.25647 0.02594
2676.97070 0.02597
2675.68493 0.02622
2674.39916 0.02659
2673.11339 0.02689
2671.82762 0.02699
2670.54185 0.02692
2669.25608 0.02682
2667.97032 0.02681
2666.68455 0.02688
2665.39878 0.02694
2664.11301 0.02694
2662.82724 0.02695
2661.54147 0.02703
2660.25570 0.02710
2658.96993 0.02694
2657.68417 0.02646
2656.39840 0.02587
2655.11263 0.02546
2653.82686 0.02532
2652.54109 0.02537
2651.25532 0.02549
2649.96955 0.02568
2648.68378 0.02591
2647.39801 0.02607
2646.11225 0.02599
2644.82648 0.02570
2643.54071 0.02543
2642.25494 0.02540
2640.96917 0.02562
2639.68340 0.02583
2638.39763 0.02573
2637.11186 0.02521
2635.82609 0.02444
2634.54033 0.02365
2633.25456 0.02307
2631.96879 0.02285
2630.68302 0.02304
2629.39725 0.02348
2628.11148 0.02381
2626.82571 0.02380
2625.53994 0.02350
2624.25418 0.02310
2622.96841 0.02279
2621.68264 0.02265
2620.39687 0.02272
2619.11110 0.02291
2617.82533 0.02300
2616.53956 0.02292
2615.25379 0.02276
2613.96802 0.02266
2612.68226 0.02260
2611.39649 0.02249
2610.11072 0.02234
2608.82495 0.02223
2607.53918 0.02221
2606.25341 0.02222
2604.96764 0.02216
2603.68187 0.02204
2602.39611 0.02190
2601.11034 0.02183
2599.82457 0.02189
2598.53880 0.02208
2597.25303 0.02228
2595.96726 0.02237
2594.68149 0.02232
2593.39572 0.02218
2592.10995 0.02200
2590.82419 0.02177
2589.53842 0.02147
2588.25265 0.02119
2586.96688 0.02106
2585.68111 0.02105
2584.39534 0.02104
2583.10957 0.02099
2581.82380 0.02101
2580.53804 0.02123
2579.25227 0.02158
2577.96650 0.02187
2576.68073 0.02192
2575.39496 0.02170
2574.10919 0.02131
2572.82342 0.02092
2571.53765 0.02070
2570.25188 0.02063
2568.96612 0.02047
2567.68035 0.02010
2566.39458 0.01969
2565.10881 0.01953
2563.82304 0.01968
2562.53727 0.02001
2561.25150 0.02029
2559.96573 0.02037
2558.67997 0.02020
2557.39420 0.01992
2556.10843 0.01981
2554.82266 0.02010
2553.53689 0.02064
2552.25112 0.02104
2550.96535 0.02097
2549.67958 0.02054
2548.39381 0.02011
2547.10805 0.01998
2545.82228 0.02019
2544.53651 0.02052
2543.25074 0.02069
2541.96497 0.02048
2540.67920 0.01990
2539.39343 0.01917
2538.10766 0.01866
2536.82190 0.01861
2535.53613 0.01898
2534.25036 0.01953
2532.96459 0.01997
2531.67882 0.02017
2530.39305 0.02019
2529.10728 0.02015
2527.82151 0.02000
2526.53574 0.01969
2525.24998 0.01931
2523.96421 0.01908
2522.67844 0.01915
2521.39267 0.01940
2520.10690 0.01952
2518.82113 0.01927
2517.53536 0.01867
2516.24959 0.01805
2514.96383 0.01787
2513.67806 0.01833
2512.39229 0.01921
2511.10652 0.02004
2509.82075 0.02049
2508.53498 0.02061
2507.24921 0.02064
2505.96344 0.02073
2504.67767 0.02076
2503.39191 0.02039
2502.10614 0.01944
2500.82037 0.01821
2499.53460 0.01737
2498.24883 0.01732
2496.96306 0.01787
2495.67729 0.01849
2494.39152 0.01880
2493.10576 0.01885
2491.81999 0.01889
2490.53422 0.01914
2489.24845 0.01955
2487.96268 0.01988
2486.67691 0.01994
2485.39114 0.01969
2484.10537 0.01929
2482.81960 0.01891
2481.53384 0.01864
2480.24807 0.01848
2478.96230 0.01847
2477.67653 0.01869
2476.39076 0.01906
2475.10499 0.01933
2473.81922 0.01928
2472.53345 0.01899
2471.24769 0.01877
2469.96192 0.01881
2468.67615 0.01901
2467.39038 0.01912
2466.10461 0.01905
2464.81884 0.01883
2463.53307 0.01861
2462.24730 0.01845
2460.96153 0.01841
2459.67577 0.01857
2458.39000 0.01887
2457.10423 0.01916
2455.81846 0.01932
2454.53269 0.01935
2453.24692 0.01929
2451.96115 0.01913
2450.67538 0.01895
2449.38962 0.01892
2448.10385 0.01916
2446.81808 0.01952
2445.53231 0.01969
2444.24654 0.01945
2442.96077 0.01888
2441.67500 0.01834
2440.38923 0.01820
2439.10346 0.01840
2437.81770 0.01863
2436.53193 0.01866
2435.24616 0.01863
2433.96039 0.01875
2432.67462 0.01902
2431.38885 0.01916
2430.10308 0.01896
2428.81731 0.01845
2427.53155 0.01791
2426.24578 0.01757
2424.96001 0.01746
2423.67424 0.01752
2422.38847 0.01771
2421.10270 0.01801
2419.81693 0.01836
2418.53116 0.01857
2417.24539 0.01845
2415.95963 0.01795
2414.67386 0.01724
2413.38809 0.01671
2412.10232 0.01662
2410.81655 0.01686
2409.53078 0.01716
2408.24501 0.01743
2406.95924 0.01771
2405.67347 0.01797
2404.38771 0.01806
2403.10194 0.01789
2401.81617 0.01759
2400.53040 0.01729
2399.24463 0.01707
2397.95886 0.01681
2396.67309 0.01666
2395.38732 0.01670
2394.10156 0.01689
2392.81579 0.01714
2391.53002 0.01730
2390.24425 0.01732
2388.95848 0.01719
2387.67271 0.01703
2386.38694 0.01701
2385.10117 0.01726
2383.81540 0.01772
2382.52964 0.01815
2381.24387 0.01839
2379.95810 0.01835
2378.67233 0.01827
2377.38656 0.01816
2376.10079 0.01790
2374.81502 0.01747
2373.52925 0.01764
2372.24349 0.01758
2370.95772 0.01736
2369.67195 0.01729
2368.38618 0.01745
2367.10041 0.01774
2365.81464 0.01807
2364.52887 0.01827
2363.24310 0.01825
2361.95733 0.01798
2360.67157 0.01756
2359.38580 0.01727
2358.10003 0.01717
2356.81426 0.01735
2355.52849 0.01784
2354.24272 0.01822
2352.95695 0.01802
2351.67118 0.01794
2350.38542 0.01780
2349.09965 0.01755
2347.81388 0.01749
2346.52811 0.01750
2345.24234 0.01751
2343.95657 0.01741
2342.67080 0.01734
2341.38503 0.01801
2340.09926 0.01816
2338.81350 0.01816
2337.52773 0.01836
2336.24196 0.01827
2334.95619 0.01784
2333.67042 0.01749
2332.38465 0.01719
2331.09888 0.01772
2329.81311 0.01803
2328.52735 0.01828
2327.24158 0.01829
2325.95581 0.01813
2324.67004 0.01831
2323.38427 0.01841
2322.09850 0.01815
2320.81273 0.01795
2319.52696 0.01769
2318.24119 0.01741
2316.95543 0.01735
2315.66966 0.01724
2314.38389 0.01714
2313.09812 0.01715
2311.81235 0.01693
2310.52658 0.01662
2309.24081 0.01643
2307.95504 0.01635
2306.66928 0.01646
2305.38351 0.01666
2304.09774 0.01679
2302.81197 0.01673
2301.52620 0.01646
2300.24043 0.01606
2298.95466 0.01558
2297.66889 0.01511
2296.38312 0.01476
2295.09736 0.01459
2293.81159 0.01462
2292.52582 0.01480
2291.24005 0.01499
2289.95428 0.01506
2288.66851 0.01492
2287.38274 0.01456
2286.09697 0.01413
2284.81121 0.01391
2283.52544 0.01410
2282.23967 0.01457
2280.95390 0.01497
2279.66813 0.01498
2278.38236 0.01458
2277.09659 0.01401
2275.81082 0.01361
2274.52505 0.01351
2273.23929 0.01367
2271.95352 0.01383
2270.66775 0.01375
2269.38198 0.01334
2268.09621 0.01272
2266.81044 0.01210
2265.52467 0.01163
2264.23890 0.01140
2262.95314 0.01150
2261.66737 0.01201
2260.38160 0.01287
2259.09583 0.01370
2257.81006 0.01396
2256.52429 0.01340
2255.23852 0.01235
2253.95275 0.01147
2252.66698 0.01122
2251.38122 0.01142
2250.09545 0.01163
2248.80968 0.01162
2247.52391 0.01125
2246.23814 0.01113
2244.95237 0.01150
2243.66660 0.01213
2242.38083 0.01259
2241.09507 0.01264
2239.80930 0.01231
2238.52353 0.01173
2237.23776 0.01102
2235.95199 0.01038
2234.66622 0.01013
2233.38045 0.01034
2232.09468 0.01065
2230.80891 0.01050
2229.52315 0.00985
2228.23738 0.00931
2226.95161 0.00949
2225.66584 0.01033
2224.38007 0.01117
2223.09430 0.01137
2221.80853 0.01079
2220.52276 0.00971
2219.23700 0.00868
2217.95123 0.00832
2216.66546 0.00882
2215.37969 0.00964
2214.09392 0.00989
2212.80815 0.00923
2211.52238 0.00808
2210.23661 0.00722
2208.95084 0.00716
2207.66508 0.00789
2206.37931 0.00898
2205.09354 0.00989
2203.80777 0.01030
2202.52200 0.01035
2201.23623 0.01045
2199.95046 0.01078
2198.66469 0.01111
2197.37893 0.01107
2196.09316 0.01049
2194.80739 0.00941
2193.52162 0.00800
2192.23585 0.00664
2190.95008 0.00589
2189.66431 0.00605
2188.37854 0.00677
2187.09277 0.00736
2185.80701 0.00746
2184.52124 0.00728
2183.23547 0.00700
2181.94970 0.00658
2180.66393 0.00601
2179.37816 0.00569
2178.09239 0.00597
2176.80662 0.00657
2175.52085 0.00680
2174.23509 0.00636
2172.94932 0.00569
2171.66355 0.00535
2170.37778 0.00532
2169.09201 0.00509
2167.80624 0.00435
2166.52047 0.00339
2165.23470 0.00284
2163.94894 0.00293
2162.66317 0.00333
2161.37740 0.00356
2160.09163 0.00346
2158.80586 0.00317
2157.52009 0.00284
2156.23432 0.00251
2154.94855 0.00217
2153.66278 0.00172
2152.37702 0.00119
2151.09125 0.00086
2149.80548 0.00111
2148.51971 0.00194
2147.23394 0.00297
2145.94817 0.00383
2144.66240 0.00449
2143.37663 0.00504
2142.09087 0.00545
2140.80510 0.00563
2139.51933 0.00567
2138.23356 0.00575
2136.94779 0.00582
2135.66202 0.00569
2134.37625 0.00536
2133.09048 0.00522
2131.80471 0.00568
2130.51895 0.00670
2129.23318 0.00788
2127.94741 0.00877
2126.66164 0.00914
2125.37587 0.00897
2124.09010 0.00843
2122.80433 0.00780
2121.51856 0.00734
2120.23280 0.00718
2118.94703 0.00736
2117.66126 0.00788
2116.37549 0.00864
2115.08972 0.00937
2113.80395 0.00975
2112.51818 0.00960
2111.23241 0.00897
2109.94664 0.00805
2108.66088 0.00709
2107.37511 0.00633
2106.08934 0.00600
2104.80357 0.00616
2103.51780 0.00653
2102.23203 0.00673
2100.94626 0.00668
2099.66049 0.00791
2098.37473 0.00862
2097.08896 0.00880
2095.80319 0.00879
2094.51742 0.00863
2093.23165 0.00836
2091.94588 0.00806
2090.66011 0.00777
2089.37434 0.00752
2088.08857 0.00739
2086.80281 0.00746
2085.51704 0.00777
2084.23127 0.00820
2082.94550 0.00851
2081.65973 0.00854
2080.37396 0.00817
2079.08819 0.00746
2077.80242 0.00668
2076.51666 0.00618
2075.23089 0.00618
2073.94512 0.00657
2072.65935 0.00695
2071.37358 0.00693
2070.08781 0.00645
2068.80204 0.00586
2067.51627 0.00562
2066.23050 0.00585
2064.94474 0.00616
2063.65897 0.00610
2062.37320 0.00561
2061.08743 0.00501
2059.80166 0.00456
2058.51589 0.00422
2057.23012 0.00389
2055.94435 0.00358
2054.65859 0.00350
2053.37282 0.00369
2052.08705 0.00401
2050.80128 0.00430
2049.51551 0.00458
2048.22974 0.00486
2046.94397 0.00485
2045.65820 0.00420
2044.37243 0.00299
2043.08667 0.00175
2041.80090 0.00089
2040.51513 0.00041
2039.22936 0.00017
2037.94359 0.00016
2036.65782 0.00026
2035.37205 0.00024
2034.08628 0.00010
2032.80052 0.00021
2031.51475 0.00085
2030.22898 0.00177
2028.94321 0.00237
2027.65744 0.00237
2026.37167 0.00194
2025.08590 0.00140
2023.80013 0.00093
2022.51436 0.00054
2021.22860 0.00028
2019.94283 0.00021
2018.65706 0.00036
2017.37129 0.00063
2016.08552 0.00095
2014.79975 0.00143
2013.51398 0.00227
2012.22821 0.00349
2010.94245 0.00478
2009.65668 0.00584
2008.37091 0.00653
2007.08514 0.00685
2005.79937 0.00674
2004.51360 0.00623
2003.22783 0.00557
2001.94206 0.00507
2000.65629 0.00472
1999.37053 0.00426
1998.08476 0.00363
1996.79899 0.00320
1995.51322 0.00335
1994.22745 0.00395
1992.94168 0.00441
1991.65591 0.00442
1990.37014 0.00420
1989.08438 0.00407
1987.79861 0.00412
1986.51284 0.00438
1985.22707 0.00501
1983.94130 0.00609
1982.65553 0.00731
1981.36976 0.00823
1980.08399 0.00867
1978.79822 0.00869
1977.51246 0.00839
1976.22669 0.00779
1974.94092 0.00710
1973.65515 0.00664
1972.36938 0.00658
1971.08361 0.00682
1969.79784 0.00721
1968.51207 0.00769
1967.22631 0.00822
1965.94054 0.00855
1964.65477 0.00848
1963.36900 0.00808
1962.08323 0.00777
1960.79746 0.00789
1959.51169 0.00836
1958.22592 0.00879
1956.94015 0.00881
1955.65439 0.00845
1954.36862 0.00812
1953.08285 0.00820
1951.79708 0.00861
1950.51131 0.00890
1949.22554 0.00883
1947.93977 0.00862
1946.65400 0.00860
1945.36823 0.00891
1944.08247 0.00941
1942.79670 0.00995
1941.51093 0.01037
1940.22516 0.01049
1938.93939 0.01025
1937.65362 0.00985
1936.36785 0.00949
1935.08208 0.00930
1933.79632 0.00924
1932.51055 0.00935
1931.22478 0.00960
1929.93901 0.00992
1928.65324 0.01010
1927.36747 0.01002
1926.08170 0.00980
1924.79593 0.00967
1923.51016 0.00974
1922.22440 0.00988
1920.93863 0.00983
1919.65286 0.00957
1918.36709 0.00941
1917.08132 0.00971
1915.79555 0.01041
1914.50978 0.01111
1913.22401 0.01139
1911.93825 0.01115
1910.65248 0.01057
1909.36671 0.00996
1908.08094 0.00950
1906.79517 0.00918
1905.50940 0.00899
1904.22363 0.00897
1902.93786 0.00912
1901.65209 0.00934
1900.36633 0.00950
1899.08056 0.00954
1897.79479 0.00953
1896.50902 0.00955
1895.22325 0.00965
1893.93748 0.00982
1892.65171 0.01001
1891.36594 0.01011
1890.08018 0.01000
1888.79441 0.00963
1887.50864 0.00913
1886.22287 0.00879
1884.93710 0.00890
1883.65133 0.00950
1882.36556 0.01030
1881.07979 0.01093
1879.79402 0.01119
1878.50826 0.01115
1877.22249 0.01105
1875.93672 0.01104
1874.65095 0.01112
1873.36518 0.01118
1872.07941 0.01113
1870.79364 0.01092
1869.50787 0.01063
1868.22211 0.01039
1866.93634 0.01026
1865.65057 0.01016
1864.36480 0.01005
1863.07903 0.00993
1861.79326 0.00993
1860.50749 0.01010
1859.22172 0.01041
1857.93595 0.01069
1856.65019 0.01082
1855.36442 0.01076
1854.07865 0.01059
1852.79288 0.01043
1851.50711 0.01032
1850.22134 0.01028
1848.93557 0.01033
1847.64980 0.01043
1846.36404 0.01043
1845.07827 0.01030
1843.79250 0.01015
1842.50673 0.01004
1841.22096 0.00988
1839.93519 0.00967
1838.64942 0.00957
1837.36365 0.00966
1836.07788 0.00987
1834.79212 0.01014
1833.50635 0.01040
1832.22058 0.01061
1830.93481 0.01074
1829.64904 0.01087
1828.36327 0.01102
1827.07750 0.01115
1825.79173 0.01125
1824.50597 0.01143
1823.22020 0.01164
1821.93443 0.01178
1820.64866 0.01184
1819.36289 0.01184
1818.07712 0.01175
1816.79135 0.01151
1815.50558 0.01114
1814.21981 0.01071
1812.93405 0.01032
1811.64828 0.01008
1810.36251 0.01003
1809.07674 0.01017
1807.79097 0.01038
1806.50520 0.01059
1805.21943 0.01075
1803.93366 0.01081
1802.64790 0.01079
1801.36213 0.01076
1800.07636 0.01082
1798.79059 0.01098
1797.50482 0.01117
1796.21905 0.01132
1794.93328 0.01142
1793.64751 0.01152
1792.36174 0.01173
1791.07598 0.01205
1789.79021 0.01232
1788.50444 0.01243
1787.21867 0.01241
1785.93290 0.01238
1784.64713 0.01241
1783.36136 0.01245
1782.07559 0.01242
1780.78983 0.01233
1779.50406 0.01227
1778.21829 0.01231
1776.93252 0.01241
1775.64675 0.01250
1774.36098 0.01249
1773.07521 0.01248
1771.78944 0.01263
1770.50367 0.01279
1769.21791 0.01279
1767.93214 0.01270
1766.64637 0.01274
1765.36060 0.01286
1764.07483 0.01290
1762.78906 0.01287
1761.50329 0.01294
1760.21752 0.01312
1758.93176 0.01325
1757.64599 0.01330
1756.36022 0.01343
1755.07445 0.01369
1753.78868 0.01389
1752.50291 0.01394
1751.21714 0.01393
1749.93137 0.01398
1748.64560 0.01401
1747.35984 0.01395
1746.07407 0.01389
1744.78830 0.01393
1743.50253 0.01407
1742.21676 0.01420
1740.93099 0.01423
1739.64522 0.01427
1738.35945 0.01448
1737.07369 0.01470
1735.78792 0.01468
1734.50215 0.01461
1733.21638 0.01482
1731.93061 0.01520
1730.64484 0.01541
1729.35907 0.01540
1728.07330 0.01541
1726.78753 0.01551
1725.50177 0.01566
1724.21600 0.01586
1722.93023 0.01617
1721.64446 0.01657
1720.35869 0.01685
1719.07292 0.01695
1717.78715 0.01706
1716.50138 0.01734
1715.21561 0.01764
1713.92985 0.01775
1712.64408 0.01774
1711.35831 0.01779
1710.07254 0.01797
1708.78677 0.01822
1707.50100 0.01844
1706.21523 0.01865
1704.92946 0.01900
1703.64370 0.01946
1702.35793 0.01975
1701.07216 0.01995
1699.78639 0.02043
1698.50062 0.02098
1697.21485 0.02108
1695.92908 0.02087
1694.64331 0.02090
1693.35754 0.02113
1692.07178 0.02115
1690.78601 0.02106
1689.50024 0.02121
1688.21447 0.02164
1686.92870 0.02201
1685.64293 0.02218
1684.35716 0.02241
1683.07139 0.02283
1681.78563 0.02314
1680.49986 0.02322
1679.21409 0.02333
1677.92832 0.02355
1676.64255 0.02373
1675.35678 0.02394
1674.07101 0.02429
1672.78524 0.02465
1671.49947 0.02482
1670.21371 0.02486
1668.92794 0.02499
1667.64217 0.02529
1666.35640 0.02565
1665.07063 0.02594
1663.78486 0.02618
1662.49909 0.02649
1661.21332 0.02684
1659.92756 0.02716
1658.64179 0.02751
1657.35602 0.02799
1656.07025 0.02843
1654.78448 0.02857
1653.49871 0.02866
1652.21294 0.02913
1650.92717 0.02978
1649.64140 0.03001
1648.35564 0.02974
1647.06987 0.02952
1645.78410 0.02970
1644.49833 0.03013
1643.21256 0.03048
1641.92679 0.03069
1640.64102 0.03092
1639.35525 0.03127
1638.06949 0.03158
1636.78372 0.03178
1635.49795 0.03203
1634.21218 0.03240
1632.92641 0.03272
1631.64064 0.03282
1630.35487 0.03285
1629.06910 0.03303
1627.78333 0.03340
1626.49757 0.03383
1625.21180 0.03415
1623.92603 0.03436
1622.64026 0.03462
1621.35449 0.03501
1620.06872 0.03541
1618.78295 0.03565
1617.49718 0.03582
1616.21142 0.03618
1614.92565 0.03667
1613.63988 0.03704
1612.35411 0.03723
1611.06834 0.03743
1609.78257 0.03772
1608.49680 0.03806
1607.21103 0.03842
1605.92526 0.03879
1604.63950 0.03916
1603.35373 0.03949
1602.06796 0.03981
1600.78219 0.04013
1599.49642 0.04046
1598.21065 0.04078
1596.92488 0.04107
1595.63911 0.04132
1594.35335 0.04156
1593.06758 0.04179
1591.78181 0.04200
1590.49604 0.04217
1589.21027 0.04227
1587.92450 0.04234
1586.63873 0.04241
1585.35296 0.04253
1584.06719 0.04272
1582.78143 0.04296
1581.49566 0.04326
1580.20989 0.04359
1578.92412 0.04378
1577.63835 0.04376
1576.35258 0.04376
1575.06681 0.04405
1573.78104 0.04443
1572.49528 0.04452
1571.20951 0.04434
1569.92374 0.04415
1568.63797 0.04410
1567.35220 0.04407
1566.06643 0.04397
1564.78066 0.04394
1563.49489 0.04409
1562.20912 0.04420
1560.92336 0.04404
1559.63759 0.04382
1558.35182 0.04386
1557.06605 0.04401
1555.78028 0.04386
1554.49451 0.04346
1553.20874 0.04314
1551.92297 0.04298
1550.63721 0.04279
1549.35144 0.04254
1548.06567 0.04227
1546.77990 0.04196
1545.49413 0.04165
1544.20836 0.04139
1542.92259 0.04112
1541.63682 0.04069
1540.35105 0.04013
1539.06529 0.03969
1537.77952 0.03942
1536.49375 0.03903
1535.20798 0.03838
1533.92221 0.03775
1532.63644 0.03746
1531.35067 0.03741
1530.06490 0.03740
1528.77914 0.03736
1527.49337 0.03740
1526.20760 0.03763
1524.92183 0.03804
1523.63606 0.03842
1522.35029 0.03869
1521.06452 0.03907
1519.77875 0.03967
1518.49298 0.04028
1517.20722 0.04080
1515.92145 0.04137
1514.63568 0.04204
1513.34991 0.04278
1512.06414 0.04365
1510.77837 0.04470
1509.49260 0.04574
1508.20683 0.04663
1506.92107 0.04748
1505.63530 0.04853
1504.34953 0.04964
1503.06376 0.05053
1501.77799 0.05120
1500.49222 0.05189
1499.20645 0.05263
1497.92068 0.05331
1496.63491 0.05389
1495.34915 0.05450
1494.06338 0.05514
1492.77761 0.05572
1491.49184 0.05625
1490.20607 0.05686
1488.92030 0.05756
1487.63453 0.05827
1486.34876 0.05899
1485.06299 0.05974
1483.77723 0.06056
1482.49146 0.06148
1481.20569 0.06252
1479.91992 0.06367
1478.63415 0.06484
1477.34838 0.06600
1476.06261 0.06711
1474.77684 0.06809
1473.49108 0.06889
1472.20531 0.06962
1470.91954 0.07032
1469.63377 0.07093
1468.34800 0.07141
1467.06223 0.07179
1465.77646 0.07217
1464.49069 0.07265
1463.20492 0.07321
1461.91916 0.07384
1460.63339 0.07451
1459.34762 0.07518
1458.06185 0.07582
1456.77608 0.07657
1455.49031 0.07744
1454.20454 0.07816
1452.91877 0.07858
1451.63301 0.07885
1450.34724 0.07909
1449.06147 0.07925
1447.77570 0.07928
1446.48993 0.07918
1445.20416 0.07895
1443.91839 0.07860
1442.63262 0.07822
1441.34685 0.07789
1440.06109 0.07756
1438.77532 0.07713
1437.48955 0.07669
1436.20378 0.07650
1434.91801 0.07664
1433.63224 0.07698
1432.34647 0.07743
1431.06070 0.07804
1429.77494 0.07886
1428.48917 0.07984
1427.20340 0.08093
1425.91763 0.08207
1424.63186 0.08328
1423.34609 0.08455
1422.06032 0.08575
1420.77455 0.08676
1419.48878 0.08766
1418.20302 0.08852
1416.91725 0.08924
1415.63148 0.08969
1414.34571 0.08990
1413.05994 0.08992
1411.77417 0.08974
1410.48840 0.08932
1409.20263 0.08866
1407.91687 0.08777
1406.63110 0.08666
1405.34533 0.08541
1404.05956 0.08410
1402.77379 0.08268
1401.48802 0.08107
1400.20225 0.07929
1398.91648 0.07743
1397.63071 0.07554
1396.34495 0.07356
1395.05918 0.07153
1393.77341 0.06957
1392.48764 0.06775
1391.20187 0.06600
1389.91610 0.06423
1388.63033 0.06247
1387.34456 0.06079
1386.05880 0.05923
1384.77303 0.05771
1383.48726 0.05615
1382.20149 0.05459
1380.91572 0.05306
1379.62995 0.05157
1378.34418 0.05007
1377.05841 0.04854
1375.77264 0.04696
1374.48688 0.04536
1373.20111 0.04380
1371.91534 0.04232
1370.62957 0.04093
1369.34380 0.03964
1368.05803 0.03848
1366.77226 0.03743
1365.48649 0.03641
1364.20073 0.03541
1362.91496 0.03445
1361.62919 0.03357
1360.34342 0.03279
1359.05765 0.03204
1357.77188 0.03131
1356.48611 0.03059
1355.20034 0.02991
1353.91457 0.02930
1352.62881 0.02877
1351.34304 0.02828
1350.05727 0.02780
1348.77150 0.02729
1347.48573 0.02676
1346.19996 0.02622
1344.91419 0.02570
1343.62842 0.02523
1342.34266 0.02479
1341.05689 0.02438
1339.77112 0.02401
1338.48535 0.02366
1337.19958 0.02334
1335.91381 0.02303
1334.62804 0.02272
1333.34227 0.02239
1332.05650 0.02207
1330.77074 0.02176
1329.48497 0.02148
1328.19920 0.02124
1326.91343 0.02105
1325.62766 0.02089
1324.34189 0.02075
1323.05612 0.02060
1321.77035 0.02042
1320.48459 0.02019
1319.19882 0.01996
1317.91305 0.01972
1316.62728 0.01949
1315.34151 0.01929
1314.05574 0.01914
1312.76997 0.01902
1311.48420 0.01891
1310.19843 0.01878
1308.91267 0.01866
1307.62690 0.01858
1306.34113 0.01852
1305.05536 0.01847
1303.76959 0.01839
1302.48382 0.01828
1301.19805 0.01815
1299.91228 0.01801
1298.62652 0.01784
1297.34075 0.01766
1296.05498 0.01749
1294.76921 0.01735
1293.48344 0.01725
1292.19767 0.01717
1290.91190 0.01708
1289.62613 0.01695
1288.34036 0.01682
1287.05460 0.01669
1285.76883 0.01661
1284.48306 0.01656
1283.19729 0.01651
1281.91152 0.01645
1280.62575 0.01636
1279.33998 0.01629
1278.05421 0.01626
1276.76845 0.01627
1275.48268 0.01628
1274.19691 0.01626
1272.91114 0.01623
1271.62537 0.01618
1270.33960 0.01611
1269.05383 0.01601
1267.76806 0.01590
1266.48229 0.01578
1265.19653 0.01568
1263.91076 0.01563
1262.62499 0.01562
1261.33922 0.01564
1260.05345 0.01568
1258.76768 0.01570
1257.48191 0.01568
1256.19614 0.01562
1254.91037 0.01555
1253.62461 0.01550
1252.33884 0.01548
1251.05307 0.01547
1249.76730 0.01545
1248.48153 0.01541
1247.19576 0.01534
1245.90999 0.01526
1244.62422 0.01519
1243.33846 0.01515
1242.05269 0.01515
1240.76692 0.01518
1239.48115 0.01523
1238.19538 0.01526
1236.90961 0.01527
1235.62384 0.01525
1234.33807 0.01523
1233.05230 0.01520
1231.76654 0.01514
1230.48077 0.01504
1229.19500 0.01496
1227.90923 0.01493
1226.62346 0.01498
1225.33769 0.01508
1224.05192 0.01518
1222.76615 0.01526
1221.48039 0.01533
1220.19462 0.01539
1218.90885 0.01545
1217.62308 0.01550
1216.33731 0.01553
1215.05154 0.01556
1213.76577 0.01561
1212.48000 0.01571
1211.19423 0.01585
1209.90847 0.01601
1208.62270 0.01612
1207.33693 0.01619
1206.05116 0.01624
1204.76539 0.01632
1203.47962 0.01641
1202.19385 0.01650
1200.90808 0.01648
1199.62232 0.01635
1198.33655 0.01643
1197.05078 0.01654
1195.76501 0.01665
1194.47924 0.01676
1193.19347 0.01688
1191.90770 0.01703
1190.62193 0.01715
1189.33616 0.01722
1188.05040 0.01724
1186.76463 0.01728
1185.47886 0.01735
1184.19309 0.01743
1182.90732 0.01750
1181.62155 0.01756
1180.33578 0.01761
1179.05001 0.01764
1177.76425 0.01766
1176.47848 0.01771
1175.19271 0.01778
1173.90694 0.01786
1172.62117 0.01800
1171.33540 0.01821
1170.04963 0.01849
1168.76386 0.01879
1167.47809 0.01908
1166.19233 0.01934
1164.90656 0.01958
1163.62079 0.01981
1162.33502 0.02002
1161.04925 0.02026
1159.76348 0.02055
1158.47771 0.02094
1157.19194 0.02142
1155.90618 0.02193
1154.62041 0.02243
1153.33464 0.02286
1152.04887 0.02323
1150.76310 0.02360
1149.47733 0.02405
1148.19156 0.02465
1146.90579 0.02542
1145.62002 0.02628
1144.33426 0.02717
1143.04849 0.02805
1141.76272 0.02893
1140.47695 0.02984
1139.19118 0.03079
1137.90541 0.03180
1136.61964 0.03293
1135.33387 0.03421
1134.04811 0.03570
1132.76234 0.03744
1131.47657 0.03946
1130.19080 0.04174
1128.90503 0.04422
1127.61926 0.04683
1126.33349 0.04954
1125.04772 0.05241
1123.76195 0.05549
1122.47619 0.05875
1121.19042 0.06211
1119.90465 0.06550
1118.61888 0.06892
1117.33311 0.07239
1116.04734 0.07591
1114.76157 0.07944
1113.47580 0.08291
1112.19004 0.08626
1110.90427 0.08945
1109.61850 0.09250
1108.33273 0.09548
1107.04696 0.09843
1105.76119 0.10132
1104.47542 0.10414
1103.18965 0.10691
1101.90388 0.10966
1100.61812 0.11244
1099.33235 0.11526
1098.04658 0.11809
1096.76081 0.12082
1095.47504 0.12336
1094.18927 0.12571
1092.90350 0.12794
1091.61773 0.13006
1090.33197 0.13206
1089.04620 0.13394
1087.76043 0.13578
1086.47466 0.13765
1085.18889 0.13952
1083.90312 0.14138
1082.61735 0.14327
1081.33158 0.14528
1080.04581 0.14750
1078.76005 0.15000
1077.47428 0.15275
1076.18851 0.15565
1074.90274 0.15861
1073.61697 0.16166
1072.33120 0.16488
1071.04543 0.16829
1069.75966 0.17183
1068.47390 0.17543
1067.18813 0.17911
1065.90236 0.18293
1064.61659 0.18690
1063.33082 0.19099
1062.04505 0.19513
1060.75928 0.19929
1059.47351 0.20337
1058.18774 0.20733
1056.90198 0.21119
1055.61621 0.21504
1054.33044 0.21890
1053.04467 0.22274
1051.75890 0.22655
1050.47313 0.23037
1049.18736 0.23432
1047.90159 0.23843
1046.61583 0.24270
1045.33006 0.24703
1044.04429 0.25139
1042.75852 0.25577
1041.47275 0.26018
1040.18698 0.26467
1038.90121 0.26925
1037.61544 0.27389
1036.32967 0.27850
1035.04391 0.28297
1033.75814 0.28718
1032.47237 0.29110
1031.18660 0.29472
1029.90083 0.29801
1028.61506 0.30093
1027.32929 0.30341
1026.04352 0.30537
1024.75775 0.30676
1023.47199 0.30757
1022.18622 0.30786
1020.90045 0.30762
1019.61468 0.30681
1018.32891 0.30533
1017.04314 0.30314
1015.75737 0.30022
1014.47160 0.29661
1013.18584 0.29236
1011.90007 0.28757
1010.61430 0.28227
1009.32853 0.27648
1008.04276 0.27018
1006.75699 0.26340
1005.47122 0.25617
1004.18545 0.24856
1002.89968 0.24062
1001.61392 0.23246
1000.32815 0.22415
999.04238 0.21582
997.75661 0.20755
996.47084 0.19940
995.18507 0.19139
993.89930 0.18350
992.61353 0.17573
991.32777 0.16815
990.04200 0.16086
988.75623 0.15392
987.47046 0.14729
986.18469 0.14092
984.89892 0.13482
983.61315 0.12902
982.32738 0.12359
981.04161 0.11853
979.75585 0.11380
978.47008 0.10937
977.18431 0.10527
975.89854 0.10158
974.61277 0.09838
973.32700 0.09570
972.04123 0.09361
970.75546 0.09215
969.46970 0.09136
968.18393 0.09122
966.89816 0.09171
965.61239 0.09272
964.32662 0.09402
963.04085 0.09527
961.75508 0.09611
960.46931 0.09630
959.18354 0.09568
957.89778 0.09421
956.61201 0.09204
955.32624 0.08943
954.04047 0.08663
952.75470 0.08378
951.46893 0.08092
950.18316 0.07811
948.89739 0.07548
947.61163 0.07303
946.32586 0.07074
945.04009 0.06854
943.75432 0.06642
942.46855 0.06438
941.18278 0.06241
939.89701 0.06048
938.61124 0.05859
937.32547 0.05679
936.03971 0.05513
934.75394 0.05367
933.46817 0.05244
932.18240 0.05135
930.89663 0.05030
929.61086 0.04923
928.32509 0.04814
927.03932 0.04707
925.75356 0.04607
924.46779 0.04516
923.18202 0.04437
921.89625 0.04372
920.61048 0.04316
919.32471 0.04261
918.03894 0.04202
916.75317 0.04143
915.46740 0.04087
914.18164 0.04035
912.89587 0.03982
911.61010 0.03927
910.32433 0.03877
909.03856 0.03835
907.75279 0.03801
906.46702 0.03772
905.18125 0.03745
903.89549 0.03719
902.60972 0.03690
901.32395 0.03657
900.03818 0.03622
898.75241 0.03592
897.46664 0.03571
896.18087 0.03563
894.89510 0.03563
893.60933 0.03567
892.32357 0.03567
891.03780 0.03563
889.75203 0.03563
888.46626 0.03582
887.18049 0.03639
885.89472 0.03746
884.60895 0.03915
883.32318 0.04146
882.03742 0.04422
880.75165 0.04698
879.46588 0.04925
878.18011 0.05081
876.89434 0.05191
875.60857 0.05298
874.32280 0.05414
873.03703 0.05509
871.75126 0.05538
870.46550 0.05483
869.17973 0.05355
867.89396 0.05175
866.60819 0.04964
865.32242 0.04741
864.03665 0.04524
862.75088 0.04325
861.46511 0.04145
860.17935 0.03983
858.89358 0.03840
857.60781 0.03717
856.32204 0.03618
855.03627 0.03545
853.75050 0.03493
852.46473 0.03452
851.17896 0.03409
849.89319 0.03361
848.60743 0.03313
847.32166 0.03271
846.03589 0.03237
844.75012 0.03215
843.46435 0.03203
842.17858 0.03199
840.89281 0.03193
839.60704 0.03180
838.32128 0.03158
837.03551 0.03133
835.74974 0.03108
834.46397 0.03088
833.17820 0.03076
831.89243 0.03067
830.60666 0.03057
829.32089 0.03041
828.03512 0.03023
826.74936 0.03009
825.46359 0.03004
824.17782 0.03002
822.89205 0.02997
821.60628 0.02987
820.32051 0.02974
819.03474 0.02965
817.74897 0.02960
816.46321 0.02955
815.17744 0.02948
813.89167 0.02942
812.60590 0.02939
811.32013 0.02940
810.03436 0.02941
808.74859 0.02940
807.46282 0.02939
806.17705 0.02942
804.89129 0.02949
803.60552 0.02953
802.31975 0.02953
801.03398 0.02945
799.74821 0.02934
798.46244 0.02922
797.17667 0.02912
795.89090 0.02903
794.60513 0.02899
793.31937 0.02899
792.03360 0.02901
790.74783 0.02901
789.46206 0.02894
788.17629 0.02883
786.89052 0.02870
785.60475 0.02859
784.31898 0.02849
783.03322 0.02842
781.74745 0.02837
780.46168 0.02839
779.17591 0.02854
777.89014 0.02879
776.60437 0.02905
775.31860 0.02918
774.03283 0.02917
772.74706 0.02910
771.46130 0.02906
770.17553 0.02905
768.88976 0.02899
767.60399 0.02887
766.31822 0.02878
765.03245 0.02875
763.74668 0.02877
762.46091 0.02880
761.17515 0.02887
759.88938 0.02902
758.60361 0.02918
757.31784 0.02924
756.03207 0.02919
754.74630 0.02912
753.46053 0.02905
752.17476 0.02897
750.88899 0.02884
749.60323 0.02868
748.31746 0.02851
747.03169 0.02834
745.74592 0.02818
744.46015 0.02810
743.17438 0.02816
741.88861 0.02836
740.60284 0.02862
739.31708 0.02885
738.03131 0.02894
736.74554 0.02891
735.45977 0.02883
734.17400 0.02877
732.88823 0.02873
731.60246 0.02868
730.31669 0.02866
729.03092 0.02873
727.74516 0.02889
726.45939 0.02908
725.17362 0.02920
723.88785 0.02918
722.60208 0.02912
721.31631 0.02910
720.03054 0.02916
718.74477 0.02926
717.45901 0.02938
716.17324 0.02945
714.88747 0.02948
713.60170 0.02943
712.31593 0.02932
711.03016 0.02919
709.74439 0.02910
708.45862 0.02905
707.17285 0.02904
705.88709 0.02904
704.60132 0.02902
703.31555 0.02898
702.02978 0.02895
700.74401 0.02895
699.45824 0.02897
698.17247 0.02902
696.88670 0.02909
695.60094 0.02919
694.31517 0.02929
693.02940 0.02935
691.74363 0.02934
690.45786 0.02927
689.17209 0.02924
687.88632 0.02924
686.60055 0.02924
685.31478 0.02922
684.02902 0.02918
682.74325 0.02921
681.45748 0.02925
680.17171 0.02926
678.88594 0.02923
677.60017 0.02920
676.31440 0.02927
675.02863 0.02944
673.74287 0.02968
672.45710 0.02995
671.17133 0.03022
669.88556 0.03047
668.59979 0.03068
667.31402 0.03082
666.02825 0.03083
664.74248 0.03074
663.45671 0.03057
662.17095 0.03038
660.88518 0.03023
659.59941 0.03013
658.31364 0.03012
657.02787 0.03019
655.74210 0.03033
654.45633 0.03050
653.17056 0.03066
651.88480 0.03079
650.59903 0.03088
649.31326 0.03096
648.02749 0.03107
646.74172 0.03124
645.45595 0.03145
644.17018 0.03167
642.88441 0.03188
641.59864 0.03211
640.31288 0.03238
639.02711 0.03268
637.74134 0.03295
636.45557 0.03319
635.16980 0.03344
633.88403 0.03374
632.59826 0.03406
631.31249 0.03450
630.02673 0.03579
628.74096 0.03776
627.45519 0.03743
626.16942 0.03993
624.88365 0.04457
623.59788 0.04973
622.31211 0.05501
621.02634 0.05976
619.74057 0.06263
618.45481 0.06284
617.16904 0.06134
615.88327 0.06013
614.59750 0.06088
613.31173 0.06419
612.02596 0.06964
610.74019 0.07627
609.45442 0.08324
608.16866 0.09026
606.88289 0.09729
605.59712 0.10379
604.31135 0.10868
603.02558 0.11111
601.73981 0.11109
600.45404 0.10938
599.16827 0.10668
597.88250 0.10342
596.59674 0.09980
595.31097 0.09607
594.02520 0.09255
592.73943 0.08954
591.45366 0.08724
590.16789 0.08577
588.88212 0.08518
587.59635 0.08546
586.31059 0.08655
585.02482 0.08827
583.73905 0.09042
582.45328 0.09286
581.16751 0.09557
579.88174 0.09854
578.59597 0.10174
577.31020 0.10506
576.02443 0.10843
574.73867 0.11180
573.45290 0.11516
572.16713 0.11859
570.88136 0.12224
569.59559 0.12632
568.30982 0.13095
567.02405 0.13593
565.73828 0.14077
564.45251 0.14484
563.16675 0.14763
561.88098 0.14875
560.59521 0.14790
559.30944 0.14488
558.02367 0.13980
556.73790 0.13313
555.45213 0.12559
554.16636 0.11781
552.88060 0.11023
551.59483 0.10311
550.30906 0.09658
549.02329 0.09074
547.73752 0.08565
546.45175 0.08125
545.16598 0.07740
543.88021 0.07390
542.59444 0.07061
541.30868 0.06752
540.02291 0.06468
538.73714 0.06216
537.45137 0.05998
536.16560 0.05804
534.87983 0.05624
533.59406 0.05446
532.30829 0.05271
531.02253 0.05107
529.73676 0.04962
528.45099 0.04827
527.16522 0.04694
525.87945 0.04564
524.59368 0.04448
523.30791 0.04349
522.02214 0.04258
520.73637 0.04170
519.45061 0.04084
518.16484 0.04007
516.87907 0.03938
515.59330 0.03869
514.30753 0.03796
513.02176 0.03724
511.73599 0.03662
510.45022 0.03614
509.16446 0.03575
507.87869 0.03536
506.59292 0.03489
505.30715 0.03433
504.02138 0.03370
502.73561 0.03308
501.44984 0.03256
500.16407 0.03219
498.87830 0.03194
497.59254 0.03173
496.30677 0.03151
495.02100 0.03127
493.73523 0.03100
492.44946 0.03069
491.16369 0.03033
489.87792 0.02998
488.59215 0.02975
487.30639 0.02970
486.02062 0.02978
484.73485 0.02991
483.44908 0.03005
482.16331 0.03017
480.87754 0.03025
479.59177 0.03033
478.30600 0.03046
477.02023 0.03069
475.73447 0.03100
474.44870 0.03129
473.16293 0.03153
471.87716 0.03174
470.59139 0.03188
469.30562 0.03189
468.01985 0.03178
466.73408 0.03158
465.44832 0.03129
464.16255 0.03091
462.87678 0.03045
461.59101 0.02994
460.30524 0.02940
459.01947 0.02889
457.73370 0.02845
456.44793 0.02812
455.16216 0.02785
453.87640 0.02759
452.59063 0.02730
451.30486 0.02697
450.01909 0.02658
448.73332 0.02615
447.44755 0.02575
446.16178 0.02547
444.87601 0.02537
443.59025 0.02536
442.30448 0.02536
441.01871 0.02529
439.73294 0.02514
438.44717 0.02493
437.16140 0.02470
435.87563 0.02450
434.58986 0.02436
433.30409 0.02426
432.01833 0.02418
430.73256 0.02409
429.44679 0.02399
428.16102 0.02388
426.87525 0.02375
425.58948 0.02360
424.30371 0.02347
423.01794 0.02334
421.73218 0.02320
420.44641 0.02303
419.16064 0.02285
417.87487 0.02270
416.58910 0.02254
415.30333 0.02240
414.01756 0.02229
412.73179 0.02221
411.44602 0.02213
410.16026 0.02205
408.87449 0.02201
407.58872 0.02205
406.30295 0.02215
405.01718 0.02227
403.73141 0.02237
402.44564 0.02244
401.15987 0.02249
399.87411 0.02254
