3997.45528 0.04796
3996.16951 0.04753
3994.88374 0.04711
3993.59798 0.04687
3992.31221 0.04706
3991.02644 0.04771
3989.74067 0.04860
3988.45490 0.04944
3987.16913 0.04999
3985.88336 0.05010
3984.59759 0.04987
3983.31183 0.04966
3982.02606 0.04979
3980.74029 0.05019
3979.45452 0.05047
3978.16875 0.05037
3976.88298 0.04999
3975.59721 0.04956
3974.31144 0.04919
3973.02567 0.04892
3971.73991 0.04874
3970.45414 0.04851
3969.16837 0.04801
3967.88260 0.04720
3966.59683 0.04648
3965.31106 0.04637
3964.02529 0.04683
3962.73952 0.04723
3961.45376 0.04701
3960.16799 0.04637
3958.88222 0.04599
3957.59645 0.04629
3956.31068 0.04710
3955.02491 0.04794
3953.73914 0.04836
3952.45337 0.04815
3951.16760 0.04756
3949.88184 0.04722
3948.59607 0.04758
3947.31030 0.04848
3946.02453 0.04921
3944.73876 0.04923
3943.45299 0.04854
3942.16722 0.04768
3940.88145 0.04729
3939.59569 0.04763
3938.30992 0.04844
3937.02415 0.04922
3935.73838 0.04969
3934.45261 0.05000
3933.16684 0.05035
3931.88107 0.05066
3930.59530 0.05054
3929.30953 0.04971
3928.02377 0.04833
3926.73800 0.04688
3925.45223 0.04585
3924.16646 0.04545
3922.88069 0.04567
3921.59492 0.04627
3920.30915 0.04694
3919.02338 0.04761
3917.73762 0.04835
3916.45185 0.04899
3915.16608 0.04914
3913.88031 0.04869
3912.59454 0.04789
3911.30877 0.04713
3910.02300 0.04669
3908.73723 0.04681
3907.45146 0.04757
3906.16570 0.04868
3904.87993 0.04953
3903.59416 0.04969
3902.30839 0.04927
3901.02262 0.04884
3899.73685 0.04893
3898.45108 0.04969
3897.16531 0.05091
3895.87955 0.05206
3894.59378 0.05263
3893.30801 0.05242
3892.02224 0.05169
3890.73647 0.05089
3889.45070 0.05037
3888.16493 0.05009
3886.87916 0.04963
3885.59339 0.04870
3884.30763 0.04777
3883.02186 0.04763
3881.73609 0.04843
3880.45032 0.04936
3879.16455 0.04959
3877.87878 0.04910
3876.59301 0.04838
3875.30724 0.04781
3874.02148 0.04754
3872.73571 0.04769
3871.44994 0.04814
3870.16417 0.04839
3868.87840 0.04822
3867.59263 0.04811
3866.30686 0.04846
3865.02109 0.04885
3863.73532 0.04868
3862.44956 0.04803
3861.16379 0.04740
3859.87802 0.04708
3858.59225 0.04701
3857.30648 0.04703
3856.02071 0.04698
3854.73494 0.04656
3853.44917 0.04565
3852.16341 0.04482
3850.87764 0.04497
3849.59187 0.04614
3848.30610 0.04727
3847.02033 0.04730
3845.73456 0.04631
3844.44879 0.04533
3843.16302 0.04526
3841.87725 0.04595
3840.59149 0.04663
3839.30572 0.04678
3838.01995 0.04658
3836.73418 0.04654
3835.44841 0.04700
3834.16264 0.04770
3832.87687 0.04808
3831.59110 0.04786
3830.30534 0.04735
3829.01957 0.04698
3827.73380 0.04673
3826.44803 0.04622
3825.16226 0.04537
3823.87649 0.04468
3822.59072 0.04461
3821.30495 0.04499
3820.01918 0.04542
3818.73342 0.04590
3817.44765 0.04639
3816.16188 0.04636
3814.87611 0.04542
3813.59034 0.04407
3812.30457 0.04322
3811.01880 0.04330
3809.73303 0.04409
3808.44726 0.04480
3807.16150 0.04465
3805.87573 0.04380
3804.58996 0.04342
3803.30419 0.04429
3802.01842 0.04577
3800.73265 0.04678
3799.44688 0.04709
3798.16111 0.04698
3796.87535 0.04640
3795.58958 0.04524
3794.30381 0.04396
3793.01804 0.04322
3791.73227 0.04325
3790.44650 0.04383
3789.16073 0.04453
3787.87496 0.04495
3786.58919 0.04496
3785.30343 0.04480
3784.01766 0.04482
3782.73189 0.04502
3781.44612 0.04510
3780.16035 0.04472
3778.87458 0.04386
3777.58881 0.04279
3776.30304 0.04190
3775.01728 0.04151
3773.73151 0.04180
3772.44574 0.04275
3771.15997 0.04399
3769.87420 0.04501
3768.58843 0.04550
3767.30266 0.04548
3766.01689 0.04497
3764.73112 0.04407
3763.44536 0.04323
3762.15959 0.04308
3760.87382 0.04376
3759.58805 0.04481
3758.30228 0.04559
3757.01651 0.04573
3755.73074 0.04521
3754.44497 0.04440
3753.15921 0.04370
3751.87344 0.04338
3750.58767 0.04339
3749.30190 0.04332
3748.01613 0.04304
3746.73036 0.04309
3745.44459 0.04376
3744.15882 0.04446
3742.87305 0.04485
3741.58729 0.04524
3740.30152 0.04562
3739.01575 0.04540
3737.72998 0.04425
3736.44421 0.04250
3735.15844 0.04096
3733.87267 0.04043
3732.58690 0.04104
3731.30114 0.04202
3730.01537 0.04257
3728.72960 0.04246
3727.44383 0.04196
3726.15806 0.04151
3724.87229 0.04157
3723.58652 0.04221
3722.30075 0.04302
3721.01498 0.04363
3719.72922 0.04404
3718.44345 0.04436
3717.15768 0.04441
3715.87191 0.04401
3714.58614 0.04329
3713.30037 0.04252
3712.01460 0.04190
3710.72883 0.04152
3709.44307 0.04150
3708.15730 0.04183
3706.87153 0.04214
3705.58576 0.04197
3704.29999 0.04121
3703.01422 0.04030
3701.72845 0.03977
3700.44268 0.03958
3699.15691 0.03935
3697.87115 0.03915
3696.58538 0.03954
3695.29961 0.04067
3694.01384 0.04208
3692.72807 0.04324
3691.44230 0.04375
3690.15653 0.04350
3688.87076 0.04263
3687.58500 0.04154
3686.29923 0.04079
3685.01346 0.04079
3683.72769 0.04135
3682.44192 0.04210
3681.15615 0.04298
3679.87038 0.04375
3678.58461 0.04401
3677.29884 0.04362
3676.01308 0.04267
3674.72731 0.04152
3673.44154 0.04088
3672.15577 0.04118
3670.87000 0.04198
3669.58423 0.04242
3668.29846 0.04215
3667.01269 0.04139
3665.72693 0.04041
3664.44116 0.03959
3663.15539 0.03944
3661.86962 0.04029
3660.58385 0.04195
3659.29808 0.04384
3658.01231 0.04533
3656.72654 0.04600
3655.44077 0.04584
3654.15501 0.04527
3652.86924 0.04483
3651.58347 0.04473
3650.29770 0.04480
3649.01193 0.04490
3647.72616 0.04511
3646.44039 0.04558
3645.15462 0.04621
3643.86886 0.04666
3642.58309 0.04667
3641.29732 0.04644
3640.01155 0.04659
3638.72578 0.04733
3637.44001 0.04819
3636.15424 0.04849
3634.86847 0.04805
3633.58270 0.04735
3632.29694 0.04721
3631.01117 0.04806
3629.72540 0.04954
3628.43963 0.05081
3627.15386 0.05140
3625.86809 0.05141
3624.58232 0.05106
3623.29655 0.05061
3622.01079 0.05047
3620.72502 0.05088
3619.43925 0.05158
3618.15348 0.05215
3616.86771 0.05243
3615.58194 0.05249
3614.29617 0.05222
3613.01040 0.05164
3611.72463 0.05111
3610.43887 0.05108
3609.15310 0.05148
3607.86733 0.05186
3606.58156 0.05190
3605.29579 0.05171
3604.01002 0.05162
3602.72425 0.05185
3601.43848 0.05239
3600.15272 0.05292
3598.86695 0.05303
3597.58118 0.05278
3596.29541 0.05260
3595.00964 0.05282
3593.72387 0.05341
3592.43810 0.05423
3591.15233 0.05518
3589.86656 0.05598
3588.58080 0.05627
3587.29503 0.05604
3586.00926 0.05554
3584.72349 0.05510
3583.43772 0.05496
3582.15195 0.05523
3580.86618 0.05580
3579.58041 0.05649
3578.29464 0.05722
3577.00888 0.05815
3575.72311 0.05948
3574.43734 0.06095
3573.15157 0.06197
3571.86580 0.06222
3570.58003 0.06202
3569.29426 0.06186
3568.00849 0.06179
3566.72273 0.06147
3565.43696 0.06078
3564.15119 0.05998
3562.86542 0.05950
3561.57965 0.05961
3560.29388 0.06035
3559.00811 0.06141
3557.72234 0.06233
3556.43657 0.06286
3555.15081 0.06312
3553.86504 0.06331
3552.57927 0.06339
3551.29350 0.06324
3550.00773 0.06303
3548.72196 0.06322
3547.43619 0.06408
3546.15042 0.06535
3544.86466 0.06657
3543.57889 0.06742
3542.29312 0.06791
3541.00735 0.06813
3539.72158 0.06816
3538.43581 0.06807
3537.15004 0.06797
3535.86427 0.06799
3534.57850 0.06825
3533.29274 0.06895
3532.00697 0.07019
3530.72120 0.07160
3529.43543 0.07243
3528.14966 0.07214
3526.86389 0.07096
3525.57812 0.06962
3524.29235 0.06864
3523.00659 0.06810
3521.72082 0.06800
3520.43505 0.06851
3519.14928 0.06964
3517.86351 0.07105
3516.57774 0.07218
3515.29197 0.07259
3514.00620 0.07225
3512.72043 0.07159
3511.43467 0.07124
3510.14890 0.07152
3508.86313 0.07212
3507.57736 0.07251
3506.29159 0.07253
3505.00582 0.07247
3503.72005 0.07271
3502.43428 0.07324
3501.14852 0.07383
3499.86275 0.07435
3498.57698 0.07497
3497.29121 0.07592
3496.00544 0.07704
3494.71967 0.07784
3493.43390 0.07792
3492.14813 0.07746
3490.86236 0.07694
3489.57660 0.07665
3488.29083 0.07649
3487.00506 0.07632
3485.71929 0.07617
3484.43352 0.07614
3483.14775 0.07624
3481.86198 0.07643
3480.57621 0.07693
3479.29045 0.07791
3478.00468 0.07929
3476.71891 0.08057
3475.43314 0.08122
3474.14737 0.08100
3472.86160 0.08012
3471.57583 0.07902
3470.29006 0.07812
3469.00429 0.07763
3467.71853 0.07763
3466.43276 0.07809
3465.14699 0.07879
3463.86122 0.07930
3462.57545 0.07932
3461.28968 0.07898
3460.00391 0.07875
3458.71814 0.07903
3457.43238 0.07976
3456.14661 0.08054
3454.86084 0.08091
3453.57507 0.08079
3452.28930 0.08045
3451.00353 0.08030
3449.71776 0.08062
3448.43199 0.08142
3447.14622 0.08245
3445.86046 0.08332
3444.57469 0.08376
3443.28892 0.08365
3442.00315 0.08319
3440.71738 0.08274
3439.43161 0.08270
3438.14584 0.08318
3436.86007 0.08406
3435.57431 0.08502
3434.28854 0.08572
3433.00277 0.08599
3431.71700 0.08595
3430.43123 0.08594
3429.14546 0.08605
3427.85969 0.08608
3426.57392 0.08592
3425.28815 0.08590
3424.00239 0.08640
3422.71662 0.08725
3421.43085 0.08782
3420.14508 0.08769
3418.85931 0.08705
3417.57354 0.08645
3416.28777 0.08624
3415.00200 0.08640
3413.71624 0.08670
3412.43047 0.08701
3411.14470 0.08738
3409.85893 0.08784
3408.57316 0.08833
3407.28739 0.08869
3406.00162 0.08881
3404.71585 0.08869
3403.43008 0.08846
3402.14432 0.08829
3400.85855 0.08822
3399.57278 0.08819
3398.28701 0.08818
3397.00124 0.08817
3395.71547 0.08810
3394.42970 0.08797
3393.14393 0.08798
3391.85817 0.08843
3390.57240 0.08932
3389.28663 0.09022
3388.00086 0.09067
3386.71509 0.09074
3385.42932 0.09094
3384.14355 0.09163
3382.85778 0.09256
3381.57201 0.09311
3380.28625 0.09290
3379.00048 0.09215
3377.71471 0.09137
3376.42894 0.09092
3375.14317 0.09089
3373.85740 0.09127
3372.57163 0.09197
3371.28586 0.09276
3370.00010 0.09328
3368.71433 0.09329
3367.42856 0.09283
3366.14279 0.09215
3364.85702 0.09152
3363.57125 0.09115
3362.28548 0.09114
3360.99971 0.09147
3359.71394 0.09196
3358.42818 0.09236
3357.14241 0.09253
3355.85664 0.09247
3354.57087 0.09220
3353.28510 0.09174
3351.99933 0.09119
3350.71356 0.09078
3349.42779 0.09057
3348.14202 0.09043
3346.85626 0.09020
3345.57049 0.09007
3344.28472 0.09035
3342.99895 0.09110
3341.71318 0.09190
3340.42741 0.09225
3339.14164 0.09198
3337.85587 0.09135
3336.57011 0.09079
3335.28434 0.09057
3333.99857 0.09074
3332.71280 0.09116
3331.42703 0.09159
3330.14126 0.09172
3328.85549 0.09147
3327.56972 0.09110
3326.28395 0.09105
3324.99819 0.09149
3323.71242 0.09219
3322.42665 0.09285
3321.14088 0.09337
3319.85511 0.09374
3318.56934 0.09389
3317.28357 0.09370
3315.99780 0.09323
3314.71204 0.09275
3313.42627 0.09250
3312.14050 0.09250
3310.85473 0.09257
3309.56896 0.09259
3308.28319 0.09257
3306.99742 0.09260
3305.71165 0.09266
3304.42588 0.09261
3303.14012 0.09225
3301.85435 0.09157
3300.56858 0.09087
3299.28281 0.09067
3297.99704 0.09113
3296.71127 0.09188
3295.42550 0.09237
3294.13973 0.09235
3292.85397 0.09212
3291.56820 0.09213
3290.28243 0.09252
3288.99666 0.09301
3287.71089 0.09325
3286.42512 0.09312
3285.13935 0.09273
3283.85358 0.09213
3282.56781 0.09133
3281.28205 0.09050
3279.99628 0.08996
3278.71051 0.08987
3277.42474 0.09009
3276.13897 0.09039
3274.85320 0.09075
3273.56743 0.09117
3272.28166 0.09153
3270.99590 0.09158
3269.71013 0.09122
3268.42436 0.09064
3267.13859 0.09012
3265.85282 0.08988
3264.56705 0.08997
3263.28128 0.09036
3261.99551 0.09083
3260.70974 0.09115
3259.42398 0.09118
3258.13821 0.09103
3256.85244 0.09083
3255.56667 0.09064
3254.28090 0.09040
3252.99513 0.09009
3251.70936 0.08980
3250.42359 0.08965
3249.13783 0.08970
3247.85206 0.08985
3246.56629 0.08995
3245.28052 0.08990
3243.99475 0.08976
3242.70898 0.08970
3241.42321 0.08975
3240.13744 0.08969
3238.85167 0.08929
3237.56591 0.08854
3236.28014 0.08774
3234.99437 0.08720
3233.70860 0.08699
3232.42283 0.08695
3231.13706 0.08683
3229.85129 0.08658
3228.56552 0.08639
3227.27976 0.08647
3225.99399 0.08679
3224.70822 0.08710
3223.42245 0.08714
3222.13668 0.08692
3220.85091 0.08668
3219.56514 0.08659
3218.27937 0.08660
3216.99360 0.08658
3215.70784 0.08650
3214.42207 0.08644
3213.13630 0.08647
3211.85053 0.08663
3210.56476 0.08685
3209.27899 0.08701
3207.99322 0.08695
3206.70745 0.08672
3205.42169 0.08655
3204.13592 0.08655
3202.85015 0.08652
3201.56438 0.08622
3200.27861 0.08575
3198.99284 0.08545
3197.70707 0.08551
3196.42130 0.08567
3195.13553 0.08555
3193.84977 0.08508
3192.56400 0.08450
3191.27823 0.08404
3189.99246 0.08371
3188.70669 0.08344
3187.42092 0.08326
3186.13515 0.08317
3184.84938 0.08305
3183.56362 0.08282
3182.27785 0.08256
3180.99208 0.08250
3179.70631 0.08271
3178.42054 0.08306
3177.13477 0.08333
3175.84900 0.08340
3174.56323 0.08331
3173.27746 0.08315
3171.99170 0.08303
3170.70593 0.08300
3169.42016 0.08296
3168.13439 0.08277
3166.84862 0.08246
3165.56285 0.08226
3164.27708 0.08226
3162.99131 0.08230
3161.70555 0.08214
3160.41978 0.08184
3159.13401 0.08156
3157.84824 0.08136
3156.56247 0.08105
3155.27670 0.08045
3153.99093 0.07966
3152.70516 0.07898
3151.41939 0.07864
3150.13363 0.07864
3148.84786 0.07875
3147.56209 0.07879
3146.27632 0.07871
3144.99055 0.07854
3143.70478 0.07836
3142.41901 0.07830
3141.13324 0.07846
3139.84748 0.07879
3138.56171 0.07905
3137.27594 0.07896
3135.99017 0.07849
3134.70440 0.07785
3133.41863 0.07732
3132.13286 0.07704
3130.84709 0.07694
3129.56132 0.07683
3128.27556 0.07655
3126.98979 0.07613
3125.70402 0.07573
3124.41825 0.07556
3123.13248 0.07565
3121.84671 0.07592
3120.56094 0.07620
3119.27517 0.07637
3117.98940 0.07632
3116.70364 0.07608
3115.41787 0.07581
3114.13210 0.07573
3112.84633 0.07590
3111.56056 0.07615
3110.27479 0.07617
3108.98902 0.07583
3107.70325 0.07522
3106.41749 0.07457
3105.13172 0.07409
3103.84595 0.07386
3102.56018 0.07387
3101.27441 0.07405
3099.98864 0.07429
3098.70287 0.07450
3097.41710 0.07461
3096.13133 0.07461
3094.84557 0.07448
3093.55980 0.07421
3092.27403 0.07385
3090.98826 0.07356
3089.70249 0.07350
3088.41672 0.07364
3087.13095 0.07375
3085.84518 0.07371
3084.55942 0.07361
3083.27365 0.07361
3081.98788 0.07365
3080.70211 0.07357
3079.41634 0.07332
3078.13057 0.07309
3076.84480 0.07294
3075.55903 0.07278
3074.27326 0.07249
3072.98750 0.07214
3071.70173 0.07196
3070.41596 0.07207
3069.13019 0.07245
3067.84442 0.07294
3066.55865 0.07334
3065.27288 0.07343
3063.98711 0.07312
3062.70135 0.07252
3061.41558 0.07192
3060.12981 0.07153
3058.84404 0.07137
3057.55827 0.07134
3056.27250 0.07135
3054.98673 0.07133
3053.70096 0.07122
3052.41519 0.07097
3051.12943 0.07059
3049.84366 0.07028
3048.55789 0.07030
3047.27212 0.07070
3045.98635 0.07124
3044.70058 0.07161
3043.41481 0.07160
3042.12904 0.07117
3040.84328 0.07040
3039.55751 0.06956
3038.27174 0.06899
3036.98597 0.06886
3035.70020 0.06902
3034.41443 0.06918
3033.12866 0.06917
3031.84289 0.06895
3030.55712 0.06860
3029.27136 0.06827
3027.98559 0.06816
3026.69982 0.06828
3025.41405 0.06849
3024.12828 0.06861
3022.84251 0.06859
3021.55674 0.06849
3020.27097 0.06834
3018.98521 0.06808
3017.69944 0.06773
3016.41367 0.06746
3015.12790 0.06736
3013.84213 0.06735
3012.55636 0.06720
3011.27059 0.06691
3009.98482 0.06663
3008.69905 0.06645
3007.41329 0.06622
3006.12752 0.06580
3004.84175 0.06527
3003.55598 0.06486
3002.27021 0.06473
3000.98444 0.06484
2999.69867 0.06498
2998.41290 0.06503
2997.12714 0.06490
2995.84137 0.06456
2994.55560 0.06410
2993.26983 0.06372
2991.98406 0.06368
2990.69829 0.06397
2989.41252 0.06439
2988.12675 0.06475
2986.84098 0.06509
2985.55522 0.06550
2984.26945 0.06594
2982.98368 0.06623
2981.69791 0.06623
2980.41214 0.06596
2979.12637 0.06565
2977.84060 0.06561
2976.55483 0.06603
2975.26907 0.06687
2973.98330 0.06781
2972.69753 0.06849
2971.41176 0.06877
2970.12599 0.06879
2968.84022 0.06870
2967.55445 0.06859
2966.26868 0.06842
2964.98291 0.06829
2963.69715 0.06835
2962.41138 0.06866
2961.12561 0.06902
2959.83984 0.06918
2958.55407 0.06913
2957.26830 0.06916
2955.98253 0.06948
2954.69676 0.07004
2953.41100 0.07069
2952.12523 0.07134
2950.83946 0.07196
2949.55369 0.07239
2948.26792 0.07249
2946.98215 0.07225
2945.69638 0.07185
2944.41061 0.07153
2943.12484 0.07144
2941.83908 0.07155
2940.55331 0.07159
2939.26754 0.07134
2937.98177 0.07083
2936.69600 0.07030
2935.41023 0.06985
2934.12446 0.06937
2932.83869 0.06873
2931.55293 0.06793
2930.26716 0.06700
2928.98139 0.06585
2927.69562 0.06433
2926.40985 0.06226
2925.12408 0.05960
2923.83831 0.05640
2922.55254 0.05265
2921.26677 0.04837
2919.98101 0.04385
2918.69524 0.03979
2917.40947 0.03722
2916.12370 0.03700
2914.83793 0.03923
2913.55216 0.04321
2912.26639 0.04782
2910.98062 0.05205
2909.69486 0.05534
2908.40909 0.05755
2907.12332 0.05895
2905.83755 0.05999
2904.55178 0.06099
2903.26601 0.06187
2901.98024 0.06233
2900.69447 0.06222
2899.40870 0.06176
2898.12294 0.06133
2896.83717 0.06111
2895.55140 0.06114
2894.26563 0.06129
2892.97986 0.06142
2891.69409 0.06149
2890.40832 0.06157
2889.12255 0.06178
2887.83678 0.06213
2886.55102 0.06243
2885.26525 0.06258
2883.97948 0.06256
2882.69371 0.06250
2881.40794 0.06253
2880.12217 0.06265
2878.83640 0.06274
2877.55063 0.06267
2876.26487 0.06244
2874.97910 0.06222
2873.69333 0.06218
2872.40756 0.06248
2871.12179 0.06313
2869.83602 0.06387
2868.55025 0.06432
2867.26448 0.06422
2865.97871 0.06360
2864.69295 0.06269
2863.40718 0.06165
2862.12141 0.06060
2860.83564 0.05962
2859.54987 0.05869
2858.26410 0.05766
2856.97833 0.05617
2855.69256 0.05390
2854.40680 0.05070
2853.12103 0.04673
2851.83526 0.04252
2850.54949 0.03909
2849.26372 0.03769
2847.97795 0.03899
2846.69218 0.04245
2845.40641 0.04662
2844.12064 0.05016
2842.83488 0.05254
2841.54911 0.05393
2840.26334 0.05474
2838.97757 0.05523
2837.69180 0.05545
2836.40603 0.05548
2835.12026 0.05545
2833.83449 0.05554
2832.54873 0.05573
2831.26296 0.05579
2829.97719 0.05556
2828.69142 0.05515
2827.40565 0.05476
2826.11988 0.05443
2824.83411 0.05408
2823.54834 0.05368
2822.26257 0.05332
2820.97681 0.05311
2819.69104 0.05307
2818.40527 0.05313
2817.11950 0.05314
2815.83373 0.05296
2814.54796 0.05266
2813.26219 0.05235
2811.97642 0.05207
2810.69066 0.05176
2809.40489 0.05145
2808.11912 0.05130
2806.83335 0.05137
2805.54758 0.05153
2804.26181 0.05168
2802.97604 0.05182
2801.69027 0.05196
2800.40450 0.05202
2799.11874 0.05191
2797.83297 0.05167
2796.54720 0.05137
2795.26143 0.05104
2793.97566 0.05067
2792.68989 0.05035
2791.40412 0.05021
2790.11835 0.05025
2788.83259 0.05030
2787.54682 0.05019
2786.26105 0.05001
2784.97528 0.04992
2783.68951 0.05001
2782.40374 0.05022
2781.11797 0.05046
2779.83220 0.05067
2778.54643 0.05078
2777.26067 0.05072
2775.97490 0.05051
2774.68913 0.05022
2773.40336 0.04994
2772.11759 0.04967
2770.83182 0.04940
2769.54605 0.04913
2768.26028 0.04890
2766.97452 0.04878
2765.68875 0.04878
2764.40298 0.04888
2763.11721 0.04895
2761.83144 0.04889
2760.54567 0.04869
2759.25990 0.04847
2757.97413 0.04839
2756.68836 0.04854
2755.40260 0.04878
2754.11683 0.04890
2752.83106 0.04875
2751.54529 0.04844
2750.25952 0.04816
2748.97375 0.04801
2747.68798 0.04789
2746.40221 0.04770
2745.11645 0.04744
2743.83068 0.04718
2742.54491 0.04703
2741.25914 0.04703
2739.97337 0.04717
2738.68760 0.04732
2737.40183 0.04730
2736.11606 0.04705
2734.83029 0.04669
2733.54453 0.04645
2732.25876 0.04640
2730.97299 0.04643
2729.68722 0.04646
2728.40145 0.04647
2727.11568 0.04646
2725.82991 0.04640
2724.54414 0.04629
2723.25838 0.04622
2721.97261 0.04622
2720.68684 0.04624
2719.40107 0.04628
2718.11530 0.04638
2716.82953 0.04655
2715.54376 0.04670
2714.25799 0.04668
2712.97222 0.04643
2711.68646 0.04607
2710.40069 0.04575
2709.11492 0.04554
2707.82915 0.04542
2706.54338 0.04530
2705.25761 0.04512
2703.97184 0.04486
2702.68607 0.04459
2701.40031 0.04438
2700.11454 0.04429
2698.82877 0.04428
2697.54300 0.04431
2696.25723 0.04440
2694.97146 0.04464
2693.68569 0.04502
2692.39992 0.04540
2691.11415 0.04558
2689.82839 0.04544
2688.54262 0.04507
2687.25685 0.04467
2685.97108 0.04439
2684.68531 0.04427
2683.39954 0.04422
2682.11377 0.04415
2680.82800 0.04400
2679.54224 0.04379
2678.25647 0.04363
2676.97070 0.04358
2675.68493 0.04360
2674.39916 0.04358
2673.11339 0.04347
2671.82762 0.04332
2670.54185 0.04318
2669.25608 0.04308
2667.97032 0.04311
2666.68455 0.04338
2665.39878 0.04382
2664.11301 0.04425
2662.82724 0.04450
2661.54147 0.04457
2660.25570 0.04460
2658.96993 0.04464
2657.68417 0.04460
2656.39840 0.04441
2655.11263 0.04412
2653.82686 0.04386
2652.54109 0.04368
2651.25532 0.04353
2649.96955 0.04333
2648.68378 0.04309
2647.39801 0.04283
2646.11225 0.04259
2644.82648 0.04238
2643.54071 0.04223
2642.25494 0.04219
2640.96917 0.04227
2639.68340 0.04245
2638.39763 0.04258
2637.11186 0.04249
2635.82609 0.04213
2634.54033 0.04156
2633.25456 0.04087
2631.96879 0.04019
2630.68302 0.03972
2629.39725 0.03957
2628.11148 0.03970
2626.82571 0.03997
2625.53994 0.04028
2624.25418 0.04057
2622.96841 0.04070
2621.68264 0.04055
2620.39687 0.04019
2619.11110 0.03982
2617.82533 0.03953
2616.53956 0.03923
2615.25379 0.03885
2613.96802 0.03848
2612.68226 0.03821
2611.39649 0.03806
2610.11072 0.03795
2608.82495 0.03785
2607.53918 0.03780
2606.25341 0.03780
2604.96764 0.03774
2603.68187 0.03752
2602.39611 0.03718
2601.11034 0.03693
2599.82457 0.03693
2598.53880 0.03709
2597.25303 0.03713
2595.96726 0.03684
2594.68149 0.03635
2593.39572 0.03604
2592.10995 0.03621
2590.82419 0.03674
2589.53842 0.03720
2588.25265 0.03715
2586.96688 0.03662
2585.68111 0.03609
2584.39534 0.03595
2583.10957 0.03610
2581.82380 0.03616
2580.53804 0.03592
2579.25227 0.03550
2577.96650 0.03511
2576.68073 0.03481
2575.39496 0.03460
2574.10919 0.03450
2572.82342 0.03452
2571.53765 0.03455
2570.25188 0.03448
2568.96612 0.03437
2567.68035 0.03445
2566.39458 0.03479
2565.10881 0.03519
2563.82304 0.03526
2562.53727 0.03489
2561.25150 0.03432
2559.96573 0.03390
2558.67997 0.03366
2557.39420 0.03342
2556.10843 0.03300
2554.82266 0.03253
2553.53689 0.03224
2552.25112 0.03232
2550.96535 0.03280
2549.67958 0.03358
2548.39381 0.03440
2547.10805 0.03487
2545.82228 0.03475
2544.53651 0.03420
2543.25074 0.03365
2541.96497 0.03343
2540.67920 0.03353
2539.39343 0.03370
2538.10766 0.03375
2536.82190 0.03361
2535.53613 0.03333
2534.25036 0.03304
2532.96459 0.03287
2531.67882 0.03291
2530.39305 0.03314
2529.10728 0.03339
2527.82151 0.03353
2526.53574 0.03349
2525.24998 0.03329
2523.96421 0.03299
2522.67844 0.03275
2521.39267 0.03271
2520.10690 0.03284
2518.82113 0.03295
2517.53536 0.03287
2516.24959 0.03260
2514.96383 0.03220
2513.67806 0.03170
2512.39229 0.03127
2511.10652 0.03120
2509.82075 0.03167
2508.53498 0.03253
2507.24921 0.03325
2505.96344 0.03331
2504.67767 0.03259
2503.39191 0.03151
2502.10614 0.03076
2500.82037 0.03076
2499.53460 0.03137
2498.24883 0.03212
2496.96306 0.03254
2495.67729 0.03249
2494.39152 0.03208
2493.10576 0.03164
2491.81999 0.03143
2490.53422 0.03144
2489.24845 0.03146
2487.96268 0.03133
2486.67691 0.03116
2485.39114 0.03116
2484.10537 0.03131
2482.81960 0.03143
2481.53384 0.03140
2480.24807 0.03136
2478.96230 0.03146
2477.67653 0.03165
2476.39076 0.03173
2475.10499 0.03166
2473.81922 0.03162
2472.53345 0.03178
2471.24769 0.03201
2469.96192 0.03204
2468.67615 0.03187
2467.39038 0.03175
2466.10461 0.03192
2464.81884 0.03232
2463.53307 0.03265
2462.24730 0.03258
2460.96153 0.03204
2459.67577 0.03132
2458.39000 0.03082
2457.10423 0.03074
2455.81846 0.03092
2454.53269 0.03110
2453.24692 0.03120
2451.96115 0.03132
2450.67538 0.03146
2449.38962 0.03149
2448.10385 0.03130
2446.81808 0.03090
2445.53231 0.03037
2444.24654 0.02985
2442.96077 0.02946
2441.67500 0.02923
2440.38923 0.02911
2439.10346 0.02901
2437.81770 0.02894
2436.53193 0.02897
2435.24616 0.02912
2433.96039 0.02933
2432.67462 0.02950
2431.38885 0.02954
2430.10308 0.02944
2428.81731 0.02928
2427.53155 0.02918
2426.24578 0.02920
2424.96001 0.02936
2423.67424 0.02966
2422.38847 0.03001
2421.10270 0.03018
2419.81693 0.02997
2418.53116 0.02946
2417.24539 0.02900
2415.95963 0.02888
2414.67386 0.02908
2413.38809 0.02941
2412.10232 0.02965
2410.81655 0.02969
2409.53078 0.02952
2408.24501 0.02925
2406.95924 0.02901
2405.67347 0.02885
2404.38771 0.02870
2403.10194 0.02847
2401.81617 0.02814
2400.53040 0.02777
2399.24463 0.02739
2397.95886 0.02735
2396.67309 0.02761
2395.38732 0.02797
2394.10156 0.02832
2392.81579 0.02861
2391.53002 0.02882
2390.24425 0.02893
2388.95848 0.02899
2387.67271 0.02906
2386.38694 0.02911
2385.10117 0.02907
2383.81540 0.02890
2382.52964 0.02865
2381.24387 0.02843
2379.95810 0.02837
2378.67233 0.02851
2377.38656 0.02878
2376.10079 0.02905
2374.81502 0.02913
2373.52925 0.02917
2372.24349 0.02929
2370.95772 0.02946
2369.67195 0.02933
2368.38618 0.02893
2367.10041 0.02860
2365.81464 0.02863
2364.52887 0.02881
2363.24310 0.02903
2361.95733 0.02936
2360.67157 0.03004
2359.38580 0.03058
2358.10003 0.03073
2356.81426 0.03058
2355.52849 0.03028
2354.24272 0.02991
2352.95695 0.02965
2351.67118 0.02985
2350.38542 0.03021
2349.09965 0.03015
2347.81388 0.02978
2346.52811 0.03003
2345.24234 0.03057
2343.95657 0.03015
2342.67080 0.02906
2341.38503 0.02936
2340.09926 0.03093
2338.81350 0.03075
2337.52773 0.02879
2336.24196 0.02881
2334.95619 0.03027
2333.67042 0.02938
2332.38465 0.02722
2331.09888 0.02772
2329.81311 0.02850
2328.52735 0.02720
2327.24158 0.02808
2325.95581 0.03050
2324.67004 0.03102
2323.38427 0.03169
2322.09850 0.03290
2320.81273 0.03213
2319.52696 0.03165
2318.24119 0.03169
2316.95543 0.03087
2315.66966 0.03074
2314.38389 0.03107
2313.09812 0.03091
2311.81235 0.03101
2310.52658 0.03079
2309.24081 0.03039
2307.95504 0.03020
2306.66928 0.02975
2305.38351 0.02933
2304.09774 0.02885
2302.81197 0.02828
2301.52620 0.02791
2300.24043 0.02759
2298.95466 0.02739
2297.66889 0.02712
2296.38312 0.02682
2295.09736 0.02671
2293.81159 0.02689
2292.52582 0.02734
2291.24005 0.02779
2289.95428 0.02808
2288.66851 0.02814
2287.38274 0.02794
2286.09697 0.02748
2284.81121 0.02684
2283.52544 0.02636
2282.23967 0.02632
2280.95390 0.02673
2279.66813 0.02722
2278.38236 0.02732
2277.09659 0.02680
2275.81082 0.02583
2274.52505 0.02487
2273.23929 0.02436
2271.95352 0.02437
2270.66775 0.02468
2269.38198 0.02499
2268.09621 0.02515
2266.81044 0.02514
2265.52467 0.02501
2264.23890 0.02476
2262.95314 0.02443
2261.66737 0.02401
2260.38160 0.02337
2259.09583 0.02246
2257.81006 0.02144
2256.52429 0.02053
2255.23852 0.01990
2253.95275 0.01955
2252.66698 0.01926
2251.38122 0.01882
2250.09545 0.01857
2248.80968 0.01900
2247.52391 0.01937
2246.23814 0.02026
2244.95237 0.02124
2243.66660 0.02181
2242.38083 0.02180
2241.09507 0.02133
2239.80930 0.02062
2238.52353 0.01998
2237.23776 0.01986
2235.95199 0.02050
2234.66622 0.02155
2233.38045 0.02221
2232.09468 0.02195
2230.80891 0.02097
2229.52315 0.01989
2228.23738 0.01914
2226.95161 0.01876
2225.66584 0.01859
2224.38007 0.01864
2223.09430 0.01898
2221.80853 0.01957
2220.52276 0.02012
2219.23700 0.02021
2217.95123 0.01975
2216.66546 0.01913
2215.37969 0.01879
2214.09392 0.01865
2212.80815 0.01816
2211.52238 0.01695
2210.23661 0.01547
2208.95084 0.01456
2207.66508 0.01467
2206.37931 0.01546
2205.09354 0.01621
2203.80777 0.01656
2202.52200 0.01672
2201.23623 0.01701
2199.95046 0.01732
2198.66469 0.01730
2197.37893 0.01696
2196.09316 0.01673
2194.80739 0.01682
2193.52162 0.01696
2192.23585 0.01666
2190.95008 0.01584
2189.66431 0.01470
2188.37854 0.01359
2187.09277 0.01285
2185.80701 0.01279
2184.52124 0.01329
2183.23547 0.01383
2181.94970 0.01399
2180.66393 0.01405
2179.37816 0.01468
2178.09239 0.01587
2176.80662 0.01681
2175.52085 0.01671
2174.23509 0.01563
2172.94932 0.01413
2171.66355 0.01261
2170.37778 0.01131
2169.09201 0.01057
2167.80624 0.01055
2166.52047 0.01086
2165.23470 0.01102
2163.94894 0.01095
2162.66317 0.01078
2161.37740 0.01018
2160.09163 0.00869
2158.80586 0.00659
2157.52009 0.00485
2156.23432 0.00428
2154.94855 0.00494
2153.66278 0.00661
2152.37702 0.00896
2151.09125 0.01138
2149.80548 0.01308
2148.51971 0.01360
2147.23394 0.01318
2145.94817 0.01239
2144.66240 0.01168
2143.37663 0.01123
2142.09087 0.01113
2140.80510 0.01130
2139.51933 0.01142
2138.23356 0.01107
2136.94779 0.01009
2135.66202 0.00885
2134.37625 0.00820
2133.09048 0.00882
2131.80471 0.01050
2130.51895 0.01225
2129.23318 0.01329
2127.94741 0.01367
2126.66164 0.01401
2125.37587 0.01461
2124.09010 0.01522
2122.80433 0.01546
2121.51856 0.01539
2120.23280 0.01544
2118.94703 0.01593
2117.66126 0.01671
2116.37549 0.01724
2115.08972 0.01717
2113.80395 0.01666
2112.51818 0.01618
2111.23241 0.01604
2109.94664 0.01614
2108.66088 0.01621
2107.37511 0.01600
2106.08934 0.01549
2104.80357 0.01489
2103.51780 0.01443
2102.23203 0.01431
2100.94626 0.01454
2099.66049 0.01506
2098.37473 0.01554
2097.08896 0.01577
2095.80319 0.01571
2094.51742 0.01539
2093.23165 0.01495
2091.94588 0.01458
2090.66011 0.01437
2089.37434 0.01434
2088.08857 0.01448
2086.80281 0.01480
2085.51704 0.01525
2084.23127 0.01562
2082.94550 0.01565
2081.65973 0.01528
2080.37396 0.01469
2079.08819 0.01419
2077.80242 0.01399
2076.51666 0.01414
2075.23089 0.01452
2073.94512 0.01496
2072.65935 0.01526
2071.37358 0.01531
2070.08781 0.01502
2068.80204 0.01435
2067.51627 0.01343
2066.23050 0.01261
2064.94474 0.01228
2063.65897 0.01243
2062.37320 0.01268
2061.08743 0.01267
2059.80166 0.01234
2058.51589 0.01186
2057.23012 0.01140
2055.94435 0.01126
2054.65859 0.01174
2053.37282 0.01278
2052.08705 0.01377
2050.80128 0.01405
2049.51551 0.01350
2048.22974 0.01252
2046.94397 0.01153
2045.65820 0.01058
2044.37243 0.00953
2043.08667 0.00845
2041.80090 0.00762
2040.51513 0.00713
2039.22936 0.00678
2037.94359 0.00633
2036.65782 0.00602
2035.37205 0.00637
2034.08628 0.00743
2032.80052 0.00859
2031.51475 0.00920
2030.22898 0.00910
2028.94321 0.00854
2027.65744 0.00775
2026.37167 0.00688
2025.08590 0.00603
2023.80013 0.00540
2022.51436 0.00524
2021.22860 0.00564
2019.94283 0.00639
2018.65706 0.00702
2017.37129 0.00715
2016.08552 0.00680
2014.79975 0.00637
2013.51398 0.00636
2012.22821 0.00695
2010.94245 0.00799
2009.65668 0.00900
2008.37091 0.00960
2007.08514 0.00966
2005.79937 0.00932
2004.51360 0.00887
2003.22783 0.00862
2001.94206 0.00875
2000.65629 0.00931
1999.37053 0.01010
1998.08476 0.01078
1996.79899 0.01101
1995.51322 0.01069
1994.22745 0.01005
1992.94168 0.00953
1991.65591 0.00947
1990.37014 0.00980
1989.08438 0.01004
1987.79861 0.00987
1986.51284 0.00954
1985.22707 0.00976
1983.94130 0.01085
1982.65553 0.01238
1981.36976 0.01346
1980.08399 0.01347
1978.79822 0.01238
1977.51246 0.01064
1976.22669 0.00895
1974.94092 0.00809
1973.65515 0.00850
1972.36938 0.00997
1971.08361 0.01165
1969.79784 0.01272
1968.51207 0.01292
1967.22631 0.01261
1965.94054 0.01223
1964.65477 0.01189
1963.36900 0.01146
1962.08323 0.01081
1960.79746 0.01005
1959.51169 0.00941
1958.22592 0.00920
1956.94015 0.00958
1955.65439 0.01037
1954.36862 0.01117
1953.08285 0.01171
1951.79708 0.01204
1950.51131 0.01230
1949.22554 0.01244
1947.93977 0.01241
1946.65400 0.01231
1945.36823 0.01239
1944.08247 0.01270
1942.79670 0.01300
1941.51093 0.01302
1940.22516 0.01268
1938.93939 0.01215
1937.65362 0.01166
1936.36785 0.01141
1935.08208 0.01143
1933.79632 0.01164
1932.51055 0.01189
1931.22478 0.01215
1929.93901 0.01243
1928.65324 0.01277
1927.36747 0.01316
1926.08170 0.01365
1924.79593 0.01422
1923.51016 0.01474
1922.22440 0.01499
1920.93863 0.01486
1919.65286 0.01441
1918.36709 0.01379
1917.08132 0.01322
1915.79555 0.01297
1914.50978 0.01319
1913.22401 0.01381
1911.93825 0.01454
1910.65248 0.01510
1909.36671 0.01538
1908.08094 0.01543
1906.79517 0.01536
1905.50940 0.01526
1904.22363 0.01521
1902.93786 0.01527
1901.65209 0.01546
1900.36633 0.01573
1899.08056 0.01597
1897.79479 0.01603
1896.50902 0.01585
1895.22325 0.01550
1893.93748 0.01520
1892.65171 0.01505
1891.36594 0.01500
1890.08018 0.01487
1888.79441 0.01462
1887.50864 0.01436
1886.22287 0.01429
1884.93710 0.01449
1883.65133 0.01488
1882.36556 0.01530
1881.07979 0.01550
1879.79402 0.01537
1878.50826 0.01499
1877.22249 0.01461
1875.93672 0.01444
1874.65095 0.01453
1873.36518 0.01475
1872.07941 0.01495
1870.79364 0.01504
1869.50787 0.01497
1868.22211 0.01481
1866.93634 0.01472
1865.65057 0.01484
1864.36480 0.01510
1863.07903 0.01535
1861.79326 0.01551
1860.50749 0.01560
1859.22172 0.01563
1857.93595 0.01557
1856.65019 0.01537
1855.36442 0.01511
1854.07865 0.01493
1852.79288 0.01495
1851.50711 0.01516
1850.22134 0.01541
1848.93557 0.01553
1847.64980 0.01548
1846.36404 0.01539
1845.07827 0.01537
1843.79250 0.01540
1842.50673 0.01541
1841.22096 0.01542
1839.93519 0.01546
1838.64942 0.01552
1837.36365 0.01556
1836.07788 0.01557
1834.79212 0.01557
1833.50635 0.01557
1832.22058 0.01557
1830.93481 0.01553
1829.64904 0.01543
1828.36327 0.01535
1827.07750 0.01541
1825.79173 0.01562
1824.50597 0.01582
1823.22020 0.01591
1821.93443 0.01589
1820.64866 0.01584
1819.36289 0.01577
1818.07712 0.01569
1816.79135 0.01563
1815.50558 0.01564
1814.21981 0.01573
1812.93405 0.01582
1811.64828 0.01582
1810.36251 0.01576
1809.07674 0.01577
1807.79097 0.01589
1806.50520 0.01602
1805.21943 0.01607
1803.93366 0.01604
1802.64790 0.01603
1801.36213 0.01605
1800.07636 0.01607
1798.79059 0.01606
1797.50482 0.01603
1796.21905 0.01603
1794.93328 0.01610
1793.64751 0.01625
1792.36174 0.01640
1791.07598 0.01648
1789.79021 0.01653
1788.50444 0.01658
1787.21867 0.01665
1785.93290 0.01672
1784.64713 0.01675
1783.36136 0.01672
1782.07559 0.01665
1780.78983 0.01662
1779.50406 0.01662
1778.21829 0.01662
1776.93252 0.01659
1775.64675 0.01657
1774.36098 0.01669
1773.07521 0.01691
1771.78944 0.01706
1770.50367 0.01710
1769.21791 0.01712
1767.93214 0.01716
1766.64637 0.01718
1765.36060 0.01721
1764.07483 0.01731
1762.78906 0.01742
1761.50329 0.01745
1760.21752 0.01744
1758.93176 0.01750
1757.64599 0.01765
1756.36022 0.01780
1755.07445 0.01791
1753.78868 0.01800
1752.50291 0.01804
1751.21714 0.01795
1749.93137 0.01775
1748.64560 0.01760
1747.35984 0.01762
1746.07407 0.01772
1744.78830 0.01781
1743.50253 0.01787
1742.21676 0.01798
1740.93099 0.01815
1739.64522 0.01826
1738.35945 0.01828
1737.07369 0.01838
1735.78792 0.01873
1734.50215 0.01912
1733.21638 0.01928
1731.93061 0.01924
1730.64484 0.01929
1729.35907 0.01951
1728.07330 0.01980
1726.78753 0.02005
1725.50177 0.02023
1724.21600 0.02033
1722.93023 0.02039
1721.64446 0.02051
1720.35869 0.02083
1719.07292 0.02132
1717.78715 0.02179
1716.50138 0.02210
1715.21561 0.02236
1713.92985 0.02270
1712.64408 0.02313
1711.35831 0.02361
1710.07254 0.02411
1708.78677 0.02464
1707.50100 0.02521
1706.21523 0.02581
1704.92946 0.02638
1703.64370 0.02705
1702.35793 0.02800
1701.07216 0.02903
1699.78639 0.02979
1698.50062 0.03033
1697.21485 0.03101
1695.92908 0.03185
1694.64331 0.03259
1693.35754 0.03329
1692.07178 0.03417
1690.78601 0.03517
1689.50024 0.03609
1688.21447 0.03696
1686.92870 0.03799
1685.64293 0.03919
1684.35716 0.04025
1683.07139 0.04098
1681.78563 0.04161
1680.49986 0.04240
1679.21409 0.04333
1677.92832 0.04433
1676.64255 0.04535
1675.35678 0.04625
1674.07101 0.04696
1672.78524 0.04767
1671.49947 0.04857
1670.21371 0.04957
1668.92794 0.05047
1667.64217 0.05123
1666.35640 0.05196
1665.07063 0.05277
1663.78486 0.05358
1662.49909 0.05426
1661.21332 0.05481
1659.92756 0.05530
1658.64179 0.05576
1657.35602 0.05622
1656.07025 0.05682
1654.78448 0.05762
1653.49871 0.05827
1652.21294 0.05840
1650.92717 0.05818
1649.64140 0.05818
1648.35564 0.05861
1647.06987 0.05911
1645.78410 0.05935
1644.49833 0.05933
1643.21256 0.05923
1641.92679 0.05914
1640.64102 0.05900
1639.35525 0.05882
1638.06949 0.05870
1636.78372 0.05861
1635.49795 0.05835
1634.21218 0.05783
1632.92641 0.05722
1631.64064 0.05670
1630.35487 0.05624
1629.06910 0.05573
1627.78333 0.05515
1626.49757 0.05458
1625.21180 0.05413
1623.92603 0.05376
1622.64026 0.05332
1621.35449 0.05279
1620.06872 0.05232
1618.78295 0.05209
1617.49718 0.05203
1616.21142 0.05190
1614.92565 0.05161
1613.63988 0.05130
1612.35411 0.05106
1611.06834 0.05086
1609.78257 0.05067
1608.49680 0.05049
1607.21103 0.05033
1605.92526 0.05019
1604.63950 0.05012
1603.35373 0.05013
1602.06796 0.05019
1600.78219 0.05027
1599.49642 0.05035
1598.21065 0.05043
1596.92488 0.05051
1595.63911 0.05060
1594.35335 0.05068
1593.06758 0.05074
1591.78181 0.05082
1590.49604 0.05094
1589.21027 0.05109
1587.92450 0.05128
1586.63873 0.05145
1585.35296 0.05154
1584.06719 0.05153
1582.78143 0.05149
1581.49566 0.05150
1580.20989 0.05165
1578.92412 0.05203
1577.63835 0.05264
1576.35258 0.05323
1575.06681 0.05360
1573.78104 0.05386
1572.49528 0.05431
1571.20951 0.05500
1569.92374 0.05570
1568.63797 0.05627
1567.35220 0.05673
1566.06643 0.05718
1564.78066 0.05757
1563.49489 0.05788
1562.20912 0.05821
1560.92336 0.05868
1559.63759 0.05913
1558.35182 0.05934
1557.06605 0.05944
1555.78028 0.05968
1554.49451 0.06004
1553.20874 0.06029
1551.92297 0.06037
1550.63721 0.06037
1549.35144 0.06032
1548.06567 0.06019
1546.77990 0.06001
1545.49413 0.05977
1544.20836 0.05950
1542.92259 0.05929
1541.63682 0.05928
1540.35105 0.05941
1539.06529 0.05950
1537.77952 0.05958
1536.49375 0.05991
1535.20798 0.06058
1533.92221 0.06136
1532.63644 0.06195
1531.35067 0.06235
1530.06490 0.06271
1528.77914 0.06315
1527.49337 0.06370
1526.20760 0.06429
1524.92183 0.06493
1523.63606 0.06568
1522.35029 0.06653
1521.06452 0.06733
1519.77875 0.06807
1518.49298 0.06890
1517.20722 0.06993
1515.92145 0.07103
1514.63568 0.07213
1513.34991 0.07324
1512.06414 0.07436
1510.77837 0.07549
1509.49260 0.07675
1508.20683 0.07817
1506.92107 0.07954
1505.63530 0.08063
1504.34953 0.08149
1503.06376 0.08243
1501.77799 0.08355
1500.49222 0.08471
1499.20645 0.08577
1497.92068 0.08670
1496.63491 0.08748
1495.34915 0.08808
1494.06338 0.08860
1492.77761 0.08923
1491.49184 0.09002
1490.20607 0.09085
1488.92030 0.09167
1487.63453 0.09249
1486.34876 0.09338
1485.06299 0.09436
1483.77723 0.09543
1482.49146 0.09656
1481.20569 0.09772
1479.91992 0.09888
1478.63415 0.10000
1477.34838 0.10097
1476.06261 0.10174
1474.77684 0.10240
1473.49108 0.10308
1472.20531 0.10382
1470.91954 0.10458
1469.63377 0.10529
1468.34800 0.10593
1467.06223 0.10646
1465.77646 0.10692
1464.49069 0.10738
1463.20492 0.10796
1461.91916 0.10874
1460.63339 0.10972
1459.34762 0.11083
1458.06185 0.11193
1456.77608 0.11282
1455.49031 0.11345
1454.20454 0.11403
1452.91877 0.11469
1451.63301 0.11537
1450.34724 0.11597
1449.06147 0.11640
1447.77570 0.11665
1446.48993 0.11671
1445.20416 0.11665
1443.91839 0.11653
1442.63262 0.11634
1441.34685 0.11606
1440.06109 0.11577
1438.77532 0.11558
1437.48955 0.11554
1436.20378 0.11560
1434.91801 0.11578
1433.63224 0.11622
1432.34647 0.11697
1431.06070 0.11800
1429.77494 0.11923
1428.48917 0.12060
1427.20340 0.12207
1425.91763 0.12358
1424.63186 0.12506
1423.34609 0.12653
1422.06032 0.12805
1420.77455 0.12962
1419.48878 0.13111
1418.20302 0.13234
1416.91725 0.13336
1415.63148 0.13426
1414.34571 0.13505
1413.05994 0.13563
1411.77417 0.13593
1410.48840 0.13593
1409.20263 0.13561
1407.91687 0.13500
1406.63110 0.13412
1405.34533 0.13302
1404.05956 0.13170
1402.77379 0.13024
1401.48802 0.12864
1400.20225 0.12685
1398.91648 0.12480
1397.63071 0.12250
1396.34495 0.12008
1395.05918 0.11761
1393.77341 0.11512
1392.48764 0.11265
1391.20187 0.11023
1389.91610 0.10787
1388.63033 0.10550
1387.34456 0.10305
1386.05880 0.10052
1384.77303 0.09797
1383.48726 0.09546
1382.20149 0.09295
1380.91572 0.09044
1379.62995 0.08792
1378.34418 0.08541
1377.05841 0.08291
1375.77264 0.08040
1374.48688 0.07788
1373.20111 0.07536
1371.91534 0.07288
1370.62957 0.07050
1369.34380 0.06826
1368.05803 0.06615
1366.77226 0.06414
1365.48649 0.06223
1364.20073 0.06039
1362.91496 0.05862
1361.62919 0.05691
1360.34342 0.05528
1359.05765 0.05374
1357.77188 0.05232
1356.48611 0.05102
1355.20034 0.04982
1353.91457 0.04873
1352.62881 0.04776
1351.34304 0.04688
1350.05727 0.04605
1348.77150 0.04524
1347.48573 0.04443
1346.19996 0.04366
1344.91419 0.04294
1343.62842 0.04224
1342.34266 0.04160
1341.05689 0.04102
1339.77112 0.04051
1338.48535 0.04005
1337.19958 0.03961
1335.91381 0.03915
1334.62804 0.03866
1333.34227 0.03810
1332.05650 0.03750
1330.77074 0.03691
1329.48497 0.03638
1328.19920 0.03593
1326.91343 0.03556
1325.62766 0.03526
1324.34189 0.03500
1323.05612 0.03475
1321.77035 0.03444
1320.48459 0.03408
1319.19882 0.03368
1317.91305 0.03331
1316.62728 0.03299
1315.34151 0.03268
1314.05574 0.03234
1312.76997 0.03197
1311.48420 0.03160
1310.19843 0.03128
1308.91267 0.03102
1307.62690 0.03079
1306.34113 0.03058
1305.05536 0.03036
1303.76959 0.03011
1302.48382 0.02983
1301.19805 0.02954
1299.91228 0.02928
1298.62652 0.02906
1297.34075 0.02888
1296.05498 0.02874
1294.76921 0.02860
1293.48344 0.02845
1292.19767 0.02832
1290.91190 0.02819
1289.62613 0.02803
1288.34036 0.02784
1287.05460 0.02765
1285.76883 0.02755
1284.48306 0.02754
1283.19729 0.02755
1281.91152 0.02748
1280.62575 0.02730
1279.33998 0.02705
1278.05421 0.02683
1276.76845 0.02668
1275.48268 0.02662
1274.19691 0.02656
1272.91114 0.02644
1271.62537 0.02625
1270.33960 0.02605
1269.05383 0.02592
1267.76806 0.02586
1266.48229 0.02582
1265.19653 0.02575
1263.91076 0.02567
1262.62499 0.02558
1261.33922 0.02548
1260.05345 0.02538
1258.76768 0.02527
1257.48191 0.02516
1256.19614 0.02506
1254.91037 0.02497
1253.62461 0.02490
1252.33884 0.02485
1251.05307 0.02485
1249.76730 0.02486
1248.48153 0.02483
1247.19576 0.02472
1245.90999 0.02457
1244.62422 0.02441
1243.33846 0.02431
1242.05269 0.02425
1240.76692 0.02418
1239.48115 0.02406
1238.19538 0.02386
1236.90961 0.02362
1235.62384 0.02338
1234.33807 0.02320
1233.05230 0.02308
1231.76654 0.02301
1230.48077 0.02296
1229.19500 0.02289
1227.90923 0.02278
1226.62346 0.02261
1225.33769 0.02240
1224.05192 0.02217
1222.76615 0.02195
1221.48039 0.02178
1220.19462 0.02165
1218.90885 0.02150
1217.62308 0.02133
1216.33731 0.02114
1215.05154 0.02099
1213.76577 0.02091
1212.48000 0.02089
1211.19423 0.02087
1209.90847 0.02085
1208.62270 0.02082
1207.33693 0.02076
1206.05116 0.02068
1204.76539 0.02059
1203.47962 0.02051
1202.19385 0.02046
1200.90808 0.02044
1199.62232 0.02043
1198.33655 0.02043
1197.05078 0.02042
1195.76501 0.02039
1194.47924 0.02032
1193.19347 0.02019
1191.90770 0.02003
1190.62193 0.01988
1189.33616 0.01979
1188.05040 0.01978
1186.76463 0.01982
1185.47886 0.01988
1184.19309 0.01989
1182.90732 0.01985
1181.62155 0.01981
1180.33578 0.01981
1179.05001 0.01984
1177.76425 0.01986
1176.47848 0.01987
1175.19271 0.01991
1173.90694 0.01999
1172.62117 0.02009
1171.33540 0.02023
1170.04963 0.02037
1168.76386 0.02049
1167.47809 0.02058
1166.19233 0.02066
1164.90656 0.02082
1163.62079 0.02108
1162.33502 0.02144
1161.04925 0.02181
1159.76348 0.02213
1158.47771 0.02238
1157.19194 0.02261
1155.90618 0.02286
1154.62041 0.02317
1153.33464 0.02353
1152.04887 0.02392
1150.76310 0.02435
1149.47733 0.02486
1148.19156 0.02549
1146.90579 0.02623
1145.62002 0.02702
1144.33426 0.02781
1143.04849 0.02864
1141.76272 0.02957
1140.47695 0.03063
1139.19118 0.03179
1137.90541 0.03303
1136.61964 0.03439
1135.33387 0.03590
1134.04811 0.03756
1132.76234 0.03936
1131.47657 0.04135
1130.19080 0.04359
1128.90503 0.04609
1127.61926 0.04883
1126.33349 0.05174
1125.04772 0.05478
1123.76195 0.05793
1122.47619 0.06119
1121.19042 0.06461
1119.90465 0.06822
1118.61888 0.07202
1117.33311 0.07590
1116.04734 0.07975
1114.76157 0.08353
1113.47580 0.08725
1112.19004 0.09100
1110.90427 0.09484
1109.61850 0.09876
1108.33273 0.10270
1107.04696 0.10655
1105.76119 0.11026
1104.47542 0.11384
1103.18965 0.11735
1101.90388 0.12080
1100.61812 0.12418
1099.33235 0.12750
1098.04658 0.13076
1096.76081 0.13389
1095.47504 0.13684
1094.18927 0.13960
1092.90350 0.14221
1091.61773 0.14473
1090.33197 0.14718
1089.04620 0.14957
1087.76043 0.15189
1086.47466 0.15418
1085.18889 0.15651
1083.90312 0.15895
1082.61735 0.16157
1081.33158 0.16438
1080.04581 0.16736
1078.76005 0.17044
1077.47428 0.17357
1076.18851 0.17676
1074.90274 0.18004
1073.61697 0.18348
1072.33120 0.18710
1071.04543 0.19090
1069.75966 0.19481
1068.47390 0.19879
1067.18813 0.20282
1065.90236 0.20693
1064.61659 0.21112
1063.33082 0.21536
1062.04505 0.21965
1060.75928 0.22397
1059.47351 0.22829
1058.18774 0.23255
1056.90198 0.23671
1055.61621 0.24077
1054.33044 0.24474
1053.04467 0.24865
1051.75890 0.25259
1050.47313 0.25667
1049.18736 0.26094
1047.90159 0.26533
1046.61583 0.26975
1045.33006 0.27418
1044.04429 0.27866
1042.75852 0.28322
1041.47275 0.28784
1040.18698 0.29246
1038.90121 0.29701
1037.61544 0.30148
1036.32967 0.30587
1035.04391 0.31022
1033.75814 0.31456
1032.47237 0.31882
1031.18660 0.32286
1029.90083 0.32658
1028.61506 0.32996
1027.32929 0.33300
1026.04352 0.33570
1024.75775 0.33800
1023.47199 0.33988
1022.18622 0.34132
1020.90045 0.34229
1019.61468 0.34276
1018.32891 0.34268
1017.04314 0.34201
1015.75737 0.34076
1014.47160 0.33893
1013.18584 0.33647
1011.90007 0.33334
1010.61430 0.32953
1009.32853 0.32509
1008.04276 0.32012
1006.75699 0.31465
1005.47122 0.30868
1004.18545 0.30217
1002.89968 0.29514
1001.61392 0.28763
1000.32815 0.27974
999.04238 0.27156
997.75661 0.26319
996.47084 0.25473
995.18507 0.24625
993.89930 0.23779
992.61353 0.22935
991.32777 0.22093
990.04200 0.21259
988.75623 0.20446
987.47046 0.19663
986.18469 0.18910
984.89892 0.18182
983.61315 0.17473
982.32738 0.16789
981.04161 0.16135
979.75585 0.15520
978.47008 0.14948
977.18431 0.14421
975.89854 0.13939
974.61277 0.13508
973.32700 0.13141
972.04123 0.12846
970.75546 0.12630
969.46970 0.12491
968.18393 0.12428
966.89816 0.12431
965.61239 0.12483
964.32662 0.12563
963.04085 0.12644
961.75508 0.12698
960.46931 0.12704
959.18354 0.12644
957.89778 0.12513
956.61201 0.12315
955.32624 0.12060
954.04047 0.11765
952.75470 0.11449
951.46893 0.11128
950.18316 0.10815
948.89739 0.10511
947.61163 0.10215
946.32586 0.09926
945.04009 0.09647
943.75432 0.09381
942.46855 0.09127
941.18278 0.08880
939.89701 0.08632
938.61124 0.08384
937.32547 0.08144
936.03971 0.07923
934.75394 0.07728
933.46817 0.07556
932.18240 0.07397
930.89663 0.07241
929.61086 0.07087
928.32509 0.06940
927.03932 0.06803
925.75356 0.06677
924.46779 0.06559
923.18202 0.06450
921.89625 0.06354
920.61048 0.06269
919.32471 0.06191
918.03894 0.06111
916.75317 0.06025
915.46740 0.05936
914.18164 0.05848
912.89587 0.05766
911.61010 0.05693
910.32433 0.05631
909.03856 0.05573
907.75279 0.05513
906.46702 0.05451
905.18125 0.05394
903.89549 0.05344
902.60972 0.05300
901.32395 0.05254
900.03818 0.05204
898.75241 0.05150
897.46664 0.05094
896.18087 0.05044
894.89510 0.05008
893.60933 0.04989
892.32357 0.04982
891.03780 0.04979
889.75203 0.04982
888.46626 0.05012
887.18049 0.05092
885.89472 0.05237
884.60895 0.05453
883.32318 0.05747
882.03742 0.06107
880.75165 0.06487
879.46588 0.06822
878.18011 0.07077
876.89434 0.07280
875.60857 0.07482
874.32280 0.07699
873.03703 0.07893
871.75126 0.08012
870.46550 0.08029
869.17973 0.07946
867.89396 0.07773
866.60819 0.07523
865.32242 0.07217
864.03665 0.06891
862.75088 0.06577
861.46511 0.06288
860.17935 0.06026
858.89358 0.05794
857.60781 0.05596
856.32204 0.05433
855.03627 0.05297
853.75050 0.05179
852.46473 0.05076
851.17896 0.04988
849.89319 0.04915
848.60743 0.04855
847.32166 0.04804
846.03589 0.04759
844.75012 0.04713
843.46435 0.04666
842.17858 0.04622
840.89281 0.04583
839.60704 0.04549
838.32128 0.04519
837.03551 0.04488
835.74974 0.04456
834.46397 0.04423
833.17820 0.04397
831.89243 0.04380
830.60666 0.04366
829.32089 0.04347
828.03512 0.04316
826.74936 0.04276
825.46359 0.04237
824.17782 0.04209
822.89205 0.04195
821.60628 0.04191
820.32051 0.04187
819.03474 0.04175
817.74897 0.04156
816.46321 0.04137
815.17744 0.04123
813.89167 0.04115
812.60590 0.04109
811.32013 0.04096
810.03436 0.04077
808.74859 0.04057
807.46282 0.04042
806.17705 0.04032
804.89129 0.04026
803.60552 0.04022
802.31975 0.04023
801.03398 0.04027
799.74821 0.04027
798.46244 0.04019
797.17667 0.04005
795.89090 0.03995
794.60513 0.03992
793.31937 0.03989
792.03360 0.03979
790.74783 0.03964
789.46206 0.03951
788.17629 0.03945
786.89052 0.03946
785.60475 0.03951
784.31898 0.03955
783.03322 0.03953
781.74745 0.03939
780.46168 0.03917
779.17591 0.03901
777.89014 0.03898
776.60437 0.03903
775.31860 0.03906
774.03283 0.03902
772.74706 0.03894
771.46130 0.03890
770.17553 0.03894
768.88976 0.03904
767.60399 0.03915
766.31822 0.03923
765.03245 0.03923
763.74668 0.03913
762.46091 0.03896
761.17515 0.03882
759.88938 0.03884
758.60361 0.03906
757.31784 0.03936
756.03207 0.03959
754.74630 0.03967
753.46053 0.03962
752.17476 0.03952
750.88899 0.03939
749.60323 0.03923
748.31746 0.03905
747.03169 0.03895
745.74592 0.03898
744.46015 0.03912
743.17438 0.03924
741.88861 0.03921
740.60284 0.03904
739.31708 0.03880
738.03131 0.03860
736.74554 0.03851
735.45977 0.03852
734.17400 0.03859
732.88823 0.03864
731.60246 0.03864
730.31669 0.03860
729.03092 0.03854
727.74516 0.03851
726.45939 0.03851
725.17362 0.03850
723.88785 0.03825
722.60208 0.03833
721.31631 0.03863
720.03054 0.03895
718.74477 0.03926
717.45901 0.03952
716.17324 0.03970
714.88747 0.03974
713.60170 0.03963
712.31593 0.03942
711.03016 0.03922
709.74439 0.03907
708.45862 0.03899
707.17285 0.03893
705.88709 0.03888
704.60132 0.03885
703.31555 0.03885
702.02978 0.03888
700.74401 0.03891
699.45824 0.03895
698.17247 0.03901
696.88670 0.03910
695.60094 0.03920
694.31517 0.03926
693.02940 0.03927
691.74363 0.03929
690.45786 0.03934
689.17209 0.03942
687.88632 0.03944
686.60055 0.03933
685.31478 0.03912
684.02902 0.03888
682.74325 0.03868
681.45748 0.03854
680.17171 0.03842
678.88594 0.03832
677.60017 0.03826
676.31440 0.03825
675.02863 0.03829
673.74287 0.03836
672.45710 0.03848
671.17133 0.03868
669.88556 0.03895
668.59979 0.03907
667.31402 0.03897
666.02825 0.03888
664.74248 0.03859
663.45671 0.03828
662.17095 0.03804
660.88518 0.03784
659.59941 0.03767
658.31364 0.03756
657.02787 0.03752
655.74210 0.03749
654.45633 0.03746
653.17056 0.03741
651.88480 0.03740
650.59903 0.03744
649.31326 0.03750
648.02749 0.03754
646.74172 0.03757
645.45595 0.03764
644.17018 0.03780
642.88441 0.03796
641.59864 0.03806
640.31288 0.03805
639.02711 0.03801
637.74134 0.03803
636.45557 0.03820
635.16980 0.03854
633.88403 0.03902
632.59826 0.03961
631.31249 0.04031
630.02673 0.04122
628.74096 0.04245
627.45519 0.04391
626.16942 0.04597
624.88365 0.04862
623.59788 0.05150
622.31211 0.05404
621.02634 0.05571
619.74057 0.05662
618.45481 0.05767
617.16904 0.05988
615.88327 0.06355
614.59750 0.06815
613.31173 0.07327
612.02596 0.07932
610.74019 0.08670
609.45442 0.09449
608.16866 0.10103
606.88289 0.10611
605.59712 0.11106
604.31135 0.11655
603.02558 0.12141
601.73981 0.12379
600.45404 0.12314
599.16827 0.12040
597.88250 0.11680
596.59674 0.11311
595.31097 0.10964
594.02520 0.10662
592.73943 0.10422
591.45366 0.10250
590.16789 0.10141
588.88212 0.10091
587.59635 0.10103
586.31059 0.10188
585.02482 0.10348
583.73905 0.10574
582.45328 0.10841
581.16751 0.11130
579.88174 0.11436
578.59597 0.11761
577.31020 0.12107
576.02443 0.12463
574.73867 0.12812
573.45290 0.13152
572.16713 0.13493
570.88136 0.13855
569.59559 0.14254
568.30982 0.14692
567.02405 0.15155
565.73828 0.15615
564.45251 0.16027
563.16675 0.16338
561.88098 0.16492
560.59521 0.16453
559.30944 0.16222
558.02367 0.15820
556.73790 0.15274
555.45213 0.14621
554.16636 0.13905
552.88060 0.13171
551.59483 0.12456
550.30906 0.11785
549.02329 0.11169
547.73752 0.10613
546.45175 0.10112
545.16598 0.09660
543.88021 0.09257
542.59444 0.08891
541.30868 0.08544
540.02291 0.08202
538.73714 0.07874
537.45137 0.07577
536.16560 0.07324
534.87983 0.07108
533.59406 0.06914
532.30829 0.06728
531.02253 0.06546
529.73676 0.06367
528.45099 0.06196
527.16522 0.06036
525.87945 0.05888
524.59368 0.05753
523.30791 0.05630
522.02214 0.05517
520.73637 0.05408
519.45061 0.05299
518.16484 0.05188
516.87907 0.05075
515.59330 0.04963
514.30753 0.04857
513.02176 0.04762
511.73599 0.04679
510.45022 0.04603
509.16446 0.04524
507.87869 0.04434
506.59292 0.04340
505.30715 0.04259
504.02138 0.04198
502.73561 0.04154
501.44984 0.04115
500.16407 0.04075
498.87830 0.04035
497.59254 0.03996
496.30677 0.03955
495.02100 0.03906
493.73523 0.03852
492.44946 0.03799
491.16369 0.03755
489.87792 0.03720
488.59215 0.03692
487.30639 0.03665
486.02062 0.03640
484.73485 0.03619
483.44908 0.03608
482.16331 0.03608
480.87754 0.03614
479.59177 0.03621
478.30600 0.03624
477.02023 0.03627
475.73447 0.03631
474.44870 0.03638
473.16293 0.03648
471.87716 0.03660
470.59139 0.03673
469.30562 0.03684
468.01985 0.03685
466.73408 0.03665
465.44832 0.03624
464.16255 0.03571
462.87678 0.03520
461.59101 0.03480
460.30524 0.03448
459.01947 0.03413
457.73370 0.03366
456.44793 0.03314
455.16216 0.03269
453.87640 0.03238
452.59063 0.03214
451.30486 0.03187
450.01909 0.03155
448.73332 0.03118
447.44755 0.03082
446.16178 0.03049
444.87601 0.03023
443.59025 0.03002
442.30448 0.02979
441.01871 0.02951
439.73294 0.02917
438.44717 0.02889
437.16140 0.02872
435.87563 0.02868
434.58986 0.02868
433.30409 0.02870
432.01833 0.02868
430.73256 0.02861
429.44679 0.02843
428.16102 0.02814
426.87525 0.02779
425.58948 0.02748
424.30371 0.02723
423.01794 0.02706
421.73218 0.02694
420.44641 0.02684
419.16064 0.02671
417.87487 0.02654
416.58910 0.02634
415.30333 0.02618
414.01756 0.02608
412.73179 0.02603
411.44602 0.02603
410.16026 0.02605
408.87449 0.02607
407.58872 0.02606
406.30295 0.02603
405.01718 0.02598
403.73141 0.02594
402.44564 0.02595
401.15987 0.02600
399.87411 0.02610
