3997.45528	0.05442
3996.16951	0.05335
3994.88374	0.05217
3993.59798	0.05132
3992.31221	0.05147
3991.02644	0.05262
3989.74067	0.05393
3988.45490	0.05449
3987.16913	0.05422
3985.88336	0.05378
3984.59759	0.05375
3983.31183	0.05407
3982.02606	0.05437
3980.74029	0.05461
3979.45452	0.05509
3978.16875	0.05589
3976.88298	0.05662
3975.59721	0.05670
3974.31144	0.05586
3973.02567	0.05425
3971.73991	0.05246
3970.45414	0.05110
3969.16837	0.05047
3967.88260	0.05048
3966.59683	0.05096
3965.31106	0.05175
3964.02529	0.05258
3962.73952	0.05319
3961.45376	0.05349
3960.16799	0.05356
3958.88222	0.05353
3957.59645	0.05358
3956.31068	0.05393
3955.02491	0.05460
3953.73914	0.05533
3952.45337	0.05573
3951.16760	0.05565
3949.88184	0.05523
3948.59607	0.05464
3947.31030	0.05392
3946.02453	0.05314
3944.73876	0.05264
3943.45299	0.05287
3942.16722	0.05392
3940.88145	0.05523
3939.59569	0.05597
3938.30992	0.05568
3937.02415	0.05462
3935.73838	0.05344
3934.45261	0.05264
3933.16684	0.05237
3931.88107	0.05258
3930.59530	0.05312
3929.30953	0.05375
3928.02377	0.05411
3926.73800	0.05400
3925.45223	0.05355
3924.16646	0.05326
3922.88069	0.05358
3921.59492	0.05459
3920.30915	0.05583
3919.02338	0.05654
3917.73762	0.05628
3916.45185	0.05520
3915.16608	0.05391
3913.88031	0.05298
3912.59454	0.05265
3911.30877	0.05281
3910.02300	0.05310
3908.73723	0.05310
3907.45146	0.05258
3906.16570	0.05158
3904.87993	0.05049
3903.59416	0.04976
3902.30839	0.04954
3901.02262	0.04958
3899.73685	0.04951
3898.45108	0.04938
3897.16531	0.04949
3895.87955	0.04981
3894.59378	0.04987
3893.30801	0.04946
3892.02224	0.04906
3890.73647	0.04928
3889.45070	0.05001
3888.16493	0.05060
3886.87916	0.05060
3885.59339	0.05012
3884.30763	0.04955
3883.02186	0.04918
3881.73609	0.04916
3880.45032	0.04952
3879.16455	0.05008
3877.87878	0.05056
3876.59301	0.05088
3875.30724	0.05135
3874.02148	0.05228
3872.73571	0.05348
3871.44994	0.05426
3870.16417	0.05408
3868.87840	0.05300
3867.59263	0.05147
3866.30686	0.05002
3865.02109	0.04894
3863.73532	0.04832
3862.44956	0.04805
3861.16379	0.04806
3859.87802	0.04837
3858.59225	0.04905
3857.30648	0.05006
3856.02071	0.05118
3854.73494	0.05210
3853.44917	0.05262
3852.16341	0.05270
3850.87764	0.05239
3849.59187	0.05184
3848.30610	0.05124
3847.02033	0.05065
3845.73456	0.05009
3844.44879	0.04962
3843.16302	0.04946
3841.87725	0.04973
3840.59149	0.05017
3839.30572	0.05024
3838.01995	0.04965
3836.73418	0.04874
3835.44841	0.04816
3834.16264	0.04829
3832.87687	0.04895
3831.59110	0.04961
3830.30534	0.04984
3829.01957	0.04962
3827.73380	0.04934
3826.44803	0.04934
3825.16226	0.04960
3823.87649	0.04984
3822.59072	0.04989
3821.30495	0.04989
3820.01918	0.05007
3818.73342	0.05047
3817.44765	0.05089
3816.16188	0.05111
3814.87611	0.05111
3813.59034	0.05105
3812.30457	0.05117
3811.01880	0.05146
3809.73303	0.05167
3808.44726	0.05158
3807.16150	0.05138
3805.87573	0.05153
3804.58996	0.05211
3803.30419	0.05247
3802.01842	0.05181
3800.73265	0.05008
3799.44688	0.04808
3798.16111	0.04672
3796.87535	0.04629
3795.58958	0.04651
3794.30381	0.04705
3793.01804	0.04786
3791.73227	0.04899
3790.44650	0.05027
3789.16073	0.05126
3787.87496	0.05151
3786.58919	0.05091
3785.30343	0.04972
3784.01766	0.04843
3782.73189	0.04738
3781.44612	0.04671
3780.16035	0.04644
3778.87458	0.04659
3777.58881	0.04710
3776.30304	0.04767
3775.01728	0.04784
3773.73151	0.04732
3772.44574	0.04636
3771.15997	0.04564
3769.87420	0.04571
3768.58843	0.04653
3767.30266	0.04751
3766.01689	0.04803
3764.73112	0.04793
3763.44536	0.04755
3762.15959	0.04739
3760.87382	0.04759
3759.58805	0.04775
3758.30228	0.04740
3757.01651	0.04653
3755.73074	0.04564
3754.44497	0.04511
3753.15921	0.04486
3751.87344	0.04469
3750.58767	0.04471
3749.30190	0.04524
3748.01613	0.04615
3746.73036	0.04684
3745.44459	0.04672
3744.15882	0.04586
3742.87305	0.04496
3741.58729	0.04471
3740.30152	0.04523
3739.01575	0.04609
3737.72998	0.04689
3736.44421	0.04737
3735.15844	0.04749
3733.87267	0.04727
3732.58690	0.04690
3731.30114	0.04673
3730.01537	0.04686
3728.72960	0.04703
3727.44383	0.04676
3726.15806	0.04590
3724.87229	0.04489
3723.58652	0.04439
3722.30075	0.04459
3721.01498	0.04497
3719.72922	0.04484
3718.44345	0.04418
3717.15768	0.04368
3715.87191	0.04401
3714.58614	0.04514
3713.30037	0.04632
3712.01460	0.04675
3710.72883	0.04624
3709.44307	0.04523
3708.15730	0.04446
3706.87153	0.04425
3705.58576	0.04438
3704.29999	0.04441
3703.01422	0.04408
3701.72845	0.04347
3700.44268	0.04283
3699.15691	0.04239
3697.87115	0.04236
3696.58538	0.04285
3695.29961	0.04367
3694.01384	0.04444
3692.72807	0.04510
3691.44230	0.04571
3690.15653	0.04619
3688.87076	0.04629
3687.58500	0.04572
3686.29923	0.04449
3685.01346	0.04302
3683.72769	0.04166
3682.44192	0.04060
3681.15615	0.04010
3679.87038	0.04032
3678.58461	0.04111
3677.29884	0.04215
3676.01308	0.04322
3674.72731	0.04434
3673.44154	0.04554
3672.15577	0.04646
3670.87000	0.04668
3669.58423	0.04610
3668.29846	0.04524
3667.01269	0.04484
3665.72693	0.04517
3664.44116	0.04575
3663.15539	0.04567
3661.86962	0.04456
3660.58385	0.04294
3659.29808	0.04176
3658.01231	0.04162
3656.72654	0.04249
3655.44077	0.04392
3654.15501	0.04533
3652.86924	0.04611
3651.58347	0.04586
3650.29770	0.04474
3649.01193	0.04356
3647.72616	0.04311
3646.44039	0.04366
3645.15462	0.04497
3643.86886	0.04670
3642.58309	0.04843
3641.29732	0.04961
3640.01155	0.04979
3638.72578	0.04899
3637.44001	0.04772
3636.15424	0.04667
3634.86847	0.04631
3633.58270	0.04668
3632.29694	0.04729
3631.01117	0.04755
3629.72540	0.04732
3628.43963	0.04701
3627.15386	0.04698
3625.86809	0.04706
3624.58232	0.04692
3623.29655	0.04658
3622.01079	0.04657
3620.72502	0.04724
3619.43925	0.04840
3618.15348	0.04945
3616.86771	0.04999
3615.58194	0.05016
3614.29617	0.05033
3613.01040	0.05078
3611.72463	0.05153
3610.43887	0.05236
3609.15310	0.05291
3607.86733	0.05287
3606.58156	0.05229
3605.29579	0.05160
3604.01002	0.05128
3602.72425	0.05142
3601.43848	0.05172
3600.15272	0.05178
3598.86695	0.05157
3597.58118	0.05132
3596.29541	0.05140
3595.00964	0.05189
3593.72387	0.05263
3592.43810	0.05341
3591.15233	0.05411
3589.86656	0.05478
3588.58080	0.05548
3587.29503	0.05602
3586.00926	0.05617
3584.72349	0.05600
3583.43772	0.05583
3582.15195	0.05573
3580.86618	0.05546
3579.58041	0.05489
3578.29464	0.05431
3577.00888	0.05422
3575.72311	0.05486
3574.43734	0.05601
3573.15157	0.05724
3571.86580	0.05827
3570.58003	0.05902
3569.29426	0.05950
3568.00849	0.05976
3566.72273	0.05991
3565.43696	0.06000
3564.15119	0.05988
3562.86542	0.05933
3561.57965	0.05851
3560.29388	0.05781
3559.00811	0.05756
3557.72234	0.05778
3556.43657	0.05833
3555.15081	0.05907
3553.86504	0.05976
3552.57927	0.06009
3551.29350	0.06001
3550.00773	0.05984
3548.72196	0.05996
3547.43619	0.06036
3546.15042	0.06070
3544.86466	0.06070
3543.57889	0.06045
3542.29312	0.06018
3541.00735	0.06011
3539.72158	0.06041
3538.43581	0.06109
3537.15004	0.06193
3535.86427	0.06261
3534.57850	0.06290
3533.29274	0.06279
3532.00697	0.06239
3530.72120	0.06185
3529.43543	0.06141
3528.14966	0.06132
3526.86389	0.06169
3525.57812	0.06240
3524.29235	0.06323
3523.00659	0.06404
3521.72082	0.06470
3520.43505	0.06508
3519.14928	0.06513
3517.86351	0.06497
3516.57774	0.06479
3515.29197	0.06474
3514.00620	0.06486
3512.72043	0.06520
3511.43467	0.06577
3510.14890	0.06647
3508.86313	0.06699
3507.57736	0.06701
3506.29159	0.06636
3505.00582	0.06517
3503.72005	0.06397
3502.43428	0.06346
3501.14852	0.06402
3499.86275	0.06536
3498.57698	0.06679
3497.29121	0.06779
3496.00544	0.06835
3494.71967	0.06876
3493.43390	0.06919
3492.14813	0.06961
3490.86236	0.06995
3489.57660	0.07026
3488.29083	0.07055
3487.00506	0.07062
3485.71929	0.07029
3484.43352	0.06961
3483.14775	0.06891
3481.86198	0.06849
3480.57621	0.06851
3479.29045	0.06887
3478.00468	0.06932
3476.71891	0.06961
3475.43314	0.06971
3474.14737	0.06973
3472.86160	0.06972
3471.57583	0.06967
3470.29006	0.06957
3469.00429	0.06951
3467.71853	0.06958
3466.43276	0.06988
3465.14699	0.07040
3463.86122	0.07105
3462.57545	0.07167
3461.28968	0.07207
3460.00391	0.07210
3458.71814	0.07176
3457.43238	0.07125
3456.14661	0.07089
3454.86084	0.07090
3453.57507	0.07127
3452.28930	0.07183
3451.00353	0.07241
3449.71776	0.07287
3448.43199	0.07310
3447.14622	0.07309
3445.86046	0.07295
3444.57469	0.07286
3443.28892	0.07298
3442.00315	0.07337
3440.71738	0.07388
3439.43161	0.07426
3438.14584	0.07432
3436.86007	0.07419
3435.57431	0.07427
3434.28854	0.07478
3433.00277	0.07552
3431.71700	0.07601
3430.43123	0.07595
3429.14546	0.07546
3427.85969	0.07488
3426.57392	0.07457
3425.28815	0.07462
3424.00239	0.07485
3422.71662	0.07494
3421.43085	0.07471
3420.14508	0.07440
3418.85931	0.07437
3417.57354	0.07475
3416.28777	0.07529
3415.00200	0.07559
3413.71624	0.07546
3412.43047	0.07506
3411.14470	0.07480
3409.85893	0.07503
3408.57316	0.07570
3407.28739	0.07647
3406.00162	0.07696
3404.71585	0.07710
3403.43008	0.07706
3402.14432	0.07703
3400.85855	0.07699
3399.57278	0.07680
3398.28701	0.07660
3397.00124	0.07662
3395.71547	0.07695
3394.42970	0.07744
3393.14393	0.07783
3391.85817	0.07799
3390.57240	0.07800
3389.28663	0.07803
3388.00086	0.07807
3386.71509	0.07803
3385.42932	0.07793
3384.14355	0.07802
3382.85778	0.07844
3381.57201	0.07895
3380.28625	0.07913
3379.00048	0.07888
3377.71471	0.07852
3376.42894	0.07847
3375.14317	0.07874
3373.85740	0.07902
3372.57163	0.07899
3371.28586	0.07865
3370.00010	0.07826
3368.71433	0.07808
3367.42856	0.07821
3366.14279	0.07853
3364.85702	0.07887
3363.57125	0.07907
3362.28548	0.07906
3360.99971	0.07889
3359.71394	0.07872
3358.42818	0.07872
3357.14241	0.07887
3355.85664	0.07906
3354.57087	0.07920
3353.28510	0.07933
3351.99933	0.07945
3350.71356	0.07960
3349.42779	0.07978
3348.14202	0.07994
3346.85626	0.07993
3345.57049	0.07958
3344.28472	0.07896
3342.99895	0.07835
3341.71318	0.07805
3340.42741	0.07814
3339.14164	0.07842
3337.85587	0.07870
3336.57011	0.07894
3335.28434	0.07926
3333.99857	0.07970
3332.71280	0.08015
3331.42703	0.08026
3330.14126	0.07984
3328.85549	0.07909
3327.56972	0.07851
3326.28395	0.07846
3324.99819	0.07888
3323.71242	0.07944
3322.42665	0.07990
3321.14088	0.08017
3319.85511	0.08025
3318.56934	0.08013
3317.28357	0.07983
3315.99780	0.07945
3314.71204	0.07910
3313.42627	0.07887
3312.14050	0.07877
3310.85473	0.07871
3309.56896	0.07864
3308.28319	0.07856
3306.99742	0.07855
3305.71165	0.07865
3304.42588	0.07879
3303.14012	0.07881
3301.85435	0.07857
3300.56858	0.07816
3299.28281	0.07784
3297.99704	0.07779
3296.71127	0.07801
3295.42550	0.07832
3294.13973	0.07864
3292.85397	0.07897
3291.56820	0.07931
3290.28243	0.07960
3288.99666	0.07975
3287.71089	0.07974
3286.42512	0.07960
3285.13935	0.07933
3283.85358	0.07897
3282.56781	0.07857
3281.28205	0.07820
3279.99628	0.07790
3278.71051	0.07769
3277.42474	0.07761
3276.13897	0.07763
3274.85320	0.07767
3273.56743	0.07767
3272.28166	0.07768
3270.99590	0.07775
3269.71013	0.07790
3268.42436	0.07814
3267.13859	0.07842
3265.85282	0.07865
3264.56705	0.07864
3263.28128	0.07827
3261.99551	0.07763
3260.70974	0.07700
3259.42398	0.07667
3258.13821	0.07685
3256.85244	0.07745
3255.56667	0.07812
3254.28090	0.07838
3252.99513	0.07795
3251.70936	0.07699
3250.42359	0.07603
3249.13783	0.07556
3247.85206	0.07570
3246.56629	0.07615
3245.28052	0.07655
3243.99475	0.07671
3242.70898	0.07665
3241.42321	0.07653
3240.13744	0.07640
3238.85167	0.07619
3237.56591	0.07575
3236.28014	0.07508
3234.99437	0.07444
3233.70860	0.07416
3232.42283	0.07429
3231.13706	0.07455
3229.85129	0.07467
3228.56552	0.07460
3227.27976	0.07450
3225.99399	0.07446
3224.70822	0.07445
3223.42245	0.07440
3222.13668	0.07430
3220.85091	0.07416
3219.56514	0.07394
3218.27937	0.07363
3216.99360	0.07325
3215.70784	0.07292
3214.42207	0.07278
3213.13630	0.07294
3211.85053	0.07351
3210.56476	0.07443
3209.27899	0.07543
3207.99322	0.07609
3206.70745	0.07620
3205.42169	0.07583
3204.13592	0.07524
3202.85015	0.07462
3201.56438	0.07406
3200.27861	0.07359
3198.99284	0.07320
3197.70707	0.07289
3196.42130	0.07266
3195.13553	0.07246
3193.84977	0.07227
3192.56400	0.07214
3191.27823	0.07227
3189.99246	0.07273
3188.70669	0.07334
3187.42092	0.07373
3186.13515	0.07375
3184.84938	0.07354
3183.56362	0.07325
3182.27785	0.07285
3180.99208	0.07222
3179.70631	0.07138
3178.42054	0.07063
3177.13477	0.07023
3175.84900	0.07018
3174.56323	0.07032
3173.27746	0.07048
3171.99170	0.07063
3170.70593	0.07080
3169.42016	0.07100
3168.13439	0.07119
3166.84862	0.07135
3165.56285	0.07138
3164.27708	0.07119
3162.99131	0.07086
3161.70555	0.07060
3160.41978	0.07056
3159.13401	0.07061
3157.84824	0.07048
3156.56247	0.07007
3155.27670	0.06957
3153.99093	0.06926
3152.70516	0.06917
3151.41939	0.06914
3150.13363	0.06906
3148.84786	0.06900
3147.56209	0.06903
3146.27632	0.06902
3144.99055	0.06882
3143.70478	0.06835
3142.41901	0.06774
3141.13324	0.06718
3139.84748	0.06688
3138.56171	0.06687
3137.27594	0.06707
3135.99017	0.06732
3134.70440	0.06750
3133.41863	0.06757
3132.13286	0.06753
3130.84709	0.06744
3129.56132	0.06738
3128.27556	0.06739
3126.98979	0.06734
3125.70402	0.06712
3124.41825	0.06676
3123.13248	0.06638
3121.84671	0.06612
3120.56094	0.06598
3119.27517	0.06587
3117.98940	0.06568
3116.70364	0.06542
3115.41787	0.06511
3114.13210	0.06485
3112.84633	0.06480
3111.56056	0.06507
3110.27479	0.06559
3108.98902	0.06609
3107.70325	0.06627
3106.41749	0.06599
3105.13172	0.06545
3103.84595	0.06496
3102.56018	0.06466
3101.27441	0.06443
3099.98864	0.06413
3098.70287	0.06377
3097.41710	0.06358
3096.13133	0.06370
3094.84557	0.06395
3093.55980	0.06405
3092.27403	0.06391
3090.98826	0.06371
3089.70249	0.06362
3088.41672	0.06361
3087.13095	0.06353
3085.84518	0.06341
3084.55942	0.06341
3083.27365	0.06364
3081.98788	0.06397
3080.70211	0.06422
3079.41634	0.06424
3078.13057	0.06410
3076.84480	0.06399
3075.55903	0.06403
3074.27326	0.06416
3072.98750	0.06420
3071.70173	0.06411
3070.41596	0.06401
3069.13019	0.06406
3067.84442	0.06421
3066.55865	0.06430
3065.27288	0.06423
3063.98711	0.06400
3062.70135	0.06367
3061.41558	0.06331
3060.12981	0.06297
3058.84404	0.06265
3057.55827	0.06234
3056.27250	0.06205
3054.98673	0.06179
3053.70096	0.06160
3052.41519	0.06153
3051.12943	0.06168
3049.84366	0.06208
3048.55789	0.06253
3047.27212	0.06275
3045.98635	0.06256
3044.70058	0.06205
3043.41481	0.06148
3042.12904	0.06102
3040.84328	0.06071
3039.55751	0.06051
3038.27174	0.06045
3036.98597	0.06057
3035.70020	0.06081
3034.41443	0.06104
3033.12866	0.06107
3031.84289	0.06085
3030.55712	0.06043
3029.27136	0.06001
3027.98559	0.05971
3026.69982	0.05952
3025.41405	0.05938
3024.12828	0.05930
3022.84251	0.05941
3021.55674	0.05975
3020.27097	0.06013
3018.98521	0.06021
3017.69944	0.05982
3016.41367	0.05907
3015.12790	0.05830
3013.84213	0.05783
3012.55636	0.05775
3011.27059	0.05793
3009.98482	0.05813
3008.69905	0.05815
3007.41329	0.05793
3006.12752	0.05756
3004.84175	0.05717
3003.55598	0.05687
3002.27021	0.05668
3000.98444	0.05659
2999.69867	0.05653
2998.41290	0.05662
2997.12714	0.05672
2995.84137	0.05684
2994.55560	0.05704
2993.26983	0.05723
2991.98406	0.05730
2990.69829	0.05722
2989.41252	0.05708
2988.12675	0.05693
2986.84098	0.05679
2985.55522	0.05679
2984.26945	0.05721
2982.98368	0.05807
2981.69791	0.05893
2980.41214	0.05925
2979.12637	0.05896
2977.84060	0.05848
2976.55483	0.05825
2975.26907	0.05837
2973.98330	0.05868
2972.69753	0.05917
2971.41176	0.05996
2970.12599	0.06109
2968.84022	0.06228
2967.55445	0.06323
2966.26868	0.06384
2964.98291	0.06427
2963.69715	0.06463
2962.41138	0.06497
2961.12561	0.06530
2959.83984	0.06571
2958.55407	0.06624
2957.26830	0.06681
2955.98253	0.06720
2954.69676	0.06730
2953.41100	0.06719
2952.12523	0.06702
2950.83946	0.06688
2949.55369	0.06676
2948.26792	0.06672
2946.98215	0.06683
2945.69638	0.06712
2944.41061	0.06744
2943.12484	0.06759
2941.83908	0.06748
2940.55331	0.06725
2939.26754	0.06719
2937.98177	0.06755
2936.69600	0.06830
2935.41023	0.06910
2934.12446	0.06964
2932.83869	0.06990
2931.55293	0.07007
2930.26716	0.07025
2928.98139	0.07042
2927.69562	0.07057
2926.40985	0.07076
2925.12408	0.07102
2923.83831	0.07122
2922.55254	0.07124
2921.26677	0.07100
2919.98101	0.07059
2918.69524	0.07011
2917.40947	0.06960
2916.12370	0.06916
2914.83793	0.06891
2913.55216	0.06891
2912.26639	0.06895
2910.98062	0.06865
2909.69486	0.06785
2908.40909	0.06678
2907.12332	0.06584
2905.83755	0.06527
2904.55178	0.06499
2903.26601	0.06476
2901.98024	0.06441
2900.69447	0.06395
2899.40870	0.06350
2898.12294	0.06310
2896.83717	0.06268
2895.55140	0.06218
2894.26563	0.06165
2892.97986	0.06119
2891.69409	0.06074
2890.40832	0.06026
2889.12255	0.05978
2887.83678	0.05947
2886.55102	0.05938
2885.26525	0.05949
2883.97948	0.05970
2882.69371	0.05986
2881.40794	0.05985
2880.12217	0.05962
2878.83640	0.05930
2877.55063	0.05910
2876.26487	0.05914
2874.97910	0.05941
2873.69333	0.05984
2872.40756	0.06023
2871.12179	0.06040
2869.83602	0.06030
2868.55025	0.06008
2867.26448	0.05991
2865.97871	0.05987
2864.69295	0.05995
2863.40718	0.06010
2862.12141	0.06023
2860.83564	0.06025
2859.54987	0.06010
2858.26410	0.05975
2856.97833	0.05927
2855.69256	0.05878
2854.40680	0.05842
2853.12103	0.05821
2851.83526	0.05809
2850.54949	0.05794
2849.26372	0.05766
2847.97795	0.05725
2846.69218	0.05674
2845.40641	0.05619
2844.12064	0.05572
2842.83488	0.05537
2841.54911	0.05506
2840.26334	0.05464
2838.97757	0.05406
2837.69180	0.05346
2836.40603	0.05298
2835.12026	0.05268
2833.83449	0.05246
2832.54873	0.05220
2831.26296	0.05187
2829.97719	0.05149
2828.69142	0.05117
2827.40565	0.05092
2826.11988	0.05074
2824.83411	0.05053
2823.54834	0.05019
2822.26257	0.04969
2820.97681	0.04914
2819.69104	0.04873
2818.40527	0.04857
2817.11950	0.04858
2815.83373	0.04857
2814.54796	0.04850
2813.26219	0.04843
2811.97642	0.04841
2810.69066	0.04841
2809.40489	0.04834
2808.11912	0.04823
2806.83335	0.04815
2805.54758	0.04812
2804.26181	0.04802
2802.97604	0.04776
2801.69027	0.04741
2800.40450	0.04718
2799.11874	0.04715
2797.83297	0.04724
2796.54720	0.04726
2795.26143	0.04716
2793.97566	0.04705
2792.68989	0.04707
2791.40412	0.04719
2790.11835	0.04718
2788.83259	0.04690
2787.54682	0.04640
2786.26105	0.04595
2784.97528	0.04579
2783.68951	0.04592
2782.40374	0.04615
2781.11797	0.04630
2779.83220	0.04632
2778.54643	0.04619
2777.26067	0.04591
2775.97490	0.04559
2774.68913	0.04538
2773.40336	0.04540
2772.11759	0.04557
2770.83182	0.04573
2769.54605	0.04575
2768.26028	0.04564
2766.97452	0.04544
2765.68875	0.04521
2764.40298	0.04496
2763.11721	0.04473
2761.83144	0.04453
2760.54567	0.04442
2759.25990	0.04442
2757.97413	0.04455
2756.68836	0.04478
2755.40260	0.04501
2754.11683	0.04507
2752.83106	0.04488
2751.54529	0.04454
2750.25952	0.04431
2748.97375	0.04432
2747.68798	0.04446
2746.40221	0.04447
2745.11645	0.04424
2743.83068	0.04390
2742.54491	0.04370
2741.25914	0.04372
2739.97337	0.04380
2738.68760	0.04371
2737.40183	0.04343
2736.11606	0.04314
2734.83029	0.04299
2733.54453	0.04295
2732.25876	0.04287
2730.97299	0.04274
2729.68722	0.04270
2728.40145	0.04288
2727.11568	0.04321
2725.82991	0.04346
2724.54414	0.04345
2723.25838	0.04322
2721.97261	0.04293
2720.68684	0.04271
2719.40107	0.04257
2718.11530	0.04244
2716.82953	0.04220
2715.54376	0.04185
2714.25799	0.04153
2712.97222	0.04142
2711.68646	0.04155
2710.40069	0.04180
2709.11492	0.04201
2707.82915	0.04213
2706.54338	0.04215
2705.25761	0.04212
2703.97184	0.04209
2702.68607	0.04203
2701.40031	0.04189
2700.11454	0.04164
2698.82877	0.04137
2697.54300	0.04116
2696.25723	0.04107
2694.97146	0.04110
2693.68569	0.04123
2692.39992	0.04144
2691.11415	0.04166
2689.82839	0.04177
2688.54262	0.04168
2687.25685	0.04141
2685.97108	0.04107
2684.68531	0.04081
2683.39954	0.04067
2682.11377	0.04065
2680.82800	0.04068
2679.54224	0.04072
2678.25647	0.04076
2676.97070	0.04077
2675.68493	0.04074
2674.39916	0.04065
2673.11339	0.04053
2671.82762	0.04045
2670.54185	0.04049
2669.25608	0.04061
2667.97032	0.04074
2666.68455	0.04087
2665.39878	0.04106
2664.11301	0.04127
2662.82724	0.04140
2661.54147	0.04134
2660.25570	0.04113
2658.96993	0.04088
2657.68417	0.04069
2656.39840	0.04062
2655.11263	0.04063
2653.82686	0.04055
2652.54109	0.04030
2651.25532	0.03997
2649.96955	0.03973
2648.68378	0.03966
2647.39801	0.03968
2646.11225	0.03964
2644.82648	0.03949
2643.54071	0.03928
2642.25494	0.03908
2640.96917	0.03893
2639.68340	0.03879
2638.39763	0.03862
2637.11186	0.03839
2635.82609	0.03812
2634.54033	0.03782
2633.25456	0.03753
2631.96879	0.03728
2630.68302	0.03709
2629.39725	0.03700
2628.11148	0.03701
2626.82571	0.03705
2625.53994	0.03702
2624.25418	0.03692
2622.96841	0.03688
2621.68264	0.03694
2620.39687	0.03694
2619.11110	0.03667
2617.82533	0.03622
2616.53956	0.03583
2615.25379	0.03562
2613.96802	0.03549
2612.68226	0.03535
2611.39649	0.03528
2610.11072	0.03528
2608.82495	0.03525
2607.53918	0.03504
2606.25341	0.03469
2604.96764	0.03424
2603.68187	0.03379
2602.39611	0.03355
2601.11034	0.03367
2599.82457	0.03412
2598.53880	0.03462
2597.25303	0.03489
2595.96726	0.03485
2594.68149	0.03464
2593.39572	0.03437
2592.10995	0.03409
2590.82419	0.03380
2589.53842	0.03360
2588.25265	0.03359
2586.96688	0.03373
2585.68111	0.03380
2584.39534	0.03358
2583.10957	0.03317
2581.82380	0.03289
2580.53804	0.03290
2579.25227	0.03296
2577.96650	0.03270
2576.68073	0.03207
2575.39496	0.03144
2574.10919	0.03117
2572.82342	0.03129
2571.53765	0.03150
2570.25188	0.03159
2568.96612	0.03159
2567.68035	0.03165
2566.39458	0.03187
2565.10881	0.03217
2563.82304	0.03233
2562.53727	0.03217
2561.25150	0.03171
2559.96573	0.03115
2558.67997	0.03069
2557.39420	0.03036
2556.10843	0.03020
2554.82266	0.03032
2553.53689	0.03079
2552.25112	0.03142
2550.96535	0.03186
2549.67958	0.03194
2548.39381	0.03176
2547.10805	0.03154
2545.82228	0.03140
2544.53651	0.03127
2543.25074	0.03105
2541.96497	0.03072
2540.67920	0.03045
2539.39343	0.03046
2538.10766	0.03075
2536.82190	0.03107
2535.53613	0.03111
2534.25036	0.03082
2532.96459	0.03043
2531.67882	0.03025
2530.39305	0.03042
2529.10728	0.03084
2527.82151	0.03122
2526.53574	0.03132
2525.24998	0.03111
2523.96421	0.03078
2522.67844	0.03056
2521.39267	0.03054
2520.10690	0.03068
2518.82113	0.03084
2517.53536	0.03085
2516.24959	0.03053
2514.96383	0.02988
2513.67806	0.02917
2512.39229	0.02874
2511.10652	0.02872
2509.82075	0.02887
2508.53498	0.02893
2507.24921	0.02885
2505.96344	0.02880
2504.67767	0.02894
2503.39191	0.02925
2502.10614	0.02958
2500.82037	0.02975
2499.53460	0.02966
2498.24883	0.02938
2496.96306	0.02907
2495.67729	0.02887
2494.39152	0.02889
2493.10576	0.02919
2491.81999	0.02965
2490.53422	0.03006
2489.24845	0.03025
2487.96268	0.03024
2486.67691	0.03012
2485.39114	0.02991
2484.10537	0.02964
2482.81960	0.02945
2481.53384	0.02939
2480.24807	0.02942
2478.96230	0.02939
2477.67653	0.02923
2476.39076	0.02894
2475.10499	0.02860
2473.81922	0.02835
2472.53345	0.02830
2471.24769	0.02842
2469.96192	0.02850
2468.67615	0.02838
2467.39038	0.02817
2466.10461	0.02815
2464.81884	0.02850
2463.53307	0.02908
2462.24730	0.02956
2460.96153	0.02965
2459.67577	0.02934
2458.39000	0.02892
2457.10423	0.02872
2455.81846	0.02890
2454.53269	0.02923
2453.24692	0.02933
2451.96115	0.02902
2450.67538	0.02855
2449.38962	0.02831
2448.10385	0.02842
2446.81808	0.02860
2445.53231	0.02859
2444.24654	0.02840
2442.96077	0.02821
2441.67500	0.02811
2440.38923	0.02803
2439.10346	0.02794
2437.81770	0.02793
2436.53193	0.02802
2435.24616	0.02810
2433.96039	0.02795
2432.67462	0.02757
2431.38885	0.02725
2430.10308	0.02724
2428.81731	0.02740
2427.53155	0.02739
2426.24578	0.02714
2424.96001	0.02698
2423.67424	0.02719
2422.38847	0.02763
2421.10270	0.02792
2419.81693	0.02784
2418.53116	0.02749
2417.24539	0.02713
2415.95963	0.02697
2414.67386	0.02699
2413.38809	0.02707
2412.10232	0.02705
2410.81655	0.02693
2409.53078	0.02674
2408.24501	0.02651
2406.95924	0.02627
2405.67347	0.02611
2404.38771	0.02618
2403.10194	0.02654
2401.81617	0.02710
2400.53040	0.02769
2399.24463	0.02814
2397.95886	0.02812
2396.67309	0.02773
2395.38732	0.02721
2394.10156	0.02679
2392.81579	0.02657
2391.53002	0.02647
2390.24425	0.02642
2388.95848	0.02643
2387.67271	0.02658
2386.38694	0.02690
2385.10117	0.02733
2383.81540	0.02782
2382.52964	0.02822
2381.24387	0.02843
2379.95810	0.02839
2378.67233	0.02818
2377.38656	0.02794
2376.10079	0.02767
2374.81502	0.02743
2373.52925	0.02749
2372.24349	0.02775
2370.95772	0.02842
2369.67195	0.02879
2368.38618	0.02879
2367.10041	0.02879
2365.81464	0.02893
2364.52887	0.02852
2363.24310	0.02807
2361.95733	0.02808
2360.67157	0.02858
2359.38580	0.02848
2358.10003	0.02815
2356.81426	0.02781
2355.52849	0.02753
2354.24272	0.02754
2352.95695	0.02744
2351.67118	0.02776
2350.38542	0.02894
2349.09965	0.02986
2347.81388	0.02946
2346.52811	0.02882
2345.24234	0.02870
2343.95657	0.02900
2342.67080	0.02874
2341.38503	0.02845
2340.09926	0.02846
2338.81350	0.02819
2337.52773	0.02795
2336.24196	0.02776
2334.95619	0.02780
2333.67042	0.02836
2332.38465	0.02820
2331.09888	0.02850
2329.81311	0.02908
2328.52735	0.02853
2327.24158	0.02918
2325.95581	0.03049
2324.67004	0.03042
2323.38427	0.03044
2322.09850	0.03076
2320.81273	0.02971
2319.52696	0.02954
2318.24119	0.02999
2316.95543	0.02961
2315.66966	0.02948
2314.38389	0.02912
2313.09812	0.02838
2311.81235	0.02831
2310.52658	0.02808
2309.24081	0.02789
2307.95504	0.02784
2306.66928	0.02740
2305.38351	0.02720
2304.09774	0.02700
2302.81197	0.02671
2301.52620	0.02660
2300.24043	0.02653
2298.95466	0.02662
2297.66889	0.02663
2296.38312	0.02657
2295.09736	0.02650
2293.81159	0.02638
2292.52582	0.02622
2291.24005	0.02596
2289.95428	0.02578
2288.66851	0.02576
2287.38274	0.02580
2286.09697	0.02573
2284.81121	0.02541
2283.52544	0.02489
2282.23967	0.02432
2280.95390	0.02394
2279.66813	0.02383
2278.38236	0.02389
2277.09659	0.02382
2275.81082	0.02343
2274.52505	0.02275
2273.23929	0.02207
2271.95352	0.02175
2270.66775	0.02186
2269.38198	0.02213
2268.09621	0.02227
2266.81044	0.02229
2265.52467	0.02235
2264.23890	0.02246
2262.95314	0.02251
2261.66737	0.02244
2260.38160	0.02227
2259.09583	0.02196
2257.81006	0.02140
2256.52429	0.02063
2255.23852	0.01996
2253.95275	0.01976
2252.66698	0.02012
2251.38122	0.02072
2250.09545	0.02120
2248.80968	0.02143
2247.52391	0.02111
2246.23814	0.02031
2244.95237	0.01924
2243.66660	0.01845
2242.38083	0.01835
2241.09507	0.01878
2239.80930	0.01918
2238.52353	0.01924
2237.23776	0.01916
2235.95199	0.01924
2234.66622	0.01950
2233.38045	0.01980
2232.09468	0.02004
2230.80891	0.02017
2229.52315	0.02006
2228.23738	0.01960
2226.95161	0.01893
2225.66584	0.01840
2224.38007	0.01824
2223.09430	0.01831
2221.80853	0.01831
2220.52276	0.01805
2219.23700	0.01758
2217.95123	0.01699
2216.66546	0.01644
2215.37969	0.01609
2214.09392	0.01607
2212.80815	0.01637
2211.52238	0.01681
2210.23661	0.01715
2208.95084	0.01734
2207.66508	0.01748
2206.37931	0.01758
2205.09354	0.01738
2203.80777	0.01652
2202.52200	0.01509
2201.23623	0.01367
2199.95046	0.01289
2198.66469	0.01299
2197.37893	0.01362
2196.09316	0.01399
2194.80739	0.01341
2193.52162	0.01206
2192.23585	0.01102
2190.95008	0.01130
2189.66431	0.01283
2188.37854	0.01461
2187.09277	0.01573
2185.80701	0.01596
2184.52124	0.01552
2183.23547	0.01464
2181.94970	0.01356
2180.66393	0.01263
2179.37816	0.01210
2178.09239	0.01181
2176.80662	0.01143
2175.52085	0.01098
2174.23509	0.01083
2172.94932	0.01113
2171.66355	0.01145
2170.37778	0.01113
2169.09201	0.01002
2167.80624	0.00872
2166.52047	0.00823
2165.23470	0.00908
2163.94894	0.01075
2162.66317	0.01185
2161.37740	0.01134
2160.09163	0.00966
2158.80586	0.00850
2157.52009	0.00902
2156.23432	0.01056
2154.94855	0.01157
2153.66278	0.01138
2152.37702	0.01066
2151.09125	0.01038
2149.80548	0.01053
2148.51971	0.01034
2147.23394	0.00948
2145.94817	0.00851
2144.66240	0.00818
2143.37663	0.00859
2142.09087	0.00939
2140.80510	0.01030
2139.51933	0.01120
2138.23356	0.01190
2136.94779	0.01209
2135.66202	0.01155
2134.37625	0.01055
2133.09048	0.00980
2131.80471	0.00994
2130.51895	0.01098
2129.23318	0.01226
2127.94741	0.01315
2126.66164	0.01360
2125.37587	0.01396
2124.09010	0.01439
2122.80433	0.01475
2121.51856	0.01492
2120.23280	0.01510
2118.94703	0.01550
2117.66126	0.01609
2116.37549	0.01669
2115.08972	0.01711
2113.80395	0.01725
2112.51818	0.01705
2111.23241	0.01657
2109.94664	0.01596
2108.66088	0.01538
2107.37511	0.01490
2106.08934	0.01450
2104.80357	0.01411
2103.51780	0.01367
2102.23203	0.01327
2100.94626	0.01307
2099.66049	0.01401
2098.37473	0.01429
2097.08896	0.01390
2095.80319	0.01355
2094.51742	0.01361
2093.23165	0.01396
2091.94588	0.01420
2090.66011	0.01409
2089.37434	0.01378
2088.08857	0.01362
2086.80281	0.01379
2085.51704	0.01412
2084.23127	0.01428
2082.94550	0.01416
2081.65973	0.01395
2080.37396	0.01392
2079.08819	0.01410
2077.80242	0.01425
2076.51666	0.01413
2075.23089	0.01364
2073.94512	0.01295
2072.65935	0.01240
2071.37358	0.01236
2070.08781	0.01300
2068.80204	0.01406
2067.51627	0.01497
2066.23050	0.01516
2064.94474	0.01451
2063.65897	0.01328
2062.37320	0.01190
2061.08743	0.01072
2059.80166	0.00995
2058.51589	0.00956
2057.23012	0.00942
2055.94435	0.00947
2054.65859	0.00986
2053.37282	0.01073
2052.08705	0.01199
2050.80128	0.01319
2049.51551	0.01381
2048.22974	0.01362
2046.94397	0.01285
2045.65820	0.01197
2044.37243	0.01128
2043.08667	0.01080
2041.80090	0.01049
2040.51513	0.01047
2039.22936	0.01095
2037.94359	0.01182
2036.65782	0.01258
2035.37205	0.01268
2034.08628	0.01203
2032.80052	0.01106
2031.51475	0.01021
2030.22898	0.00954
2028.94321	0.00886
2027.65744	0.00812
2026.37167	0.00754
2025.08590	0.00726
2023.80013	0.00711
2022.51436	0.00688
2021.22860	0.00660
2019.94283	0.00653
2018.65706	0.00681
2017.37129	0.00731
2016.08552	0.00789
2014.79975	0.00850
2013.51398	0.00909
2012.22821	0.00957
2010.94245	0.00995
2009.65668	0.01039
2008.37091	0.01092
2007.08514	0.01128
2005.79937	0.01115
2004.51360	0.01050
2003.22783	0.00955
2001.94206	0.00860
2000.65629	0.00791
1999.37053	0.00768
1998.08476	0.00795
1996.79899	0.00852
1995.51322	0.00910
1994.22745	0.00949
1992.94168	0.00971
1991.65591	0.00984
1990.37014	0.01002
1989.08438	0.01041
1987.79861	0.01099
1986.51284	0.01152
1985.22707	0.01180
1983.94130	0.01192
1982.65553	0.01215
1981.36976	0.01250
1980.08399	0.01262
1978.79822	0.01223
1977.51246	0.01140
1976.22669	0.01053
1974.94092	0.00993
1973.65515	0.00970
1972.36938	0.00993
1971.08361	0.01064
1969.79784	0.01157
1968.51207	0.01224
1967.22631	0.01237
1965.94054	0.01224
1964.65477	0.01235
1963.36900	0.01276
1962.08323	0.01318
1960.79746	0.01343
1959.51169	0.01363
1958.22592	0.01382
1956.94015	0.01376
1955.65439	0.01330
1954.36862	0.01270
1953.08285	0.01233
1951.79708	0.01230
1950.51131	0.01251
1949.22554	0.01282
1947.93977	0.01319
1946.65400	0.01349
1945.36823	0.01355
1944.08247	0.01331
1942.79670	0.01295
1941.51093	0.01275
1940.22516	0.01282
1938.93939	0.01304
1937.65362	0.01321
1936.36785	0.01329
1935.08208	0.01350
1933.79632	0.01403
1932.51055	0.01472
1931.22478	0.01520
1929.93901	0.01520
1928.65324	0.01478
1927.36747	0.01425
1926.08170	0.01396
1924.79593	0.01404
1923.51016	0.01438
1922.22440	0.01478
1920.93863	0.01512
1919.65286	0.01548
1918.36709	0.01589
1917.08132	0.01621
1915.79555	0.01626
1914.50978	0.01600
1913.22401	0.01559
1911.93825	0.01523
1910.65248	0.01510
1909.36671	0.01519
1908.08094	0.01537
1906.79517	0.01556
1905.50940	0.01575
1904.22363	0.01590
1902.93786	0.01595
1901.65209	0.01587
1900.36633	0.01575
1899.08056	0.01564
1897.79479	0.01546
1896.50902	0.01513
1895.22325	0.01475
1893.93748	0.01458
1892.65171	0.01482
1891.36594	0.01537
1890.08018	0.01592
1888.79441	0.01620
1887.50864	0.01616
1886.22287	0.01595
1884.93710	0.01572
1883.65133	0.01561
1882.36556	0.01564
1881.07979	0.01572
1879.79402	0.01574
1878.50826	0.01561
1877.22249	0.01542
1875.93672	0.01526
1874.65095	0.01523
1873.36518	0.01532
1872.07941	0.01550
1870.79364	0.01575
1869.50787	0.01601
1868.22211	0.01626
1866.93634	0.01649
1865.65057	0.01664
1864.36480	0.01664
1863.07903	0.01645
1861.79326	0.01615
1860.50749	0.01591
1859.22172	0.01584
1857.93595	0.01595
1856.65019	0.01612
1855.36442	0.01623
1854.07865	0.01624
1852.79288	0.01618
1851.50711	0.01613
1850.22134	0.01616
1848.93557	0.01630
1847.64980	0.01649
1846.36404	0.01660
1845.07827	0.01653
1843.79250	0.01634
1842.50673	0.01620
1841.22096	0.01620
1839.93519	0.01626
1838.64942	0.01623
1837.36365	0.01613
1836.07788	0.01610
1834.79212	0.01625
1833.50635	0.01654
1832.22058	0.01686
1830.93481	0.01710
1829.64904	0.01723
1828.36327	0.01726
1827.07750	0.01725
1825.79173	0.01726
1824.50597	0.01734
1823.22020	0.01747
1821.93443	0.01757
1820.64866	0.01755
1819.36289	0.01737
1818.07712	0.01704
1816.79135	0.01664
1815.50558	0.01630
1814.21981	0.01608
1812.93405	0.01594
1811.64828	0.01581
1810.36251	0.01568
1809.07674	0.01562
1807.79097	0.01565
1806.50520	0.01577
1805.21943	0.01595
1803.93366	0.01615
1802.64790	0.01631
1801.36213	0.01637
1800.07636	0.01634
1798.79059	0.01628
1797.50482	0.01630
1796.21905	0.01643
1794.93328	0.01666
1793.64751	0.01689
1792.36174	0.01705
1791.07598	0.01712
1789.79021	0.01713
1788.50444	0.01717
1787.21867	0.01723
1785.93290	0.01727
1784.64713	0.01724
1783.36136	0.01717
1782.07559	0.01712
1780.78983	0.01712
1779.50406	0.01711
1778.21829	0.01707
1776.93252	0.01702
1775.64675	0.01703
1774.36098	0.01711
1773.07521	0.01719
1771.78944	0.01720
1770.50367	0.01717
1769.21791	0.01716
1767.93214	0.01723
1766.64637	0.01738
1765.36060	0.01753
1764.07483	0.01761
1762.78906	0.01759
1761.50329	0.01748
1760.21752	0.01735
1758.93176	0.01730
1757.64599	0.01733
1756.36022	0.01743
1755.07445	0.01757
1753.78868	0.01775
1752.50291	0.01794
1751.21714	0.01808
1749.93137	0.01808
1748.64560	0.01799
1747.35984	0.01788
1746.07407	0.01782
1744.78830	0.01781
1743.50253	0.01782
1742.21676	0.01784
1740.93099	0.01789
1739.64522	0.01800
1738.35945	0.01820
1737.07369	0.01845
1735.78792	0.01871
1734.50215	0.01885
1733.21638	0.01883
1731.93061	0.01867
1730.64484	0.01850
1729.35907	0.01843
1728.07330	0.01846
1726.78753	0.01855
1725.50177	0.01864
1724.21600	0.01872
1722.93023	0.01882
1721.64446	0.01901
1720.35869	0.01932
1719.07292	0.01966
1717.78715	0.01994
1716.50138	0.02011
1715.21561	0.02021
1713.92985	0.02036
1712.64408	0.02065
1711.35831	0.02107
1710.07254	0.02158
1708.78677	0.02209
1707.50100	0.02258
1706.21523	0.02306
1704.92946	0.02362
1703.64370	0.02433
1702.35793	0.02517
1701.07216	0.02601
1699.78639	0.02675
1698.50062	0.02735
1697.21485	0.02788
1695.92908	0.02835
1694.64331	0.02880
1693.35754	0.02928
1692.07178	0.02988
1690.78601	0.03059
1689.50024	0.03140
1688.21447	0.03231
1686.92870	0.03328
1685.64293	0.03418
1684.35716	0.03490
1683.07139	0.03542
1681.78563	0.03587
1680.49986	0.03638
1679.21409	0.03703
1677.92832	0.03778
1676.64255	0.03854
1675.35678	0.03924
1674.07101	0.03988
1672.78524	0.04052
1671.49947	0.04118
1670.21371	0.04182
1668.92794	0.04237
1667.64217	0.04287
1666.35640	0.04339
1665.07063	0.04401
1663.78486	0.04467
1662.49909	0.04527
1661.21332	0.04572
1659.92756	0.04609
1658.64179	0.04654
1657.35602	0.04720
1656.07025	0.04806
1654.78448	0.04890
1653.49871	0.04942
1652.21294	0.04952
1650.92717	0.04940
1649.64140	0.04934
1648.35564	0.04943
1647.06987	0.04959
1645.78410	0.04967
1644.49833	0.04966
1643.21256	0.04959
1641.92679	0.04951
1640.64102	0.04945
1639.35525	0.04940
1638.06949	0.04938
1636.78372	0.04931
1635.49795	0.04910
1634.21218	0.04874
1632.92641	0.04830
1631.64064	0.04787
1630.35487	0.04747
1629.06910	0.04708
1627.78333	0.04669
1626.49757	0.04631
1625.21180	0.04596
1623.92603	0.04561
1622.64026	0.04527
1621.35449	0.04495
1620.06872	0.04471
1618.78295	0.04454
1617.49718	0.04434
1616.21142	0.04402
1614.92565	0.04361
1613.63988	0.04321
1612.35411	0.04293
1611.06834	0.04276
1609.78257	0.04264
1608.49680	0.04250
1607.21103	0.04235
1605.92526	0.04221
1604.63950	0.04211
1603.35373	0.04204
1602.06796	0.04199
1600.78219	0.04196
1599.49642	0.04195
1598.21065	0.04198
1596.92488	0.04207
1595.63911	0.04222
1594.35335	0.04239
1593.06758	0.04254
1591.78181	0.04267
1590.49604	0.04279
1589.21027	0.04293
1587.92450	0.04309
1586.63873	0.04326
1585.35296	0.04344
1584.06719	0.04369
1582.78143	0.04401
1581.49566	0.04439
1580.20989	0.04480
1578.92412	0.04521
1577.63835	0.04559
1576.35258	0.04587
1575.06681	0.04608
1573.78104	0.04627
1572.49528	0.04656
1571.20951	0.04693
1569.92374	0.04733
1568.63797	0.04765
1567.35220	0.04789
1566.06643	0.04811
1564.78066	0.04838
1563.49489	0.04877
1562.20912	0.04928
1560.92336	0.04982
1559.63759	0.05027
1558.35182	0.05052
1557.06605	0.05062
1555.78028	0.05067
1554.49451	0.05076
1553.20874	0.05094
1551.92297	0.05117
1550.63721	0.05141
1549.35144	0.05160
1548.06567	0.05174
1546.77990	0.05189
1545.49413	0.05209
1544.20836	0.05234
1542.92259	0.05260
1541.63682	0.05276
1540.35105	0.05273
1539.06529	0.05248
1537.77952	0.05217
1536.49375	0.05197
1535.20798	0.05197
1533.92221	0.05209
1532.63644	0.05223
1531.35067	0.05239
1530.06490	0.05261
1528.77914	0.05296
1527.49337	0.05339
1526.20760	0.05385
1524.92183	0.05433
1523.63606	0.05485
1522.35029	0.05542
1521.06452	0.05601
1519.77875	0.05660
1518.49298	0.05723
1517.20722	0.05795
1515.92145	0.05875
1514.63568	0.05961
1513.34991	0.06049
1512.06414	0.06143
1510.77837	0.06248
1509.49260	0.06364
1508.20683	0.06481
1506.92107	0.06586
1505.63530	0.06673
1504.34953	0.06748
1503.06376	0.06823
1501.77799	0.06904
1500.49222	0.06991
1499.20645	0.07077
1497.92068	0.07156
1496.63491	0.07222
1495.34915	0.07273
1494.06338	0.07314
1492.77761	0.07357
1491.49184	0.07410
1490.20607	0.07474
1488.92030	0.07546
1487.63453	0.07620
1486.34876	0.07695
1485.06299	0.07775
1483.77723	0.07861
1482.49146	0.07953
1481.20569	0.08052
1479.91992	0.08158
1478.63415	0.08272
1477.34838	0.08392
1476.06261	0.08514
1474.77684	0.08628
1473.49108	0.08726
1472.20531	0.08804
1470.91954	0.08865
1469.63377	0.08920
1468.34800	0.08974
1467.06223	0.09026
1465.77646	0.09071
1464.49069	0.09109
1463.20492	0.09145
1461.91916	0.09192
1460.63339	0.09257
1459.34762	0.09343
1458.06185	0.09436
1456.77608	0.09518
1455.49031	0.09578
1454.20454	0.09615
1452.91877	0.09638
1451.63301	0.09653
1450.34724	0.09663
1449.06147	0.09670
1447.77570	0.09677
1446.48993	0.09679
1445.20416	0.09669
1443.91839	0.09642
1442.63262	0.09604
1441.34685	0.09563
1440.06109	0.09525
1438.77532	0.09497
1437.48955	0.09481
1436.20378	0.09479
1434.91801	0.09495
1433.63224	0.09531
1432.34647	0.09588
1431.06070	0.09660
1429.77494	0.09746
1428.48917	0.09844
1427.20340	0.09958
1425.91763	0.10088
1424.63186	0.10230
1423.34609	0.10378
1422.06032	0.10524
1420.77455	0.10662
1419.48878	0.10783
1418.20302	0.10880
1416.91725	0.10952
1415.63148	0.11000
1414.34571	0.11030
1413.05994	0.11042
1411.77417	0.11040
1410.48840	0.11022
1409.20263	0.10989
1407.91687	0.10939
1406.63110	0.10867
1405.34533	0.10771
1404.05956	0.10652
1402.77379	0.10512
1401.48802	0.10355
1400.20225	0.10182
1398.91648	0.09997
1397.63071	0.09800
1396.34495	0.09593
1395.05918	0.09381
1393.77341	0.09166
1392.48764	0.08953
1391.20187	0.08741
1389.91610	0.08534
1388.63033	0.08332
1387.34456	0.08138
1386.05880	0.07950
1384.77303	0.07767
1383.48726	0.07584
1382.20149	0.07402
1380.91572	0.07220
1379.62995	0.07034
1378.34418	0.06844
1377.05841	0.06648
1375.77264	0.06447
1374.48688	0.06245
1373.20111	0.06049
1371.91534	0.05861
1370.62957	0.05680
1369.34380	0.05502
1368.05803	0.05328
1366.77226	0.05164
1365.48649	0.05019
1364.20073	0.04887
1362.91496	0.04761
1361.62919	0.04634
1360.34342	0.04506
1359.05765	0.04382
1357.77188	0.04268
1356.48611	0.04168
1355.20034	0.04083
1353.91457	0.04010
1352.62881	0.03943
1351.34304	0.03878
1350.05727	0.03811
1348.77150	0.03744
1347.48573	0.03680
1346.19996	0.03622
1344.91419	0.03571
1343.62842	0.03525
1342.34266	0.03482
1341.05689	0.03440
1339.77112	0.03399
1338.48535	0.03360
1337.19958	0.03323
1335.91381	0.03287
1334.62804	0.03251
1333.34227	0.03212
1332.05650	0.03171
1330.77074	0.03128
1329.48497	0.03087
1328.19920	0.03052
1326.91343	0.03025
1325.62766	0.03002
1324.34189	0.02981
1323.05612	0.02959
1321.77035	0.02936
1320.48459	0.02915
1319.19882	0.02893
1317.91305	0.02869
1316.62728	0.02841
1315.34151	0.02811
1314.05574	0.02780
1312.76997	0.02751
1311.48420	0.02727
1310.19843	0.02708
1308.91267	0.02694
1307.62690	0.02681
1306.34113	0.02665
1305.05536	0.02643
1303.76959	0.02616
1302.48382	0.02589
1301.19805	0.02567
1299.91228	0.02551
1298.62652	0.02539
1297.34075	0.02526
1296.05498	0.02512
1294.76921	0.02500
1293.48344	0.02492
1292.19767	0.02488
1290.91190	0.02482
1289.62613	0.02474
1288.34036	0.02461
1287.05460	0.02447
1285.76883	0.02434
1284.48306	0.02422
1283.19729	0.02409
1281.91152	0.02396
1280.62575	0.02383
1279.33998	0.02373
1278.05421	0.02367
1276.76845	0.02364
1275.48268	0.02358
1274.19691	0.02348
1272.91114	0.02333
1271.62537	0.02317
1270.33960	0.02301
1269.05383	0.02284
1267.76806	0.02267
1266.48229	0.02253
1265.19653	0.02243
1263.91076	0.02239
1262.62499	0.02236
1261.33922	0.02231
1260.05345	0.02224
1258.76768	0.02220
1257.48191	0.02223
1256.19614	0.02230
1254.91037	0.02236
1253.62461	0.02233
1252.33884	0.02222
1251.05307	0.02206
1249.76730	0.02192
1248.48153	0.02183
1247.19576	0.02178
1245.90999	0.02173
1244.62422	0.02166
1243.33846	0.02157
1242.05269	0.02147
1240.76692	0.02139
1239.48115	0.02134
1238.19538	0.02132
1236.90961	0.02131
1235.62384	0.02128
1234.33807	0.02122
1233.05230	0.02111
1231.76654	0.02098
1230.48077	0.02080
1229.19500	0.02060
1227.90923	0.02040
1226.62346	0.02022
1225.33769	0.02008
1224.05192	0.01994
1222.76615	0.01981
1221.48039	0.01971
1220.19462	0.01964
1218.90885	0.01960
1217.62308	0.01953
1216.33731	0.01944
1215.05154	0.01931
1213.76577	0.01919
1212.48000	0.01907
1211.19423	0.01897
1209.90847	0.01889
1208.62270	0.01882
1207.33693	0.01880
1206.05116	0.01882
1204.76539	0.01887
1203.47962	0.01893
1202.19385	0.01895
1200.90808	0.01886
1199.62232	0.01869
1198.33655	0.01869
1197.05078	0.01869
1195.76501	0.01866
1194.47924	0.01857
1193.19347	0.01846
1191.90770	0.01833
1190.62193	0.01821
1189.33616	0.01812
1188.05040	0.01808
1186.76463	0.01807
1185.47886	0.01806
1184.19309	0.01805
1182.90732	0.01803
1181.62155	0.01802
1180.33578	0.01803
1179.05001	0.01802
1177.76425	0.01800
1176.47848	0.01801
1175.19271	0.01810
1173.90694	0.01827
1172.62117	0.01844
1171.33540	0.01854
1170.04963	0.01857
1168.76386	0.01863
1167.47809	0.01879
1166.19233	0.01905
1164.90656	0.01931
1163.62079	0.01952
1162.33502	0.01968
1161.04925	0.01981
1159.76348	0.01998
1158.47771	0.02018
1157.19194	0.02042
1155.90618	0.02071
1154.62041	0.02104
1153.33464	0.02141
1152.04887	0.02185
1150.76310	0.02235
1149.47733	0.02292
1148.19156	0.02353
1146.90579	0.02414
1145.62002	0.02476
1144.33426	0.02540
1143.04849	0.02612
1141.76272	0.02694
1140.47695	0.02786
1139.19118	0.02887
1137.90541	0.02998
1136.61964	0.03124
1135.33387	0.03266
1134.04811	0.03424
1132.76234	0.03598
1131.47657	0.03790
1130.19080	0.04002
1128.90503	0.04236
1127.61926	0.04491
1126.33349	0.04766
1125.04772	0.05059
1123.76195	0.05369
1122.47619	0.05693
1121.19042	0.06032
1119.90465	0.06384
1118.61888	0.06742
1117.33311	0.07103
1116.04734	0.07465
1114.76157	0.07824
1113.47580	0.08177
1112.19004	0.08521
1110.90427	0.08860
1109.61850	0.09201
1108.33273	0.09550
1107.04696	0.09904
1105.76119	0.10256
1104.47542	0.10601
1103.18965	0.10932
1101.90388	0.11248
1100.61812	0.11546
1099.33235	0.11830
1098.04658	0.12106
1096.76081	0.12379
1095.47504	0.12651
1094.18927	0.12916
1092.90350	0.13164
1091.61773	0.13388
1090.33197	0.13594
1089.04620	0.13791
1087.76043	0.13989
1086.47466	0.14186
1085.18889	0.14381
1083.90312	0.14582
1082.61735	0.14797
1081.33158	0.15034
1080.04581	0.15291
1078.76005	0.15565
1077.47428	0.15852
1076.18851	0.16151
1074.90274	0.16464
1073.61697	0.16792
1072.33120	0.17132
1071.04543	0.17479
1069.75966	0.17829
1068.47390	0.18186
1067.18813	0.18558
1065.90236	0.18947
1064.61659	0.19343
1063.33082	0.19736
1062.04505	0.20122
1060.75928	0.20506
1059.47351	0.20895
1058.18774	0.21288
1056.90198	0.21680
1055.61621	0.22065
1054.33044	0.22443
1053.04467	0.22819
1051.75890	0.23195
1050.47313	0.23573
1049.18736	0.23957
1047.90159	0.24352
1046.61583	0.24761
1045.33006	0.25181
1044.04429	0.25605
1042.75852	0.26033
1041.47275	0.26468
1040.18698	0.26911
1038.90121	0.27356
1037.61544	0.27793
1036.32967	0.28221
1035.04391	0.28639
1033.75814	0.29045
1032.47237	0.29430
1031.18660	0.29788
1029.90083	0.30118
1028.61506	0.30416
1027.32929	0.30677
1026.04352	0.30894
1024.75775	0.31059
1023.47199	0.31173
1022.18622	0.31236
1020.90045	0.31251
1019.61468	0.31217
1018.32891	0.31131
1017.04314	0.30990
1015.75737	0.30789
1014.47160	0.30522
1013.18584	0.30185
1011.90007	0.29779
1010.61430	0.29312
1009.32853	0.28794
1008.04276	0.28234
1006.75699	0.27632
1005.47122	0.26987
1004.18545	0.26303
1002.89968	0.25593
1001.61392	0.24860
1000.32815	0.24100
999.04238	0.23308
997.75661	0.22495
996.47084	0.21681
995.18507	0.20882
993.89930	0.20098
992.61353	0.19324
991.32777	0.18562
990.04200	0.17817
988.75623	0.17101
987.47046	0.16417
986.18469	0.15766
984.89892	0.15146
983.61315	0.14554
982.32738	0.13988
981.04161	0.13446
979.75585	0.12931
978.47008	0.12450
977.18431	0.12009
975.89854	0.11615
974.61277	0.11274
973.32700	0.10993
972.04123	0.10777
970.75546	0.10626
969.46970	0.10539
968.18393	0.10508
966.89816	0.10520
965.61239	0.10565
964.32662	0.10637
963.04085	0.10722
961.75508	0.10790
960.46931	0.10809
959.18354	0.10756
957.89778	0.10628
956.61201	0.10436
955.32624	0.10201
954.04047	0.09941
952.75470	0.09671
951.46893	0.09402
950.18316	0.09138
948.89739	0.08877
947.61163	0.08617
946.32586	0.08362
945.04009	0.08121
943.75432	0.07897
942.46855	0.07685
941.18278	0.07480
939.89701	0.07285
938.61124	0.07105
937.32547	0.06943
936.03971	0.06788
934.75394	0.06634
933.46817	0.06480
932.18240	0.06331
930.89663	0.06194
929.61086	0.06071
928.32509	0.05959
927.03932	0.05853
925.75356	0.05755
924.46779	0.05666
923.18202	0.05584
921.89625	0.05504
920.61048	0.05424
919.32471	0.05347
918.03894	0.05276
916.75317	0.05213
915.46740	0.05153
914.18164	0.05095
912.89587	0.05041
911.61010	0.04988
910.32433	0.04933
909.03856	0.04872
907.75279	0.04808
906.46702	0.04750
905.18125	0.04704
903.89549	0.04670
902.60972	0.04643
901.32395	0.04614
900.03818	0.04583
898.75241	0.04555
897.46664	0.04536
896.18087	0.04527
894.89510	0.04519
893.60933	0.04504
892.32357	0.04481
891.03780	0.04458
889.75203	0.04449
888.46626	0.04468
887.18049	0.04530
885.89472	0.04650
884.60895	0.04843
883.32318	0.05105
882.03742	0.05413
880.75165	0.05717
879.46588	0.05972
878.18011	0.06162
876.89434	0.06315
875.60857	0.06468
874.32280	0.06631
873.03703	0.06771
871.75126	0.06840
870.46550	0.06815
869.17973	0.06703
867.89396	0.06525
866.60819	0.06305
865.32242	0.06067
864.03665	0.05831
862.75088	0.05608
861.46511	0.05398
860.17935	0.05204
858.89358	0.05037
857.60781	0.04903
856.32204	0.04800
855.03627	0.04713
853.75050	0.04632
852.46473	0.04554
851.17896	0.04480
849.89319	0.04413
848.60743	0.04353
847.32166	0.04303
846.03589	0.04261
844.75012	0.04226
843.46435	0.04194
842.17858	0.04162
840.89281	0.04126
839.60704	0.04089
838.32128	0.04053
837.03551	0.04017
835.74974	0.03983
834.46397	0.03956
833.17820	0.03940
831.89243	0.03935
830.60666	0.03931
829.32089	0.03920
828.03512	0.03899
826.74936	0.03871
825.46359	0.03845
824.17782	0.03825
822.89205	0.03813
821.60628	0.03802
820.32051	0.03790
819.03474	0.03775
817.74897	0.03764
816.46321	0.03761
815.17744	0.03766
813.89167	0.03770
812.60590	0.03765
811.32013	0.03753
810.03436	0.03740
808.74859	0.03730
807.46282	0.03724
806.17705	0.03722
804.89129	0.03723
803.60552	0.03726
802.31975	0.03726
801.03398	0.03724
799.74821	0.03717
798.46244	0.03707
797.17667	0.03697
795.89090	0.03690
794.60513	0.03686
793.31937	0.03681
792.03360	0.03670
790.74783	0.03656
789.46206	0.03641
788.17629	0.03630
786.89052	0.03623
785.60475	0.03616
784.31898	0.03607
783.03322	0.03599
781.74745	0.03596
780.46168	0.03600
779.17591	0.03605
777.89014	0.03605
776.60437	0.03600
775.31860	0.03593
774.03283	0.03589
772.74706	0.03588
771.46130	0.03591
770.17553	0.03595
768.88976	0.03599
767.60399	0.03600
766.31822	0.03600
765.03245	0.03601
763.74668	0.03605
762.46091	0.03611
761.17515	0.03620
759.88938	0.03634
758.60361	0.03655
757.31784	0.03678
756.03207	0.03697
754.74630	0.03708
753.46053	0.03707
752.17476	0.03695
750.88899	0.03675
749.60323	0.03655
748.31746	0.03647
747.03169	0.03650
745.74592	0.03656
744.46015	0.03649
743.17438	0.03622
741.88861	0.03582
740.60284	0.03549
739.31708	0.03539
738.03131	0.03553
736.74554	0.03578
735.45977	0.03601
734.17400	0.03612
732.88823	0.03607
731.60246	0.03589
730.31669	0.03570
729.03092	0.03560
727.74516	0.03563
726.45939	0.03573
725.17362	0.03584
723.88785	0.03596
722.60208	0.03606
721.31631	0.03616
720.03054	0.03628
718.74477	0.03642
717.45901	0.03647
716.17324	0.03647
714.88747	0.03642
713.60170	0.03633
712.31593	0.03622
711.03016	0.03611
709.74439	0.03604
708.45862	0.03602
707.17285	0.03604
705.88709	0.03608
704.60132	0.03613
703.31555	0.03615
702.02978	0.03614
700.74401	0.03610
699.45824	0.03607
698.17247	0.03607
696.88670	0.03611
695.60094	0.03615
694.31517	0.03618
693.02940	0.03618
691.74363	0.03618
690.45786	0.03618
689.17209	0.03616
687.88632	0.03611
686.60055	0.03603
685.31478	0.03594
684.02902	0.03588
682.74325	0.03585
681.45748	0.03585
680.17171	0.03583
678.88594	0.03577
677.60017	0.03570
676.31440	0.03566
675.02863	0.03564
673.74287	0.03565
672.45710	0.03585
671.17133	0.03647
669.88556	0.03698
668.59979	0.03596
667.31402	0.03581
666.02825	0.03700
664.74248	0.03638
663.45671	0.03557
662.17095	0.03523
660.88518	0.03506
659.59941	0.03494
658.31364	0.03486
657.02787	0.03482
655.74210	0.03479
654.45633	0.03476
653.17056	0.03474
651.88480	0.03474
650.59903	0.03479
649.31326	0.03484
648.02749	0.03490
646.74172	0.03491
645.45595	0.03490
644.17018	0.03492
642.88441	0.03498
641.59864	0.03507
640.31288	0.03517
639.02711	0.03532
637.74134	0.03554
636.45557	0.03585
635.16980	0.03623
633.88403	0.03662
632.59826	0.03698
631.31249	0.03746
630.02673	0.03869
628.74096	0.04050
627.45519	0.04047
626.16942	0.04276
624.88365	0.04669
623.59788	0.05078
622.31211	0.05470
621.02634	0.05830
619.74057	0.06124
618.45481	0.06316
617.16904	0.06405
615.88327	0.06440
614.59750	0.06519
613.31173	0.06761
612.02596	0.07247
610.74019	0.07965
609.45442	0.08807
608.16866	0.09622
606.88289	0.10311
605.59712	0.10852
604.31135	0.11252
603.02558	0.11509
601.73981	0.11605
600.45404	0.11539
599.16827	0.11338
597.88250	0.11042
596.59674	0.10690
595.31097	0.10319
594.02520	0.09966
592.73943	0.09663
591.45366	0.09438
590.16789	0.09309
588.88212	0.09281
587.59635	0.09344
586.31059	0.09474
585.02482	0.09647
583.73905	0.09852
582.45328	0.10090
581.16751	0.10358
579.88174	0.10652
578.59597	0.10964
577.31020	0.11284
576.02443	0.11609
574.73867	0.11934
573.45290	0.12255
572.16713	0.12576
570.88136	0.12913
569.59559	0.13291
568.30982	0.13723
567.02405	0.14189
565.73828	0.14637
564.45251	0.15001
563.16675	0.15237
561.88098	0.15317
560.59521	0.15232
559.30944	0.14976
558.02367	0.14553
556.73790	0.13987
555.45213	0.13318
554.16636	0.12596
552.88060	0.11873
551.59483	0.11188
550.30906	0.10567
549.02329	0.10018
547.73752	0.09535
546.45175	0.09100
545.16598	0.08698
543.88021	0.08320
542.59444	0.07967
541.30868	0.07645
540.02291	0.07350
538.73714	0.07082
537.45137	0.06837
536.16560	0.06617
534.87983	0.06422
533.59406	0.06250
532.30829	0.06093
531.02253	0.05942
529.73676	0.05794
528.45099	0.05650
527.16522	0.05515
525.87945	0.05391
524.59368	0.05276
523.30791	0.05163
522.02214	0.05046
520.73637	0.04923
519.45061	0.04802
518.16484	0.04696
516.87907	0.04608
515.59330	0.04531
514.30753	0.04452
513.02176	0.04370
511.73599	0.04290
510.45022	0.04220
509.16446	0.04160
507.87869	0.04104
506.59292	0.04045
505.30715	0.03980
504.02138	0.03911
502.73561	0.03848
501.44984	0.03794
500.16407	0.03754
498.87830	0.03724
497.59254	0.03695
496.30677	0.03656
495.02100	0.03606
493.73523	0.03553
492.44946	0.03511
491.16369	0.03488
489.87792	0.03480
488.59215	0.03470
487.30639	0.03444
486.02062	0.03403
484.73485	0.03363
483.44908	0.03338
482.16331	0.03335
480.87754	0.03346
479.59177	0.03362
478.30600	0.03377
477.02023	0.03389
475.73447	0.03405
474.44870	0.03425
473.16293	0.03445
471.87716	0.03456
470.59139	0.03461
469.30562	0.03461
468.01985	0.03457
466.73408	0.03443
465.44832	0.03417
464.16255	0.03382
462.87678	0.03341
461.59101	0.03298
460.30524	0.03254
459.01947	0.03207
457.73370	0.03156
456.44793	0.03102
455.16216	0.03052
453.87640	0.03006
452.59063	0.02966
451.30486	0.02935
450.01909	0.02914
448.73332	0.02904
447.44755	0.02896
446.16178	0.02878
444.87601	0.02849
443.59025	0.02816
442.30448	0.02792
441.01871	0.02777
439.73294	0.02769
438.44717	0.02760
437.16140	0.02750
435.87563	0.02737
434.58986	0.02726
433.30409	0.02718
432.01833	0.02713
430.73256	0.02708
429.44679	0.02698
428.16102	0.02684
426.87525	0.02670
425.58948	0.02659
424.30371	0.02647
423.01794	0.02632
421.73218	0.02614
420.44641	0.02594
419.16064	0.02574
417.87487	0.02558
416.58910	0.02547
415.30333	0.02539
414.01756	0.02533
412.73179	0.02529
411.44602	0.02526
410.16026	0.02526
408.87449	0.02529
407.58872	0.02536
406.30295	0.02544
405.01718	0.02549
403.73141	0.02550
402.44564	0.02552
401.15987	0.02561
399.87411	0.02578
