3997.45528	0.04402
3996.16951	0.04395
3994.88374	0.04424
3993.59798	0.04490
3992.31221	0.04571
3991.02644	0.04632
3989.74067	0.04638
3988.45490	0.04586
3987.16913	0.04512
3985.88336	0.04478
3984.59759	0.04506
3983.31183	0.04575
3982.02606	0.04647
3980.74029	0.04705
3979.45452	0.04749
3978.16875	0.04769
3976.88298	0.04751
3975.59721	0.04687
3974.31144	0.04573
3973.02567	0.04418
3971.73991	0.04256
3970.45414	0.04144
3969.16837	0.04133
3967.88260	0.04223
3966.59683	0.04360
3965.31106	0.04468
3964.02529	0.04488
3962.73952	0.04409
3961.45376	0.04281
3960.16799	0.04186
3958.88222	0.04185
3957.59645	0.04271
3956.31068	0.04397
3955.02491	0.04518
3953.73914	0.04617
3952.45337	0.04688
3951.16760	0.04719
3949.88184	0.04689
3948.59607	0.04597
3947.31030	0.04465
3946.02453	0.04324
3944.73876	0.04206
3943.45299	0.04153
3942.16722	0.04206
3940.88145	0.04365
3939.59569	0.04552
3938.30992	0.04659
3937.02415	0.04627
3935.73838	0.04494
3934.45261	0.04350
3933.16684	0.04270
3931.88107	0.04277
3930.59530	0.04350
3929.30953	0.04438
3928.02377	0.04489
3926.73800	0.04485
3925.45223	0.04456
3924.16646	0.04443
3922.88069	0.04459
3921.59492	0.04489
3920.30915	0.04519
3919.02338	0.04567
3917.73762	0.04655
3916.45185	0.04774
3915.16608	0.04870
3913.88031	0.04883
3912.59454	0.04796
3911.30877	0.04649
3910.02300	0.04498
3908.73723	0.04382
3907.45146	0.04315
3906.16570	0.04281
3904.87993	0.04247
3903.59416	0.04192
3902.30839	0.04137
3901.02262	0.04118
3899.73685	0.04145
3898.45108	0.04186
3897.16531	0.04216
3895.87955	0.04222
3894.59378	0.04198
3893.30801	0.04138
3892.02224	0.04051
3890.73647	0.03969
3889.45070	0.03924
3888.16493	0.03927
3886.87916	0.03966
3885.59339	0.04018
3884.30763	0.04060
3883.02186	0.04086
3881.73609	0.04105
3880.45032	0.04130
3879.16455	0.04160
3877.87878	0.04185
3876.59301	0.04206
3875.30724	0.04253
3874.02148	0.04358
3872.73571	0.04505
3871.44994	0.04609
3870.16417	0.04578
3868.87840	0.04400
3867.59263	0.04165
3866.30686	0.03988
3865.02109	0.03924
3863.73532	0.03938
3862.44956	0.03961
3861.16379	0.03954
3859.87802	0.03939
3858.59225	0.03960
3857.30648	0.04038
3856.02071	0.04154
3854.73494	0.04258
3853.44917	0.04299
3852.16341	0.04264
3850.87764	0.04190
3849.59187	0.04136
3848.30610	0.04136
3847.02033	0.04170
3845.73456	0.04193
3844.44879	0.04178
3843.16302	0.04134
3841.87725	0.04085
3840.59149	0.04047
3839.30572	0.04021
3838.01995	0.04003
3836.73418	0.03993
3835.44841	0.03990
3834.16264	0.03994
3832.87687	0.03997
3831.59110	0.03984
3830.30534	0.03955
3829.01957	0.03940
3827.73380	0.03964
3826.44803	0.04020
3825.16226	0.04072
3823.87649	0.04095
3822.59072	0.04093
3821.30495	0.04081
3820.01918	0.04069
3818.73342	0.04065
3817.44765	0.04073
3816.16188	0.04083
3814.87611	0.04073
3813.59034	0.04038
3812.30457	0.04000
3811.01880	0.03988
3809.73303	0.04008
3808.44726	0.04042
3807.16150	0.04077
3805.87573	0.04121
3804.58996	0.04188
3803.30419	0.04259
3802.01842	0.04280
3800.73265	0.04208
3799.44688	0.04060
3798.16111	0.03903
3796.87535	0.03794
3795.58958	0.03747
3794.30381	0.03743
3793.01804	0.03772
3791.73227	0.03829
3790.44650	0.03906
3789.16073	0.03984
3787.87496	0.04046
3786.58919	0.04076
3785.30343	0.04066
3784.01766	0.04020
3782.73189	0.03961
3781.44612	0.03919
3780.16035	0.03914
3778.87458	0.03945
3777.58881	0.03995
3776.30304	0.04036
3775.01728	0.04048
3773.73151	0.04035
3772.44574	0.04025
3771.15997	0.04046
3769.87420	0.04110
3768.58843	0.04199
3767.30266	0.04277
3766.01689	0.04302
3764.73112	0.04236
3763.44536	0.04079
3762.15959	0.03885
3760.87382	0.03732
3759.58805	0.03663
3758.30228	0.03662
3757.01651	0.03689
3755.73074	0.03721
3754.44497	0.03759
3753.15921	0.03812
3751.87344	0.03875
3750.58767	0.03936
3749.30190	0.03983
3748.01613	0.04011
3746.73036	0.04014
3745.44459	0.03980
3744.15882	0.03903
3742.87305	0.03806
3741.58729	0.03724
3740.30152	0.03686
3739.01575	0.03694
3737.72998	0.03741
3736.44421	0.03811
3735.15844	0.03885
3733.87267	0.03952
3732.58690	0.04012
3731.30114	0.04074
3730.01537	0.04145
3728.72960	0.04209
3727.44383	0.04232
3726.15806	0.04189
3724.87229	0.04087
3723.58652	0.03961
3722.30075	0.03849
3721.01498	0.03781
3719.72922	0.03771
3718.44345	0.03809
3717.15768	0.03857
3715.87191	0.03872
3714.58614	0.03839
3713.30037	0.03790
3712.01460	0.03774
3710.72883	0.03812
3709.44307	0.03885
3708.15730	0.03960
3706.87153	0.04020
3705.58576	0.04050
3704.29999	0.04023
3703.01422	0.03921
3701.72845	0.03757
3700.44268	0.03589
3699.15691	0.03480
3697.87115	0.03463
3696.58538	0.03537
3695.29961	0.03680
3694.01384	0.03844
3692.72807	0.03969
3691.44230	0.04033
3690.15653	0.04055
3688.87076	0.04035
3687.58500	0.03945
3686.29923	0.03772
3685.01346	0.03542
3683.72769	0.03335
3682.44192	0.03233
3681.15615	0.03254
3679.87038	0.03356
3678.58461	0.03494
3677.29884	0.03640
3676.01308	0.03782
3674.72731	0.03909
3673.44154	0.04008
3672.15577	0.04074
3670.87000	0.04096
3669.58423	0.04066
3668.29846	0.04002
3667.01269	0.03937
3665.72693	0.03887
3664.44116	0.03843
3663.15539	0.03809
3661.86962	0.03809
3660.58385	0.03867
3659.29808	0.03963
3658.01231	0.04050
3656.72654	0.04081
3655.44077	0.04030
3654.15501	0.03902
3652.86924	0.03741
3651.58347	0.03614
3650.29770	0.03572
3649.01193	0.03616
3647.72616	0.03695
3646.44039	0.03749
3645.15462	0.03767
3643.86886	0.03802
3642.58309	0.03907
3641.29732	0.04063
3640.01155	0.04177
3638.72578	0.04179
3637.44001	0.04076
3636.15424	0.03937
3634.86847	0.03825
3633.58270	0.03768
3632.29694	0.03762
3631.01117	0.03796
3629.72540	0.03854
3628.43963	0.03916
3627.15386	0.03952
3625.86809	0.03941
3624.58232	0.03908
3623.29655	0.03921
3622.01079	0.04028
3620.72502	0.04205
3619.43925	0.04362
3618.15348	0.04435
3616.86771	0.04427
3615.58194	0.04390
3614.29617	0.04355
3613.01040	0.04317
3611.72463	0.04258
3610.43887	0.04191
3609.15310	0.04145
3607.86733	0.04129
3606.58156	0.04123
3605.29579	0.04117
3604.01002	0.04124
3602.72425	0.04158
3601.43848	0.04200
3600.15272	0.04222
3598.86695	0.04215
3597.58118	0.04199
3596.29541	0.04197
3595.00964	0.04239
3593.72387	0.04332
3592.43810	0.04436
3591.15233	0.04500
3589.86656	0.04512
3588.58080	0.04499
3587.29503	0.04478
3586.00926	0.04458
3584.72349	0.04461
3583.43772	0.04488
3582.15195	0.04509
3580.86618	0.04482
3579.58041	0.04410
3578.29464	0.04351
3577.00888	0.04364
3575.72311	0.04438
3574.43734	0.04513
3573.15157	0.04539
3571.86580	0.04517
3570.58003	0.04483
3569.29426	0.04473
3568.00849	0.04498
3566.72273	0.04549
3565.43696	0.04606
3564.15119	0.04647
3562.86542	0.04664
3561.57965	0.04674
3560.29388	0.04687
3559.00811	0.04695
3557.72234	0.04680
3556.43657	0.04650
3555.15081	0.04631
3553.86504	0.04645
3552.57927	0.04687
3551.29350	0.04740
3550.00773	0.04792
3548.72196	0.04838
3547.43619	0.04873
3546.15042	0.04891
3544.86466	0.04895
3543.57889	0.04901
3542.29312	0.04920
3541.00735	0.04953
3539.72158	0.04992
3538.43581	0.05025
3537.15004	0.05039
3535.86427	0.05025
3534.57850	0.04988
3533.29274	0.04954
3532.00697	0.04949
3530.72120	0.04973
3529.43543	0.04998
3528.14966	0.05002
3526.86389	0.04986
3525.57812	0.04964
3524.29235	0.04931
3523.00659	0.04884
3521.72082	0.04847
3520.43505	0.04860
3519.14928	0.04935
3517.86351	0.05034
3516.57774	0.05110
3515.29197	0.05149
3514.00620	0.05166
3512.72043	0.05172
3511.43467	0.05158
3510.14890	0.05118
3508.86313	0.05062
3507.57736	0.05011
3506.29159	0.04971
3505.00582	0.04939
3503.72005	0.04923
3502.43428	0.04939
3501.14852	0.04993
3499.86275	0.05059
3498.57698	0.05108
3497.29121	0.05131
3496.00544	0.05137
3494.71967	0.05132
3493.43390	0.05110
3492.14813	0.05077
3490.86236	0.05067
3489.57660	0.05116
3488.29083	0.05221
3487.00506	0.05330
3485.71929	0.05385
3484.43352	0.05368
3483.14775	0.05297
3481.86198	0.05212
3480.57621	0.05148
3479.29045	0.05121
3478.00468	0.05124
3476.71891	0.05134
3475.43314	0.05140
3474.14737	0.05147
3472.86160	0.05159
3471.57583	0.05165
3470.29006	0.05157
3469.00429	0.05150
3467.71853	0.05177
3466.43276	0.05256
3465.14699	0.05369
3463.86122	0.05474
3462.57545	0.05530
3461.28968	0.05523
3460.00391	0.05469
3458.71814	0.05396
3457.43238	0.05327
3456.14661	0.05275
3454.86084	0.05251
3453.57507	0.05260
3452.28930	0.05299
3451.00353	0.05355
3449.71776	0.05414
3448.43199	0.05467
3447.14622	0.05499
3445.86046	0.05498
3444.57469	0.05473
3443.28892	0.05448
3442.00315	0.05442
3440.71738	0.05457
3439.43161	0.05482
3438.14584	0.05510
3436.86007	0.05546
3435.57431	0.05598
3434.28854	0.05671
3433.00277	0.05751
3431.71700	0.05809
3430.43123	0.05819
3429.14546	0.05782
3427.85969	0.05725
3426.57392	0.05677
3425.28815	0.05643
3424.00239	0.05613
3422.71662	0.05577
3421.43085	0.05539
3420.14508	0.05510
3418.85931	0.05492
3417.57354	0.05477
3416.28777	0.05458
3415.00200	0.05439
3413.71624	0.05433
3412.43047	0.05453
3411.14470	0.05500
3409.85893	0.05562
3408.57316	0.05623
3407.28739	0.05674
3406.00162	0.05713
3404.71585	0.05739
3403.43008	0.05746
3402.14432	0.05735
3400.85855	0.05710
3399.57278	0.05686
3398.28701	0.05689
3397.00124	0.05724
3395.71547	0.05774
3394.42970	0.05814
3393.14393	0.05829
3391.85817	0.05827
3390.57240	0.05832
3389.28663	0.05852
3388.00086	0.05867
3386.71509	0.05852
3385.42932	0.05807
3384.14355	0.05766
3382.85778	0.05752
3381.57201	0.05750
3380.28625	0.05729
3379.00048	0.05679
3377.71471	0.05616
3376.42894	0.05561
3375.14317	0.05521
3373.85740	0.05499
3372.57163	0.05511
3371.28586	0.05565
3370.00010	0.05645
3368.71433	0.05712
3367.42856	0.05742
3366.14279	0.05743
3364.85702	0.05746
3363.57125	0.05767
3362.28548	0.05794
3360.99971	0.05803
3359.71394	0.05788
3358.42818	0.05768
3357.14241	0.05756
3355.85664	0.05755
3354.57087	0.05764
3353.28510	0.05789
3351.99933	0.05824
3350.71356	0.05853
3349.42779	0.05860
3348.14202	0.05842
3346.85626	0.05800
3345.57049	0.05732
3344.28472	0.05644
3342.99895	0.05568
3341.71318	0.05553
3340.42741	0.05617
3339.14164	0.05724
3337.85587	0.05807
3336.57011	0.05825
3335.28434	0.05784
3333.99857	0.05723
3332.71280	0.05668
3331.42703	0.05626
3330.14126	0.05595
3328.85549	0.05578
3327.56972	0.05584
3326.28395	0.05617
3324.99819	0.05664
3323.71242	0.05708
3322.42665	0.05730
3321.14088	0.05717
3319.85511	0.05671
3318.56934	0.05614
3317.28357	0.05569
3315.99780	0.05546
3314.71204	0.05545
3313.42627	0.05572
3312.14050	0.05616
3310.85473	0.05655
3309.56896	0.05670
3308.28319	0.05669
3306.99742	0.05674
3305.71165	0.05691
3304.42588	0.05705
3303.14012	0.05695
3301.85435	0.05650
3300.56858	0.05576
3299.28281	0.05499
3297.99704	0.05450
3296.71127	0.05441
3295.42550	0.05457
3294.13973	0.05479
3292.85397	0.05507
3291.56820	0.05555
3290.28243	0.05628
3288.99666	0.05705
3287.71089	0.05753
3286.42512	0.05751
3285.13935	0.05703
3283.85358	0.05629
3282.56781	0.05556
3281.28205	0.05503
3279.99628	0.05471
3278.71051	0.05452
3277.42474	0.05443
3276.13897	0.05450
3274.85320	0.05472
3273.56743	0.05500
3272.28166	0.05527
3270.99590	0.05554
3269.71013	0.05581
3268.42436	0.05594
3267.13859	0.05588
3265.85282	0.05572
3264.56705	0.05558
3263.28128	0.05537
3261.99551	0.05494
3260.70974	0.05431
3259.42398	0.05373
3258.13821	0.05352
3256.85244	0.05377
3255.56667	0.05439
3254.28090	0.05504
3252.99513	0.05538
3251.70936	0.05523
3250.42359	0.05479
3249.13783	0.05443
3247.85206	0.05436
3246.56629	0.05445
3245.28052	0.05446
3243.99475	0.05429
3242.70898	0.05404
3241.42321	0.05387
3240.13744	0.05385
3238.85167	0.05387
3237.56591	0.05372
3236.28014	0.05336
3234.99437	0.05296
3233.70860	0.05274
3232.42283	0.05272
3231.13706	0.05276
3229.85129	0.05269
3228.56552	0.05248
3227.27976	0.05225
3225.99399	0.05212
3224.70822	0.05220
3223.42245	0.05250
3222.13668	0.05298
3220.85091	0.05351
3219.56514	0.05392
3218.27937	0.05405
3216.99360	0.05394
3215.70784	0.05382
3214.42207	0.05387
3213.13630	0.05401
3211.85053	0.05408
3210.56476	0.05401
3209.27899	0.05393
3207.99322	0.05395
3206.70745	0.05401
3205.42169	0.05394
3204.13592	0.05362
3202.85015	0.05312
3201.56438	0.05257
3200.27861	0.05211
3198.99284	0.05177
3197.70707	0.05154
3196.42130	0.05143
3195.13553	0.05142
3193.84977	0.05149
3192.56400	0.05165
3191.27823	0.05190
3189.99246	0.05215
3188.70669	0.05223
3187.42092	0.05202
3186.13515	0.05168
3184.84938	0.05148
3183.56362	0.05150
3182.27785	0.05148
3180.99208	0.05116
3179.70631	0.05062
3178.42054	0.05016
3177.13477	0.05007
3175.84900	0.05032
3174.56323	0.05073
3173.27746	0.05110
3171.99170	0.05130
3170.70593	0.05130
3169.42016	0.05112
3168.13439	0.05087
3166.84862	0.05070
3165.56285	0.05075
3164.27708	0.05098
3162.99131	0.05122
3161.70555	0.05128
3160.41978	0.05112
3159.13401	0.05082
3157.84824	0.05052
3156.56247	0.05040
3155.27670	0.05062
3153.99093	0.05109
3152.70516	0.05147
3151.41939	0.05151
3150.13363	0.05122
3148.84786	0.05088
3147.56209	0.05067
3146.27632	0.05054
3144.99055	0.05027
3143.70478	0.04973
3142.41901	0.04901
3141.13324	0.04840
3139.84748	0.04823
3138.56171	0.04857
3137.27594	0.04912
3135.99017	0.04944
3134.70440	0.04928
3133.41863	0.04885
3132.13286	0.04860
3130.84709	0.04885
3129.56132	0.04954
3128.27556	0.05023
3126.98979	0.05052
3125.70402	0.05033
3124.41825	0.04990
3123.13248	0.04949
3121.84671	0.04914
3120.56094	0.04875
3119.27517	0.04819
3117.98940	0.04758
3116.70364	0.04717
3115.41787	0.04709
3114.13210	0.04727
3112.84633	0.04755
3111.56056	0.04786
3110.27479	0.04815
3108.98902	0.04830
3107.70325	0.04811
3106.41749	0.04759
3105.13172	0.04700
3103.84595	0.04668
3102.56018	0.04670
3101.27441	0.04683
3099.98864	0.04685
3098.70287	0.04678
3097.41710	0.04680
3096.13133	0.04706
3094.84557	0.04748
3093.55980	0.04777
3092.27403	0.04772
3090.98826	0.04732
3089.70249	0.04675
3088.41672	0.04628
3087.13095	0.04607
3085.84518	0.04619
3084.55942	0.04654
3083.27365	0.04694
3081.98788	0.04721
3080.70211	0.04727
3079.41634	0.04715
3078.13057	0.04694
3076.84480	0.04678
3075.55903	0.04674
3074.27326	0.04678
3072.98750	0.04682
3071.70173	0.04676
3070.41596	0.04665
3069.13019	0.04655
3067.84442	0.04647
3066.55865	0.04640
3065.27288	0.04635
3063.98711	0.04635
3062.70135	0.04641
3061.41558	0.04640
3060.12981	0.04624
3058.84404	0.04589
3057.55827	0.04548
3056.27250	0.04519
3054.98673	0.04514
3053.70096	0.04524
3052.41519	0.04534
3051.12943	0.04536
3049.84366	0.04536
3048.55789	0.04538
3047.27212	0.04538
3045.98635	0.04530
3044.70058	0.04518
3043.41481	0.04512
3042.12904	0.04516
3040.84328	0.04524
3039.55751	0.04526
3038.27174	0.04526
3036.98597	0.04537
3035.70020	0.04562
3034.41443	0.04586
3033.12866	0.04585
3031.84289	0.04545
3030.55712	0.04474
3029.27136	0.04394
3027.98559	0.04332
3026.69982	0.04308
3025.41405	0.04319
3024.12828	0.04344
3022.84251	0.04362
3021.55674	0.04371
3020.27097	0.04383
3018.98521	0.04396
3017.69944	0.04390
3016.41367	0.04349
3015.12790	0.04286
3013.84213	0.04242
3012.55636	0.04243
3011.27059	0.04281
3009.98482	0.04324
3008.69905	0.04350
3007.41329	0.04355
3006.12752	0.04345
3004.84175	0.04321
3003.55598	0.04279
3002.27021	0.04229
3000.98444	0.04186
2999.69867	0.04163
2998.41290	0.04167
2997.12714	0.04176
2995.84137	0.04186
2994.55560	0.04201
2993.26983	0.04221
2991.98406	0.04230
2990.69829	0.04224
2989.41252	0.04211
2988.12675	0.04204
2986.84098	0.04213
2985.55522	0.04244
2984.26945	0.04300
2982.98368	0.04376
2981.69791	0.04448
2980.41214	0.04496
2979.12637	0.04512
2977.84060	0.04502
2976.55483	0.04478
2975.26907	0.04459
2973.98330	0.04463
2972.69753	0.04510
2971.41176	0.04596
2970.12599	0.04692
2968.84022	0.04762
2967.55445	0.04788
2966.26868	0.04791
2964.98291	0.04805
2963.69715	0.04849
2962.41138	0.04911
2961.12561	0.04970
2959.83984	0.05011
2958.55407	0.05033
2957.26830	0.05045
2955.98253	0.05055
2954.69676	0.05075
2953.41100	0.05109
2952.12523	0.05148
2950.83946	0.05175
2949.55369	0.05176
2948.26792	0.05158
2946.98215	0.05140
2945.69638	0.05136
2944.41061	0.05147
2943.12484	0.05163
2941.83908	0.05171
2940.55331	0.05173
2939.26754	0.05189
2937.98177	0.05237
2936.69600	0.05307
2935.41023	0.05365
2934.12446	0.05383
2932.83869	0.05370
2931.55293	0.05358
2930.26716	0.05378
2928.98139	0.05430
2927.69562	0.05496
2926.40985	0.05549
2925.12408	0.05574
2923.83831	0.05568
2922.55254	0.05537
2921.26677	0.05491
2919.98101	0.05445
2918.69524	0.05412
2917.40947	0.05391
2916.12370	0.05368
2914.83793	0.05340
2913.55216	0.05317
2912.26639	0.05304
2910.98062	0.05286
2909.69486	0.05242
2908.40909	0.05179
2907.12332	0.05118
2905.83755	0.05075
2904.55178	0.05041
2903.26601	0.05004
2901.98024	0.04965
2900.69447	0.04934
2899.40870	0.04919
2898.12294	0.04917
2896.83717	0.04914
2895.55140	0.04896
2894.26563	0.04861
2892.97986	0.04818
2891.69409	0.04771
2890.40832	0.04716
2889.12255	0.04648
2887.83678	0.04573
2886.55102	0.04511
2885.26525	0.04484
2883.97948	0.04501
2882.69371	0.04551
2881.40794	0.04601
2880.12217	0.04624
2878.83640	0.04615
2877.55063	0.04595
2876.26487	0.04593
2874.97910	0.04617
2873.69333	0.04653
2872.40756	0.04683
2871.12179	0.04695
2869.83602	0.04691
2868.55025	0.04675
2867.26448	0.04653
2865.97871	0.04637
2864.69295	0.04637
2863.40718	0.04653
2862.12141	0.04663
2860.83564	0.04646
2859.54987	0.04605
2858.26410	0.04566
2856.97833	0.04545
2855.69256	0.04536
2854.40680	0.04523
2853.12103	0.04502
2851.83526	0.04480
2850.54949	0.04459
2849.26372	0.04438
2847.97795	0.04415
2846.69218	0.04388
2845.40641	0.04357
2844.12064	0.04327
2842.83488	0.04300
2841.54911	0.04269
2840.26334	0.04225
2838.97757	0.04174
2837.69180	0.04133
2836.40603	0.04113
2835.12026	0.04109
2833.83449	0.04107
2832.54873	0.04088
2831.26296	0.04046
2829.97719	0.03986
2828.69142	0.03930
2827.40565	0.03895
2826.11988	0.03887
2824.83411	0.03894
2823.54834	0.03891
2822.26257	0.03862
2820.97681	0.03811
2819.69104	0.03763
2818.40527	0.03732
2817.11950	0.03717
2815.83373	0.03713
2814.54796	0.03720
2813.26219	0.03739
2811.97642	0.03761
2810.69066	0.03767
2809.40489	0.03748
2808.11912	0.03719
2806.83335	0.03705
2805.54758	0.03721
2804.26181	0.03751
2802.97604	0.03766
2801.69027	0.03753
2800.40450	0.03720
2799.11874	0.03683
2797.83297	0.03651
2796.54720	0.03622
2795.26143	0.03597
2793.97566	0.03581
2792.68989	0.03588
2791.40412	0.03615
2790.11835	0.03637
2788.83259	0.03627
2787.54682	0.03588
2786.26105	0.03554
2784.97528	0.03554
2783.68951	0.03578
2782.40374	0.03595
2781.11797	0.03586
2779.83220	0.03563
2778.54643	0.03545
2777.26067	0.03532
2775.97490	0.03516
2774.68913	0.03492
2773.40336	0.03473
2772.11759	0.03473
2770.83182	0.03496
2769.54605	0.03532
2768.26028	0.03568
2766.97452	0.03590
2765.68875	0.03590
2764.40298	0.03565
2763.11721	0.03522
2761.83144	0.03478
2760.54567	0.03449
2759.25990	0.03445
2757.97413	0.03460
2756.68836	0.03481
2755.40260	0.03497
2754.11683	0.03497
2752.83106	0.03481
2751.54529	0.03462
2750.25952	0.03458
2748.97375	0.03478
2747.68798	0.03503
2746.40221	0.03512
2745.11645	0.03497
2743.83068	0.03472
2742.54491	0.03457
2741.25914	0.03462
2739.97337	0.03480
2738.68760	0.03497
2737.40183	0.03497
2736.11606	0.03477
2734.83029	0.03444
2733.54453	0.03412
2732.25876	0.03390
2730.97299	0.03380
2729.68722	0.03385
2728.40145	0.03409
2727.11568	0.03442
2725.82991	0.03461
2724.54414	0.03455
2723.25838	0.03431
2721.97261	0.03403
2720.68684	0.03384
2719.40107	0.03376
2718.11530	0.03374
2716.82953	0.03364
2715.54376	0.03332
2714.25799	0.03284
2712.97222	0.03242
2711.68646	0.03225
2710.40069	0.03237
2709.11492	0.03266
2707.82915	0.03294
2706.54338	0.03307
2705.25761	0.03307
2703.97184	0.03305
2702.68607	0.03304
2701.40031	0.03300
2700.11454	0.03290
2698.82877	0.03278
2697.54300	0.03269
2696.25723	0.03263
2694.97146	0.03265
2693.68569	0.03276
2692.39992	0.03290
2691.11415	0.03296
2689.82839	0.03282
2688.54262	0.03250
2687.25685	0.03213
2685.97108	0.03187
2684.68531	0.03183
2683.39954	0.03202
2682.11377	0.03233
2680.82800	0.03263
2679.54224	0.03281
2678.25647	0.03284
2676.97070	0.03280
2675.68493	0.03277
2674.39916	0.03276
2673.11339	0.03268
2671.82762	0.03251
2670.54185	0.03232
2669.25608	0.03223
2667.97032	0.03224
2666.68455	0.03232
2665.39878	0.03241
2664.11301	0.03243
2662.82724	0.03231
2661.54147	0.03204
2660.25570	0.03165
2658.96993	0.03125
2657.68417	0.03095
2656.39840	0.03086
2655.11263	0.03097
2653.82686	0.03113
2652.54109	0.03123
2651.25532	0.03131
2649.96955	0.03150
2648.68378	0.03168
2647.39801	0.03162
2646.11225	0.03128
2644.82648	0.03084
2643.54071	0.03052
2642.25494	0.03035
2640.96917	0.03024
2639.68340	0.03012
2638.39763	0.03000
2637.11186	0.02994
2635.82609	0.02997
2634.54033	0.03007
2633.25456	0.03010
2631.96879	0.02985
2630.68302	0.02935
2629.39725	0.02885
2628.11148	0.02868
2626.82571	0.02886
2625.53994	0.02913
2624.25418	0.02927
2622.96841	0.02928
2621.68264	0.02925
2620.39687	0.02916
2619.11110	0.02900
2617.82533	0.02882
2616.53956	0.02874
2615.25379	0.02868
2613.96802	0.02846
2612.68226	0.02808
2611.39649	0.02778
2610.11072	0.02778
2608.82495	0.02793
2607.53918	0.02784
2606.25341	0.02725
2604.96764	0.02629
2603.68187	0.02543
2602.39611	0.02518
2601.11034	0.02570
2599.82457	0.02667
2598.53880	0.02748
2597.25303	0.02777
2595.96726	0.02760
2594.68149	0.02725
2593.39572	0.02683
2592.10995	0.02636
2590.82419	0.02588
2589.53842	0.02564
2588.25265	0.02591
2586.96688	0.02663
2585.68111	0.02730
2584.39534	0.02740
2583.10957	0.02694
2581.82380	0.02642
2580.53804	0.02618
2579.25227	0.02611
2577.96650	0.02591
2576.68073	0.02559
2575.39496	0.02548
2574.10919	0.02573
2572.82342	0.02607
2571.53765	0.02611
2570.25188	0.02585
2568.96612	0.02565
2567.68035	0.02571
2566.39458	0.02590
2565.10881	0.02596
2563.82304	0.02580
2562.53727	0.02543
2561.25150	0.02496
2559.96573	0.02456
2558.67997	0.02437
2557.39420	0.02436
2556.10843	0.02445
2554.82266	0.02469
2553.53689	0.02516
2552.25112	0.02581
2550.96535	0.02635
2549.67958	0.02653
2548.39381	0.02629
2547.10805	0.02586
2545.82228	0.02552
2544.53651	0.02543
2543.25074	0.02547
2541.96497	0.02547
2540.67920	0.02543
2539.39343	0.02544
2538.10766	0.02553
2536.82190	0.02561
2535.53613	0.02553
2534.25036	0.02525
2532.96459	0.02485
2531.67882	0.02451
2530.39305	0.02437
2529.10728	0.02442
2527.82151	0.02456
2526.53574	0.02473
2525.24998	0.02484
2523.96421	0.02479
2522.67844	0.02451
2521.39267	0.02416
2520.10690	0.02404
2518.82113	0.02431
2517.53536	0.02470
2516.24959	0.02483
2514.96383	0.02453
2513.67806	0.02403
2512.39229	0.02363
2511.10652	0.02346
2509.82075	0.02352
2508.53498	0.02372
2507.24921	0.02395
2505.96344	0.02415
2504.67767	0.02431
2503.39191	0.02445
2502.10614	0.02452
2500.82037	0.02447
2499.53460	0.02425
2498.24883	0.02394
2496.96306	0.02376
2495.67729	0.02387
2494.39152	0.02423
2493.10576	0.02458
2491.81999	0.02469
2490.53422	0.02459
2489.24845	0.02448
2487.96268	0.02445
2486.67691	0.02441
2485.39114	0.02424
2484.10537	0.02396
2482.81960	0.02374
2481.53384	0.02364
2480.24807	0.02361
2478.96230	0.02355
2477.67653	0.02355
2476.39076	0.02374
2475.10499	0.02413
2473.81922	0.02460
2472.53345	0.02509
2471.24769	0.02549
2469.96192	0.02562
2468.67615	0.02536
2467.39038	0.02484
2466.10461	0.02439
2464.81884	0.02423
2463.53307	0.02425
2462.24730	0.02417
2460.96153	0.02388
2459.67577	0.02348
2458.39000	0.02311
2457.10423	0.02290
2455.81846	0.02292
2454.53269	0.02318
2453.24692	0.02352
2451.96115	0.02363
2450.67538	0.02343
2449.38962	0.02315
2448.10385	0.02305
2446.81808	0.02310
2445.53231	0.02311
2444.24654	0.02296
2442.96077	0.02272
2441.67500	0.02260
2440.38923	0.02271
2439.10346	0.02298
2437.81770	0.02317
2436.53193	0.02314
2435.24616	0.02296
2433.96039	0.02278
2432.67462	0.02267
2431.38885	0.02266
2430.10308	0.02278
2428.81731	0.02295
2427.53155	0.02297
2426.24578	0.02280
2424.96001	0.02256
2423.67424	0.02238
2422.38847	0.02235
2421.10270	0.02245
2419.81693	0.02259
2418.53116	0.02264
2417.24539	0.02259
2415.95963	0.02258
2414.67386	0.02274
2413.38809	0.02294
2412.10232	0.02300
2410.81655	0.02290
2409.53078	0.02277
2408.24501	0.02273
2406.95924	0.02270
2405.67347	0.02258
2404.38771	0.02238
2403.10194	0.02229
2401.81617	0.02242
2400.53040	0.02274
2399.24463	0.02306
2397.95886	0.02319
2396.67309	0.02302
2395.38732	0.02263
2394.10156	0.02223
2392.81579	0.02197
2391.53002	0.02187
2390.24425	0.02186
2388.95848	0.02195
2387.67271	0.02217
2386.38694	0.02254
2385.10117	0.02304
2383.81540	0.02356
2382.52964	0.02390
2381.24387	0.02385
2379.95810	0.02335
2378.67233	0.02262
2377.38656	0.02196
2376.10079	0.02160
2374.81502	0.02165
2373.52925	0.02191
2372.24349	0.02227
2370.95772	0.02259
2369.67195	0.02304
2368.38618	0.02354
2367.10041	0.02389
2365.81464	0.02389
2364.52887	0.02393
2363.24310	0.02401
2361.95733	0.02397
2360.67157	0.02363
2359.38580	0.02351
2358.10003	0.02359
2356.81426	0.02379
2355.52849	0.02404
2354.24272	0.02424
2352.95695	0.02436
2351.67118	0.02403
2350.38542	0.02335
2349.09965	0.02303
2347.81388	0.02342
2346.52811	0.02368
2345.24234	0.02368
2343.95657	0.02405
2342.67080	0.02488
2341.38503	0.02479
2340.09926	0.02357
2338.81350	0.02301
2337.52773	0.02349
2336.24196	0.02316
2334.95619	0.02218
2333.67042	0.02253
2332.38465	0.02380
2331.09888	0.02334
2329.81311	0.02283
2328.52735	0.02431
2327.24158	0.02439
2325.95581	0.02354
2324.67004	0.02421
2323.38427	0.02414
2322.09850	0.02305
2320.81273	0.02355
2319.52696	0.02353
2318.24119	0.02310
2316.95543	0.02372
2315.66966	0.02369
2314.38389	0.02336
2313.09812	0.02350
2311.81235	0.02310
2310.52658	0.02285
2309.24081	0.02252
2307.95504	0.02180
2306.66928	0.02139
2305.38351	0.02097
2304.09774	0.02079
2302.81197	0.02094
2301.52620	0.02110
2300.24043	0.02140
2298.95466	0.02159
2297.66889	0.02171
2296.38312	0.02178
2295.09736	0.02173
2293.81159	0.02159
2292.52582	0.02127
2291.24005	0.02095
2289.95428	0.02076
2288.66851	0.02076
2287.38274	0.02085
2286.09697	0.02081
2284.81121	0.02053
2283.52544	0.02007
2282.23967	0.01966
2280.95390	0.01958
2279.66813	0.01988
2278.38236	0.02023
2277.09659	0.02018
2275.81082	0.01957
2274.52505	0.01869
2273.23929	0.01798
2271.95352	0.01770
2270.66775	0.01772
2269.38198	0.01782
2268.09621	0.01791
2266.81044	0.01795
2265.52467	0.01798
2264.23890	0.01806
2262.95314	0.01820
2261.66737	0.01831
2260.38160	0.01829
2259.09583	0.01802
2257.81006	0.01753
2256.52429	0.01699
2255.23852	0.01659
2253.95275	0.01635
2252.66698	0.01628
2251.38122	0.01640
2250.09545	0.01665
2248.80968	0.01691
2247.52391	0.01701
2246.23814	0.01674
2244.95237	0.01620
2243.66660	0.01576
2242.38083	0.01576
2241.09507	0.01610
2239.80930	0.01639
2238.52353	0.01637
2237.23776	0.01613
2235.95199	0.01578
2234.66622	0.01532
2233.38045	0.01481
2232.09468	0.01462
2230.80891	0.01510
2229.52315	0.01605
2228.23738	0.01677
2226.95161	0.01669
2225.66584	0.01598
2224.38007	0.01532
2223.09430	0.01515
2221.80853	0.01531
2220.52276	0.01534
2219.23700	0.01504
2217.95123	0.01458
2216.66546	0.01423
2215.37969	0.01416
2214.09392	0.01429
2212.80815	0.01436
2211.52238	0.01409
2210.23661	0.01338
2208.95084	0.01242
2207.66508	0.01167
2206.37931	0.01155
2205.09354	0.01199
2203.80777	0.01249
2202.52200	0.01272
2201.23623	0.01277
2199.95046	0.01291
2198.66469	0.01310
2197.37893	0.01301
2196.09316	0.01243
2194.80739	0.01145
2193.52162	0.01052
2192.23585	0.01023
2190.95008	0.01085
2189.66431	0.01201
2188.37854	0.01278
2187.09277	0.01237
2185.80701	0.01076
2184.52124	0.00887
2183.23547	0.00786
2181.94970	0.00826
2180.66393	0.00948
2179.37816	0.01039
2178.09239	0.01037
2176.80662	0.00978
2175.52085	0.00943
2174.23509	0.00976
2172.94932	0.01049
2171.66355	0.01081
2170.37778	0.00997
2169.09201	0.00787
2167.80624	0.00530
2166.52047	0.00345
2165.23470	0.00304
2163.94894	0.00379
2162.66317	0.00480
2161.37740	0.00535
2160.09163	0.00544
2158.80586	0.00559
2157.52009	0.00620
2156.23432	0.00720
2154.94855	0.00829
2153.66278	0.00924
2152.37702	0.00982
2151.09125	0.00980
2149.80548	0.00917
2148.51971	0.00822
2147.23394	0.00749
2145.94817	0.00737
2144.66240	0.00784
2143.37663	0.00852
2142.09087	0.00910
2140.80510	0.00952
2139.51933	0.00983
2138.23356	0.01002
2136.94779	0.01004
2135.66202	0.00986
2134.37625	0.00957
2133.09048	0.00951
2131.80471	0.01000
2130.51895	0.01094
2129.23318	0.01167
2127.94741	0.01164
2126.66164	0.01104
2125.37587	0.01062
2124.09010	0.01078
2122.80433	0.01129
2121.51856	0.01180
2120.23280	0.01224
2118.94703	0.01271
2117.66126	0.01316
2116.37549	0.01354
2115.08972	0.01391
2113.80395	0.01427
2112.51818	0.01438
2111.23241	0.01403
2109.94664	0.01325
2108.66088	0.01232
2107.37511	0.01155
2106.08934	0.01111
2104.80357	0.01101
2103.51780	0.01114
2102.23203	0.01132
2100.94626	0.01147
2099.66049	0.01285
2098.37473	0.01340
2097.08896	0.01310
2095.80319	0.01250
2094.51742	0.01188
2093.23165	0.01148
2091.94588	0.01143
2090.66011	0.01156
2089.37434	0.01156
2088.08857	0.01132
2086.80281	0.01103
2085.51704	0.01091
2084.23127	0.01099
2082.94550	0.01113
2081.65973	0.01114
2080.37396	0.01097
2079.08819	0.01073
2077.80242	0.01060
2076.51666	0.01064
2075.23089	0.01074
2073.94512	0.01075
2072.65935	0.01066
2071.37358	0.01070
2070.08781	0.01105
2068.80204	0.01158
2067.51627	0.01195
2066.23050	0.01195
2064.94474	0.01164
2063.65897	0.01118
2062.37320	0.01067
2061.08743	0.01013
2059.80166	0.00960
2058.51589	0.00916
2057.23012	0.00888
2055.94435	0.00871
2054.65859	0.00857
2053.37282	0.00844
2052.08705	0.00838
2050.80128	0.00848
2049.51551	0.00864
2048.22974	0.00864
2046.94397	0.00831
2045.65820	0.00772
2044.37243	0.00711
2043.08667	0.00680
2041.80090	0.00706
2040.51513	0.00792
2039.22936	0.00901
2037.94359	0.00966
2036.65782	0.00935
2035.37205	0.00809
2034.08628	0.00639
2032.80052	0.00500
2031.51475	0.00443
2030.22898	0.00467
2028.94321	0.00529
2027.65744	0.00585
2026.37167	0.00626
2025.08590	0.00672
2023.80013	0.00735
2022.51436	0.00797
2021.22860	0.00823
2019.94283	0.00798
2018.65706	0.00746
2017.37129	0.00718
2016.08552	0.00738
2014.79975	0.00775
2013.51398	0.00774
2012.22821	0.00733
2010.94245	0.00707
2009.65668	0.00743
2008.37091	0.00835
2007.08514	0.00938
2005.79937	0.01002
2004.51360	0.00991
2003.22783	0.00892
2001.94206	0.00739
2000.65629	0.00600
1999.37053	0.00532
1998.08476	0.00542
1996.79899	0.00600
1995.51322	0.00670
1994.22745	0.00735
1992.94168	0.00792
1991.65591	0.00843
1990.37014	0.00891
1989.08438	0.00921
1987.79861	0.00908
1986.51284	0.00842
1985.22707	0.00760
1983.94130	0.00734
1982.65553	0.00822
1981.36976	0.01021
1980.08399	0.01262
1978.79822	0.01437
1977.51246	0.01466
1976.22669	0.01354
1974.94092	0.01184
1973.65515	0.01055
1972.36938	0.01005
1971.08361	0.01013
1969.79784	0.01033
1968.51207	0.01037
1967.22631	0.01033
1965.94054	0.01049
1964.65477	0.01098
1963.36900	0.01163
1962.08323	0.01221
1960.79746	0.01267
1959.51169	0.01302
1958.22592	0.01315
1956.94015	0.01288
1955.65439	0.01230
1954.36862	0.01178
1953.08285	0.01157
1951.79708	0.01164
1950.51131	0.01177
1949.22554	0.01190
1947.93977	0.01210
1946.65400	0.01239
1945.36823	0.01260
1944.08247	0.01265
1942.79670	0.01259
1941.51093	0.01255
1940.22516	0.01254
1938.93939	0.01253
1937.65362	0.01247
1936.36785	0.01241
1935.08208	0.01249
1933.79632	0.01284
1932.51055	0.01340
1931.22478	0.01393
1929.93901	0.01415
1928.65324	0.01397
1927.36747	0.01353
1926.08170	0.01308
1924.79593	0.01282
1923.51016	0.01278
1922.22440	0.01289
1920.93863	0.01311
1919.65286	0.01340
1918.36709	0.01366
1917.08132	0.01375
1915.79555	0.01366
1914.50978	0.01358
1913.22401	0.01373
1911.93825	0.01414
1910.65248	0.01467
1909.36671	0.01506
1908.08094	0.01515
1906.79517	0.01490
1905.50940	0.01449
1904.22363	0.01410
1902.93786	0.01384
1901.65209	0.01376
1900.36633	0.01388
1899.08056	0.01417
1897.79479	0.01447
1896.50902	0.01456
1895.22325	0.01438
1893.93748	0.01409
1892.65171	0.01397
1891.36594	0.01412
1890.08018	0.01439
1888.79441	0.01456
1887.50864	0.01456
1886.22287	0.01442
1884.93710	0.01424
1883.65133	0.01408
1882.36556	0.01393
1881.07979	0.01377
1879.79402	0.01362
1878.50826	0.01360
1877.22249	0.01380
1875.93672	0.01416
1874.65095	0.01454
1873.36518	0.01482
1872.07941	0.01499
1870.79364	0.01501
1869.50787	0.01488
1868.22211	0.01471
1866.93634	0.01469
1865.65057	0.01487
1864.36480	0.01509
1863.07903	0.01514
1861.79326	0.01501
1860.50749	0.01486
1859.22172	0.01484
1857.93595	0.01490
1856.65019	0.01490
1855.36442	0.01477
1854.07865	0.01459
1852.79288	0.01445
1851.50711	0.01438
1850.22134	0.01436
1848.93557	0.01441
1847.64980	0.01453
1846.36404	0.01465
1845.07827	0.01462
1843.79250	0.01438
1842.50673	0.01404
1841.22096	0.01383
1839.93519	0.01384
1838.64942	0.01402
1837.36365	0.01423
1836.07788	0.01439
1834.79212	0.01450
1833.50635	0.01463
1832.22058	0.01486
1830.93481	0.01518
1829.64904	0.01548
1828.36327	0.01565
1827.07750	0.01568
1825.79173	0.01569
1824.50597	0.01577
1823.22020	0.01594
1821.93443	0.01615
1820.64866	0.01628
1819.36289	0.01621
1818.07712	0.01585
1816.79135	0.01527
1815.50558	0.01467
1814.21981	0.01427
1812.93405	0.01413
1811.64828	0.01416
1810.36251	0.01425
1809.07674	0.01429
1807.79097	0.01428
1806.50520	0.01424
1805.21943	0.01427
1803.93366	0.01443
1802.64790	0.01465
1801.36213	0.01483
1800.07636	0.01488
1798.79059	0.01484
1797.50482	0.01476
1796.21905	0.01470
1794.93328	0.01470
1793.64751	0.01475
1792.36174	0.01482
1791.07598	0.01491
1789.79021	0.01504
1788.50444	0.01522
1787.21867	0.01536
1785.93290	0.01538
1784.64713	0.01529
1783.36136	0.01518
1782.07559	0.01514
1780.78983	0.01516
1779.50406	0.01518
1778.21829	0.01515
1776.93252	0.01513
1775.64675	0.01519
1774.36098	0.01534
1773.07521	0.01550
1771.78944	0.01558
1770.50367	0.01557
1769.21791	0.01551
1767.93214	0.01546
1766.64637	0.01541
1765.36060	0.01533
1764.07483	0.01526
1762.78906	0.01523
1761.50329	0.01524
1760.21752	0.01530
1758.93176	0.01542
1757.64599	0.01558
1756.36022	0.01573
1755.07445	0.01582
1753.78868	0.01585
1752.50291	0.01586
1751.21714	0.01585
1749.93137	0.01582
1748.64560	0.01580
1747.35984	0.01580
1746.07407	0.01584
1744.78830	0.01587
1743.50253	0.01586
1742.21676	0.01583
1740.93099	0.01584
1739.64522	0.01592
1738.35945	0.01610
1737.07369	0.01641
1735.78792	0.01681
1734.50215	0.01717
1733.21638	0.01734
1731.93061	0.01728
1730.64484	0.01712
1729.35907	0.01699
1728.07330	0.01694
1726.78753	0.01696
1725.50177	0.01702
1724.21600	0.01708
1722.93023	0.01720
1721.64446	0.01741
1720.35869	0.01775
1719.07292	0.01814
1717.78715	0.01847
1716.50138	0.01867
1715.21561	0.01874
1713.92985	0.01880
1712.64408	0.01894
1711.35831	0.01919
1710.07254	0.01950
1708.78677	0.01982
1707.50100	0.02013
1706.21523	0.02044
1704.92946	0.02080
1703.64370	0.02124
1702.35793	0.02179
1701.07216	0.02236
1699.78639	0.02284
1698.50062	0.02318
1697.21485	0.02334
1695.92908	0.02333
1694.64331	0.02318
1693.35754	0.02304
1692.07178	0.02304
1690.78601	0.02328
1689.50024	0.02371
1688.21447	0.02429
1686.92870	0.02493
1685.64293	0.02547
1684.35716	0.02575
1683.07139	0.02575
1681.78563	0.02563
1680.49986	0.02562
1679.21409	0.02584
1677.92832	0.02625
1676.64255	0.02671
1675.35678	0.02711
1674.07101	0.02741
1672.78524	0.02766
1671.49947	0.02789
1670.21371	0.02809
1668.92794	0.02820
1667.64217	0.02824
1666.35640	0.02832
1665.07063	0.02856
1663.78486	0.02892
1662.49909	0.02926
1661.21332	0.02944
1659.92756	0.02951
1658.64179	0.02965
1657.35602	0.03005
1656.07025	0.03072
1654.78448	0.03145
1653.49871	0.03192
1652.21294	0.03198
1650.92717	0.03179
1649.64140	0.03161
1648.35564	0.03160
1647.06987	0.03168
1645.78410	0.03168
1644.49833	0.03158
1643.21256	0.03146
1641.92679	0.03145
1640.64102	0.03155
1639.35525	0.03172
1638.06949	0.03189
1636.78372	0.03198
1635.49795	0.03194
1634.21218	0.03176
1632.92641	0.03155
1631.64064	0.03141
1630.35487	0.03138
1629.06910	0.03142
1627.78333	0.03148
1626.49757	0.03158
1625.21180	0.03170
1623.92603	0.03182
1622.64026	0.03191
1621.35449	0.03201
1620.06872	0.03221
1618.78295	0.03250
1617.49718	0.03279
1616.21142	0.03297
1614.92565	0.03301
1613.63988	0.03299
1612.35411	0.03299
1611.06834	0.03305
1609.78257	0.03319
1608.49680	0.03339
1607.21103	0.03364
1605.92526	0.03389
1604.63950	0.03416
1603.35373	0.03444
1602.06796	0.03473
1600.78219	0.03497
1599.49642	0.03513
1598.21065	0.03523
1596.92488	0.03533
1595.63911	0.03549
1594.35335	0.03571
1593.06758	0.03598
1591.78181	0.03627
1590.49604	0.03657
1589.21027	0.03684
1587.92450	0.03707
1586.63873	0.03724
1585.35296	0.03737
1584.06719	0.03754
1582.78143	0.03777
1581.49566	0.03805
1580.20989	0.03835
1578.92412	0.03868
1577.63835	0.03905
1576.35258	0.03939
1575.06681	0.03966
1573.78104	0.03988
1572.49528	0.04013
1571.20951	0.04044
1569.92374	0.04076
1568.63797	0.04100
1567.35220	0.04114
1566.06643	0.04123
1564.78066	0.04137
1563.49489	0.04165
1562.20912	0.04209
1560.92336	0.04262
1559.63759	0.04307
1558.35182	0.04325
1557.06605	0.04315
1555.78028	0.04291
1554.49451	0.04271
1553.20874	0.04263
1551.92297	0.04263
1550.63721	0.04265
1549.35144	0.04264
1548.06567	0.04261
1546.77990	0.04260
1545.49413	0.04262
1544.20836	0.04265
1542.92259	0.04265
1541.63682	0.04255
1540.35105	0.04230
1539.06529	0.04188
1537.77952	0.04139
1536.49375	0.04098
1535.20798	0.04073
1533.92221	0.04063
1532.63644	0.04058
1531.35067	0.04058
1530.06490	0.04067
1528.77914	0.04088
1527.49337	0.04119
1526.20760	0.04155
1524.92183	0.04196
1523.63606	0.04244
1522.35029	0.04296
1521.06452	0.04348
1519.77875	0.04402
1518.49298	0.04463
1517.20722	0.04538
1515.92145	0.04620
1514.63568	0.04706
1513.34991	0.04792
1512.06414	0.04885
1510.77837	0.04992
1509.49260	0.05115
1508.20683	0.05246
1506.92107	0.05369
1505.63530	0.05471
1504.34953	0.05553
1503.06376	0.05629
1501.77799	0.05713
1500.49222	0.05806
1499.20645	0.05900
1497.92068	0.05986
1496.63491	0.06061
1495.34915	0.06125
1494.06338	0.06181
1492.77761	0.06238
1491.49184	0.06298
1490.20607	0.06366
1488.92030	0.06441
1487.63453	0.06522
1486.34876	0.06607
1485.06299	0.06696
1483.77723	0.06791
1482.49146	0.06895
1481.20569	0.07003
1479.91992	0.07111
1478.63415	0.07218
1477.34838	0.07326
1476.06261	0.07435
1474.77684	0.07542
1473.49108	0.07637
1472.20531	0.07712
1470.91954	0.07769
1469.63377	0.07816
1468.34800	0.07861
1467.06223	0.07907
1465.77646	0.07952
1464.49069	0.07992
1463.20492	0.08026
1461.91916	0.08063
1460.63339	0.08114
1459.34762	0.08185
1458.06185	0.08271
1456.77608	0.08352
1455.49031	0.08413
1454.20454	0.08451
1452.91877	0.08476
1451.63301	0.08498
1450.34724	0.08519
1449.06147	0.08536
1447.77570	0.08546
1446.48993	0.08547
1445.20416	0.08535
1443.91839	0.08510
1442.63262	0.08474
1441.34685	0.08437
1440.06109	0.08404
1438.77532	0.08382
1437.48955	0.08369
1436.20378	0.08365
1434.91801	0.08372
1433.63224	0.08397
1432.34647	0.08445
1431.06070	0.08516
1429.77494	0.08604
1428.48917	0.08705
1427.20340	0.08817
1425.91763	0.08942
1424.63186	0.09077
1423.34609	0.09214
1422.06032	0.09350
1420.77455	0.09480
1419.48878	0.09595
1418.20302	0.09688
1416.91725	0.09754
1415.63148	0.09797
1414.34571	0.09821
1413.05994	0.09828
1411.77417	0.09820
1410.48840	0.09797
1409.20263	0.09756
1407.91687	0.09694
1406.63110	0.09606
1405.34533	0.09496
1404.05956	0.09366
1402.77379	0.09224
1401.48802	0.09071
1400.20225	0.08904
1398.91648	0.08724
1397.63071	0.08532
1396.34495	0.08334
1395.05918	0.08136
1393.77341	0.07940
1392.48764	0.07746
1391.20187	0.07556
1389.91610	0.07368
1388.63033	0.07183
1387.34456	0.07002
1386.05880	0.06825
1384.77303	0.06651
1383.48726	0.06480
1382.20149	0.06314
1380.91572	0.06155
1379.62995	0.06001
1378.34418	0.05846
1377.05841	0.05681
1375.77264	0.05504
1374.48688	0.05322
1373.20111	0.05143
1371.91534	0.04974
1370.62957	0.04815
1369.34380	0.04664
1368.05803	0.04520
1366.77226	0.04389
1365.48649	0.04271
1364.20073	0.04162
1362.91496	0.04055
1361.62919	0.03945
1360.34342	0.03836
1359.05765	0.03735
1357.77188	0.03647
1356.48611	0.03569
1355.20034	0.03494
1353.91457	0.03419
1352.62881	0.03346
1351.34304	0.03279
1350.05727	0.03218
1348.77150	0.03161
1347.48573	0.03106
1346.19996	0.03054
1344.91419	0.03006
1343.62842	0.02963
1342.34266	0.02923
1341.05689	0.02886
1339.77112	0.02848
1338.48535	0.02811
1337.19958	0.02778
1335.91381	0.02750
1334.62804	0.02727
1333.34227	0.02705
1332.05650	0.02680
1330.77074	0.02649
1329.48497	0.02614
1328.19920	0.02579
1326.91343	0.02549
1325.62766	0.02526
1324.34189	0.02509
1323.05612	0.02495
1321.77035	0.02480
1320.48459	0.02463
1319.19882	0.02443
1317.91305	0.02422
1316.62728	0.02401
1315.34151	0.02379
1314.05574	0.02359
1312.76997	0.02341
1311.48420	0.02325
1310.19843	0.02310
1308.91267	0.02298
1307.62690	0.02287
1306.34113	0.02278
1305.05536	0.02267
1303.76959	0.02254
1302.48382	0.02237
1301.19805	0.02220
1299.91228	0.02202
1298.62652	0.02185
1297.34075	0.02169
1296.05498	0.02156
1294.76921	0.02146
1293.48344	0.02139
1292.19767	0.02131
1290.91190	0.02122
1289.62613	0.02110
1288.34036	0.02097
1287.05460	0.02083
1285.76883	0.02070
1284.48306	0.02056
1283.19729	0.02042
1281.91152	0.02028
1280.62575	0.02016
1279.33998	0.02009
1278.05421	0.02005
1276.76845	0.02002
1275.48268	0.01997
1274.19691	0.01988
1272.91114	0.01978
1271.62537	0.01967
1270.33960	0.01958
1269.05383	0.01949
1267.76806	0.01937
1266.48229	0.01925
1265.19653	0.01914
1263.91076	0.01907
1262.62499	0.01899
1261.33922	0.01889
1260.05345	0.01875
1258.76768	0.01864
1257.48191	0.01857
1256.19614	0.01855
1254.91037	0.01853
1253.62461	0.01849
1252.33884	0.01843
1251.05307	0.01838
1249.76730	0.01835
1248.48153	0.01832
1247.19576	0.01824
1245.90999	0.01812
1244.62422	0.01798
1243.33846	0.01786
1242.05269	0.01778
1240.76692	0.01773
1239.48115	0.01771
1238.19538	0.01769
1236.90961	0.01767
1235.62384	0.01763
1234.33807	0.01756
1233.05230	0.01746
1231.76654	0.01734
1230.48077	0.01722
1229.19500	0.01711
1227.90923	0.01703
1226.62346	0.01700
1225.33769	0.01698
1224.05192	0.01695
1222.76615	0.01690
1221.48039	0.01687
1220.19462	0.01685
1218.90885	0.01686
1217.62308	0.01686
1216.33731	0.01686
1215.05154	0.01687
1213.76577	0.01687
1212.48000	0.01687
1211.19423	0.01685
1209.90847	0.01682
1208.62270	0.01681
1207.33693	0.01684
1206.05116	0.01692
1204.76539	0.01702
1203.47962	0.01711
1202.19385	0.01717
1200.90808	0.01713
1199.62232	0.01697
1198.33655	0.01703
1197.05078	0.01712
1195.76501	0.01718
1194.47924	0.01721
1193.19347	0.01720
1191.90770	0.01716
1190.62193	0.01709
1189.33616	0.01704
1188.05040	0.01704
1186.76463	0.01711
1185.47886	0.01720
1184.19309	0.01729
1182.90732	0.01733
1181.62155	0.01735
1180.33578	0.01735
1179.05001	0.01733
1177.76425	0.01731
1176.47848	0.01732
1175.19271	0.01737
1173.90694	0.01744
1172.62117	0.01751
1171.33540	0.01757
1170.04963	0.01763
1168.76386	0.01773
1167.47809	0.01786
1166.19233	0.01801
1164.90656	0.01815
1163.62079	0.01826
1162.33502	0.01835
1161.04925	0.01847
1159.76348	0.01861
1158.47771	0.01874
1157.19194	0.01885
1155.90618	0.01901
1154.62041	0.01925
1153.33464	0.01954
1152.04887	0.01987
1150.76310	0.02022
1149.47733	0.02063
1148.19156	0.02112
1146.90579	0.02166
1145.62002	0.02222
1144.33426	0.02276
1143.04849	0.02328
1141.76272	0.02388
1140.47695	0.02464
1139.19118	0.02556
1137.90541	0.02660
1136.61964	0.02774
1135.33387	0.02902
1134.04811	0.03045
1132.76234	0.03202
1131.47657	0.03373
1130.19080	0.03559
1128.90503	0.03770
1127.61926	0.04010
1126.33349	0.04277
1125.04772	0.04563
1123.76195	0.04868
1122.47619	0.05191
1121.19042	0.05524
1119.90465	0.05857
1118.61888	0.06185
1117.33311	0.06517
1116.04734	0.06859
1114.76157	0.07210
1113.47580	0.07560
1112.19004	0.07903
1110.90427	0.08241
1109.61850	0.08573
1108.33273	0.08899
1107.04696	0.09217
1105.76119	0.09529
1104.47542	0.09838
1103.18965	0.10142
1101.90388	0.10440
1100.61812	0.10727
1099.33235	0.10998
1098.04658	0.11248
1096.76081	0.11480
1095.47504	0.11699
1094.18927	0.11914
1092.90350	0.12130
1091.61773	0.12342
1090.33197	0.12542
1089.04620	0.12728
1087.76043	0.12906
1086.47466	0.13085
1085.18889	0.13263
1083.90312	0.13444
1082.61735	0.13634
1081.33158	0.13839
1080.04581	0.14062
1078.76005	0.14302
1077.47428	0.14561
1076.18851	0.14842
1074.90274	0.15144
1073.61697	0.15465
1072.33120	0.15802
1071.04543	0.16148
1069.75966	0.16500
1068.47390	0.16856
1067.18813	0.17221
1065.90236	0.17593
1064.61659	0.17971
1063.33082	0.18352
1062.04505	0.18734
1060.75928	0.19118
1059.47351	0.19507
1058.18774	0.19902
1056.90198	0.20298
1055.61621	0.20685
1054.33044	0.21060
1053.04467	0.21425
1051.75890	0.21790
1050.47313	0.22164
1049.18736	0.22549
1047.90159	0.22946
1046.61583	0.23354
1045.33006	0.23770
1044.04429	0.24188
1042.75852	0.24604
1041.47275	0.25020
1040.18698	0.25438
1038.90121	0.25860
1037.61544	0.26279
1036.32967	0.26691
1035.04391	0.27095
1033.75814	0.27491
1032.47237	0.27874
1031.18660	0.28231
1029.90083	0.28545
1028.61506	0.28811
1027.32929	0.29032
1026.04352	0.29208
1024.75775	0.29332
1023.47199	0.29397
1022.18622	0.29401
1020.90045	0.29347
1019.61468	0.29240
1018.32891	0.29081
1017.04314	0.28861
1015.75737	0.28569
1014.47160	0.28197
1013.18584	0.27750
1011.90007	0.27234
1010.61430	0.26661
1009.32853	0.26040
1008.04276	0.25374
1006.75699	0.24659
1005.47122	0.23891
1004.18545	0.23079
1002.89968	0.22240
1001.61392	0.21386
1000.32815	0.20522
999.04238	0.19647
997.75661	0.18768
996.47084	0.17894
995.18507	0.17038
993.89930	0.16207
992.61353	0.15408
991.32777	0.14653
990.04200	0.13945
988.75623	0.13283
987.47046	0.12657
986.18469	0.12066
984.89892	0.11515
983.61315	0.11007
982.32738	0.10537
981.04161	0.10093
979.75585	0.09675
978.47008	0.09288
977.18431	0.08945
975.89854	0.08655
974.61277	0.08422
973.32700	0.08243
972.04123	0.08113
970.75546	0.08029
969.46970	0.07992
968.18393	0.08007
966.89816	0.08073
965.61239	0.08181
964.32662	0.08312
963.04085	0.08441
961.75508	0.08543
960.46931	0.08590
959.18354	0.08559
957.89778	0.08442
956.61201	0.08252
955.32624	0.08015
954.04047	0.07760
952.75470	0.07508
951.46893	0.07268
950.18316	0.07038
948.89739	0.06813
947.61163	0.06589
946.32586	0.06372
945.04009	0.06170
943.75432	0.05985
942.46855	0.05811
941.18278	0.05644
939.89701	0.05487
938.61124	0.05344
937.32547	0.05214
936.03971	0.05094
934.75394	0.04978
933.46817	0.04866
932.18240	0.04760
930.89663	0.04659
929.61086	0.04566
928.32509	0.04483
927.03932	0.04409
925.75356	0.04339
924.46779	0.04276
923.18202	0.04220
921.89625	0.04171
920.61048	0.04119
919.32471	0.04061
918.03894	0.04003
916.75317	0.03953
915.46740	0.03916
914.18164	0.03884
912.89587	0.03850
911.61010	0.03811
910.32433	0.03772
909.03856	0.03737
907.75279	0.03707
906.46702	0.03676
905.18125	0.03642
903.89549	0.03606
902.60972	0.03572
901.32395	0.03546
900.03818	0.03526
898.75241	0.03507
897.46664	0.03489
896.18087	0.03479
894.89510	0.03478
893.60933	0.03481
892.32357	0.03479
891.03780	0.03474
889.75203	0.03481
888.46626	0.03512
887.18049	0.03582
885.89472	0.03704
884.60895	0.03889
883.32318	0.04141
882.03742	0.04434
880.75165	0.04720
879.46588	0.04951
878.18011	0.05111
876.89434	0.05232
875.60857	0.05356
874.32280	0.05496
873.03703	0.05626
871.75126	0.05701
870.46550	0.05690
869.17973	0.05595
867.89396	0.05429
866.60819	0.05212
865.32242	0.04964
864.03665	0.04710
862.75088	0.04473
861.46511	0.04264
860.17935	0.04081
858.89358	0.03922
857.60781	0.03791
856.32204	0.03692
855.03627	0.03621
853.75050	0.03569
852.46473	0.03523
851.17896	0.03474
849.89319	0.03423
848.60743	0.03373
847.32166	0.03331
846.03589	0.03301
844.75012	0.03278
843.46435	0.03254
842.17858	0.03226
840.89281	0.03196
839.60704	0.03170
838.32128	0.03151
837.03551	0.03138
835.74974	0.03125
834.46397	0.03108
833.17820	0.03086
831.89243	0.03058
830.60666	0.03023
829.32089	0.02988
828.03512	0.02964
826.74936	0.02959
825.46359	0.02970
824.17782	0.02986
822.89205	0.02995
821.60628	0.02991
820.32051	0.02977
819.03474	0.02964
817.74897	0.02959
816.46321	0.02963
815.17744	0.02968
813.89167	0.02969
812.60590	0.02961
811.32013	0.02945
810.03436	0.02926
808.74859	0.02910
807.46282	0.02902
806.17705	0.02899
804.89129	0.02896
803.60552	0.02889
802.31975	0.02879
801.03398	0.02871
799.74821	0.02869
798.46244	0.02869
797.17667	0.02870
795.89090	0.02868
794.60513	0.02861
793.31937	0.02848
792.03360	0.02837
790.74783	0.02833
789.46206	0.02835
788.17629	0.02836
786.89052	0.02830
785.60475	0.02817
784.31898	0.02801
783.03322	0.02790
781.74745	0.02790
780.46168	0.02798
779.17591	0.02807
777.89014	0.02807
776.60437	0.02798
775.31860	0.02788
774.03283	0.02784
772.74706	0.02787
771.46130	0.02789
770.17553	0.02782
768.88976	0.02770
767.60399	0.02761
766.31822	0.02761
765.03245	0.02765
763.74668	0.02771
762.46091	0.02780
761.17515	0.02797
759.88938	0.02817
758.60361	0.02832
757.31784	0.02833
756.03207	0.02822
754.74630	0.02809
753.46053	0.02801
752.17476	0.02794
750.88899	0.02783
749.60323	0.02768
748.31746	0.02755
747.03169	0.02748
745.74592	0.02745
744.46015	0.02742
743.17438	0.02737
741.88861	0.02729
740.60284	0.02721
739.31708	0.02714
738.03131	0.02710
736.74554	0.02711
735.45977	0.02719
734.17400	0.02727
732.88823	0.02726
731.60246	0.02715
730.31669	0.02701
729.03092	0.02692
727.74516	0.02695
726.45939	0.02706
725.17362	0.02717
723.88785	0.02729
722.60208	0.02744
721.31631	0.02762
720.03054	0.02778
718.74477	0.02784
717.45901	0.02780
716.17324	0.02769
714.88747	0.02756
713.60170	0.02746
712.31593	0.02738
711.03016	0.02734
709.74439	0.02735
708.45862	0.02737
707.17285	0.02737
705.88709	0.02735
704.60132	0.02730
703.31555	0.02726
702.02978	0.02722
700.74401	0.02720
699.45824	0.02722
698.17247	0.02725
696.88670	0.02725
695.60094	0.02721
694.31517	0.02715
693.02940	0.02711
691.74363	0.02710
690.45786	0.02711
689.17209	0.02709
687.88632	0.02704
686.60055	0.02697
685.31478	0.02690
684.02902	0.02688
682.74325	0.02689
681.45748	0.02689
680.17171	0.02686
678.88594	0.02682
677.60017	0.02683
676.31440	0.02690
675.02863	0.02700
673.74287	0.02708
672.45710	0.02709
671.17133	0.02702
669.88556	0.02702
668.59979	0.02743
667.31402	0.02772
666.02825	0.02745
664.74248	0.02743
663.45671	0.02729
662.17095	0.02702
660.88518	0.02681
659.59941	0.02669
658.31364	0.02668
657.02787	0.02674
655.74210	0.02684
654.45633	0.02693
653.17056	0.02698
651.88480	0.02701
650.59903	0.02705
649.31326	0.02715
648.02749	0.02727
646.74172	0.02740
645.45595	0.02751
644.17018	0.02763
642.88441	0.02780
641.59864	0.02802
640.31288	0.02823
639.02711	0.02840
637.74134	0.02856
636.45557	0.02871
635.16980	0.02890
633.88403	0.02911
632.59826	0.02934
631.31249	0.02978
630.02673	0.03121
628.74096	0.03312
627.45519	0.03244
626.16942	0.03466
624.88365	0.03898
623.59788	0.04358
622.31211	0.04799
621.02634	0.05196
619.74057	0.05495
618.45481	0.05645
617.16904	0.05649
615.88327	0.05608
614.59750	0.05675
613.31173	0.05950
612.02596	0.06419
610.74019	0.07015
609.45442	0.07701
608.16866	0.08467
606.88289	0.09261
605.59712	0.09987
604.31135	0.10546
603.02558	0.10862
601.73981	0.10907
600.45404	0.10718
599.16827	0.10375
597.88250	0.09959
596.59674	0.09526
595.31097	0.09108
594.02520	0.08731
592.73943	0.08427
591.45366	0.08214
590.16789	0.08094
588.88212	0.08057
587.59635	0.08092
586.31059	0.08191
585.02482	0.08347
583.73905	0.08550
582.45328	0.08793
581.16751	0.09071
579.88174	0.09380
578.59597	0.09708
577.31020	0.10040
576.02443	0.10359
574.73867	0.10660
573.45290	0.10951
572.16713	0.11252
570.88136	0.11581
569.59559	0.11956
568.30982	0.12381
567.02405	0.12845
565.73828	0.13313
564.45251	0.13719
563.16675	0.13983
561.88098	0.14043
560.59521	0.13866
559.30944	0.13459
558.02367	0.12859
556.73790	0.12121
555.45213	0.11310
554.16636	0.10490
552.88060	0.09714
551.59483	0.09012
550.30906	0.08391
549.02329	0.07844
547.73752	0.07361
546.45175	0.06935
545.16598	0.06562
543.88021	0.06233
542.59444	0.05940
541.30868	0.05676
540.02291	0.05443
538.73714	0.05239
537.45137	0.05059
536.16560	0.04895
534.87983	0.04744
533.59406	0.04606
532.30829	0.04480
531.02253	0.04366
529.73676	0.04262
528.45099	0.04164
527.16522	0.04068
525.87945	0.03972
524.59368	0.03878
523.30791	0.03785
522.02214	0.03694
520.73637	0.03602
519.45061	0.03514
518.16484	0.03433
516.87907	0.03361
515.59330	0.03292
514.30753	0.03225
513.02176	0.03164
511.73599	0.03117
510.45022	0.03085
509.16446	0.03061
507.87869	0.03031
506.59292	0.02988
505.30715	0.02940
504.02138	0.02896
502.73561	0.02863
501.44984	0.02840
500.16407	0.02822
498.87830	0.02801
497.59254	0.02773
496.30677	0.02739
495.02100	0.02702
493.73523	0.02665
492.44946	0.02633
491.16369	0.02609
489.87792	0.02590
488.59215	0.02575
487.30639	0.02559
486.02062	0.02543
484.73485	0.02534
483.44908	0.02533
482.16331	0.02543
480.87754	0.02559
479.59177	0.02580
478.30600	0.02603
477.02023	0.02624
475.73447	0.02641
474.44870	0.02657
473.16293	0.02675
471.87716	0.02693
470.59139	0.02707
469.30562	0.02713
468.01985	0.02710
466.73408	0.02697
465.44832	0.02674
464.16255	0.02645
462.87678	0.02613
461.59101	0.02581
460.30524	0.02550
459.01947	0.02517
457.73370	0.02481
456.44793	0.02442
455.16216	0.02402
453.87640	0.02362
452.59063	0.02323
451.30486	0.02290
450.01909	0.02269
448.73332	0.02261
447.44755	0.02261
446.16178	0.02257
444.87601	0.02242
443.59025	0.02217
442.30448	0.02187
441.01871	0.02159
439.73294	0.02138
438.44717	0.02125
437.16140	0.02119
435.87563	0.02118
434.58986	0.02118
433.30409	0.02116
432.01833	0.02111
430.73256	0.02102
429.44679	0.02092
428.16102	0.02082
426.87525	0.02074
425.58948	0.02066
424.30371	0.02053
423.01794	0.02035
421.73218	0.02018
420.44641	0.02005
419.16064	0.01993
417.87487	0.01978
416.58910	0.01960
415.30333	0.01945
414.01756	0.01941
412.73179	0.01948
411.44602	0.01955
410.16026	0.01958
408.87449	0.01956
407.58872	0.01958
406.30295	0.01965
405.01718	0.01976
403.73141	0.01985
402.44564	0.01993
401.15987	0.02004
399.87411	0.02019
