3997.45528	0.08108
3996.16951	0.08194
3994.88374	0.08210
3993.59798	0.08158
3992.31221	0.08101
3991.02644	0.08081
3989.74067	0.08073
3988.45490	0.08028
3987.16913	0.07942
3985.88336	0.07869
3984.59759	0.07868
3983.31183	0.07946
3982.02606	0.08063
3980.74029	0.08174
3979.45452	0.08253
3978.16875	0.08288
3976.88298	0.08287
3975.59721	0.08259
3974.31144	0.08205
3973.02567	0.08115
3971.73991	0.07998
3970.45414	0.07889
3969.16837	0.07820
3967.88260	0.07802
3966.59683	0.07829
3965.31106	0.07898
3964.02529	0.07994
3962.73952	0.08080
3961.45376	0.08115
3960.16799	0.08091
3958.88222	0.08035
3957.59645	0.07993
3956.31068	0.07988
3955.02491	0.07999
3953.73914	0.07989
3952.45337	0.07941
3951.16760	0.07873
3949.88184	0.07804
3948.59607	0.07727
3947.31030	0.07641
3946.02453	0.07580
3944.73876	0.07600
3943.45299	0.07726
3942.16722	0.07914
3940.88145	0.08080
3939.59569	0.08152
3938.30992	0.08113
3937.02415	0.08000
3935.73838	0.07868
3934.45261	0.07767
3933.16684	0.07721
3931.88107	0.07730
3930.59530	0.07785
3929.30953	0.07866
3928.02377	0.07947
3926.73800	0.07993
3925.45223	0.07978
3924.16646	0.07922
3922.88069	0.07887
3921.59492	0.07919
3920.30915	0.07998
3919.02338	0.08059
3917.73762	0.08058
3916.45185	0.07998
3915.16608	0.07915
3913.88031	0.07853
3912.59454	0.07837
3911.30877	0.07851
3910.02300	0.07847
3908.73723	0.07798
3907.45146	0.07715
3906.16570	0.07622
3904.87993	0.07523
3903.59416	0.07436
3902.30839	0.07410
3901.02262	0.07477
3899.73685	0.07587
3898.45108	0.07660
3897.16531	0.07668
3895.87955	0.07634
3894.59378	0.07579
3893.30801	0.07508
3892.02224	0.07427
3890.73647	0.07352
3889.45070	0.07297
3888.16493	0.07269
3886.87916	0.07258
3885.59339	0.07244
3884.30763	0.07232
3883.02186	0.07258
3881.73609	0.07350
3880.45032	0.07479
3879.16455	0.07566
3877.87878	0.07560
3876.59301	0.07500
3875.30724	0.07481
3874.02148	0.07569
3872.73571	0.07741
3871.44994	0.07900
3870.16417	0.07943
3868.87840	0.07841
3867.59263	0.07650
3866.30686	0.07457
3865.02109	0.07310
3863.73532	0.07216
3862.44956	0.07165
3861.16379	0.07144
3859.87802	0.07152
3858.59225	0.07199
3857.30648	0.07296
3856.02071	0.07425
3854.73494	0.07538
3853.44917	0.07584
3852.16341	0.07557
3850.87764	0.07504
3849.59187	0.07470
3848.30610	0.07459
3847.02033	0.07449
3845.73456	0.07417
3844.44879	0.07359
3843.16302	0.07287
3841.87725	0.07220
3840.59149	0.07180
3839.30572	0.07182
3838.01995	0.07232
3836.73418	0.07325
3835.44841	0.07442
3834.16264	0.07540
3832.87687	0.07567
3831.59110	0.07506
3830.30534	0.07388
3829.01957	0.07267
3827.73380	0.07178
3826.44803	0.07138
3825.16226	0.07157
3823.87649	0.07238
3822.59072	0.07340
3821.30495	0.07390
3820.01918	0.07354
3818.73342	0.07281
3817.44765	0.07235
3816.16188	0.07220
3814.87611	0.07207
3813.59034	0.07203
3812.30457	0.07237
3811.01880	0.07317
3809.73303	0.07414
3808.44726	0.07473
3807.16150	0.07447
3805.87573	0.07341
3804.58996	0.07222
3803.30419	0.07149
3802.01842	0.07112
3800.73265	0.07064
3799.44688	0.07001
3798.16111	0.06967
3796.87535	0.06988
3795.58958	0.07051
3794.30381	0.07136
3793.01804	0.07227
3791.73227	0.07314
3790.44650	0.07381
3789.16073	0.07411
3787.87496	0.07402
3786.58919	0.07374
3785.30343	0.07350
3784.01766	0.07326
3782.73189	0.07284
3781.44612	0.07220
3780.16035	0.07157
3778.87458	0.07122
3777.58881	0.07122
3776.30304	0.07145
3775.01728	0.07160
3773.73151	0.07146
3772.44574	0.07102
3771.15997	0.07044
3769.87420	0.07002
3768.58843	0.06994
3767.30266	0.07017
3766.01689	0.07032
3764.73112	0.07008
3763.44536	0.06957
3762.15959	0.06927
3760.87382	0.06945
3759.58805	0.06990
3758.30228	0.07019
3757.01651	0.07000
3755.73074	0.06936
3754.44497	0.06865
3753.15921	0.06828
3751.87344	0.06840
3750.58767	0.06884
3749.30190	0.06929
3748.01613	0.06953
3746.73036	0.06960
3745.44459	0.06937
3744.15882	0.06860
3742.87305	0.06753
3741.58729	0.06676
3740.30152	0.06650
3739.01575	0.06654
3737.72998	0.06671
3736.44421	0.06698
3735.15844	0.06736
3733.87267	0.06788
3732.58690	0.06853
3731.30114	0.06921
3730.01537	0.06982
3728.72960	0.07027
3727.44383	0.07041
3726.15806	0.07017
3724.87229	0.06979
3723.58652	0.06958
3722.30075	0.06949
3721.01498	0.06917
3719.72922	0.06836
3718.44345	0.06718
3717.15768	0.06603
3715.87191	0.06546
3714.58614	0.06587
3713.30037	0.06704
3712.01460	0.06813
3710.72883	0.06836
3709.44307	0.06770
3708.15730	0.06674
3706.87153	0.06591
3705.58576	0.06516
3704.29999	0.06433
3703.01422	0.06354
3701.72845	0.06306
3700.44268	0.06280
3699.15691	0.06247
3697.87115	0.06206
3696.58538	0.06206
3695.29961	0.06292
3694.01384	0.06440
3692.72807	0.06565
3691.44230	0.06615
3690.15653	0.06614
3688.87076	0.06602
3687.58500	0.06591
3686.29923	0.06574
3685.01346	0.06546
3683.72769	0.06515
3682.44192	0.06487
3681.15615	0.06456
3679.87038	0.06426
3678.58461	0.06433
3677.29884	0.06513
3676.01308	0.06647
3674.72731	0.06774
3673.44154	0.06865
3672.15577	0.06932
3670.87000	0.06965
3669.58423	0.06927
3668.29846	0.06807
3667.01269	0.06644
3665.72693	0.06499
3664.44116	0.06415
3663.15539	0.06399
3661.86962	0.06432
3660.58385	0.06503
3659.29808	0.06604
3658.01231	0.06707
3656.72654	0.06771
3655.44077	0.06789
3654.15501	0.06801
3652.86924	0.06843
3651.58347	0.06893
3650.29770	0.06908
3649.01193	0.06883
3647.72616	0.06862
3646.44039	0.06887
3645.15462	0.06964
3643.86886	0.07068
3642.58309	0.07160
3641.29732	0.07210
3640.01155	0.07204
3638.72578	0.07153
3637.44001	0.07085
3636.15424	0.07024
3634.86847	0.06978
3633.58270	0.06950
3632.29694	0.06961
3631.01117	0.07037
3629.72540	0.07157
3628.43963	0.07244
3627.15386	0.07228
3625.86809	0.07121
3624.58232	0.07012
3623.29655	0.07009
3622.01079	0.07149
3620.72502	0.07355
3619.43925	0.07493
3618.15348	0.07491
3616.86771	0.07387
3615.58194	0.07275
3614.29617	0.07218
3613.01040	0.07234
3611.72463	0.07310
3610.43887	0.07414
3609.15310	0.07492
3607.86733	0.07501
3606.58156	0.07439
3605.29579	0.07363
3604.01002	0.07339
3602.72425	0.07398
3601.43848	0.07502
3600.15272	0.07576
3598.86695	0.07565
3597.58118	0.07475
3596.29541	0.07371
3595.00964	0.07342
3593.72387	0.07437
3592.43810	0.07627
3591.15233	0.07826
3589.86656	0.07968
3588.58080	0.08036
3587.29503	0.08044
3586.00926	0.08014
3584.72349	0.07967
3583.43772	0.07931
3582.15195	0.07925
3580.86618	0.07944
3579.58041	0.07962
3578.29464	0.07966
3577.00888	0.07964
3575.72311	0.07969
3574.43734	0.07986
3573.15157	0.08012
3571.86580	0.08044
3570.58003	0.08082
3569.29426	0.08123
3568.00849	0.08167
3566.72273	0.08234
3565.43696	0.08333
3564.15119	0.08445
3562.86542	0.08517
3561.57965	0.08516
3560.29388	0.08466
3559.00811	0.08428
3557.72234	0.08446
3556.43657	0.08516
3555.15081	0.08594
3553.86504	0.08633
3552.57927	0.08611
3551.29350	0.08544
3550.00773	0.08484
3548.72196	0.08488
3547.43619	0.08571
3546.15042	0.08691
3544.86466	0.08787
3543.57889	0.08831
3542.29312	0.08835
3541.00735	0.08829
3539.72158	0.08832
3538.43581	0.08847
3537.15004	0.08863
3535.86427	0.08870
3534.57850	0.08871
3533.29274	0.08873
3532.00697	0.08881
3530.72120	0.08893
3529.43543	0.08910
3528.14966	0.08939
3526.86389	0.08980
3525.57812	0.09019
3524.29235	0.09041
3523.00659	0.09044
3521.72082	0.09040
3520.43505	0.09038
3519.14928	0.09043
3517.86351	0.09061
3516.57774	0.09095
3515.29197	0.09137
3514.00620	0.09166
3512.72043	0.09172
3511.43467	0.09157
3510.14890	0.09127
3508.86313	0.09085
3507.57736	0.09039
3506.29159	0.09008
3505.00582	0.09011
3503.72005	0.09057
3502.43428	0.09150
3501.14852	0.09284
3499.86275	0.09431
3498.57698	0.09541
3497.29121	0.09577
3496.00544	0.09544
3494.71967	0.09482
3493.43390	0.09431
3492.14813	0.09414
3490.86236	0.09441
3489.57660	0.09516
3488.29083	0.09622
3487.00506	0.09719
3485.71929	0.09759
3484.43352	0.09720
3483.14775	0.09619
3481.86198	0.09505
3480.57621	0.09433
3479.29045	0.09429
3478.00468	0.09491
3476.71891	0.09588
3475.43314	0.09675
3474.14737	0.09712
3472.86160	0.09694
3471.57583	0.09652
3470.29006	0.09630
3469.00429	0.09648
3467.71853	0.09698
3466.43276	0.09765
3465.14699	0.09829
3463.86122	0.09877
3462.57545	0.09905
3461.28968	0.09925
3460.00391	0.09947
3458.71814	0.09966
3457.43238	0.09976
3456.14661	0.09978
3454.86084	0.09987
3453.57507	0.10007
3452.28930	0.10025
3451.00353	0.10026
3449.71776	0.10015
3448.43199	0.10007
3447.14622	0.10011
3445.86046	0.10027
3444.57469	0.10060
3443.28892	0.10115
3442.00315	0.10188
3440.71738	0.10257
3439.43161	0.10293
3438.14584	0.10284
3436.86007	0.10249
3435.57431	0.10225
3434.28854	0.10249
3433.00277	0.10319
3431.71700	0.10397
3430.43123	0.10435
3429.14546	0.10422
3427.85969	0.10380
3426.57392	0.10341
3425.28815	0.10312
3424.00239	0.10285
3422.71662	0.10258
3421.43085	0.10249
3420.14508	0.10270
3418.85931	0.10306
3417.57354	0.10317
3416.28777	0.10284
3415.00200	0.10227
3413.71624	0.10194
3412.43047	0.10220
3411.14470	0.10309
3409.85893	0.10429
3408.57316	0.10532
3407.28739	0.10575
3406.00162	0.10550
3404.71585	0.10494
3403.43008	0.10457
3402.14432	0.10462
3400.85855	0.10483
3399.57278	0.10475
3398.28701	0.10429
3397.00124	0.10368
3395.71547	0.10325
3394.42970	0.10316
3393.14393	0.10339
3391.85817	0.10394
3390.57240	0.10487
3389.28663	0.10604
3388.00086	0.10697
3386.71509	0.10722
3385.42932	0.10684
3384.14355	0.10636
3382.85778	0.10628
3381.57201	0.10652
3380.28625	0.10666
3379.00048	0.10640
3377.71471	0.10586
3376.42894	0.10534
3375.14317	0.10505
3373.85740	0.10502
3372.57163	0.10522
3371.28586	0.10556
3370.00010	0.10597
3368.71433	0.10636
3367.42856	0.10672
3366.14279	0.10708
3364.85702	0.10740
3363.57125	0.10749
3362.28548	0.10724
3360.99971	0.10677
3359.71394	0.10641
3358.42818	0.10630
3357.14241	0.10625
3355.85664	0.10606
3354.57087	0.10585
3353.28510	0.10590
3351.99933	0.10633
3350.71356	0.10686
3349.42779	0.10713
3348.14202	0.10694
3346.85626	0.10633
3345.57049	0.10554
3344.28472	0.10482
3342.99895	0.10437
3341.71318	0.10431
3340.42741	0.10465
3339.14164	0.10515
3337.85587	0.10549
3336.57011	0.10556
3335.28434	0.10548
3333.99857	0.10541
3332.71280	0.10533
3331.42703	0.10515
3330.14126	0.10493
3328.85549	0.10482
3327.56972	0.10489
3326.28395	0.10510
3324.99819	0.10537
3323.71242	0.10566
3322.42665	0.10594
3321.14088	0.10609
3319.85511	0.10601
3318.56934	0.10573
3317.28357	0.10540
3315.99780	0.10516
3314.71204	0.10498
3313.42627	0.10477
3312.14050	0.10450
3310.85473	0.10432
3309.56896	0.10444
3308.28319	0.10487
3306.99742	0.10535
3305.71165	0.10554
3304.42588	0.10526
3303.14012	0.10468
3301.85435	0.10406
3300.56858	0.10368
3299.28281	0.10368
3297.99704	0.10399
3296.71127	0.10435
3295.42550	0.10453
3294.13973	0.10445
3292.85397	0.10419
3291.56820	0.10392
3290.28243	0.10376
3288.99666	0.10378
3287.71089	0.10388
3286.42512	0.10391
3285.13935	0.10371
3283.85358	0.10330
3282.56781	0.10283
3281.28205	0.10246
3279.99628	0.10225
3278.71051	0.10216
3277.42474	0.10217
3276.13897	0.10224
3274.85320	0.10234
3273.56743	0.10238
3272.28166	0.10236
3270.99590	0.10235
3269.71013	0.10245
3268.42436	0.10259
3267.13859	0.10258
3265.85282	0.10230
3264.56705	0.10179
3263.28128	0.10117
3261.99551	0.10050
3260.70974	0.09980
3259.42398	0.09924
3258.13821	0.09913
3256.85244	0.09968
3255.56667	0.10068
3254.28090	0.10154
3252.99513	0.10167
3251.70936	0.10094
3250.42359	0.09981
3249.13783	0.09899
3247.85206	0.09891
3246.56629	0.09945
3245.28052	0.10015
3243.99475	0.10058
3242.70898	0.10065
3241.42321	0.10056
3240.13744	0.10058
3238.85167	0.10071
3237.56591	0.10068
3236.28014	0.10027
3234.99437	0.09951
3233.70860	0.09867
3232.42283	0.09796
3231.13706	0.09749
3229.85129	0.09728
3228.56552	0.09726
3227.27976	0.09729
3225.99399	0.09726
3224.70822	0.09725
3223.42245	0.09737
3222.13668	0.09764
3220.85091	0.09792
3219.56514	0.09801
3218.27937	0.09787
3216.99360	0.09768
3215.70784	0.09771
3214.42207	0.09800
3213.13630	0.09834
3211.85053	0.09849
3210.56476	0.09838
3209.27899	0.09815
3207.99322	0.09795
3206.70745	0.09789
3205.42169	0.09791
3204.13592	0.09790
3202.85015	0.09777
3201.56438	0.09755
3200.27861	0.09731
3198.99284	0.09708
3197.70707	0.09681
3196.42130	0.09651
3195.13553	0.09623
3193.84977	0.09597
3192.56400	0.09569
3191.27823	0.09545
3189.99246	0.09530
3188.70669	0.09521
3187.42092	0.09497
3186.13515	0.09451
3184.84938	0.09398
3183.56362	0.09363
3182.27785	0.09357
3180.99208	0.09371
3179.70631	0.09392
3178.42054	0.09412
3177.13477	0.09421
3175.84900	0.09413
3174.56323	0.09388
3173.27746	0.09358
3171.99170	0.09330
3170.70593	0.09306
3169.42016	0.09293
3168.13439	0.09297
3166.84862	0.09313
3165.56285	0.09325
3164.27708	0.09313
3162.99131	0.09269
3161.70555	0.09203
3160.41978	0.09140
3159.13401	0.09105
3157.84824	0.09099
3156.56247	0.09107
3155.27670	0.09119
3153.99093	0.09139
3152.70516	0.09164
3151.41939	0.09182
3150.13363	0.09181
3148.84786	0.09160
3147.56209	0.09125
3146.27632	0.09077
3144.99055	0.09022
3143.70478	0.08962
3142.41901	0.08898
3141.13324	0.08835
3139.84748	0.08788
3138.56171	0.08776
3137.27594	0.08797
3135.99017	0.08826
3134.70440	0.08841
3133.41863	0.08847
3132.13286	0.08872
3130.84709	0.08926
3129.56132	0.08985
3128.27556	0.09002
3126.98979	0.08953
3125.70402	0.08862
3124.41825	0.08774
3123.13248	0.08713
3121.84671	0.08666
3120.56094	0.08611
3119.27517	0.08543
3117.98940	0.08483
3116.70364	0.08455
3115.41787	0.08465
3114.13210	0.08509
3112.84633	0.08578
3111.56056	0.08654
3110.27479	0.08716
3108.98902	0.08738
3107.70325	0.08709
3106.41749	0.08642
3105.13172	0.08572
3103.84595	0.08528
3102.56018	0.08515
3101.27441	0.08519
3099.98864	0.08522
3098.70287	0.08515
3097.41710	0.08495
3096.13133	0.08460
3094.84557	0.08411
3093.55980	0.08362
3092.27403	0.08328
3090.98826	0.08321
3089.70249	0.08339
3088.41672	0.08365
3087.13095	0.08383
3085.84518	0.08388
3084.55942	0.08389
3083.27365	0.08394
3081.98788	0.08402
3080.70211	0.08406
3079.41634	0.08400
3078.13057	0.08382
3076.84480	0.08358
3075.55903	0.08337
3074.27326	0.08329
3072.98750	0.08332
3071.70173	0.08331
3070.41596	0.08309
3069.13019	0.08270
3067.84442	0.08227
3066.55865	0.08197
3065.27288	0.08186
3063.98711	0.08193
3062.70135	0.08205
3061.41558	0.08206
3060.12981	0.08190
3058.84404	0.08159
3057.55827	0.08124
3056.27250	0.08096
3054.98673	0.08077
3053.70096	0.08064
3052.41519	0.08058
3051.12943	0.08066
3049.84366	0.08096
3048.55789	0.08136
3047.27212	0.08158
3045.98635	0.08138
3044.70058	0.08081
3043.41481	0.08017
3042.12904	0.07972
3040.84328	0.07957
3039.55751	0.07962
3038.27174	0.07978
3036.98597	0.07995
3035.70020	0.08003
3034.41443	0.07987
3033.12866	0.07948
3031.84289	0.07903
3030.55712	0.07873
3029.27136	0.07858
3027.98559	0.07843
3026.69982	0.07809
3025.41405	0.07758
3024.12828	0.07713
3022.84251	0.07694
3021.55674	0.07706
3020.27097	0.07734
3018.98521	0.07759
3017.69944	0.07773
3016.41367	0.07766
3015.12790	0.07732
3013.84213	0.07673
3012.55636	0.07612
3011.27059	0.07574
3009.98482	0.07566
3008.69905	0.07575
3007.41329	0.07584
3006.12752	0.07582
3004.84175	0.07562
3003.55598	0.07520
3002.27021	0.07464
3000.98444	0.07418
2999.69867	0.07406
2998.41290	0.07430
2997.12714	0.07454
2995.84137	0.07462
2994.55560	0.07470
2993.26983	0.07493
2991.98406	0.07523
2990.69829	0.07547
2989.41252	0.07566
2988.12675	0.07586
2986.84098	0.07610
2985.55522	0.07648
2984.26945	0.07720
2982.98368	0.07828
2981.69791	0.07945
2980.41214	0.08039
2979.12637	0.08102
2977.84060	0.08154
2976.55483	0.08221
2975.26907	0.08316
2973.98330	0.08447
2972.69753	0.08617
2971.41176	0.08822
2970.12599	0.09043
2968.84022	0.09253
2967.55445	0.09443
2966.26868	0.09623
2964.98291	0.09811
2963.69715	0.10011
2962.41138	0.10215
2961.12561	0.10420
2959.83984	0.10625
2958.55407	0.10830
2957.26830	0.11025
2955.98253	0.11191
2954.69676	0.11306
2953.41100	0.11366
2952.12523	0.11387
2950.83946	0.11391
2949.55369	0.11391
2948.26792	0.11398
2946.98215	0.11421
2945.69638	0.11454
2944.41061	0.11476
2943.12484	0.11464
2941.83908	0.11431
2940.55331	0.11419
2939.26754	0.11469
2937.98177	0.11595
2936.69600	0.11778
2935.41023	0.11981
2934.12446	0.12173
2932.83869	0.12344
2931.55293	0.12508
2930.26716	0.12680
2928.98139	0.12859
2927.69562	0.13027
2926.40985	0.13169
2925.12408	0.13277
2923.83831	0.13347
2922.55254	0.13376
2921.26677	0.13362
2919.98101	0.13307
2918.69524	0.13221
2917.40947	0.13114
2916.12370	0.12996
2914.83793	0.12875
2913.55216	0.12767
2912.26639	0.12681
2910.98062	0.12600
2909.69486	0.12493
2908.40909	0.12346
2907.12332	0.12181
2905.83755	0.12031
2904.55178	0.11903
2903.26601	0.11771
2901.98024	0.11626
2900.69447	0.11488
2899.40870	0.11388
2898.12294	0.11324
2896.83717	0.11260
2895.55140	0.11166
2894.26563	0.11043
2892.97986	0.10917
2891.69409	0.10801
2890.40832	0.10690
2889.12255	0.10572
2887.83678	0.10447
2886.55102	0.10325
2885.26525	0.10221
2883.97948	0.10147
2882.69371	0.10103
2881.40794	0.10076
2880.12217	0.10059
2878.83640	0.10061
2877.55063	0.10094
2876.26487	0.10165
2874.97910	0.10273
2873.69333	0.10403
2872.40756	0.10531
2871.12179	0.10627
2869.83602	0.10676
2868.55025	0.10683
2867.26448	0.10671
2865.97871	0.10663
2864.69295	0.10674
2863.40718	0.10703
2862.12141	0.10732
2860.83564	0.10746
2859.54987	0.10750
2858.26410	0.10749
2856.97833	0.10742
2855.69256	0.10725
2854.40680	0.10702
2853.12103	0.10680
2851.83526	0.10649
2850.54949	0.10589
2849.26372	0.10486
2847.97795	0.10356
2846.69218	0.10225
2845.40641	0.10110
2844.12064	0.10000
2842.83488	0.09872
2841.54911	0.09716
2840.26334	0.09541
2838.97757	0.09359
2837.69180	0.09181
2836.40603	0.09014
2835.12026	0.08864
2833.83449	0.08733
2832.54873	0.08611
2831.26296	0.08491
2829.97719	0.08370
2828.69142	0.08256
2827.40565	0.08156
2826.11988	0.08069
2824.83411	0.07990
2823.54834	0.07909
2822.26257	0.07828
2820.97681	0.07759
2819.69104	0.07709
2818.40527	0.07671
2817.11950	0.07633
2815.83373	0.07597
2814.54796	0.07575
2813.26219	0.07568
2811.97642	0.07561
2810.69066	0.07536
2809.40489	0.07488
2808.11912	0.07429
2806.83335	0.07379
2805.54758	0.07348
2804.26181	0.07334
2802.97604	0.07321
2801.69027	0.07295
2800.40450	0.07254
2799.11874	0.07206
2797.83297	0.07161
2796.54720	0.07127
2795.26143	0.07107
2793.97566	0.07102
2792.68989	0.07109
2791.40412	0.07117
2790.11835	0.07108
2788.83259	0.07076
2787.54682	0.07025
2786.26105	0.06977
2784.97528	0.06952
2783.68951	0.06953
2782.40374	0.06963
2781.11797	0.06957
2779.83220	0.06929
2778.54643	0.06893
2777.26067	0.06862
2775.97490	0.06832
2774.68913	0.06800
2773.40336	0.06773
2772.11759	0.06763
2770.83182	0.06770
2769.54605	0.06785
2768.26028	0.06798
2766.97452	0.06804
2765.68875	0.06793
2764.40298	0.06759
2763.11721	0.06703
2761.83144	0.06643
2760.54567	0.06596
2759.25990	0.06570
2757.97413	0.06562
2756.68836	0.06571
2755.40260	0.06596
2754.11683	0.06630
2752.83106	0.06651
2751.54529	0.06648
2750.25952	0.06633
2748.97375	0.06626
2747.68798	0.06630
2746.40221	0.06624
2745.11645	0.06593
2743.83068	0.06546
2742.54491	0.06512
2741.25914	0.06507
2739.97337	0.06520
2738.68760	0.06533
2737.40183	0.06539
2736.11606	0.06539
2734.83029	0.06539
2733.54453	0.06535
2732.25876	0.06523
2730.97299	0.06501
2729.68722	0.06481
2728.40145	0.06478
2727.11568	0.06493
2725.82991	0.06510
2724.54414	0.06505
2723.25838	0.06474
2721.97261	0.06431
2720.68684	0.06394
2719.40107	0.06373
2718.11530	0.06372
2716.82953	0.06380
2715.54376	0.06384
2714.25799	0.06380
2712.97222	0.06371
2711.68646	0.06360
2710.40069	0.06346
2709.11492	0.06330
2707.82915	0.06314
2706.54338	0.06298
2705.25761	0.06274
2703.97184	0.06241
2702.68607	0.06202
2701.40031	0.06170
2700.11454	0.06155
2698.82877	0.06161
2697.54300	0.06178
2696.25723	0.06197
2694.97146	0.06213
2693.68569	0.06224
2692.39992	0.06228
2691.11415	0.06221
2689.82839	0.06202
2688.54262	0.06174
2687.25685	0.06145
2685.97108	0.06125
2684.68531	0.06115
2683.39954	0.06109
2682.11377	0.06103
2680.82800	0.06095
2679.54224	0.06087
2678.25647	0.06083
2676.97070	0.06085
2675.68493	0.06096
2674.39916	0.06108
2673.11339	0.06108
2671.82762	0.06090
2670.54185	0.06064
2669.25608	0.06042
2667.97032	0.06032
2666.68455	0.06038
2665.39878	0.06054
2664.11301	0.06069
2662.82724	0.06074
2661.54147	0.06069
2660.25570	0.06054
2658.96993	0.06027
2657.68417	0.05990
2656.39840	0.05958
2655.11263	0.05946
2653.82686	0.05947
2652.54109	0.05942
2651.25532	0.05920
2649.96955	0.05889
2648.68378	0.05862
2647.39801	0.05843
2646.11225	0.05830
2644.82648	0.05819
2643.54071	0.05806
2642.25494	0.05780
2640.96917	0.05736
2639.68340	0.05678
2638.39763	0.05624
2637.11186	0.05586
2635.82609	0.05566
2634.54033	0.05555
2633.25456	0.05540
2631.96879	0.05512
2630.68302	0.05478
2629.39725	0.05452
2628.11148	0.05444
2626.82571	0.05444
2625.53994	0.05442
2624.25418	0.05438
2622.96841	0.05441
2621.68264	0.05446
2620.39687	0.05435
2619.11110	0.05404
2617.82533	0.05374
2616.53956	0.05364
2615.25379	0.05364
2613.96802	0.05349
2612.68226	0.05315
2611.39649	0.05280
2610.11072	0.05263
2608.82495	0.05254
2607.53918	0.05231
2606.25341	0.05182
2604.96764	0.05113
2603.68187	0.05045
2602.39611	0.04997
2601.11034	0.04990
2599.82457	0.05025
2598.53880	0.05083
2597.25303	0.05133
2595.96726	0.05158
2594.68149	0.05152
2593.39572	0.05115
2592.10995	0.05051
2590.82419	0.04980
2589.53842	0.04936
2588.25265	0.04940
2586.96688	0.04975
2585.68111	0.04999
2584.39534	0.04991
2583.10957	0.04970
2581.82380	0.04971
2580.53804	0.05007
2579.25227	0.05037
2577.96650	0.05012
2576.68073	0.04927
2575.39496	0.04837
2574.10919	0.04796
2572.82342	0.04802
2571.53765	0.04820
2570.25188	0.04821
2568.96612	0.04811
2567.68035	0.04808
2566.39458	0.04818
2565.10881	0.04835
2563.82304	0.04845
2562.53727	0.04839
2561.25150	0.04815
2559.96573	0.04779
2558.67997	0.04739
2557.39420	0.04705
2556.10843	0.04693
2554.82266	0.04715
2553.53689	0.04768
2552.25112	0.04823
2550.96535	0.04855
2549.67958	0.04864
2548.39381	0.04869
2547.10805	0.04888
2545.82228	0.04911
2544.53651	0.04911
2543.25074	0.04870
2541.96497	0.04794
2540.67920	0.04708
2539.39343	0.04638
2538.10766	0.04604
2536.82190	0.04611
2535.53613	0.04644
2534.25036	0.04678
2532.96459	0.04696
2531.67882	0.04699
2530.39305	0.04698
2529.10728	0.04695
2527.82151	0.04687
2526.53574	0.04681
2525.24998	0.04684
2523.96421	0.04694
2522.67844	0.04701
2521.39267	0.04706
2520.10690	0.04718
2518.82113	0.04739
2517.53536	0.04745
2516.24959	0.04712
2514.96383	0.04644
2513.67806	0.04569
2512.39229	0.04511
2511.10652	0.04475
2509.82075	0.04457
2508.53498	0.04458
2507.24921	0.04480
2505.96344	0.04520
2504.67767	0.04567
2503.39191	0.04609
2502.10614	0.04633
2500.82037	0.04628
2499.53460	0.04591
2498.24883	0.04534
2496.96306	0.04486
2495.67729	0.04470
2494.39152	0.04482
2493.10576	0.04494
2491.81999	0.04492
2490.53422	0.04486
2489.24845	0.04499
2487.96268	0.04532
2486.67691	0.04558
2485.39114	0.04554
2484.10537	0.04529
2482.81960	0.04516
2481.53384	0.04535
2480.24807	0.04564
2478.96230	0.04566
2477.67653	0.04531
2476.39076	0.04486
2475.10499	0.04466
2473.81922	0.04473
2472.53345	0.04487
2471.24769	0.04501
2469.96192	0.04516
2468.67615	0.04530
2467.39038	0.04527
2466.10461	0.04502
2464.81884	0.04469
2463.53307	0.04453
2462.24730	0.04461
2460.96153	0.04476
2459.67577	0.04476
2458.39000	0.04461
2457.10423	0.04450
2455.81846	0.04454
2454.53269	0.04467
2453.24692	0.04465
2451.96115	0.04434
2450.67538	0.04381
2449.38962	0.04334
2448.10385	0.04310
2446.81808	0.04306
2445.53231	0.04310
2444.24654	0.04322
2442.96077	0.04343
2441.67500	0.04370
2440.38923	0.04390
2439.10346	0.04396
2437.81770	0.04384
2436.53193	0.04362
2435.24616	0.04344
2433.96039	0.04338
2432.67462	0.04331
2431.38885	0.04310
2430.10308	0.04270
2428.81731	0.04228
2427.53155	0.04201
2426.24578	0.04210
2424.96001	0.04266
2423.67424	0.04351
2422.38847	0.04423
2421.10270	0.04444
2419.81693	0.04409
2418.53116	0.04342
2417.24539	0.04280
2415.95963	0.04245
2414.67386	0.04236
2413.38809	0.04233
2412.10232	0.04224
2410.81655	0.04208
2409.53078	0.04197
2408.24501	0.04194
2406.95924	0.04191
2405.67347	0.04182
2404.38771	0.04172
2403.10194	0.04171
2401.81617	0.04185
2400.53040	0.04211
2399.24463	0.04242
2397.95886	0.04264
2396.67309	0.04265
2395.38732	0.04250
2394.10156	0.04233
2392.81579	0.04224
2391.53002	0.04221
2390.24425	0.04216
2388.95848	0.04205
2387.67271	0.04193
2386.38694	0.04186
2385.10117	0.04193
2383.81540	0.04223
2382.52964	0.04269
2381.24387	0.04310
2379.95810	0.04324
2378.67233	0.04305
2377.38656	0.04262
2376.10079	0.04216
2374.81502	0.04188
2373.52925	0.04181
2372.24349	0.04195
2370.95772	0.04215
2369.67195	0.04239
2368.38618	0.04257
2367.10041	0.04263
2365.81464	0.04254
2364.52887	0.04254
2363.24310	0.04261
2361.95733	0.04266
2360.67157	0.04259
2359.38580	0.04263
2358.10003	0.04275
2356.81426	0.04287
2355.52849	0.04298
2354.24272	0.04312
2352.95695	0.04333
2351.67118	0.04339
2350.38542	0.04314
2349.09965	0.04281
2347.81388	0.04277
2346.52811	0.04285
2345.24234	0.04304
2343.95657	0.04340
2342.67080	0.04382
2341.38503	0.04368
2340.09926	0.04296
2338.81350	0.04251
2337.52773	0.04255
2336.24196	0.04236
2334.95619	0.04194
2333.67042	0.04205
2332.38465	0.04261
2331.09888	0.04253
2329.81311	0.04241
2328.52735	0.04308
2327.24158	0.04312
2325.95581	0.04276
2324.67004	0.04307
2323.38427	0.04301
2322.09850	0.04242
2320.81273	0.04250
2319.52696	0.04245
2318.24119	0.04245
2316.95543	0.04306
2315.66966	0.04318
2314.38389	0.04273
2313.09812	0.04213
2311.81235	0.04121
2310.52658	0.04059
2309.24081	0.04022
2307.95504	0.03997
2306.66928	0.04003
2305.38351	0.04006
2304.09774	0.03995
2302.81197	0.03973
2301.52620	0.03947
2300.24043	0.03945
2298.95466	0.03953
2297.66889	0.03955
2296.38312	0.03943
2295.09736	0.03924
2293.81159	0.03914
2292.52582	0.03906
2291.24005	0.03894
2289.95428	0.03877
2288.66851	0.03860
2287.38274	0.03847
2286.09697	0.03833
2284.81121	0.03810
2283.52544	0.03770
2282.23967	0.03716
2280.95390	0.03664
2279.66813	0.03628
2278.38236	0.03610
2277.09659	0.03595
2275.81082	0.03572
2274.52505	0.03538
2273.23929	0.03493
2271.95352	0.03444
2270.66775	0.03399
2269.38198	0.03374
2268.09621	0.03374
2266.81044	0.03392
2265.52467	0.03413
2264.23890	0.03430
2262.95314	0.03445
2261.66737	0.03454
2260.38160	0.03453
2259.09583	0.03428
2257.81006	0.03373
2256.52429	0.03300
2255.23852	0.03237
2253.95275	0.03205
2252.66698	0.03201
2251.38122	0.03210
2250.09545	0.03219
2248.80968	0.03230
2247.52391	0.03240
2246.23814	0.03221
2244.95237	0.03146
2243.66660	0.03033
2242.38083	0.02936
2241.09507	0.02899
2239.80930	0.02920
2238.52353	0.02968
2237.23776	0.03013
2235.95199	0.03040
2234.66622	0.03040
2233.38045	0.03016
2232.09468	0.02980
2230.80891	0.02955
2229.52315	0.02953
2228.23738	0.02963
2226.95161	0.02974
2225.66584	0.02994
2224.38007	0.03028
2223.09430	0.03061
2221.80853	0.03054
2220.52276	0.02979
2219.23700	0.02840
2217.95123	0.02680
2216.66546	0.02568
2215.37969	0.02544
2214.09392	0.02586
2212.80815	0.02624
2211.52238	0.02609
2210.23661	0.02549
2208.95084	0.02491
2207.66508	0.02478
2206.37931	0.02519
2205.09354	0.02587
2203.80777	0.02643
2202.52200	0.02667
2201.23623	0.02666
2199.95046	0.02655
2198.66469	0.02637
2197.37893	0.02597
2196.09316	0.02514
2194.80739	0.02381
2193.52162	0.02243
2192.23585	0.02180
2190.95008	0.02236
2189.66431	0.02357
2188.37854	0.02434
2187.09277	0.02403
2185.80701	0.02290
2184.52124	0.02162
2183.23547	0.02068
2181.94970	0.02014
2180.66393	0.01986
2179.37816	0.01964
2178.09239	0.01946
2176.80662	0.01958
2175.52085	0.02024
2174.23509	0.02135
2172.94932	0.02229
2171.66355	0.02242
2170.37778	0.02154
2169.09201	0.02007
2167.80624	0.01870
2166.52047	0.01814
2165.23470	0.01861
2163.94894	0.01956
2162.66317	0.01983
2161.37740	0.01860
2160.09163	0.01646
2158.80586	0.01505
2157.52009	0.01541
2156.23432	0.01681
2154.94855	0.01788
2153.66278	0.01824
2152.37702	0.01860
2151.09125	0.01955
2149.80548	0.02068
2148.51971	0.02117
2147.23394	0.02081
2145.94817	0.02021
2144.66240	0.02003
2143.37663	0.02042
2142.09087	0.02120
2140.80510	0.02222
2139.51933	0.02329
2138.23356	0.02404
2136.94779	0.02414
2135.66202	0.02365
2134.37625	0.02310
2133.09048	0.02309
2131.80471	0.02376
2130.51895	0.02466
2129.23318	0.02522
2127.94741	0.02529
2126.66164	0.02519
2125.37587	0.02521
2124.09010	0.02532
2122.80433	0.02546
2121.51856	0.02583
2120.23280	0.02666
2118.94703	0.02782
2117.66126	0.02884
2116.37549	0.02926
2115.08972	0.02902
2113.80395	0.02833
2112.51818	0.02756
2111.23241	0.02702
2109.94664	0.02680
2108.66088	0.02672
2107.37511	0.02649
2106.08934	0.02602
2104.80357	0.02546
2103.51780	0.02503
2102.23203	0.02480
2100.94626	0.02473
2099.66049	0.02544
2098.37473	0.02573
2097.08896	0.02558
2095.80319	0.02525
2094.51742	0.02483
2093.23165	0.02444
2091.94588	0.02426
2090.66011	0.02435
2089.37434	0.02460
2088.08857	0.02484
2086.80281	0.02493
2085.51704	0.02493
2084.23127	0.02497
2082.94550	0.02505
2081.65973	0.02508
2080.37396	0.02497
2079.08819	0.02468
2077.80242	0.02419
2076.51666	0.02353
2075.23089	0.02282
2073.94512	0.02222
2072.65935	0.02192
2071.37358	0.02204
2070.08781	0.02263
2068.80204	0.02350
2067.51627	0.02426
2066.23050	0.02449
2064.94474	0.02399
2063.65897	0.02291
2062.37320	0.02168
2061.08743	0.02077
2059.80166	0.02058
2058.51589	0.02115
2057.23012	0.02208
2055.94435	0.02273
2054.65859	0.02263
2053.37282	0.02185
2052.08705	0.02092
2050.80128	0.02045
2049.51551	0.02061
2048.22974	0.02092
2046.94397	0.02068
2045.65820	0.01955
2044.37243	0.01775
2043.08667	0.01592
2041.80090	0.01477
2040.51513	0.01475
2039.22936	0.01568
2037.94359	0.01684
2036.65782	0.01756
2035.37205	0.01778
2034.08628	0.01786
2032.80052	0.01798
2031.51475	0.01789
2030.22898	0.01736
2028.94321	0.01659
2027.65744	0.01603
2026.37167	0.01589
2025.08590	0.01600
2023.80013	0.01600
2022.51436	0.01556
2021.22860	0.01466
2019.94283	0.01375
2018.65706	0.01348
2017.37129	0.01413
2016.08552	0.01526
2014.79975	0.01615
2013.51398	0.01646
2012.22821	0.01639
2010.94245	0.01628
2009.65668	0.01628
2008.37091	0.01631
2007.08514	0.01631
2005.79937	0.01637
2004.51360	0.01652
2003.22783	0.01662
2001.94206	0.01650
2000.65629	0.01612
1999.37053	0.01569
1998.08476	0.01545
1996.79899	0.01564
1995.51322	0.01629
1994.22745	0.01722
1992.94168	0.01815
1991.65591	0.01889
1990.37014	0.01944
1989.08438	0.01971
1987.79861	0.01952
1986.51284	0.01892
1985.22707	0.01830
1983.94130	0.01797
1982.65553	0.01793
1981.36976	0.01802
1980.08399	0.01825
1978.79822	0.01867
1977.51246	0.01903
1976.22669	0.01890
1974.94092	0.01811
1973.65515	0.01698
1972.36938	0.01618
1971.08361	0.01630
1969.79784	0.01744
1968.51207	0.01905
1967.22631	0.02030
1965.94054	0.02087
1964.65477	0.02101
1963.36900	0.02111
1962.08323	0.02122
1960.79746	0.02126
1959.51169	0.02127
1958.22592	0.02134
1956.94015	0.02134
1955.65439	0.02115
1954.36862	0.02080
1953.08285	0.02049
1951.79708	0.02037
1950.51131	0.02053
1949.22554	0.02105
1947.93977	0.02196
1946.65400	0.02301
1945.36823	0.02376
1944.08247	0.02392
1942.79670	0.02364
1941.51093	0.02334
1940.22516	0.02330
1938.93939	0.02336
1937.65362	0.02325
1936.36785	0.02295
1935.08208	0.02275
1933.79632	0.02288
1932.51055	0.02331
1931.22478	0.02380
1929.93901	0.02412
1928.65324	0.02419
1927.36747	0.02409
1926.08170	0.02398
1924.79593	0.02399
1923.51016	0.02413
1922.22440	0.02430
1920.93863	0.02451
1919.65286	0.02477
1918.36709	0.02503
1917.08132	0.02511
1915.79555	0.02500
1914.50978	0.02484
1913.22401	0.02483
1911.93825	0.02508
1910.65248	0.02548
1909.36671	0.02579
1908.08094	0.02583
1906.79517	0.02569
1905.50940	0.02557
1904.22363	0.02556
1902.93786	0.02564
1901.65209	0.02579
1900.36633	0.02606
1899.08056	0.02640
1897.79479	0.02658
1896.50902	0.02638
1895.22325	0.02578
1893.93748	0.02508
1892.65171	0.02469
1891.36594	0.02480
1890.08018	0.02525
1888.79441	0.02573
1887.50864	0.02603
1886.22287	0.02608
1884.93710	0.02591
1883.65133	0.02564
1882.36556	0.02539
1881.07979	0.02519
1879.79402	0.02500
1878.50826	0.02483
1877.22249	0.02478
1875.93672	0.02488
1874.65095	0.02502
1873.36518	0.02508
1872.07941	0.02508
1870.79364	0.02511
1869.50787	0.02529
1868.22211	0.02562
1866.93634	0.02603
1865.65057	0.02633
1864.36480	0.02636
1863.07903	0.02609
1861.79326	0.02570
1860.50749	0.02541
1859.22172	0.02540
1857.93595	0.02566
1856.65019	0.02599
1855.36442	0.02619
1854.07865	0.02621
1852.79288	0.02619
1851.50711	0.02622
1850.22134	0.02626
1848.93557	0.02626
1847.64980	0.02625
1846.36404	0.02627
1845.07827	0.02627
1843.79250	0.02619
1842.50673	0.02612
1841.22096	0.02620
1839.93519	0.02646
1838.64942	0.02675
1837.36365	0.02690
1836.07788	0.02684
1834.79212	0.02664
1833.50635	0.02643
1832.22058	0.02636
1830.93481	0.02647
1829.64904	0.02663
1828.36327	0.02675
1827.07750	0.02683
1825.79173	0.02692
1824.50597	0.02702
1823.22020	0.02714
1821.93443	0.02725
1820.64866	0.02734
1819.36289	0.02732
1818.07712	0.02716
1816.79135	0.02691
1815.50558	0.02668
1814.21981	0.02657
1812.93405	0.02654
1811.64828	0.02654
1810.36251	0.02653
1809.07674	0.02649
1807.79097	0.02639
1806.50520	0.02624
1805.21943	0.02610
1803.93366	0.02609
1802.64790	0.02624
1801.36213	0.02645
1800.07636	0.02660
1798.79059	0.02668
1797.50482	0.02670
1796.21905	0.02673
1794.93328	0.02679
1793.64751	0.02688
1792.36174	0.02696
1791.07598	0.02698
1789.79021	0.02698
1788.50444	0.02702
1787.21867	0.02714
1785.93290	0.02726
1784.64713	0.02731
1783.36136	0.02730
1782.07559	0.02725
1780.78983	0.02718
1779.50406	0.02710
1778.21829	0.02703
1776.93252	0.02707
1775.64675	0.02725
1774.36098	0.02756
1773.07521	0.02786
1771.78944	0.02800
1770.50367	0.02803
1769.21791	0.02807
1767.93214	0.02815
1766.64637	0.02821
1765.36060	0.02820
1764.07483	0.02816
1762.78906	0.02811
1761.50329	0.02806
1760.21752	0.02803
1758.93176	0.02808
1757.64599	0.02818
1756.36022	0.02829
1755.07445	0.02840
1753.78868	0.02859
1752.50291	0.02880
1751.21714	0.02891
1749.93137	0.02883
1748.64560	0.02861
1747.35984	0.02839
1746.07407	0.02829
1744.78830	0.02831
1743.50253	0.02843
1742.21676	0.02860
1740.93099	0.02880
1739.64522	0.02899
1738.35945	0.02917
1737.07369	0.02944
1735.78792	0.02987
1734.50215	0.03032
1733.21638	0.03057
1731.93061	0.03059
1730.64484	0.03053
1729.35907	0.03054
1728.07330	0.03063
1726.78753	0.03080
1725.50177	0.03100
1724.21600	0.03119
1722.93023	0.03139
1721.64446	0.03168
1720.35869	0.03219
1719.07292	0.03287
1717.78715	0.03355
1716.50138	0.03403
1715.21561	0.03436
1713.92985	0.03466
1712.64408	0.03504
1711.35831	0.03552
1710.07254	0.03611
1708.78677	0.03675
1707.50100	0.03740
1706.21523	0.03799
1704.92946	0.03851
1703.64370	0.03909
1702.35793	0.03983
1701.07216	0.04061
1699.78639	0.04117
1698.50062	0.04152
1697.21485	0.04180
1695.92908	0.04207
1694.64331	0.04224
1693.35754	0.04242
1692.07178	0.04274
1690.78601	0.04317
1689.50024	0.04360
1688.21447	0.04403
1686.92870	0.04460
1685.64293	0.04529
1684.35716	0.04588
1683.07139	0.04623
1681.78563	0.04644
1680.49986	0.04669
1679.21409	0.04705
1677.92832	0.04751
1676.64255	0.04807
1675.35678	0.04867
1674.07101	0.04924
1672.78524	0.04981
1671.49947	0.05040
1670.21371	0.05094
1668.92794	0.05139
1667.64217	0.05175
1666.35640	0.05214
1665.07063	0.05262
1663.78486	0.05316
1662.49909	0.05365
1661.21332	0.05401
1659.92756	0.05425
1658.64179	0.05446
1657.35602	0.05474
1656.07025	0.05521
1654.78448	0.05586
1653.49871	0.05640
1652.21294	0.05653
1650.92717	0.05631
1649.64140	0.05610
1648.35564	0.05612
1647.06987	0.05627
1645.78410	0.05639
1644.49833	0.05639
1643.21256	0.05634
1641.92679	0.05629
1640.64102	0.05623
1639.35525	0.05620
1638.06949	0.05621
1636.78372	0.05625
1635.49795	0.05619
1634.21218	0.05598
1632.92641	0.05568
1631.64064	0.05543
1630.35487	0.05528
1629.06910	0.05521
1627.78333	0.05516
1626.49757	0.05512
1625.21180	0.05508
1623.92603	0.05501
1622.64026	0.05492
1621.35449	0.05484
1620.06872	0.05484
1618.78295	0.05493
1617.49718	0.05497
1616.21142	0.05485
1614.92565	0.05461
1613.63988	0.05440
1612.35411	0.05430
1611.06834	0.05427
1609.78257	0.05425
1608.49680	0.05425
1607.21103	0.05430
1605.92526	0.05442
1604.63950	0.05459
1603.35373	0.05478
1602.06796	0.05495
1600.78219	0.05508
1599.49642	0.05514
1598.21065	0.05517
1596.92488	0.05522
1595.63911	0.05531
1594.35335	0.05545
1593.06758	0.05562
1591.78181	0.05579
1590.49604	0.05593
1589.21027	0.05603
1587.92450	0.05608
1586.63873	0.05611
1585.35296	0.05613
1584.06719	0.05623
1582.78143	0.05643
1581.49566	0.05671
1580.20989	0.05701
1578.92412	0.05733
1577.63835	0.05769
1576.35258	0.05804
1575.06681	0.05828
1573.78104	0.05845
1572.49528	0.05866
1571.20951	0.05894
1569.92374	0.05920
1568.63797	0.05937
1567.35220	0.05946
1566.06643	0.05955
1564.78066	0.05968
1563.49489	0.05987
1562.20912	0.06017
1560.92336	0.06055
1559.63759	0.06085
1558.35182	0.06088
1557.06605	0.06071
1555.78028	0.06056
1554.49451	0.06054
1553.20874	0.06061
1551.92297	0.06067
1550.63721	0.06070
1549.35144	0.06065
1548.06567	0.06052
1546.77990	0.06039
1545.49413	0.06032
1544.20836	0.06031
1542.92259	0.06032
1541.63682	0.06032
1540.35105	0.06020
1539.06529	0.05987
1537.77952	0.05941
1536.49375	0.05904
1535.20798	0.05888
1533.92221	0.05882
1532.63644	0.05875
1531.35067	0.05869
1530.06490	0.05877
1528.77914	0.05902
1527.49337	0.05938
1526.20760	0.05977
1524.92183	0.06013
1523.63606	0.06054
1522.35029	0.06101
1521.06452	0.06152
1519.77875	0.06208
1518.49298	0.06279
1517.20722	0.06368
1515.92145	0.06464
1514.63568	0.06562
1513.34991	0.06663
1512.06414	0.06769
1510.77837	0.06881
1509.49260	0.07007
1508.20683	0.07146
1506.92107	0.07281
1505.63530	0.07394
1504.34953	0.07483
1503.06376	0.07564
1501.77799	0.07648
1500.49222	0.07739
1499.20645	0.07833
1497.92068	0.07922
1496.63491	0.07999
1495.34915	0.08058
1494.06338	0.08106
1492.77761	0.08158
1491.49184	0.08227
1490.20607	0.08309
1488.92030	0.08399
1487.63453	0.08493
1486.34876	0.08589
1485.06299	0.08691
1483.77723	0.08801
1482.49146	0.08924
1481.20569	0.09055
1479.91992	0.09191
1478.63415	0.09330
1477.34838	0.09469
1476.06261	0.09606
1474.77684	0.09738
1473.49108	0.09861
1472.20531	0.09972
1470.91954	0.10072
1469.63377	0.10172
1468.34800	0.10279
1467.06223	0.10392
1465.77646	0.10499
1464.49069	0.10592
1463.20492	0.10668
1461.91916	0.10738
1460.63339	0.10815
1459.34762	0.10910
1458.06185	0.11016
1456.77608	0.11115
1455.49031	0.11190
1454.20454	0.11246
1452.91877	0.11296
1451.63301	0.11343
1450.34724	0.11384
1449.06147	0.11415
1447.77570	0.11433
1446.48993	0.11436
1445.20416	0.11423
1443.91839	0.11393
1442.63262	0.11348
1441.34685	0.11291
1440.06109	0.11232
1438.77532	0.11178
1437.48955	0.11129
1436.20378	0.11083
1434.91801	0.11049
1433.63224	0.11045
1432.34647	0.11076
1431.06070	0.11138
1429.77494	0.11220
1428.48917	0.11316
1427.20340	0.11426
1425.91763	0.11552
1424.63186	0.11692
1423.34609	0.11840
1422.06032	0.11992
1420.77455	0.12142
1419.48878	0.12277
1418.20302	0.12384
1416.91725	0.12468
1415.63148	0.12538
1414.34571	0.12599
1413.05994	0.12648
1411.77417	0.12682
1410.48840	0.12698
1409.20263	0.12695
1407.91687	0.12673
1406.63110	0.12629
1405.34533	0.12557
1404.05956	0.12457
1402.77379	0.12335
1401.48802	0.12198
1400.20225	0.12050
1398.91648	0.11888
1397.63071	0.11714
1396.34495	0.11529
1395.05918	0.11337
1393.77341	0.11138
1392.48764	0.10939
1391.20187	0.10747
1389.91610	0.10567
1388.63033	0.10402
1387.34456	0.10249
1386.05880	0.10106
1384.77303	0.09970
1383.48726	0.09840
1382.20149	0.09711
1380.91572	0.09583
1379.62995	0.09455
1378.34418	0.09321
1377.05841	0.09170
1375.77264	0.08995
1374.48688	0.08792
1373.20111	0.08567
1371.91534	0.08330
1370.62957	0.08092
1369.34380	0.07863
1368.05803	0.07652
1366.77226	0.07462
1365.48649	0.07288
1364.20073	0.07118
1362.91496	0.06942
1361.62919	0.06759
1360.34342	0.06577
1359.05765	0.06408
1357.77188	0.06256
1356.48611	0.06121
1355.20034	0.06002
1353.91457	0.05893
1352.62881	0.05791
1351.34304	0.05695
1350.05727	0.05603
1348.77150	0.05514
1347.48573	0.05432
1346.19996	0.05358
1344.91419	0.05290
1343.62842	0.05228
1342.34266	0.05170
1341.05689	0.05114
1339.77112	0.05058
1338.48535	0.05000
1337.19958	0.04943
1335.91381	0.04890
1334.62804	0.04841
1333.34227	0.04795
1332.05650	0.04747
1330.77074	0.04698
1329.48497	0.04652
1328.19920	0.04612
1326.91343	0.04577
1325.62766	0.04544
1324.34189	0.04515
1323.05612	0.04489
1321.77035	0.04466
1320.48459	0.04443
1319.19882	0.04417
1317.91305	0.04390
1316.62728	0.04361
1315.34151	0.04329
1314.05574	0.04294
1312.76997	0.04258
1311.48420	0.04222
1310.19843	0.04189
1308.91267	0.04162
1307.62690	0.04141
1306.34113	0.04124
1305.05536	0.04107
1303.76959	0.04086
1302.48382	0.04065
1301.19805	0.04047
1299.91228	0.04031
1298.62652	0.04014
1297.34075	0.03991
1296.05498	0.03963
1294.76921	0.03936
1293.48344	0.03917
1292.19767	0.03906
1290.91190	0.03898
1289.62613	0.03885
1288.34036	0.03867
1287.05460	0.03846
1285.76883	0.03828
1284.48306	0.03810
1283.19729	0.03789
1281.91152	0.03763
1280.62575	0.03735
1279.33998	0.03711
1278.05421	0.03694
1276.76845	0.03680
1275.48268	0.03665
1274.19691	0.03645
1272.91114	0.03624
1271.62537	0.03605
1270.33960	0.03589
1269.05383	0.03573
1267.76806	0.03555
1266.48229	0.03538
1265.19653	0.03524
1263.91076	0.03512
1262.62499	0.03501
1261.33922	0.03487
1260.05345	0.03469
1258.76768	0.03452
1257.48191	0.03440
1256.19614	0.03434
1254.91037	0.03432
1253.62461	0.03428
1252.33884	0.03418
1251.05307	0.03404
1249.76730	0.03390
1248.48153	0.03378
1247.19576	0.03368
1245.90999	0.03359
1244.62422	0.03347
1243.33846	0.03333
1242.05269	0.03319
1240.76692	0.03308
1239.48115	0.03301
1238.19538	0.03296
1236.90961	0.03292
1235.62384	0.03284
1234.33807	0.03274
1233.05230	0.03263
1231.76654	0.03252
1230.48077	0.03240
1229.19500	0.03228
1227.90923	0.03217
1226.62346	0.03207
1225.33769	0.03196
1224.05192	0.03184
1222.76615	0.03170
1221.48039	0.03157
1220.19462	0.03146
1218.90885	0.03140
1217.62308	0.03138
1216.33731	0.03138
1215.05154	0.03139
1213.76577	0.03137
1212.48000	0.03132
1211.19423	0.03124
1209.90847	0.03117
1208.62270	0.03112
1207.33693	0.03112
1206.05116	0.03118
1204.76539	0.03126
1203.47962	0.03133
1202.19385	0.03137
1200.90808	0.03135
1199.62232	0.03127
1198.33655	0.03134
1197.05078	0.03144
1195.76501	0.03150
1194.47924	0.03149
1193.19347	0.03140
1191.90770	0.03128
1190.62193	0.03122
1189.33616	0.03127
1188.05040	0.03138
1186.76463	0.03148
1185.47886	0.03151
1184.19309	0.03150
1182.90732	0.03152
1181.62155	0.03160
1180.33578	0.03166
1179.05001	0.03162
1177.76425	0.03148
1176.47848	0.03133
1175.19271	0.03126
1173.90694	0.03132
1172.62117	0.03143
1171.33540	0.03152
1170.04963	0.03158
1168.76386	0.03165
1167.47809	0.03175
1166.19233	0.03187
1164.90656	0.03201
1163.62079	0.03214
1162.33502	0.03225
1161.04925	0.03230
1159.76348	0.03232
1158.47771	0.03235
1157.19194	0.03241
1155.90618	0.03252
1154.62041	0.03265
1153.33464	0.03280
1152.04887	0.03299
1150.76310	0.03325
1149.47733	0.03355
1148.19156	0.03386
1146.90579	0.03418
1145.62002	0.03452
1144.33426	0.03491
1143.04849	0.03535
1141.76272	0.03585
1140.47695	0.03645
1139.19118	0.03720
1137.90541	0.03810
1136.61964	0.03911
1135.33387	0.04024
1134.04811	0.04152
1132.76234	0.04296
1131.47657	0.04458
1130.19080	0.04636
1128.90503	0.04831
1127.61926	0.05049
1126.33349	0.05295
1125.04772	0.05570
1123.76195	0.05871
1122.47619	0.06193
1121.19042	0.06528
1119.90465	0.06869
1118.61888	0.07211
1117.33311	0.07554
1116.04734	0.07902
1114.76157	0.08251
1113.47580	0.08593
1112.19004	0.08922
1110.90427	0.09243
1109.61850	0.09559
1108.33273	0.09870
1107.04696	0.10172
1105.76119	0.10463
1104.47542	0.10744
1103.18965	0.11012
1101.90388	0.11265
1100.61812	0.11504
1099.33235	0.11730
1098.04658	0.11945
1096.76081	0.12151
1095.47504	0.12346
1094.18927	0.12527
1092.90350	0.12687
1091.61773	0.12826
1090.33197	0.12952
1089.04620	0.13075
1087.76043	0.13202
1086.47466	0.13329
1085.18889	0.13450
1083.90312	0.13567
1082.61735	0.13690
1081.33158	0.13826
1080.04581	0.13975
1078.76005	0.14136
1077.47428	0.14311
1076.18851	0.14502
1074.90274	0.14708
1073.61697	0.14926
1072.33120	0.15157
1071.04543	0.15401
1069.75966	0.15653
1068.47390	0.15913
1067.18813	0.16178
1065.90236	0.16447
1064.61659	0.16721
1063.33082	0.17003
1062.04505	0.17297
1060.75928	0.17600
1059.47351	0.17909
1058.18774	0.18216
1056.90198	0.18519
1055.61621	0.18816
1054.33044	0.19101
1053.04467	0.19377
1051.75890	0.19653
1050.47313	0.19942
1049.18736	0.20248
1047.90159	0.20568
1046.61583	0.20897
1045.33006	0.21232
1044.04429	0.21573
1042.75852	0.21920
1041.47275	0.22275
1040.18698	0.22636
1038.90121	0.22998
1037.61544	0.23357
1036.32967	0.23712
1035.04391	0.24065
1033.75814	0.24420
1032.47237	0.24769
1031.18660	0.25106
1029.90083	0.25423
1028.61506	0.25721
1027.32929	0.26000
1026.04352	0.26257
1024.75775	0.26484
1023.47199	0.26673
1022.18622	0.26824
1020.90045	0.26939
1019.61468	0.27022
1018.32891	0.27077
1017.04314	0.27098
1015.75737	0.27077
1014.47160	0.27007
1013.18584	0.26889
1011.90007	0.26726
1010.61430	0.26522
1009.32853	0.26275
1008.04276	0.25984
1006.75699	0.25645
1005.47122	0.25257
1004.18545	0.24826
1002.89968	0.24357
1001.61392	0.23856
1000.32815	0.23325
999.04238	0.22765
997.75661	0.22183
996.47084	0.21591
995.18507	0.20997
993.89930	0.20406
992.61353	0.19816
991.32777	0.19229
990.04200	0.18651
988.75623	0.18090
987.47046	0.17548
986.18469	0.17028
984.89892	0.16532
983.61315	0.16063
982.32738	0.15619
981.04161	0.15195
979.75585	0.14786
978.47008	0.14392
977.18431	0.14018
975.89854	0.13679
974.61277	0.13385
973.32700	0.13135
972.04123	0.12921
970.75546	0.12743
969.46970	0.12612
968.18393	0.12542
966.89816	0.12535
965.61239	0.12579
964.32662	0.12651
963.04085	0.12732
961.75508	0.12799
960.46931	0.12833
959.18354	0.12812
957.89778	0.12724
956.61201	0.12574
955.32624	0.12375
954.04047	0.12146
952.75470	0.11902
951.46893	0.11658
950.18316	0.11420
948.89739	0.11182
947.61163	0.10934
946.32586	0.10681
945.04009	0.10438
943.75432	0.10214
942.46855	0.10003
941.18278	0.09797
939.89701	0.09596
938.61124	0.09405
937.32547	0.09225
936.03971	0.09056
934.75394	0.08898
933.46817	0.08751
932.18240	0.08614
930.89663	0.08481
929.61086	0.08354
928.32509	0.08238
927.03932	0.08135
925.75356	0.08039
924.46779	0.07942
923.18202	0.07841
921.89625	0.07737
920.61048	0.07632
919.32471	0.07530
918.03894	0.07432
916.75317	0.07342
915.46740	0.07262
914.18164	0.07193
912.89587	0.07131
911.61010	0.07074
910.32433	0.07015
909.03856	0.06950
907.75279	0.06875
906.46702	0.06791
905.18125	0.06702
903.89549	0.06618
902.60972	0.06550
901.32395	0.06499
900.03818	0.06456
898.75241	0.06413
897.46664	0.06372
896.18087	0.06338
894.89510	0.06307
893.60933	0.06269
892.32357	0.06221
891.03780	0.06168
889.75203	0.06127
888.46626	0.06110
887.18049	0.06132
885.89472	0.06210
884.60895	0.06367
883.32318	0.06608
882.03742	0.06906
880.75165	0.07204
879.46588	0.07447
878.18011	0.07622
876.89434	0.07768
875.60857	0.07934
874.32280	0.08130
873.03703	0.08313
871.75126	0.08428
870.46550	0.08445
869.17973	0.08369
867.89396	0.08217
866.60819	0.08003
865.32242	0.07747
864.03665	0.07475
862.75088	0.07211
861.46511	0.06971
860.17935	0.06760
858.89358	0.06576
857.60781	0.06416
856.32204	0.06280
855.03627	0.06167
853.75050	0.06071
852.46473	0.05989
851.17896	0.05914
849.89319	0.05843
848.60743	0.05779
847.32166	0.05726
846.03589	0.05684
844.75012	0.05648
843.46435	0.05612
842.17858	0.05573
840.89281	0.05533
839.60704	0.05497
838.32128	0.05461
837.03551	0.05422
835.74974	0.05379
834.46397	0.05338
833.17820	0.05308
831.89243	0.05285
830.60666	0.05265
829.32089	0.05239
828.03512	0.05208
826.74936	0.05176
825.46359	0.05149
824.17782	0.05129
822.89205	0.05114
821.60628	0.05102
820.32051	0.05093
819.03474	0.05091
817.74897	0.05096
816.46321	0.05104
815.17744	0.05110
813.89167	0.05107
812.60590	0.05091
811.32013	0.05065
810.03436	0.05036
808.74859	0.05012
807.46282	0.04995
806.17705	0.04985
804.89129	0.04978
803.60552	0.04972
802.31975	0.04967
801.03398	0.04962
799.74821	0.04953
798.46244	0.04941
797.17667	0.04927
795.89090	0.04915
794.60513	0.04909
793.31937	0.04909
792.03360	0.04910
790.74783	0.04906
789.46206	0.04892
788.17629	0.04869
786.89052	0.04842
785.60475	0.04819
784.31898	0.04804
783.03322	0.04795
781.74745	0.04789
780.46168	0.04780
779.17591	0.04768
777.89014	0.04752
776.60437	0.04735
775.31860	0.04718
774.03283	0.04701
772.74706	0.04688
771.46130	0.04680
770.17553	0.04680
768.88976	0.04684
767.60399	0.04692
766.31822	0.04698
765.03245	0.04699
763.74668	0.04696
762.46091	0.04691
761.17515	0.04690
759.88938	0.04693
758.60361	0.04697
757.31784	0.04695
756.03207	0.04684
754.74630	0.04670
753.46053	0.04657
752.17476	0.04648
750.88899	0.04641
749.60323	0.04638
748.31746	0.04634
747.03169	0.04628
745.74592	0.04616
744.46015	0.04599
743.17438	0.04574
741.88861	0.04539
740.60284	0.04500
739.31708	0.04472
738.03131	0.04460
736.74554	0.04457
735.45977	0.04452
734.17400	0.04440
732.88823	0.04421
731.60246	0.04401
730.31669	0.04386
729.03092	0.04381
727.74516	0.04384
726.45939	0.04388
725.17362	0.04387
723.88785	0.04384
722.60208	0.04382
721.31631	0.04385
720.03054	0.04387
718.74477	0.04386
717.45901	0.04381
716.17324	0.04370
714.88747	0.04352
713.60170	0.04330
712.31593	0.04307
711.03016	0.04289
709.74439	0.04277
708.45862	0.04266
707.17285	0.04253
705.88709	0.04236
704.60132	0.04221
703.31555	0.04211
702.02978	0.04205
700.74401	0.04200
699.45824	0.04194
698.17247	0.04189
696.88670	0.04187
695.60094	0.04188
694.31517	0.04189
693.02940	0.04185
691.74363	0.04177
690.45786	0.04164
689.17209	0.04150
687.88632	0.04137
686.60055	0.04123
685.31478	0.04106
684.02902	0.04086
682.74325	0.04065
681.45748	0.04047
680.17171	0.04031
678.88594	0.04017
677.60017	0.04008
676.31440	0.04007
675.02863	0.04016
673.74287	0.04032
672.45710	0.04047
671.17133	0.04053
669.88556	0.04053
668.59979	0.04068
667.31402	0.04072
666.02825	0.04048
664.74248	0.04036
663.45671	0.04012
662.17095	0.03977
660.88518	0.03942
659.59941	0.03916
658.31364	0.03899
657.02787	0.03891
655.74210	0.03890
654.45633	0.03889
653.17056	0.03887
651.88480	0.03885
650.59903	0.03886
649.31326	0.03891
648.02749	0.03897
646.74172	0.03904
645.45595	0.03907
644.17018	0.03908
642.88441	0.03907
641.59864	0.03907
640.31288	0.03908
639.02711	0.03911
637.74134	0.03916
636.45557	0.03920
635.16980	0.03922
633.88403	0.03924
632.59826	0.03924
631.31249	0.03935
630.02673	0.04000
628.74096	0.04093
627.45519	0.04048
626.16942	0.04158
624.88365	0.04374
623.59788	0.04610
622.31211	0.04880
621.02634	0.05205
619.74057	0.05536
618.45481	0.05789
617.16904	0.05933
615.88327	0.06003
614.59750	0.06059
613.31173	0.06151
612.02596	0.06347
610.74019	0.06762
609.45442	0.07476
608.16866	0.08395
606.88289	0.09280
605.59712	0.09936
604.31135	0.10316
603.02558	0.10478
601.73981	0.10491
600.45404	0.10400
599.16827	0.10231
597.88250	0.10006
596.59674	0.09750
595.31097	0.09486
594.02520	0.09236
592.73943	0.09018
591.45366	0.08840
590.16789	0.08708
588.88212	0.08625
587.59635	0.08599
586.31059	0.08628
585.02482	0.08708
583.73905	0.08836
582.45328	0.09012
581.16751	0.09225
579.88174	0.09456
578.59597	0.09687
577.31020	0.09911
576.02443	0.10131
574.73867	0.10348
573.45290	0.10555
572.16713	0.10755
570.88136	0.10969
569.59559	0.11232
568.30982	0.11569
567.02405	0.11977
565.73828	0.12426
564.45251	0.12860
563.16675	0.13220
561.88098	0.13463
560.59521	0.13566
559.30944	0.13512
558.02367	0.13292
556.73790	0.12918
555.45213	0.12428
554.16636	0.11878
552.88060	0.11317
551.59483	0.10774
550.30906	0.10262
549.02329	0.09786
547.73752	0.09352
546.45175	0.08962
545.16598	0.08617
543.88021	0.08311
542.59444	0.08033
541.30868	0.07776
540.02291	0.07540
538.73714	0.07329
537.45137	0.07142
536.16560	0.06975
534.87983	0.06819
533.59406	0.06672
532.30829	0.06531
531.02253	0.06396
529.73676	0.06270
528.45099	0.06160
527.16522	0.06067
525.87945	0.05986
524.59368	0.05911
523.30791	0.05833
522.02214	0.05747
520.73637	0.05654
519.45061	0.05556
518.16484	0.05458
516.87907	0.05359
515.59330	0.05258
514.30753	0.05160
513.02176	0.05072
511.73599	0.05005
510.45022	0.04957
509.16446	0.04920
507.87869	0.04882
506.59292	0.04831
505.30715	0.04766
504.02138	0.04693
502.73561	0.04622
501.44984	0.04564
500.16407	0.04526
498.87830	0.04506
497.59254	0.04490
496.30677	0.04466
495.02100	0.04429
493.73523	0.04381
492.44946	0.04331
491.16369	0.04289
489.87792	0.04257
488.59215	0.04231
487.30639	0.04206
486.02062	0.04182
484.73485	0.04167
483.44908	0.04166
482.16331	0.04179
480.87754	0.04201
479.59177	0.04225
478.30600	0.04246
477.02023	0.04261
475.73447	0.04275
474.44870	0.04291
473.16293	0.04310
471.87716	0.04328
470.59139	0.04346
469.30562	0.04363
468.01985	0.04371
466.73408	0.04363
465.44832	0.04337
464.16255	0.04299
462.87678	0.04255
461.59101	0.04208
460.30524	0.04158
459.01947	0.04103
457.73370	0.04045
456.44793	0.03988
455.16216	0.03937
453.87640	0.03893
452.59063	0.03855
451.30486	0.03817
450.01909	0.03776
448.73332	0.03734
447.44755	0.03694
446.16178	0.03655
444.87601	0.03618
443.59025	0.03581
442.30448	0.03545
441.01871	0.03513
439.73294	0.03488
438.44717	0.03471
437.16140	0.03457
435.87563	0.03442
434.58986	0.03426
433.30409	0.03411
432.01833	0.03399
430.73256	0.03383
429.44679	0.03362
428.16102	0.03336
426.87525	0.03312
425.58948	0.03290
424.30371	0.03268
423.01794	0.03240
421.73218	0.03209
420.44641	0.03177
419.16064	0.03145
417.87487	0.03109
416.58910	0.03070
415.30333	0.03032
414.01756	0.03001
412.73179	0.02976
411.44602	0.02953
410.16026	0.02929
408.87449	0.02906
407.58872	0.02886
406.30295	0.02873
405.01718	0.02864
403.73141	0.02856
402.44564	0.02849
401.15987	0.02846
399.87411	0.02845
