3997.45528	0.03938
3996.16951	0.03940
3994.88374	0.03909
3993.59798	0.03848
3992.31221	0.03783
3991.02644	0.03734
3989.74067	0.03707
3988.45490	0.03699
3987.16913	0.03706
3985.88336	0.03731
3984.59759	0.03771
3983.31183	0.03822
3982.02606	0.03869
3980.74029	0.03903
3979.45452	0.03917
3978.16875	0.03921
3976.88298	0.03933
3975.59721	0.03965
3974.31144	0.04002
3973.02567	0.04023
3971.73991	0.04016
3970.45414	0.03991
3969.16837	0.03959
3967.88260	0.03925
3966.59683	0.03893
3965.31106	0.03875
3964.02529	0.03878
3962.73952	0.03886
3961.45376	0.03867
3960.16799	0.03811
3958.88222	0.03754
3957.59645	0.03742
3956.31068	0.03771
3955.02491	0.03787
3953.73914	0.03756
3952.45337	0.03709
3951.16760	0.03712
3949.88184	0.03783
3948.59607	0.03876
3947.31030	0.03922
3946.02453	0.03896
3944.73876	0.03829
3943.45299	0.03774
3942.16722	0.03760
3940.88145	0.03786
3939.59569	0.03827
3938.30992	0.03861
3937.02415	0.03871
3935.73838	0.03865
3934.45261	0.03860
3933.16684	0.03866
3931.88107	0.03880
3930.59530	0.03893
3929.30953	0.03910
3928.02377	0.03938
3926.73800	0.03969
3925.45223	0.03981
3924.16646	0.03961
3922.88069	0.03923
3921.59492	0.03892
3920.30915	0.03884
3919.02338	0.03898
3917.73762	0.03921
3916.45185	0.03936
3915.16608	0.03925
3913.88031	0.03877
3912.59454	0.03802
3911.30877	0.03728
3910.02300	0.03689
3908.73723	0.03706
3907.45146	0.03771
3906.16570	0.03843
3904.87993	0.03869
3903.59416	0.03819
3902.30839	0.03702
3901.02262	0.03574
3899.73685	0.03512
3898.45108	0.03560
3897.16531	0.03685
3895.87955	0.03806
3894.59378	0.03861
3893.30801	0.03852
3892.02224	0.03820
3890.73647	0.03799
3889.45070	0.03779
3888.16493	0.03735
3886.87916	0.03673
3885.59339	0.03623
3884.30763	0.03584
3883.02186	0.03532
3881.73609	0.03472
3880.45032	0.03453
3879.16455	0.03506
3877.87878	0.03602
3876.59301	0.03687
3875.30724	0.03739
3874.02148	0.03770
3872.73571	0.03787
3871.44994	0.03787
3870.16417	0.03778
3868.87840	0.03771
3867.59263	0.03764
3866.30686	0.03748
3865.02109	0.03723
3863.73532	0.03677
3862.44956	0.03602
3861.16379	0.03521
3859.87802	0.03471
3858.59225	0.03467
3857.30648	0.03495
3856.02071	0.03535
3854.73494	0.03585
3853.44917	0.03643
3852.16341	0.03679
3850.87764	0.03667
3849.59187	0.03629
3848.30610	0.03617
3847.02033	0.03654
3845.73456	0.03716
3844.44879	0.03763
3843.16302	0.03766
3841.87725	0.03712
3840.59149	0.03608
3839.30572	0.03484
3838.01995	0.03398
3836.73418	0.03393
3835.44841	0.03459
3834.16264	0.03552
3832.87687	0.03632
3831.59110	0.03680
3830.30534	0.03692
3829.01957	0.03685
3827.73380	0.03684
3826.44803	0.03700
3825.16226	0.03714
3823.87649	0.03693
3822.59072	0.03635
3821.30495	0.03578
3820.01918	0.03559
3818.73342	0.03577
3817.44765	0.03610
3816.16188	0.03641
3814.87611	0.03660
3813.59034	0.03654
3812.30457	0.03635
3811.01880	0.03640
3809.73303	0.03671
3808.44726	0.03697
3807.16150	0.03696
3805.87573	0.03680
3804.58996	0.03667
3803.30419	0.03661
3802.01842	0.03668
3800.73265	0.03686
3799.44688	0.03691
3798.16111	0.03658
3796.87535	0.03600
3795.58958	0.03545
3794.30381	0.03504
3793.01804	0.03472
3791.73227	0.03454
3790.44650	0.03459
3789.16073	0.03483
3787.87496	0.03512
3786.58919	0.03533
3785.30343	0.03547
3784.01766	0.03555
3782.73189	0.03555
3781.44612	0.03546
3780.16035	0.03534
3778.87458	0.03516
3777.58881	0.03479
3776.30304	0.03427
3775.01728	0.03394
3773.73151	0.03408
3772.44574	0.03455
3771.15997	0.03489
3769.87420	0.03480
3768.58843	0.03435
3767.30266	0.03389
3766.01689	0.03378
3764.73112	0.03411
3763.44536	0.03455
3762.15959	0.03461
3760.87382	0.03415
3759.58805	0.03347
3758.30228	0.03305
3757.01651	0.03322
3755.73074	0.03386
3754.44497	0.03437
3753.15921	0.03428
3751.87344	0.03366
3750.58767	0.03305
3749.30190	0.03292
3748.01613	0.03320
3746.73036	0.03334
3745.44459	0.03308
3744.15882	0.03285
3742.87305	0.03304
3741.58729	0.03357
3740.30152	0.03410
3739.01575	0.03439
3737.72998	0.03443
3736.44421	0.03448
3735.15844	0.03469
3733.87267	0.03482
3732.58690	0.03455
3731.30114	0.03399
3730.01537	0.03348
3728.72960	0.03324
3727.44383	0.03339
3726.15806	0.03391
3724.87229	0.03448
3723.58652	0.03458
3722.30075	0.03399
3721.01498	0.03305
3719.72922	0.03243
3718.44345	0.03263
3717.15768	0.03361
3715.87191	0.03484
3714.58614	0.03573
3713.30037	0.03602
3712.01460	0.03584
3710.72883	0.03542
3709.44307	0.03482
3708.15730	0.03411
3706.87153	0.03339
3705.58576	0.03287
3704.29999	0.03269
3703.01422	0.03292
3701.72845	0.03352
3700.44268	0.03426
3699.15691	0.03481
3697.87115	0.03488
3696.58538	0.03438
3695.29961	0.03344
3694.01384	0.03241
3692.72807	0.03178
3691.44230	0.03185
3690.15653	0.03247
3688.87076	0.03329
3687.58500	0.03393
3686.29923	0.03410
3685.01346	0.03373
3683.72769	0.03317
3682.44192	0.03297
3681.15615	0.03341
3679.87038	0.03435
3678.58461	0.03527
3677.29884	0.03556
3676.01308	0.03500
3674.72731	0.03385
3673.44154	0.03257
3672.15577	0.03163
3670.87000	0.03135
3669.58423	0.03168
3668.29846	0.03210
3667.01269	0.03225
3665.72693	0.03220
3664.44116	0.03215
3663.15539	0.03208
3661.86962	0.03194
3660.58385	0.03185
3659.29808	0.03204
3658.01231	0.03256
3656.72654	0.03321
3655.44077	0.03380
3654.15501	0.03404
3652.86924	0.03369
3651.58347	0.03271
3650.29770	0.03148
3649.01193	0.03057
3647.72616	0.03035
3646.44039	0.03078
3645.15462	0.03163
3643.86886	0.03266
3642.58309	0.03366
3641.29732	0.03445
3640.01155	0.03495
3638.72578	0.03518
3637.44001	0.03530
3636.15424	0.03550
3634.86847	0.03584
3633.58270	0.03616
3632.29694	0.03596
3631.01117	0.03487
3629.72540	0.03323
3628.43963	0.03208
3627.15386	0.03225
3625.86809	0.03374
3624.58232	0.03585
3623.29655	0.03774
3622.01079	0.03878
3620.72502	0.03887
3619.43925	0.03844
3618.15348	0.03811
3616.86771	0.03825
3615.58194	0.03868
3614.29617	0.03901
3613.01040	0.03898
3611.72463	0.03864
3610.43887	0.03824
3609.15310	0.03804
3607.86733	0.03814
3606.58156	0.03833
3605.29579	0.03833
3604.01002	0.03815
3602.72425	0.03812
3601.43848	0.03851
3600.15272	0.03923
3598.86695	0.03998
3597.58118	0.04050
3596.29541	0.04076
3595.00964	0.04082
3593.72387	0.04088
3592.43810	0.04117
3591.15233	0.04169
3589.86656	0.04209
3588.58080	0.04201
3587.29503	0.04140
3586.00926	0.04068
3584.72349	0.04038
3583.43772	0.04066
3582.15195	0.04118
3580.86618	0.04151
3579.58041	0.04156
3578.29464	0.04166
3577.00888	0.04214
3575.72311	0.04291
3574.43734	0.04353
3573.15157	0.04371
3571.86580	0.04353
3570.58003	0.04338
3569.29426	0.04353
3568.00849	0.04399
3566.72273	0.04450
3565.43696	0.04491
3564.15119	0.04518
3562.86542	0.04539
3561.57965	0.04551
3560.29388	0.04553
3559.00811	0.04546
3557.72234	0.04535
3556.43657	0.04522
3555.15081	0.04509
3553.86504	0.04498
3552.57927	0.04487
3551.29350	0.04471
3550.00773	0.04457
3548.72196	0.04469
3547.43619	0.04535
3546.15042	0.04648
3544.86466	0.04769
3543.57889	0.04852
3542.29312	0.04886
3541.00735	0.04893
3539.72158	0.04904
3538.43581	0.04925
3537.15004	0.04945
3535.86427	0.04950
3534.57850	0.04946
3533.29274	0.04950
3532.00697	0.04976
3530.72120	0.05019
3529.43543	0.05054
3528.14966	0.05058
3526.86389	0.05034
3525.57812	0.05013
3524.29235	0.05029
3523.00659	0.05083
3521.72082	0.05147
3520.43505	0.05185
3519.14928	0.05182
3517.86351	0.05150
3516.57774	0.05113
3515.29197	0.05092
3514.00620	0.05101
3512.72043	0.05125
3511.43467	0.05133
3510.14890	0.05105
3508.86313	0.05070
3507.57736	0.05083
3506.29159	0.05161
3505.00582	0.05261
3503.72005	0.05323
3502.43428	0.05323
3501.14852	0.05286
3499.86275	0.05255
3498.57698	0.05257
3497.29121	0.05290
3496.00544	0.05335
3494.71967	0.05376
3493.43390	0.05418
3492.14813	0.05460
3490.86236	0.05491
3489.57660	0.05500
3488.29083	0.05493
3487.00506	0.05496
3485.71929	0.05532
3484.43352	0.05604
3483.14775	0.05693
3481.86198	0.05774
3480.57621	0.05823
3479.29045	0.05830
3478.00468	0.05807
3476.71891	0.05778
3475.43314	0.05760
3474.14737	0.05751
3472.86160	0.05739
3471.57583	0.05721
3470.29006	0.05709
3469.00429	0.05717
3467.71853	0.05746
3466.43276	0.05787
3465.14699	0.05820
3463.86122	0.05829
3462.57545	0.05811
3461.28968	0.05784
3460.00391	0.05766
3458.71814	0.05767
3457.43238	0.05788
3456.14661	0.05824
3454.86084	0.05865
3453.57507	0.05900
3452.28930	0.05926
3451.00353	0.05952
3449.71776	0.05982
3448.43199	0.06008
3447.14622	0.06023
3445.86046	0.06029
3444.57469	0.06033
3443.28892	0.06030
3442.00315	0.06009
3440.71738	0.05968
3439.43161	0.05924
3438.14584	0.05901
3436.86007	0.05920
3435.57431	0.05984
3434.28854	0.06060
3433.00277	0.06098
3431.71700	0.06074
3430.43123	0.06019
3429.14546	0.05998
3427.85969	0.06038
3426.57392	0.06109
3425.28815	0.06165
3424.00239	0.06194
3422.71662	0.06218
3421.43085	0.06252
3420.14508	0.06286
3418.85931	0.06296
3417.57354	0.06282
3416.28777	0.06272
3415.00200	0.06284
3413.71624	0.06300
3412.43047	0.06286
3411.14470	0.06237
3409.85893	0.06197
3408.57316	0.06219
3407.28739	0.06302
3406.00162	0.06393
3404.71585	0.06442
3403.43008	0.06442
3402.14432	0.06426
3400.85855	0.06421
3399.57278	0.06428
3398.28701	0.06427
3397.00124	0.06406
3395.71547	0.06379
3394.42970	0.06372
3393.14393	0.06393
3391.85817	0.06418
3390.57240	0.06416
3389.28663	0.06379
3388.00086	0.06331
3386.71509	0.06295
3385.42932	0.06282
3384.14355	0.06284
3382.85778	0.06294
3381.57201	0.06313
3380.28625	0.06349
3379.00048	0.06411
3377.71471	0.06493
3376.42894	0.06566
3375.14317	0.06589
3373.85740	0.06550
3372.57163	0.06482
3371.28586	0.06435
3370.00010	0.06437
3368.71433	0.06478
3367.42856	0.06519
3366.14279	0.06525
3364.85702	0.06478
3363.57125	0.06389
3362.28548	0.06295
3360.99971	0.06234
3359.71394	0.06235
3358.42818	0.06295
3357.14241	0.06385
3355.85664	0.06471
3354.57087	0.06538
3353.28510	0.06588
3351.99933	0.06621
3350.71356	0.06634
3349.42779	0.06629
3348.14202	0.06615
3346.85626	0.06593
3345.57049	0.06563
3344.28472	0.06528
3342.99895	0.06503
3341.71318	0.06499
3340.42741	0.06513
3339.14164	0.06529
3337.85587	0.06531
3336.57011	0.06516
3335.28434	0.06489
3333.99857	0.06457
3332.71280	0.06431
3331.42703	0.06424
3330.14126	0.06448
3328.85549	0.06497
3327.56972	0.06547
3326.28395	0.06579
3324.99819	0.06591
3323.71242	0.06592
3322.42665	0.06589
3321.14088	0.06578
3319.85511	0.06559
3318.56934	0.06541
3317.28357	0.06541
3315.99780	0.06567
3314.71204	0.06613
3313.42627	0.06658
3312.14050	0.06677
3310.85473	0.06657
3309.56896	0.06604
3308.28319	0.06546
3306.99742	0.06518
3305.71165	0.06534
3304.42588	0.06582
3303.14012	0.06625
3301.85435	0.06635
3300.56858	0.06606
3299.28281	0.06555
3297.99704	0.06496
3296.71127	0.06438
3295.42550	0.06390
3294.13973	0.06362
3292.85397	0.06358
3291.56820	0.06377
3290.28243	0.06409
3288.99666	0.06449
3287.71089	0.06488
3286.42512	0.06516
3285.13935	0.06523
3283.85358	0.06506
3282.56781	0.06481
3281.28205	0.06467
3279.99628	0.06476
3278.71051	0.06503
3277.42474	0.06536
3276.13897	0.06560
3274.85320	0.06565
3273.56743	0.06548
3272.28166	0.06515
3270.99590	0.06485
3269.71013	0.06480
3268.42436	0.06506
3267.13859	0.06545
3265.85282	0.06571
3264.56705	0.06571
3263.28128	0.06555
3261.99551	0.06536
3260.70974	0.06524
3259.42398	0.06516
3258.13821	0.06503
3256.85244	0.06471
3255.56667	0.06413
3254.28090	0.06343
3252.99513	0.06298
3251.70936	0.06299
3250.42359	0.06333
3249.13783	0.06367
3247.85206	0.06378
3246.56629	0.06364
3245.28052	0.06334
3243.99475	0.06305
3242.70898	0.06295
3241.42321	0.06313
3240.13744	0.06346
3238.85167	0.06369
3237.56591	0.06370
3236.28014	0.06351
3234.99437	0.06312
3233.70860	0.06257
3232.42283	0.06204
3231.13706	0.06189
3229.85129	0.06227
3228.56552	0.06290
3227.27976	0.06330
3225.99399	0.06321
3224.70822	0.06272
3223.42245	0.06212
3222.13668	0.06165
3220.85091	0.06138
3219.56514	0.06123
3218.27937	0.06110
3216.99360	0.06092
3215.70784	0.06075
3214.42207	0.06070
3213.13630	0.06078
3211.85053	0.06086
3210.56476	0.06084
3209.27899	0.06077
3207.99322	0.06081
3206.70745	0.06098
3205.42169	0.06103
3204.13592	0.06063
3202.85015	0.05979
3201.56438	0.05897
3200.27861	0.05868
3198.99284	0.05901
3197.70707	0.05957
3196.42130	0.05989
3195.13553	0.05986
3193.84977	0.05967
3192.56400	0.05950
3191.27823	0.05944
3189.99246	0.05946
3188.70669	0.05958
3187.42092	0.05983
3186.13515	0.06011
3184.84938	0.06020
3183.56362	0.05993
3182.27785	0.05935
3180.99208	0.05870
3179.70631	0.05824
3178.42054	0.05811
3177.13477	0.05829
3175.84900	0.05869
3174.56323	0.05911
3173.27746	0.05932
3171.99170	0.05915
3170.70593	0.05863
3169.42016	0.05800
3168.13439	0.05745
3166.84862	0.05708
3165.56285	0.05689
3164.27708	0.05690
3162.99131	0.05707
3161.70555	0.05723
3160.41978	0.05719
3159.13401	0.05688
3157.84824	0.05642
3156.56247	0.05601
3155.27670	0.05577
3153.99093	0.05570
3152.70516	0.05562
3151.41939	0.05538
3150.13363	0.05507
3148.84786	0.05494
3147.56209	0.05514
3146.27632	0.05558
3144.99055	0.05605
3143.70478	0.05634
3142.41901	0.05636
3141.13324	0.05612
3139.84748	0.05572
3138.56171	0.05531
3137.27594	0.05489
3135.99017	0.05445
3134.70440	0.05400
3133.41863	0.05368
3132.13286	0.05355
3130.84709	0.05354
3129.56132	0.05355
3128.27556	0.05354
3126.98979	0.05355
3125.70402	0.05358
3124.41825	0.05361
3123.13248	0.05360
3121.84671	0.05353
3120.56094	0.05337
3119.27517	0.05307
3117.98940	0.05267
3116.70364	0.05233
3115.41787	0.05220
3114.13210	0.05233
3112.84633	0.05263
3111.56056	0.05298
3110.27479	0.05325
3108.98902	0.05329
3107.70325	0.05299
3106.41749	0.05240
3105.13172	0.05179
3103.84595	0.05151
3102.56018	0.05170
3101.27441	0.05214
3099.98864	0.05248
3098.70287	0.05252
3097.41710	0.05234
3096.13133	0.05220
3094.84557	0.05228
3093.55980	0.05254
3092.27403	0.05273
3090.98826	0.05266
3089.70249	0.05244
3088.41672	0.05235
3087.13095	0.05256
3085.84518	0.05296
3084.55942	0.05327
3083.27365	0.05329
3081.98788	0.05305
3080.70211	0.05270
3079.41634	0.05234
3078.13057	0.05201
3076.84480	0.05170
3075.55903	0.05149
3074.27326	0.05145
3072.98750	0.05157
3071.70173	0.05171
3070.41596	0.05169
3069.13019	0.05148
3067.84442	0.05122
3066.55865	0.05113
3065.27288	0.05138
3063.98711	0.05187
3062.70135	0.05230
3061.41558	0.05240
3060.12981	0.05215
3058.84404	0.05181
3057.55827	0.05166
3056.27250	0.05172
3054.98673	0.05177
3053.70096	0.05159
3052.41519	0.05115
3051.12943	0.05057
3049.84366	0.04997
3048.55789	0.04944
3047.27212	0.04905
3045.98635	0.04885
3044.70058	0.04877
3043.41481	0.04873
3042.12904	0.04874
3040.84328	0.04886
3039.55751	0.04915
3038.27174	0.04956
3036.98597	0.04993
3035.70020	0.05009
3034.41443	0.04998
3033.12866	0.04969
3031.84289	0.04934
3030.55712	0.04904
3029.27136	0.04887
3027.98559	0.04888
3026.69982	0.04903
3025.41405	0.04917
3024.12828	0.04916
3022.84251	0.04894
3021.55674	0.04859
3020.27097	0.04817
3018.98521	0.04773
3017.69944	0.04731
3016.41367	0.04697
3015.12790	0.04681
3013.84213	0.04679
3012.55636	0.04687
3011.27059	0.04691
3009.98482	0.04680
3008.69905	0.04651
3007.41329	0.04621
3006.12752	0.04613
3004.84175	0.04632
3003.55598	0.04660
3002.27021	0.04676
3000.98444	0.04677
2999.69867	0.04675
2998.41290	0.04681
2997.12714	0.04691
2995.84137	0.04701
2994.55560	0.04709
2993.26983	0.04709
2991.98406	0.04699
2990.69829	0.04684
2989.41252	0.04672
2988.12675	0.04668
2986.84098	0.04668
2985.55522	0.04665
2984.26945	0.04653
2982.98368	0.04627
2981.69791	0.04599
2980.41214	0.04590
2979.12637	0.04606
2977.84060	0.04627
2976.55483	0.04625
2975.26907	0.04599
2973.98330	0.04574
2972.69753	0.04582
2971.41176	0.04631
2970.12599	0.04701
2968.84022	0.04752
2967.55445	0.04768
2966.26868	0.04765
2964.98291	0.04771
2963.69715	0.04789
2962.41138	0.04803
2961.12561	0.04808
2959.83984	0.04810
2958.55407	0.04817
2957.26830	0.04824
2955.98253	0.04834
2954.69676	0.04855
2953.41100	0.04885
2952.12523	0.04909
2950.83946	0.04913
2949.55369	0.04897
2948.26792	0.04874
2946.98215	0.04853
2945.69638	0.04837
2944.41061	0.04824
2943.12484	0.04816
2941.83908	0.04817
2940.55331	0.04820
2939.26754	0.04817
2937.98177	0.04805
2936.69600	0.04784
2935.41023	0.04753
2934.12446	0.04708
2932.83869	0.04650
2931.55293	0.04586
2930.26716	0.04524
2928.98139	0.04462
2927.69562	0.04392
2926.40985	0.04306
2925.12408	0.04201
2923.83831	0.04084
2922.55254	0.03959
2921.26677	0.03834
2919.98101	0.03720
2918.69524	0.03635
2917.40947	0.03602
2916.12370	0.03635
2914.83793	0.03728
2913.55216	0.03860
2912.26639	0.04004
2910.98062	0.04138
2909.69486	0.04249
2908.40909	0.04334
2907.12332	0.04397
2905.83755	0.04440
2904.55178	0.04459
2903.26601	0.04455
2901.98024	0.04447
2900.69447	0.04454
2899.40870	0.04480
2898.12294	0.04507
2896.83717	0.04522
2895.55140	0.04526
2894.26563	0.04524
2892.97986	0.04520
2891.69409	0.04513
2890.40832	0.04505
2889.12255	0.04497
2887.83678	0.04490
2886.55102	0.04485
2885.26525	0.04480
2883.97948	0.04478
2882.69371	0.04479
2881.40794	0.04481
2880.12217	0.04479
2878.83640	0.04469
2877.55063	0.04453
2876.26487	0.04440
2874.97910	0.04438
2873.69333	0.04448
2872.40756	0.04463
2871.12179	0.04474
2869.83602	0.04472
2868.55025	0.04460
2867.26448	0.04442
2865.97871	0.04426
2864.69295	0.04411
2863.40718	0.04388
2862.12141	0.04356
2860.83564	0.04318
2859.54987	0.04275
2858.26410	0.04217
2856.97833	0.04128
2855.69256	0.04005
2854.40680	0.03863
2853.12103	0.03724
2851.83526	0.03616
2850.54949	0.03562
2849.26372	0.03574
2847.97795	0.03646
2846.69218	0.03747
2845.40641	0.03848
2844.12064	0.03930
2842.83488	0.03991
2841.54911	0.04034
2840.26334	0.04064
2838.97757	0.04081
2837.69180	0.04084
2836.40603	0.04078
2835.12026	0.04072
2833.83449	0.04068
2832.54873	0.04061
2831.26296	0.04041
2829.97719	0.04010
2828.69142	0.03979
2827.40565	0.03959
2826.11988	0.03948
2824.83411	0.03943
2823.54834	0.03941
2822.26257	0.03943
2820.97681	0.03945
2819.69104	0.03941
2818.40527	0.03930
2817.11950	0.03915
2815.83373	0.03904
2814.54796	0.03902
2813.26219	0.03915
2811.97642	0.03937
2810.69066	0.03955
2809.40489	0.03952
2808.11912	0.03925
2806.83335	0.03889
2805.54758	0.03862
2804.26181	0.03847
2802.97604	0.03828
2801.69027	0.03800
2800.40450	0.03771
2799.11874	0.03754
2797.83297	0.03749
2796.54720	0.03751
2795.26143	0.03755
2793.97566	0.03763
2792.68989	0.03777
2791.40412	0.03792
2790.11835	0.03803
2788.83259	0.03808
2787.54682	0.03804
2786.26105	0.03791
2784.97528	0.03767
2783.68951	0.03735
2782.40374	0.03705
2781.11797	0.03693
2779.83220	0.03705
2778.54643	0.03733
2777.26067	0.03759
2775.97490	0.03772
2774.68913	0.03765
2773.40336	0.03741
2772.11759	0.03711
2770.83182	0.03683
2769.54605	0.03657
2768.26028	0.03627
2766.97452	0.03601
2765.68875	0.03591
2764.40298	0.03602
2763.11721	0.03615
2761.83144	0.03609
2760.54567	0.03588
2759.25990	0.03569
2757.97413	0.03561
2756.68836	0.03562
2755.40260	0.03574
2754.11683	0.03595
2752.83106	0.03608
2751.54529	0.03596
2750.25952	0.03558
2748.97375	0.03523
2747.68798	0.03513
2746.40221	0.03522
2745.11645	0.03527
2743.83068	0.03516
2742.54491	0.03496
2741.25914	0.03480
2739.97337	0.03475
2738.68760	0.03475
2737.40183	0.03476
2736.11606	0.03475
2734.83029	0.03473
2733.54453	0.03476
2732.25876	0.03484
2730.97299	0.03493
2729.68722	0.03495
2728.40145	0.03490
2727.11568	0.03482
2725.82991	0.03474
2724.54414	0.03463
2723.25838	0.03444
2721.97261	0.03420
2720.68684	0.03397
2719.40107	0.03386
2718.11530	0.03388
2716.82953	0.03396
2715.54376	0.03399
2714.25799	0.03398
2712.97222	0.03396
2711.68646	0.03399
2710.40069	0.03410
2709.11492	0.03422
2707.82915	0.03423
2706.54338	0.03406
2705.25761	0.03383
2703.97184	0.03370
2702.68607	0.03367
2701.40031	0.03365
2700.11454	0.03359
2698.82877	0.03355
2697.54300	0.03355
2696.25723	0.03355
2694.97146	0.03353
2693.68569	0.03352
2692.39992	0.03355
2691.11415	0.03362
2689.82839	0.03368
2688.54262	0.03373
2687.25685	0.03372
2685.97108	0.03359
2684.68531	0.03334
2683.39954	0.03305
2682.11377	0.03283
2680.82800	0.03267
2679.54224	0.03253
2678.25647	0.03241
2676.97070	0.03242
2675.68493	0.03262
2674.39916	0.03295
2673.11339	0.03321
2671.82762	0.03323
2670.54185	0.03301
2669.25608	0.03269
2667.97032	0.03249
2666.68455	0.03250
2665.39878	0.03265
2664.11301	0.03278
2662.82724	0.03275
2661.54147	0.03257
2660.25570	0.03234
2658.96993	0.03217
2657.68417	0.03206
2656.39840	0.03197
2655.11263	0.03189
2653.82686	0.03191
2652.54109	0.03196
2651.25532	0.03189
2649.96955	0.03165
2648.68378	0.03137
2647.39801	0.03122
2646.11225	0.03119
2644.82648	0.03122
2643.54071	0.03124
2642.25494	0.03118
2640.96917	0.03099
2639.68340	0.03069
2638.39763	0.03041
2637.11186	0.03031
2635.82609	0.03037
2634.54033	0.03045
2633.25456	0.03044
2631.96879	0.03036
2630.68302	0.03029
2629.39725	0.03020
2628.11148	0.02995
2626.82571	0.02954
2625.53994	0.02913
2624.25418	0.02900
2622.96841	0.02919
2621.68264	0.02951
2620.39687	0.02964
2619.11110	0.02944
2617.82533	0.02903
2616.53956	0.02866
2615.25379	0.02842
2613.96802	0.02826
2612.68226	0.02811
2611.39649	0.02796
2610.11072	0.02783
2608.82495	0.02771
2607.53918	0.02767
2606.25341	0.02783
2604.96764	0.02822
2603.68187	0.02863
2602.39611	0.02876
2601.11034	0.02855
2599.82457	0.02819
2598.53880	0.02792
2597.25303	0.02782
2595.96726	0.02776
2594.68149	0.02757
2593.39572	0.02722
2592.10995	0.02686
2590.82419	0.02666
2589.53842	0.02657
2588.25265	0.02635
2586.96688	0.02592
2585.68111	0.02557
2584.39534	0.02569
2583.10957	0.02633
2581.82380	0.02704
2580.53804	0.02730
2579.25227	0.02701
2577.96650	0.02648
2576.68073	0.02610
2575.39496	0.02601
2574.10919	0.02614
2572.82342	0.02634
2571.53765	0.02647
2570.25188	0.02647
2568.96612	0.02631
2567.68035	0.02608
2566.39458	0.02588
2565.10881	0.02580
2563.82304	0.02578
2562.53727	0.02574
2561.25150	0.02570
2559.96573	0.02573
2558.67997	0.02587
2557.39420	0.02603
2556.10843	0.02612
2554.82266	0.02609
2553.53689	0.02598
2552.25112	0.02582
2550.96535	0.02561
2549.67958	0.02538
2548.39381	0.02515
2547.10805	0.02497
2545.82228	0.02484
2544.53651	0.02468
2543.25074	0.02442
2541.96497	0.02413
2540.67920	0.02396
2539.39343	0.02405
2538.10766	0.02431
2536.82190	0.02452
2535.53613	0.02458
2534.25036	0.02454
2532.96459	0.02457
2531.67882	0.02474
2530.39305	0.02501
2529.10728	0.02539
2527.82151	0.02590
2526.53574	0.02638
2525.24998	0.02650
2523.96421	0.02607
2522.67844	0.02534
2521.39267	0.02477
2520.10690	0.02462
2518.82113	0.02478
2517.53536	0.02499
2516.24959	0.02507
2514.96383	0.02501
2513.67806	0.02485
2512.39229	0.02466
2511.10652	0.02448
2509.82075	0.02433
2508.53498	0.02427
2507.24921	0.02435
2505.96344	0.02447
2504.67767	0.02440
2503.39191	0.02408
2502.10614	0.02372
2500.82037	0.02363
2499.53460	0.02386
2498.24883	0.02418
2496.96306	0.02437
2495.67729	0.02439
2494.39152	0.02426
2493.10576	0.02405
2491.81999	0.02384
2490.53422	0.02375
2489.24845	0.02382
2487.96268	0.02396
2486.67691	0.02406
2485.39114	0.02405
2484.10537	0.02395
2482.81960	0.02379
2481.53384	0.02363
2480.24807	0.02349
2478.96230	0.02337
2477.67653	0.02340
2476.39076	0.02369
2475.10499	0.02415
2473.81922	0.02451
2472.53345	0.02459
2471.24769	0.02444
2469.96192	0.02413
2468.67615	0.02373
2467.39038	0.02336
2466.10461	0.02318
2464.81884	0.02326
2463.53307	0.02343
2462.24730	0.02356
2460.96153	0.02353
2459.67577	0.02330
2458.39000	0.02295
2457.10423	0.02272
2455.81846	0.02284
2454.53269	0.02324
2453.24692	0.02362
2451.96115	0.02376
2450.67538	0.02380
2449.38962	0.02396
2448.10385	0.02422
2446.81808	0.02432
2445.53231	0.02405
2444.24654	0.02346
2442.96077	0.02285
2441.67500	0.02242
2440.38923	0.02216
2439.10346	0.02194
2437.81770	0.02172
2436.53193	0.02159
2435.24616	0.02162
2433.96039	0.02174
2432.67462	0.02181
2431.38885	0.02179
2430.10308	0.02177
2428.81731	0.02184
2427.53155	0.02201
2426.24578	0.02223
2424.96001	0.02248
2423.67424	0.02276
2422.38847	0.02305
2421.10270	0.02329
2419.81693	0.02335
2418.53116	0.02319
2417.24539	0.02287
2415.95963	0.02249
2414.67386	0.02214
2413.38809	0.02191
2412.10232	0.02190
2410.81655	0.02211
2409.53078	0.02234
2408.24501	0.02237
2406.95924	0.02218
2405.67347	0.02196
2404.38771	0.02193
2403.10194	0.02209
2401.81617	0.02229
2400.53040	0.02235
2399.24463	0.02226
2397.95886	0.02221
2396.67309	0.02217
2395.38732	0.02205
2394.10156	0.02183
2392.81579	0.02171
2391.53002	0.02185
2390.24425	0.02223
2388.95848	0.02259
2387.67271	0.02269
2386.38694	0.02253
2385.10117	0.02234
2383.81540	0.02234
2382.52964	0.02256
2381.24387	0.02292
2379.95810	0.02328
2378.67233	0.02356
2377.38656	0.02367
2376.10079	0.02358
2374.81502	0.02338
2373.52925	0.02324
2372.24349	0.02334
2370.95772	0.02378
2369.67195	0.02445
2368.38618	0.02510
2367.10041	0.02553
2365.81464	0.02576
2364.52887	0.02596
2363.24310	0.02620
2361.95733	0.02643
2360.67157	0.02657
2359.38580	0.02657
2358.10003	0.02650
2356.81426	0.02642
2355.52849	0.02634
2354.24272	0.02616
2352.95695	0.02579
2351.67118	0.02527
2350.38542	0.02484
2349.09965	0.02467
2347.81388	0.02476
2346.52811	0.02491
2345.24234	0.02493
2343.95657	0.02476
2342.67080	0.02455
2341.38503	0.02452
2340.09926	0.02478
2338.81350	0.02525
2337.52773	0.02568
2336.24196	0.02589
2334.95619	0.02586
2333.67042	0.02566
2332.38465	0.02542
2331.09888	0.02530
2329.81311	0.02551
2328.52735	0.02610
2327.24158	0.02688
2325.95581	0.02743
2324.67004	0.02744
2323.38427	0.02689
2322.09850	0.02607
2320.81273	0.02528
2319.52696	0.02462
2318.24119	0.02408
2316.95543	0.02357
2315.66966	0.02308
2314.38389	0.02263
2313.09812	0.02230
2311.81235	0.02207
2310.52658	0.02189
2309.24081	0.02172
2307.95504	0.02157
2306.66928	0.02150
2305.38351	0.02154
2304.09774	0.02166
2302.81197	0.02186
2301.52620	0.02209
2300.24043	0.02221
2298.95466	0.02211
2297.66889	0.02183
2296.38312	0.02155
2295.09736	0.02143
2293.81159	0.02141
2292.52582	0.02137
2291.24005	0.02125
2289.95428	0.02106
2288.66851	0.02082
2287.38274	0.02055
2286.09697	0.02030
2284.81121	0.02012
2283.52544	0.02004
2282.23967	0.02005
2280.95390	0.02003
2279.66813	0.01990
2278.38236	0.01959
2277.09659	0.01918
2275.81082	0.01881
2274.52505	0.01858
2273.23929	0.01847
2271.95352	0.01835
2270.66775	0.01814
2269.38198	0.01789
2268.09621	0.01767
2266.81044	0.01752
2265.52467	0.01749
2264.23890	0.01769
2262.95314	0.01816
2261.66737	0.01867
2260.38160	0.01886
2259.09583	0.01855
2257.81006	0.01788
2256.52429	0.01716
2255.23852	0.01665
2253.95275	0.01649
2252.66698	0.01668
2251.38122	0.01705
2250.09545	0.01727
2248.80968	0.01716
2247.52391	0.01718
2246.23814	0.01709
2244.95237	0.01686
2243.66660	0.01656
2242.38083	0.01626
2241.09507	0.01600
2239.80930	0.01580
2238.52353	0.01570
2237.23776	0.01579
2235.95199	0.01604
2234.66622	0.01635
2233.38045	0.01664
2232.09468	0.01680
2230.80891	0.01663
2229.52315	0.01602
2228.23738	0.01516
2226.95161	0.01446
2225.66584	0.01407
2224.38007	0.01378
2223.09430	0.01334
2221.80853	0.01280
2220.52276	0.01243
2219.23700	0.01241
2217.95123	0.01264
2216.66546	0.01293
2215.37969	0.01320
2214.09392	0.01355
2212.80815	0.01397
2211.52238	0.01432
2210.23661	0.01460
2208.95084	0.01494
2207.66508	0.01522
2206.37931	0.01492
2205.09354	0.01370
2203.80777	0.01209
2202.52200	0.01098
2201.23623	0.01075
2199.95046	0.01098
2198.66469	0.01113
2197.37893	0.01109
2196.09316	0.01102
2194.80739	0.01108
2193.52162	0.01130
2192.23585	0.01165
2190.95008	0.01186
2189.66431	0.01155
2188.37854	0.01063
2187.09277	0.00967
2185.80701	0.00934
2184.52124	0.00958
2183.23547	0.00963
2181.94970	0.00908
2180.66393	0.00857
2179.37816	0.00902
2178.09239	0.01046
2176.80662	0.01196
2175.52085	0.01256
2174.23509	0.01214
2172.94932	0.01127
2171.66355	0.01059
2170.37778	0.01030
2169.09201	0.01015
2167.80624	0.00978
2166.52047	0.00914
2165.23470	0.00852
2163.94894	0.00804
2162.66317	0.00746
2161.37740	0.00657
2160.09163	0.00567
2158.80586	0.00525
2157.52009	0.00524
2156.23432	0.00506
2154.94855	0.00449
2153.66278	0.00394
2152.37702	0.00386
2151.09125	0.00431
2149.80548	0.00519
2148.51971	0.00663
2147.23394	0.00863
2145.94817	0.01065
2144.66240	0.01178
2143.37663	0.01161
2142.09087	0.01070
2140.80510	0.01000
2139.51933	0.00995
2138.23356	0.01013
2136.94779	0.00986
2135.66202	0.00917
2134.37625	0.00884
2133.09048	0.00947
2131.80471	0.01080
2130.51895	0.01203
2129.23318	0.01255
2127.94741	0.01240
2126.66164	0.01196
2125.37587	0.01155
2124.09010	0.01129
2122.80433	0.01121
2121.51856	0.01132
2120.23280	0.01154
2118.94703	0.01176
2117.66126	0.01196
2116.37549	0.01221
2115.08972	0.01251
2113.80395	0.01274
2112.51818	0.01275
2111.23241	0.01254
2109.94664	0.01224
2108.66088	0.01201
2107.37511	0.01187
2106.08934	0.01175
2104.80357	0.01157
2103.51780	0.01134
2102.23203	0.01102
2100.94626	0.01045
2099.66049	0.00966
2098.37473	0.00881
2097.08896	0.00832
2095.80319	0.00850
2094.51742	0.00925
2093.23165	0.01014
2091.94588	0.01076
2090.66011	0.01091
2089.37434	0.01077
2088.08857	0.01067
2086.80281	0.01085
2085.51704	0.01128
2084.23127	0.01165
2082.94550	0.01161
2081.65973	0.01105
2080.37396	0.01028
2079.08819	0.00974
2077.80242	0.00960
2076.51666	0.00967
2075.23089	0.00968
2073.94512	0.00955
2072.65935	0.00938
2071.37358	0.00929
2070.08781	0.00929
2068.80204	0.00936
2067.51627	0.00944
2066.23050	0.00956
2064.94474	0.00981
2063.65897	0.01023
2062.37320	0.01065
2061.08743	0.01081
2059.80166	0.01058
2058.51589	0.01003
2057.23012	0.00940
2055.94435	0.00883
2054.65859	0.00837
2053.37282	0.00793
2052.08705	0.00740
2050.80128	0.00677
2049.51551	0.00614
2048.22974	0.00567
2046.94397	0.00545
2045.65820	0.00539
2044.37243	0.00533
2043.08667	0.00520
2041.80090	0.00511
2040.51513	0.00508
2039.22936	0.00490
2037.94359	0.00424
2036.65782	0.00312
2035.37205	0.00212
2034.08628	0.00186
2032.80052	0.00250
2031.51475	0.00374
2030.22898	0.00525
2028.94321	0.00686
2027.65744	0.00826
2026.37167	0.00885
2025.08590	0.00815
2023.80013	0.00655
2022.51436	0.00516
2021.22860	0.00477
2019.94283	0.00512
2018.65706	0.00528
2017.37129	0.00471
2016.08552	0.00365
2014.79975	0.00271
2013.51398	0.00252
2012.22821	0.00339
2010.94245	0.00507
2009.65668	0.00663
2008.37091	0.00703
2007.08514	0.00602
2005.79937	0.00438
2004.51360	0.00316
2003.22783	0.00283
2001.94206	0.00322
2000.65629	0.00403
1999.37053	0.00509
1998.08476	0.00624
1996.79899	0.00727
1995.51322	0.00804
1994.22745	0.00860
1992.94168	0.00906
1991.65591	0.00946
1990.37014	0.00980
1989.08438	0.01011
1987.79861	0.01033
1986.51284	0.01031
1985.22707	0.00995
1983.94130	0.00938
1982.65553	0.00895
1981.36976	0.00888
1980.08399	0.00912
1978.79822	0.00941
1977.51246	0.00948
1976.22669	0.00929
1974.94092	0.00897
1973.65515	0.00867
1972.36938	0.00840
1971.08361	0.00808
1969.79784	0.00784
1968.51207	0.00793
1967.22631	0.00831
1965.94054	0.00866
1964.65477	0.00868
1963.36900	0.00839
1962.08323	0.00796
1960.79746	0.00760
1959.51169	0.00751
1958.22592	0.00787
1956.94015	0.00865
1955.65439	0.00960
1954.36862	0.01030
1953.08285	0.01050
1951.79708	0.01021
1950.51131	0.00977
1949.22554	0.00954
1947.93977	0.00958
1946.65400	0.00967
1945.36823	0.00958
1944.08247	0.00937
1942.79670	0.00924
1941.51093	0.00936
1940.22516	0.00966
1938.93939	0.00999
1937.65362	0.01033
1936.36785	0.01072
1935.08208	0.01105
1933.79632	0.01112
1932.51055	0.01087
1931.22478	0.01052
1929.93901	0.01031
1928.65324	0.01043
1927.36747	0.01086
1926.08170	0.01149
1924.79593	0.01207
1923.51016	0.01238
1922.22440	0.01237
1920.93863	0.01211
1919.65286	0.01177
1918.36709	0.01153
1917.08132	0.01156
1915.79555	0.01189
1914.50978	0.01239
1913.22401	0.01275
1911.93825	0.01277
1910.65248	0.01247
1909.36671	0.01210
1908.08094	0.01187
1906.79517	0.01183
1905.50940	0.01185
1904.22363	0.01186
1902.93786	0.01179
1901.65209	0.01169
1900.36633	0.01161
1899.08056	0.01160
1897.79479	0.01163
1896.50902	0.01165
1895.22325	0.01161
1893.93748	0.01152
1892.65171	0.01142
1891.36594	0.01134
1890.08018	0.01133
1888.79441	0.01140
1887.50864	0.01145
1886.22287	0.01135
1884.93710	0.01106
1883.65133	0.01078
1882.36556	0.01074
1881.07979	0.01103
1879.79402	0.01151
1878.50826	0.01198
1877.22249	0.01230
1875.93672	0.01242
1874.65095	0.01238
1873.36518	0.01227
1872.07941	0.01221
1870.79364	0.01228
1869.50787	0.01240
1868.22211	0.01244
1866.93634	0.01236
1865.65057	0.01225
1864.36480	0.01225
1863.07903	0.01238
1861.79326	0.01253
1860.50749	0.01256
1859.22172	0.01244
1857.93595	0.01224
1856.65019	0.01204
1855.36442	0.01187
1854.07865	0.01173
1852.79288	0.01167
1851.50711	0.01176
1850.22134	0.01196
1848.93557	0.01217
1847.64980	0.01223
1846.36404	0.01210
1845.07827	0.01190
1843.79250	0.01180
1842.50673	0.01186
1841.22096	0.01198
1839.93519	0.01210
1838.64942	0.01221
1837.36365	0.01230
1836.07788	0.01236
1834.79212	0.01239
1833.50635	0.01245
1832.22058	0.01253
1830.93481	0.01255
1829.64904	0.01245
1828.36327	0.01227
1827.07750	0.01210
1825.79173	0.01205
1824.50597	0.01211
1823.22020	0.01222
1821.93443	0.01229
1820.64866	0.01228
1819.36289	0.01220
1818.07712	0.01214
1816.79135	0.01214
1815.50558	0.01220
1814.21981	0.01226
1812.93405	0.01230
1811.64828	0.01232
1810.36251	0.01234
1809.07674	0.01237
1807.79097	0.01243
1806.50520	0.01248
1805.21943	0.01253
1803.93366	0.01255
1802.64790	0.01253
1801.36213	0.01244
1800.07636	0.01227
1798.79059	0.01203
1797.50482	0.01179
1796.21905	0.01170
1794.93328	0.01181
1793.64751	0.01209
1792.36174	0.01242
1791.07598	0.01268
1789.79021	0.01278
1788.50444	0.01276
1787.21867	0.01271
1785.93290	0.01270
1784.64713	0.01272
1783.36136	0.01273
1782.07559	0.01272
1780.78983	0.01273
1779.50406	0.01280
1778.21829	0.01296
1776.93252	0.01315
1775.64675	0.01328
1774.36098	0.01329
1773.07521	0.01325
1771.78944	0.01328
1770.50367	0.01337
1769.21791	0.01342
1767.93214	0.01340
1766.64637	0.01333
1765.36060	0.01324
1764.07483	0.01311
1762.78906	0.01300
1761.50329	0.01293
1760.21752	0.01291
1758.93176	0.01287
1757.64599	0.01283
1756.36022	0.01279
1755.07445	0.01274
1753.78868	0.01257
1752.50291	0.01227
1751.21714	0.01195
1749.93137	0.01172
1748.64560	0.01158
1747.35984	0.01143
1746.07407	0.01120
1744.78830	0.01090
1743.50253	0.01061
1742.21676	0.01037
1740.93099	0.01022
1739.64522	0.01020
1738.35945	0.01032
1737.07369	0.01051
1735.78792	0.01067
1734.50215	0.01087
1733.21638	0.01120
1731.93061	0.01159
1730.64484	0.01189
1729.35907	0.01204
1728.07330	0.01215
1726.78753	0.01232
1725.50177	0.01258
1724.21600	0.01294
1722.93023	0.01335
1721.64446	0.01372
1720.35869	0.01398
1719.07292	0.01414
1717.78715	0.01437
1716.50138	0.01475
1715.21561	0.01524
1713.92985	0.01574
1712.64408	0.01620
1711.35831	0.01666
1710.07254	0.01715
1708.78677	0.01766
1707.50100	0.01817
1706.21523	0.01866
1704.92946	0.01914
1703.64370	0.01965
1702.35793	0.02019
1701.07216	0.02081
1699.78639	0.02157
1698.50062	0.02236
1697.21485	0.02301
1695.92908	0.02359
1694.64331	0.02426
1693.35754	0.02499
1692.07178	0.02567
1690.78601	0.02633
1689.50024	0.02708
1688.21447	0.02794
1686.92870	0.02880
1685.64293	0.02956
1684.35716	0.03029
1683.07139	0.03102
1681.78563	0.03173
1680.49986	0.03243
1679.21409	0.03324
1677.92832	0.03413
1676.64255	0.03498
1675.35678	0.03571
1674.07101	0.03631
1672.78524	0.03683
1671.49947	0.03733
1670.21371	0.03788
1668.92794	0.03853
1667.64217	0.03923
1666.35640	0.03991
1665.07063	0.04052
1663.78486	0.04108
1662.49909	0.04165
1661.21332	0.04223
1659.92756	0.04283
1658.64179	0.04343
1657.35602	0.04401
1656.07025	0.04446
1654.78448	0.04475
1653.49871	0.04497
1652.21294	0.04529
1650.92717	0.04567
1649.64140	0.04596
1648.35564	0.04612
1647.06987	0.04627
1645.78410	0.04645
1644.49833	0.04662
1643.21256	0.04672
1641.92679	0.04674
1640.64102	0.04674
1639.35525	0.04674
1638.06949	0.04669
1636.78372	0.04656
1635.49795	0.04639
1634.21218	0.04623
1632.92641	0.04609
1631.64064	0.04595
1630.35487	0.04583
1629.06910	0.04575
1627.78333	0.04566
1626.49757	0.04551
1625.21180	0.04527
1623.92603	0.04501
1622.64026	0.04482
1621.35449	0.04475
1620.06872	0.04474
1618.78295	0.04469
1617.49718	0.04463
1616.21142	0.04463
1614.92565	0.04470
1613.63988	0.04475
1612.35411	0.04478
1611.06834	0.04482
1609.78257	0.04492
1608.49680	0.04509
1607.21103	0.04530
1605.92526	0.04550
1604.63950	0.04565
1603.35373	0.04574
1602.06796	0.04581
1600.78219	0.04591
1599.49642	0.04610
1598.21065	0.04638
1596.92488	0.04671
1595.63911	0.04703
1594.35335	0.04732
1593.06758	0.04763
1591.78181	0.04795
1590.49604	0.04826
1589.21027	0.04853
1587.92450	0.04876
1586.63873	0.04898
1585.35296	0.04921
1584.06719	0.04947
1582.78143	0.04976
1581.49566	0.05009
1580.20989	0.05043
1578.92412	0.05071
1577.63835	0.05090
1576.35258	0.05113
1575.06681	0.05149
1573.78104	0.05193
1572.49528	0.05229
1571.20951	0.05258
1569.92374	0.05286
1568.63797	0.05317
1567.35220	0.05346
1566.06643	0.05365
1564.78066	0.05379
1563.49489	0.05395
1562.20912	0.05413
1560.92336	0.05428
1559.63759	0.05444
1558.35182	0.05465
1557.06605	0.05484
1555.78028	0.05487
1554.49451	0.05479
1553.20874	0.05472
1551.92297	0.05466
1550.63721	0.05455
1549.35144	0.05438
1548.06567	0.05418
1546.77990	0.05394
1545.49413	0.05365
1544.20836	0.05328
1542.92259	0.05282
1541.63682	0.05228
1540.35105	0.05176
1539.06529	0.05135
1537.77952	0.05109
1536.49375	0.05087
1535.20798	0.05059
1533.92221	0.05027
1532.63644	0.04996
1531.35067	0.04967
1530.06490	0.04945
1528.77914	0.04936
1527.49337	0.04943
1526.20760	0.04959
1524.92183	0.04976
1523.63606	0.04985
1522.35029	0.04992
1521.06452	0.05010
1519.77875	0.05045
1518.49298	0.05089
1517.20722	0.05137
1515.92145	0.05187
1514.63568	0.05237
1513.34991	0.05286
1512.06414	0.05340
1510.77837	0.05404
1509.49260	0.05473
1508.20683	0.05541
1506.92107	0.05609
1505.63530	0.05685
1504.34953	0.05764
1503.06376	0.05835
1501.77799	0.05894
1500.49222	0.05947
1499.20645	0.05997
1497.92068	0.06041
1496.63491	0.06081
1495.34915	0.06121
1494.06338	0.06163
1492.77761	0.06206
1491.49184	0.06252
1490.20607	0.06306
1488.92030	0.06367
1487.63453	0.06432
1486.34876	0.06499
1485.06299	0.06572
1483.77723	0.06651
1482.49146	0.06735
1481.20569	0.06822
1479.91992	0.06908
1478.63415	0.06993
1477.34838	0.07075
1476.06261	0.07152
1474.77684	0.07221
1473.49108	0.07280
1472.20531	0.07337
1470.91954	0.07394
1469.63377	0.07451
1468.34800	0.07500
1467.06223	0.07543
1465.77646	0.07583
1464.49069	0.07630
1463.20492	0.07686
1461.91916	0.07751
1460.63339	0.07821
1459.34762	0.07892
1458.06185	0.07964
1456.77608	0.08039
1455.49031	0.08116
1454.20454	0.08184
1452.91877	0.08240
1451.63301	0.08284
1450.34724	0.08318
1449.06147	0.08340
1447.77570	0.08352
1446.48993	0.08357
1445.20416	0.08354
1443.91839	0.08346
1442.63262	0.08335
1441.34685	0.08325
1440.06109	0.08315
1438.77532	0.08303
1437.48955	0.08293
1436.20378	0.08297
1434.91801	0.08318
1433.63224	0.08354
1432.34647	0.08404
1431.06070	0.08468
1429.77494	0.08548
1428.48917	0.08639
1427.20340	0.08738
1425.91763	0.08842
1424.63186	0.08951
1423.34609	0.09062
1422.06032	0.09168
1420.77455	0.09265
1419.48878	0.09353
1418.20302	0.09434
1416.91725	0.09501
1415.63148	0.09552
1414.34571	0.09591
1413.05994	0.09619
1411.77417	0.09632
1410.48840	0.09626
1409.20263	0.09599
1407.91687	0.09550
1406.63110	0.09480
1405.34533	0.09387
1404.05956	0.09275
1402.77379	0.09146
1401.48802	0.09005
1400.20225	0.08856
1398.91648	0.08701
1397.63071	0.08541
1396.34495	0.08375
1395.05918	0.08204
1393.77341	0.08028
1392.48764	0.07849
1391.20187	0.07666
1389.91610	0.07483
1388.63033	0.07304
1387.34456	0.07133
1386.05880	0.06967
1384.77303	0.06802
1383.48726	0.06634
1382.20149	0.06463
1380.91572	0.06292
1379.62995	0.06127
1378.34418	0.05968
1377.05841	0.05814
1375.77264	0.05660
1374.48688	0.05505
1373.20111	0.05353
1371.91534	0.05204
1370.62957	0.05057
1369.34380	0.04914
1368.05803	0.04779
1366.77226	0.04656
1365.48649	0.04545
1364.20073	0.04441
1362.91496	0.04340
1361.62919	0.04240
1360.34342	0.04144
1359.05765	0.04055
1357.77188	0.03978
1356.48611	0.03911
1355.20034	0.03850
1353.91457	0.03794
1352.62881	0.03741
1351.34304	0.03691
1350.05727	0.03642
1348.77150	0.03591
1347.48573	0.03537
1346.19996	0.03483
1344.91419	0.03433
1343.62842	0.03388
1342.34266	0.03346
1341.05689	0.03304
1339.77112	0.03262
1338.48535	0.03221
1337.19958	0.03182
1335.91381	0.03144
1334.62804	0.03106
1333.34227	0.03065
1332.05650	0.03024
1330.77074	0.02984
1329.48497	0.02946
1328.19920	0.02908
1326.91343	0.02870
1325.62766	0.02836
1324.34189	0.02806
1323.05612	0.02779
1321.77035	0.02752
1320.48459	0.02721
1319.19882	0.02690
1317.91305	0.02659
1316.62728	0.02630
1315.34151	0.02604
1314.05574	0.02579
1312.76997	0.02555
1311.48420	0.02529
1310.19843	0.02505
1308.91267	0.02483
1307.62690	0.02463
1306.34113	0.02441
1305.05536	0.02413
1303.76959	0.02381
1302.48382	0.02350
1301.19805	0.02325
1299.91228	0.02306
1298.62652	0.02290
1297.34075	0.02274
1296.05498	0.02257
1294.76921	0.02242
1293.48344	0.02228
1292.19767	0.02216
1290.91190	0.02206
1289.62613	0.02195
1288.34036	0.02182
1287.05460	0.02169
1285.76883	0.02158
1284.48306	0.02153
1283.19729	0.02152
1281.91152	0.02148
1280.62575	0.02139
1279.33998	0.02125
1278.05421	0.02110
1276.76845	0.02097
1275.48268	0.02087
1274.19691	0.02081
1272.91114	0.02077
1271.62537	0.02071
1270.33960	0.02060
1269.05383	0.02042
1267.76806	0.02021
1266.48229	0.02000
1265.19653	0.01985
1263.91076	0.01975
1262.62499	0.01968
1261.33922	0.01960
1260.05345	0.01951
1258.76768	0.01947
1257.48191	0.01951
1256.19614	0.01959
1254.91037	0.01964
1253.62461	0.01960
1252.33884	0.01952
1251.05307	0.01944
1249.76730	0.01942
1248.48153	0.01945
1247.19576	0.01949
1245.90999	0.01951
1244.62422	0.01947
1243.33846	0.01939
1242.05269	0.01928
1240.76692	0.01915
1239.48115	0.01905
1238.19538	0.01896
1236.90961	0.01889
1235.62384	0.01881
1234.33807	0.01871
1233.05230	0.01859
1231.76654	0.01844
1230.48077	0.01830
1229.19500	0.01815
1227.90923	0.01801
1226.62346	0.01788
1225.33769	0.01776
1224.05192	0.01768
1222.76615	0.01761
1221.48039	0.01752
1220.19462	0.01741
1218.90885	0.01729
1217.62308	0.01717
1216.33731	0.01705
1215.05154	0.01690
1213.76577	0.01676
1212.48000	0.01664
1211.19423	0.01656
1209.90847	0.01649
1208.62270	0.01642
1207.33693	0.01635
1206.05116	0.01630
1204.76539	0.01630
1203.47962	0.01634
1202.19385	0.01636
1200.90808	0.01635
1199.62232	0.01630
1198.33655	0.01626
1197.05078	0.01622
1195.76501	0.01620
1194.47924	0.01620
1193.19347	0.01620
1191.90770	0.01616
1190.62193	0.01605
1189.33616	0.01586
1188.05040	0.01562
1186.76463	0.01540
1185.47886	0.01523
1184.19309	0.01515
1182.90732	0.01512
1181.62155	0.01509
1180.33578	0.01501
1179.05001	0.01494
1177.76425	0.01492
1176.47848	0.01495
1175.19271	0.01501
1173.90694	0.01503
1172.62117	0.01505
1171.33540	0.01512
1170.04963	0.01526
1168.76386	0.01546
1167.47809	0.01565
1166.19233	0.01581
1164.90656	0.01593
1163.62079	0.01602
1162.33502	0.01611
1161.04925	0.01624
1159.76348	0.01640
1158.47771	0.01657
1157.19194	0.01675
1155.90618	0.01698
1154.62041	0.01724
1153.33464	0.01751
1152.04887	0.01775
1150.76310	0.01799
1149.47733	0.01832
1148.19156	0.01877
1146.90579	0.01928
1145.62002	0.01981
1144.33426	0.02036
1143.04849	0.02097
1141.76272	0.02167
1140.47695	0.02249
1139.19118	0.02345
1137.90541	0.02451
1136.61964	0.02566
1135.33387	0.02688
1134.04811	0.02819
1132.76234	0.02962
1131.47657	0.03116
1130.19080	0.03283
1128.90503	0.03464
1127.61926	0.03666
1126.33349	0.03889
1125.04772	0.04128
1123.76195	0.04378
1122.47619	0.04638
1121.19042	0.04910
1119.90465	0.05192
1118.61888	0.05478
1117.33311	0.05765
1116.04734	0.06049
1114.76157	0.06333
1113.47580	0.06622
1112.19004	0.06917
1110.90427	0.07216
1109.61850	0.07509
1108.33273	0.07792
1107.04696	0.08066
1105.76119	0.08330
1104.47542	0.08581
1103.18965	0.08822
1101.90388	0.09059
1100.61812	0.09297
1099.33235	0.09539
1098.04658	0.09782
1096.76081	0.10018
1095.47504	0.10238
1094.18927	0.10437
1092.90350	0.10619
1091.61773	0.10791
1090.33197	0.10956
1089.04620	0.11110
1087.76043	0.11253
1086.47466	0.11399
1085.18889	0.11561
1083.90312	0.11736
1082.61735	0.11916
1081.33158	0.12099
1080.04581	0.12288
1078.76005	0.12492
1077.47428	0.12712
1076.18851	0.12943
1074.90274	0.13182
1073.61697	0.13426
1072.33120	0.13677
1071.04543	0.13935
1069.75966	0.14203
1068.47390	0.14481
1067.18813	0.14770
1065.90236	0.15067
1064.61659	0.15367
1063.33082	0.15662
1062.04505	0.15949
1060.75928	0.16228
1059.47351	0.16501
1058.18774	0.16768
1056.90198	0.17028
1055.61621	0.17284
1054.33044	0.17543
1053.04467	0.17807
1051.75890	0.18076
1050.47313	0.18348
1049.18736	0.18626
1047.90159	0.18909
1046.61583	0.19191
1045.33006	0.19471
1044.04429	0.19751
1042.75852	0.20035
1041.47275	0.20325
1040.18698	0.20622
1038.90121	0.20921
1037.61544	0.21215
1036.32967	0.21497
1035.04391	0.21764
1033.75814	0.22014
1032.47237	0.22253
1031.18660	0.22482
1029.90083	0.22694
1028.61506	0.22877
1027.32929	0.23025
1026.04352	0.23142
1024.75775	0.23232
1023.47199	0.23298
1022.18622	0.23338
1020.90045	0.23345
1019.61468	0.23314
1018.32891	0.23244
1017.04314	0.23139
1015.75737	0.23000
1014.47160	0.22825
1013.18584	0.22615
1011.90007	0.22373
1010.61430	0.22099
1009.32853	0.21788
1008.04276	0.21437
1006.75699	0.21048
1005.47122	0.20628
1004.18545	0.20180
1002.89968	0.19711
1001.61392	0.19225
1000.32815	0.18724
999.04238	0.18204
997.75661	0.17658
996.47084	0.17094
995.18507	0.16528
993.89930	0.15972
992.61353	0.15425
991.32777	0.14881
990.04200	0.14342
988.75623	0.13819
987.47046	0.13317
986.18469	0.12834
984.89892	0.12366
983.61315	0.11911
982.32738	0.11470
981.04161	0.11050
979.75585	0.10656
978.47008	0.10292
977.18431	0.09956
975.89854	0.09648
974.61277	0.09374
973.32700	0.09142
972.04123	0.08956
970.75546	0.08819
969.46970	0.08733
968.18393	0.08702
966.89816	0.08725
965.61239	0.08786
964.32662	0.08864
963.04085	0.08937
961.75508	0.08988
960.46931	0.08999
959.18354	0.08960
957.89778	0.08864
956.61201	0.08714
955.32624	0.08528
954.04047	0.08326
952.75470	0.08119
951.46893	0.07910
950.18316	0.07703
948.89739	0.07500
947.61163	0.07304
946.32586	0.07114
945.04009	0.06930
943.75432	0.06753
942.46855	0.06584
941.18278	0.06418
939.89701	0.06250
938.61124	0.06082
937.32547	0.05922
936.03971	0.05773
934.75394	0.05634
933.46817	0.05504
932.18240	0.05383
930.89663	0.05274
929.61086	0.05173
928.32509	0.05078
927.03932	0.04990
925.75356	0.04910
924.46779	0.04835
923.18202	0.04759
921.89625	0.04683
920.61048	0.04611
919.32471	0.04551
918.03894	0.04505
916.75317	0.04466
915.46740	0.04426
914.18164	0.04376
912.89587	0.04314
911.61010	0.04248
910.32433	0.04190
909.03856	0.04142
907.75279	0.04101
906.46702	0.04061
905.18125	0.04019
903.89549	0.03974
902.60972	0.03928
901.32395	0.03883
900.03818	0.03846
898.75241	0.03820
897.46664	0.03800
896.18087	0.03780
894.89510	0.03753
893.60933	0.03724
892.32357	0.03700
891.03780	0.03686
889.75203	0.03684
888.46626	0.03699
887.18049	0.03743
885.89472	0.03837
884.60895	0.03990
883.32318	0.04201
882.03742	0.04447
880.75165	0.04691
879.46588	0.04898
878.18011	0.05055
876.89434	0.05180
875.60857	0.05303
874.32280	0.05433
873.03703	0.05551
871.75126	0.05624
870.46550	0.05627
869.17973	0.05557
867.89396	0.05424
866.60819	0.05247
865.32242	0.05045
864.03665	0.04837
862.75088	0.04635
861.46511	0.04450
860.17935	0.04288
858.89358	0.04148
857.60781	0.04023
856.32204	0.03913
855.03627	0.03819
853.75050	0.03744
852.46473	0.03684
851.17896	0.03635
849.89319	0.03593
848.60743	0.03554
847.32166	0.03512
846.03589	0.03471
844.75012	0.03435
843.46435	0.03406
842.17858	0.03382
840.89281	0.03363
839.60704	0.03348
838.32128	0.03335
837.03551	0.03321
835.74974	0.03303
834.46397	0.03280
833.17820	0.03252
831.89243	0.03221
830.60666	0.03192
829.32089	0.03174
828.03512	0.03170
826.74936	0.03173
825.46359	0.03174
824.17782	0.03165
822.89205	0.03146
821.60628	0.03123
820.32051	0.03106
819.03474	0.03099
817.74897	0.03102
816.46321	0.03106
815.17744	0.03108
813.89167	0.03106
812.60590	0.03098
811.32013	0.03089
810.03436	0.03083
808.74859	0.03080
807.46282	0.03072
806.17705	0.03055
804.89129	0.03031
803.60552	0.03015
802.31975	0.03014
801.03398	0.03023
799.74821	0.03030
798.46244	0.03030
797.17667	0.03027
795.89090	0.03030
794.60513	0.03042
793.31937	0.03055
792.03360	0.03065
790.74783	0.03069
789.46206	0.03066
788.17629	0.03058
786.89052	0.03049
785.60475	0.03039
784.31898	0.03025
783.03322	0.03008
781.74745	0.02995
780.46168	0.02993
779.17591	0.03001
777.89014	0.03006
776.60437	0.03002
775.31860	0.02991
774.03283	0.02983
772.74706	0.02985
771.46130	0.02996
770.17553	0.03011
768.88976	0.03023
767.60399	0.03025
766.31822	0.03020
765.03245	0.03011
763.74668	0.03004
762.46091	0.03002
761.17515	0.03004
759.88938	0.03008
758.60361	0.03011
757.31784	0.03013
756.03207	0.03014
754.74630	0.03014
753.46053	0.03011
752.17476	0.03003
750.88899	0.02991
749.60323	0.02982
748.31746	0.02978
747.03169	0.02977
745.74592	0.02974
744.46015	0.02968
743.17438	0.02960
741.88861	0.02948
740.60284	0.02931
739.31708	0.02912
738.03131	0.02902
736.74554	0.02903
735.45977	0.02917
734.17400	0.02937
732.88823	0.02956
731.60246	0.02968
730.31669	0.02968
729.03092	0.02960
727.74516	0.02952
726.45939	0.02954
725.17362	0.02968
723.88785	0.02993
722.60208	0.02992
721.31631	0.02968
720.03054	0.02937
718.74477	0.02915
717.45901	0.02909
716.17324	0.02919
714.88747	0.02933
713.60170	0.02943
712.31593	0.02945
711.03016	0.02938
709.74439	0.02927
708.45862	0.02917
707.17285	0.02911
705.88709	0.02911
704.60132	0.02917
703.31555	0.02925
702.02978	0.02934
700.74401	0.02938
699.45824	0.02936
698.17247	0.02927
696.88670	0.02918
695.60094	0.02914
694.31517	0.02917
693.02940	0.02922
691.74363	0.02926
690.45786	0.02930
689.17209	0.02935
687.88632	0.02941
686.60055	0.02948
685.31478	0.02954
684.02902	0.02955
682.74325	0.02950
681.45748	0.02940
680.17171	0.02929
678.88594	0.02921
677.60017	0.02919
676.31440	0.02923
675.02863	0.02936
673.74287	0.02955
672.45710	0.02979
671.17133	0.03003
669.88556	0.03026
668.59979	0.03047
667.31402	0.03060
666.02825	0.03060
664.74248	0.03047
663.45671	0.03026
662.17095	0.03003
660.88518	0.02982
659.59941	0.02964
658.31364	0.02943
657.02787	0.02920
655.74210	0.02896
654.45633	0.02876
653.17056	0.02864
651.88480	0.02860
650.59903	0.02862
649.31326	0.02865
648.02749	0.02866
646.74172	0.02861
645.45595	0.02850
644.17018	0.02841
642.88441	0.02838
641.59864	0.02844
640.31288	0.02857
639.02711	0.02875
637.74134	0.02896
636.45557	0.02917
635.16980	0.02937
633.88403	0.02958
632.59826	0.02983
631.31249	0.03014
630.02673	0.03056
628.74096	0.03106
627.45519	0.03147
626.16942	0.03214
624.88365	0.03314
623.59788	0.03453
622.31211	0.03637
621.02634	0.03856
619.74057	0.04088
618.45481	0.04318
617.16904	0.04550
615.88327	0.04797
614.59750	0.05065
613.31173	0.05343
612.02596	0.05657
610.74019	0.06093
609.45442	0.06713
608.16866	0.07434
606.88289	0.08096
605.59712	0.08619
604.31135	0.09011
603.02558	0.09258
601.73981	0.09310
600.45404	0.09158
599.16827	0.08865
597.88250	0.08515
596.59674	0.08178
595.31097	0.07888
594.02520	0.07655
592.73943	0.07482
591.45366	0.07366
590.16789	0.07307
588.88212	0.07302
587.59635	0.07348
586.31059	0.07440
585.02482	0.07575
583.73905	0.07746
582.45328	0.07939
581.16751	0.08148
579.88174	0.08369
578.59597	0.08599
577.31020	0.08832
576.02443	0.09053
574.73867	0.09254
573.45290	0.09444
572.16713	0.09642
570.88136	0.09866
569.59559	0.10126
568.30982	0.10418
567.02405	0.10732
565.73828	0.11044
564.45251	0.11315
563.16675	0.11498
561.88098	0.11558
560.59521	0.11485
559.30944	0.11285
558.02367	0.10968
556.73790	0.10552
555.45213	0.10067
554.16636	0.09558
552.88060	0.09062
551.59483	0.08591
550.30906	0.08145
549.02329	0.07722
547.73752	0.07332
546.45175	0.06991
545.16598	0.06700
543.88021	0.06448
542.59444	0.06218
541.30868	0.06003
540.02291	0.05802
538.73714	0.05615
537.45137	0.05438
536.16560	0.05266
534.87983	0.05102
533.59406	0.04952
532.30829	0.04820
531.02253	0.04705
529.73676	0.04599
528.45099	0.04493
527.16522	0.04387
525.87945	0.04284
524.59368	0.04193
523.30791	0.04114
522.02214	0.04042
520.73637	0.03965
519.45061	0.03881
518.16484	0.03796
516.87907	0.03719
515.59330	0.03652
514.30753	0.03598
513.02176	0.03554
511.73599	0.03514
510.45022	0.03468
509.16446	0.03413
507.87869	0.03348
506.59292	0.03281
505.30715	0.03218
504.02138	0.03164
502.73561	0.03120
501.44984	0.03085
500.16407	0.03057
498.87830	0.03031
497.59254	0.03004
496.30677	0.02974
495.02100	0.02938
493.73523	0.02898
492.44946	0.02857
491.16369	0.02822
489.87792	0.02799
488.59215	0.02789
487.30639	0.02787
486.02062	0.02787
484.73485	0.02786
483.44908	0.02785
482.16331	0.02786
480.87754	0.02794
479.59177	0.02807
478.30600	0.02824
477.02023	0.02843
475.73447	0.02864
474.44870	0.02884
473.16293	0.02898
471.87716	0.02904
470.59139	0.02900
469.30562	0.02888
468.01985	0.02869
466.73408	0.02846
465.44832	0.02819
464.16255	0.02788
462.87678	0.02753
461.59101	0.02714
460.30524	0.02671
459.01947	0.02627
457.73370	0.02585
456.44793	0.02549
455.16216	0.02523
453.87640	0.02501
452.59063	0.02476
451.30486	0.02449
450.01909	0.02419
448.73332	0.02391
447.44755	0.02364
446.16178	0.02342
444.87601	0.02325
443.59025	0.02310
442.30448	0.02294
441.01871	0.02277
439.73294	0.02259
438.44717	0.02244
437.16140	0.02233
435.87563	0.02229
434.58986	0.02230
433.30409	0.02232
432.01833	0.02227
430.73256	0.02213
429.44679	0.02192
428.16102	0.02169
426.87525	0.02148
425.58948	0.02129
424.30371	0.02113
423.01794	0.02099
421.73218	0.02087
420.44641	0.02077
419.16064	0.02069
417.87487	0.02063
416.58910	0.02058
415.30333	0.02051
414.01756	0.02042
412.73179	0.02029
411.44602	0.02014
410.16026	0.02001
408.87449	0.01996
407.58872	0.02000
406.30295	0.02011
405.01718	0.02019
403.73141	0.02020
402.44564	0.02015
401.15987	0.02012
399.87411	0.02015
