3997.45528 0.05147
3996.16951 0.05107
3994.88374 0.05158
3993.59798 0.05244
3992.31221 0.05287
3991.02644 0.05255
3989.74067 0.05196
3988.45490 0.05196
3987.16913 0.05296
3985.88336 0.05434
3984.59759 0.05501
3983.31183 0.05443
3982.02606 0.05300
3980.74029 0.05156
3979.45452 0.05065
3978.16875 0.05034
3976.88298 0.05052
3975.59721 0.05113
3974.31144 0.05196
3973.02567 0.05270
3971.73991 0.05303
3970.45414 0.05286
3969.16837 0.05230
3967.88260 0.05159
3966.59683 0.05104
3965.31106 0.05084
3964.02529 0.05075
3962.73952 0.05034
3961.45376 0.04950
3960.16799 0.04880
3958.88222 0.04896
3957.59645 0.05014
3956.31068 0.05174
3955.02491 0.05279
3953.73914 0.05269
3952.45337 0.05169
3951.16760 0.05074
3949.88184 0.05070
3948.59607 0.05163
3947.31030 0.05286
3946.02453 0.05360
3944.73876 0.05367
3943.45299 0.05343
3942.16722 0.05312
3940.88145 0.05251
3939.59569 0.05143
3938.30992 0.05044
3937.02415 0.05028
3935.73838 0.05101
3934.45261 0.05189
3933.16684 0.05229
3931.88107 0.05220
3930.59530 0.05196
3929.30953 0.05185
3928.02377 0.05196
3926.73800 0.05213
3925.45223 0.05203
3924.16646 0.05149
3922.88069 0.05068
3921.59492 0.05011
3920.30915 0.05024
3919.02338 0.05105
3917.73762 0.05200
3916.45185 0.05263
3915.16608 0.05295
3913.88031 0.05331
3912.59454 0.05393
3911.30877 0.05471
3910.02300 0.05538
3908.73723 0.05582
3907.45146 0.05603
3906.16570 0.05607
3904.87993 0.05593
3903.59416 0.05550
3902.30839 0.05451
3901.02262 0.05282
3899.73685 0.05084
3898.45108 0.04942
3897.16531 0.04912
3895.87955 0.04984
3894.59378 0.05106
3893.30801 0.05230
3892.02224 0.05310
3890.73647 0.05311
3889.45070 0.05227
3888.16493 0.05109
3886.87916 0.05037
3885.59339 0.05044
3884.30763 0.05087
3883.02186 0.05103
3881.73609 0.05085
3880.45032 0.05082
3879.16455 0.05135
3877.87878 0.05231
3876.59301 0.05325
3875.30724 0.05380
3874.02148 0.05379
3872.73571 0.05308
3871.44994 0.05179
3870.16417 0.05046
3868.87840 0.04967
3867.59263 0.04945
3866.30686 0.04951
3865.02109 0.04978
3863.73532 0.05034
3862.44956 0.05112
3861.16379 0.05189
3859.87802 0.05249
3858.59225 0.05290
3857.30648 0.05309
3856.02071 0.05293
3854.73494 0.05250
3853.44917 0.05226
3852.16341 0.05253
3850.87764 0.05302
3849.59187 0.05313
3848.30610 0.05256
3847.02033 0.05151
3845.73456 0.05046
3844.44879 0.04980
3843.16302 0.04975
3841.87725 0.05027
3840.59149 0.05095
3839.30572 0.05117
3838.01995 0.05068
3836.73418 0.04988
3835.44841 0.04938
3834.16264 0.04946
3832.87687 0.04992
3831.59110 0.05031
3830.30534 0.05037
3829.01957 0.05012
3827.73380 0.04981
3826.44803 0.04965
3825.16226 0.04957
3823.87649 0.04925
3822.59072 0.04865
3821.30495 0.04829
3820.01918 0.04866
3818.73342 0.04953
3817.44765 0.05024
3816.16188 0.05045
3814.87611 0.05025
3813.59034 0.04977
3812.30457 0.04932
3811.01880 0.04932
3809.73303 0.04985
3808.44726 0.05040
3807.16150 0.05051
3805.87573 0.05021
3804.58996 0.04972
3803.30419 0.04929
3802.01842 0.04914
3800.73265 0.04942
3799.44688 0.04987
3798.16111 0.05006
3796.87535 0.04983
3795.58958 0.04936
3794.30381 0.04892
3793.01804 0.04875
3791.73227 0.04885
3790.44650 0.04907
3789.16073 0.04935
3787.87496 0.04982
3786.58919 0.05049
3785.30343 0.05087
3784.01766 0.05036
3782.73189 0.04902
3781.44612 0.04769
3780.16035 0.04723
3778.87458 0.04775
3777.58881 0.04861
3776.30304 0.04923
3775.01728 0.04951
3773.73151 0.04965
3772.44574 0.04976
3771.15997 0.04978
3769.87420 0.04959
3768.58843 0.04911
3767.30266 0.04845
3766.01689 0.04810
3764.73112 0.04848
3763.44536 0.04942
3762.15959 0.05010
3760.87382 0.04984
3759.58805 0.04872
3758.30228 0.04744
3757.01651 0.04677
3755.73074 0.04696
3754.44497 0.04770
3753.15921 0.04850
3751.87344 0.04895
3750.58767 0.04894
3749.30190 0.04872
3748.01613 0.04858
3746.73036 0.04834
3745.44459 0.04783
3744.15882 0.04734
3742.87305 0.04726
3741.58729 0.04773
3740.30152 0.04868
3739.01575 0.04973
3737.72998 0.05022
3736.44421 0.04974
3735.15844 0.04850
3733.87267 0.04694
3732.58690 0.04555
3731.30114 0.04481
3730.01537 0.04486
3728.72960 0.04543
3727.44383 0.04602
3726.15806 0.04633
3724.87229 0.04642
3723.58652 0.04656
3722.30075 0.04697
3721.01498 0.04741
3719.72922 0.04746
3718.44345 0.04692
3717.15768 0.04601
3715.87191 0.04500
3714.58614 0.04408
3713.30037 0.04351
3712.01460 0.04364
3710.72883 0.04454
3709.44307 0.04584
3708.15730 0.04703
3706.87153 0.04773
3705.58576 0.04786
3704.29999 0.04760
3703.01422 0.04734
3701.72845 0.04730
3700.44268 0.04724
3699.15691 0.04670
3697.87115 0.04569
3696.58538 0.04485
3695.29961 0.04476
3694.01384 0.04535
3692.72807 0.04610
3691.44230 0.04652
3690.15653 0.04635
3688.87076 0.04560
3687.58500 0.04454
3686.29923 0.04353
3685.01346 0.04295
3683.72769 0.04303
3682.44192 0.04364
3681.15615 0.04442
3679.87038 0.04513
3678.58461 0.04561
3677.29884 0.04567
3676.01308 0.04534
3674.72731 0.04485
3673.44154 0.04437
3672.15577 0.04397
3670.87000 0.04395
3669.58423 0.04447
3668.29846 0.04510
3667.01269 0.04523
3665.72693 0.04478
3664.44116 0.04430
3663.15539 0.04434
3661.86962 0.04499
3660.58385 0.04598
3659.29808 0.04703
3658.01231 0.04793
3656.72654 0.04855
3655.44077 0.04880
3654.15501 0.04871
3652.86924 0.04832
3651.58347 0.04778
3650.29770 0.04726
3649.01193 0.04693
3647.72616 0.04686
3646.44039 0.04693
3645.15462 0.04693
3643.86886 0.04680
3642.58309 0.04670
3641.29732 0.04683
3640.01155 0.04721
3638.72578 0.04766
3637.44001 0.04792
3636.15424 0.04782
3634.86847 0.04747
3633.58270 0.04729
3632.29694 0.04753
3631.01117 0.04798
3629.72540 0.04822
3628.43963 0.04805
3627.15386 0.04763
3625.86809 0.04720
3624.58232 0.04697
3623.29655 0.04692
3622.01079 0.04691
3620.72502 0.04688
3619.43925 0.04701
3618.15348 0.04765
3616.86771 0.04887
3615.58194 0.05031
3614.29617 0.05129
3613.01040 0.05149
3611.72463 0.05117
3610.43887 0.05093
3609.15310 0.05105
3607.86733 0.05138
3606.58156 0.05170
3605.29579 0.05196
3604.01002 0.05227
3602.72425 0.05258
3601.43848 0.05273
3600.15272 0.05272
3598.86695 0.05269
3597.58118 0.05288
3596.29541 0.05345
3595.00964 0.05427
3593.72387 0.05502
3592.43810 0.05538
3591.15233 0.05541
3589.86656 0.05546
3588.58080 0.05575
3587.29503 0.05602
3586.00926 0.05576
3584.72349 0.05485
3583.43772 0.05368
3582.15195 0.05274
3580.86618 0.05226
3579.58041 0.05225
3578.29464 0.05260
3577.00888 0.05315
3575.72311 0.05372
3574.43734 0.05424
3573.15157 0.05479
3571.86580 0.05538
3570.58003 0.05584
3569.29426 0.05596
3568.00849 0.05585
3566.72273 0.05583
3565.43696 0.05616
3564.15119 0.05668
3562.86542 0.05707
3561.57965 0.05718
3560.29388 0.05717
3559.00811 0.05731
3557.72234 0.05777
3556.43657 0.05853
3555.15081 0.05932
3553.86504 0.05979
3552.57927 0.05968
3551.29350 0.05913
3550.00773 0.05862
3548.72196 0.05855
3547.43619 0.05894
3546.15042 0.05949
3544.86466 0.05995
3543.57889 0.06037
3542.29312 0.06095
3541.00735 0.06160
3539.72158 0.06198
3538.43581 0.06181
3537.15004 0.06131
3535.86427 0.06088
3534.57850 0.06063
3533.29274 0.06029
3532.00697 0.05983
3530.72120 0.05966
3529.43543 0.06020
3528.14966 0.06124
3526.86389 0.06217
3525.57812 0.06265
3524.29235 0.06292
3523.00659 0.06331
3521.72082 0.06366
3520.43505 0.06355
3519.14928 0.06295
3517.86351 0.06240
3516.57774 0.06239
3515.29197 0.06283
3514.00620 0.06330
3512.72043 0.06361
3511.43467 0.06394
3510.14890 0.06441
3508.86313 0.06487
3507.57736 0.06511
3506.29159 0.06517
3505.00582 0.06529
3503.72005 0.06557
3502.43428 0.06587
3501.14852 0.06599
3499.86275 0.06584
3498.57698 0.06553
3497.29121 0.06534
3496.00544 0.06551
3494.71967 0.06598
3493.43390 0.06636
3492.14813 0.06628
3490.86236 0.06584
3489.57660 0.06553
3488.29083 0.06577
3487.00506 0.06654
3485.71929 0.06743
3484.43352 0.06805
3483.14775 0.06821
3481.86198 0.06798
3480.57621 0.06756
3479.29045 0.06717
3478.00468 0.06695
3476.71891 0.06696
3475.43314 0.06718
3474.14737 0.06754
3472.86160 0.06804
3471.57583 0.06871
3470.29006 0.06942
3469.00429 0.06987
3467.71853 0.06989
3466.43276 0.06963
3465.14699 0.06941
3463.86122 0.06948
3462.57545 0.06978
3461.28968 0.07003
3460.00391 0.06993
3458.71814 0.06943
3457.43238 0.06874
3456.14661 0.06815
3454.86084 0.06784
3453.57507 0.06777
3452.28930 0.06784
3451.00353 0.06812
3449.71776 0.06873
3448.43199 0.06963
3447.14622 0.07044
3445.86046 0.07077
3444.57469 0.07070
3443.28892 0.07074
3442.00315 0.07128
3440.71738 0.07217
3439.43161 0.07292
3438.14584 0.07320
3436.86007 0.07305
3435.57431 0.07259
3434.28854 0.07190
3433.00277 0.07113
3431.71700 0.07059
3430.43123 0.07059
3429.14546 0.07110
3427.85969 0.07176
3426.57392 0.07215
3425.28815 0.07223
3424.00239 0.07228
3422.71662 0.07259
3421.43085 0.07305
3420.14508 0.07329
3418.85931 0.07309
3417.57354 0.07269
3416.28777 0.07253
3415.00200 0.07283
3413.71624 0.07340
3412.43047 0.07388
3411.14470 0.07408
3409.85893 0.07398
3408.57316 0.07372
3407.28739 0.07350
3406.00162 0.07358
3404.71585 0.07401
3403.43008 0.07452
3402.14432 0.07486
3400.85855 0.07499
3399.57278 0.07469
3398.28701 0.07441
3397.00124 0.07487
3395.71547 0.07563
3394.42970 0.07605
3393.14393 0.07591
3391.85817 0.07553
3390.57240 0.07533
3389.28663 0.07539
3388.00086 0.07555
3386.71509 0.07578
3385.42932 0.07627
3384.14355 0.07715
3382.85778 0.07815
3381.57201 0.07885
3380.28625 0.07898
3379.00048 0.07869
3377.71471 0.07836
3376.42894 0.07829
3375.14317 0.07849
3373.85740 0.07875
3372.57163 0.07881
3371.28586 0.07864
3370.00010 0.07837
3368.71433 0.07816
3367.42856 0.07813
3366.14279 0.07823
3364.85702 0.07826
3363.57125 0.07801
3362.28548 0.07751
3360.99971 0.07706
3359.71394 0.07690
3358.42818 0.07707
3357.14241 0.07741
3355.85664 0.07776
3354.57087 0.07797
3353.28510 0.07799
3351.99933 0.07791
3350.71356 0.07788
3349.42779 0.07791
3348.14202 0.07781
3346.85626 0.07745
3345.57049 0.07706
3344.28472 0.07713
3342.99895 0.07787
3341.71318 0.07889
3340.42741 0.07952
3339.14164 0.07943
3337.85587 0.07897
3336.57011 0.07873
3335.28434 0.07901
3333.99857 0.07950
3332.71280 0.07973
3331.42703 0.07945
3330.14126 0.07883
3328.85549 0.07815
3327.56972 0.07764
3326.28395 0.07741
3324.99819 0.07752
3323.71242 0.07796
3322.42665 0.07856
3321.14088 0.07910
3319.85511 0.07941
3318.56934 0.07950
3317.28357 0.07954
3315.99780 0.07974
3314.71204 0.08025
3313.42627 0.08094
3312.14050 0.08142
3310.85473 0.08137
3309.56896 0.08089
3308.28319 0.08043
3306.99742 0.08025
3305.71165 0.08026
3304.42588 0.08032
3303.14012 0.08046
3301.85435 0.08068
3300.56858 0.08081
3299.28281 0.08061
3297.99704 0.08001
3296.71127 0.07910
3295.42550 0.07819
3294.13973 0.07767
3292.85397 0.07789
3291.56820 0.07882
3290.28243 0.08005
3288.99666 0.08117
3287.71089 0.08201
3286.42512 0.08251
3285.13935 0.08259
3283.85358 0.08222
3282.56781 0.08153
3281.28205 0.08077
3279.99628 0.08014
3278.71051 0.07971
3277.42474 0.07951
3276.13897 0.07946
3274.85320 0.07941
3273.56743 0.07931
3272.28166 0.07931
3270.99590 0.07952
3269.71013 0.07987
3268.42436 0.08014
3267.13859 0.08027
3265.85282 0.08034
3264.56705 0.08047
3263.28128 0.08074
3261.99551 0.08116
3260.70974 0.08159
3259.42398 0.08174
3258.13821 0.08137
3256.85244 0.08059
3255.56667 0.07986
3254.28090 0.07960
3252.99513 0.07980
3251.70936 0.08016
3250.42359 0.08038
3249.13783 0.08040
3247.85206 0.08018
3246.56629 0.07969
3245.28052 0.07899
3243.99475 0.07828
3242.70898 0.07781
3241.42321 0.07775
3240.13744 0.07806
3238.85167 0.07851
3237.56591 0.07873
3236.28014 0.07847
3234.99437 0.07780
3233.70860 0.07700
3232.42283 0.07636
3231.13706 0.07606
3229.85129 0.07613
3228.56552 0.07639
3227.27976 0.07659
3225.99399 0.07655
3224.70822 0.07636
3223.42245 0.07618
3222.13668 0.07617
3220.85091 0.07634
3219.56514 0.07654
3218.27937 0.07659
3216.99360 0.07641
3215.70784 0.07605
3214.42207 0.07564
3213.13630 0.07531
3211.85053 0.07510
3210.56476 0.07498
3209.27899 0.07492
3207.99322 0.07500
3206.70745 0.07529
3205.42169 0.07571
3204.13592 0.07603
3202.85015 0.07615
3201.56438 0.07617
3200.27861 0.07621
3198.99284 0.07627
3197.70707 0.07632
3196.42130 0.07636
3195.13553 0.07633
3193.84977 0.07614
3192.56400 0.07575
3191.27823 0.07532
3189.99246 0.07503
3188.70669 0.07484
3187.42092 0.07460
3186.13515 0.07428
3184.84938 0.07398
3183.56362 0.07385
3182.27785 0.07389
3180.99208 0.07401
3179.70631 0.07409
3178.42054 0.07402
3177.13477 0.07372
3175.84900 0.07321
3174.56323 0.07271
3173.27746 0.07243
3171.99170 0.07242
3170.70593 0.07249
3169.42016 0.07249
3168.13439 0.07239
3166.84862 0.07231
3165.56285 0.07226
3164.27708 0.07217
3162.99131 0.07201
3161.70555 0.07186
3160.41978 0.07174
3159.13401 0.07165
3157.84824 0.07157
3156.56247 0.07153
3155.27670 0.07146
3153.99093 0.07120
3152.70516 0.07068
3151.41939 0.07002
3150.13363 0.06948
3148.84786 0.06924
3147.56209 0.06927
3146.27632 0.06944
3144.99055 0.06970
3143.70478 0.07008
3142.41901 0.07058
3141.13324 0.07103
3139.84748 0.07115
3138.56171 0.07086
3137.27594 0.07034
3135.99017 0.06993
3134.70440 0.06982
3133.41863 0.06998
3132.13286 0.07021
3130.84709 0.07037
3129.56132 0.07035
3128.27556 0.07009
3126.98979 0.06961
3125.70402 0.06901
3124.41825 0.06844
3123.13248 0.06801
3121.84671 0.06770
3120.56094 0.06746
3119.27517 0.06722
3117.98940 0.06705
3116.70364 0.06706
3115.41787 0.06726
3114.13210 0.06750
3112.84633 0.06769
3111.56056 0.06779
3110.27479 0.06786
3108.98902 0.06792
3107.70325 0.06787
3106.41749 0.06764
3105.13172 0.06726
3103.84595 0.06697
3102.56018 0.06704
3101.27441 0.06752
3099.98864 0.06810
3098.70287 0.06838
3097.41710 0.06819
3096.13133 0.06778
3094.84557 0.06758
3093.55980 0.06777
3092.27403 0.06819
3090.98826 0.06849
3089.70249 0.06851
3088.41672 0.06833
3087.13095 0.06813
3085.84518 0.06797
3084.55942 0.06781
3083.27365 0.06757
3081.98788 0.06720
3080.70211 0.06674
3079.41634 0.06632
3078.13057 0.06619
3076.84480 0.06649
3075.55903 0.06707
3074.27326 0.06754
3072.98750 0.06761
3071.70173 0.06742
3070.41596 0.06738
3069.13019 0.06766
3067.84442 0.06804
3066.55865 0.06824
3065.27288 0.06827
3063.98711 0.06830
3062.70135 0.06827
3061.41558 0.06797
3060.12981 0.06736
3058.84404 0.06667
3057.55827 0.06621
3056.27250 0.06601
3054.98673 0.06595
3053.70096 0.06586
3052.41519 0.06575
3051.12943 0.06567
3049.84366 0.06560
3048.55789 0.06545
3047.27212 0.06514
3045.98635 0.06472
3044.70058 0.06432
3043.41481 0.06406
3042.12904 0.06394
3040.84328 0.06395
3039.55751 0.06412
3038.27174 0.06443
3036.98597 0.06474
3035.70020 0.06482
3034.41443 0.06458
3033.12866 0.06408
3031.84289 0.06356
3030.55712 0.06322
3029.27136 0.06316
3027.98559 0.06327
3026.69982 0.06334
3025.41405 0.06322
3024.12828 0.06297
3022.84251 0.06281
3021.55674 0.06285
3020.27097 0.06304
3018.98521 0.06319
3017.69944 0.06319
3016.41367 0.06305
3015.12790 0.06286
3013.84213 0.06268
3012.55636 0.06249
3011.27059 0.06219
3009.98482 0.06174
3008.69905 0.06133
3007.41329 0.06126
3006.12752 0.06158
3004.84175 0.06203
3003.55598 0.06230
3002.27021 0.06241
3000.98444 0.06238
2999.69867 0.06183
2998.41290 0.06173
2997.12714 0.06183
2995.84137 0.06207
2994.55560 0.06233
2993.26983 0.06245
2991.98406 0.06244
2990.69829 0.06239
2989.41252 0.06232
2988.12675 0.06211
2986.84098 0.06181
2985.55522 0.06166
2984.26945 0.06194
2982.98368 0.06262
2981.69791 0.06335
2980.41214 0.06387
2979.12637 0.06412
2977.84060 0.06422
2976.55483 0.06423
2975.26907 0.06421
2973.98330 0.06438
2972.69753 0.06500
2971.41176 0.06612
2970.12599 0.06748
2968.84022 0.06874
2967.55445 0.06978
2966.26868 0.07068
2964.98291 0.07155
2963.69715 0.07245
2962.41138 0.07332
2961.12561 0.07415
2959.83984 0.07495
2958.55407 0.07567
2957.26830 0.07629
2955.98253 0.07685
2954.69676 0.07740
2953.41100 0.07786
2952.12523 0.07811
2950.83946 0.07814
2949.55369 0.07805
2948.26792 0.07790
2946.98215 0.07771
2945.69638 0.07746
2944.41061 0.07714
2943.12484 0.07684
2941.83908 0.07678
2940.55331 0.07713
2939.26754 0.07785
2937.98177 0.07865
2936.69600 0.07930
2935.41023 0.07976
2934.12446 0.08015
2932.83869 0.08063
2931.55293 0.08125
2930.26716 0.08201
2928.98139 0.08283
2927.69562 0.08360
2926.40985 0.08420
2925.12408 0.08452
2923.83831 0.08450
2922.55254 0.08418
2921.26677 0.08369
2919.98101 0.08318
2918.69524 0.08276
2917.40947 0.08242
2916.12370 0.08210
2914.83793 0.08162
2913.55216 0.08088
2912.26639 0.07997
2910.98062 0.07925
2909.69486 0.07898
2908.40909 0.07904
2907.12332 0.07903
2905.83755 0.07862
2904.55178 0.07787
2903.26601 0.07707
2901.98024 0.07652
2900.69447 0.07623
2899.40870 0.07597
2898.12294 0.07552
2896.83717 0.07480
2895.55140 0.07389
2894.26563 0.07294
2892.97986 0.07208
2891.69409 0.07131
2890.40832 0.07061
2889.12255 0.06991
2887.83678 0.06924
2886.55102 0.06876
2885.26525 0.06861
2883.97948 0.06868
2882.69371 0.06871
2881.40794 0.06856
2880.12217 0.06833
2878.83640 0.06821
2877.55063 0.06836
2876.26487 0.06888
2874.97910 0.06966
2873.69333 0.07037
2872.40756 0.07070
2871.12179 0.07067
2869.83602 0.07065
2868.55025 0.07080
2867.26448 0.07095
2865.97871 0.07086
2864.69295 0.07061
2863.40718 0.07049
2862.12141 0.07061
2860.83564 0.07079
2859.54987 0.07082
2858.26410 0.07063
2856.97833 0.07029
2855.69256 0.06993
2854.40680 0.06961
2853.12103 0.06936
2851.83526 0.06914
2850.54949 0.06885
2849.26372 0.06840
2847.97795 0.06776
2846.69218 0.06700
2845.40641 0.06620
2844.12064 0.06544
2842.83488 0.06471
2841.54911 0.06397
2840.26334 0.06319
2838.97757 0.06244
2837.69180 0.06182
2836.40603 0.06133
2835.12026 0.06083
2833.83449 0.06028
2832.54873 0.05972
2831.26296 0.05918
2829.97719 0.05862
2828.69142 0.05805
2827.40565 0.05761
2826.11988 0.05741
2824.83411 0.05732
2823.54834 0.05713
2822.26257 0.05679
2820.97681 0.05643
2819.69104 0.05622
2818.40527 0.05611
2817.11950 0.05595
2815.83373 0.05565
2814.54796 0.05530
2813.26219 0.05505
2811.97642 0.05493
2810.69066 0.05485
2809.40489 0.05468
2808.11912 0.05442
2806.83335 0.05412
2805.54758 0.05379
2804.26181 0.05345
2802.97604 0.05317
2801.69027 0.05308
2800.40450 0.05321
2799.11874 0.05346
2797.83297 0.05366
2796.54720 0.05369
2795.26143 0.05354
2793.97566 0.05332
2792.68989 0.05317
2791.40412 0.05316
2790.11835 0.05321
2788.83259 0.05323
2787.54682 0.05308
2786.26105 0.05275
2784.97528 0.05229
2783.68951 0.05183
2782.40374 0.05149
2781.11797 0.05136
2779.83220 0.05143
2778.54643 0.05162
2777.26067 0.05180
2775.97490 0.05188
2774.68913 0.05185
2773.40336 0.05170
2772.11759 0.05142
2770.83182 0.05117
2769.54605 0.05111
2768.26028 0.05127
2766.97452 0.05137
2765.68875 0.05122
2764.40298 0.05094
2763.11721 0.05082
2761.83144 0.05087
2760.54567 0.05085
2759.25990 0.05063
2757.97413 0.05029
2756.68836 0.05006
2755.40260 0.05004
2754.11683 0.05021
2752.83106 0.05043
2751.54529 0.05053
2750.25952 0.05041
2748.97375 0.05011
2747.68798 0.04980
2746.40221 0.04957
2745.11645 0.04947
2743.83068 0.04948
2742.54491 0.04960
2741.25914 0.04982
2739.97337 0.05011
2738.68760 0.05035
2737.40183 0.05041
2736.11606 0.05023
2734.83029 0.04985
2733.54453 0.04944
2732.25876 0.04915
2730.97299 0.04899
2729.68722 0.04891
2728.40145 0.04879
2727.11568 0.04858
2725.82991 0.04828
2724.54414 0.04799
2723.25838 0.04782
2721.97261 0.04783
2720.68684 0.04799
2719.40107 0.04820
2718.11530 0.04836
2716.82953 0.04837
2715.54376 0.04821
2714.25799 0.04799
2712.97222 0.04789
2711.68646 0.04788
2710.40069 0.04784
2709.11492 0.04765
2707.82915 0.04737
2706.54338 0.04716
2705.25761 0.04711
2703.97184 0.04725
2702.68607 0.04749
2701.40031 0.04769
2700.11454 0.04770
2698.82877 0.04747
2697.54300 0.04710
2696.25723 0.04678
2694.97146 0.04662
2693.68569 0.04661
2692.39992 0.04660
2691.11415 0.04644
2689.82839 0.04615
2688.54262 0.04590
2687.25685 0.04583
2685.97108 0.04587
2684.68531 0.04586
2683.39954 0.04574
2682.11377 0.04559
2680.82800 0.04554
2679.54224 0.04558
2678.25647 0.04565
2676.97070 0.04569
2675.68493 0.04570
2674.39916 0.04571
2673.11339 0.04575
2671.82762 0.04579
2670.54185 0.04577
2669.25608 0.04568
2667.97032 0.04551
2666.68455 0.04525
2665.39878 0.04499
2664.11301 0.04488
2662.82724 0.04506
2661.54147 0.04547
2660.25570 0.04592
2658.96993 0.04623
2657.68417 0.04636
2656.39840 0.04638
2655.11263 0.04636
2653.82686 0.04630
2652.54109 0.04611
2651.25532 0.04568
2649.96955 0.04507
2648.68378 0.04442
2647.39801 0.04393
2646.11225 0.04372
2644.82648 0.04383
2643.54071 0.04415
2642.25494 0.04450
2640.96917 0.04476
2639.68340 0.04488
2638.39763 0.04481
2637.11186 0.04446
2635.82609 0.04380
2634.54033 0.04303
2633.25456 0.04244
2631.96879 0.04225
2630.68302 0.04249
2629.39725 0.04299
2628.11148 0.04347
2626.82571 0.04372
2625.53994 0.04361
2624.25418 0.04320
2622.96841 0.04261
2621.68264 0.04203
2620.39687 0.04159
2619.11110 0.04134
2617.82533 0.04120
2616.53956 0.04114
2615.25379 0.04120
2613.96802 0.04141
2612.68226 0.04160
2611.39649 0.04153
2610.11072 0.04112
2608.82495 0.04054
2607.53918 0.04008
2606.25341 0.03997
2604.96764 0.04019
2603.68187 0.04052
2602.39611 0.04065
2601.11034 0.04043
2599.82457 0.03992
2598.53880 0.03925
2597.25303 0.03861
2595.96726 0.03816
2594.68149 0.03800
2593.39572 0.03808
2592.10995 0.03825
2590.82419 0.03838
2589.53842 0.03841
2588.25265 0.03841
2586.96688 0.03843
2585.68111 0.03849
2584.39534 0.03853
2583.10957 0.03852
2581.82380 0.03841
2580.53804 0.03818
2579.25227 0.03793
2577.96650 0.03783
2576.68073 0.03797
2575.39496 0.03816
2574.10919 0.03808
2572.82342 0.03766
2571.53765 0.03715
2570.25188 0.03692
2568.96612 0.03706
2567.68035 0.03746
2566.39458 0.03790
2565.10881 0.03820
2563.82304 0.03822
2562.53727 0.03785
2561.25150 0.03718
2559.96573 0.03651
2558.67997 0.03608
2557.39420 0.03586
2556.10843 0.03572
2554.82266 0.03560
2553.53689 0.03555
2552.25112 0.03561
2550.96535 0.03572
2549.67958 0.03578
2548.39381 0.03567
2547.10805 0.03539
2545.82228 0.03501
2544.53651 0.03467
2543.25074 0.03448
2541.96497 0.03452
2540.67920 0.03483
2539.39343 0.03532
2538.10766 0.03573
2536.82190 0.03587
2535.53613 0.03573
2534.25036 0.03550
2532.96459 0.03542
2531.67882 0.03555
2530.39305 0.03575
2529.10728 0.03574
2527.82151 0.03544
2526.53574 0.03509
2525.24998 0.03500
2523.96421 0.03519
2522.67844 0.03543
2521.39267 0.03552
2520.10690 0.03543
2518.82113 0.03522
2517.53536 0.03497
2516.24959 0.03483
2514.96383 0.03488
2513.67806 0.03504
2512.39229 0.03521
2511.10652 0.03532
2509.82075 0.03530
2508.53498 0.03499
2507.24921 0.03430
2505.96344 0.03344
2504.67767 0.03287
2503.39191 0.03283
2502.10614 0.03308
2500.82037 0.03328
2499.53460 0.03335
2498.24883 0.03350
2496.96306 0.03383
2495.67729 0.03415
2494.39152 0.03427
2493.10576 0.03422
2491.81999 0.03419
2490.53422 0.03422
2489.24845 0.03422
2487.96268 0.03418
2486.67691 0.03418
2485.39114 0.03428
2484.10537 0.03441
2482.81960 0.03455
2481.53384 0.03469
2480.24807 0.03478
2478.96230 0.03472
2477.67653 0.03447
2476.39076 0.03411
2475.10499 0.03384
2473.81922 0.03373
2472.53345 0.03372
2471.24769 0.03370
2469.96192 0.03370
2468.67615 0.03376
2467.39038 0.03389
2466.10461 0.03395
2464.81884 0.03387
2463.53307 0.03366
2462.24730 0.03344
2460.96153 0.03333
2459.67577 0.03333
2458.39000 0.03332
2457.10423 0.03323
2455.81846 0.03308
2454.53269 0.03296
2453.24692 0.03288
2451.96115 0.03287
2450.67538 0.03292
2449.38962 0.03299
2448.10385 0.03305
2446.81808 0.03309
2445.53231 0.03311
2444.24654 0.03312
2442.96077 0.03309
2441.67500 0.03304
2440.38923 0.03299
2439.10346 0.03294
2437.81770 0.03289
2436.53193 0.03277
2435.24616 0.03257
2433.96039 0.03244
2432.67462 0.03266
2431.38885 0.03328
2430.10308 0.03395
2428.81731 0.03427
2427.53155 0.03409
2426.24578 0.03358
2424.96001 0.03296
2423.67424 0.03239
2422.38847 0.03196
2421.10270 0.03173
2419.81693 0.03166
2418.53116 0.03166
2417.24539 0.03163
2415.95963 0.03155
2414.67386 0.03149
2413.38809 0.03160
2412.10232 0.03184
2410.81655 0.03208
2409.53078 0.03221
2408.24501 0.03217
2406.95924 0.03194
2405.67347 0.03154
2404.38771 0.03112
2403.10194 0.03095
2401.81617 0.03104
2400.53040 0.03132
2399.24463 0.03253
2397.95886 0.03231
2396.67309 0.03220
2395.38732 0.03235
2394.10156 0.03237
2392.81579 0.03224
2391.53002 0.03208
2390.24425 0.03187
2388.95848 0.03155
2387.67271 0.03113
2386.38694 0.03073
2385.10117 0.03045
2383.81540 0.03031
2382.52964 0.03027
2381.24387 0.03032
2379.95810 0.03046
2378.67233 0.03067
2377.38656 0.03086
2376.10079 0.03099
2374.81502 0.03111
2373.52925 0.03135
2372.24349 0.03170
2370.95772 0.03203
2369.67195 0.03220
2368.38618 0.03223
2367.10041 0.03229
2365.81464 0.03251
2364.52887 0.03284
2363.24310 0.03312
2361.95733 0.03320
2360.67157 0.03307
2359.38580 0.03286
2358.10003 0.03269
2356.81426 0.03263
2355.52849 0.03263
2354.24272 0.03259
2352.95695 0.03246
2351.67118 0.03226
2350.38542 0.03209
2349.09965 0.03202
2347.81388 0.03211
2346.52811 0.03232
2345.24234 0.03256
2343.95657 0.03277
2342.67080 0.03291
2341.38503 0.03305
2340.09926 0.03323
2338.81350 0.03339
2337.52773 0.03340
2336.24196 0.03320
2334.95619 0.03289
2333.67042 0.03269
2332.38465 0.03266
2331.09888 0.03274
2329.81311 0.03289
2328.52735 0.03322
2327.24158 0.03385
2325.95581 0.03472
2324.67004 0.03553
2323.38427 0.03595
2322.09850 0.03589
2320.81273 0.03553
2319.52696 0.03510
2318.24119 0.03468
2316.95543 0.03416
2315.66966 0.03345
2314.38389 0.03264
2313.09812 0.03202
2311.81235 0.03175
2310.52658 0.03173
2309.24081 0.03174
2307.95504 0.03160
2306.66928 0.03133
2305.38351 0.03101
2304.09774 0.03077
2302.81197 0.03075
2301.52620 0.03095
2300.24043 0.03122
2298.95466 0.03134
2297.66889 0.03123
2296.38312 0.03100
2295.09736 0.03083
2293.81159 0.03075
2292.52582 0.03068
2291.24005 0.03063
2289.95428 0.03073
2288.66851 0.03100
2287.38274 0.03118
2286.09697 0.03100
2284.81121 0.03045
2283.52544 0.02988
2282.23967 0.02962
2280.95390 0.02978
2279.66813 0.03009
2278.38236 0.03012
2277.09659 0.02962
2275.81082 0.02881
2274.52505 0.02820
2273.23929 0.02810
2271.95352 0.02827
2270.66775 0.02811
2269.38198 0.02720
2268.09621 0.02576
2266.81044 0.02450
2265.52467 0.02408
2264.23890 0.02450
2262.95314 0.02515
2261.66737 0.02535
2260.38160 0.02490
2259.09583 0.02413
2257.81006 0.02349
2256.52429 0.02323
2255.23852 0.02329
2253.95275 0.02351
2252.66698 0.02368
2251.38122 0.02345
2250.09545 0.02311
2248.80968 0.02400
2247.52391 0.02367
2246.23814 0.02309
2244.95237 0.02247
2243.66660 0.02208
2242.38083 0.02209
2241.09507 0.02251
2239.80930 0.02322
2238.52353 0.02396
2237.23776 0.02445
2235.95199 0.02447
2234.66622 0.02411
2233.38045 0.02369
2232.09468 0.02352
2230.80891 0.02362
2229.52315 0.02371
2228.23738 0.02348
2226.95161 0.02295
2225.66584 0.02235
2224.38007 0.02189
2223.09430 0.02157
2221.80853 0.02127
2220.52276 0.02098
2219.23700 0.02092
2217.95123 0.02123
2216.66546 0.02172
2215.37969 0.02201
2214.09392 0.02190
2212.80815 0.02158
2211.52238 0.02132
2210.23661 0.02117
2208.95084 0.02099
2207.66508 0.02063
2206.37931 0.02000
2205.09354 0.01931
2203.80777 0.01899
2202.52200 0.01914
2201.23623 0.01925
2199.95046 0.01876
2198.66469 0.01787
2197.37893 0.01738
2196.09316 0.01764
2194.80739 0.01828
2193.52162 0.01887
2192.23585 0.01938
2190.95008 0.01991
2189.66431 0.02032
2188.37854 0.02020
2187.09277 0.01921
2185.80701 0.01748
2184.52124 0.01573
2183.23547 0.01487
2181.94970 0.01530
2180.66393 0.01652
2179.37816 0.01758
2178.09239 0.01763
2176.80662 0.01644
2175.52085 0.01459
2174.23509 0.01323
2172.94932 0.01326
2171.66355 0.01457
2170.37778 0.01634
2169.09201 0.01771
2167.80624 0.01829
2166.52047 0.01816
2165.23470 0.01762
2163.94894 0.01689
2162.66317 0.01573
2161.37740 0.01357
2160.09163 0.01032
2158.80586 0.00710
2157.52009 0.00556
2156.23432 0.00615
2154.94855 0.00758
2153.66278 0.00821
2152.37702 0.00786
2151.09125 0.00765
2149.80548 0.00855
2148.51971 0.01029
2147.23394 0.01205
2145.94817 0.01339
2144.66240 0.01430
2143.37663 0.01472
2142.09087 0.01458
2140.80510 0.01401
2139.51933 0.01337
2138.23356 0.01289
2136.94779 0.01256
2135.66202 0.01229
2134.37625 0.01212
2133.09048 0.01223
2131.80471 0.01271
2130.51895 0.01349
2129.23318 0.01432
2127.94741 0.01500
2126.66164 0.01551
2125.37587 0.01596
2124.09010 0.01645
2122.80433 0.01695
2121.51856 0.01734
2120.23280 0.01763
2118.94703 0.01806
2117.66126 0.01872
2116.37549 0.01934
2115.08972 0.01957
2113.80395 0.01933
2112.51818 0.01892
2111.23241 0.01868
2109.94664 0.01878
2108.66088 0.01903
2107.37511 0.01907
2106.08934 0.01863
2104.80357 0.01780
2103.51780 0.01702
2102.23203 0.01667
2100.94626 0.01677
2099.66049 0.01722
2098.37473 0.01756
2097.08896 0.01717
2095.80319 0.01643
2094.51742 0.01592
2093.23165 0.01593
2091.94588 0.01638
2090.66011 0.01687
2089.37434 0.01702
2088.08857 0.01673
2086.80281 0.01621
2085.51704 0.01585
2084.23127 0.01587
2082.94550 0.01624
2081.65973 0.01671
2080.37396 0.01706
2079.08819 0.01726
2077.80242 0.01725
2076.51666 0.01695
2075.23089 0.01639
2073.94512 0.01583
2072.65935 0.01562
2071.37358 0.01572
2070.08781 0.01581
2068.80204 0.01556
2067.51627 0.01500
2066.23050 0.01438
2064.94474 0.01397
2063.65897 0.01383
2062.37320 0.01383
2061.08743 0.01386
2059.80166 0.01391
2058.51589 0.01407
2057.23012 0.01428
2055.94435 0.01438
2054.65859 0.01431
2053.37282 0.01418
2052.08705 0.01410
2050.80128 0.01394
2049.51551 0.01344
2048.22974 0.01260
2046.94397 0.01183
2045.65820 0.01164
2044.37243 0.01203
2043.08667 0.01247
2041.80090 0.01244
2040.51513 0.01199
2039.22936 0.01166
2037.94359 0.01175
2036.65782 0.01194
2035.37205 0.01168
2034.08628 0.01090
2032.80052 0.00991
2031.51475 0.00895
2030.22898 0.00803
2028.94321 0.00738
2027.65744 0.00740
2026.37167 0.00815
2025.08590 0.00910
2023.80013 0.00958
2022.51436 0.00935
2021.22860 0.00874
2019.94283 0.00821
2018.65706 0.00810
2017.37129 0.00853
2016.08552 0.00930
2014.79975 0.01005
2013.51398 0.01046
2012.22821 0.01035
2010.94245 0.00979
2009.65668 0.00896
2008.37091 0.00827
2007.08514 0.00814
2005.79937 0.00865
2004.51360 0.00938
2003.22783 0.00980
2001.94206 0.00985
2000.65629 0.00996
1999.37053 0.01044
1998.08476 0.01102
1996.79899 0.01119
1995.51322 0.01089
1994.22745 0.01068
1992.94168 0.01116
1991.65591 0.01233
1990.37014 0.01355
1989.08438 0.01415
1987.79861 0.01402
1986.51284 0.01358
1985.22707 0.01327
1983.94130 0.01334
1982.65553 0.01373
1981.36976 0.01413
1980.08399 0.01413
1978.79822 0.01351
1977.51246 0.01246
1976.22669 0.01140
1974.94092 0.01069
1973.65515 0.01058
1972.36938 0.01122
1971.08361 0.01256
1969.79784 0.01411
1968.51207 0.01507
1967.22631 0.01490
1965.94054 0.01388
1964.65477 0.01289
1963.36900 0.01259
1962.08323 0.01292
1960.79746 0.01346
1959.51169 0.01392
1958.22592 0.01416
1956.94015 0.01395
1955.65439 0.01321
1954.36862 0.01226
1953.08285 0.01171
1951.79708 0.01192
1950.51131 0.01282
1949.22554 0.01402
1947.93977 0.01513
1946.65400 0.01586
1945.36823 0.01610
1944.08247 0.01595
1942.79670 0.01566
1941.51093 0.01555
1940.22516 0.01583
1938.93939 0.01641
1937.65362 0.01691
1936.36785 0.01693
1935.08208 0.01641
1933.79632 0.01571
1932.51055 0.01533
1931.22478 0.01552
1929.93901 0.01619
1928.65324 0.01709
1927.36747 0.01793
1926.08170 0.01841
1924.79593 0.01842
1923.51016 0.01817
1922.22440 0.01806
1920.93863 0.01825
1919.65286 0.01847
1918.36709 0.01841
1917.08132 0.01809
1915.79555 0.01777
1914.50978 0.01762
1913.22401 0.01765
1911.93825 0.01772
1910.65248 0.01775
1909.36671 0.01772
1908.08094 0.01760
1906.79517 0.01735
1905.50940 0.01698
1904.22363 0.01663
1902.93786 0.01648
1901.65209 0.01662
1900.36633 0.01695
1899.08056 0.01733
1897.79479 0.01769
1896.50902 0.01802
1895.22325 0.01832
1893.93748 0.01858
1892.65171 0.01871
1891.36594 0.01862
1890.08018 0.01829
1888.79441 0.01786
1887.50864 0.01753
1886.22287 0.01743
1884.93710 0.01751
1883.65133 0.01757
1882.36556 0.01748
1881.07979 0.01729
1879.79402 0.01710
1878.50826 0.01702
1877.22249 0.01709
1875.93672 0.01726
1874.65095 0.01753
1873.36518 0.01788
1872.07941 0.01826
1870.79364 0.01855
1869.50787 0.01862
1868.22211 0.01844
1866.93634 0.01810
1865.65057 0.01776
1864.36480 0.01753
1863.07903 0.01743
1861.79326 0.01741
1860.50749 0.01745
1859.22172 0.01749
1857.93595 0.01752
1856.65019 0.01758
1855.36442 0.01776
1854.07865 0.01802
1852.79288 0.01826
1851.50711 0.01834
1850.22134 0.01827
1848.93557 0.01819
1847.64980 0.01821
1846.36404 0.01831
1845.07827 0.01838
1843.79250 0.01840
1842.50673 0.01842
1841.22096 0.01850
1839.93519 0.01867
1838.64942 0.01887
1837.36365 0.01899
1836.07788 0.01900
1834.79212 0.01897
1833.50635 0.01895
1832.22058 0.01891
1830.93481 0.01884
1829.64904 0.01880
1828.36327 0.01886
1827.07750 0.01900
1825.79173 0.01913
1824.50597 0.01919
1823.22020 0.01911
1821.93443 0.01890
1820.64866 0.01864
1819.36289 0.01842
1818.07712 0.01826
1816.79135 0.01813
1815.50558 0.01802
1814.21981 0.01794
1812.93405 0.01792
1811.64828 0.01799
1810.36251 0.01812
1809.07674 0.01830
1807.79097 0.01846
1806.50520 0.01862
1805.21943 0.01879
1803.93366 0.01895
1802.64790 0.01907
1801.36213 0.01912
1800.07636 0.01910
1798.79059 0.01904
1797.50482 0.01902
1796.21905 0.01907
1794.93328 0.01915
1793.64751 0.01918
1792.36174 0.01918
1791.07598 0.01923
1789.79021 0.01939
1788.50444 0.01954
1787.21867 0.01957
1785.93290 0.01945
1784.64713 0.01931
1783.36136 0.01923
1782.07559 0.01922
1780.78983 0.01924
1779.50406 0.01925
1778.21829 0.01921
1776.93252 0.01912
1775.64675 0.01901
1774.36098 0.01890
1773.07521 0.01884
1771.78944 0.01887
1770.50367 0.01892
1769.21791 0.01893
1767.93214 0.01892
1766.64637 0.01898
1765.36060 0.01912
1764.07483 0.01927
1762.78906 0.01936
1761.50329 0.01940
1760.21752 0.01940
1758.93176 0.01938
1757.64599 0.01937
1756.36022 0.01940
1755.07445 0.01945
1753.78868 0.01942
1752.50291 0.01930
1751.21714 0.01921
1749.93137 0.01927
1748.64560 0.01940
1747.35984 0.01948
1746.07407 0.01944
1744.78830 0.01935
1743.50253 0.01930
1742.21676 0.01934
1740.93099 0.01946
1739.64522 0.01962
1738.35945 0.01986
1737.07369 0.02009
1735.78792 0.02024
1734.50215 0.02033
1733.21638 0.02045
1731.93061 0.02054
1730.64484 0.02050
1729.35907 0.02035
1728.07330 0.02020
1726.78753 0.02012
1725.50177 0.02009
1724.21600 0.02021
1722.93023 0.02053
1721.64446 0.02103
1720.35869 0.02153
1719.07292 0.02186
1717.78715 0.02204
1716.50138 0.02220
1715.21561 0.02241
1713.92985 0.02267
1712.64408 0.02299
1711.35831 0.02343
1710.07254 0.02399
1708.78677 0.02465
1707.50100 0.02535
1706.21523 0.02606
1704.92946 0.02682
1703.64370 0.02761
1702.35793 0.02834
1701.07216 0.02903
1699.78639 0.02982
1698.50062 0.03067
1697.21485 0.03144
1695.92908 0.03214
1694.64331 0.03291
1693.35754 0.03371
1692.07178 0.03449
1690.78601 0.03531
1689.50024 0.03628
1688.21447 0.03730
1686.92870 0.03820
1685.64293 0.03893
1684.35716 0.03966
1683.07139 0.04052
1681.78563 0.04146
1680.49986 0.04239
1679.21409 0.04331
1677.92832 0.04421
1676.64255 0.04503
1675.35678 0.04586
1674.07101 0.04678
1672.78524 0.04774
1671.49947 0.04866
1670.21371 0.04954
1668.92794 0.05042
1667.64217 0.05131
1666.35640 0.05217
1665.07063 0.05297
1663.78486 0.05376
1662.49909 0.05459
1661.21332 0.05543
1659.92756 0.05621
1658.64179 0.05698
1657.35602 0.05780
1656.07025 0.05860
1654.78448 0.05926
1653.49871 0.05982
1652.21294 0.06039
1650.92717 0.06089
1649.64140 0.06110
1648.35564 0.06104
1647.06987 0.06094
1645.78410 0.06097
1644.49833 0.06110
1643.21256 0.06117
1641.92679 0.06109
1640.64102 0.06088
1639.35525 0.06061
1638.06949 0.06029
1636.78372 0.05988
1635.49795 0.05944
1634.21218 0.05896
1632.92641 0.05844
1631.64064 0.05783
1630.35487 0.05719
1629.06910 0.05655
1627.78333 0.05594
1626.49757 0.05532
1625.21180 0.05464
1623.92603 0.05393
1622.64026 0.05329
1621.35449 0.05281
1620.06872 0.05241
1618.78295 0.05199
1617.49718 0.05155
1616.21142 0.05115
1614.92565 0.05082
1613.63988 0.05049
1612.35411 0.05013
1611.06834 0.04982
1609.78257 0.04962
1608.49680 0.04953
1607.21103 0.04950
1605.92526 0.04952
1604.63950 0.04957
1603.35373 0.04967
1602.06796 0.04982
1600.78219 0.05003
1599.49642 0.05027
1598.21065 0.05054
1596.92488 0.05084
1595.63911 0.05119
1594.35335 0.05157
1593.06758 0.05196
1591.78181 0.05232
1590.49604 0.05267
1589.21027 0.05305
1587.92450 0.05348
1586.63873 0.05396
1585.35296 0.05448
1584.06719 0.05502
1582.78143 0.05561
1581.49566 0.05630
1580.20989 0.05708
1578.92412 0.05789
1577.63835 0.05864
1576.35258 0.05939
1575.06681 0.06023
1573.78104 0.06110
1572.49528 0.06188
1571.20951 0.06255
1569.92374 0.06320
1568.63797 0.06389
1567.35220 0.06458
1566.06643 0.06522
1564.78066 0.06584
1563.49489 0.06649
1562.20912 0.06709
1560.92336 0.06756
1559.63759 0.06797
1558.35182 0.06842
1557.06605 0.06887
1555.78028 0.06918
1554.49451 0.06933
1553.20874 0.06940
1551.92297 0.06942
1550.63721 0.06938
1549.35144 0.06929
1548.06567 0.06918
1546.77990 0.06902
1545.49413 0.06877
1544.20836 0.06845
1542.92259 0.06805
1541.63682 0.06754
1540.35105 0.06697
1539.06529 0.06644
1537.77952 0.06593
1536.49375 0.06535
1535.20798 0.06466
1533.92221 0.06400
1532.63644 0.06353
1531.35067 0.06323
1530.06490 0.06302
1528.77914 0.06287
1527.49337 0.06281
1526.20760 0.06287
1524.92183 0.06305
1523.63606 0.06326
1522.35029 0.06347
1521.06452 0.06377
1519.77875 0.06420
1518.49298 0.06467
1517.20722 0.06511
1515.92145 0.06558
1514.63568 0.06617
1513.34991 0.06690
1512.06414 0.06777
1510.77837 0.06875
1509.49260 0.06971
1508.20683 0.07054
1506.92107 0.07129
1505.63530 0.07206
1504.34953 0.07286
1503.06376 0.07359
1501.77799 0.07423
1500.49222 0.07487
1499.20645 0.07550
1497.92068 0.07607
1496.63491 0.07654
1495.34915 0.07698
1494.06338 0.07740
1492.77761 0.07778
1491.49184 0.07816
1490.20607 0.07864
1488.92030 0.07925
1487.63453 0.07992
1486.34876 0.08061
1485.06299 0.08126
1483.77723 0.08190
1482.49146 0.08258
1481.20569 0.08335
1479.91992 0.08424
1478.63415 0.08525
1477.34838 0.08638
1476.06261 0.08755
1474.77684 0.08866
1473.49108 0.08967
1472.20531 0.09065
1470.91954 0.09164
1469.63377 0.09260
1468.34800 0.09342
1467.06223 0.09412
1465.77646 0.09478
1464.49069 0.09554
1463.20492 0.09649
1461.91916 0.09760
1460.63339 0.09881
1459.34762 0.10000
1458.06185 0.10111
1456.77608 0.10215
1455.49031 0.10311
1454.20454 0.10390
1452.91877 0.10447
1451.63301 0.10491
1450.34724 0.10527
1449.06147 0.10554
1447.77570 0.10568
1446.48993 0.10570
1445.20416 0.10563
1443.91839 0.10554
1442.63262 0.10544
1441.34685 0.10536
1440.06109 0.10527
1438.77532 0.10518
1437.48955 0.10512
1436.20378 0.10521
1434.91801 0.10548
1433.63224 0.10591
1432.34647 0.10648
1431.06070 0.10722
1429.77494 0.10819
1428.48917 0.10933
1427.20340 0.11059
1425.91763 0.11192
1424.63186 0.11330
1423.34609 0.11471
1422.06032 0.11606
1420.77455 0.11730
1419.48878 0.11845
1418.20302 0.11956
1416.91725 0.12057
1415.63148 0.12136
1414.34571 0.12193
1413.05994 0.12231
1411.77417 0.12254
1410.48840 0.12257
1409.20263 0.12235
1407.91687 0.12187
1406.63110 0.12115
1405.34533 0.12024
1404.05956 0.11916
1402.77379 0.11787
1401.48802 0.11635
1400.20225 0.11463
1398.91648 0.11277
1397.63071 0.11084
1396.34495 0.10885
1395.05918 0.10680
1393.77341 0.10470
1392.48764 0.10259
1391.20187 0.10048
1389.91610 0.09838
1388.63033 0.09631
1387.34456 0.09423
1386.05880 0.09211
1384.77303 0.08996
1383.48726 0.08780
1382.20149 0.08568
1380.91572 0.08364
1379.62995 0.08169
1378.34418 0.07977
1377.05841 0.07782
1375.77264 0.07578
1374.48688 0.07365
1373.20111 0.07148
1371.91534 0.06934
1370.62957 0.06727
1369.34380 0.06532
1368.05803 0.06350
1366.77226 0.06179
1365.48649 0.06016
1364.20073 0.05861
1362.91496 0.05715
1361.62919 0.05578
1360.34342 0.05452
1359.05765 0.05336
1357.77188 0.05229
1356.48611 0.05131
1355.20034 0.05040
1353.91457 0.04955
1352.62881 0.04878
1351.34304 0.04813
1350.05727 0.04761
1348.77150 0.04716
1347.48573 0.04670
1346.19996 0.04620
1344.91419 0.04569
1343.62842 0.04520
1342.34266 0.04476
1341.05689 0.04434
1339.77112 0.04392
1338.48535 0.04349
1337.19958 0.04305
1335.91381 0.04260
1334.62804 0.04216
1333.34227 0.04172
1332.05650 0.04130
1330.77074 0.04089
1329.48497 0.04046
1328.19920 0.04001
1326.91343 0.03954
1325.62766 0.03910
1324.34189 0.03869
1323.05612 0.03833
1321.77035 0.03801
1320.48459 0.03772
1319.19882 0.03743
1317.91305 0.03712
1316.62728 0.03677
1315.34151 0.03643
1314.05574 0.03612
1312.76997 0.03586
1311.48420 0.03565
1310.19843 0.03545
1308.91267 0.03521
1307.62690 0.03493
1306.34113 0.03463
1305.05536 0.03434
1303.76959 0.03405
1302.48382 0.03375
1301.19805 0.03345
1299.91228 0.03318
1298.62652 0.03293
1297.34075 0.03267
1296.05498 0.03239
1294.76921 0.03212
1293.48344 0.03188
1292.19767 0.03168
1290.91190 0.03150
1289.62613 0.03134
1288.34036 0.03116
1287.05460 0.03095
1285.76883 0.03073
1284.48306 0.03056
1283.19729 0.03046
1281.91152 0.03040
1280.62575 0.03033
1279.33998 0.03020
1278.05421 0.03000
1276.76845 0.02977
1275.48268 0.02956
1274.19691 0.02939
1272.91114 0.02925
1271.62537 0.02911
1270.33960 0.02898
1269.05383 0.02891
1267.76806 0.02890
1266.48229 0.02894
1265.19653 0.02896
1263.91076 0.02893
1262.62499 0.02882
1261.33922 0.02870
1260.05345 0.02857
1258.76768 0.02844
1257.48191 0.02833
1256.19614 0.02824
1254.91037 0.02818
1253.62461 0.02814
1252.33884 0.02813
1251.05307 0.02813
1249.76730 0.02813
1248.48153 0.02812
1247.19576 0.02806
1245.90999 0.02797
1244.62422 0.02789
1243.33846 0.02784
1242.05269 0.02781
1240.76692 0.02775
1239.48115 0.02765
1238.19538 0.02756
1236.90961 0.02750
1235.62384 0.02747
1234.33807 0.02744
1233.05230 0.02740
1231.76654 0.02734
1230.48077 0.02726
1229.19500 0.02714
1227.90923 0.02695
1226.62346 0.02670
1225.33769 0.02644
1224.05192 0.02618
1222.76615 0.02595
1221.48039 0.02572
1220.19462 0.02549
1218.90885 0.02528
1217.62308 0.02511
1216.33731 0.02499
1215.05154 0.02488
1213.76577 0.02476
1212.48000 0.02465
1211.19423 0.02456
1209.90847 0.02452
1208.62270 0.02452
1207.33693 0.02452
1206.05116 0.02451
1204.76539 0.02451
1203.47962 0.02448
1202.19385 0.02435
1200.90808 0.02413
1199.62232 0.02411
1198.33655 0.02400
1197.05078 0.02389
1195.76501 0.02378
1194.47924 0.02367
1193.19347 0.02359
1191.90770 0.02352
1190.62193 0.02345
1189.33616 0.02337
1188.05040 0.02329
1186.76463 0.02319
1185.47886 0.02309
1184.19309 0.02297
1182.90732 0.02283
1181.62155 0.02269
1180.33578 0.02256
1179.05001 0.02242
1177.76425 0.02233
1176.47848 0.02232
1175.19271 0.02241
1173.90694 0.02254
1172.62117 0.02263
1171.33540 0.02268
1170.04963 0.02271
1168.76386 0.02277
1167.47809 0.02286
1166.19233 0.02294
1164.90656 0.02297
1163.62079 0.02294
1162.33502 0.02291
1161.04925 0.02292
1159.76348 0.02297
1158.47771 0.02307
1157.19194 0.02325
1155.90618 0.02354
1154.62041 0.02389
1153.33464 0.02421
1152.04887 0.02443
1150.76310 0.02451
1149.47733 0.02454
1148.19156 0.02463
1146.90579 0.02486
1145.62002 0.02526
1144.33426 0.02578
1143.04849 0.02640
1141.76272 0.02710
1140.47695 0.02789
1139.19118 0.02874
1137.90541 0.02967
1136.61964 0.03074
1135.33387 0.03201
1134.04811 0.03347
1132.76234 0.03509
1131.47657 0.03681
1130.19080 0.03867
1128.90503 0.04075
1127.61926 0.04308
1126.33349 0.04568
1125.04772 0.04855
1123.76195 0.05168
1122.47619 0.05501
1121.19042 0.05839
1119.90465 0.06172
1118.61888 0.06500
1117.33311 0.06827
1116.04734 0.07156
1114.76157 0.07483
1113.47580 0.07805
1112.19004 0.08123
1110.90427 0.08433
1109.61850 0.08734
1108.33273 0.09024
1107.04696 0.09304
1105.76119 0.09576
1104.47542 0.09842
1103.18965 0.10099
1101.90388 0.10345
1100.61812 0.10576
1099.33235 0.10795
1098.04658 0.11011
1096.76081 0.11235
1095.47504 0.11462
1094.18927 0.11679
1092.90350 0.11872
1091.61773 0.12039
1090.33197 0.12189
1089.04620 0.12333
1087.76043 0.12478
1086.47466 0.12627
1085.18889 0.12780
1083.90312 0.12935
1082.61735 0.13095
1081.33158 0.13269
1080.04581 0.13460
1078.76005 0.13672
1077.47428 0.13902
1076.18851 0.14147
1074.90274 0.14399
1073.61697 0.14660
1072.33120 0.14932
1071.04543 0.15219
1069.75966 0.15520
1068.47390 0.15826
1067.18813 0.16135
1065.90236 0.16449
1064.61659 0.16769
1063.33082 0.17090
1062.04505 0.17410
1060.75928 0.17730
1059.47351 0.18056
1058.18774 0.18384
1056.90198 0.18706
1055.61621 0.19019
1054.33044 0.19331
1053.04467 0.19649
1051.75890 0.19976
1050.47313 0.20308
1049.18736 0.20645
1047.90159 0.20989
1046.61583 0.21341
1045.33006 0.21699
1044.04429 0.22063
1042.75852 0.22433
1041.47275 0.22807
1040.18698 0.23182
1038.90121 0.23557
1037.61544 0.23930
1036.32967 0.24304
1035.04391 0.24675
1033.75814 0.25042
1032.47237 0.25396
1031.18660 0.25728
1029.90083 0.26032
1028.61506 0.26303
1027.32929 0.26544
1026.04352 0.26757
1024.75775 0.26943
1023.47199 0.27101
1022.18622 0.27223
1020.90045 0.27308
1019.61468 0.27355
1018.32891 0.27362
1017.04314 0.27322
1015.75737 0.27232
1014.47160 0.27096
1013.18584 0.26922
1011.90007 0.26710
1010.61430 0.26457
1009.32853 0.26164
1008.04276 0.25833
1006.75699 0.25467
1005.47122 0.25065
1004.18545 0.24626
1002.89968 0.24151
1001.61392 0.23645
1000.32815 0.23113
999.04238 0.22561
997.75661 0.21993
996.47084 0.21415
995.18507 0.20829
993.89930 0.20239
992.61353 0.19646
991.32777 0.19053
990.04200 0.18466
988.75623 0.17887
987.47046 0.17316
986.18469 0.16754
984.89892 0.16206
983.61315 0.15679
982.32738 0.15176
981.04161 0.14697
979.75585 0.14241
978.47008 0.13806
977.18431 0.13394
975.89854 0.13014
974.61277 0.12678
973.32700 0.12393
972.04123 0.12158
970.75546 0.11972
969.46970 0.11842
968.18393 0.11779
966.89816 0.11784
965.61239 0.11846
964.32662 0.11938
963.04085 0.12021
961.75508 0.12063
960.46931 0.12043
959.18354 0.11954
957.89778 0.11802
956.61201 0.11599
955.32624 0.11364
954.04047 0.11116
952.75470 0.10868
951.46893 0.10625
950.18316 0.10379
948.89739 0.10120
947.61163 0.09852
946.32586 0.09590
945.04009 0.09350
943.75432 0.09130
942.46855 0.08916
941.18278 0.08699
939.89701 0.08486
938.61124 0.08289
937.32547 0.08112
936.03971 0.07948
934.75394 0.07792
933.46817 0.07645
932.18240 0.07504
930.89663 0.07368
929.61086 0.07235
928.32509 0.07109
927.03932 0.06996
925.75356 0.06896
924.46779 0.06802
923.18202 0.06708
921.89625 0.06610
920.61048 0.06507
919.32471 0.06406
918.03894 0.06311
916.75317 0.06226
915.46740 0.06152
914.18164 0.06087
912.89587 0.06021
911.61010 0.05949
910.32433 0.05868
909.03856 0.05787
907.75279 0.05715
906.46702 0.05656
905.18125 0.05608
903.89549 0.05568
902.60972 0.05529
901.32395 0.05486
900.03818 0.05432
898.75241 0.05369
897.46664 0.05306
896.18087 0.05253
894.89510 0.05210
893.60933 0.05171
892.32357 0.05135
891.03780 0.05104
889.75203 0.05090
888.46626 0.05101
887.18049 0.05142
885.89472 0.05223
884.60895 0.05362
883.32318 0.05572
882.03742 0.05837
880.75165 0.06111
879.46588 0.06350
878.18011 0.06540
876.89434 0.06706
875.60857 0.06877
874.32280 0.07062
873.03703 0.07232
871.75126 0.07349
870.46550 0.07388
869.17973 0.07345
867.89396 0.07230
866.60819 0.07054
865.32242 0.06832
864.03665 0.06583
862.75088 0.06326
861.46511 0.06082
860.17935 0.05863
858.89358 0.05676
857.60781 0.05521
856.32204 0.05390
855.03627 0.05272
853.75050 0.05166
852.46473 0.05075
851.17896 0.05001
849.89319 0.04944
848.60743 0.04898
847.32166 0.04854
846.03589 0.04807
844.75012 0.04753
843.46435 0.04698
842.17858 0.04648
840.89281 0.04608
839.60704 0.04578
838.32128 0.04548
837.03551 0.04511
835.74974 0.04464
834.46397 0.04414
833.17820 0.04367
831.89243 0.04331
830.60666 0.04308
829.32089 0.04302
828.03512 0.04308
826.74936 0.04315
825.46359 0.04310
824.17782 0.04289
822.89205 0.04259
821.60628 0.04238
820.32051 0.04229
819.03474 0.04225
817.74897 0.04216
816.46321 0.04197
815.17744 0.04171
813.89167 0.04147
812.60590 0.04128
811.32013 0.04117
810.03436 0.04108
808.74859 0.04094
807.46282 0.04076
806.17705 0.04058
804.89129 0.04045
803.60552 0.04040
802.31975 0.04040
801.03398 0.04042
799.74821 0.04039
798.46244 0.04027
797.17667 0.04010
795.89090 0.03992
794.60513 0.03978
793.31937 0.03967
792.03360 0.03957
790.74783 0.03950
789.46206 0.03950
788.17629 0.03957
786.89052 0.03965
785.60475 0.03965
784.31898 0.03955
783.03322 0.03938
781.74745 0.03923
780.46168 0.03913
779.17591 0.03908
777.89014 0.03901
776.60437 0.03889
775.31860 0.03877
774.03283 0.03874
772.74706 0.03882
771.46130 0.03891
770.17553 0.03893
768.88976 0.03888
767.60399 0.03880
766.31822 0.03877
765.03245 0.03883
763.74668 0.03894
762.46091 0.03902
761.17515 0.03905
759.88938 0.03905
758.60361 0.03904
757.31784 0.03899
756.03207 0.03889
754.74630 0.03884
753.46053 0.03893
752.17476 0.03915
750.88899 0.03930
749.60323 0.03929
748.31746 0.03914
747.03169 0.03897
745.74592 0.03881
744.46015 0.03865
743.17438 0.03846
741.88861 0.03825
740.60284 0.03806
739.31708 0.03789
738.03131 0.03774
736.74554 0.03763
735.45977 0.03758
734.17400 0.03761
732.88823 0.03770
731.60246 0.03780
730.31669 0.03789
729.03092 0.03795
727.74516 0.03801
726.45939 0.03805
725.17362 0.03805
723.88785 0.03825
722.60208 0.03806
721.31631 0.03793
720.03054 0.03791
718.74477 0.03795
717.45901 0.03802
716.17324 0.03809
714.88747 0.03805
713.60170 0.03790
712.31593 0.03769
711.03016 0.03751
709.74439 0.03740
708.45862 0.03733
707.17285 0.03727
705.88709 0.03721
704.60132 0.03718
703.31555 0.03720
702.02978 0.03727
700.74401 0.03733
699.45824 0.03735
698.17247 0.03730
696.88670 0.03722
695.60094 0.03714
694.31517 0.03711
693.02940 0.03716
691.74363 0.03725
690.45786 0.03733
689.17209 0.03731
687.88632 0.03718
686.60055 0.03697
685.31478 0.03672
684.02902 0.03648
682.74325 0.03629
681.45748 0.03619
680.17171 0.03617
678.88594 0.03617
677.60017 0.03617
676.31440 0.03619
675.02863 0.03629
673.74287 0.03648
672.45710 0.03675
671.17133 0.03704
669.88556 0.03729
668.59979 0.03745
667.31402 0.03748
666.02825 0.03737
664.74248 0.03716
663.45671 0.03693
662.17095 0.03674
660.88518 0.03660
659.59941 0.03645
658.31364 0.03625
657.02787 0.03597
655.74210 0.03567
654.45633 0.03539
653.17056 0.03515
651.88480 0.03490
650.59903 0.03461
649.31326 0.03434
648.02749 0.03414
646.74172 0.03401
645.45595 0.03394
644.17018 0.03391
642.88441 0.03386
641.59864 0.03373
640.31288 0.03352
639.02711 0.03327
637.74134 0.03311
636.45557 0.03308
635.16980 0.03322
633.88403 0.03355
632.59826 0.03396
631.31249 0.03383
630.02673 0.03306
628.74096 0.03433
627.45519 0.03702
626.16942 0.03991
624.88365 0.04275
623.59788 0.04536
622.31211 0.04759
621.02634 0.04958
619.74057 0.05156
618.45481 0.05360
617.16904 0.05567
615.88327 0.05808
614.59750 0.06153
613.31173 0.06651
612.02596 0.07269
610.74019 0.07915
609.45442 0.08534
608.16866 0.09133
606.88289 0.09719
605.59712 0.10259
604.31135 0.10706
603.02558 0.11004
601.73981 0.11093
600.45404 0.10956
599.16827 0.10646
597.88250 0.10256
596.59674 0.09858
595.31097 0.09489
594.02520 0.09163
592.73943 0.08892
591.45366 0.08687
590.16789 0.08555
588.88212 0.08489
587.59635 0.08483
586.31059 0.08536
585.02482 0.08656
583.73905 0.08842
582.45328 0.09087
581.16751 0.09370
579.88174 0.09668
578.59597 0.09961
577.31020 0.10238
576.02443 0.10499
574.73867 0.10749
573.45290 0.10993
572.16713 0.11236
570.88136 0.11497
569.59559 0.11799
568.30982 0.12156
567.02405 0.12561
565.73828 0.12986
564.45251 0.13383
563.16675 0.13695
561.88098 0.13874
560.59521 0.13894
559.30944 0.13751
558.02367 0.13460
556.73790 0.13043
555.45213 0.12525
554.16636 0.11939
552.88060 0.11327
551.59483 0.10731
550.30906 0.10178
549.02329 0.09674
547.73752 0.09212
546.45175 0.08790
545.16598 0.08409
543.88021 0.08074
542.59444 0.07778
541.30868 0.07513
540.02291 0.07270
538.73714 0.07042
537.45137 0.06827
536.16560 0.06626
534.87983 0.06442
533.59406 0.06274
532.30829 0.06120
531.02253 0.05972
529.73676 0.05826
528.45099 0.05682
527.16522 0.05540
525.87945 0.05405
524.59368 0.05284
523.30791 0.05180
522.02214 0.05090
520.73637 0.05004
519.45061 0.04915
518.16484 0.04825
516.87907 0.04737
515.59330 0.04650
514.30753 0.04562
513.02176 0.04474
511.73599 0.04391
510.45022 0.04320
509.16446 0.04261
507.87869 0.04211
506.59292 0.04168
505.30715 0.04128
504.02138 0.04086
502.73561 0.04038
501.44984 0.03980
500.16407 0.03918
498.87830 0.03861
497.59254 0.03813
496.30677 0.03770
495.02100 0.03726
493.73523 0.03676
492.44946 0.03624
491.16369 0.03577
489.87792 0.03541
488.59215 0.03520
487.30639 0.03509
486.02062 0.03503
484.73485 0.03500
483.44908 0.03497
482.16331 0.03492
480.87754 0.03485
479.59177 0.03477
478.30600 0.03478
477.02023 0.03494
475.73447 0.03524
474.44870 0.03559
473.16293 0.03589
471.87716 0.03603
470.59139 0.03600
469.30562 0.03585
468.01985 0.03563
466.73408 0.03535
465.44832 0.03495
464.16255 0.03444
462.87678 0.03387
461.59101 0.03331
460.30524 0.03279
459.01947 0.03231
457.73370 0.03184
456.44793 0.03134
455.16216 0.03080
453.87640 0.03025
452.59063 0.02977
451.30486 0.02942
450.01909 0.02913
448.73332 0.02886
447.44755 0.02856
446.16178 0.02824
444.87601 0.02794
443.59025 0.02767
442.30448 0.02744
441.01871 0.02725
439.73294 0.02711
438.44717 0.02699
437.16140 0.02685
435.87563 0.02665
434.58986 0.02641
433.30409 0.02615
432.01833 0.02589
430.73256 0.02564
429.44679 0.02539
428.16102 0.02517
426.87525 0.02504
425.58948 0.02499
424.30371 0.02494
423.01794 0.02482
421.73218 0.02461
420.44641 0.02434
419.16064 0.02406
417.87487 0.02383
416.58910 0.02365
415.30333 0.02350
414.01756 0.02336
412.73179 0.02322
411.44602 0.02309
410.16026 0.02296
408.87449 0.02286
407.58872 0.02279
406.30295 0.02275
405.01718 0.02273
403.73141 0.02274
402.44564 0.02278
401.15987 0.02284
399.87411 0.02292
