3997.45528	0.04595
3996.16951	0.04603
3994.88374	0.04588
3993.59798	0.04548
3992.31221	0.04496
3991.02644	0.04450
3989.74067	0.04419
3988.45490	0.04394
3987.16913	0.04361
3985.88336	0.04325
3984.59759	0.04303
3983.31183	0.04305
3982.02606	0.04331
3980.74029	0.04376
3979.45452	0.04443
3978.16875	0.04530
3976.88298	0.04618
3975.59721	0.04674
3974.31144	0.04676
3973.02567	0.04634
3971.73991	0.04584
3970.45414	0.04552
3969.16837	0.04537
3967.88260	0.04528
3966.59683	0.04527
3965.31106	0.04546
3964.02529	0.04573
3962.73952	0.04561
3961.45376	0.04469
3960.16799	0.04308
3958.88222	0.04160
3957.59645	0.04118
3956.31068	0.04208
3955.02491	0.04352
3953.73914	0.04443
3952.45337	0.04443
3951.16760	0.04415
3949.88184	0.04444
3948.59607	0.04535
3947.31030	0.04613
3946.02453	0.04608
3944.73876	0.04529
3943.45299	0.04445
3942.16722	0.04412
3940.88145	0.04430
3939.59569	0.04467
3938.30992	0.04490
3937.02415	0.04479
3935.73838	0.04433
3934.45261	0.04369
3933.16684	0.04320
3931.88107	0.04305
3930.59530	0.04315
3929.30953	0.04332
3928.02377	0.04343
3926.73800	0.04338
3925.45223	0.04310
3924.16646	0.04271
3922.88069	0.04246
3921.59492	0.04254
3920.30915	0.04297
3919.02338	0.04355
3917.73762	0.04402
3916.45185	0.04421
3915.16608	0.04403
3913.88031	0.04360
3912.59454	0.04327
3911.30877	0.04330
3910.02300	0.04356
3908.73723	0.04379
3907.45146	0.04388
3906.16570	0.04384
3904.87993	0.04359
3903.59416	0.04292
3902.30839	0.04186
3901.02262	0.04095
3899.73685	0.04096
3898.45108	0.04205
3897.16531	0.04349
3895.87955	0.04447
3894.59378	0.04485
3893.30801	0.04502
3892.02224	0.04529
3890.73647	0.04549
3889.45070	0.04514
3888.16493	0.04407
3886.87916	0.04291
3885.59339	0.04255
3884.30763	0.04291
3883.02186	0.04310
3881.73609	0.04269
3880.45032	0.04222
3879.16455	0.04236
3877.87878	0.04310
3876.59301	0.04398
3875.30724	0.04458
3874.02148	0.04473
3872.73571	0.04443
3871.44994	0.04402
3870.16417	0.04409
3868.87840	0.04472
3867.59263	0.04522
3866.30686	0.04494
3865.02109	0.04403
3863.73532	0.04294
3862.44956	0.04198
3861.16379	0.04143
3859.87802	0.04144
3858.59225	0.04180
3857.30648	0.04204
3856.02071	0.04197
3854.73494	0.04191
3853.44917	0.04221
3852.16341	0.04255
3850.87764	0.04234
3849.59187	0.04170
3848.30610	0.04136
3847.02033	0.04179
3845.73456	0.04280
3844.44879	0.04379
3843.16302	0.04422
3841.87725	0.04386
3840.59149	0.04282
3839.30572	0.04158
3838.01995	0.04066
3836.73418	0.04033
3835.44841	0.04045
3834.16264	0.04088
3832.87687	0.04162
3831.59110	0.04251
3830.30534	0.04316
3829.01957	0.04331
3827.73380	0.04306
3826.44803	0.04278
3825.16226	0.04256
3823.87649	0.04209
3822.59072	0.04128
3821.30495	0.04063
3820.01918	0.04058
3818.73342	0.04088
3817.44765	0.04110
3816.16188	0.04126
3814.87611	0.04145
3813.59034	0.04140
3812.30457	0.04112
3811.01880	0.04104
3809.73303	0.04125
3808.44726	0.04136
3807.16150	0.04127
3805.87573	0.04133
3804.58996	0.04160
3803.30419	0.04184
3802.01842	0.04193
3800.73265	0.04194
3799.44688	0.04169
3798.16111	0.04104
3796.87535	0.04037
3795.58958	0.04008
3794.30381	0.04010
3793.01804	0.04025
3791.73227	0.04055
3790.44650	0.04099
3789.16073	0.04137
3787.87496	0.04150
3786.58919	0.04141
3785.30343	0.04127
3784.01766	0.04110
3782.73189	0.04081
3781.44612	0.04042
3780.16035	0.04005
3778.87458	0.03972
3777.58881	0.03932
3776.30304	0.03882
3775.01728	0.03847
3773.73151	0.03847
3772.44574	0.03878
3771.15997	0.03928
3769.87420	0.04001
3768.58843	0.04077
3767.30266	0.04119
3766.01689	0.04117
3764.73112	0.04095
3763.44536	0.04060
3762.15959	0.03995
3760.87382	0.03907
3759.58805	0.03831
3758.30228	0.03788
3757.01651	0.03771
3755.73074	0.03762
3754.44497	0.03754
3753.15921	0.03761
3751.87344	0.03792
3750.58767	0.03825
3749.30190	0.03843
3748.01613	0.03846
3746.73036	0.03821
3745.44459	0.03786
3744.15882	0.03802
3742.87305	0.03874
3741.58729	0.03938
3740.30152	0.03960
3739.01575	0.03938
3737.72998	0.03874
3736.44421	0.03813
3735.15844	0.03812
3733.87267	0.03869
3732.58690	0.03935
3731.30114	0.03981
3730.01537	0.04002
3728.72960	0.03994
3727.44383	0.03973
3726.15806	0.03955
3724.87229	0.03934
3723.58652	0.03894
3722.30075	0.03841
3721.01498	0.03797
3719.72922	0.03774
3718.44345	0.03774
3717.15768	0.03791
3715.87191	0.03809
3714.58614	0.03807
3713.30037	0.03788
3712.01460	0.03777
3710.72883	0.03782
3709.44307	0.03789
3708.15730	0.03791
3706.87153	0.03793
3705.58576	0.03790
3704.29999	0.03772
3703.01422	0.03756
3701.72845	0.03776
3700.44268	0.03845
3699.15691	0.03931
3697.87115	0.03981
3696.58538	0.03973
3695.29961	0.03924
3694.01384	0.03858
3692.72807	0.03780
3691.44230	0.03701
3690.15653	0.03642
3688.87076	0.03624
3687.58500	0.03649
3686.29923	0.03681
3685.01346	0.03677
3683.72769	0.03652
3682.44192	0.03655
3681.15615	0.03697
3679.87038	0.03773
3678.58461	0.03864
3677.29884	0.03931
3676.01308	0.03960
3674.72731	0.03947
3673.44154	0.03880
3672.15577	0.03777
3670.87000	0.03719
3669.58423	0.03761
3668.29846	0.03855
3667.01269	0.03920
3665.72693	0.03934
3664.44116	0.03915
3663.15539	0.03876
3661.86962	0.03826
3660.58385	0.03784
3659.29808	0.03771
3658.01231	0.03788
3656.72654	0.03833
3655.44077	0.03900
3654.15501	0.03969
3652.86924	0.04003
3651.58347	0.03987
3650.29770	0.03944
3649.01193	0.03913
3647.72616	0.03925
3646.44039	0.03976
3645.15462	0.04037
3643.86886	0.04085
3642.58309	0.04113
3641.29732	0.04124
3640.01155	0.04115
3638.72578	0.04088
3637.44001	0.04066
3636.15424	0.04074
3634.86847	0.04102
3633.58270	0.04118
3632.29694	0.04086
3631.01117	0.04020
3629.72540	0.04001
3628.43963	0.04102
3627.15386	0.04292
3625.86809	0.04464
3624.58232	0.04548
3623.29655	0.04558
3622.01079	0.04542
3620.72502	0.04535
3619.43925	0.04544
3618.15348	0.04557
3616.86771	0.04556
3615.58194	0.04549
3614.29617	0.04567
3613.01040	0.04628
3611.72463	0.04707
3610.43887	0.04753
3609.15310	0.04748
3607.86733	0.04726
3606.58156	0.04723
3605.29579	0.04747
3604.01002	0.04793
3602.72425	0.04860
3601.43848	0.04938
3600.15272	0.05001
3598.86695	0.05020
3597.58118	0.04997
3596.29541	0.04956
3595.00964	0.04931
3593.72387	0.04936
3592.43810	0.04966
3591.15233	0.05005
3589.86656	0.05047
3588.58080	0.05087
3587.29503	0.05110
3586.00926	0.05103
3584.72349	0.05086
3583.43772	0.05093
3582.15195	0.05141
3580.86618	0.05206
3579.58041	0.05253
3578.29464	0.05280
3577.00888	0.05312
3575.72311	0.05355
3574.43734	0.05390
3573.15157	0.05398
3571.86580	0.05392
3570.58003	0.05394
3569.29426	0.05406
3568.00849	0.05417
3566.72273	0.05436
3565.43696	0.05491
3564.15119	0.05589
3562.86542	0.05694
3561.57965	0.05749
3560.29388	0.05737
3559.00811	0.05697
3557.72234	0.05680
3556.43657	0.05698
3555.15081	0.05727
3553.86504	0.05742
3552.57927	0.05748
3551.29350	0.05764
3550.00773	0.05797
3548.72196	0.05847
3547.43619	0.05914
3546.15042	0.06002
3544.86466	0.06095
3543.57889	0.06167
3542.29312	0.06197
3541.00735	0.06194
3539.72158	0.06185
3538.43581	0.06192
3537.15004	0.06216
3535.86427	0.06246
3534.57850	0.06270
3533.29274	0.06289
3532.00697	0.06305
3530.72120	0.06320
3529.43543	0.06333
3528.14966	0.06346
3526.86389	0.06368
3525.57812	0.06397
3524.29235	0.06420
3523.00659	0.06431
3521.72082	0.06440
3520.43505	0.06466
3519.14928	0.06517
3517.86351	0.06592
3516.57774	0.06673
3515.29197	0.06730
3514.00620	0.06736
3512.72043	0.06693
3511.43467	0.06632
3510.14890	0.06592
3508.86313	0.06595
3507.57736	0.06634
3506.29159	0.06687
3505.00582	0.06731
3503.72005	0.06758
3502.43428	0.06767
3501.14852	0.06766
3499.86275	0.06767
3498.57698	0.06783
3497.29121	0.06811
3496.00544	0.06844
3494.71967	0.06878
3493.43390	0.06923
3492.14813	0.06979
3490.86236	0.07033
3489.57660	0.07069
3488.29083	0.07077
3487.00506	0.07055
3485.71929	0.07016
3484.43352	0.06989
3483.14775	0.07001
3481.86198	0.07057
3480.57621	0.07134
3479.29045	0.07210
3478.00468	0.07281
3476.71891	0.07360
3475.43314	0.07451
3474.14737	0.07539
3472.86160	0.07596
3471.57583	0.07614
3470.29006	0.07602
3469.00429	0.07579
3467.71853	0.07545
3466.43276	0.07495
3465.14699	0.07434
3463.86122	0.07387
3462.57545	0.07381
3461.28968	0.07425
3460.00391	0.07492
3458.71814	0.07542
3457.43238	0.07553
3456.14661	0.07540
3454.86084	0.07532
3453.57507	0.07544
3452.28930	0.07567
3451.00353	0.07581
3449.71776	0.07582
3448.43199	0.07582
3447.14622	0.07594
3445.86046	0.07619
3444.57469	0.07646
3443.28892	0.07679
3442.00315	0.07733
3440.71738	0.07809
3439.43161	0.07877
3438.14584	0.07902
3436.86007	0.07878
3435.57431	0.07827
3434.28854	0.07775
3433.00277	0.07738
3431.71700	0.07721
3430.43123	0.07725
3429.14546	0.07749
3427.85969	0.07784
3426.57392	0.07820
3425.28815	0.07856
3424.00239	0.07902
3422.71662	0.07963
3421.43085	0.08026
3420.14508	0.08060
3418.85931	0.08050
3417.57354	0.08004
3416.28777	0.07960
3415.00200	0.07958
3413.71624	0.08004
3412.43047	0.08060
3411.14470	0.08084
3409.85893	0.08072
3408.57316	0.08054
3407.28739	0.08057
3406.00162	0.08077
3404.71585	0.08107
3403.43008	0.08150
3402.14432	0.08210
3400.85855	0.08275
3399.57278	0.08324
3398.28701	0.08333
3397.00124	0.08293
3395.71547	0.08231
3394.42970	0.08181
3393.14393	0.08157
3391.85817	0.08155
3390.57240	0.08165
3389.28663	0.08185
3388.00086	0.08214
3386.71509	0.08236
3385.42932	0.08232
3384.14355	0.08205
3382.85778	0.08176
3381.57201	0.08166
3380.28625	0.08182
3379.00048	0.08220
3377.71471	0.08276
3376.42894	0.08336
3375.14317	0.08378
3373.85740	0.08384
3372.57163	0.08356
3371.28586	0.08318
3370.00010	0.08299
3368.71433	0.08319
3367.42856	0.08369
3366.14279	0.08419
3364.85702	0.08433
3363.57125	0.08395
3362.28548	0.08327
3360.99971	0.08269
3359.71394	0.08252
3358.42818	0.08279
3357.14241	0.08332
3355.85664	0.08394
3354.57087	0.08451
3353.28510	0.08490
3351.99933	0.08497
3350.71356	0.08476
3349.42779	0.08448
3348.14202	0.08433
3346.85626	0.08434
3345.57049	0.08447
3344.28472	0.08472
3342.99895	0.08507
3341.71318	0.08540
3340.42741	0.08547
3339.14164	0.08517
3337.85587	0.08466
3336.57011	0.08430
3335.28434	0.08422
3333.99857	0.08420
3332.71280	0.08400
3331.42703	0.08370
3330.14126	0.08364
3328.85549	0.08401
3327.56972	0.08462
3326.28395	0.08509
3324.99819	0.08519
3323.71242	0.08493
3322.42665	0.08453
3321.14088	0.08418
3319.85511	0.08401
3318.56934	0.08401
3317.28357	0.08414
3315.99780	0.08441
3314.71204	0.08481
3313.42627	0.08526
3312.14050	0.08552
3310.85473	0.08542
3309.56896	0.08496
3308.28319	0.08442
3306.99742	0.08409
3305.71165	0.08416
3304.42588	0.08460
3303.14012	0.08526
3301.85435	0.08585
3300.56858	0.08609
3299.28281	0.08578
3297.99704	0.08501
3296.71127	0.08412
3295.42550	0.08353
3294.13973	0.08345
3292.85397	0.08377
3291.56820	0.08420
3290.28243	0.08448
3288.99666	0.08456
3287.71089	0.08447
3286.42512	0.08430
3285.13935	0.08417
3283.85358	0.08421
3282.56781	0.08445
3281.28205	0.08476
3279.99628	0.08490
3278.71051	0.08477
3277.42474	0.08449
3276.13897	0.08419
3274.85320	0.08393
3273.56743	0.08375
3272.28166	0.08365
3270.99590	0.08361
3269.71013	0.08353
3268.42436	0.08333
3267.13859	0.08304
3265.85282	0.08285
3264.56705	0.08287
3263.28128	0.08312
3261.99551	0.08345
3260.70974	0.08367
3259.42398	0.08362
3258.13821	0.08332
3256.85244	0.08296
3255.56667	0.08272
3254.28090	0.08252
3252.99513	0.08222
3251.70936	0.08181
3250.42359	0.08153
3249.13783	0.08152
3247.85206	0.08169
3246.56629	0.08180
3245.28052	0.08172
3243.99475	0.08149
3242.70898	0.08133
3241.42321	0.08146
3240.13744	0.08190
3238.85167	0.08243
3237.56591	0.08277
3236.28014	0.08274
3234.99437	0.08232
3233.70860	0.08161
3232.42283	0.08085
3231.13706	0.08038
3229.85129	0.08031
3228.56552	0.08047
3227.27976	0.08062
3225.99399	0.08064
3224.70822	0.08055
3223.42245	0.08030
3222.13668	0.07982
3220.85091	0.07915
3219.56514	0.07843
3218.27937	0.07787
3216.99360	0.07761
3215.70784	0.07772
3214.42207	0.07818
3213.13630	0.07872
3211.85053	0.07900
3210.56476	0.07882
3209.27899	0.07840
3207.99322	0.07818
3206.70745	0.07832
3205.42169	0.07849
3204.13592	0.07822
3202.85015	0.07740
3201.56438	0.07645
3200.27861	0.07597
3198.99284	0.07621
3197.70707	0.07691
3196.42130	0.07759
3195.13553	0.07790
3193.84977	0.07789
3192.56400	0.07778
3191.27823	0.07774
3189.99246	0.07771
3188.70669	0.07760
3187.42092	0.07741
3186.13515	0.07717
3184.84938	0.07683
3183.56362	0.07640
3182.27785	0.07604
3180.99208	0.07593
3179.70631	0.07602
3178.42054	0.07600
3177.13477	0.07574
3175.84900	0.07533
3174.56323	0.07490
3173.27746	0.07445
3171.99170	0.07399
3170.70593	0.07362
3169.42016	0.07346
3168.13439	0.07346
3166.84862	0.07343
3165.56285	0.07330
3164.27708	0.07320
3162.99131	0.07321
3161.70555	0.07331
3160.41978	0.07335
3159.13401	0.07325
3157.84824	0.07305
3156.56247	0.07284
3155.27670	0.07272
3153.99093	0.07269
3152.70516	0.07265
3151.41939	0.07245
3150.13363	0.07207
3148.84786	0.07170
3147.56209	0.07159
3146.27632	0.07174
3144.99055	0.07197
3143.70478	0.07199
3142.41901	0.07166
3141.13324	0.07106
3139.84748	0.07042
3138.56171	0.06998
3137.27594	0.06972
3135.99017	0.06951
3134.70440	0.06936
3133.41863	0.06937
3132.13286	0.06955
3130.84709	0.06969
3129.56132	0.06962
3128.27556	0.06941
3126.98979	0.06925
3125.70402	0.06932
3124.41825	0.06954
3123.13248	0.06977
3121.84671	0.06984
3120.56094	0.06963
3119.27517	0.06911
3117.98940	0.06829
3116.70364	0.06742
3115.41787	0.06683
3114.13210	0.06676
3112.84633	0.06713
3111.56056	0.06762
3110.27479	0.06797
3108.98902	0.06808
3107.70325	0.06798
3106.41749	0.06776
3105.13172	0.06758
3103.84595	0.06761
3102.56018	0.06786
3101.27441	0.06817
3099.98864	0.06838
3098.70287	0.06846
3097.41710	0.06848
3096.13133	0.06845
3094.84557	0.06830
3093.55980	0.06802
3092.27403	0.06771
3090.98826	0.06750
3089.70249	0.06750
3088.41672	0.06769
3087.13095	0.06797
3085.84518	0.06816
3084.55942	0.06814
3083.27365	0.06788
3081.98788	0.06748
3080.70211	0.06706
3079.41634	0.06664
3078.13057	0.06624
3076.84480	0.06592
3075.55903	0.06577
3074.27326	0.06583
3072.98750	0.06603
3071.70173	0.06627
3070.41596	0.06643
3069.13019	0.06645
3067.84442	0.06633
3066.55865	0.06619
3065.27288	0.06616
3063.98711	0.06624
3062.70135	0.06628
3061.41558	0.06618
3060.12981	0.06591
3058.84404	0.06558
3057.55827	0.06527
3056.27250	0.06503
3054.98673	0.06479
3053.70096	0.06450
3052.41519	0.06414
3051.12943	0.06372
3049.84366	0.06327
3048.55789	0.06287
3047.27212	0.06265
3045.98635	0.06268
3044.70058	0.06288
3043.41481	0.06307
3042.12904	0.06311
3040.84328	0.06300
3039.55751	0.06291
3038.27174	0.06293
3036.98597	0.06303
3035.70020	0.06304
3034.41443	0.06286
3033.12866	0.06256
3031.84289	0.06225
3030.55712	0.06196
3029.27136	0.06163
3027.98559	0.06123
3026.69982	0.06082
3025.41405	0.06049
3024.12828	0.06029
3022.84251	0.06023
3021.55674	0.06029
3020.27097	0.06041
3018.98521	0.06045
3017.69944	0.06031
3016.41367	0.06004
3015.12790	0.05981
3013.84213	0.05973
3012.55636	0.05973
3011.27059	0.05968
3009.98482	0.05953
3008.69905	0.05936
3007.41329	0.05930
3006.12752	0.05942
3004.84175	0.05967
3003.55598	0.05993
3002.27021	0.06003
3000.98444	0.05996
2999.69867	0.05986
2998.41290	0.05970
2997.12714	0.05964
2995.84137	0.05966
2994.55560	0.05964
2993.26983	0.05954
2991.98406	0.05945
2990.69829	0.05950
2989.41252	0.05967
2988.12675	0.05986
2986.84098	0.05992
2985.55522	0.05985
2984.26945	0.05969
2982.98368	0.05949
2981.69791	0.05939
2980.41214	0.05955
2979.12637	0.06003
2977.84060	0.06066
2976.55483	0.06122
2975.26907	0.06161
2973.98330	0.06193
2972.69753	0.06236
2971.41176	0.06300
2970.12599	0.06387
2968.84022	0.06494
2967.55445	0.06613
2966.26868	0.06741
2964.98291	0.06876
2963.69715	0.07004
2962.41138	0.07111
2961.12561	0.07188
2959.83984	0.07249
2958.55407	0.07315
2957.26830	0.07394
2955.98253	0.07485
2954.69676	0.07576
2953.41100	0.07649
2952.12523	0.07680
2950.83946	0.07657
2949.55369	0.07597
2948.26792	0.07530
2946.98215	0.07477
2945.69638	0.07441
2944.41061	0.07425
2943.12484	0.07427
2941.83908	0.07442
2940.55331	0.07458
2939.26754	0.07476
2937.98177	0.07506
2936.69600	0.07551
2935.41023	0.07605
2934.12446	0.07663
2932.83869	0.07731
2931.55293	0.07804
2930.26716	0.07873
2928.98139	0.07928
2927.69562	0.07975
2926.40985	0.08019
2925.12408	0.08052
2923.83831	0.08059
2922.55254	0.08026
2921.26677	0.07960
2919.98101	0.07874
2918.69524	0.07782
2917.40947	0.07688
2916.12370	0.07595
2914.83793	0.07512
2913.55216	0.07449
2912.26639	0.07411
2910.98062	0.07392
2909.69486	0.07374
2908.40909	0.07336
2907.12332	0.07273
2905.83755	0.07193
2904.55178	0.07110
2903.26601	0.07031
2901.98024	0.06965
2900.69447	0.06924
2899.40870	0.06906
2898.12294	0.06899
2896.83717	0.06887
2895.55140	0.06859
2894.26563	0.06813
2892.97986	0.06749
2891.69409	0.06679
2890.40832	0.06618
2889.12255	0.06579
2887.83678	0.06561
2886.55102	0.06545
2885.26525	0.06513
2883.97948	0.06468
2882.69371	0.06425
2881.40794	0.06404
2880.12217	0.06406
2878.83640	0.06425
2877.55063	0.06453
2876.26487	0.06484
2874.97910	0.06516
2873.69333	0.06552
2872.40756	0.06592
2871.12179	0.06631
2869.83602	0.06660
2868.55025	0.06673
2867.26448	0.06668
2865.97871	0.06646
2864.69295	0.06609
2863.40718	0.06569
2862.12141	0.06541
2860.83564	0.06536
2859.54987	0.06545
2858.26410	0.06547
2856.97833	0.06521
2855.69256	0.06465
2854.40680	0.06393
2853.12103	0.06317
2851.83526	0.06239
2850.54949	0.06157
2849.26372	0.06084
2847.97795	0.06040
2846.69218	0.06031
2845.40641	0.06041
2844.12064	0.06047
2842.83488	0.06032
2841.54911	0.05995
2840.26334	0.05941
2838.97757	0.05875
2837.69180	0.05800
2836.40603	0.05716
2835.12026	0.05630
2833.83449	0.05547
2832.54873	0.05468
2831.26296	0.05395
2829.97719	0.05334
2828.69142	0.05295
2827.40565	0.05275
2826.11988	0.05260
2824.83411	0.05236
2823.54834	0.05201
2822.26257	0.05162
2820.97681	0.05127
2819.69104	0.05100
2818.40527	0.05079
2817.11950	0.05056
2815.83373	0.05031
2814.54796	0.05010
2813.26219	0.04999
2811.97642	0.04997
2810.69066	0.04994
2809.40489	0.04980
2808.11912	0.04952
2806.83335	0.04918
2805.54758	0.04890
2804.26181	0.04875
2802.97604	0.04869
2801.69027	0.04860
2800.40450	0.04845
2799.11874	0.04823
2797.83297	0.04795
2796.54720	0.04766
2795.26143	0.04749
2793.97566	0.04757
2792.68989	0.04787
2791.40412	0.04815
2790.11835	0.04817
2788.83259	0.04780
2787.54682	0.04717
2786.26105	0.04649
2784.97528	0.04598
2783.68951	0.04575
2782.40374	0.04577
2781.11797	0.04596
2779.83220	0.04625
2778.54643	0.04655
2777.26067	0.04676
2775.97490	0.04680
2774.68913	0.04663
2773.40336	0.04631
2772.11759	0.04592
2770.83182	0.04551
2769.54605	0.04510
2768.26028	0.04470
2766.97452	0.04440
2765.68875	0.04428
2764.40298	0.04437
2763.11721	0.04453
2761.83144	0.04465
2760.54567	0.04466
2759.25990	0.04454
2757.97413	0.04432
2756.68836	0.04405
2755.40260	0.04390
2754.11683	0.04398
2752.83106	0.04418
2751.54529	0.04425
2750.25952	0.04405
2748.97375	0.04375
2747.68798	0.04357
2746.40221	0.04359
2745.11645	0.04370
2743.83068	0.04372
2742.54491	0.04356
2741.25914	0.04325
2739.97337	0.04290
2738.68760	0.04260
2737.40183	0.04235
2736.11606	0.04218
2734.83029	0.04216
2733.54453	0.04232
2732.25876	0.04260
2730.97299	0.04286
2729.68722	0.04299
2728.40145	0.04300
2727.11568	0.04297
2725.82991	0.04299
2724.54414	0.04308
2723.25838	0.04312
2721.97261	0.04300
2720.68684	0.04272
2719.40107	0.04236
2718.11530	0.04204
2716.82953	0.04180
2715.54376	0.04164
2714.25799	0.04156
2712.97222	0.04157
2711.68646	0.04170
2710.40069	0.04192
2709.11492	0.04207
2707.82915	0.04197
2706.54338	0.04163
2705.25761	0.04122
2703.97184	0.04093
2702.68607	0.04082
2701.40031	0.04080
2700.11454	0.04079
2698.82877	0.04076
2697.54300	0.04069
2696.25723	0.04060
2694.97146	0.04052
2693.68569	0.04051
2692.39992	0.04059
2691.11415	0.04072
2689.82839	0.04083
2688.54262	0.04084
2687.25685	0.04076
2685.97108	0.04061
2684.68531	0.04038
2683.39954	0.04009
2682.11377	0.03980
2680.82800	0.03955
2679.54224	0.03937
2678.25647	0.03930
2676.97070	0.03932
2675.68493	0.03942
2674.39916	0.03952
2673.11339	0.03957
2671.82762	0.03951
2670.54185	0.03938
2669.25608	0.03932
2667.97032	0.03938
2666.68455	0.03952
2665.39878	0.03959
2664.11301	0.03949
2662.82724	0.03925
2661.54147	0.03894
2660.25570	0.03869
2658.96993	0.03856
2657.68417	0.03852
2656.39840	0.03847
2655.11263	0.03832
2653.82686	0.03810
2652.54109	0.03782
2651.25532	0.03744
2649.96955	0.03701
2648.68378	0.03665
2647.39801	0.03644
2646.11225	0.03638
2644.82648	0.03644
2643.54071	0.03660
2642.25494	0.03672
2640.96917	0.03664
2639.68340	0.03629
2638.39763	0.03589
2637.11186	0.03569
2635.82609	0.03571
2634.54033	0.03569
2633.25456	0.03544
2631.96879	0.03500
2630.68302	0.03458
2629.39725	0.03430
2628.11148	0.03418
2626.82571	0.03412
2625.53994	0.03408
2624.25418	0.03408
2622.96841	0.03416
2621.68264	0.03435
2620.39687	0.03453
2619.11110	0.03452
2617.82533	0.03423
2616.53956	0.03382
2615.25379	0.03344
2613.96802	0.03314
2612.68226	0.03290
2611.39649	0.03273
2610.11072	0.03262
2608.82495	0.03250
2607.53918	0.03231
2606.25341	0.03218
2604.96764	0.03230
2603.68187	0.03266
2602.39611	0.03302
2601.11034	0.03314
2599.82457	0.03305
2598.53880	0.03294
2597.25303	0.03293
2595.96726	0.03295
2594.68149	0.03283
2593.39572	0.03257
2592.10995	0.03234
2590.82419	0.03230
2589.53842	0.03233
2588.25265	0.03208
2586.96688	0.03148
2585.68111	0.03091
2584.39534	0.03087
2583.10957	0.03134
2581.82380	0.03178
2580.53804	0.03173
2579.25227	0.03123
2577.96650	0.03073
2576.68073	0.03053
2575.39496	0.03057
2574.10919	0.03066
2572.82342	0.03070
2571.53765	0.03070
2570.25188	0.03062
2568.96612	0.03037
2567.68035	0.03006
2566.39458	0.02992
2565.10881	0.03002
2563.82304	0.03023
2562.53727	0.03044
2561.25150	0.03065
2559.96573	0.03086
2558.67997	0.03095
2557.39420	0.03081
2556.10843	0.03051
2554.82266	0.03024
2553.53689	0.03018
2552.25112	0.03031
2550.96535	0.03047
2549.67958	0.03048
2548.39381	0.03031
2547.10805	0.03010
2545.82228	0.03002
2544.53651	0.03004
2543.25074	0.02999
2541.96497	0.02984
2540.67920	0.02973
2539.39343	0.02977
2538.10766	0.02988
2536.82190	0.02993
2535.53613	0.02988
2534.25036	0.02984
2532.96459	0.02982
2531.67882	0.02971
2530.39305	0.02947
2529.10728	0.02927
2527.82151	0.02936
2526.53574	0.02964
2525.24998	0.02974
2523.96421	0.02935
2522.67844	0.02868
2521.39267	0.02831
2520.10690	0.02853
2518.82113	0.02902
2517.53536	0.02929
2516.24959	0.02918
2514.96383	0.02895
2513.67806	0.02892
2512.39229	0.02908
2511.10652	0.02922
2509.82075	0.02919
2508.53498	0.02901
2507.24921	0.02878
2505.96344	0.02851
2504.67767	0.02824
2503.39191	0.02807
2502.10614	0.02814
2500.82037	0.02842
2499.53460	0.02871
2498.24883	0.02883
2496.96306	0.02879
2495.67729	0.02870
2494.39152	0.02862
2493.10576	0.02848
2491.81999	0.02831
2490.53422	0.02822
2489.24845	0.02832
2487.96268	0.02860
2486.67691	0.02897
2485.39114	0.02931
2484.10537	0.02942
2482.81960	0.02922
2481.53384	0.02886
2480.24807	0.02854
2478.96230	0.02833
2477.67653	0.02813
2476.39076	0.02788
2475.10499	0.02762
2473.81922	0.02749
2472.53345	0.02754
2471.24769	0.02776
2469.96192	0.02801
2468.67615	0.02819
2467.39038	0.02825
2466.10461	0.02818
2464.81884	0.02797
2463.53307	0.02767
2462.24730	0.02743
2460.96153	0.02734
2459.67577	0.02737
2458.39000	0.02739
2457.10423	0.02742
2455.81846	0.02755
2454.53269	0.02779
2453.24692	0.02796
2451.96115	0.02791
2450.67538	0.02771
2449.38962	0.02757
2448.10385	0.02752
2446.81808	0.02740
2445.53231	0.02711
2444.24654	0.02676
2442.96077	0.02650
2441.67500	0.02639
2440.38923	0.02639
2439.10346	0.02642
2437.81770	0.02647
2436.53193	0.02651
2435.24616	0.02652
2433.96039	0.02644
2432.67462	0.02628
2431.38885	0.02614
2430.10308	0.02615
2428.81731	0.02637
2427.53155	0.02671
2426.24578	0.02703
2424.96001	0.02719
2423.67424	0.02715
2422.38847	0.02709
2421.10270	0.02723
2419.81693	0.02754
2418.53116	0.02774
2417.24539	0.02763
2415.95963	0.02727
2414.67386	0.02689
2413.38809	0.02662
2412.10232	0.02649
2410.81655	0.02645
2409.53078	0.02643
2408.24501	0.02639
2406.95924	0.02633
2405.67347	0.02633
2404.38771	0.02641
2403.10194	0.02651
2401.81617	0.02660
2400.53040	0.02669
2399.24463	0.02680
2397.95886	0.02713
2396.67309	0.02739
2395.38732	0.02747
2394.10156	0.02742
2392.81579	0.02733
2391.53002	0.02728
2390.24425	0.02726
2388.95848	0.02723
2387.67271	0.02711
2386.38694	0.02687
2385.10117	0.02653
2383.81540	0.02616
2382.52964	0.02587
2381.24387	0.02571
2379.95810	0.02564
2378.67233	0.02556
2377.38656	0.02531
2376.10079	0.02482
2374.81502	0.02413
2373.52925	0.02335
2372.24349	0.02272
2370.95772	0.02235
2369.67195	0.02243
2368.38618	0.02277
2367.10041	0.02302
2365.81464	0.02294
2364.52887	0.02291
2363.24310	0.02305
2361.95733	0.02338
2360.67157	0.02367
2359.38580	0.02411
2358.10003	0.02452
2356.81426	0.02479
2355.52849	0.02496
2354.24272	0.02500
2352.95695	0.02500
2351.67118	0.02475
2350.38542	0.02420
2349.09965	0.02376
2347.81388	0.02370
2346.52811	0.02348
2345.24234	0.02309
2343.95657	0.02300
2342.67080	0.02349
2341.38503	0.02388
2340.09926	0.02383
2338.81350	0.02408
2337.52773	0.02464
2336.24196	0.02446
2334.95619	0.02369
2333.67042	0.02345
2332.38465	0.02372
2331.09888	0.02305
2329.81311	0.02246
2328.52735	0.02329
2327.24158	0.02342
2325.95581	0.02318
2324.67004	0.02411
2323.38427	0.02462
2322.09850	0.02438
2320.81273	0.02495
2319.52696	0.02496
2318.24119	0.02469
2316.95543	0.02521
2315.66966	0.02530
2314.38389	0.02510
2313.09812	0.02503
2311.81235	0.02448
2310.52658	0.02418
2309.24081	0.02414
2307.95504	0.02415
2306.66928	0.02444
2305.38351	0.02442
2304.09774	0.02419
2302.81197	0.02389
2301.52620	0.02347
2300.24043	0.02312
2298.95466	0.02279
2297.66889	0.02267
2296.38312	0.02272
2295.09736	0.02277
2293.81159	0.02267
2292.52582	0.02239
2291.24005	0.02212
2289.95428	0.02196
2288.66851	0.02187
2287.38274	0.02173
2286.09697	0.02153
2284.81121	0.02146
2283.52544	0.02172
2282.23967	0.02223
2280.95390	0.02262
2279.66813	0.02256
2278.38236	0.02199
2277.09659	0.02119
2275.81082	0.02054
2274.52505	0.02028
2273.23929	0.02046
2271.95352	0.02087
2270.66775	0.02114
2269.38198	0.02099
2268.09621	0.02048
2266.81044	0.01979
2265.52467	0.01923
2264.23890	0.01906
2262.95314	0.01932
2261.66737	0.01976
2260.38160	0.01995
2259.09583	0.01968
2257.81006	0.01914
2256.52429	0.01868
2255.23852	0.01855
2253.95275	0.01865
2252.66698	0.01874
2251.38122	0.01880
2250.09545	0.01895
2248.80968	0.01914
2247.52391	0.01919
2246.23814	0.01895
2244.95237	0.01831
2243.66660	0.01749
2242.38083	0.01690
2241.09507	0.01662
2239.80930	0.01639
2238.52353	0.01604
2237.23776	0.01571
2235.95199	0.01573
2234.66622	0.01624
2233.38045	0.01701
2232.09468	0.01758
2230.80891	0.01755
2229.52315	0.01682
2228.23738	0.01574
2226.95161	0.01483
2225.66584	0.01441
2224.38007	0.01447
2223.09430	0.01475
2221.80853	0.01497
2220.52276	0.01493
2219.23700	0.01463
2217.95123	0.01430
2216.66546	0.01428
2215.37969	0.01472
2214.09392	0.01537
2212.80815	0.01574
2211.52238	0.01563
2210.23661	0.01535
2208.95084	0.01537
2207.66508	0.01570
2206.37931	0.01580
2205.09354	0.01533
2203.80777	0.01472
2202.52200	0.01473
2201.23623	0.01550
2199.95046	0.01633
2198.66469	0.01633
2197.37893	0.01531
2196.09316	0.01393
2194.80739	0.01314
2193.52162	0.01338
2192.23585	0.01433
2190.95008	0.01523
2189.66431	0.01553
2188.37854	0.01508
2187.09277	0.01417
2185.80701	0.01329
2184.52124	0.01282
2183.23547	0.01268
2181.94970	0.01246
2180.66393	0.01199
2179.37816	0.01150
2178.09239	0.01135
2176.80662	0.01161
2175.52085	0.01213
2174.23509	0.01261
2172.94932	0.01269
2171.66355	0.01215
2170.37778	0.01116
2169.09201	0.01004
2167.80624	0.00905
2166.52047	0.00827
2165.23470	0.00778
2163.94894	0.00764
2162.66317	0.00779
2161.37740	0.00808
2160.09163	0.00833
2158.80586	0.00847
2157.52009	0.00853
2156.23432	0.00861
2154.94855	0.00862
2153.66278	0.00848
2152.37702	0.00834
2151.09125	0.00863
2149.80548	0.00959
2148.51971	0.01097
2147.23394	0.01229
2145.94817	0.01331
2144.66240	0.01392
2143.37663	0.01401
2142.09087	0.01353
2140.80510	0.01281
2139.51933	0.01233
2138.23356	0.01231
2136.94779	0.01268
2135.66202	0.01330
2134.37625	0.01403
2133.09048	0.01466
2131.80471	0.01496
2130.51895	0.01493
2129.23318	0.01471
2127.94741	0.01439
2126.66164	0.01392
2125.37587	0.01341
2124.09010	0.01305
2122.80433	0.01296
2121.51856	0.01304
2120.23280	0.01311
2118.94703	0.01309
2117.66126	0.01304
2116.37549	0.01309
2115.08972	0.01337
2113.80395	0.01387
2112.51818	0.01440
2111.23241	0.01460
2109.94664	0.01429
2108.66088	0.01366
2107.37511	0.01317
2106.08934	0.01316
2104.80357	0.01362
2103.51780	0.01418
2102.23203	0.01433
2100.94626	0.01371
2099.66049	0.01264
2098.37473	0.01143
2097.08896	0.01075
2095.80319	0.01076
2094.51742	0.01117
2093.23165	0.01168
2091.94588	0.01216
2090.66011	0.01253
2089.37434	0.01269
2088.08857	0.01261
2086.80281	0.01240
2085.51704	0.01218
2084.23127	0.01196
2082.94550	0.01161
2081.65973	0.01109
2080.37396	0.01062
2079.08819	0.01055
2077.80242	0.01096
2076.51666	0.01152
2075.23089	0.01186
2073.94512	0.01188
2072.65935	0.01167
2071.37358	0.01129
2070.08781	0.01072
2068.80204	0.01007
2067.51627	0.00966
2066.23050	0.00972
2064.94474	0.01018
2063.65897	0.01063
2062.37320	0.01070
2061.08743	0.01030
2059.80166	0.00974
2058.51589	0.00932
2057.23012	0.00903
2055.94435	0.00867
2054.65859	0.00807
2053.37282	0.00720
2052.08705	0.00620
2050.80128	0.00530
2049.51551	0.00469
2048.22974	0.00448
2046.94397	0.00463
2045.65820	0.00497
2044.37243	0.00526
2043.08667	0.00527
2041.80090	0.00484
2040.51513	0.00397
2039.22936	0.00286
2037.94359	0.00179
2036.65782	0.00109
2035.37205	0.00099
2034.08628	0.00154
2032.80052	0.00256
2031.51475	0.00383
2030.22898	0.00518
2028.94321	0.00648
2027.65744	0.00749
2026.37167	0.00788
2025.08590	0.00757
2023.80013	0.00688
2022.51436	0.00637
2021.22860	0.00631
2019.94283	0.00645
2018.65706	0.00635
2017.37129	0.00577
2016.08552	0.00488
2014.79975	0.00417
2013.51398	0.00410
2012.22821	0.00482
2010.94245	0.00595
2009.65668	0.00680
2008.37091	0.00686
2007.08514	0.00620
2005.79937	0.00535
2004.51360	0.00482
2003.22783	0.00482
2001.94206	0.00537
2000.65629	0.00638
1999.37053	0.00762
1998.08476	0.00864
1996.79899	0.00912
1995.51322	0.00920
1994.22745	0.00934
1992.94168	0.00978
1991.65591	0.01031
1990.37014	0.01053
1989.08438	0.01027
1987.79861	0.00966
1986.51284	0.00891
1985.22707	0.00824
1983.94130	0.00785
1982.65553	0.00785
1981.36976	0.00816
1980.08399	0.00865
1978.79822	0.00928
1977.51246	0.01002
1976.22669	0.01073
1974.94092	0.01124
1973.65515	0.01147
1972.36938	0.01143
1971.08361	0.01113
1969.79784	0.01066
1968.51207	0.01018
1967.22631	0.00989
1965.94054	0.00985
1964.65477	0.00995
1963.36900	0.00997
1962.08323	0.00970
1960.79746	0.00922
1959.51169	0.00895
1958.22592	0.00933
1956.94015	0.01037
1955.65439	0.01158
1954.36862	0.01237
1953.08285	0.01239
1951.79708	0.01179
1950.51131	0.01104
1949.22554	0.01067
1947.93977	0.01080
1946.65400	0.01118
1945.36823	0.01154
1944.08247	0.01188
1942.79670	0.01236
1941.51093	0.01305
1940.22516	0.01375
1938.93939	0.01425
1937.65362	0.01447
1936.36785	0.01446
1935.08208	0.01420
1933.79632	0.01375
1932.51055	0.01335
1931.22478	0.01335
1929.93901	0.01385
1928.65324	0.01464
1927.36747	0.01525
1926.08170	0.01534
1924.79593	0.01489
1923.51016	0.01413
1922.22440	0.01337
1920.93863	0.01278
1919.65286	0.01243
1918.36709	0.01242
1917.08132	0.01282
1915.79555	0.01352
1914.50978	0.01428
1913.22401	0.01486
1911.93825	0.01522
1910.65248	0.01541
1909.36671	0.01546
1908.08094	0.01535
1906.79517	0.01507
1905.50940	0.01469
1904.22363	0.01437
1902.93786	0.01422
1901.65209	0.01425
1900.36633	0.01439
1899.08056	0.01453
1897.79479	0.01460
1896.50902	0.01464
1895.22325	0.01473
1893.93748	0.01488
1892.65171	0.01497
1891.36594	0.01492
1890.08018	0.01482
1888.79441	0.01478
1887.50864	0.01474
1886.22287	0.01454
1884.93710	0.01419
1883.65133	0.01385
1882.36556	0.01369
1881.07979	0.01375
1879.79402	0.01401
1878.50826	0.01440
1877.22249	0.01483
1875.93672	0.01518
1874.65095	0.01535
1873.36518	0.01528
1872.07941	0.01509
1870.79364	0.01491
1869.50787	0.01486
1868.22211	0.01492
1866.93634	0.01503
1865.65057	0.01510
1864.36480	0.01514
1863.07903	0.01514
1861.79326	0.01510
1860.50749	0.01501
1859.22172	0.01492
1857.93595	0.01485
1856.65019	0.01481
1855.36442	0.01476
1854.07865	0.01470
1852.79288	0.01468
1851.50711	0.01474
1850.22134	0.01489
1848.93557	0.01506
1847.64980	0.01515
1846.36404	0.01506
1845.07827	0.01490
1843.79250	0.01486
1842.50673	0.01498
1841.22096	0.01512
1839.93519	0.01515
1838.64942	0.01512
1837.36365	0.01509
1836.07788	0.01509
1834.79212	0.01516
1833.50635	0.01531
1832.22058	0.01549
1830.93481	0.01561
1829.64904	0.01562
1828.36327	0.01557
1827.07750	0.01547
1825.79173	0.01539
1824.50597	0.01535
1823.22020	0.01537
1821.93443	0.01546
1820.64866	0.01565
1819.36289	0.01587
1818.07712	0.01600
1816.79135	0.01598
1815.50558	0.01587
1814.21981	0.01573
1812.93405	0.01560
1811.64828	0.01547
1810.36251	0.01537
1809.07674	0.01533
1807.79097	0.01536
1806.50520	0.01549
1805.21943	0.01569
1803.93366	0.01589
1802.64790	0.01601
1801.36213	0.01600
1800.07636	0.01587
1798.79059	0.01567
1797.50482	0.01549
1796.21905	0.01540
1794.93328	0.01540
1793.64751	0.01549
1792.36174	0.01566
1791.07598	0.01587
1789.79021	0.01601
1788.50444	0.01602
1787.21867	0.01593
1785.93290	0.01585
1784.64713	0.01584
1783.36136	0.01591
1782.07559	0.01601
1780.78983	0.01612
1779.50406	0.01626
1778.21829	0.01641
1776.93252	0.01655
1775.64675	0.01661
1774.36098	0.01656
1773.07521	0.01649
1771.78944	0.01654
1770.50367	0.01667
1769.21791	0.01677
1767.93214	0.01680
1766.64637	0.01683
1765.36060	0.01681
1764.07483	0.01673
1762.78906	0.01666
1761.50329	0.01669
1760.21752	0.01676
1758.93176	0.01673
1757.64599	0.01663
1756.36022	0.01661
1755.07445	0.01672
1753.78868	0.01680
1752.50291	0.01680
1751.21714	0.01681
1749.93137	0.01691
1748.64560	0.01700
1747.35984	0.01698
1746.07407	0.01687
1744.78830	0.01678
1743.50253	0.01677
1742.21676	0.01681
1740.93099	0.01680
1739.64522	0.01677
1738.35945	0.01682
1737.07369	0.01691
1735.78792	0.01696
1734.50215	0.01710
1733.21638	0.01748
1731.93061	0.01792
1730.64484	0.01814
1729.35907	0.01813
1728.07330	0.01811
1726.78753	0.01820
1725.50177	0.01841
1724.21600	0.01872
1722.93023	0.01910
1721.64446	0.01949
1720.35869	0.01977
1719.07292	0.01992
1717.78715	0.02013
1716.50138	0.02048
1715.21561	0.02089
1713.92985	0.02125
1712.64408	0.02156
1711.35831	0.02193
1710.07254	0.02238
1708.78677	0.02289
1707.50100	0.02341
1706.21523	0.02394
1704.92946	0.02454
1703.64370	0.02516
1702.35793	0.02572
1701.07216	0.02634
1699.78639	0.02727
1698.50062	0.02833
1697.21485	0.02914
1695.92908	0.02976
1694.64331	0.03050
1693.35754	0.03130
1692.07178	0.03197
1690.78601	0.03260
1689.50024	0.03338
1688.21447	0.03427
1686.92870	0.03508
1685.64293	0.03582
1684.35716	0.03671
1683.07139	0.03780
1681.78563	0.03877
1680.49986	0.03951
1679.21409	0.04019
1677.92832	0.04094
1676.64255	0.04170
1675.35678	0.04248
1674.07101	0.04329
1672.78524	0.04408
1671.49947	0.04479
1670.21371	0.04551
1668.92794	0.04631
1667.64217	0.04713
1666.35640	0.04782
1665.07063	0.04833
1663.78486	0.04881
1662.49909	0.04940
1661.21332	0.05010
1659.92756	0.05078
1658.64179	0.05139
1657.35602	0.05194
1656.07025	0.05240
1654.78448	0.05270
1653.49871	0.05308
1652.21294	0.05376
1650.92717	0.05451
1649.64140	0.05491
1648.35564	0.05495
1647.06987	0.05500
1645.78410	0.05526
1644.49833	0.05563
1643.21256	0.05589
1641.92679	0.05598
1640.64102	0.05599
1639.35525	0.05597
1638.06949	0.05585
1636.78372	0.05562
1635.49795	0.05542
1634.21218	0.05532
1632.92641	0.05523
1631.64064	0.05506
1630.35487	0.05484
1629.06910	0.05465
1627.78333	0.05449
1626.49757	0.05432
1625.21180	0.05412
1623.92603	0.05395
1622.64026	0.05387
1621.35449	0.05383
1620.06872	0.05368
1618.78295	0.05338
1617.49718	0.05314
1616.21142	0.05318
1614.92565	0.05345
1613.63988	0.05366
1612.35411	0.05370
1611.06834	0.05369
1609.78257	0.05373
1608.49680	0.05383
1607.21103	0.05394
1605.92526	0.05405
1604.63950	0.05415
1603.35373	0.05423
1602.06796	0.05430
1600.78219	0.05437
1599.49642	0.05448
1598.21065	0.05463
1596.92488	0.05480
1595.63911	0.05494
1594.35335	0.05505
1593.06758	0.05518
1591.78181	0.05534
1590.49604	0.05550
1589.21027	0.05562
1587.92450	0.05569
1586.63873	0.05573
1585.35296	0.05579
1584.06719	0.05588
1582.78143	0.05599
1581.49566	0.05610
1580.20989	0.05624
1578.92412	0.05637
1577.63835	0.05647
1576.35258	0.05669
1575.06681	0.05712
1573.78104	0.05760
1572.49528	0.05786
1571.20951	0.05793
1569.92374	0.05800
1568.63797	0.05817
1567.35220	0.05835
1566.06643	0.05846
1564.78066	0.05856
1563.49489	0.05870
1562.20912	0.05882
1560.92336	0.05887
1559.63759	0.05899
1558.35182	0.05935
1557.06605	0.05978
1555.78028	0.05998
1554.49451	0.05995
1553.20874	0.05993
1551.92297	0.05995
1550.63721	0.05995
1549.35144	0.05991
1548.06567	0.05988
1546.77990	0.05978
1545.49413	0.05959
1544.20836	0.05933
1542.92259	0.05899
1541.63682	0.05855
1540.35105	0.05812
1539.06529	0.05783
1537.77952	0.05767
1536.49375	0.05741
1535.20798	0.05699
1533.92221	0.05658
1532.63644	0.05631
1531.35067	0.05615
1530.06490	0.05598
1528.77914	0.05585
1527.49337	0.05585
1526.20760	0.05598
1524.92183	0.05620
1523.63606	0.05641
1522.35029	0.05660
1521.06452	0.05688
1519.77875	0.05731
1518.49298	0.05773
1517.20722	0.05813
1515.92145	0.05863
1514.63568	0.05924
1513.34991	0.05986
1512.06414	0.06049
1510.77837	0.06118
1509.49260	0.06188
1508.20683	0.06258
1506.92107	0.06337
1505.63530	0.06433
1504.34953	0.06529
1503.06376	0.06603
1501.77799	0.06650
1500.49222	0.06690
1499.20645	0.06730
1497.92068	0.06769
1496.63491	0.06809
1495.34915	0.06855
1494.06338	0.06901
1492.77761	0.06941
1491.49184	0.06978
1490.20607	0.07021
1488.92030	0.07073
1487.63453	0.07131
1486.34876	0.07196
1485.06299	0.07272
1483.77723	0.07361
1482.49146	0.07458
1481.20569	0.07560
1479.91992	0.07663
1478.63415	0.07768
1477.34838	0.07880
1476.06261	0.07999
1474.77684	0.08113
1473.49108	0.08216
1472.20531	0.08315
1470.91954	0.08416
1469.63377	0.08512
1468.34800	0.08596
1467.06223	0.08668
1465.77646	0.08734
1464.49069	0.08802
1463.20492	0.08872
1461.91916	0.08938
1460.63339	0.09000
1459.34762	0.09059
1458.06185	0.09126
1456.77608	0.09211
1455.49031	0.09307
1454.20454	0.09388
1452.91877	0.09435
1451.63301	0.09460
1450.34724	0.09474
1449.06147	0.09479
1447.77570	0.09475
1446.48993	0.09460
1445.20416	0.09432
1443.91839	0.09391
1442.63262	0.09345
1441.34685	0.09302
1440.06109	0.09263
1438.77532	0.09224
1437.48955	0.09191
1436.20378	0.09178
1434.91801	0.09189
1433.63224	0.09218
1432.34647	0.09259
1431.06070	0.09317
1429.77494	0.09395
1428.48917	0.09490
1427.20340	0.09597
1425.91763	0.09709
1424.63186	0.09823
1423.34609	0.09938
1422.06032	0.10053
1420.77455	0.10162
1419.48878	0.10267
1418.20302	0.10367
1416.91725	0.10450
1415.63148	0.10506
1414.34571	0.10538
1413.05994	0.10551
1411.77417	0.10542
1410.48840	0.10507
1409.20263	0.10446
1407.91687	0.10363
1406.63110	0.10258
1405.34533	0.10132
1404.05956	0.09987
1402.77379	0.09824
1401.48802	0.09650
1400.20225	0.09469
1398.91648	0.09285
1397.63071	0.09092
1396.34495	0.08885
1395.05918	0.08666
1393.77341	0.08450
1392.48764	0.08245
1391.20187	0.08050
1389.91610	0.07864
1388.63033	0.07689
1387.34456	0.07527
1386.05880	0.07373
1384.77303	0.07222
1383.48726	0.07067
1382.20149	0.06910
1380.91572	0.06755
1379.62995	0.06604
1378.34418	0.06456
1377.05841	0.06301
1375.77264	0.06135
1374.48688	0.05957
1373.20111	0.05778
1371.91534	0.05602
1370.62957	0.05430
1369.34380	0.05266
1368.05803	0.05113
1366.77226	0.04977
1365.48649	0.04855
1364.20073	0.04743
1362.91496	0.04636
1361.62919	0.04532
1360.34342	0.04432
1359.05765	0.04343
1357.77188	0.04268
1356.48611	0.04205
1355.20034	0.04147
1353.91457	0.04088
1352.62881	0.04027
1351.34304	0.03966
1350.05727	0.03908
1348.77150	0.03854
1347.48573	0.03802
1346.19996	0.03754
1344.91419	0.03711
1343.62842	0.03673
1342.34266	0.03636
1341.05689	0.03593
1339.77112	0.03544
1338.48535	0.03493
1337.19958	0.03448
1335.91381	0.03407
1334.62804	0.03367
1333.34227	0.03327
1332.05650	0.03289
1330.77074	0.03253
1329.48497	0.03218
1328.19920	0.03184
1326.91343	0.03153
1325.62766	0.03125
1324.34189	0.03100
1323.05612	0.03075
1321.77035	0.03049
1320.48459	0.03019
1319.19882	0.02989
1317.91305	0.02957
1316.62728	0.02924
1315.34151	0.02891
1314.05574	0.02859
1312.76997	0.02829
1311.48420	0.02803
1310.19843	0.02780
1308.91267	0.02759
1307.62690	0.02740
1306.34113	0.02721
1305.05536	0.02701
1303.76959	0.02678
1302.48382	0.02653
1301.19805	0.02628
1299.91228	0.02605
1298.62652	0.02586
1297.34075	0.02572
1296.05498	0.02559
1294.76921	0.02545
1293.48344	0.02528
1292.19767	0.02510
1290.91190	0.02496
1289.62613	0.02487
1288.34036	0.02482
1287.05460	0.02478
1285.76883	0.02476
1284.48306	0.02473
1283.19729	0.02469
1281.91152	0.02462
1280.62575	0.02451
1279.33998	0.02437
1278.05421	0.02423
1276.76845	0.02412
1275.48268	0.02404
1274.19691	0.02398
1272.91114	0.02393
1271.62537	0.02388
1270.33960	0.02380
1269.05383	0.02368
1267.76806	0.02355
1266.48229	0.02345
1265.19653	0.02339
1263.91076	0.02333
1262.62499	0.02326
1261.33922	0.02319
1260.05345	0.02316
1258.76768	0.02319
1257.48191	0.02325
1256.19614	0.02330
1254.91037	0.02331
1253.62461	0.02329
1252.33884	0.02323
1251.05307	0.02314
1249.76730	0.02305
1248.48153	0.02301
1247.19576	0.02300
1245.90999	0.02300
1244.62422	0.02297
1243.33846	0.02291
1242.05269	0.02283
1240.76692	0.02277
1239.48115	0.02271
1238.19538	0.02263
1236.90961	0.02254
1235.62384	0.02244
1234.33807	0.02237
1233.05230	0.02232
1231.76654	0.02225
1230.48077	0.02213
1229.19500	0.02193
1227.90923	0.02169
1226.62346	0.02148
1225.33769	0.02131
1224.05192	0.02120
1222.76615	0.02110
1221.48039	0.02099
1220.19462	0.02089
1218.90885	0.02079
1217.62308	0.02069
1216.33731	0.02055
1215.05154	0.02037
1213.76577	0.02018
1212.48000	0.02006
1211.19423	0.02003
1209.90847	0.02007
1208.62270	0.02013
1207.33693	0.02015
1206.05116	0.02016
1204.76539	0.02016
1203.47962	0.02016
1202.19385	0.02011
1200.90808	0.02003
1199.62232	0.01987
1198.33655	0.01979
1197.05078	0.01974
1195.76501	0.01972
1194.47924	0.01970
1193.19347	0.01970
1191.90770	0.01969
1190.62193	0.01965
1189.33616	0.01958
1188.05040	0.01948
1186.76463	0.01938
1185.47886	0.01932
1184.19309	0.01933
1182.90732	0.01935
1181.62155	0.01935
1180.33578	0.01933
1179.05001	0.01933
1177.76425	0.01938
1176.47848	0.01949
1175.19271	0.01960
1173.90694	0.01970
1172.62117	0.01980
1171.33540	0.01992
1170.04963	0.02009
1168.76386	0.02031
1167.47809	0.02058
1166.19233	0.02087
1164.90656	0.02117
1163.62079	0.02144
1162.33502	0.02166
1161.04925	0.02184
1159.76348	0.02202
1158.47771	0.02225
1157.19194	0.02256
1155.90618	0.02296
1154.62041	0.02340
1153.33464	0.02383
1152.04887	0.02421
1150.76310	0.02457
1149.47733	0.02495
1148.19156	0.02544
1146.90579	0.02607
1145.62002	0.02682
1144.33426	0.02769
1143.04849	0.02865
1141.76272	0.02967
1140.47695	0.03068
1139.19118	0.03168
1137.90541	0.03276
1136.61964	0.03401
1135.33387	0.03551
1134.04811	0.03723
1132.76234	0.03911
1131.47657	0.04112
1130.19080	0.04325
1128.90503	0.04553
1127.61926	0.04802
1126.33349	0.05075
1125.04772	0.05371
1123.76195	0.05685
1122.47619	0.06012
1121.19042	0.06348
1119.90465	0.06695
1118.61888	0.07055
1117.33311	0.07430
1116.04734	0.07807
1114.76157	0.08174
1113.47580	0.08529
1112.19004	0.08880
1110.90427	0.09232
1109.61850	0.09584
1108.33273	0.09927
1107.04696	0.10258
1105.76119	0.10577
1104.47542	0.10886
1103.18965	0.11189
1101.90388	0.11489
1100.61812	0.11787
1099.33235	0.12079
1098.04658	0.12360
1096.76081	0.12625
1095.47504	0.12873
1094.18927	0.13107
1092.90350	0.13333
1091.61773	0.13551
1090.33197	0.13756
1089.04620	0.13943
1087.76043	0.14116
1086.47466	0.14289
1085.18889	0.14468
1083.90312	0.14657
1082.61735	0.14857
1081.33158	0.15069
1080.04581	0.15296
1078.76005	0.15538
1077.47428	0.15795
1076.18851	0.16068
1074.90274	0.16358
1073.61697	0.16658
1072.33120	0.16963
1071.04543	0.17274
1069.75966	0.17595
1068.47390	0.17930
1067.18813	0.18280
1065.90236	0.18641
1064.61659	0.19006
1063.33082	0.19367
1062.04505	0.19721
1060.75928	0.20070
1059.47351	0.20423
1058.18774	0.20780
1056.90198	0.21131
1055.61621	0.21468
1054.33044	0.21795
1053.04467	0.22125
1051.75890	0.22465
1050.47313	0.22812
1049.18736	0.23165
1047.90159	0.23531
1046.61583	0.23913
1045.33006	0.24304
1044.04429	0.24693
1042.75852	0.25074
1041.47275	0.25453
1040.18698	0.25842
1038.90121	0.26247
1037.61544	0.26657
1036.32967	0.27058
1035.04391	0.27439
1033.75814	0.27799
1032.47237	0.28138
1031.18660	0.28456
1029.90083	0.28745
1028.61506	0.28992
1027.32929	0.29190
1026.04352	0.29339
1024.75775	0.29443
1023.47199	0.29506
1022.18622	0.29526
1020.90045	0.29500
1019.61468	0.29422
1018.32891	0.29292
1017.04314	0.29112
1015.75737	0.28882
1014.47160	0.28603
1013.18584	0.28269
1011.90007	0.27877
1010.61430	0.27429
1009.32853	0.26930
1008.04276	0.26391
1006.75699	0.25820
1005.47122	0.25217
1004.18545	0.24580
1002.89968	0.23915
1001.61392	0.23233
1000.32815	0.22541
999.04238	0.21838
997.75661	0.21126
996.47084	0.20406
995.18507	0.19684
993.89930	0.18965
992.61353	0.18254
991.32777	0.17558
990.04200	0.16882
988.75623	0.16231
987.47046	0.15608
986.18469	0.15012
984.89892	0.14444
983.61315	0.13907
982.32738	0.13403
981.04161	0.12933
979.75585	0.12498
978.47008	0.12100
977.18431	0.11737
975.89854	0.11402
974.61277	0.11097
973.32700	0.10831
972.04123	0.10618
970.75546	0.10469
969.46970	0.10385
968.18393	0.10357
966.89816	0.10379
965.61239	0.10440
964.32662	0.10524
963.04085	0.10611
961.75508	0.10677
960.46931	0.10702
959.18354	0.10668
957.89778	0.10566
956.61201	0.10396
955.32624	0.10174
954.04047	0.09925
952.75470	0.09669
951.46893	0.09416
950.18316	0.09164
948.89739	0.08914
947.61163	0.08670
946.32586	0.08440
945.04009	0.08222
943.75432	0.08009
942.46855	0.07796
941.18278	0.07584
939.89701	0.07383
938.61124	0.07197
937.32547	0.07024
936.03971	0.06863
934.75394	0.06710
933.46817	0.06566
932.18240	0.06434
930.89663	0.06313
929.61086	0.06201
928.32509	0.06097
927.03932	0.05999
925.75356	0.05905
924.46779	0.05811
923.18202	0.05717
921.89625	0.05628
920.61048	0.05547
919.32471	0.05477
918.03894	0.05418
916.75317	0.05366
915.46740	0.05313
914.18164	0.05254
912.89587	0.05190
911.61010	0.05132
910.32433	0.05088
909.03856	0.05054
907.75279	0.05021
906.46702	0.04980
905.18125	0.04930
903.89549	0.04878
902.60972	0.04827
901.32395	0.04782
900.03818	0.04744
898.75241	0.04710
897.46664	0.04674
896.18087	0.04636
894.89510	0.04599
893.60933	0.04573
892.32357	0.04562
891.03780	0.04566
889.75203	0.04582
888.46626	0.04617
887.18049	0.04684
885.89472	0.04797
884.60895	0.04968
883.32318	0.05197
882.03742	0.05463
880.75165	0.05725
879.46588	0.05939
878.18011	0.06092
876.89434	0.06212
875.60857	0.06335
874.32280	0.06470
873.03703	0.06588
871.75126	0.06645
870.46550	0.06617
869.17973	0.06503
867.89396	0.06326
866.60819	0.06117
865.32242	0.05901
864.03665	0.05692
862.75088	0.05492
861.46511	0.05301
860.17935	0.05128
858.89358	0.04983
857.60781	0.04870
856.32204	0.04782
855.03627	0.04706
853.75050	0.04631
852.46473	0.04560
851.17896	0.04499
849.89319	0.04453
848.60743	0.04419
847.32166	0.04388
846.03589	0.04356
844.75012	0.04325
843.46435	0.04293
842.17858	0.04258
840.89281	0.04218
839.60704	0.04175
838.32128	0.04138
837.03551	0.04111
835.74974	0.04093
834.46397	0.04078
833.17820	0.04060
831.89243	0.04037
830.60666	0.04012
829.32089	0.03992
828.03512	0.03978
826.74936	0.03967
825.46359	0.03956
824.17782	0.03943
822.89205	0.03928
821.60628	0.03910
820.32051	0.03895
819.03474	0.03891
817.74897	0.03899
816.46321	0.03913
815.17744	0.03924
813.89167	0.03928
812.60590	0.03922
811.32013	0.03911
810.03436	0.03904
808.74859	0.03904
807.46282	0.03908
806.17705	0.03903
804.89129	0.03888
803.60552	0.03872
802.31975	0.03861
801.03398	0.03854
799.74821	0.03846
798.46244	0.03833
797.17667	0.03822
795.89090	0.03819
794.60513	0.03824
793.31937	0.03828
792.03360	0.03824
790.74783	0.03814
789.46206	0.03805
788.17629	0.03797
786.89052	0.03789
785.60475	0.03781
784.31898	0.03775
783.03322	0.03775
781.74745	0.03779
780.46168	0.03784
779.17591	0.03788
777.89014	0.03789
776.60437	0.03785
775.31860	0.03776
774.03283	0.03765
772.74706	0.03763
771.46130	0.03777
770.17553	0.03802
768.88976	0.03824
767.60399	0.03828
766.31822	0.03812
765.03245	0.03789
763.74668	0.03773
762.46091	0.03773
761.17515	0.03789
759.88938	0.03812
758.60361	0.03831
757.31784	0.03838
756.03207	0.03832
754.74630	0.03817
753.46053	0.03803
752.17476	0.03794
750.88899	0.03797
749.60323	0.03808
748.31746	0.03818
747.03169	0.03815
745.74592	0.03795
744.46015	0.03765
743.17438	0.03737
741.88861	0.03714
740.60284	0.03696
739.31708	0.03685
738.03131	0.03685
736.74554	0.03700
735.45977	0.03728
734.17400	0.03757
732.88823	0.03775
731.60246	0.03780
730.31669	0.03776
729.03092	0.03771
727.74516	0.03769
726.45939	0.03771
725.17362	0.03775
723.88785	0.03765
722.60208	0.03773
721.31631	0.03781
720.03054	0.03780
718.74477	0.03776
717.45901	0.03774
716.17324	0.03774
714.88747	0.03772
713.60170	0.03763
712.31593	0.03749
711.03016	0.03732
709.74439	0.03718
708.45862	0.03709
707.17285	0.03703
705.88709	0.03697
704.60132	0.03689
703.31555	0.03680
702.02978	0.03671
700.74401	0.03664
699.45824	0.03659
698.17247	0.03660
696.88670	0.03665
695.60094	0.03673
694.31517	0.03678
693.02940	0.03679
691.74363	0.03680
690.45786	0.03685
689.17209	0.03693
687.88632	0.03697
686.60055	0.03691
685.31478	0.03674
684.02902	0.03651
682.74325	0.03630
681.45748	0.03614
680.17171	0.03607
678.88594	0.03608
677.60017	0.03615
676.31440	0.03623
675.02863	0.03631
673.74287	0.03638
672.45710	0.03641
671.17133	0.03636
669.88556	0.03634
668.59979	0.03671
667.31402	0.03700
666.02825	0.03688
664.74248	0.03696
663.45671	0.03688
662.17095	0.03664
660.88518	0.03641
659.59941	0.03622
658.31364	0.03605
657.02787	0.03586
655.74210	0.03570
654.45633	0.03560
653.17056	0.03556
651.88480	0.03556
650.59903	0.03558
649.31326	0.03562
648.02749	0.03563
646.74172	0.03560
645.45595	0.03558
644.17018	0.03560
642.88441	0.03571
641.59864	0.03589
640.31288	0.03612
639.02711	0.03636
637.74134	0.03662
636.45557	0.03691
635.16980	0.03725
633.88403	0.03759
632.59826	0.03788
631.31249	0.03823
630.02673	0.03882
628.74096	0.03921
627.45519	0.03902
626.16942	0.03926
624.88365	0.03993
623.59788	0.04131
622.31211	0.04422
621.02634	0.04880
619.74057	0.05395
618.45481	0.05835
617.16904	0.06158
615.88327	0.06394
614.59750	0.06604
613.31173	0.06874
612.02596	0.07315
610.74019	0.07977
609.45442	0.08749
608.16866	0.09424
606.88289	0.09922
605.59712	0.10325
604.31135	0.10692
603.02558	0.10955
601.73981	0.11010
600.45404	0.10852
599.16827	0.10561
597.88250	0.10231
596.59674	0.09909
595.31097	0.09608
594.02520	0.09335
592.73943	0.09106
591.45366	0.08940
590.16789	0.08842
588.88212	0.08804
587.59635	0.08816
586.31059	0.08882
585.02482	0.09009
583.73905	0.09192
582.45328	0.09417
581.16751	0.09671
579.88174	0.09946
578.59597	0.10236
577.31020	0.10529
576.02443	0.10813
574.73867	0.11081
573.45290	0.11339
572.16713	0.11603
570.88136	0.11890
569.59559	0.12219
568.30982	0.12601
567.02405	0.13033
565.73828	0.13482
564.45251	0.13887
563.16675	0.14175
561.88098	0.14294
560.59521	0.14224
559.30944	0.13972
558.02367	0.13563
556.73790	0.13035
555.45213	0.12432
554.16636	0.11793
552.88060	0.11151
551.59483	0.10535
550.30906	0.09969
549.02329	0.09463
547.73752	0.09016
546.45175	0.08617
545.16598	0.08261
543.88021	0.07949
542.59444	0.07676
541.30868	0.07434
540.02291	0.07207
538.73714	0.06990
537.45137	0.06782
536.16560	0.06586
534.87983	0.06400
533.59406	0.06227
532.30829	0.06067
531.02253	0.05919
529.73676	0.05774
528.45099	0.05625
527.16522	0.05475
525.87945	0.05335
524.59368	0.05219
523.30791	0.05126
522.02214	0.05043
520.73637	0.04947
519.45061	0.04829
518.16484	0.04699
516.87907	0.04575
515.59330	0.04472
514.30753	0.04397
513.02176	0.04343
511.73599	0.04299
510.45022	0.04250
509.16446	0.04190
507.87869	0.04125
506.59292	0.04062
505.30715	0.04003
504.02138	0.03944
502.73561	0.03886
501.44984	0.03829
500.16407	0.03776
498.87830	0.03723
497.59254	0.03673
496.30677	0.03630
495.02100	0.03594
493.73523	0.03560
492.44946	0.03525
491.16369	0.03496
489.87792	0.03478
488.59215	0.03472
487.30639	0.03464
486.02062	0.03449
484.73485	0.03429
483.44908	0.03413
482.16331	0.03408
480.87754	0.03414
479.59177	0.03426
478.30600	0.03439
477.02023	0.03451
475.73447	0.03465
474.44870	0.03484
473.16293	0.03510
471.87716	0.03533
470.59139	0.03542
469.30562	0.03532
468.01985	0.03506
466.73408	0.03471
465.44832	0.03433
464.16255	0.03392
462.87678	0.03347
461.59101	0.03305
460.30524	0.03266
459.01947	0.03234
457.73370	0.03208
456.44793	0.03186
455.16216	0.03161
453.87640	0.03131
452.59063	0.03095
451.30486	0.03060
450.01909	0.03030
448.73332	0.03005
447.44755	0.02985
446.16178	0.02969
444.87601	0.02956
443.59025	0.02945
442.30448	0.02930
441.01871	0.02910
439.73294	0.02886
438.44717	0.02864
437.16140	0.02846
435.87563	0.02834
434.58986	0.02828
433.30409	0.02823
432.01833	0.02815
430.73256	0.02802
429.44679	0.02789
428.16102	0.02775
426.87525	0.02759
425.58948	0.02740
424.30371	0.02722
423.01794	0.02712
421.73218	0.02708
420.44641	0.02705
419.16064	0.02701
417.87487	0.02692
416.58910	0.02679
415.30333	0.02662
414.01756	0.02648
412.73179	0.02640
411.44602	0.02636
410.16026	0.02633
408.87449	0.02632
407.58872	0.02634
406.30295	0.02643
405.01718	0.02654
403.73141	0.02663
402.44564	0.02667
401.15987	0.02670
399.87411	0.02675
