3997.45528	0.02314
3996.16951	0.02381
3994.88374	0.02428
3993.59798	0.02433
3992.31221	0.02388
3991.02644	0.02317
3989.74067	0.02261
3988.45490	0.02237
3987.16913	0.02228
3985.88336	0.02213
3984.59759	0.02199
3983.31183	0.02210
3982.02606	0.02259
3980.74029	0.02335
3979.45452	0.02422
3978.16875	0.02504
3976.88298	0.02562
3975.59721	0.02581
3974.31144	0.02561
3973.02567	0.02532
3971.73991	0.02519
3970.45414	0.02522
3969.16837	0.02521
3967.88260	0.02504
3966.59683	0.02486
3965.31106	0.02487
3964.02529	0.02501
3962.73952	0.02497
3961.45376	0.02449
3960.16799	0.02368
3958.88222	0.02301
3957.59645	0.02278
3956.31068	0.02285
3955.02491	0.02290
3953.73914	0.02285
3952.45337	0.02299
3951.16760	0.02359
3949.88184	0.02460
3948.59607	0.02561
3947.31030	0.02610
3946.02453	0.02582
3944.73876	0.02500
3943.45299	0.02417
3942.16722	0.02373
3940.88145	0.02368
3939.59569	0.02378
3938.30992	0.02387
3937.02415	0.02396
3935.73838	0.02414
3934.45261	0.02434
3933.16684	0.02439
3931.88107	0.02427
3930.59530	0.02419
3929.30953	0.02443
3928.02377	0.02497
3926.73800	0.02548
3925.45223	0.02553
3924.16646	0.02496
3922.88069	0.02403
3921.59492	0.02328
3920.30915	0.02316
3919.02338	0.02367
3917.73762	0.02433
3916.45185	0.02466
3915.16608	0.02456
3913.88031	0.02429
3912.59454	0.02416
3911.30877	0.02428
3910.02300	0.02452
3908.73723	0.02466
3907.45146	0.02457
3906.16570	0.02431
3904.87993	0.02393
3903.59416	0.02335
3902.30839	0.02247
3901.02262	0.02152
3899.73685	0.02110
3898.45108	0.02154
3897.16531	0.02246
3895.87955	0.02319
3894.59378	0.02348
3893.30801	0.02359
3892.02224	0.02369
3890.73647	0.02360
3889.45070	0.02318
3888.16493	0.02263
3886.87916	0.02240
3885.59339	0.02260
3884.30763	0.02294
3883.02186	0.02313
3881.73609	0.02313
3880.45032	0.02316
3879.16455	0.02333
3877.87878	0.02364
3876.59301	0.02398
3875.30724	0.02421
3874.02148	0.02419
3872.73571	0.02391
3871.44994	0.02352
3870.16417	0.02315
3868.87840	0.02273
3867.59263	0.02224
3866.30686	0.02184
3865.02109	0.02172
3863.73532	0.02185
3862.44956	0.02199
3861.16379	0.02198
3859.87802	0.02176
3858.59225	0.02143
3857.30648	0.02128
3856.02071	0.02169
3854.73494	0.02258
3853.44917	0.02329
3852.16341	0.02315
3850.87764	0.02232
3849.59187	0.02164
3848.30610	0.02188
3847.02033	0.02305
3845.73456	0.02451
3844.44879	0.02548
3843.16302	0.02549
3841.87725	0.02455
3840.59149	0.02313
3839.30572	0.02191
3838.01995	0.02130
3836.73418	0.02128
3835.44841	0.02153
3834.16264	0.02184
3832.87687	0.02224
3831.59110	0.02274
3830.30534	0.02314
3829.01957	0.02319
3827.73380	0.02293
3826.44803	0.02263
3825.16226	0.02251
3823.87649	0.02257
3822.59072	0.02263
3821.30495	0.02259
3820.01918	0.02255
3818.73342	0.02274
3817.44765	0.02321
3816.16188	0.02371
3814.87611	0.02385
3813.59034	0.02351
3812.30457	0.02288
3811.01880	0.02232
3809.73303	0.02211
3808.44726	0.02230
3807.16150	0.02269
3805.87573	0.02313
3804.58996	0.02367
3803.30419	0.02431
3802.01842	0.02474
3800.73265	0.02454
3799.44688	0.02372
3798.16111	0.02278
3796.87535	0.02225
3795.58958	0.02220
3794.30381	0.02232
3793.01804	0.02228
3791.73227	0.02202
3790.44650	0.02166
3789.16073	0.02136
3787.87496	0.02129
3786.58919	0.02157
3785.30343	0.02217
3784.01766	0.02279
3782.73189	0.02302
3781.44612	0.02272
3780.16035	0.02208
3778.87458	0.02136
3777.58881	0.02065
3776.30304	0.02000
3775.01728	0.01947
3773.73151	0.01916
3772.44574	0.01911
3771.15997	0.01937
3769.87420	0.01996
3768.58843	0.02082
3767.30266	0.02179
3766.01689	0.02259
3764.73112	0.02299
3763.44536	0.02290
3762.15959	0.02247
3760.87382	0.02199
3759.58805	0.02155
3758.30228	0.02103
3757.01651	0.02041
3755.73074	0.01990
3754.44497	0.01983
3753.15921	0.02028
3751.87344	0.02104
3750.58767	0.02171
3749.30190	0.02198
3748.01613	0.02181
3746.73036	0.02153
3745.44459	0.02151
3744.15882	0.02181
3742.87305	0.02222
3741.58729	0.02248
3740.30152	0.02242
3739.01575	0.02196
3737.72998	0.02126
3736.44421	0.02080
3735.15844	0.02105
3733.87267	0.02184
3732.58690	0.02248
3731.30114	0.02241
3730.01537	0.02172
3728.72960	0.02104
3727.44383	0.02086
3726.15806	0.02114
3724.87229	0.02144
3723.58652	0.02136
3722.30075	0.02082
3721.01498	0.02008
3719.72922	0.01956
3718.44345	0.01965
3717.15768	0.02043
3715.87191	0.02164
3714.58614	0.02277
3713.30037	0.02337
3712.01460	0.02327
3710.72883	0.02265
3709.44307	0.02203
3708.15730	0.02183
3706.87153	0.02204
3705.58576	0.02229
3704.29999	0.02232
3703.01422	0.02218
3701.72845	0.02204
3700.44268	0.02189
3699.15691	0.02164
3697.87115	0.02132
3696.58538	0.02091
3695.29961	0.02031
3694.01384	0.01955
3692.72807	0.01896
3691.44230	0.01892
3690.15653	0.01953
3688.87076	0.02051
3687.58500	0.02145
3686.29923	0.02206
3685.01346	0.02233
3683.72769	0.02251
3682.44192	0.02282
3681.15615	0.02331
3679.87038	0.02393
3678.58461	0.02464
3677.29884	0.02519
3676.01308	0.02496
3674.72731	0.02362
3673.44154	0.02177
3672.15577	0.02064
3670.87000	0.02087
3669.58423	0.02191
3668.29846	0.02273
3667.01269	0.02293
3665.72693	0.02283
3664.44116	0.02282
3663.15539	0.02285
3661.86962	0.02266
3660.58385	0.02222
3659.29808	0.02182
3658.01231	0.02174
3656.72654	0.02204
3655.44077	0.02249
3654.15501	0.02278
3652.86924	0.02276
3651.58347	0.02239
3650.29770	0.02189
3649.01193	0.02154
3647.72616	0.02155
3646.44039	0.02181
3645.15462	0.02209
3643.86886	0.02228
3642.58309	0.02242
3641.29732	0.02264
3640.01155	0.02304
3638.72578	0.02360
3637.44001	0.02417
3636.15424	0.02459
3634.86847	0.02477
3633.58270	0.02471
3632.29694	0.02438
3631.01117	0.02380
3629.72540	0.02329
3628.43963	0.02330
3627.15386	0.02401
3625.86809	0.02505
3624.58232	0.02587
3623.29655	0.02624
3622.01079	0.02644
3620.72502	0.02689
3619.43925	0.02768
3618.15348	0.02837
3616.86771	0.02842
3615.58194	0.02771
3614.29617	0.02673
3613.01040	0.02611
3611.72463	0.02606
3610.43887	0.02631
3609.15310	0.02651
3607.86733	0.02658
3606.58156	0.02664
3605.29579	0.02671
3604.01002	0.02673
3602.72425	0.02675
3601.43848	0.02702
3600.15272	0.02766
3598.86695	0.02853
3597.58118	0.02929
3596.29541	0.02977
3595.00964	0.03000
3593.72387	0.03017
3592.43810	0.03039
3591.15233	0.03065
3589.86656	0.03085
3588.58080	0.03087
3587.29503	0.03061
3586.00926	0.03004
3584.72349	0.02932
3583.43772	0.02875
3582.15195	0.02853
3580.86618	0.02853
3579.58041	0.02849
3578.29464	0.02829
3577.00888	0.02808
3575.72311	0.02809
3574.43734	0.02841
3573.15157	0.02886
3571.86580	0.02913
3570.58003	0.02912
3569.29426	0.02904
3568.00849	0.02914
3566.72273	0.02946
3565.43696	0.02980
3564.15119	0.03001
3562.86542	0.03012
3561.57965	0.03020
3560.29388	0.03024
3559.00811	0.03023
3557.72234	0.03025
3556.43657	0.03044
3555.15081	0.03080
3553.86504	0.03120
3552.57927	0.03143
3551.29350	0.03144
3550.00773	0.03136
3548.72196	0.03145
3547.43619	0.03188
3546.15042	0.03262
3544.86466	0.03342
3543.57889	0.03398
3542.29312	0.03408
3541.00735	0.03380
3539.72158	0.03348
3538.43581	0.03341
3537.15004	0.03361
3535.86427	0.03383
3534.57850	0.03391
3533.29274	0.03397
3532.00697	0.03422
3530.72120	0.03467
3529.43543	0.03504
3528.14966	0.03510
3526.86389	0.03490
3525.57812	0.03466
3524.29235	0.03456
3523.00659	0.03457
3521.72082	0.03461
3520.43505	0.03468
3519.14928	0.03490
3517.86351	0.03529
3516.57774	0.03573
3515.29197	0.03606
3514.00620	0.03626
3512.72043	0.03638
3511.43467	0.03634
3510.14890	0.03604
3508.86313	0.03559
3507.57736	0.03538
3506.29159	0.03566
3505.00582	0.03625
3503.72005	0.03671
3502.43428	0.03682
3501.14852	0.03673
3499.86275	0.03667
3498.57698	0.03667
3497.29121	0.03660
3496.00544	0.03649
3494.71967	0.03653
3493.43390	0.03685
3492.14813	0.03738
3490.86236	0.03790
3489.57660	0.03826
3488.29083	0.03839
3487.00506	0.03824
3485.71929	0.03791
3484.43352	0.03762
3483.14775	0.03760
3481.86198	0.03788
3480.57621	0.03837
3479.29045	0.03897
3478.00468	0.03959
3476.71891	0.04004
3475.43314	0.04018
3474.14737	0.04012
3472.86160	0.04012
3471.57583	0.04035
3470.29006	0.04074
3469.00429	0.04110
3467.71853	0.04129
3466.43276	0.04121
3465.14699	0.04093
3463.86122	0.04069
3462.57545	0.04072
3461.28968	0.04108
3460.00391	0.04157
3458.71814	0.04189
3457.43238	0.04192
3456.14661	0.04174
3454.86084	0.04150
3453.57507	0.04137
3452.28930	0.04139
3451.00353	0.04151
3449.71776	0.04164
3448.43199	0.04169
3447.14622	0.04167
3445.86046	0.04157
3444.57469	0.04144
3443.28892	0.04133
3442.00315	0.04135
3440.71738	0.04158
3439.43161	0.04206
3438.14584	0.04265
3436.86007	0.04307
3435.57431	0.04314
3434.28854	0.04287
3433.00277	0.04248
3431.71700	0.04222
3430.43123	0.04218
3429.14546	0.04230
3427.85969	0.04249
3426.57392	0.04277
3425.28815	0.04316
3424.00239	0.04364
3422.71662	0.04404
3421.43085	0.04419
3420.14508	0.04410
3418.85931	0.04391
3417.57354	0.04379
3416.28777	0.04383
3415.00200	0.04402
3413.71624	0.04420
3412.43047	0.04416
3411.14470	0.04387
3409.85893	0.04360
3408.57316	0.04376
3407.28739	0.04445
3406.00162	0.04533
3404.71585	0.04589
3403.43008	0.04591
3402.14432	0.04551
3400.85855	0.04497
3399.57278	0.04469
3398.28701	0.04469
3397.00124	0.04479
3395.71547	0.04496
3394.42970	0.04516
3393.14393	0.04533
3391.85817	0.04538
3390.57240	0.04523
3389.28663	0.04491
3388.00086	0.04459
3386.71509	0.04445
3385.42932	0.04452
3384.14355	0.04471
3382.85778	0.04490
3381.57201	0.04499
3380.28625	0.04496
3379.00048	0.04491
3377.71471	0.04503
3376.42894	0.04542
3375.14317	0.04591
3373.85740	0.04617
3372.57163	0.04601
3371.28586	0.04565
3370.00010	0.04553
3368.71433	0.04589
3367.42856	0.04658
3366.14279	0.04714
3364.85702	0.04719
3363.57125	0.04671
3362.28548	0.04604
3360.99971	0.04555
3359.71394	0.04539
3358.42818	0.04549
3357.14241	0.04568
3355.85664	0.04597
3354.57087	0.04634
3353.28510	0.04668
3351.99933	0.04681
3350.71356	0.04673
3349.42779	0.04662
3348.14202	0.04658
3346.85626	0.04649
3345.57049	0.04619
3344.28472	0.04577
3342.99895	0.04548
3341.71318	0.04544
3340.42741	0.04549
3339.14164	0.04540
3337.85587	0.04515
3336.57011	0.04491
3335.28434	0.04490
3333.99857	0.04516
3332.71280	0.04554
3331.42703	0.04584
3330.14126	0.04595
3328.85549	0.04597
3327.56972	0.04604
3326.28395	0.04620
3324.99819	0.04634
3323.71242	0.04639
3322.42665	0.04632
3321.14088	0.04612
3319.85511	0.04580
3318.56934	0.04550
3317.28357	0.04546
3315.99780	0.04586
3314.71204	0.04662
3313.42627	0.04748
3312.14050	0.04807
3310.85473	0.04810
3309.56896	0.04750
3308.28319	0.04657
3306.99742	0.04583
3305.71165	0.04563
3304.42588	0.04597
3303.14012	0.04653
3301.85435	0.04699
3300.56858	0.04723
3299.28281	0.04719
3297.99704	0.04682
3296.71127	0.04615
3295.42550	0.04545
3294.13973	0.04510
3292.85397	0.04529
3291.56820	0.04578
3290.28243	0.04615
3288.99666	0.04615
3287.71089	0.04587
3286.42512	0.04548
3285.13935	0.04515
3283.85358	0.04493
3282.56781	0.04490
3281.28205	0.04510
3279.99628	0.04549
3278.71051	0.04594
3277.42474	0.04632
3276.13897	0.04650
3274.85320	0.04640
3273.56743	0.04614
3272.28166	0.04584
3270.99590	0.04560
3269.71013	0.04540
3268.42436	0.04524
3267.13859	0.04518
3265.85282	0.04532
3264.56705	0.04567
3263.28128	0.04618
3261.99551	0.04668
3260.70974	0.04699
3259.42398	0.04696
3258.13821	0.04658
3256.85244	0.04597
3255.56667	0.04538
3254.28090	0.04495
3252.99513	0.04469
3251.70936	0.04442
3250.42359	0.04409
3249.13783	0.04387
3247.85206	0.04402
3246.56629	0.04455
3245.28052	0.04519
3243.99475	0.04565
3242.70898	0.04594
3241.42321	0.04619
3240.13744	0.04640
3238.85167	0.04638
3237.56591	0.04607
3236.28014	0.04562
3234.99437	0.04522
3233.70860	0.04493
3232.42283	0.04472
3231.13706	0.04464
3229.85129	0.04476
3228.56552	0.04507
3227.27976	0.04537
3225.99399	0.04539
3224.70822	0.04511
3223.42245	0.04472
3222.13668	0.04442
3220.85091	0.04424
3219.56514	0.04412
3218.27937	0.04407
3216.99360	0.04418
3215.70784	0.04444
3214.42207	0.04469
3213.13630	0.04479
3211.85053	0.04463
3210.56476	0.04424
3209.27899	0.04377
3207.99322	0.04346
3206.70745	0.04345
3205.42169	0.04357
3204.13592	0.04344
3202.85015	0.04286
3201.56438	0.04208
3200.27861	0.04161
3198.99284	0.04175
3197.70707	0.04236
3196.42130	0.04311
3195.13553	0.04371
3193.84977	0.04407
3192.56400	0.04421
3191.27823	0.04412
3189.99246	0.04380
3188.70669	0.04330
3187.42092	0.04289
3186.13515	0.04284
3184.84938	0.04306
3183.56362	0.04315
3182.27785	0.04288
3180.99208	0.04243
3179.70631	0.04212
3178.42054	0.04212
3177.13477	0.04231
3175.84900	0.04250
3174.56323	0.04265
3173.27746	0.04277
3171.99170	0.04288
3170.70593	0.04287
3169.42016	0.04268
3168.13439	0.04231
3166.84862	0.04186
3165.56285	0.04150
3164.27708	0.04138
3162.99131	0.04152
3161.70555	0.04183
3160.41978	0.04213
3159.13401	0.04230
3157.84824	0.04231
3156.56247	0.04227
3155.27670	0.04226
3153.99093	0.04222
3152.70516	0.04197
3151.41939	0.04148
3150.13363	0.04104
3148.84786	0.04103
3147.56209	0.04148
3146.27632	0.04205
3144.99055	0.04236
3143.70478	0.04224
3142.41901	0.04173
3141.13324	0.04106
3139.84748	0.04048
3138.56171	0.04024
3137.27594	0.04033
3135.99017	0.04057
3134.70440	0.04073
3133.41863	0.04069
3132.13286	0.04050
3130.84709	0.04024
3129.56132	0.04002
3128.27556	0.03995
3126.98979	0.04005
3125.70402	0.04027
3124.41825	0.04057
3123.13248	0.04089
3121.84671	0.04114
3120.56094	0.04117
3119.27517	0.04091
3117.98940	0.04042
3116.70364	0.03986
3115.41787	0.03943
3114.13210	0.03930
3112.84633	0.03945
3111.56056	0.03973
3110.27479	0.03989
3108.98902	0.03978
3107.70325	0.03939
3106.41749	0.03886
3105.13172	0.03843
3103.84595	0.03833
3102.56018	0.03854
3101.27441	0.03884
3099.98864	0.03899
3098.70287	0.03901
3097.41710	0.03907
3096.13133	0.03926
3094.84557	0.03944
3093.55980	0.03944
3092.27403	0.03924
3090.98826	0.03899
3089.70249	0.03878
3088.41672	0.03865
3087.13095	0.03854
3085.84518	0.03840
3084.55942	0.03825
3083.27365	0.03817
3081.98788	0.03819
3080.70211	0.03820
3079.41634	0.03806
3078.13057	0.03780
3076.84480	0.03758
3075.55903	0.03756
3074.27326	0.03769
3072.98750	0.03785
3071.70173	0.03792
3070.41596	0.03798
3069.13019	0.03813
3067.84442	0.03846
3066.55865	0.03888
3065.27288	0.03924
3063.98711	0.03940
3062.70135	0.03928
3061.41558	0.03887
3060.12981	0.03826
3058.84404	0.03768
3057.55827	0.03741
3056.27250	0.03753
3054.98673	0.03787
3053.70096	0.03816
3052.41519	0.03819
3051.12943	0.03789
3049.84366	0.03730
3048.55789	0.03668
3047.27212	0.03635
3045.98635	0.03645
3044.70058	0.03677
3043.41481	0.03693
3042.12904	0.03676
3040.84328	0.03641
3039.55751	0.03623
3038.27174	0.03641
3036.98597	0.03689
3035.70020	0.03738
3034.41443	0.03766
3033.12866	0.03763
3031.84289	0.03735
3030.55712	0.03697
3029.27136	0.03665
3027.98559	0.03651
3026.69982	0.03657
3025.41405	0.03667
3024.12828	0.03660
3022.84251	0.03629
3021.55674	0.03591
3020.27097	0.03566
3018.98521	0.03560
3017.69944	0.03560
3016.41367	0.03556
3015.12790	0.03548
3013.84213	0.03544
3012.55636	0.03545
3011.27059	0.03547
3009.98482	0.03543
3008.69905	0.03527
3007.41329	0.03511
3006.12752	0.03508
3004.84175	0.03526
3003.55598	0.03548
3002.27021	0.03552
3000.98444	0.03535
2999.69867	0.03521
2998.41290	0.03502
2997.12714	0.03487
2995.84137	0.03472
2994.55560	0.03459
2993.26983	0.03448
2991.98406	0.03440
2990.69829	0.03433
2989.41252	0.03432
2988.12675	0.03441
2986.84098	0.03457
2985.55522	0.03467
2984.26945	0.03456
2982.98368	0.03420
2981.69791	0.03374
2980.41214	0.03345
2979.12637	0.03348
2977.84060	0.03371
2976.55483	0.03388
2975.26907	0.03384
2973.98330	0.03367
2972.69753	0.03362
2971.41176	0.03379
2970.12599	0.03412
2968.84022	0.03441
2967.55445	0.03457
2966.26868	0.03465
2964.98291	0.03470
2963.69715	0.03468
2962.41138	0.03455
2961.12561	0.03437
2959.83984	0.03429
2958.55407	0.03441
2957.26830	0.03472
2955.98253	0.03519
2954.69676	0.03576
2953.41100	0.03628
2952.12523	0.03658
2950.83946	0.03656
2949.55369	0.03633
2948.26792	0.03608
2946.98215	0.03585
2945.69638	0.03559
2944.41061	0.03527
2943.12484	0.03503
2941.83908	0.03495
2940.55331	0.03494
2939.26754	0.03482
2937.98177	0.03455
2936.69600	0.03416
2935.41023	0.03365
2934.12446	0.03301
2932.83869	0.03227
2931.55293	0.03149
2930.26716	0.03075
2928.98139	0.03008
2927.69562	0.02949
2926.40985	0.02885
2925.12408	0.02801
2923.83831	0.02692
2922.55254	0.02574
2921.26677	0.02473
2919.98101	0.02403
2918.69524	0.02364
2917.40947	0.02354
2916.12370	0.02379
2914.83793	0.02454
2913.55216	0.02579
2912.26639	0.02734
2910.98062	0.02888
2909.69486	0.03014
2908.40909	0.03096
2907.12332	0.03137
2905.83755	0.03159
2904.55178	0.03177
2903.26601	0.03194
2901.98024	0.03209
2900.69447	0.03227
2899.40870	0.03257
2898.12294	0.03299
2896.83717	0.03342
2895.55140	0.03369
2894.26563	0.03370
2892.97986	0.03351
2891.69409	0.03331
2890.40832	0.03322
2889.12255	0.03318
2887.83678	0.03310
2886.55102	0.03295
2885.26525	0.03283
2883.97948	0.03278
2882.69371	0.03283
2881.40794	0.03288
2880.12217	0.03290
2878.83640	0.03291
2877.55063	0.03300
2876.26487	0.03319
2874.97910	0.03338
2873.69333	0.03350
2872.40756	0.03351
2871.12179	0.03346
2869.83602	0.03338
2868.55025	0.03325
2867.26448	0.03308
2865.97871	0.03288
2864.69295	0.03269
2863.40718	0.03248
2862.12141	0.03222
2860.83564	0.03191
2859.54987	0.03150
2858.26410	0.03086
2856.97833	0.02987
2855.69256	0.02859
2854.40680	0.02722
2853.12103	0.02595
2851.83526	0.02495
2850.54949	0.02440
2849.26372	0.02447
2847.97795	0.02514
2846.69218	0.02623
2845.40641	0.02747
2844.12064	0.02865
2842.83488	0.02961
2841.54911	0.03025
2840.26334	0.03058
2838.97757	0.03066
2837.69180	0.03063
2836.40603	0.03057
2835.12026	0.03056
2833.83449	0.03055
2832.54873	0.03045
2831.26296	0.03028
2829.97719	0.03017
2828.69142	0.03026
2827.40565	0.03046
2826.11988	0.03053
2824.83411	0.03036
2823.54834	0.03007
2822.26257	0.02984
2820.97681	0.02974
2819.69104	0.02973
2818.40527	0.02973
2817.11950	0.02972
2815.83373	0.02967
2814.54796	0.02957
2813.26219	0.02946
2811.97642	0.02936
2810.69066	0.02934
2809.40489	0.02942
2808.11912	0.02961
2806.83335	0.02980
2805.54758	0.02989
2804.26181	0.02979
2802.97604	0.02953
2801.69027	0.02921
2800.40450	0.02896
2799.11874	0.02880
2797.83297	0.02862
2796.54720	0.02841
2795.26143	0.02832
2793.97566	0.02852
2792.68989	0.02899
2791.40412	0.02945
2790.11835	0.02961
2788.83259	0.02940
2787.54682	0.02902
2786.26105	0.02867
2784.97528	0.02846
2783.68951	0.02831
2782.40374	0.02814
2781.11797	0.02798
2779.83220	0.02793
2778.54643	0.02802
2777.26067	0.02819
2775.97490	0.02836
2774.68913	0.02845
2773.40336	0.02836
2772.11759	0.02809
2770.83182	0.02772
2769.54605	0.02743
2768.26028	0.02733
2766.97452	0.02739
2765.68875	0.02755
2764.40298	0.02771
2763.11721	0.02778
2761.83144	0.02771
2760.54567	0.02755
2759.25990	0.02740
2757.97413	0.02731
2756.68836	0.02729
2755.40260	0.02736
2754.11683	0.02749
2752.83106	0.02760
2751.54529	0.02758
2750.25952	0.02741
2748.97375	0.02721
2747.68798	0.02712
2746.40221	0.02716
2745.11645	0.02725
2743.83068	0.02728
2742.54491	0.02722
2741.25914	0.02709
2739.97337	0.02693
2738.68760	0.02676
2737.40183	0.02661
2736.11606	0.02655
2734.83029	0.02659
2733.54453	0.02668
2732.25876	0.02673
2730.97299	0.02667
2729.68722	0.02651
2728.40145	0.02635
2727.11568	0.02631
2725.82991	0.02639
2724.54414	0.02653
2723.25838	0.02663
2721.97261	0.02661
2720.68684	0.02648
2719.40107	0.02628
2718.11530	0.02603
2716.82953	0.02574
2715.54376	0.02547
2714.25799	0.02539
2712.97222	0.02560
2711.68646	0.02600
2710.40069	0.02632
2709.11492	0.02640
2707.82915	0.02626
2706.54338	0.02606
2705.25761	0.02591
2703.97184	0.02581
2702.68607	0.02574
2701.40031	0.02566
2700.11454	0.02559
2698.82877	0.02548
2697.54300	0.02533
2696.25723	0.02515
2694.97146	0.02500
2693.68569	0.02497
2692.39992	0.02510
2691.11415	0.02538
2689.82839	0.02566
2688.54262	0.02582
2687.25685	0.02580
2685.97108	0.02562
2684.68531	0.02535
2683.39954	0.02506
2682.11377	0.02480
2680.82800	0.02462
2679.54224	0.02456
2678.25647	0.02462
2676.97070	0.02473
2675.68493	0.02483
2674.39916	0.02491
2673.11339	0.02496
2671.82762	0.02495
2670.54185	0.02489
2669.25608	0.02481
2667.97032	0.02477
2666.68455	0.02479
2665.39878	0.02483
2664.11301	0.02478
2662.82724	0.02457
2661.54147	0.02428
2660.25570	0.02411
2658.96993	0.02415
2657.68417	0.02427
2656.39840	0.02427
2655.11263	0.02408
2653.82686	0.02378
2652.54109	0.02345
2651.25532	0.02316
2649.96955	0.02296
2648.68378	0.02288
2647.39801	0.02284
2646.11225	0.02275
2644.82648	0.02260
2643.54071	0.02246
2642.25494	0.02233
2640.96917	0.02216
2639.68340	0.02194
2638.39763	0.02175
2637.11186	0.02167
2635.82609	0.02170
2634.54033	0.02174
2633.25456	0.02173
2631.96879	0.02165
2630.68302	0.02158
2629.39725	0.02155
2628.11148	0.02153
2626.82571	0.02144
2625.53994	0.02130
2624.25418	0.02122
2622.96841	0.02128
2621.68264	0.02140
2620.39687	0.02146
2619.11110	0.02137
2617.82533	0.02117
2616.53956	0.02096
2615.25379	0.02081
2613.96802	0.02073
2612.68226	0.02065
2611.39649	0.02061
2610.11072	0.02063
2608.82495	0.02066
2607.53918	0.02067
2606.25341	0.02070
2604.96764	0.02082
2603.68187	0.02096
2602.39611	0.02099
2601.11034	0.02080
2599.82457	0.02046
2598.53880	0.02014
2597.25303	0.01998
2595.96726	0.01999
2594.68149	0.02008
2593.39572	0.02019
2592.10995	0.02034
2590.82419	0.02050
2589.53842	0.02057
2588.25265	0.02041
2586.96688	0.02004
2585.68111	0.01968
2584.39534	0.01968
2583.10957	0.02013
2581.82380	0.02069
2580.53804	0.02084
2579.25227	0.02044
2577.96650	0.01989
2576.68073	0.01967
2575.39496	0.01985
2574.10919	0.02006
2572.82342	0.02001
2571.53765	0.01980
2570.25188	0.01969
2568.96612	0.01973
2567.68035	0.01976
2566.39458	0.01960
2565.10881	0.01927
2563.82304	0.01896
2562.53727	0.01887
2561.25150	0.01904
2559.96573	0.01929
2558.67997	0.01940
2557.39420	0.01936
2556.10843	0.01937
2554.82266	0.01956
2553.53689	0.01979
2552.25112	0.01983
2550.96535	0.01959
2549.67958	0.01922
2548.39381	0.01897
2547.10805	0.01895
2545.82228	0.01899
2544.53651	0.01891
2543.25074	0.01866
2541.96497	0.01838
2540.67920	0.01826
2539.39343	0.01840
2538.10766	0.01876
2536.82190	0.01914
2535.53613	0.01936
2534.25036	0.01930
2532.96459	0.01899
2531.67882	0.01855
2530.39305	0.01823
2529.10728	0.01829
2527.82151	0.01874
2526.53574	0.01929
2525.24998	0.01956
2523.96421	0.01939
2522.67844	0.01897
2521.39267	0.01863
2520.10690	0.01854
2518.82113	0.01858
2517.53536	0.01854
2516.24959	0.01842
2514.96383	0.01841
2513.67806	0.01867
2512.39229	0.01909
2511.10652	0.01937
2509.82075	0.01934
2508.53498	0.01909
2507.24921	0.01890
2505.96344	0.01887
2504.67767	0.01885
2503.39191	0.01866
2502.10614	0.01832
2500.82037	0.01800
2499.53460	0.01788
2498.24883	0.01799
2496.96306	0.01828
2495.67729	0.01863
2494.39152	0.01891
2493.10576	0.01899
2491.81999	0.01892
2490.53422	0.01886
2489.24845	0.01891
2487.96268	0.01901
2486.67691	0.01898
2485.39114	0.01880
2484.10537	0.01857
2482.81960	0.01839
2481.53384	0.01828
2480.24807	0.01817
2478.96230	0.01802
2477.67653	0.01783
2476.39076	0.01766
2475.10499	0.01759
2473.81922	0.01757
2472.53345	0.01760
2471.24769	0.01768
2469.96192	0.01786
2468.67615	0.01806
2467.39038	0.01818
2466.10461	0.01809
2464.81884	0.01779
2463.53307	0.01743
2462.24730	0.01726
2460.96153	0.01739
2459.67577	0.01759
2458.39000	0.01761
2457.10423	0.01753
2455.81846	0.01762
2454.53269	0.01795
2453.24692	0.01824
2451.96115	0.01818
2450.67538	0.01779
2449.38962	0.01742
2448.10385	0.01731
2446.81808	0.01737
2445.53231	0.01741
2444.24654	0.01739
2442.96077	0.01741
2441.67500	0.01745
2440.38923	0.01740
2439.10346	0.01726
2437.81770	0.01713
2436.53193	0.01708
2435.24616	0.01712
2433.96039	0.01723
2432.67462	0.01736
2431.38885	0.01746
2430.10308	0.01749
2428.81731	0.01745
2427.53155	0.01740
2426.24578	0.01744
2424.96001	0.01759
2423.67424	0.01777
2422.38847	0.01784
2421.10270	0.01778
2419.81693	0.01762
2418.53116	0.01747
2417.24539	0.01744
2415.95963	0.01757
2414.67386	0.01777
2413.38809	0.01786
2412.10232	0.01779
2410.81655	0.01766
2409.53078	0.01762
2408.24501	0.01773
2406.95924	0.01798
2405.67347	0.01827
2404.38771	0.01844
2403.10194	0.01837
2401.81617	0.01809
2400.53040	0.01785
2399.24463	0.01766
2397.95886	0.01809
2396.67309	0.01855
2395.38732	0.01873
2394.10156	0.01870
2392.81579	0.01866
2391.53002	0.01874
2390.24425	0.01887
2388.95848	0.01892
2387.67271	0.01879
2386.38694	0.01853
2385.10117	0.01824
2383.81540	0.01799
2382.52964	0.01776
2381.24387	0.01754
2379.95810	0.01738
2378.67233	0.01730
2377.38656	0.01725
2376.10079	0.01713
2374.81502	0.01691
2373.52925	0.01668
2372.24349	0.01654
2370.95772	0.01662
2369.67195	0.01699
2368.38618	0.01761
2367.10041	0.01828
2365.81464	0.01880
2364.52887	0.01907
2363.24310	0.01914
2361.95733	0.01918
2360.67157	0.01933
2359.38580	0.01963
2358.10003	0.02003
2356.81426	0.02042
2355.52849	0.02067
2354.24272	0.02070
2352.95695	0.02049
2351.67118	0.02004
2350.38542	0.01937
2349.09965	0.01857
2347.81388	0.01782
2346.52811	0.01732
2345.24234	0.01713
2343.95657	0.01715
2342.67080	0.01733
2341.38503	0.01769
2340.09926	0.01821
2338.81350	0.01875
2337.52773	0.01912
2336.24196	0.01926
2334.95619	0.01924
2333.67042	0.01913
2332.38465	0.01897
2331.09888	0.01881
2329.81311	0.01877
2328.52735	0.01888
2327.24158	0.01906
2325.95581	0.01914
2324.67004	0.01900
2323.38427	0.01867
2322.09850	0.01824
2320.81273	0.01783
2319.52696	0.01752
2318.24119	0.01733
2316.95543	0.01717
2315.66966	0.01695
2314.38389	0.01666
2313.09812	0.01636
2311.81235	0.01614
2310.52658	0.01599
2309.24081	0.01589
2307.95504	0.01583
2306.66928	0.01582
2305.38351	0.01583
2304.09774	0.01587
2302.81197	0.01596
2301.52620	0.01606
2300.24043	0.01599
2298.95466	0.01571
2297.66889	0.01540
2296.38312	0.01531
2295.09736	0.01548
2293.81159	0.01565
2292.52582	0.01558
2291.24005	0.01524
2289.95428	0.01479
2288.66851	0.01439
2287.38274	0.01415
2286.09697	0.01408
2284.81121	0.01415
2283.52544	0.01427
2282.23967	0.01438
2280.95390	0.01447
2279.66813	0.01454
2278.38236	0.01453
2277.09659	0.01432
2275.81082	0.01390
2274.52505	0.01347
2273.23929	0.01325
2271.95352	0.01326
2270.66775	0.01329
2269.38198	0.01319
2268.09621	0.01296
2266.81044	0.01280
2265.52467	0.01290
2264.23890	0.01330
2262.95314	0.01372
2261.66737	0.01383
2260.38160	0.01345
2259.09583	0.01276
2257.81006	0.01209
2256.52429	0.01171
2255.23852	0.01166
2253.95275	0.01184
2252.66698	0.01217
2251.38122	0.01259
2250.09545	0.01284
2248.80968	0.01249
2247.52391	0.01227
2246.23814	0.01178
2244.95237	0.01106
2243.66660	0.01044
2242.38083	0.01025
2241.09507	0.01053
2239.80930	0.01104
2238.52353	0.01150
2237.23776	0.01173
2235.95199	0.01165
2234.66622	0.01132
2233.38045	0.01084
2232.09468	0.01024
2230.80891	0.00948
2229.52315	0.00871
2228.23738	0.00827
2226.95161	0.00832
2225.66584	0.00852
2224.38007	0.00843
2223.09430	0.00798
2221.80853	0.00753
2220.52276	0.00740
2219.23700	0.00753
2217.95123	0.00775
2216.66546	0.00811
2215.37969	0.00877
2214.09392	0.00960
2212.80815	0.01015
2211.52238	0.01015
2210.23661	0.00990
2208.95084	0.00992
2207.66508	0.01027
2206.37931	0.01047
2205.09354	0.01013
2203.80777	0.00953
2202.52200	0.00924
2201.23623	0.00944
2199.95046	0.00981
2198.66469	0.00995
2197.37893	0.00974
2196.09316	0.00927
2194.80739	0.00868
2193.52162	0.00813
2192.23585	0.00778
2190.95008	0.00769
2189.66431	0.00777
2188.37854	0.00773
2187.09277	0.00738
2185.80701	0.00698
2184.52124	0.00691
2183.23547	0.00713
2181.94970	0.00726
2180.66393	0.00726
2179.37816	0.00755
2178.09239	0.00829
2176.80662	0.00900
2175.52085	0.00912
2174.23509	0.00873
2172.94932	0.00833
2171.66355	0.00817
2170.37778	0.00810
2169.09201	0.00779
2167.80624	0.00706
2166.52047	0.00593
2165.23470	0.00475
2163.94894	0.00401
2162.66317	0.00394
2161.37740	0.00417
2160.09163	0.00420
2158.80586	0.00408
2157.52009	0.00420
2156.23432	0.00455
2154.94855	0.00463
2153.66278	0.00415
2152.37702	0.00348
2151.09125	0.00332
2149.80548	0.00403
2148.51971	0.00526
2147.23394	0.00627
2145.94817	0.00667
2144.66240	0.00673
2143.37663	0.00690
2142.09087	0.00723
2140.80510	0.00748
2139.51933	0.00750
2138.23356	0.00739
2136.94779	0.00732
2135.66202	0.00747
2134.37625	0.00806
2133.09048	0.00907
2131.80471	0.01020
2130.51895	0.01109
2129.23318	0.01146
2127.94741	0.01112
2126.66164	0.01022
2125.37587	0.00918
2124.09010	0.00848
2122.80433	0.00825
2121.51856	0.00832
2120.23280	0.00852
2118.94703	0.00875
2117.66126	0.00885
2116.37549	0.00874
2115.08972	0.00860
2113.80395	0.00868
2112.51818	0.00887
2111.23241	0.00884
2109.94664	0.00846
2108.66088	0.00813
2107.37511	0.00825
2106.08934	0.00872
2104.80357	0.00905
2103.51780	0.00891
2102.23203	0.00836
2100.94626	0.00763
2099.66049	0.00754
2098.37473	0.00725
2097.08896	0.00710
2095.80319	0.00730
2094.51742	0.00764
2093.23165	0.00798
2091.94588	0.00832
2090.66011	0.00868
2089.37434	0.00895
2088.08857	0.00900
2086.80281	0.00877
2085.51704	0.00835
2084.23127	0.00784
2082.94550	0.00736
2081.65973	0.00700
2080.37396	0.00688
2079.08819	0.00701
2077.80242	0.00737
2076.51666	0.00786
2075.23089	0.00833
2073.94512	0.00861
2072.65935	0.00856
2071.37358	0.00821
2070.08781	0.00776
2068.80204	0.00741
2067.51627	0.00725
2066.23050	0.00719
2064.94474	0.00711
2063.65897	0.00699
2062.37320	0.00687
2061.08743	0.00673
2059.80166	0.00638
2058.51589	0.00567
2057.23012	0.00473
2055.94435	0.00386
2054.65859	0.00327
2053.37282	0.00297
2052.08705	0.00285
2050.80128	0.00280
2049.51551	0.00269
2048.22974	0.00239
2046.94397	0.00201
2045.65820	0.00191
2044.37243	0.00230
2043.08667	0.00291
2041.80090	0.00321
2040.51513	0.00295
2039.22936	0.00225
2037.94359	0.00142
2036.65782	0.00088
2035.37205	0.00103
2034.08628	0.00192
2032.80052	0.00316
2031.51475	0.00417
2030.22898	0.00471
2028.94321	0.00491
2027.65744	0.00499
2026.37167	0.00502
2025.08590	0.00491
2023.80013	0.00452
2022.51436	0.00377
2021.22860	0.00275
2019.94283	0.00170
2018.65706	0.00089
2017.37129	0.00050
2016.08552	0.00060
2014.79975	0.00104
2013.51398	0.00169
2012.22821	0.00249
2010.94245	0.00348
2009.65668	0.00442
2008.37091	0.00486
2007.08514	0.00459
2005.79937	0.00396
2004.51360	0.00352
2003.22783	0.00352
2001.94206	0.00377
2000.65629	0.00406
1999.37053	0.00441
1998.08476	0.00494
1996.79899	0.00563
1995.51322	0.00632
1994.22745	0.00685
1992.94168	0.00717
1991.65591	0.00724
1990.37014	0.00702
1989.08438	0.00650
1987.79861	0.00577
1986.51284	0.00501
1985.22707	0.00454
1983.94130	0.00473
1982.65553	0.00577
1981.36976	0.00730
1980.08399	0.00867
1978.79822	0.00951
1977.51246	0.00998
1976.22669	0.01046
1974.94092	0.01090
1973.65515	0.01081
1972.36938	0.00982
1971.08361	0.00819
1969.79784	0.00671
1968.51207	0.00615
1967.22631	0.00672
1965.94054	0.00791
1964.65477	0.00883
1963.36900	0.00884
1962.08323	0.00800
1960.79746	0.00697
1959.51169	0.00642
1958.22592	0.00651
1956.94015	0.00694
1955.65439	0.00743
1954.36862	0.00785
1953.08285	0.00806
1951.79708	0.00788
1950.51131	0.00738
1949.22554	0.00697
1947.93977	0.00706
1946.65400	0.00762
1945.36823	0.00824
1944.08247	0.00866
1942.79670	0.00901
1941.51093	0.00952
1940.22516	0.01014
1938.93939	0.01060
1937.65362	0.01066
1936.36785	0.01033
1935.08208	0.00976
1933.79632	0.00918
1932.51055	0.00879
1931.22478	0.00875
1929.93901	0.00910
1928.65324	0.00970
1927.36747	0.01031
1926.08170	0.01063
1924.79593	0.01053
1923.51016	0.01012
1922.22440	0.00962
1920.93863	0.00918
1919.65286	0.00891
1918.36709	0.00889
1917.08132	0.00917
1915.79555	0.00971
1914.50978	0.01034
1913.22401	0.01082
1911.93825	0.01099
1910.65248	0.01091
1909.36671	0.01075
1908.08094	0.01063
1906.79517	0.01057
1905.50940	0.01056
1904.22363	0.01064
1902.93786	0.01082
1901.65209	0.01099
1900.36633	0.01104
1899.08056	0.01096
1897.79479	0.01083
1896.50902	0.01072
1895.22325	0.01063
1893.93748	0.01050
1892.65171	0.01031
1891.36594	0.01018
1890.08018	0.01024
1888.79441	0.01043
1887.50864	0.01054
1886.22287	0.01037
1884.93710	0.00997
1883.65133	0.00955
1882.36556	0.00934
1881.07979	0.00948
1879.79402	0.00991
1878.50826	0.01041
1877.22249	0.01076
1875.93672	0.01081
1874.65095	0.01062
1873.36518	0.01039
1872.07941	0.01034
1870.79364	0.01051
1869.50787	0.01078
1868.22211	0.01098
1866.93634	0.01104
1865.65057	0.01107
1864.36480	0.01114
1863.07903	0.01124
1861.79326	0.01126
1860.50749	0.01114
1859.22172	0.01093
1857.93595	0.01069
1856.65019	0.01048
1855.36442	0.01037
1854.07865	0.01040
1852.79288	0.01057
1851.50711	0.01082
1850.22134	0.01105
1848.93557	0.01118
1847.64980	0.01115
1846.36404	0.01102
1845.07827	0.01087
1843.79250	0.01078
1842.50673	0.01074
1841.22096	0.01070
1839.93519	0.01065
1838.64942	0.01062
1837.36365	0.01060
1836.07788	0.01063
1834.79212	0.01070
1833.50635	0.01084
1832.22058	0.01102
1830.93481	0.01118
1829.64904	0.01123
1828.36327	0.01119
1827.07750	0.01120
1825.79173	0.01132
1824.50597	0.01152
1823.22020	0.01164
1821.93443	0.01161
1820.64866	0.01153
1819.36289	0.01151
1818.07712	0.01157
1816.79135	0.01157
1815.50558	0.01143
1814.21981	0.01119
1812.93405	0.01097
1811.64828	0.01082
1810.36251	0.01074
1809.07674	0.01071
1807.79097	0.01073
1806.50520	0.01082
1805.21943	0.01096
1803.93366	0.01109
1802.64790	0.01118
1801.36213	0.01119
1800.07636	0.01111
1798.79059	0.01097
1797.50482	0.01081
1796.21905	0.01072
1794.93328	0.01073
1793.64751	0.01082
1792.36174	0.01090
1791.07598	0.01092
1789.79021	0.01090
1788.50444	0.01092
1787.21867	0.01103
1785.93290	0.01115
1784.64713	0.01121
1783.36136	0.01122
1782.07559	0.01126
1780.78983	0.01136
1779.50406	0.01147
1778.21829	0.01152
1776.93252	0.01152
1775.64675	0.01155
1774.36098	0.01164
1773.07521	0.01176
1771.78944	0.01183
1770.50367	0.01183
1769.21791	0.01178
1767.93214	0.01174
1766.64637	0.01174
1765.36060	0.01173
1764.07483	0.01172
1762.78906	0.01171
1761.50329	0.01170
1760.21752	0.01163
1758.93176	0.01151
1757.64599	0.01137
1756.36022	0.01124
1755.07445	0.01110
1753.78868	0.01094
1752.50291	0.01076
1751.21714	0.01061
1749.93137	0.01047
1748.64560	0.01030
1747.35984	0.01003
1746.07407	0.00967
1744.78830	0.00929
1743.50253	0.00899
1742.21676	0.00883
1740.93099	0.00879
1739.64522	0.00883
1738.35945	0.00895
1737.07369	0.00920
1735.78792	0.00959
1734.50215	0.01004
1733.21638	0.01041
1731.93061	0.01060
1730.64484	0.01064
1729.35907	0.01065
1728.07330	0.01074
1726.78753	0.01095
1725.50177	0.01124
1724.21600	0.01156
1722.93023	0.01185
1721.64446	0.01213
1720.35869	0.01246
1719.07292	0.01284
1717.78715	0.01325
1716.50138	0.01360
1715.21561	0.01382
1713.92985	0.01394
1712.64408	0.01404
1711.35831	0.01420
1710.07254	0.01446
1708.78677	0.01481
1707.50100	0.01523
1706.21523	0.01565
1704.92946	0.01603
1703.64370	0.01642
1702.35793	0.01688
1701.07216	0.01742
1699.78639	0.01796
1698.50062	0.01841
1697.21485	0.01876
1695.92908	0.01903
1694.64331	0.01921
1693.35754	0.01932
1692.07178	0.01943
1690.78601	0.01961
1689.50024	0.01990
1688.21447	0.02028
1686.92870	0.02073
1685.64293	0.02124
1684.35716	0.02171
1683.07139	0.02205
1681.78563	0.02226
1680.49986	0.02243
1679.21409	0.02269
1677.92832	0.02307
1676.64255	0.02351
1675.35678	0.02389
1674.07101	0.02420
1672.78524	0.02450
1671.49947	0.02484
1670.21371	0.02521
1668.92794	0.02554
1667.64217	0.02580
1666.35640	0.02605
1665.07063	0.02631
1663.78486	0.02659
1662.49909	0.02683
1661.21332	0.02701
1659.92756	0.02716
1658.64179	0.02734
1657.35602	0.02759
1656.07025	0.02796
1654.78448	0.02846
1653.49871	0.02898
1652.21294	0.02936
1650.92717	0.02948
1649.64140	0.02945
1648.35564	0.02947
1647.06987	0.02963
1645.78410	0.02983
1644.49833	0.02994
1643.21256	0.02994
1641.92679	0.02989
1640.64102	0.02988
1639.35525	0.02995
1638.06949	0.03012
1636.78372	0.03035
1635.49795	0.03056
1634.21218	0.03067
1632.92641	0.03070
1631.64064	0.03072
1630.35487	0.03080
1629.06910	0.03093
1627.78333	0.03106
1626.49757	0.03119
1625.21180	0.03132
1623.92603	0.03146
1622.64026	0.03160
1621.35449	0.03173
1620.06872	0.03186
1618.78295	0.03205
1617.49718	0.03231
1616.21142	0.03257
1614.92565	0.03278
1613.63988	0.03294
1612.35411	0.03309
1611.06834	0.03327
1609.78257	0.03350
1608.49680	0.03375
1607.21103	0.03399
1605.92526	0.03419
1604.63950	0.03432
1603.35373	0.03440
1602.06796	0.03449
1600.78219	0.03465
1599.49642	0.03487
1598.21065	0.03512
1596.92488	0.03537
1595.63911	0.03561
1594.35335	0.03588
1593.06758	0.03622
1591.78181	0.03659
1590.49604	0.03692
1589.21027	0.03714
1587.92450	0.03727
1586.63873	0.03738
1585.35296	0.03753
1584.06719	0.03772
1582.78143	0.03790
1581.49566	0.03807
1580.20989	0.03825
1578.92412	0.03849
1577.63835	0.03882
1576.35258	0.03920
1575.06681	0.03953
1573.78104	0.03975
1572.49528	0.03990
1571.20951	0.04004
1569.92374	0.04019
1568.63797	0.04030
1567.35220	0.04037
1566.06643	0.04037
1564.78066	0.04035
1563.49489	0.04035
1562.20912	0.04046
1560.92336	0.04071
1559.63759	0.04105
1558.35182	0.04129
1557.06605	0.04133
1555.78028	0.04119
1554.49451	0.04098
1553.20874	0.04078
1551.92297	0.04059
1550.63721	0.04041
1549.35144	0.04023
1548.06567	0.04005
1546.77990	0.03984
1545.49413	0.03960
1544.20836	0.03932
1542.92259	0.03903
1541.63682	0.03875
1540.35105	0.03847
1539.06529	0.03813
1537.77952	0.03772
1536.49375	0.03731
1535.20798	0.03695
1533.92221	0.03667
1532.63644	0.03641
1531.35067	0.03615
1530.06490	0.03596
1528.77914	0.03592
1527.49337	0.03603
1526.20760	0.03623
1524.92183	0.03645
1523.63606	0.03666
1522.35029	0.03691
1521.06452	0.03720
1519.77875	0.03751
1518.49298	0.03783
1517.20722	0.03817
1515.92145	0.03854
1514.63568	0.03895
1513.34991	0.03940
1512.06414	0.03987
1510.77837	0.04040
1509.49260	0.04102
1508.20683	0.04176
1506.92107	0.04256
1505.63530	0.04328
1504.34953	0.04383
1503.06376	0.04420
1501.77799	0.04452
1500.49222	0.04486
1499.20645	0.04525
1497.92068	0.04561
1496.63491	0.04590
1495.34915	0.04613
1494.06338	0.04636
1492.77761	0.04664
1491.49184	0.04699
1490.20607	0.04739
1488.92030	0.04779
1487.63453	0.04817
1486.34876	0.04854
1485.06299	0.04895
1483.77723	0.04944
1482.49146	0.05000
1481.20569	0.05056
1479.91992	0.05110
1478.63415	0.05162
1477.34838	0.05212
1476.06261	0.05262
1474.77684	0.05309
1473.49108	0.05350
1472.20531	0.05383
1470.91954	0.05407
1469.63377	0.05426
1468.34800	0.05447
1467.06223	0.05475
1465.77646	0.05510
1464.49069	0.05545
1463.20492	0.05576
1461.91916	0.05603
1460.63339	0.05635
1459.34762	0.05682
1458.06185	0.05746
1456.77608	0.05815
1455.49031	0.05878
1454.20454	0.05924
1452.91877	0.05955
1451.63301	0.05976
1450.34724	0.05990
1449.06147	0.06003
1447.77570	0.06013
1446.48993	0.06022
1445.20416	0.06028
1443.91839	0.06032
1442.63262	0.06038
1441.34685	0.06047
1440.06109	0.06062
1438.77532	0.06083
1437.48955	0.06106
1436.20378	0.06128
1434.91801	0.06151
1433.63224	0.06177
1432.34647	0.06215
1431.06070	0.06267
1429.77494	0.06333
1428.48917	0.06408
1427.20340	0.06489
1425.91763	0.06572
1424.63186	0.06657
1423.34609	0.06742
1422.06032	0.06824
1420.77455	0.06898
1419.48878	0.06960
1418.20302	0.07007
1416.91725	0.07043
1415.63148	0.07072
1414.34571	0.07099
1413.05994	0.07120
1411.77417	0.07124
1410.48840	0.07106
1409.20263	0.07068
1407.91687	0.07017
1406.63110	0.06960
1405.34533	0.06897
1404.05956	0.06822
1402.77379	0.06735
1401.48802	0.06641
1400.20225	0.06543
1398.91648	0.06441
1397.63071	0.06329
1396.34495	0.06208
1395.05918	0.06081
1393.77341	0.05951
1392.48764	0.05821
1391.20187	0.05696
1389.91610	0.05577
1388.63033	0.05465
1387.34456	0.05353
1386.05880	0.05241
1384.77303	0.05127
1383.48726	0.05013
1382.20149	0.04899
1380.91572	0.04784
1379.62995	0.04668
1378.34418	0.04552
1377.05841	0.04438
1375.77264	0.04330
1374.48688	0.04225
1373.20111	0.04122
1371.91534	0.04016
1370.62957	0.03908
1369.34380	0.03804
1368.05803	0.03707
1366.77226	0.03618
1365.48649	0.03533
1364.20073	0.03452
1362.91496	0.03374
1361.62919	0.03300
1360.34342	0.03230
1359.05765	0.03164
1357.77188	0.03102
1356.48611	0.03044
1355.20034	0.02990
1353.91457	0.02940
1352.62881	0.02892
1351.34304	0.02847
1350.05727	0.02804
1348.77150	0.02762
1347.48573	0.02722
1346.19996	0.02683
1344.91419	0.02646
1343.62842	0.02613
1342.34266	0.02582
1341.05689	0.02552
1339.77112	0.02518
1338.48535	0.02481
1337.19958	0.02443
1335.91381	0.02408
1334.62804	0.02377
1333.34227	0.02349
1332.05650	0.02325
1330.77074	0.02301
1329.48497	0.02277
1328.19920	0.02253
1326.91343	0.02231
1325.62766	0.02209
1324.34189	0.02187
1323.05612	0.02166
1321.77035	0.02145
1320.48459	0.02128
1319.19882	0.02112
1317.91305	0.02097
1316.62728	0.02080
1315.34151	0.02061
1314.05574	0.02039
1312.76997	0.02018
1311.48420	0.01997
1310.19843	0.01978
1308.91267	0.01963
1307.62690	0.01952
1306.34113	0.01942
1305.05536	0.01930
1303.76959	0.01913
1302.48382	0.01895
1301.19805	0.01879
1299.91228	0.01869
1298.62652	0.01861
1297.34075	0.01853
1296.05498	0.01846
1294.76921	0.01839
1293.48344	0.01829
1292.19767	0.01820
1290.91190	0.01813
1289.62613	0.01807
1288.34036	0.01801
1287.05460	0.01791
1285.76883	0.01778
1284.48306	0.01765
1283.19729	0.01758
1281.91152	0.01753
1280.62575	0.01747
1279.33998	0.01736
1278.05421	0.01723
1276.76845	0.01710
1275.48268	0.01702
1274.19691	0.01700
1272.91114	0.01700
1271.62537	0.01695
1270.33960	0.01680
1269.05383	0.01656
1267.76806	0.01631
1266.48229	0.01614
1265.19653	0.01606
1263.91076	0.01604
1262.62499	0.01600
1261.33922	0.01593
1260.05345	0.01585
1258.76768	0.01577
1257.48191	0.01571
1256.19614	0.01565
1254.91037	0.01561
1253.62461	0.01555
1252.33884	0.01549
1251.05307	0.01543
1249.76730	0.01540
1248.48153	0.01541
1247.19576	0.01544
1245.90999	0.01544
1244.62422	0.01541
1243.33846	0.01536
1242.05269	0.01530
1240.76692	0.01524
1239.48115	0.01517
1238.19538	0.01512
1236.90961	0.01508
1235.62384	0.01503
1234.33807	0.01496
1233.05230	0.01489
1231.76654	0.01482
1230.48077	0.01476
1229.19500	0.01469
1227.90923	0.01462
1226.62346	0.01453
1225.33769	0.01445
1224.05192	0.01438
1222.76615	0.01434
1221.48039	0.01430
1220.19462	0.01427
1218.90885	0.01422
1217.62308	0.01416
1216.33731	0.01411
1215.05154	0.01406
1213.76577	0.01403
1212.48000	0.01400
1211.19423	0.01397
1209.90847	0.01393
1208.62270	0.01391
1207.33693	0.01388
1206.05116	0.01386
1204.76539	0.01383
1203.47962	0.01379
1202.19385	0.01375
1200.90808	0.01370
1199.62232	0.01354
1198.33655	0.01355
1197.05078	0.01358
1195.76501	0.01362
1194.47924	0.01363
1193.19347	0.01362
1191.90770	0.01359
1190.62193	0.01354
1189.33616	0.01345
1188.05040	0.01336
1186.76463	0.01326
1185.47886	0.01318
1184.19309	0.01313
1182.90732	0.01307
1181.62155	0.01302
1180.33578	0.01296
1179.05001	0.01293
1177.76425	0.01296
1176.47848	0.01306
1175.19271	0.01319
1173.90694	0.01332
1172.62117	0.01342
1171.33540	0.01351
1170.04963	0.01362
1168.76386	0.01376
1167.47809	0.01393
1166.19233	0.01410
1164.90656	0.01427
1163.62079	0.01445
1162.33502	0.01464
1161.04925	0.01483
1159.76348	0.01501
1158.47771	0.01517
1157.19194	0.01535
1155.90618	0.01555
1154.62041	0.01582
1153.33464	0.01614
1152.04887	0.01647
1150.76310	0.01677
1149.47733	0.01704
1148.19156	0.01732
1146.90579	0.01766
1145.62002	0.01809
1144.33426	0.01861
1143.04849	0.01922
1141.76272	0.01989
1140.47695	0.02061
1139.19118	0.02138
1137.90541	0.02220
1136.61964	0.02310
1135.33387	0.02410
1134.04811	0.02523
1132.76234	0.02650
1131.47657	0.02789
1130.19080	0.02941
1128.90503	0.03108
1127.61926	0.03293
1126.33349	0.03495
1125.04772	0.03711
1123.76195	0.03935
1122.47619	0.04166
1121.19042	0.04398
1119.90465	0.04631
1118.61888	0.04867
1117.33311	0.05108
1116.04734	0.05355
1114.76157	0.05605
1113.47580	0.05852
1112.19004	0.06093
1110.90427	0.06323
1109.61850	0.06542
1108.33273	0.06753
1107.04696	0.06958
1105.76119	0.07158
1104.47542	0.07353
1103.18965	0.07544
1101.90388	0.07733
1100.61812	0.07917
1099.33235	0.08094
1098.04658	0.08263
1096.76081	0.08423
1095.47504	0.08572
1094.18927	0.08708
1092.90350	0.08831
1091.61773	0.08945
1090.33197	0.09051
1089.04620	0.09152
1087.76043	0.09253
1086.47466	0.09363
1085.18889	0.09487
1083.90312	0.09622
1082.61735	0.09759
1081.33158	0.09897
1080.04581	0.10041
1078.76005	0.10201
1077.47428	0.10376
1076.18851	0.10561
1074.90274	0.10753
1073.61697	0.10948
1072.33120	0.11147
1071.04543	0.11347
1069.75966	0.11549
1068.47390	0.11752
1067.18813	0.11959
1065.90236	0.12171
1064.61659	0.12386
1063.33082	0.12600
1062.04505	0.12808
1060.75928	0.13011
1059.47351	0.13214
1058.18774	0.13419
1056.90198	0.13620
1055.61621	0.13814
1054.33044	0.14001
1053.04467	0.14188
1051.75890	0.14383
1050.47313	0.14588
1049.18736	0.14800
1047.90159	0.15016
1046.61583	0.15236
1045.33006	0.15458
1044.04429	0.15679
1042.75852	0.15897
1041.47275	0.16112
1040.18698	0.16329
1038.90121	0.16549
1037.61544	0.16769
1036.32967	0.16982
1035.04391	0.17181
1033.75814	0.17363
1032.47237	0.17531
1031.18660	0.17687
1029.90083	0.17827
1028.61506	0.17940
1027.32929	0.18021
1026.04352	0.18072
1024.75775	0.18102
1023.47199	0.18112
1022.18622	0.18101
1020.90045	0.18063
1019.61468	0.17992
1018.32891	0.17889
1017.04314	0.17753
1015.75737	0.17589
1014.47160	0.17396
1013.18584	0.17178
1011.90007	0.16940
1010.61430	0.16685
1009.32853	0.16411
1008.04276	0.16110
1006.75699	0.15777
1005.47122	0.15412
1004.18545	0.15025
1002.89968	0.14628
1001.61392	0.14229
1000.32815	0.13828
999.04238	0.13419
997.75661	0.12993
996.47084	0.12553
995.18507	0.12110
993.89930	0.11677
992.61353	0.11257
991.32777	0.10845
990.04200	0.10440
988.75623	0.10047
987.47046	0.09673
986.18469	0.09319
984.89892	0.08980
983.61315	0.08650
982.32738	0.08331
981.04161	0.08026
979.75585	0.07744
978.47008	0.07492
977.18431	0.07270
975.89854	0.07072
974.61277	0.06895
973.32700	0.06742
972.04123	0.06622
970.75546	0.06538
969.46970	0.06491
968.18393	0.06477
966.89816	0.06494
965.61239	0.06536
964.32662	0.06590
963.04085	0.06641
961.75508	0.06670
960.46931	0.06666
959.18354	0.06620
957.89778	0.06535
956.61201	0.06421
955.32624	0.06293
954.04047	0.06159
952.75470	0.06019
951.46893	0.05874
950.18316	0.05724
948.89739	0.05576
947.61163	0.05436
946.32586	0.05304
945.04009	0.05178
943.75432	0.05056
942.46855	0.04940
941.18278	0.04827
939.89701	0.04716
938.61124	0.04608
937.32547	0.04509
936.03971	0.04417
934.75394	0.04327
933.46817	0.04235
932.18240	0.04143
930.89663	0.04057
929.61086	0.03979
928.32509	0.03910
927.03932	0.03849
925.75356	0.03795
924.46779	0.03748
923.18202	0.03706
921.89625	0.03669
920.61048	0.03634
919.32471	0.03600
918.03894	0.03565
916.75317	0.03531
915.46740	0.03496
914.18164	0.03458
912.89587	0.03414
911.61010	0.03371
910.32433	0.03338
909.03856	0.03317
907.75279	0.03302
906.46702	0.03285
905.18125	0.03262
903.89549	0.03236
902.60972	0.03212
901.32395	0.03186
900.03818	0.03156
898.75241	0.03122
897.46664	0.03087
896.18087	0.03056
894.89510	0.03034
893.60933	0.03019
892.32357	0.03011
891.03780	0.03013
889.75203	0.03028
888.46626	0.03060
887.18049	0.03107
885.89472	0.03175
884.60895	0.03273
883.32318	0.03412
882.03742	0.03581
880.75165	0.03753
879.46588	0.03896
878.18011	0.04001
876.89434	0.04086
875.60857	0.04178
874.32280	0.04283
873.03703	0.04380
871.75126	0.04437
870.46550	0.04438
869.17973	0.04386
867.89396	0.04294
866.60819	0.04176
865.32242	0.04045
864.03665	0.03906
862.75088	0.03764
861.46511	0.03629
860.17935	0.03510
858.89358	0.03409
857.60781	0.03327
856.32204	0.03261
855.03627	0.03207
853.75050	0.03157
852.46473	0.03113
851.17896	0.03080
849.89319	0.03063
848.60743	0.03053
847.32166	0.03036
846.03589	0.03007
844.75012	0.02976
843.46435	0.02951
842.17858	0.02932
840.89281	0.02913
839.60704	0.02893
838.32128	0.02874
837.03551	0.02855
835.74974	0.02838
834.46397	0.02824
833.17820	0.02813
831.89243	0.02805
830.60666	0.02800
829.32089	0.02798
828.03512	0.02800
826.74936	0.02800
825.46359	0.02795
824.17782	0.02787
822.89205	0.02780
821.60628	0.02772
820.32051	0.02763
819.03474	0.02753
817.74897	0.02749
816.46321	0.02752
815.17744	0.02762
813.89167	0.02772
812.60590	0.02779
811.32013	0.02780
810.03436	0.02778
808.74859	0.02774
807.46282	0.02765
806.17705	0.02750
804.89129	0.02734
803.60552	0.02723
802.31975	0.02720
801.03398	0.02721
799.74821	0.02719
798.46244	0.02714
797.17667	0.02711
795.89090	0.02712
794.60513	0.02714
793.31937	0.02712
792.03360	0.02709
790.74783	0.02710
789.46206	0.02715
788.17629	0.02718
786.89052	0.02715
785.60475	0.02705
784.31898	0.02690
783.03322	0.02677
781.74745	0.02671
780.46168	0.02674
779.17591	0.02682
777.89014	0.02691
776.60437	0.02702
775.31860	0.02711
774.03283	0.02714
772.74706	0.02709
771.46130	0.02702
770.17553	0.02698
768.88976	0.02694
767.60399	0.02688
766.31822	0.02685
765.03245	0.02693
763.74668	0.02712
762.46091	0.02733
761.17515	0.02747
759.88938	0.02752
758.60361	0.02754
757.31784	0.02756
756.03207	0.02758
754.74630	0.02759
753.46053	0.02757
752.17476	0.02751
750.88899	0.02743
749.60323	0.02735
748.31746	0.02726
747.03169	0.02713
745.74592	0.02698
744.46015	0.02685
743.17438	0.02679
741.88861	0.02679
740.60284	0.02682
739.31708	0.02684
738.03131	0.02681
736.74554	0.02673
735.45977	0.02669
734.17400	0.02678
732.88823	0.02697
731.60246	0.02712
730.31669	0.02714
729.03092	0.02703
727.74516	0.02691
726.45939	0.02689
725.17362	0.02696
723.88785	0.02700
722.60208	0.02703
721.31631	0.02691
720.03054	0.02672
718.74477	0.02656
717.45901	0.02653
716.17324	0.02661
714.88747	0.02675
713.60170	0.02686
712.31593	0.02689
711.03016	0.02684
709.74439	0.02676
708.45862	0.02667
707.17285	0.02659
705.88709	0.02654
704.60132	0.02652
703.31555	0.02653
702.02978	0.02655
700.74401	0.02656
699.45824	0.02655
698.17247	0.02650
696.88670	0.02643
695.60094	0.02635
694.31517	0.02629
693.02940	0.02622
691.74363	0.02617
690.45786	0.02617
689.17209	0.02627
687.88632	0.02643
686.60055	0.02658
685.31478	0.02663
684.02902	0.02659
682.74325	0.02648
681.45748	0.02636
680.17171	0.02628
678.88594	0.02623
677.60017	0.02621
676.31440	0.02623
675.02863	0.02631
673.74287	0.02645
672.45710	0.02664
671.17133	0.02683
669.88556	0.02702
668.59979	0.02721
667.31402	0.02736
666.02825	0.02742
664.74248	0.02736
663.45671	0.02720
662.17095	0.02699
660.88518	0.02677
659.59941	0.02654
658.31364	0.02629
657.02787	0.02606
655.74210	0.02588
654.45633	0.02578
653.17056	0.02575
651.88480	0.02574
650.59903	0.02573
649.31326	0.02572
648.02749	0.02568
646.74172	0.02561
645.45595	0.02549
644.17018	0.02538
642.88441	0.02531
641.59864	0.02533
640.31288	0.02544
639.02711	0.02560
637.74134	0.02577
636.45557	0.02594
635.16980	0.02611
633.88403	0.02627
632.59826	0.02639
631.31249	0.02670
630.02673	0.02763
628.74096	0.02832
627.45519	0.02743
626.16942	0.02824
624.88365	0.03043
623.59788	0.03309
622.31211	0.03589
621.02634	0.03847
619.74057	0.04056
618.45481	0.04233
617.16904	0.04421
615.88327	0.04637
614.59750	0.04870
613.31173	0.05124
612.02596	0.05448
610.74019	0.05892
609.45442	0.06408
608.16866	0.06858
606.88289	0.07162
605.59712	0.07375
604.31135	0.07572
603.02558	0.07726
601.73981	0.07758
600.45404	0.07647
599.16827	0.07453
597.88250	0.07232
596.59674	0.07005
595.31097	0.06772
594.02520	0.06548
592.73943	0.06362
591.45366	0.06238
590.16789	0.06183
588.88212	0.06190
587.59635	0.06246
586.31059	0.06337
585.02482	0.06445
583.73905	0.06562
582.45328	0.06688
581.16751	0.06828
579.88174	0.06981
578.59597	0.07146
577.31020	0.07317
576.02443	0.07490
574.73867	0.07663
573.45290	0.07837
572.16713	0.08015
570.88136	0.08203
569.59559	0.08404
568.30982	0.08623
567.02405	0.08861
565.73828	0.09104
564.45251	0.09318
563.16675	0.09462
561.88098	0.09510
560.59521	0.09448
559.30944	0.09277
558.02367	0.09006
556.73790	0.08653
555.45213	0.08251
554.16636	0.07833
552.88060	0.07427
551.59483	0.07042
550.30906	0.06680
549.02329	0.06344
547.73752	0.06037
546.45175	0.05767
545.16598	0.05531
543.88021	0.05322
542.59444	0.05134
541.30868	0.04964
540.02291	0.04814
538.73714	0.04681
537.45137	0.04560
536.16560	0.04443
534.87983	0.04328
533.59406	0.04214
532.30829	0.04105
531.02253	0.04003
529.73676	0.03911
528.45099	0.03829
527.16522	0.03754
525.87945	0.03685
524.59368	0.03622
523.30791	0.03566
522.02214	0.03513
520.73637	0.03456
519.45061	0.03393
518.16484	0.03327
516.87907	0.03263
515.59330	0.03202
514.30753	0.03149
513.02176	0.03103
511.73599	0.03062
510.45022	0.03023
509.16446	0.02986
507.87869	0.02952
506.59292	0.02919
505.30715	0.02884
504.02138	0.02845
502.73561	0.02807
501.44984	0.02776
500.16407	0.02756
498.87830	0.02743
497.59254	0.02731
496.30677	0.02716
495.02100	0.02694
493.73523	0.02666
492.44946	0.02633
491.16369	0.02598
489.87792	0.02567
488.59215	0.02545
487.30639	0.02533
486.02062	0.02530
484.73485	0.02537
483.44908	0.02551
482.16331	0.02570
480.87754	0.02588
479.59177	0.02599
478.30600	0.02601
477.02023	0.02599
475.73447	0.02601
474.44870	0.02610
473.16293	0.02624
471.87716	0.02634
470.59139	0.02635
469.30562	0.02623
468.01985	0.02604
466.73408	0.02582
465.44832	0.02558
464.16255	0.02532
462.87678	0.02503
461.59101	0.02473
460.30524	0.02446
459.01947	0.02425
457.73370	0.02407
456.44793	0.02392
455.16216	0.02375
453.87640	0.02357
452.59063	0.02337
451.30486	0.02315
450.01909	0.02294
448.73332	0.02275
447.44755	0.02256
446.16178	0.02239
444.87601	0.02227
443.59025	0.02220
442.30448	0.02214
441.01871	0.02204
439.73294	0.02190
438.44717	0.02176
437.16140	0.02167
435.87563	0.02164
434.58986	0.02163
433.30409	0.02160
432.01833	0.02153
430.73256	0.02144
429.44679	0.02134
428.16102	0.02126
426.87525	0.02117
425.58948	0.02107
424.30371	0.02096
423.01794	0.02087
421.73218	0.02082
420.44641	0.02079
419.16064	0.02076
417.87487	0.02070
416.58910	0.02061
415.30333	0.02049
414.01756	0.02039
412.73179	0.02030
411.44602	0.02024
410.16026	0.02021
408.87449	0.02025
407.58872	0.02035
406.30295	0.02049
405.01718	0.02060
403.73141	0.02065
402.44564	0.02064
401.15987	0.02063
399.87411	0.02066
